SpectraSuite Data File
++++++++++++++++++++++++++++++++++++
Date: Fri Oct 25 12:10:56 EDT 2013
User: price-jones
Dark Spectrum Present: No
Reference Spectrum Present: No
Number of Sampled Component Spectra: 1
Spectrometers: USB2+H05261
Integration Time (usec): 100000 (USB2+H05261)
Spectra Averaged: 1 (USB2+H05261)
Boxcar Smoothing: 0 (USB2+H05261)
Correct for Electrical Dark: No (USB2+H05261)
Strobe/Lamp Enabled: No (USB2+H05261)
Correct for Detector Non-linearity: No (USB2+H05261)
Correct for Stray Light: No (USB2+H05261)
Number of Pixels in Processed Spectrum: 2048
>>>>>Begin Processed Spectral Data<<<<<
365.73	337.04
365.92	337.04
366.12	337.04
366.32	337.04
366.52	290.23
366.72	271.50
366.91	241.08
367.11	306.61
367.31	191.92
367.51	210.65
367.70	262.14
367.90	278.52
368.10	262.14
368.30	262.14
368.49	194.26
368.69	322.99
368.89	236.39
369.09	217.67
369.28	276.18
369.48	367.46
369.68	290.23
369.87	320.65
370.07	294.91
370.27	344.06
370.47	407.25
370.66	334.70
370.86	376.83
371.06	369.80
371.25	479.81
371.45	346.40
371.65	416.62
371.84	360.44
372.04	409.59
372.24	353.42
372.44	390.87
372.63	456.40
372.83	369.80
373.03	404.91
373.22	458.74
373.42	362.78
373.62	414.27
373.81	379.17
374.01	421.30
374.21	442.36
374.40	376.83
374.60	489.17
374.79	400.23
374.99	388.53
375.19	416.62
375.38	346.40
375.58	400.23
375.78	444.70
375.97	489.17
376.17	472.79
376.37	449.38
376.56	428.32
376.76	435.34
376.95	479.81
377.15	379.17
377.35	435.34
377.54	379.17
377.74	397.89
377.93	395.55
378.13	435.34
378.33	423.64
378.52	381.51
378.72	510.24
378.91	449.38
379.11	428.32
379.31	433.00
379.50	381.51
379.70	489.17
379.89	458.74
380.09	393.21
380.28	369.80
380.48	418.96
380.68	402.57
380.87	397.89
381.07	379.17
381.26	442.36
381.46	322.99
381.65	433.00
381.85	407.25
382.04	390.87
382.24	465.77
382.43	372.15
382.63	344.06
382.83	365.12
383.02	491.51
383.22	404.91
383.41	451.72
383.61	320.65
383.80	404.91
384.00	402.57
384.19	409.59
384.39	472.79
384.58	411.93
384.78	425.98
384.97	456.40
385.17	430.66
385.36	372.15
385.56	433.00
385.75	395.55
385.95	418.96
386.14	367.46
386.34	411.93
386.53	400.23
386.72	416.62
386.92	435.34
387.11	437.68
387.31	423.64
387.50	414.27
387.70	362.78
387.89	470.45
388.09	503.22
388.28	360.44
388.48	423.64
388.67	393.21
388.86	430.66
389.06	397.89
389.25	430.66
389.45	381.51
389.64	470.45
389.84	414.27
390.03	383.85
390.22	416.62
390.42	395.55
390.61	421.30
390.81	423.64
391.00	362.78
391.19	423.64
391.39	365.12
391.58	498.53
391.78	379.17
391.97	423.64
392.16	390.87
392.36	437.68
392.55	390.87
392.75	409.59
392.94	365.12
393.13	344.06
393.33	393.21
393.52	463.43
393.71	479.81
393.91	421.30
394.10	402.57
394.29	341.72
394.49	437.68
394.68	416.62
394.88	458.74
395.07	362.78
395.26	367.46
395.46	334.70
395.65	449.38
395.84	428.32
396.04	447.04
396.23	425.98
396.42	379.17
396.62	369.80
396.81	383.85
397.00	381.51
397.19	390.87
397.39	447.04
397.58	381.51
397.77	369.80
397.97	440.02
398.16	433.00
398.35	421.30
398.55	374.49
398.74	416.62
398.93	418.96
399.12	369.80
399.32	337.04
399.51	468.11
399.70	402.57
399.90	294.91
400.09	430.66
400.28	465.77
400.47	423.64
400.67	418.96
400.86	421.30
401.05	468.11
401.24	470.45
401.44	404.91
401.63	433.00
401.82	428.32
402.01	416.62
402.21	468.11
402.40	411.93
402.59	442.36
402.78	395.55
402.97	301.93
403.17	458.74
403.36	393.21
403.55	393.21
403.74	418.96
403.93	421.30
404.13	404.91
404.32	402.57
404.51	383.85
404.70	381.51
404.89	416.62
405.09	437.68
405.28	395.55
405.47	414.27
405.66	428.32
405.85	468.11
406.05	344.06
406.24	346.40
406.43	409.59
406.62	435.34
406.81	491.51
407.00	458.74
407.20	482.15
407.39	433.00
407.58	393.21
407.77	346.40
407.96	390.87
408.15	435.34
408.34	390.87
408.54	404.91
408.73	404.91
408.92	437.68
409.11	468.11
409.30	409.59
409.49	369.80
409.68	383.85
409.87	440.02
410.07	442.36
410.26	407.25
410.45	330.02
410.64	451.72
410.83	440.02
411.02	358.10
411.21	479.81
411.40	430.66
411.59	414.27
411.78	454.06
411.98	381.51
412.17	383.85
412.36	411.93
412.55	421.30
412.74	454.06
412.93	430.66
413.12	423.64
413.31	454.06
413.50	330.02
413.69	451.72
413.88	470.45
414.07	400.23
414.26	449.38
414.45	339.38
414.64	409.59
414.83	454.06
415.02	447.04
415.22	402.57
415.41	383.85
415.60	400.23
415.79	437.68
415.98	433.00
416.17	379.17
416.36	421.30
416.55	440.02
416.74	444.70
416.93	430.66
417.12	430.66
417.31	423.64
417.50	411.93
417.69	458.74
417.88	437.68
418.07	383.85
418.26	444.70
418.45	367.46
418.64	440.02
418.83	475.13
419.02	409.59
419.21	372.15
419.39	381.51
419.58	390.87
419.77	449.38
419.96	447.04
420.15	393.21
420.34	395.55
420.53	440.02
420.72	407.25
420.91	449.38
421.10	376.83
421.29	468.11
421.48	430.66
421.67	468.11
421.86	451.72
422.05	390.87
422.24	374.49
422.43	400.23
422.61	449.38
422.80	332.36
422.99	407.25
423.18	430.66
423.37	418.96
423.56	395.55
423.75	397.89
423.94	383.85
424.13	416.62
424.32	388.53
424.50	367.46
424.69	444.70
424.88	416.62
425.07	383.85
425.26	465.77
425.45	451.72
425.64	416.62
425.83	348.74
426.01	414.27
426.20	390.87
426.39	407.25
426.58	397.89
426.77	437.68
426.96	416.62
427.15	414.27
427.33	440.02
427.52	402.57
427.71	411.93
427.90	477.47
428.09	383.85
428.28	365.12
428.46	320.65
428.65	456.40
428.84	327.68
429.03	433.00
429.22	353.42
429.40	397.89
429.59	358.10
429.78	407.25
429.97	400.23
430.16	430.66
430.34	447.04
430.53	395.55
430.72	430.66
430.91	442.36
431.10	411.93
431.28	379.17
431.47	402.57
431.66	449.38
431.85	425.98
432.03	421.30
432.22	386.19
432.41	472.79
432.60	402.57
432.79	358.10
432.97	379.17
433.16	381.51
433.35	451.72
433.54	418.96
433.72	355.76
433.91	407.25
434.10	416.62
434.28	437.68
434.47	379.17
434.66	407.25
434.85	461.09
435.03	440.02
435.22	337.04
435.41	421.30
435.59	402.57
435.78	428.32
435.97	397.89
436.16	421.30
436.34	442.36
436.53	475.13
436.72	437.68
436.90	491.51
437.09	503.22
437.28	425.98
437.46	407.25
437.65	435.34
437.84	454.06
438.02	416.62
438.21	421.30
438.40	454.06
438.58	355.76
438.77	447.04
438.96	451.72
439.14	421.30
439.33	454.06
439.52	435.34
439.70	390.87
439.89	383.85
440.08	416.62
440.26	351.08
440.45	376.83
440.63	327.68
440.82	348.74
441.01	423.64
441.19	411.93
441.38	456.40
441.57	451.72
441.75	456.40
441.94	444.70
442.12	414.27
442.31	381.51
442.50	451.72
442.68	407.25
442.87	456.40
443.05	404.91
443.24	456.40
443.43	479.81
443.61	496.19
443.80	435.34
443.98	433.00
444.17	444.70
444.35	465.77
444.54	444.70
444.73	411.93
444.91	449.38
445.10	447.04
445.28	411.93
445.47	451.72
445.65	435.34
445.84	400.23
446.02	353.42
446.21	304.27
446.39	442.36
446.58	395.55
446.77	456.40
446.95	402.57
447.14	411.93
447.32	472.79
447.51	482.15
447.69	411.93
447.88	435.34
448.06	486.83
448.25	454.06
448.43	346.40
448.62	376.83
448.80	386.19
448.99	421.30
449.17	407.25
449.36	313.63
449.54	470.45
449.73	437.68
449.91	535.98
450.10	414.27
450.28	435.34
450.46	416.62
450.65	425.98
450.83	423.64
451.02	395.55
451.20	400.23
451.39	440.02
451.57	315.97
451.76	367.46
451.94	376.83
452.13	383.85
452.31	489.17
452.49	393.21
452.68	409.59
452.86	425.98
453.05	496.19
453.23	440.02
453.42	421.30
453.60	344.06
453.78	449.38
453.97	468.11
454.15	430.66
454.34	423.64
454.52	407.25
454.70	353.42
454.89	421.30
455.07	397.89
455.26	433.00
455.44	404.91
455.62	447.04
455.81	435.34
455.99	404.91
456.17	362.78
456.36	372.15
456.54	454.06
456.73	407.25
456.91	458.74
457.09	454.06
457.28	421.30
457.46	461.09
457.64	451.72
457.83	470.45
458.01	315.97
458.19	486.83
458.38	414.27
458.56	379.17
458.74	404.91
458.93	430.66
459.11	477.47
459.29	433.00
459.48	447.04
459.66	411.93
459.84	388.53
460.03	454.06
460.21	503.22
460.39	456.40
460.57	451.72
460.76	454.06
460.94	390.87
461.12	390.87
461.31	437.68
461.49	430.66
461.67	369.80
461.85	437.68
462.04	507.90
462.22	814.51
462.40	402.57
462.59	388.53
462.77	454.06
462.95	365.12
463.13	463.43
463.32	451.72
463.50	379.17
463.68	353.42
463.86	360.44
464.05	379.17
464.23	383.85
464.41	489.17
464.59	407.25
464.78	388.53
464.96	404.91
465.14	470.45
465.32	470.45
465.50	402.57
465.69	414.27
465.87	440.02
466.05	386.19
466.23	339.38
466.41	416.62
466.60	395.55
466.78	465.77
466.96	451.72
467.14	390.87
467.32	477.47
467.51	430.66
467.69	416.62
467.87	414.27
468.05	400.23
468.23	500.87
468.41	444.70
468.60	367.46
468.78	414.27
468.96	447.04
469.14	449.38
469.32	411.93
469.50	308.95
469.69	365.12
469.87	369.80
470.05	433.00
470.23	437.68
470.41	374.49
470.59	440.02
470.77	461.09
470.95	421.30
471.14	416.62
471.32	414.27
471.50	395.55
471.68	386.19
471.86	444.70
472.04	430.66
472.22	430.66
472.40	407.25
472.58	390.87
472.77	407.25
472.95	409.59
473.13	458.74
473.31	458.74
473.49	360.44
473.67	390.87
473.85	402.57
474.03	414.27
474.21	428.32
474.39	463.43
474.57	404.91
474.75	346.40
474.93	395.55
475.12	353.42
475.30	428.32
475.48	461.09
475.66	407.25
475.84	482.15
476.02	362.78
476.20	479.81
476.38	402.57
476.56	430.66
476.74	407.25
476.92	454.06
477.10	425.98
477.28	367.46
477.46	409.59
477.64	409.59
477.82	372.15
478.00	418.96
478.18	470.45
478.36	411.93
478.54	414.27
478.72	468.11
478.90	379.17
479.08	475.13
479.26	454.06
479.44	402.57
479.62	353.42
479.80	416.62
479.98	353.42
480.16	411.93
480.34	430.66
480.52	365.12
480.70	442.36
480.88	393.21
481.06	395.55
481.24	416.62
481.41	435.34
481.59	402.57
481.77	404.91
481.95	388.53
482.13	414.27
482.31	423.64
482.49	404.91
482.67	416.62
482.85	365.12
483.03	421.30
483.21	451.72
483.39	386.19
483.57	425.98
483.74	421.30
483.92	362.78
484.10	386.19
484.28	454.06
484.46	402.57
484.64	402.57
484.82	423.64
485.00	493.85
485.18	416.62
485.35	407.25
485.53	404.91
485.71	418.96
485.89	472.79
486.07	402.57
486.25	489.17
486.43	470.45
486.61	461.09
486.78	435.34
486.96	348.74
487.14	372.15
487.32	444.70
487.50	416.62
487.68	444.70
487.85	433.00
488.03	449.38
488.21	440.02
488.39	393.21
488.57	388.53
488.75	409.59
488.92	503.22
489.10	475.13
489.28	390.87
489.46	402.57
489.64	383.85
489.81	397.89
489.99	416.62
490.17	393.21
490.35	463.43
490.53	414.27
490.70	411.93
490.88	449.38
491.06	374.49
491.24	435.34
491.41	440.02
491.59	442.36
491.77	379.17
491.95	421.30
492.13	390.87
492.30	447.04
492.48	407.25
492.66	468.11
492.84	454.06
493.01	411.93
493.19	440.02
493.37	486.83
493.54	393.21
493.72	397.89
493.90	430.66
494.08	372.15
494.25	383.85
494.43	428.32
494.61	456.40
494.79	348.74
494.96	484.49
495.14	510.24
495.32	435.34
495.49	388.53
495.67	444.70
495.85	407.25
496.02	440.02
496.20	402.57
496.38	404.91
496.55	442.36
496.73	437.68
496.91	421.30
497.09	339.38
497.26	325.33
497.44	362.78
497.62	400.23
497.79	423.64
497.97	451.72
498.14	456.40
498.32	433.00
498.50	451.72
498.67	423.64
498.85	451.72
499.03	411.93
499.20	397.89
499.38	400.23
499.56	397.89
499.73	428.32
499.91	468.11
500.08	409.59
500.26	493.85
500.44	332.36
500.61	423.64
500.79	360.44
500.97	353.42
501.14	447.04
501.32	435.34
501.49	411.93
501.67	381.51
501.84	418.96
502.02	383.85
502.20	493.85
502.37	451.72
502.55	390.87
502.72	383.85
502.90	479.81
503.07	437.68
503.25	442.36
503.43	390.87
503.60	330.02
503.78	456.40
503.95	404.91
504.13	414.27
504.30	435.34
504.48	475.13
504.65	411.93
504.83	397.89
505.01	383.85
505.18	411.93
505.36	353.42
505.53	351.08
505.71	451.72
505.88	451.72
506.06	388.53
506.23	430.66
506.41	423.64
506.58	416.62
506.76	440.02
506.93	407.25
507.11	409.59
507.28	423.64
507.46	433.00
507.63	435.34
507.81	409.59
507.98	376.83
508.16	353.42
508.33	433.00
508.50	433.00
508.68	367.46
508.85	484.49
509.03	409.59
509.20	360.44
509.38	402.57
509.55	444.70
509.73	402.57
509.90	390.87
510.08	437.68
510.25	435.34
510.42	376.83
510.60	447.04
510.77	456.40
510.95	496.19
511.12	437.68
511.30	355.76
511.47	397.89
511.64	454.06
511.82	379.17
511.99	414.27
512.17	372.15
512.34	353.42
512.51	414.27
512.69	414.27
512.86	491.51
513.04	428.32
513.21	320.65
513.38	379.17
513.56	435.34
513.73	435.34
513.90	369.80
514.08	386.19
514.25	425.98
514.43	376.83
514.60	430.66
514.77	379.17
514.95	418.96
515.12	355.76
515.29	435.34
515.47	440.02
515.64	393.21
515.81	468.11
515.99	486.83
516.16	381.51
516.33	493.85
516.51	407.25
516.68	479.81
516.85	428.32
517.03	451.72
517.20	447.04
517.37	418.96
517.54	437.68
517.72	425.98
517.89	402.57
518.06	360.44
518.24	458.74
518.41	383.85
518.58	367.46
518.75	456.40
518.93	381.51
519.10	456.40
519.27	353.42
519.45	440.02
519.62	407.25
519.79	390.87
519.96	383.85
520.14	451.72
520.31	458.74
520.48	411.93
520.65	496.19
520.83	468.11
521.00	418.96
521.17	437.68
521.34	430.66
521.52	425.98
521.69	372.15
521.86	430.66
522.03	374.49
522.20	404.91
522.38	425.98
522.55	437.68
522.72	376.83
522.89	416.62
523.07	428.32
523.24	355.76
523.41	402.57
523.58	404.91
523.75	362.78
523.92	388.53
524.10	414.27
524.27	388.53
524.44	372.15
524.61	369.80
524.78	400.23
524.96	407.25
525.13	379.17
525.30	463.43
525.47	430.66
525.64	407.25
525.81	472.79
525.98	465.77
526.16	475.13
526.33	414.27
526.50	418.96
526.67	407.25
526.84	428.32
527.01	416.62
527.18	397.89
527.36	472.79
527.53	430.66
527.70	383.85
527.87	433.00
528.04	418.96
528.21	414.27
528.38	463.43
528.55	428.32
528.72	451.72
528.89	402.57
529.07	470.45
529.24	414.27
529.41	486.83
529.58	479.81
529.75	411.93
529.92	428.32
530.09	330.02
530.26	393.21
530.43	416.62
530.60	411.93
530.77	421.30
530.94	500.87
531.11	395.55
531.28	435.34
531.46	470.45
531.63	386.19
531.80	425.98
531.97	409.59
532.14	477.47
532.31	468.11
532.48	400.23
532.65	470.45
532.82	374.49
532.99	465.77
533.16	388.53
533.33	486.83
533.50	395.55
533.67	407.25
533.84	374.49
534.01	334.70
534.18	381.51
534.35	437.68
534.52	397.89
534.69	409.59
534.86	379.17
535.03	395.55
535.20	451.72
535.37	383.85
535.54	458.74
535.71	369.80
535.88	447.04
536.05	362.78
536.22	454.06
536.38	437.68
536.55	360.44
536.72	423.64
536.89	344.06
537.06	397.89
537.23	414.27
537.40	423.64
537.57	433.00
537.74	433.00
537.91	418.96
538.08	409.59
538.25	416.62
538.42	376.83
538.59	334.70
538.75	409.59
538.92	404.91
539.09	418.96
539.26	397.89
539.43	454.06
539.60	379.17
539.77	496.19
539.94	456.40
540.11	500.87
540.28	458.74
540.44	421.30
540.61	421.30
540.78	444.70
540.95	379.17
541.12	404.91
541.29	433.00
541.46	421.30
541.62	411.93
541.79	430.66
541.96	461.09
542.13	423.64
542.30	376.83
542.47	447.04
542.63	456.40
542.80	416.62
542.97	470.45
543.14	358.10
543.31	416.62
543.48	341.72
543.64	440.02
543.81	442.36
543.98	376.83
544.15	447.04
544.32	442.36
544.48	411.93
544.65	400.23
544.82	381.51
544.99	458.74
545.16	418.96
545.32	433.00
545.49	397.89
545.66	311.29
545.83	442.36
546.00	409.59
546.16	308.95
546.33	416.62
546.50	468.11
546.67	435.34
546.83	386.19
547.00	465.77
547.17	404.91
547.34	376.83
547.50	397.89
547.67	395.55
547.84	414.27
548.00	484.49
548.17	390.87
548.34	430.66
548.51	458.74
548.67	397.89
548.84	407.25
549.01	330.02
549.18	369.80
549.34	482.15
549.51	393.21
549.68	409.59
549.84	479.81
550.01	369.80
550.18	489.17
550.34	475.13
550.51	404.91
550.68	421.30
550.84	416.62
551.01	404.91
551.18	421.30
551.34	482.15
551.51	428.32
551.68	330.02
551.84	428.32
552.01	468.11
552.18	397.89
552.34	437.68
552.51	404.91
552.68	472.79
552.84	421.30
553.01	447.04
553.18	409.59
553.34	477.47
553.51	411.93
553.67	472.79
553.84	496.19
554.01	505.56
554.17	346.40
554.34	428.32
554.51	341.72
554.67	353.42
554.84	367.46
555.00	465.77
555.17	395.55
555.33	447.04
555.50	433.00
555.67	327.68
555.83	376.83
556.00	465.77
556.16	498.53
556.33	456.40
556.50	383.85
556.66	411.93
556.83	386.19
556.99	390.87
557.16	468.11
557.32	381.51
557.49	442.36
557.65	395.55
557.82	348.74
557.98	463.43
558.15	463.43
558.32	444.70
558.48	404.91
558.65	440.02
558.81	423.64
558.98	381.51
559.14	423.64
559.31	423.64
559.47	407.25
559.64	400.23
559.80	376.83
559.97	435.34
560.13	425.98
560.30	381.51
560.46	423.64
560.63	409.59
560.79	400.23
560.96	381.51
561.12	430.66
561.29	381.51
561.45	374.49
561.61	411.93
561.78	465.77
561.94	404.91
562.11	402.57
562.27	400.23
562.44	390.87
562.60	393.21
562.77	454.06
562.93	372.15
563.10	430.66
563.26	407.25
563.42	449.38
563.59	397.89
563.75	397.89
563.92	468.11
564.08	386.19
564.24	437.68
564.41	498.53
564.57	358.10
564.74	444.70
564.90	477.47
565.07	411.93
565.23	470.45
565.39	423.64
565.56	428.32
565.72	339.38
565.88	388.53
566.05	444.70
566.21	421.30
566.38	409.59
566.54	411.93
566.70	367.46
566.87	404.91
567.03	423.64
567.19	386.19
567.36	444.70
567.52	358.10
567.68	451.72
567.85	397.89
568.01	409.59
568.17	423.64
568.34	477.47
568.50	465.77
568.66	416.62
568.83	449.38
568.99	407.25
569.15	444.70
569.32	409.59
569.48	444.70
569.64	367.46
569.81	428.32
569.97	463.43
570.13	409.59
570.30	449.38
570.46	444.70
570.62	447.04
570.78	374.49
570.95	404.91
571.11	451.72
571.27	500.87
571.43	470.45
571.60	458.74
571.76	393.21
571.92	421.30
572.09	374.49
572.25	355.76
572.41	442.36
572.57	369.80
572.74	463.43
572.90	341.72
573.06	358.10
573.22	386.19
573.38	393.21
573.55	458.74
573.71	451.72
573.87	437.68
574.03	376.83
574.20	379.17
574.36	475.13
574.52	463.43
574.68	472.79
574.84	404.91
575.01	402.57
575.17	482.15
575.33	456.40
575.49	458.74
575.65	421.30
575.82	430.66
575.98	404.91
576.14	393.21
576.30	416.62
576.46	404.91
576.62	414.27
576.79	425.98
576.95	479.81
577.11	503.22
577.27	409.59
577.43	423.64
577.59	407.25
577.75	428.32
577.92	400.23
578.08	449.38
578.24	414.27
578.40	425.98
578.56	468.11
578.72	482.15
578.88	395.55
579.04	423.64
579.21	351.08
579.37	414.27
579.53	393.21
579.69	468.11
579.85	416.62
580.01	477.47
580.17	395.55
580.33	425.98
580.49	451.72
580.65	470.45
580.82	433.00
580.98	437.68
581.14	411.93
581.30	461.09
581.46	465.77
581.62	435.34
581.78	437.68
581.94	533.64
582.10	430.66
582.26	425.98
582.42	421.30
582.58	454.06
582.74	468.11
582.90	442.36
583.06	418.96
583.22	390.87
583.38	456.40
583.54	383.85
583.70	414.27
583.86	486.83
584.02	458.74
584.18	465.77
584.34	547.69
584.50	365.12
584.66	355.76
584.82	444.70
584.98	421.30
585.14	421.30
585.30	402.57
585.46	437.68
585.62	414.27
585.78	409.59
585.94	440.02
586.10	418.96
586.26	456.40
586.42	477.47
586.58	402.57
586.74	428.32
586.90	437.68
587.06	447.04
587.22	437.68
587.38	407.25
587.54	416.62
587.70	449.38
587.86	404.91
588.02	461.09
588.18	395.55
588.34	470.45
588.49	416.62
588.65	423.64
588.81	451.72
588.97	404.91
589.13	407.25
589.29	407.25
589.45	409.59
589.61	430.66
589.77	374.49
589.93	430.66
590.08	386.19
590.24	447.04
590.40	383.85
590.56	456.40
590.72	365.12
590.88	402.57
591.04	461.09
591.20	400.23
591.35	433.00
591.51	423.64
591.67	435.34
591.83	388.53
591.99	362.78
592.15	503.22
592.31	374.49
592.46	374.49
592.62	496.19
592.78	489.17
592.94	407.25
593.10	400.23
593.26	465.77
593.41	425.98
593.57	496.19
593.73	393.21
593.89	463.43
594.05	395.55
594.20	463.43
594.36	454.06
594.52	475.13
594.68	404.91
594.84	428.32
594.99	430.66
595.15	428.32
595.31	433.00
595.47	393.21
595.62	472.79
595.78	402.57
595.94	451.72
596.10	465.77
596.25	454.06
596.41	489.17
596.57	423.64
596.73	421.30
596.88	379.17
597.04	395.55
597.20	386.19
597.36	449.38
597.51	447.04
597.67	404.91
597.83	435.34
597.99	465.77
598.14	451.72
598.30	468.11
598.46	465.77
598.61	433.00
598.77	365.12
598.93	428.32
599.09	407.25
599.24	433.00
599.40	437.68
599.56	411.93
599.71	451.72
599.87	435.34
600.03	348.74
600.18	407.25
600.34	425.98
600.50	416.62
600.65	416.62
600.81	463.43
600.97	374.49
601.12	393.21
601.28	440.02
601.44	451.72
601.59	430.66
601.75	461.09
601.91	383.85
602.06	498.53
602.22	458.74
602.37	411.93
602.53	355.76
602.69	423.64
602.84	414.27
603.00	423.64
603.16	496.19
603.31	465.77
603.47	404.91
603.62	463.43
603.78	498.53
603.94	402.57
604.09	428.32
604.25	327.68
604.40	397.89
604.56	353.42
604.71	388.53
604.87	479.81
605.03	421.30
605.18	463.43
605.34	484.49
605.49	440.02
605.65	386.19
605.80	402.57
605.96	444.70
606.12	409.59
606.27	388.53
606.43	386.19
606.58	388.53
606.74	409.59
606.89	437.68
607.05	430.66
607.20	402.57
607.36	428.32
607.51	400.23
607.67	444.70
607.82	423.64
607.98	407.25
608.13	390.87
608.29	383.85
608.44	475.13
608.60	449.38
608.75	404.91
608.91	407.25
609.06	383.85
609.22	440.02
609.37	353.42
609.53	374.49
609.68	411.93
609.84	390.87
609.99	442.36
610.15	395.55
610.30	418.96
610.46	355.76
610.61	421.30
610.76	475.13
610.92	379.17
611.07	407.25
611.23	486.83
611.38	444.70
611.54	440.02
611.69	341.72
611.84	407.25
612.00	447.04
612.15	411.93
612.31	362.78
612.46	416.62
612.62	339.38
612.77	383.85
612.92	505.56
613.08	322.99
613.23	393.21
613.39	362.78
613.54	374.49
613.69	454.06
613.85	411.93
614.00	400.23
614.15	379.17
614.31	425.98
614.46	374.49
614.62	428.32
614.77	458.74
614.92	486.83
615.08	470.45
615.23	451.72
615.38	402.57
615.54	421.30
615.69	433.00
615.84	339.38
616.00	369.80
616.15	454.06
616.30	374.49
616.46	383.85
616.61	425.98
616.76	390.87
616.92	376.83
617.07	425.98
617.22	421.30
617.37	482.15
617.53	425.98
617.68	416.62
617.83	456.40
617.99	381.51
618.14	442.36
618.29	404.91
618.45	458.74
618.60	442.36
618.75	421.30
618.90	388.53
619.06	454.06
619.21	465.77
619.36	442.36
619.51	447.04
619.67	400.23
619.82	395.55
619.97	470.45
620.12	362.78
620.28	451.72
620.43	468.11
620.58	435.34
620.73	372.15
620.89	409.59
621.04	395.55
621.19	379.17
621.34	411.93
621.49	411.93
621.65	395.55
621.80	365.12
621.95	395.55
622.10	484.49
622.25	407.25
622.41	362.78
622.56	374.49
622.71	381.51
622.86	482.15
623.01	456.40
623.16	458.74
623.32	418.96
623.47	449.38
623.62	444.70
623.77	404.91
623.92	395.55
624.07	365.12
624.23	407.25
624.38	414.27
624.53	456.40
624.68	447.04
624.83	479.81
624.98	402.57
625.13	327.68
625.29	404.91
625.44	379.17
625.59	308.95
625.74	407.25
625.89	456.40
626.04	423.64
626.19	322.99
626.34	397.89
626.49	411.93
626.65	404.91
626.80	442.36
626.95	451.72
627.10	367.46
627.25	404.91
627.40	365.12
627.55	423.64
627.70	325.33
627.85	472.79
628.00	383.85
628.15	475.13
628.30	397.89
628.45	407.25
628.60	374.49
628.76	411.93
628.91	451.72
629.06	346.40
629.21	442.36
629.36	437.68
629.51	409.59
629.66	402.57
629.81	433.00
629.96	418.96
630.11	477.47
630.26	444.70
630.41	414.27
630.56	369.80
630.71	400.23
630.86	447.04
631.01	376.83
631.16	430.66
631.31	428.32
631.46	477.47
631.61	418.96
631.76	440.02
631.91	421.30
632.06	421.30
632.21	465.77
632.36	388.53
632.51	463.43
632.66	386.19
632.81	409.59
632.96	496.19
633.10	416.62
633.25	451.72
633.40	421.30
633.55	386.19
633.70	447.04
633.85	454.06
634.00	376.83
634.15	416.62
634.30	458.74
634.45	369.80
634.60	372.15
634.75	411.93
634.90	402.57
635.05	397.89
635.19	374.49
635.34	407.25
635.49	423.64
635.64	454.06
635.79	430.66
635.94	407.25
636.09	416.62
636.24	355.76
636.39	416.62
636.53	435.34
636.68	458.74
636.83	454.06
636.98	449.38
637.13	374.49
637.28	451.72
637.43	482.15
637.57	393.21
637.72	414.27
637.87	390.87
638.02	388.53
638.17	430.66
638.32	381.51
638.46	463.43
638.61	461.09
638.76	475.13
638.91	383.85
639.06	423.64
639.20	421.30
639.35	393.21
639.50	388.53
639.65	423.64
639.80	433.00
639.94	468.11
640.09	402.57
640.24	404.91
640.39	407.25
640.54	421.30
640.68	449.38
640.83	486.83
640.98	376.83
641.13	444.70
641.27	383.85
641.42	447.04
641.57	437.68
641.72	381.51
641.86	423.64
642.01	372.15
642.16	414.27
642.31	423.64
642.45	461.09
642.60	482.15
642.75	468.11
642.90	475.13
643.04	358.10
643.19	411.93
643.34	433.00
643.48	411.93
643.63	414.27
643.78	423.64
643.93	489.17
644.07	491.51
644.22	425.98
644.37	322.99
644.51	421.30
644.66	414.27
644.81	447.04
644.95	505.56
645.10	482.15
645.25	423.64
645.39	470.45
645.54	388.53
645.69	451.72
645.83	341.72
645.98	503.22
646.13	407.25
646.27	411.93
646.42	327.68
646.57	414.27
646.71	454.06
646.86	416.62
647.00	416.62
647.15	435.34
647.30	416.62
647.44	437.68
647.59	440.02
647.74	400.23
647.88	386.19
648.03	369.80
648.17	411.93
648.32	449.38
648.47	463.43
648.61	411.93
648.76	395.55
648.90	507.90
649.05	390.87
649.20	449.38
649.34	409.59
649.49	402.57
649.63	444.70
649.78	381.51
649.92	369.80
650.07	477.47
650.21	435.34
650.36	493.85
650.51	421.30
650.65	372.15
650.80	440.02
650.94	341.72
651.09	355.76
651.23	435.34
651.38	400.23
651.52	447.04
651.67	400.23
651.81	447.04
651.96	388.53
652.10	442.36
652.25	402.57
652.39	409.59
652.54	440.02
652.68	430.66
652.83	411.93
652.97	437.68
653.12	414.27
653.26	397.89
653.41	418.96
653.55	552.37
653.70	418.96
653.84	390.87
653.99	421.30
654.13	386.19
654.27	367.46
654.42	411.93
654.56	393.21
654.71	393.21
654.85	435.34
655.00	430.66
655.14	468.11
655.29	433.00
655.43	416.62
655.57	393.21
655.72	386.19
655.86	447.04
656.01	402.57
656.15	407.25
656.30	449.38
656.44	386.19
656.58	418.96
656.73	416.62
656.87	442.36
657.01	468.11
657.16	493.85
657.30	440.02
657.45	451.72
657.59	353.42
657.73	458.74
657.88	503.22
658.02	479.81
658.16	397.89
658.31	461.09
658.45	433.00
658.60	393.21
658.74	463.43
658.88	411.93
659.03	325.33
659.17	411.93
659.31	397.89
659.46	444.70
659.60	379.17
659.74	430.66
659.89	388.53
660.03	416.62
660.17	484.49
660.32	500.87
660.46	449.38
660.60	444.70
660.74	486.83
660.89	449.38
661.03	423.64
661.17	404.91
661.32	369.80
661.46	407.25
661.60	351.08
661.74	407.25
661.89	444.70
662.03	411.93
662.17	416.62
662.31	416.62
662.46	435.34
662.60	423.64
662.74	440.02
662.88	416.62
663.03	433.00
663.17	437.68
663.31	383.85
663.45	433.00
663.60	461.09
663.74	374.49
663.88	423.64
664.02	362.78
664.17	418.96
664.31	437.68
664.45	423.64
664.59	454.06
664.73	414.27
664.88	463.43
665.02	440.02
665.16	372.15
665.30	395.55
665.44	313.63
665.59	397.89
665.73	449.38
665.87	451.72
666.01	372.15
666.15	404.91
666.29	409.59
666.44	444.70
666.58	472.79
666.72	461.09
666.86	374.49
667.00	428.32
667.14	386.19
667.28	416.62
667.43	322.99
667.57	383.85
667.71	400.23
667.85	493.85
667.99	433.00
668.13	437.68
668.27	421.30
668.41	348.74
668.56	468.11
668.70	402.57
668.84	393.21
668.98	482.15
669.12	456.40
669.26	374.49
669.40	461.09
669.54	442.36
669.68	421.30
669.82	395.55
669.96	369.80
670.10	437.68
670.25	404.91
670.39	425.98
670.53	444.70
670.67	533.64
670.81	442.36
670.95	458.74
671.09	402.57
671.23	449.38
671.37	461.09
671.51	423.64
671.65	503.22
671.79	454.06
671.93	376.83
672.07	425.98
672.21	526.62
672.35	418.96
672.49	437.68
672.63	430.66
672.77	428.32
672.91	409.59
673.05	386.19
673.19	400.23
673.33	416.62
673.47	454.06
673.61	421.30
673.75	404.91
673.89	416.62
674.03	444.70
674.17	393.21
674.31	404.91
674.45	465.77
674.59	362.78
674.73	500.87
674.87	351.08
675.01	461.09
675.15	437.68
675.29	421.30
675.43	430.66
675.56	402.57
675.70	475.13
675.84	440.02
675.98	425.98
676.12	397.89
676.26	428.32
676.40	383.85
676.54	381.51
676.68	400.23
676.82	468.11
676.96	498.53
677.10	430.66
677.23	435.34
677.37	430.66
677.51	435.34
677.65	472.79
677.79	414.27
677.93	411.93
678.07	430.66
678.21	421.30
678.34	435.34
678.48	421.30
678.62	456.40
678.76	402.57
678.90	416.62
679.04	376.83
679.18	440.02
679.31	416.62
679.45	332.36
679.59	444.70
679.73	369.80
679.87	493.85
680.00	543.00
680.14	360.44
680.28	428.32
680.42	327.68
680.56	437.68
680.70	451.72
680.83	423.64
680.97	418.96
681.11	402.57
681.25	517.26
681.39	479.81
681.52	430.66
681.66	458.74
681.80	388.53
681.94	414.27
682.07	397.89
682.21	517.26
682.35	484.49
682.49	341.72
682.62	383.85
682.76	404.91
682.90	440.02
683.04	409.59
683.17	470.45
683.31	397.89
683.45	510.24
683.59	465.77
683.72	334.70
683.86	418.96
684.00	428.32
684.13	430.66
684.27	395.55
684.41	376.83
684.55	454.06
684.68	379.17
684.82	433.00
684.96	379.17
685.09	475.13
685.23	351.08
685.37	437.68
685.50	430.66
685.64	393.21
685.78	395.55
685.91	418.96
686.05	372.15
686.19	383.85
686.32	444.70
686.46	388.53
686.60	437.68
686.73	538.32
686.87	400.23
687.01	360.44
687.14	421.30
687.28	437.68
687.42	381.51
687.55	369.80
687.69	425.98
687.82	472.79
687.96	465.77
688.10	440.02
688.23	425.98
688.37	400.23
688.50	472.79
688.64	400.23
688.78	465.77
688.91	482.15
689.05	379.17
689.18	395.55
689.32	381.51
689.46	402.57
689.59	409.59
689.73	397.89
689.86	348.74
690.00	428.32
690.13	409.59
690.27	327.68
690.41	416.62
690.54	407.25
690.68	400.23
690.81	463.43
690.95	416.62
691.08	416.62
691.22	374.49
691.35	397.89
691.49	351.08
691.62	330.02
691.76	395.55
691.89	404.91
692.03	383.85
692.16	475.13
692.30	414.27
692.43	463.43
692.57	435.34
692.70	381.51
692.84	430.66
692.97	456.40
693.11	402.57
693.24	421.30
693.38	386.19
693.51	411.93
693.65	493.85
693.78	416.62
693.92	381.51
694.05	463.43
694.19	454.06
694.32	409.59
694.45	386.19
694.59	411.93
694.72	435.34
694.86	491.51
694.99	353.42
695.13	425.98
695.26	486.83
695.39	414.27
695.53	475.13
695.66	440.02
695.80	510.24
695.93	397.89
696.07	433.00
696.20	442.36
696.33	489.17
696.47	407.25
696.60	428.32
696.73	416.62
696.87	517.26
697.00	475.13
697.14	430.66
697.27	437.68
697.40	447.04
697.54	397.89
697.67	465.77
697.80	482.15
697.94	444.70
698.07	442.36
698.21	447.04
698.34	395.55
698.47	447.04
698.61	451.72
698.74	423.64
698.87	386.19
699.01	423.64
699.14	395.55
699.27	430.66
699.40	489.17
699.54	498.53
699.67	433.00
699.80	418.96
699.94	372.15
700.07	470.45
700.20	418.96
700.34	440.02
700.47	425.98
700.60	400.23
700.73	358.10
700.87	355.76
701.00	402.57
701.13	404.91
701.26	402.57
701.40	409.59
701.53	409.59
701.66	491.51
701.79	461.09
701.93	440.02
702.06	433.00
702.19	416.62
702.32	428.32
702.46	367.46
702.59	337.04
702.72	353.42
702.85	362.78
702.99	376.83
703.12	440.02
703.25	383.85
703.38	482.15
703.51	404.91
703.65	381.51
703.78	334.70
703.91	402.57
704.04	416.62
704.17	423.64
704.31	395.55
704.44	365.12
704.57	470.45
704.70	444.70
704.83	435.34
704.96	386.19
705.10	477.47
705.23	465.77
>>>>>End Processed Spectral Data<<<<<
