SpectraSuite Data File
++++++++++++++++++++++++++++++++++++
Date: Fri Oct 25 12:10:45 EDT 2013
User: price-jones
Dark Spectrum Present: No
Reference Spectrum Present: No
Number of Sampled Component Spectra: 1
Spectrometers: USB2+H05261
Integration Time (usec): 100000 (USB2+H05261)
Spectra Averaged: 1 (USB2+H05261)
Boxcar Smoothing: 0 (USB2+H05261)
Correct for Electrical Dark: No (USB2+H05261)
Strobe/Lamp Enabled: No (USB2+H05261)
Correct for Detector Non-linearity: No (USB2+H05261)
Correct for Stray Light: No (USB2+H05261)
Number of Pixels in Processed Spectrum: 2048
>>>>>Begin Processed Spectral Data<<<<<
365.73	299.59
365.92	299.59
366.12	299.59
366.32	252.78
366.52	243.42
366.72	304.27
366.91	210.65
367.11	182.56
367.31	241.08
367.51	276.18
367.70	290.23
367.90	224.69
368.10	215.33
368.30	222.35
368.49	201.29
368.69	215.33
368.89	252.78
369.09	290.23
369.28	320.65
369.48	177.88
369.68	315.97
369.87	360.44
370.07	362.78
370.27	374.49
370.47	322.99
370.66	276.18
370.86	381.51
371.06	330.02
371.25	414.27
371.45	411.93
371.65	381.51
371.84	301.93
372.04	358.10
372.24	381.51
372.44	423.64
372.63	379.17
372.83	402.57
373.03	367.46
373.22	414.27
373.42	444.70
373.62	407.25
373.81	430.66
374.01	435.34
374.21	400.23
374.40	409.59
374.60	433.00
374.79	362.78
374.99	442.36
375.19	433.00
375.38	409.59
375.58	409.59
375.78	416.62
375.97	486.83
376.17	493.85
376.37	369.80
376.56	475.13
376.76	416.62
376.95	414.27
377.15	463.43
377.35	451.72
377.54	390.87
377.74	404.91
377.93	449.38
378.13	402.57
378.33	430.66
378.52	381.51
378.72	428.32
378.91	428.32
379.11	379.17
379.31	500.87
379.50	411.93
379.70	463.43
379.89	372.15
380.09	376.83
380.28	365.12
380.48	423.64
380.68	409.59
380.87	393.21
381.07	379.17
381.26	463.43
381.46	407.25
381.65	437.68
381.85	351.08
382.04	461.09
382.24	416.62
382.43	456.40
382.63	381.51
382.83	414.27
383.02	442.36
383.22	400.23
383.41	425.98
383.61	437.68
383.80	409.59
384.00	332.36
384.19	458.74
384.39	484.49
384.58	372.15
384.78	423.64
384.97	444.70
385.17	393.21
385.36	367.46
385.56	430.66
385.75	393.21
385.95	337.04
386.14	440.02
386.34	437.68
386.53	381.51
386.72	461.09
386.92	386.19
387.11	388.53
387.31	379.17
387.50	444.70
387.70	369.80
387.89	390.87
388.09	367.46
388.28	374.49
388.48	465.77
388.67	388.53
388.86	411.93
389.06	440.02
389.25	400.23
389.45	404.91
389.64	388.53
389.84	409.59
390.03	341.72
390.22	425.98
390.42	390.87
390.61	449.38
390.81	393.21
391.00	348.74
391.19	397.89
391.39	433.00
391.58	451.72
391.78	437.68
391.97	421.30
392.16	395.55
392.36	440.02
392.55	461.09
392.75	407.25
392.94	472.79
393.13	395.55
393.33	402.57
393.52	418.96
393.71	395.55
393.91	414.27
394.10	308.95
394.29	433.00
394.49	393.21
394.68	486.83
394.88	407.25
395.07	416.62
395.26	433.00
395.46	374.49
395.65	393.21
395.84	414.27
396.04	418.96
396.23	437.68
396.42	393.21
396.62	416.62
396.81	414.27
397.00	395.55
397.19	390.87
397.39	407.25
397.58	447.04
397.77	353.42
397.97	372.15
398.16	461.09
398.35	468.11
398.55	367.46
398.74	437.68
398.93	428.32
399.12	374.49
399.32	315.97
399.51	308.95
399.70	411.93
399.90	381.51
400.09	440.02
400.28	421.30
400.47	416.62
400.67	400.23
400.86	449.38
401.05	418.96
401.24	425.98
401.44	397.89
401.63	393.21
401.82	507.90
402.01	442.36
402.21	409.59
402.40	442.36
402.59	362.78
402.78	407.25
402.97	400.23
403.17	362.78
403.36	423.64
403.55	393.21
403.74	407.25
403.93	449.38
404.13	449.38
404.32	376.83
404.51	402.57
404.70	388.53
404.89	341.72
405.09	400.23
405.28	421.30
405.47	330.02
405.66	418.96
405.85	374.49
406.05	449.38
406.24	407.25
406.43	418.96
406.62	407.25
406.81	470.45
407.00	435.34
407.20	428.32
407.39	486.83
407.58	372.15
407.77	421.30
407.96	425.98
408.15	425.98
408.34	383.85
408.54	402.57
408.73	421.30
408.92	416.62
409.11	376.83
409.30	411.93
409.49	409.59
409.68	376.83
409.87	395.55
410.07	383.85
410.26	444.70
410.45	414.27
410.64	372.15
410.83	404.91
411.02	444.70
411.21	468.11
411.40	468.11
411.59	425.98
411.78	400.23
411.98	346.40
412.17	355.76
412.36	381.51
412.55	362.78
412.74	493.85
412.93	393.21
413.12	388.53
413.31	400.23
413.50	437.68
413.69	386.19
413.88	414.27
414.07	428.32
414.26	339.38
414.45	421.30
414.64	344.06
414.83	369.80
415.02	447.04
415.22	433.00
415.41	461.09
415.60	400.23
415.79	421.30
415.98	425.98
416.17	400.23
416.36	463.43
416.55	479.81
416.74	407.25
416.93	418.96
417.12	451.72
417.31	440.02
417.50	409.59
417.69	418.96
417.88	404.91
418.07	393.21
418.26	440.02
418.45	397.89
418.64	505.56
418.83	390.87
419.02	418.96
419.21	390.87
419.39	435.34
419.58	440.02
419.77	414.27
419.96	379.17
420.15	479.81
420.34	393.21
420.53	411.93
420.72	433.00
420.91	489.17
421.10	416.62
421.29	362.78
421.48	411.93
421.67	397.89
421.86	369.80
422.05	390.87
422.24	337.04
422.43	425.98
422.61	379.17
422.80	470.45
422.99	411.93
423.18	341.72
423.37	444.70
423.56	489.17
423.75	418.96
423.94	433.00
424.13	353.42
424.32	402.57
424.50	440.02
424.69	418.96
424.88	437.68
425.07	414.27
425.26	393.21
425.45	411.93
425.64	423.64
425.83	393.21
426.01	440.02
426.20	414.27
426.39	454.06
426.58	346.40
426.77	390.87
426.96	374.49
427.15	353.42
427.33	416.62
427.52	376.83
427.71	449.38
427.90	409.59
428.09	444.70
428.28	397.89
428.46	451.72
428.65	395.55
428.84	437.68
429.03	470.45
429.22	351.08
429.40	367.46
429.59	390.87
429.78	348.74
429.97	465.77
430.16	376.83
430.34	362.78
430.53	400.23
430.72	395.55
430.91	416.62
431.10	414.27
431.28	400.23
431.47	383.85
431.66	444.70
431.85	414.27
432.03	416.62
432.22	472.79
432.41	360.44
432.60	397.89
432.79	353.42
432.97	447.04
433.16	449.38
433.35	407.25
433.54	407.25
433.72	444.70
433.91	465.77
434.10	386.19
434.28	461.09
434.47	407.25
434.66	414.27
434.85	374.49
435.03	362.78
435.22	416.62
435.41	379.17
435.59	447.04
435.78	423.64
435.97	393.21
436.16	393.21
436.34	442.36
436.53	461.09
436.72	442.36
436.90	358.10
437.09	444.70
437.28	390.87
437.46	411.93
437.65	386.19
437.84	435.34
438.02	383.85
438.21	477.47
438.40	369.80
438.58	404.91
438.77	353.42
438.96	442.36
439.14	468.11
439.33	428.32
439.52	381.51
439.70	376.83
439.89	421.30
440.08	440.02
440.26	425.98
440.45	402.57
440.63	510.24
440.82	411.93
441.01	416.62
441.19	458.74
441.38	430.66
441.57	421.30
441.75	418.96
441.94	433.00
442.12	386.19
442.31	372.15
442.50	351.08
442.68	423.64
442.87	449.38
443.05	346.40
443.24	362.78
443.43	388.53
443.61	496.19
443.80	383.85
443.98	411.93
444.17	367.46
444.35	409.59
444.54	454.06
444.73	362.78
444.91	442.36
445.10	379.17
445.28	390.87
445.47	379.17
445.65	374.49
445.84	461.09
446.02	404.91
446.21	421.30
446.39	430.66
446.58	444.70
446.77	346.40
446.95	346.40
447.14	470.45
447.32	454.06
447.51	402.57
447.69	351.08
447.88	390.87
448.06	407.25
448.25	423.64
448.43	381.51
448.62	330.02
448.80	402.57
448.99	362.78
449.17	393.21
449.36	365.12
449.54	390.87
449.73	409.59
449.91	437.68
450.10	381.51
450.28	414.27
450.46	372.15
450.65	376.83
450.83	355.76
451.02	451.72
451.20	475.13
451.39	383.85
451.57	402.57
451.76	468.11
451.94	409.59
452.13	381.51
452.31	479.81
452.49	407.25
452.68	395.55
452.86	454.06
453.05	503.22
453.23	381.51
453.42	407.25
453.60	451.72
453.78	447.04
453.97	376.83
454.15	315.97
454.34	395.55
454.52	400.23
454.70	479.81
454.89	416.62
455.07	400.23
455.26	414.27
455.44	421.30
455.62	381.51
455.81	400.23
455.99	390.87
456.17	411.93
456.36	402.57
456.54	351.08
456.73	470.45
456.91	374.49
457.09	433.00
457.28	404.91
457.46	393.21
457.64	418.96
457.83	393.21
458.01	395.55
458.19	425.98
458.38	379.17
458.56	400.23
458.74	440.02
458.93	423.64
459.11	418.96
459.29	400.23
459.48	423.64
459.66	456.40
459.84	388.53
460.03	461.09
460.21	402.57
460.39	423.64
460.57	430.66
460.76	437.68
460.94	465.77
461.12	465.77
461.31	430.66
461.49	444.70
461.67	374.49
461.85	383.85
462.04	482.15
462.22	753.65
462.40	346.40
462.59	397.89
462.77	367.46
462.95	425.98
463.13	414.27
463.32	390.87
463.50	491.51
463.68	376.83
463.86	447.04
464.05	451.72
464.23	442.36
464.41	407.25
464.59	458.74
464.78	379.17
464.96	383.85
465.14	437.68
465.32	327.68
465.50	344.06
465.69	355.76
465.87	465.77
466.05	423.64
466.23	395.55
466.41	435.34
466.60	428.32
466.78	421.30
466.96	421.30
467.14	416.62
467.32	411.93
467.51	454.06
467.69	505.56
467.87	447.04
468.05	388.53
468.23	344.06
468.41	374.49
468.60	402.57
468.78	365.12
468.96	463.43
469.14	402.57
469.32	395.55
469.50	365.12
469.69	313.63
469.87	451.72
470.05	386.19
470.23	393.21
470.41	360.44
470.59	430.66
470.77	416.62
470.95	428.32
471.14	393.21
471.32	355.76
471.50	433.00
471.68	435.34
471.86	433.00
472.04	386.19
472.22	465.77
472.40	379.17
472.58	407.25
472.77	430.66
472.95	430.66
473.13	482.15
473.31	395.55
473.49	435.34
473.67	367.46
473.85	449.38
474.03	451.72
474.21	383.85
474.39	458.74
474.57	477.47
474.75	430.66
474.93	416.62
475.12	477.47
475.30	402.57
475.48	418.96
475.66	437.68
475.84	442.36
476.02	411.93
476.20	428.32
476.38	388.53
476.56	454.06
476.74	486.83
476.92	397.89
477.10	388.53
477.28	397.89
477.46	442.36
477.64	360.44
477.82	416.62
478.00	388.53
478.18	451.72
478.36	421.30
478.54	346.40
478.72	393.21
478.90	390.87
479.08	484.49
479.26	475.13
479.44	411.93
479.62	344.06
479.80	374.49
479.98	449.38
480.16	393.21
480.34	425.98
480.52	435.34
480.70	346.40
480.88	360.44
481.06	381.51
481.24	386.19
481.41	423.64
481.59	369.80
481.77	409.59
481.95	409.59
482.13	456.40
482.31	437.68
482.49	365.12
482.67	463.43
482.85	425.98
483.03	386.19
483.21	397.89
483.39	421.30
483.57	421.30
483.74	442.36
483.92	433.00
484.10	486.83
484.28	435.34
484.46	397.89
484.64	409.59
484.82	456.40
485.00	365.12
485.18	383.85
485.35	409.59
485.53	358.10
485.71	421.30
485.89	348.74
486.07	425.98
486.25	421.30
486.43	416.62
486.61	407.25
486.78	388.53
486.96	409.59
487.14	351.08
487.32	402.57
487.50	411.93
487.68	428.32
487.85	393.21
488.03	411.93
488.21	437.68
488.39	400.23
488.57	433.00
488.75	425.98
488.92	510.24
489.10	489.17
489.28	477.47
489.46	404.91
489.64	428.32
489.81	435.34
489.99	365.12
490.17	454.06
490.35	477.47
490.53	402.57
490.70	407.25
490.88	503.22
491.06	442.36
491.24	388.53
491.41	444.70
491.59	435.34
491.77	379.17
491.95	372.15
492.13	376.83
492.30	407.25
492.48	423.64
492.66	402.57
492.84	430.66
493.01	395.55
493.19	381.51
493.37	404.91
493.54	479.81
493.72	463.43
493.90	360.44
494.08	330.02
494.25	498.53
494.43	428.32
494.61	400.23
494.79	416.62
494.96	390.87
495.14	423.64
495.32	461.09
495.49	390.87
495.67	425.98
495.85	372.15
496.02	358.10
496.20	425.98
496.38	397.89
496.55	376.83
496.73	418.96
496.91	423.64
497.09	381.51
497.26	414.27
497.44	397.89
497.62	388.53
497.79	402.57
497.97	435.34
498.14	367.46
498.32	404.91
498.50	449.38
498.67	400.23
498.85	386.19
499.03	395.55
499.20	367.46
499.38	468.11
499.56	339.38
499.73	425.98
499.91	423.64
500.08	409.59
500.26	360.44
500.44	421.30
500.61	393.21
500.79	402.57
500.97	449.38
501.14	397.89
501.32	461.09
501.49	407.25
501.67	489.17
501.84	430.66
502.02	402.57
502.20	430.66
502.37	416.62
502.55	430.66
502.72	404.91
502.90	421.30
503.07	367.46
503.25	449.38
503.43	397.89
503.60	332.36
503.78	451.72
503.95	411.93
504.13	407.25
504.30	437.68
504.48	440.02
504.65	503.22
504.83	379.17
505.01	423.64
505.18	451.72
505.36	393.21
505.53	423.64
505.71	388.53
505.88	421.30
506.06	449.38
506.23	339.38
506.41	397.89
506.58	435.34
506.76	430.66
506.93	414.27
507.11	414.27
507.28	376.83
507.46	372.15
507.63	437.68
507.81	411.93
507.98	409.59
508.16	491.51
508.33	489.17
508.50	388.53
508.68	411.93
508.85	451.72
509.03	397.89
509.20	400.23
509.38	365.12
509.55	505.56
509.73	411.93
509.90	402.57
510.08	416.62
510.25	486.83
510.42	381.51
510.60	395.55
510.77	353.42
510.95	407.25
511.12	402.57
511.30	440.02
511.47	379.17
511.64	461.09
511.82	409.59
511.99	374.49
512.17	397.89
512.34	421.30
512.51	409.59
512.69	440.02
512.86	442.36
513.04	449.38
513.21	468.11
513.38	369.80
513.56	367.46
513.73	390.87
513.90	374.49
514.08	472.79
514.25	475.13
514.43	475.13
514.60	360.44
514.77	489.17
514.95	428.32
515.12	416.62
515.29	390.87
515.47	390.87
515.64	372.15
515.81	430.66
515.99	404.91
516.16	414.27
516.33	393.21
516.51	402.57
516.68	386.19
516.85	472.79
517.03	435.34
517.20	430.66
517.37	393.21
517.54	430.66
517.72	376.83
517.89	409.59
518.06	404.91
518.24	475.13
518.41	463.43
518.58	421.30
518.75	428.32
518.93	423.64
519.10	425.98
519.27	463.43
519.45	435.34
519.62	421.30
519.79	416.62
519.96	372.15
520.14	393.21
520.31	395.55
520.48	423.64
520.65	372.15
520.83	507.90
521.00	393.21
521.17	449.38
521.34	447.04
521.52	414.27
521.69	369.80
521.86	428.32
522.03	397.89
522.20	404.91
522.38	404.91
522.55	442.36
522.72	428.32
522.89	451.72
523.07	409.59
523.24	421.30
523.41	418.96
523.58	360.44
523.75	404.91
523.92	351.08
524.10	407.25
524.27	496.19
524.44	404.91
524.61	388.53
524.78	395.55
524.96	367.46
525.13	423.64
525.30	430.66
525.47	433.00
525.64	447.04
525.81	430.66
525.98	365.12
526.16	425.98
526.33	418.96
526.50	423.64
526.67	381.51
526.84	365.12
527.01	362.78
527.18	444.70
527.36	433.00
527.53	369.80
527.70	407.25
527.87	411.93
528.04	440.02
528.21	472.79
528.38	411.93
528.55	430.66
528.72	418.96
528.89	435.34
529.07	390.87
529.24	486.83
529.41	444.70
529.58	381.51
529.75	397.89
529.92	376.83
530.09	409.59
530.26	411.93
530.43	365.12
530.60	512.58
530.77	397.89
530.94	472.79
531.11	461.09
531.28	369.80
531.46	351.08
531.63	524.28
531.80	430.66
531.97	435.34
532.14	514.92
532.31	447.04
532.48	423.64
532.65	447.04
532.82	404.91
532.99	365.12
533.16	407.25
533.33	433.00
533.50	440.02
533.67	376.83
533.84	411.93
534.01	437.68
534.18	447.04
534.35	430.66
534.52	379.17
534.69	416.62
534.86	341.72
535.03	421.30
535.20	461.09
535.37	454.06
535.54	402.57
535.71	447.04
535.88	367.46
536.05	348.74
536.22	498.53
536.38	433.00
536.55	440.02
536.72	440.02
536.89	397.89
537.06	435.34
537.23	358.10
537.40	425.98
537.57	388.53
537.74	395.55
537.91	388.53
538.08	383.85
538.25	463.43
538.42	435.34
538.59	421.30
538.75	444.70
538.92	433.00
539.09	379.17
539.26	463.43
539.43	472.79
539.60	421.30
539.77	395.55
539.94	402.57
540.11	409.59
540.28	430.66
540.44	393.21
540.61	425.98
540.78	461.09
540.95	402.57
541.12	428.32
541.29	388.53
541.46	407.25
541.62	404.91
541.79	395.55
541.96	383.85
542.13	486.83
542.30	465.77
542.47	435.34
542.63	404.91
542.80	449.38
542.97	449.38
543.14	465.77
543.31	430.66
543.48	414.27
543.64	449.38
543.81	407.25
543.98	400.23
544.15	416.62
544.32	423.64
544.48	414.27
544.65	404.91
544.82	416.62
544.99	379.17
545.16	496.19
545.32	414.27
545.49	430.66
545.66	430.66
545.83	421.30
546.00	402.57
546.16	468.11
546.33	383.85
546.50	355.76
546.67	468.11
546.83	362.78
547.00	407.25
547.17	400.23
547.34	388.53
547.50	442.36
547.67	430.66
547.84	411.93
548.00	451.72
548.17	360.44
548.34	393.21
548.51	463.43
548.67	456.40
548.84	381.51
549.01	468.11
549.18	428.32
549.34	376.83
549.51	397.89
549.68	365.12
549.84	451.72
550.01	435.34
550.18	447.04
550.34	470.45
550.51	414.27
550.68	397.89
550.84	381.51
551.01	381.51
551.18	437.68
551.34	376.83
551.51	379.17
551.68	425.98
551.84	449.38
552.01	505.56
552.18	456.40
552.34	435.34
552.51	383.85
552.68	475.13
552.84	447.04
553.01	451.72
553.18	437.68
553.34	407.25
553.51	428.32
553.67	428.32
553.84	470.45
554.01	374.49
554.17	442.36
554.34	341.72
554.51	437.68
554.67	414.27
554.84	458.74
555.00	423.64
555.17	479.81
555.33	423.64
555.50	442.36
555.67	404.91
555.83	351.08
556.00	390.87
556.16	566.41
556.33	423.64
556.50	376.83
556.66	442.36
556.83	428.32
556.99	383.85
557.16	411.93
557.32	346.40
557.49	418.96
557.65	351.08
557.82	416.62
557.98	402.57
558.15	456.40
558.32	400.23
558.48	437.68
558.65	367.46
558.81	468.11
558.98	428.32
559.14	418.96
559.31	372.15
559.47	454.06
559.64	447.04
559.80	430.66
559.97	416.62
560.13	379.17
560.30	381.51
560.46	433.00
560.63	353.42
560.79	353.42
560.96	346.40
561.12	404.91
561.29	454.06
561.45	411.93
561.61	351.08
561.78	524.28
561.94	440.02
562.11	390.87
562.27	472.79
562.44	409.59
562.60	454.06
562.77	376.83
562.93	493.85
563.10	369.80
563.26	444.70
563.42	482.15
563.59	437.68
563.75	449.38
563.92	374.49
564.08	397.89
564.24	388.53
564.41	409.59
564.57	437.68
564.74	372.15
564.90	461.09
565.07	479.81
565.23	386.19
565.39	409.59
565.56	411.93
565.72	428.32
565.88	395.55
566.05	379.17
566.21	430.66
566.38	414.27
566.54	402.57
566.70	360.44
566.87	379.17
567.03	421.30
567.19	393.21
567.36	451.72
567.52	418.96
567.68	428.32
567.85	393.21
568.01	414.27
568.17	418.96
568.34	388.53
568.50	449.38
568.66	369.80
568.83	442.36
568.99	402.57
569.15	479.81
569.32	461.09
569.48	353.42
569.64	397.89
569.81	409.59
569.97	400.23
570.13	479.81
570.30	376.83
570.46	402.57
570.62	451.72
570.78	465.77
570.95	400.23
571.11	498.53
571.27	416.62
571.43	360.44
571.60	454.06
571.76	376.83
571.92	411.93
572.09	430.66
572.25	435.34
572.41	334.70
572.57	372.15
572.74	421.30
572.90	411.93
573.06	423.64
573.22	369.80
573.38	428.32
573.55	449.38
573.71	411.93
573.87	397.89
574.03	369.80
574.20	416.62
574.36	400.23
574.52	397.89
574.68	386.19
574.84	451.72
575.01	421.30
575.17	428.32
575.33	355.76
575.49	425.98
575.65	430.66
575.82	449.38
575.98	449.38
576.14	411.93
576.30	479.81
576.46	369.80
576.62	423.64
576.79	369.80
576.95	404.91
577.11	397.89
577.27	510.24
577.43	442.36
577.59	374.49
577.75	381.51
577.92	428.32
578.08	386.19
578.24	451.72
578.40	402.57
578.56	463.43
578.72	428.32
578.88	484.49
579.04	421.30
579.21	393.21
579.37	351.08
579.53	390.87
579.69	447.04
579.85	379.17
580.01	423.64
580.17	393.21
580.33	402.57
580.49	437.68
580.65	407.25
580.82	383.85
580.98	299.59
581.14	461.09
581.30	486.83
581.46	444.70
581.62	416.62
581.78	311.29
581.94	390.87
582.10	355.76
582.26	341.72
582.42	444.70
582.58	418.96
582.74	421.30
582.90	428.32
583.06	433.00
583.22	355.76
583.38	418.96
583.54	315.97
583.70	388.53
583.86	416.62
584.02	447.04
584.18	496.19
584.34	414.27
584.50	444.70
584.66	369.80
584.82	372.15
584.98	390.87
585.14	400.23
585.30	437.68
585.46	411.93
585.62	402.57
585.78	447.04
585.94	315.97
586.10	433.00
586.26	440.02
586.42	440.02
586.58	477.47
586.74	442.36
586.90	444.70
587.06	416.62
587.22	407.25
587.38	486.83
587.54	437.68
587.70	440.02
587.86	491.51
588.02	407.25
588.18	374.49
588.34	418.96
588.49	344.06
588.65	383.85
588.81	393.21
588.97	395.55
589.13	379.17
589.29	465.77
589.45	461.09
589.61	386.19
589.77	433.00
589.93	416.62
590.08	383.85
590.24	383.85
590.40	447.04
590.56	379.17
590.72	477.47
590.88	482.15
591.04	418.96
591.20	404.91
591.35	397.89
591.51	360.44
591.67	402.57
591.83	416.62
591.99	442.36
592.15	472.79
592.31	468.11
592.46	332.36
592.62	372.15
592.78	353.42
592.94	404.91
593.10	411.93
593.26	407.25
593.41	397.89
593.57	428.32
593.73	388.53
593.89	463.43
594.05	435.34
594.20	388.53
594.36	395.55
594.52	397.89
594.68	374.49
594.84	430.66
594.99	477.47
595.15	444.70
595.31	433.00
595.47	423.64
595.62	418.96
595.78	411.93
595.94	423.64
596.10	444.70
596.25	484.49
596.41	430.66
596.57	379.17
596.73	402.57
596.88	402.57
597.04	393.21
597.20	374.49
597.36	451.72
597.51	449.38
597.67	435.34
597.83	383.85
597.99	461.09
598.14	437.68
598.30	393.21
598.46	454.06
598.61	428.32
598.77	365.12
598.93	416.62
599.09	468.11
599.24	428.32
599.40	362.78
599.56	416.62
599.71	416.62
599.87	369.80
600.03	418.96
600.18	409.59
600.34	486.83
600.50	407.25
600.65	456.40
600.81	447.04
600.97	369.80
601.12	418.96
601.28	421.30
601.44	472.79
601.59	404.91
601.75	437.68
601.91	381.51
602.06	372.15
602.22	468.11
602.37	341.72
602.53	442.36
602.69	435.34
602.84	393.21
603.00	430.66
603.16	468.11
603.31	451.72
603.47	372.15
603.62	451.72
603.78	397.89
603.94	407.25
604.09	365.12
604.25	430.66
604.40	374.49
604.56	315.97
604.71	440.02
604.87	369.80
605.03	395.55
605.18	451.72
605.34	367.46
605.49	395.55
605.65	416.62
605.80	458.74
605.96	447.04
606.12	423.64
606.27	463.43
606.43	423.64
606.58	444.70
606.74	444.70
606.89	414.27
607.05	430.66
607.20	407.25
607.36	428.32
607.51	442.36
607.67	395.55
607.82	421.30
607.98	440.02
608.13	435.34
608.29	327.68
608.44	458.74
608.60	369.80
608.75	365.12
608.91	421.30
609.06	475.13
609.22	423.64
609.37	374.49
609.53	400.23
609.68	411.93
609.84	418.96
609.99	411.93
610.15	360.44
610.30	414.27
610.46	379.17
610.61	388.53
610.76	416.62
610.92	339.38
611.07	465.77
611.23	500.87
611.38	409.59
611.54	390.87
611.69	411.93
611.84	430.66
612.00	409.59
612.15	454.06
612.31	421.30
612.46	360.44
612.62	430.66
612.77	428.32
612.92	383.85
613.08	470.45
613.23	430.66
613.39	472.79
613.54	409.59
613.69	433.00
613.85	372.15
614.00	379.17
614.15	486.83
614.31	423.64
614.46	430.66
614.62	444.70
614.77	444.70
614.92	397.89
615.08	421.30
615.23	435.34
615.38	456.40
615.54	428.32
615.69	423.64
615.84	374.49
616.00	454.06
616.15	442.36
616.30	454.06
616.46	416.62
616.61	465.77
616.76	411.93
616.92	376.83
617.07	388.53
617.22	379.17
617.37	402.57
617.53	456.40
617.68	395.55
617.83	395.55
617.99	500.87
618.14	428.32
618.29	484.49
618.45	400.23
618.60	493.85
618.75	393.21
618.90	330.02
619.06	435.34
619.21	409.59
619.36	381.51
619.51	374.49
619.67	414.27
619.82	390.87
619.97	477.47
620.12	423.64
620.28	500.87
620.43	390.87
620.58	421.30
620.73	437.68
620.89	416.62
621.04	407.25
621.19	535.98
621.34	355.76
621.49	411.93
621.65	402.57
621.80	353.42
621.95	409.59
622.10	449.38
622.25	404.91
622.41	449.38
622.56	479.81
622.71	447.04
622.86	423.64
623.01	322.99
623.16	484.49
623.32	423.64
623.47	339.38
623.62	409.59
623.77	404.91
623.92	374.49
624.07	461.09
624.23	440.02
624.38	402.57
624.53	421.30
624.68	433.00
624.83	423.64
624.98	369.80
625.13	449.38
625.29	435.34
625.44	470.45
625.59	369.80
625.74	470.45
625.89	407.25
626.04	383.85
626.19	353.42
626.34	437.68
626.49	404.91
626.65	395.55
626.80	433.00
626.95	418.96
627.10	390.87
627.25	472.79
627.40	458.74
627.55	409.59
627.70	351.08
627.85	409.59
628.00	388.53
628.15	421.30
628.30	444.70
628.45	404.91
628.60	437.68
628.76	451.72
628.91	404.91
629.06	440.02
629.21	423.64
629.36	442.36
629.51	500.87
629.66	447.04
629.81	362.78
629.96	461.09
630.11	435.34
630.26	388.53
630.41	454.06
630.56	409.59
630.71	430.66
630.86	381.51
631.01	414.27
631.16	397.89
631.31	444.70
631.46	416.62
631.61	416.62
631.76	397.89
631.91	407.25
632.06	500.87
632.21	444.70
632.36	425.98
632.51	449.38
632.66	381.51
632.81	388.53
632.96	393.21
633.10	465.77
633.25	393.21
633.40	433.00
633.55	451.72
633.70	491.51
633.85	433.00
634.00	355.76
634.15	435.34
634.30	440.02
634.45	428.32
634.60	386.19
634.75	402.57
634.90	414.27
635.05	463.43
635.19	414.27
635.34	437.68
635.49	402.57
635.64	379.17
635.79	372.15
635.94	397.89
636.09	393.21
636.24	390.87
636.39	388.53
636.53	372.15
636.68	421.30
636.83	479.81
636.98	475.13
637.13	517.26
637.28	454.06
637.43	430.66
637.57	477.47
637.72	379.17
637.87	447.04
638.02	468.11
638.17	442.36
638.32	461.09
638.46	348.74
638.61	451.72
638.76	369.80
638.91	428.32
639.06	376.83
639.20	376.83
639.35	416.62
639.50	440.02
639.65	379.17
639.80	414.27
639.94	528.96
640.09	362.78
640.24	489.17
640.39	442.36
640.54	437.68
640.68	423.64
640.83	454.06
640.98	374.49
641.13	442.36
641.27	411.93
641.42	400.23
641.57	383.85
641.72	421.30
641.86	404.91
642.01	367.46
642.16	423.64
642.31	440.02
642.45	414.27
642.60	437.68
642.75	402.57
642.90	400.23
643.04	454.06
643.19	479.81
643.34	465.77
643.48	468.11
643.63	400.23
643.78	390.87
643.93	400.23
644.07	402.57
644.22	409.59
644.37	353.42
644.51	411.93
644.66	409.59
644.81	421.30
644.95	421.30
645.10	411.93
645.25	421.30
645.39	468.11
645.54	386.19
645.69	465.77
645.83	397.89
645.98	486.83
646.13	397.89
646.27	433.00
646.42	444.70
646.57	447.04
646.71	369.80
646.86	341.72
647.00	360.44
647.15	456.40
647.30	367.46
647.44	379.17
647.59	379.17
647.74	374.49
647.88	463.43
648.03	409.59
648.17	472.79
648.32	430.66
648.47	437.68
648.61	421.30
648.76	433.00
648.90	341.72
649.05	423.64
649.20	379.17
649.34	400.23
649.49	353.42
649.63	477.47
649.78	411.93
649.92	381.51
650.07	393.21
650.21	484.49
650.36	365.12
650.51	383.85
650.65	454.06
650.80	475.13
650.94	397.89
651.09	510.24
651.23	365.12
651.38	463.43
651.52	463.43
651.67	440.02
651.81	470.45
651.96	451.72
652.10	425.98
652.25	423.64
652.39	416.62
652.54	404.91
652.68	433.00
652.83	407.25
652.97	407.25
653.12	416.62
653.26	435.34
653.41	475.13
653.55	418.96
653.70	433.00
653.84	418.96
653.99	381.51
654.13	383.85
654.27	383.85
654.42	463.43
654.56	407.25
654.71	489.17
654.85	423.64
655.00	418.96
655.14	395.55
655.29	358.10
655.43	449.38
655.57	447.04
655.72	360.44
655.86	433.00
656.01	475.13
656.15	397.89
656.30	444.70
656.44	383.85
656.58	409.59
656.73	425.98
656.87	440.02
657.01	421.30
657.16	463.43
657.30	400.23
657.45	461.09
657.59	423.64
657.73	414.27
657.88	292.57
658.02	430.66
658.16	379.17
658.31	437.68
658.45	381.51
658.60	379.17
658.74	358.10
658.88	393.21
659.03	423.64
659.17	477.47
659.31	404.91
659.46	372.15
659.60	390.87
659.74	428.32
659.89	447.04
660.03	358.10
660.17	393.21
660.32	395.55
660.46	456.40
660.60	353.42
660.74	479.81
660.89	379.17
661.03	367.46
661.17	400.23
661.32	386.19
661.46	404.91
661.60	386.19
661.74	411.93
661.89	418.96
662.03	430.66
662.17	360.44
662.31	500.87
662.46	402.57
662.60	437.68
662.74	425.98
662.88	388.53
663.03	367.46
663.17	395.55
663.31	383.85
663.45	390.87
663.60	360.44
663.74	500.87
663.88	369.80
664.02	425.98
664.17	409.59
664.31	416.62
664.45	358.10
664.59	404.91
664.73	454.06
664.88	400.23
665.02	400.23
665.16	411.93
665.30	376.83
665.44	447.04
665.59	500.87
665.73	475.13
665.87	435.34
666.01	348.74
666.15	411.93
666.29	451.72
666.44	416.62
666.58	463.43
666.72	435.34
666.86	390.87
667.00	456.40
667.14	313.63
667.28	395.55
667.43	390.87
667.57	521.94
667.71	416.62
667.85	390.87
667.99	444.70
668.13	458.74
668.27	433.00
668.41	451.72
668.56	393.21
668.70	447.04
668.84	423.64
668.98	447.04
669.12	390.87
669.26	365.12
669.40	461.09
669.54	475.13
669.68	367.46
669.82	407.25
669.96	440.02
670.10	421.30
670.25	456.40
670.39	437.68
670.53	353.42
670.67	414.27
670.81	418.96
670.95	451.72
671.09	456.40
671.23	484.49
671.37	440.02
671.51	477.47
671.65	458.74
671.79	437.68
671.93	428.32
672.07	505.56
672.21	430.66
672.35	416.62
672.49	433.00
672.63	451.72
672.77	477.47
672.91	341.72
673.05	435.34
673.19	334.70
673.33	407.25
673.47	400.23
673.61	365.12
673.75	468.11
673.89	365.12
674.03	440.02
674.17	376.83
674.31	440.02
674.45	465.77
674.59	411.93
674.73	381.51
674.87	388.53
675.01	393.21
675.15	407.25
675.29	421.30
675.43	402.57
675.56	451.72
675.70	421.30
675.84	381.51
675.98	447.04
676.12	475.13
676.26	449.38
676.40	367.46
676.54	395.55
676.68	402.57
676.82	461.09
676.96	397.89
677.10	379.17
677.23	440.02
677.37	400.23
677.51	374.49
677.65	472.79
677.79	447.04
677.93	383.85
678.07	498.53
678.21	367.46
678.34	367.46
678.48	353.42
678.62	395.55
678.76	423.64
678.90	376.83
679.04	433.00
679.18	404.91
679.31	308.95
679.45	379.17
679.59	447.04
679.73	449.38
679.87	418.96
680.00	477.47
680.14	454.06
680.28	430.66
680.42	416.62
680.56	393.21
680.70	332.36
680.83	360.44
680.97	393.21
681.11	365.12
681.25	409.59
681.39	383.85
681.52	423.64
681.66	458.74
681.80	381.51
681.94	346.40
682.07	470.45
682.21	414.27
682.35	416.62
682.49	353.42
682.62	477.47
682.76	374.49
682.90	409.59
683.04	456.40
683.17	397.89
683.31	402.57
683.45	440.02
683.59	458.74
683.72	435.34
683.86	383.85
684.00	449.38
684.13	447.04
684.27	381.51
684.41	458.74
684.55	365.12
684.68	383.85
684.82	404.91
684.96	421.30
685.09	435.34
685.23	454.06
685.37	400.23
685.50	414.27
685.64	496.19
685.78	367.46
685.91	383.85
686.05	440.02
686.19	376.83
686.32	444.70
686.46	407.25
686.60	386.19
686.73	454.06
686.87	409.59
687.01	374.49
687.14	337.04
687.28	374.49
687.42	388.53
687.55	374.49
687.69	454.06
687.82	435.34
687.96	418.96
688.10	458.74
688.23	400.23
688.37	468.11
688.50	411.93
688.64	386.19
688.78	301.93
688.91	362.78
689.05	437.68
689.18	500.87
689.32	428.32
689.46	388.53
689.59	416.62
689.73	416.62
689.86	421.30
690.00	388.53
690.13	433.00
690.27	437.68
690.41	411.93
690.54	449.38
690.68	388.53
690.81	447.04
690.95	482.15
691.08	322.99
691.22	358.10
691.35	456.40
691.49	475.13
691.62	433.00
691.76	451.72
691.89	418.96
692.03	390.87
692.16	414.27
692.30	428.32
692.43	407.25
692.57	430.66
692.70	435.34
692.84	374.49
692.97	404.91
693.11	416.62
693.24	442.36
693.38	486.83
693.51	475.13
693.65	325.33
693.78	372.15
693.92	433.00
694.05	463.43
694.19	437.68
694.32	407.25
694.45	351.08
694.59	411.93
694.72	433.00
694.86	390.87
694.99	470.45
695.13	386.19
695.26	386.19
695.39	402.57
695.53	407.25
695.66	360.44
695.80	386.19
695.93	442.36
696.07	430.66
696.20	425.98
696.33	393.21
696.47	372.15
696.60	444.70
696.73	374.49
696.87	374.49
697.00	465.77
697.14	435.34
697.27	456.40
697.40	440.02
697.54	351.08
697.67	346.40
697.80	449.38
697.94	355.76
698.07	379.17
698.21	433.00
698.34	374.49
698.47	339.38
698.61	402.57
698.74	414.27
698.87	393.21
699.01	397.89
699.14	325.33
699.27	468.11
699.40	512.58
699.54	400.23
699.67	456.40
699.80	353.42
699.94	381.51
700.07	397.89
700.20	425.98
700.34	507.90
700.47	465.77
700.60	402.57
700.73	353.42
700.87	395.55
701.00	320.65
701.13	393.21
701.26	449.38
701.40	407.25
701.53	411.93
701.66	365.12
701.79	425.98
701.93	404.91
702.06	461.09
702.19	428.32
702.32	514.92
702.46	351.08
702.59	376.83
702.72	423.64
702.85	440.02
702.99	383.85
703.12	451.72
703.25	425.98
703.38	479.81
703.51	386.19
703.65	411.93
703.78	353.42
703.91	430.66
704.04	458.74
704.17	402.57
704.31	379.17
704.44	440.02
704.57	430.66
704.70	294.91
704.83	395.55
704.96	376.83
705.10	437.68
705.23	414.27
>>>>>End Processed Spectral Data<<<<<
