SpectraSuite Data File
++++++++++++++++++++++++++++++++++++
Date: Fri Oct 25 12:11:06 EDT 2013
User: price-jones
Dark Spectrum Present: No
Reference Spectrum Present: No
Number of Sampled Component Spectra: 1
Spectrometers: USB2+H05261
Integration Time (usec): 100000 (USB2+H05261)
Spectra Averaged: 1 (USB2+H05261)
Boxcar Smoothing: 0 (USB2+H05261)
Correct for Electrical Dark: No (USB2+H05261)
Strobe/Lamp Enabled: No (USB2+H05261)
Correct for Detector Non-linearity: No (USB2+H05261)
Correct for Stray Light: No (USB2+H05261)
Number of Pixels in Processed Spectrum: 2048
>>>>>Begin Processed Spectral Data<<<<<
365.73	365.12
365.92	365.12
366.12	365.12
366.32	257.46
366.52	266.82
366.72	351.08
366.91	297.25
367.11	250.44
367.31	306.61
367.51	180.22
367.70	262.14
367.90	243.42
368.10	220.01
368.30	280.86
368.49	217.67
368.69	332.36
368.89	308.95
369.09	273.84
369.28	285.55
369.48	297.25
369.68	367.46
369.87	269.16
370.07	269.16
370.27	358.10
370.47	351.08
370.66	344.06
370.86	430.66
371.06	402.57
371.25	355.76
371.45	311.29
371.65	444.70
371.84	400.23
372.04	341.72
372.24	383.85
372.44	372.15
372.63	425.98
372.83	395.55
373.03	393.21
373.22	491.51
373.42	440.02
373.62	475.13
373.81	454.06
374.01	381.51
374.21	409.59
374.40	362.78
374.60	404.91
374.79	376.83
374.99	425.98
375.19	367.46
375.38	468.11
375.58	470.45
375.78	470.45
375.97	414.27
376.17	390.87
376.37	404.91
376.56	355.76
376.76	379.17
376.95	414.27
377.15	437.68
377.35	456.40
377.54	414.27
377.74	435.34
377.93	388.53
378.13	397.89
378.33	409.59
378.52	388.53
378.72	407.25
378.91	421.30
379.11	393.21
379.31	416.62
379.50	376.83
379.70	327.68
379.89	395.55
380.09	393.21
380.28	341.72
380.48	369.80
380.68	409.59
380.87	400.23
381.07	416.62
381.26	383.85
381.46	362.78
381.65	440.02
381.85	369.80
382.04	360.44
382.24	383.85
382.43	433.00
382.63	353.42
382.83	395.55
383.02	416.62
383.22	430.66
383.41	379.17
383.61	365.12
383.80	414.27
384.00	407.25
384.19	421.30
384.39	306.61
384.58	348.74
384.78	388.53
384.97	376.83
385.17	414.27
385.36	372.15
385.56	330.02
385.75	400.23
385.95	365.12
386.14	437.68
386.34	442.36
386.53	334.70
386.72	428.32
386.92	430.66
387.11	428.32
387.31	451.72
387.50	425.98
387.70	346.40
387.89	447.04
388.09	400.23
388.28	416.62
388.48	358.10
388.67	383.85
388.86	402.57
389.06	374.49
389.25	367.46
389.45	376.83
389.64	440.02
389.84	414.27
390.03	442.36
390.22	451.72
390.42	404.91
390.61	388.53
390.81	402.57
391.00	397.89
391.19	458.74
391.39	440.02
391.58	400.23
391.78	407.25
391.97	362.78
392.16	409.59
392.36	395.55
392.55	379.17
392.75	395.55
392.94	449.38
393.13	442.36
393.33	395.55
393.52	407.25
393.71	479.81
393.91	407.25
394.10	404.91
394.29	393.21
394.49	369.80
394.68	351.08
394.88	407.25
395.07	421.30
395.26	365.12
395.46	421.30
395.65	477.47
395.84	437.68
396.04	430.66
396.23	397.89
396.42	423.64
396.62	372.15
396.81	418.96
397.00	388.53
397.19	404.91
397.39	402.57
397.58	421.30
397.77	411.93
397.97	421.30
398.16	348.74
398.35	369.80
398.55	374.49
398.74	416.62
398.93	451.72
399.12	407.25
399.32	395.55
399.51	362.78
399.70	367.46
399.90	433.00
400.09	423.64
400.28	388.53
400.47	351.08
400.67	358.10
400.86	435.34
401.05	433.00
401.24	365.12
401.44	477.47
401.63	421.30
401.82	402.57
402.01	404.91
402.21	402.57
402.40	400.23
402.59	381.51
402.78	386.19
402.97	433.00
403.17	425.98
403.36	407.25
403.55	428.32
403.74	433.00
403.93	390.87
404.13	402.57
404.32	369.80
404.51	386.19
404.70	414.27
404.89	376.83
405.09	433.00
405.28	416.62
405.47	348.74
405.66	386.19
405.85	390.87
406.05	440.02
406.24	397.89
406.43	489.17
406.62	386.19
406.81	407.25
407.00	404.91
407.20	388.53
407.39	421.30
407.58	353.42
407.77	416.62
407.96	416.62
408.15	456.40
408.34	393.21
408.54	498.53
408.73	421.30
408.92	400.23
409.11	411.93
409.30	444.70
409.49	367.46
409.68	365.12
409.87	428.32
410.07	416.62
410.26	397.89
410.45	430.66
410.64	421.30
410.83	411.93
411.02	440.02
411.21	348.74
411.40	479.81
411.59	362.78
411.78	358.10
411.98	404.91
412.17	353.42
412.36	430.66
412.55	390.87
412.74	379.17
412.93	468.11
413.12	461.09
413.31	456.40
413.50	383.85
413.69	358.10
413.88	437.68
414.07	447.04
414.26	433.00
414.45	402.57
414.64	416.62
414.83	411.93
415.02	362.78
415.22	383.85
415.41	383.85
415.60	353.42
415.79	379.17
415.98	416.62
416.17	397.89
416.36	449.38
416.55	355.76
416.74	407.25
416.93	414.27
417.12	409.59
417.31	348.74
417.50	402.57
417.69	369.80
417.88	393.21
418.07	442.36
418.26	442.36
418.45	358.10
418.64	425.98
418.83	458.74
419.02	468.11
419.21	360.44
419.39	367.46
419.58	379.17
419.77	437.68
419.96	451.72
420.15	430.66
420.34	353.42
420.53	437.68
420.72	376.83
420.91	414.27
421.10	421.30
421.29	372.15
421.48	374.49
421.67	411.93
421.86	388.53
422.05	416.62
422.24	390.87
422.43	447.04
422.61	374.49
422.80	423.64
422.99	411.93
423.18	374.49
423.37	535.98
423.56	379.17
423.75	425.98
423.94	400.23
424.13	472.79
424.32	400.23
424.50	435.34
424.69	409.59
424.88	482.15
425.07	423.64
425.26	411.93
425.45	411.93
425.64	388.53
425.83	388.53
426.01	444.70
426.20	428.32
426.39	454.06
426.58	402.57
426.77	454.06
426.96	451.72
427.15	447.04
427.33	355.76
427.52	409.59
427.71	402.57
427.90	456.40
428.09	381.51
428.28	360.44
428.46	369.80
428.65	503.22
428.84	397.89
429.03	437.68
429.22	409.59
429.40	383.85
429.59	393.21
429.78	470.45
429.97	414.27
430.16	404.91
430.34	477.47
430.53	339.38
430.72	390.87
430.91	447.04
431.10	376.83
431.28	416.62
431.47	409.59
431.66	411.93
431.85	386.19
432.03	393.21
432.22	435.34
432.41	444.70
432.60	416.62
432.79	404.91
432.97	381.51
433.16	425.98
433.35	423.64
433.54	468.11
433.72	444.70
433.91	428.32
434.10	369.80
434.28	393.21
434.47	393.21
434.66	468.11
434.85	425.98
435.03	390.87
435.22	500.87
435.41	454.06
435.59	425.98
435.78	346.40
435.97	409.59
436.16	437.68
436.34	409.59
436.53	444.70
436.72	360.44
436.90	416.62
437.09	421.30
437.28	454.06
437.46	458.74
437.65	430.66
437.84	400.23
438.02	414.27
438.21	430.66
438.40	400.23
438.58	344.06
438.77	468.11
438.96	442.36
439.14	475.13
439.33	425.98
439.52	383.85
439.70	407.25
439.89	461.09
440.08	330.02
440.26	411.93
440.45	322.99
440.63	421.30
440.82	437.68
441.01	433.00
441.19	454.06
441.38	374.49
441.57	381.51
441.75	425.98
441.94	407.25
442.12	416.62
442.31	402.57
442.50	402.57
442.68	397.89
442.87	407.25
443.05	407.25
443.24	379.17
443.43	512.58
443.61	456.40
443.80	397.89
443.98	400.23
444.17	388.53
444.35	402.57
444.54	433.00
444.73	416.62
444.91	374.49
445.10	437.68
445.28	330.02
445.47	376.83
445.65	465.77
445.84	397.89
446.02	402.57
446.21	367.46
446.39	381.51
446.58	416.62
446.77	430.66
446.95	428.32
447.14	433.00
447.32	491.51
447.51	390.87
447.69	369.80
447.88	397.89
448.06	416.62
448.25	414.27
448.43	433.00
448.62	407.25
448.80	411.93
448.99	444.70
449.17	376.83
449.36	351.08
449.54	463.43
449.73	433.00
449.91	468.11
450.10	468.11
450.28	437.68
450.46	444.70
450.65	461.09
450.83	451.72
451.02	402.57
451.20	463.43
451.39	472.79
451.57	425.98
451.76	395.55
451.94	348.74
452.13	414.27
452.31	388.53
452.49	430.66
452.68	318.31
452.86	454.06
453.05	451.72
453.23	393.21
453.42	418.96
453.60	376.83
453.78	395.55
453.97	433.00
454.15	421.30
454.34	430.66
454.52	369.80
454.70	458.74
454.89	341.72
455.07	428.32
455.26	386.19
455.44	402.57
455.62	386.19
455.81	358.10
455.99	491.51
456.17	409.59
456.36	390.87
456.54	397.89
456.73	470.45
456.91	479.81
457.09	407.25
457.28	372.15
457.46	463.43
457.64	477.47
457.83	437.68
458.01	442.36
458.19	348.74
458.38	423.64
458.56	444.70
458.74	423.64
458.93	458.74
459.11	411.93
459.29	402.57
459.48	425.98
459.66	414.27
459.84	425.98
460.03	498.53
460.21	433.00
460.39	395.55
460.57	402.57
460.76	390.87
460.94	454.06
461.12	475.13
461.31	482.15
461.49	421.30
461.67	390.87
461.85	407.25
462.04	404.91
462.22	746.63
462.40	411.93
462.59	437.68
462.77	472.79
462.95	376.83
463.13	425.98
463.32	407.25
463.50	409.59
463.68	411.93
463.86	447.04
464.05	386.19
464.23	449.38
464.41	353.42
464.59	442.36
464.78	428.32
464.96	418.96
465.14	428.32
465.32	383.85
465.50	447.04
465.69	423.64
465.87	397.89
466.05	425.98
466.23	404.91
466.41	365.12
466.60	470.45
466.78	482.15
466.96	463.43
467.14	465.77
467.32	477.47
467.51	440.02
467.69	397.89
467.87	409.59
468.05	428.32
468.23	402.57
468.41	477.47
468.60	442.36
468.78	369.80
468.96	484.49
469.14	442.36
469.32	320.65
469.50	435.34
469.69	472.79
469.87	486.83
470.05	418.96
470.23	430.66
470.41	379.17
470.59	383.85
470.77	454.06
470.95	404.91
471.14	442.36
471.32	339.38
471.50	444.70
471.68	425.98
471.86	463.43
472.04	430.66
472.22	414.27
472.40	442.36
472.58	383.85
472.77	440.02
472.95	430.66
473.13	428.32
473.31	369.80
473.49	433.00
473.67	400.23
473.85	407.25
474.03	425.98
474.21	472.79
474.39	465.77
474.57	491.51
474.75	376.83
474.93	414.27
475.12	372.15
475.30	416.62
475.48	383.85
475.66	386.19
475.84	365.12
476.02	330.02
476.20	440.02
476.38	421.30
476.56	435.34
476.74	421.30
476.92	435.34
477.10	484.49
477.28	418.96
477.46	346.40
477.64	444.70
477.82	367.46
478.00	374.49
478.18	365.12
478.36	435.34
478.54	334.70
478.72	454.06
478.90	411.93
479.08	486.83
479.26	472.79
479.44	421.30
479.62	411.93
479.80	447.04
479.98	407.25
480.16	404.91
480.34	423.64
480.52	430.66
480.70	454.06
480.88	393.21
481.06	430.66
481.24	355.76
481.41	458.74
481.59	414.27
481.77	430.66
481.95	430.66
482.13	440.02
482.31	421.30
482.49	362.78
482.67	362.78
482.85	463.43
483.03	447.04
483.21	440.02
483.39	372.15
483.57	461.09
483.74	454.06
483.92	430.66
484.10	367.46
484.28	421.30
484.46	519.60
484.64	381.51
484.82	395.55
485.00	402.57
485.18	386.19
485.35	360.44
485.53	355.76
485.71	463.43
485.89	374.49
486.07	411.93
486.25	498.53
486.43	430.66
486.61	503.22
486.78	348.74
486.96	372.15
487.14	421.30
487.32	437.68
487.50	362.78
487.68	449.38
487.85	397.89
488.03	416.62
488.21	477.47
488.39	425.98
488.57	456.40
488.75	433.00
488.92	454.06
489.10	355.76
489.28	442.36
489.46	397.89
489.64	442.36
489.81	418.96
489.99	390.87
490.17	440.02
490.35	437.68
490.53	397.89
490.70	402.57
490.88	442.36
491.06	381.51
491.24	355.76
491.41	433.00
491.59	503.22
491.77	402.57
491.95	477.47
492.13	365.12
492.30	421.30
492.48	440.02
492.66	454.06
492.84	388.53
493.01	437.68
493.19	444.70
493.37	383.85
493.54	374.49
493.72	454.06
493.90	362.78
494.08	428.32
494.25	435.34
494.43	414.27
494.61	388.53
494.79	386.19
494.96	428.32
495.14	388.53
495.32	365.12
495.49	388.53
495.67	421.30
495.85	358.10
496.02	388.53
496.20	433.00
496.38	402.57
496.55	409.59
496.73	407.25
496.91	388.53
497.09	456.40
497.26	414.27
497.44	388.53
497.62	454.06
497.79	447.04
497.97	411.93
498.14	390.87
498.32	435.34
498.50	388.53
498.67	362.78
498.85	425.98
499.03	339.38
499.20	472.79
499.38	381.51
499.56	358.10
499.73	379.17
499.91	451.72
500.08	367.46
500.26	407.25
500.44	393.21
500.61	383.85
500.79	468.11
500.97	433.00
501.14	442.36
501.32	409.59
501.49	416.62
501.67	351.08
501.84	423.64
502.02	381.51
502.20	425.98
502.37	390.87
502.55	449.38
502.72	407.25
502.90	433.00
503.07	470.45
503.25	383.85
503.43	425.98
503.60	393.21
503.78	440.02
503.95	376.83
504.13	400.23
504.30	437.68
504.48	451.72
504.65	404.91
504.83	409.59
505.01	463.43
505.18	381.51
505.36	393.21
505.53	463.43
505.71	404.91
505.88	449.38
506.06	365.12
506.23	407.25
506.41	449.38
506.58	418.96
506.76	421.30
506.93	482.15
507.11	402.57
507.28	430.66
507.46	423.64
507.63	421.30
507.81	381.51
507.98	514.92
508.16	458.74
508.33	423.64
508.50	416.62
508.68	362.78
508.85	397.89
509.03	397.89
509.20	479.81
509.38	400.23
509.55	376.83
509.73	463.43
509.90	395.55
510.08	456.40
510.25	423.64
510.42	362.78
510.60	330.02
510.77	358.10
510.95	470.45
511.12	411.93
511.30	468.11
511.47	421.30
511.64	444.70
511.82	407.25
511.99	330.02
512.17	376.83
512.34	393.21
512.51	393.21
512.69	449.38
512.86	390.87
513.04	447.04
513.21	423.64
513.38	386.19
513.56	353.42
513.73	416.62
513.90	433.00
514.08	400.23
514.25	477.47
514.43	477.47
514.60	500.87
514.77	374.49
514.95	315.97
515.12	470.45
515.29	369.80
515.47	404.91
515.64	351.08
515.81	444.70
515.99	376.83
516.16	367.46
516.33	475.13
516.51	458.74
516.68	400.23
516.85	440.02
517.03	416.62
517.20	442.36
517.37	440.02
517.54	477.47
517.72	404.91
517.89	421.30
518.06	397.89
518.24	447.04
518.41	491.51
518.58	433.00
518.75	360.44
518.93	435.34
519.10	475.13
519.27	442.36
519.45	498.53
519.62	369.80
519.79	404.91
519.96	449.38
520.14	416.62
520.31	475.13
520.48	411.93
520.65	414.27
520.83	442.36
521.00	376.83
521.17	372.15
521.34	362.78
521.52	390.87
521.69	337.04
521.86	418.96
522.03	390.87
522.20	449.38
522.38	421.30
522.55	409.59
522.72	369.80
522.89	381.51
523.07	470.45
523.24	365.12
523.41	433.00
523.58	414.27
523.75	442.36
523.92	414.27
524.10	451.72
524.27	322.99
524.44	358.10
524.61	411.93
524.78	397.89
524.96	393.21
525.13	430.66
525.30	386.19
525.47	449.38
525.64	451.72
525.81	447.04
525.98	449.38
526.16	440.02
526.33	402.57
526.50	369.80
526.67	383.85
526.84	407.25
527.01	369.80
527.18	430.66
527.36	400.23
527.53	407.25
527.70	456.40
527.87	367.46
528.04	400.23
528.21	369.80
528.38	447.04
528.55	425.98
528.72	404.91
528.89	454.06
529.07	386.19
529.24	456.40
529.41	458.74
529.58	411.93
529.75	484.49
529.92	395.55
530.09	437.68
530.26	533.64
530.43	440.02
530.60	423.64
530.77	447.04
530.94	402.57
531.11	416.62
531.28	376.83
531.46	397.89
531.63	428.32
531.80	395.55
531.97	390.87
532.14	437.68
532.31	421.30
532.48	416.62
532.65	402.57
532.82	411.93
532.99	449.38
533.16	407.25
533.33	444.70
533.50	423.64
533.67	444.70
533.84	388.53
534.01	421.30
534.18	430.66
534.35	444.70
534.52	484.49
534.69	442.36
534.86	421.30
535.03	477.47
535.20	400.23
535.37	428.32
535.54	461.09
535.71	440.02
535.88	470.45
536.05	388.53
536.22	425.98
536.38	383.85
536.55	407.25
536.72	510.24
536.89	409.59
537.06	379.17
537.23	421.30
537.40	416.62
537.57	379.17
537.74	376.83
537.91	451.72
538.08	360.44
538.25	433.00
538.42	337.04
538.59	386.19
538.75	449.38
538.92	386.19
539.09	468.11
539.26	451.72
539.43	428.32
539.60	372.15
539.77	395.55
539.94	496.19
540.11	435.34
540.28	458.74
540.44	395.55
540.61	400.23
540.78	416.62
540.95	468.11
541.12	458.74
541.29	458.74
541.46	425.98
541.62	418.96
541.79	418.96
541.96	372.15
542.13	397.89
542.30	402.57
542.47	449.38
542.63	404.91
542.80	428.32
542.97	383.85
543.14	337.04
543.31	475.13
543.48	451.72
543.64	411.93
543.81	407.25
543.98	397.89
544.15	367.46
544.32	362.78
544.48	437.68
544.65	428.32
544.82	430.66
544.99	423.64
545.16	447.04
545.32	454.06
545.49	362.78
545.66	374.49
545.83	353.42
546.00	376.83
546.16	444.70
546.33	449.38
546.50	444.70
546.67	444.70
546.83	531.30
547.00	376.83
547.17	411.93
547.34	383.85
547.50	437.68
547.67	386.19
547.84	440.02
548.00	425.98
548.17	423.64
548.34	468.11
548.51	433.00
548.67	444.70
548.84	404.91
549.01	479.81
549.18	400.23
549.34	416.62
549.51	428.32
549.68	428.32
549.84	400.23
550.01	409.59
550.18	505.56
550.34	456.40
550.51	524.28
550.68	479.81
550.84	430.66
551.01	393.21
551.18	390.87
551.34	362.78
551.51	414.27
551.68	418.96
551.84	486.83
552.01	334.70
552.18	411.93
552.34	367.46
552.51	367.46
552.68	418.96
552.84	435.34
553.01	395.55
553.18	475.13
553.34	496.19
553.51	376.83
553.67	360.44
553.84	465.77
554.01	369.80
554.17	477.47
554.34	404.91
554.51	423.64
554.67	437.68
554.84	395.55
555.00	402.57
555.17	423.64
555.33	390.87
555.50	477.47
555.67	421.30
555.83	411.93
556.00	456.40
556.16	528.96
556.33	423.64
556.50	379.17
556.66	402.57
556.83	472.79
556.99	437.68
557.16	360.44
557.32	400.23
557.49	362.78
557.65	437.68
557.82	430.66
557.98	423.64
558.15	449.38
558.32	400.23
558.48	414.27
558.65	430.66
558.81	437.68
558.98	435.34
559.14	517.26
559.31	456.40
559.47	491.51
559.64	397.89
559.80	367.46
559.97	388.53
560.13	416.62
560.30	414.27
560.46	404.91
560.63	369.80
560.79	437.68
560.96	367.46
561.12	458.74
561.29	444.70
561.45	433.00
561.61	447.04
561.78	470.45
561.94	383.85
562.11	400.23
562.27	444.70
562.44	416.62
562.60	400.23
562.77	393.21
562.93	451.72
563.10	428.32
563.26	393.21
563.42	409.59
563.59	477.47
563.75	402.57
563.92	458.74
564.08	458.74
564.24	393.21
564.41	463.43
564.57	397.89
564.74	430.66
564.90	479.81
565.07	386.19
565.23	430.66
565.39	365.12
565.56	386.19
565.72	442.36
565.88	451.72
566.05	381.51
566.21	484.49
566.38	430.66
566.54	400.23
566.70	400.23
566.87	416.62
567.03	428.32
567.19	383.85
567.36	454.06
567.52	395.55
567.68	428.32
567.85	409.59
568.01	505.56
568.17	423.64
568.34	486.83
568.50	463.43
568.66	360.44
568.83	465.77
568.99	475.13
569.15	458.74
569.32	348.74
569.48	437.68
569.64	468.11
569.81	484.49
569.97	355.76
570.13	395.55
570.30	421.30
570.46	479.81
570.62	395.55
570.78	358.10
570.95	458.74
571.11	451.72
571.27	454.06
571.43	414.27
571.60	409.59
571.76	374.49
571.92	388.53
572.09	355.76
572.25	374.49
572.41	421.30
572.57	369.80
572.74	468.11
572.90	440.02
573.06	404.91
573.22	367.46
573.38	425.98
573.55	437.68
573.71	482.15
573.87	407.25
574.03	322.99
574.20	430.66
574.36	409.59
574.52	416.62
574.68	435.34
574.84	477.47
575.01	421.30
575.17	383.85
575.33	449.38
575.49	491.51
575.65	390.87
575.82	428.32
575.98	428.32
576.14	458.74
576.30	404.91
576.46	339.38
576.62	449.38
576.79	416.62
576.95	447.04
577.11	390.87
577.27	379.17
577.43	414.27
577.59	463.43
577.75	404.91
577.92	503.22
578.08	461.09
578.24	365.12
578.40	418.96
578.56	416.62
578.72	482.15
578.88	390.87
579.04	425.98
579.21	362.78
579.37	451.72
579.53	402.57
579.69	433.00
579.85	372.15
580.01	491.51
580.17	374.49
580.33	425.98
580.49	404.91
580.65	388.53
580.82	411.93
580.98	449.38
581.14	479.81
581.30	437.68
581.46	411.93
581.62	409.59
581.78	451.72
581.94	388.53
582.10	435.34
582.26	325.33
582.42	421.30
582.58	468.11
582.74	404.91
582.90	402.57
583.06	400.23
583.22	400.23
583.38	400.23
583.54	416.62
583.70	428.32
583.86	414.27
584.02	388.53
584.18	435.34
584.34	381.51
584.50	390.87
584.66	447.04
584.82	414.27
584.98	416.62
585.14	390.87
585.30	456.40
585.46	416.62
585.62	409.59
585.78	372.15
585.94	411.93
586.10	421.30
586.26	423.64
586.42	465.77
586.58	491.51
586.74	390.87
586.90	407.25
587.06	423.64
587.22	411.93
587.38	489.17
587.54	454.06
587.70	512.58
587.86	456.40
588.02	430.66
588.18	388.53
588.34	339.38
588.49	365.12
588.65	437.68
588.81	472.79
588.97	404.91
589.13	416.62
589.29	435.34
589.45	414.27
589.61	454.06
589.77	472.79
589.93	393.21
590.08	381.51
590.24	386.19
590.40	423.64
590.56	379.17
590.72	400.23
590.88	395.55
591.04	390.87
591.20	367.46
591.35	463.43
591.51	454.06
591.67	486.83
591.83	425.98
591.99	414.27
592.15	465.77
592.31	458.74
592.46	416.62
592.62	421.30
592.78	397.89
592.94	423.64
593.10	433.00
593.26	337.04
593.41	531.30
593.57	423.64
593.73	479.81
593.89	505.56
594.05	442.36
594.20	416.62
594.36	365.12
594.52	475.13
594.68	374.49
594.84	454.06
594.99	456.40
595.15	421.30
595.31	447.04
595.47	479.81
595.62	451.72
595.78	435.34
595.94	369.80
596.10	433.00
596.25	421.30
596.41	400.23
596.57	395.55
596.73	423.64
596.88	428.32
597.04	365.12
597.20	437.68
597.36	404.91
597.51	423.64
597.67	402.57
597.83	402.57
597.99	418.96
598.14	367.46
598.30	470.45
598.46	400.23
598.61	400.23
598.77	463.43
598.93	386.19
599.09	442.36
599.24	332.36
599.40	463.43
599.56	465.77
599.71	330.02
599.87	334.70
600.03	425.98
600.18	416.62
600.34	397.89
600.50	482.15
600.65	465.77
600.81	421.30
600.97	404.91
601.12	386.19
601.28	395.55
601.44	465.77
601.59	404.91
601.75	433.00
601.91	381.51
602.06	383.85
602.22	540.66
602.37	386.19
602.53	461.09
602.69	372.15
602.84	386.19
603.00	360.44
603.16	411.93
603.31	423.64
603.47	348.74
603.62	365.12
603.78	360.44
603.94	433.00
604.09	430.66
604.25	362.78
604.40	463.43
604.56	395.55
604.71	355.76
604.87	327.68
605.03	351.08
605.18	430.66
605.34	482.15
605.49	386.19
605.65	355.76
605.80	409.59
605.96	416.62
606.12	479.81
606.27	404.91
606.43	360.44
606.58	449.38
606.74	337.04
606.89	313.63
607.05	395.55
607.20	425.98
607.36	482.15
607.51	360.44
607.67	442.36
607.82	437.68
607.98	449.38
608.13	461.09
608.29	451.72
608.44	440.02
608.60	486.83
608.75	428.32
608.91	421.30
609.06	451.72
609.22	421.30
609.37	418.96
609.53	430.66
609.68	372.15
609.84	418.96
609.99	393.21
610.15	461.09
610.30	395.55
610.46	465.77
610.61	449.38
610.76	409.59
610.92	435.34
611.07	402.57
611.23	514.92
611.38	451.72
611.54	409.59
611.69	435.34
611.84	402.57
612.00	433.00
612.15	407.25
612.31	447.04
612.46	437.68
612.62	435.34
612.77	386.19
612.92	428.32
613.08	468.11
613.23	346.40
613.39	425.98
613.54	435.34
613.69	437.68
613.85	437.68
614.00	400.23
614.15	444.70
614.31	444.70
614.46	381.51
614.62	306.61
614.77	442.36
614.92	369.80
615.08	447.04
615.23	423.64
615.38	425.98
615.54	390.87
615.69	365.12
615.84	447.04
616.00	372.15
616.15	411.93
616.30	458.74
616.46	362.78
616.61	341.72
616.76	435.34
616.92	437.68
617.07	463.43
617.22	430.66
617.37	437.68
617.53	379.17
617.68	407.25
617.83	437.68
617.99	425.98
618.14	512.58
618.29	381.51
618.45	330.02
618.60	365.12
618.75	369.80
618.90	421.30
619.06	383.85
619.21	475.13
619.36	444.70
619.51	386.19
619.67	421.30
619.82	374.49
619.97	430.66
620.12	470.45
620.28	402.57
620.43	428.32
620.58	498.53
620.73	458.74
620.89	444.70
621.04	386.19
621.19	435.34
621.34	409.59
621.49	411.93
621.65	372.15
621.80	390.87
621.95	397.89
622.10	465.77
622.25	451.72
622.41	423.64
622.56	428.32
622.71	418.96
622.86	416.62
623.01	414.27
623.16	500.87
623.32	458.74
623.47	414.27
623.62	367.46
623.77	428.32
623.92	376.83
624.07	402.57
624.23	430.66
624.38	437.68
624.53	440.02
624.68	411.93
624.83	451.72
624.98	437.68
625.13	447.04
625.29	383.85
625.44	393.21
625.59	365.12
625.74	442.36
625.89	365.12
626.04	514.92
626.19	395.55
626.34	369.80
626.49	447.04
626.65	388.53
626.80	484.49
626.95	388.53
627.10	397.89
627.25	411.93
627.40	400.23
627.55	397.89
627.70	433.00
627.85	449.38
628.00	425.98
628.15	428.32
628.30	465.77
628.45	428.32
628.60	472.79
628.76	414.27
628.91	402.57
629.06	400.23
629.21	383.85
629.36	393.21
629.51	437.68
629.66	411.93
629.81	416.62
629.96	442.36
630.11	449.38
630.26	435.34
630.41	423.64
630.56	416.62
630.71	411.93
630.86	437.68
631.01	351.08
631.16	369.80
631.31	528.96
631.46	463.43
631.61	430.66
631.76	435.34
631.91	449.38
632.06	418.96
632.21	418.96
632.36	404.91
632.51	433.00
632.66	447.04
632.81	425.98
632.96	440.02
633.10	458.74
633.25	472.79
633.40	470.45
633.55	416.62
633.70	365.12
633.85	407.25
634.00	346.40
634.15	369.80
634.30	463.43
634.45	362.78
634.60	402.57
634.75	367.46
634.90	383.85
635.05	435.34
635.19	334.70
635.34	416.62
635.49	435.34
635.64	404.91
635.79	404.91
635.94	428.32
636.09	365.12
636.24	414.27
636.39	418.96
636.53	390.87
636.68	428.32
636.83	355.76
636.98	423.64
637.13	369.80
637.28	407.25
637.43	475.13
637.57	470.45
637.72	416.62
637.87	423.64
638.02	465.77
638.17	435.34
638.32	393.21
638.46	358.10
638.61	407.25
638.76	397.89
638.91	484.49
639.06	402.57
639.20	444.70
639.35	435.34
639.50	444.70
639.65	437.68
639.80	423.64
639.94	381.51
640.09	374.49
640.24	416.62
640.39	510.24
640.54	470.45
640.68	470.45
640.83	400.23
640.98	383.85
641.13	388.53
641.27	409.59
641.42	423.64
641.57	400.23
641.72	463.43
641.86	425.98
642.01	402.57
642.16	409.59
642.31	386.19
642.45	442.36
642.60	418.96
642.75	400.23
642.90	437.68
643.04	402.57
643.19	360.44
643.34	428.32
643.48	421.30
643.63	409.59
643.78	449.38
643.93	461.09
644.07	414.27
644.22	418.96
644.37	383.85
644.51	442.36
644.66	351.08
644.81	404.91
644.95	468.11
645.10	475.13
645.25	381.51
645.39	472.79
645.54	425.98
645.69	475.13
645.83	442.36
645.98	493.85
646.13	390.87
646.27	505.56
646.42	451.72
646.57	430.66
646.71	376.83
646.86	428.32
647.00	409.59
647.15	433.00
647.30	365.12
647.44	440.02
647.59	390.87
647.74	344.06
647.88	465.77
648.03	393.21
648.17	517.26
648.32	414.27
648.47	414.27
648.61	425.98
648.76	449.38
648.90	360.44
649.05	397.89
649.20	381.51
649.34	463.43
649.49	369.80
649.63	372.15
649.78	414.27
649.92	437.68
650.07	409.59
650.21	428.32
650.36	407.25
650.51	397.89
650.65	493.85
650.80	433.00
650.94	358.10
651.09	449.38
651.23	428.32
651.38	407.25
651.52	418.96
651.67	425.98
651.81	395.55
651.96	444.70
652.10	447.04
652.25	421.30
652.39	386.19
652.54	447.04
652.68	463.43
652.83	435.34
652.97	404.91
653.12	416.62
653.26	334.70
653.41	369.80
653.55	386.19
653.70	341.72
653.84	411.93
653.99	418.96
654.13	379.17
654.27	477.47
654.42	390.87
654.56	381.51
654.71	447.04
654.85	423.64
655.00	404.91
655.14	437.68
655.29	395.55
655.43	414.27
655.57	447.04
655.72	409.59
655.86	463.43
656.01	337.04
656.15	365.12
656.30	449.38
656.44	449.38
656.58	381.51
656.73	440.02
656.87	367.46
657.01	355.76
657.16	472.79
657.30	388.53
657.45	449.38
657.59	418.96
657.73	358.10
657.88	421.30
658.02	449.38
658.16	362.78
658.31	423.64
658.45	442.36
658.60	414.27
658.74	463.43
658.88	425.98
659.03	393.21
659.17	456.40
659.31	470.45
659.46	449.38
659.60	402.57
659.74	308.95
659.89	409.59
660.03	421.30
660.17	423.64
660.32	440.02
660.46	393.21
660.60	388.53
660.74	430.66
660.89	437.68
661.03	437.68
661.17	484.49
661.32	411.93
661.46	447.04
661.60	397.89
661.74	430.66
661.89	444.70
662.03	411.93
662.17	407.25
662.31	395.55
662.46	482.15
662.60	428.32
662.74	360.44
662.88	411.93
663.03	393.21
663.17	388.53
663.31	360.44
663.45	475.13
663.60	440.02
663.74	367.46
663.88	407.25
664.02	376.83
664.17	351.08
664.31	418.96
664.45	440.02
664.59	376.83
664.73	433.00
664.88	395.55
665.02	437.68
665.16	376.83
665.30	526.62
665.44	531.30
665.59	418.96
665.73	421.30
665.87	381.51
666.01	365.12
666.15	470.45
666.29	440.02
666.44	418.96
666.58	428.32
666.72	435.34
666.86	418.96
667.00	440.02
667.14	381.51
667.28	395.55
667.43	437.68
667.57	449.38
667.71	386.19
667.85	430.66
667.99	374.49
668.13	395.55
668.27	372.15
668.41	397.89
668.56	395.55
668.70	512.58
668.84	477.47
668.98	421.30
669.12	402.57
669.26	379.17
669.40	479.81
669.54	430.66
669.68	425.98
669.82	437.68
669.96	482.15
670.10	416.62
670.25	411.93
670.39	376.83
670.53	407.25
670.67	486.83
670.81	416.62
670.95	395.55
671.09	397.89
671.23	533.64
671.37	386.19
671.51	372.15
671.65	404.91
671.79	442.36
671.93	433.00
672.07	409.59
672.21	428.32
672.35	327.68
672.49	430.66
672.63	411.93
672.77	442.36
672.91	428.32
673.05	442.36
673.19	496.19
673.33	388.53
673.47	433.00
673.61	510.24
673.75	393.21
673.89	351.08
674.03	404.91
674.17	388.53
674.31	376.83
674.45	428.32
674.59	353.42
674.73	383.85
674.87	407.25
675.01	400.23
675.15	456.40
675.29	475.13
675.43	407.25
675.56	379.17
675.70	484.49
675.84	425.98
675.98	444.70
676.12	444.70
676.26	428.32
676.40	409.59
676.54	458.74
676.68	411.93
676.82	468.11
676.96	470.45
677.10	433.00
677.23	470.45
677.37	402.57
677.51	381.51
677.65	456.40
677.79	416.62
677.93	383.85
678.07	402.57
678.21	395.55
678.34	458.74
678.48	332.36
678.62	493.85
678.76	390.87
678.90	322.99
679.04	423.64
679.18	390.87
679.31	365.12
679.45	451.72
679.59	468.11
679.73	468.11
679.87	388.53
680.00	552.37
680.14	416.62
680.28	416.62
680.42	390.87
680.56	383.85
680.70	346.40
680.83	465.77
680.97	409.59
681.11	367.46
681.25	477.47
681.39	397.89
681.52	372.15
681.66	430.66
681.80	397.89
681.94	358.10
682.07	409.59
682.21	425.98
682.35	374.49
682.49	433.00
682.62	435.34
682.76	475.13
682.90	423.64
683.04	393.21
683.17	430.66
683.31	411.93
683.45	379.17
683.59	381.51
683.72	337.04
683.86	458.74
684.00	454.06
684.13	451.72
684.27	416.62
684.41	479.81
684.55	435.34
684.68	409.59
684.82	372.15
684.96	437.68
685.09	433.00
685.23	440.02
685.37	423.64
685.50	484.49
685.64	376.83
685.78	393.21
685.91	433.00
686.05	477.47
686.19	418.96
686.32	458.74
686.46	393.21
686.60	428.32
686.73	433.00
686.87	423.64
687.01	358.10
687.14	430.66
687.28	402.57
687.42	470.45
687.55	407.25
687.69	449.38
687.82	393.21
687.96	461.09
688.10	433.00
688.23	404.91
688.37	428.32
688.50	416.62
688.64	442.36
688.78	414.27
688.91	381.51
689.05	404.91
689.18	440.02
689.32	381.51
689.46	397.89
689.59	397.89
689.73	411.93
689.86	346.40
690.00	409.59
690.13	386.19
690.27	421.30
690.41	390.87
690.54	484.49
690.68	503.22
690.81	397.89
690.95	395.55
691.08	330.02
691.22	390.87
691.35	400.23
691.49	358.10
691.62	414.27
691.76	353.42
691.89	414.27
692.03	362.78
692.16	393.21
692.30	402.57
692.43	482.15
692.57	409.59
692.70	458.74
692.84	416.62
692.97	430.66
693.11	409.59
693.24	433.00
693.38	430.66
693.51	367.46
693.65	388.53
693.78	393.21
693.92	425.98
694.05	447.04
694.19	400.23
694.32	421.30
694.45	393.21
694.59	390.87
694.72	367.46
694.86	440.02
694.99	451.72
695.13	348.74
695.26	411.93
695.39	521.94
695.53	456.40
695.66	332.36
695.80	402.57
695.93	418.96
696.07	409.59
696.20	435.34
696.33	386.19
696.47	425.98
696.60	379.17
696.73	465.77
696.87	372.15
697.00	360.44
697.14	376.83
697.27	416.62
697.40	461.09
697.54	430.66
697.67	334.70
697.80	374.49
697.94	402.57
698.07	400.23
698.21	414.27
698.34	451.72
698.47	283.20
698.61	376.83
698.74	346.40
698.87	393.21
699.01	386.19
699.14	362.78
699.27	421.30
699.40	535.98
699.54	428.32
699.67	409.59
699.80	425.98
699.94	447.04
700.07	390.87
700.20	360.44
700.34	358.10
700.47	411.93
700.60	395.55
700.73	505.56
700.87	463.43
701.00	327.68
701.13	379.17
701.26	421.30
701.40	442.36
701.53	437.68
701.66	402.57
701.79	468.11
701.93	379.17
702.06	437.68
702.19	332.36
702.32	447.04
702.46	433.00
702.59	360.44
702.72	442.36
702.85	411.93
702.99	433.00
703.12	395.55
703.25	430.66
703.38	433.00
703.51	437.68
703.65	390.87
703.78	451.72
703.91	411.93
704.04	442.36
704.17	400.23
704.31	386.19
704.44	381.51
704.57	435.34
704.70	428.32
704.83	486.83
704.96	393.21
705.10	386.19
705.23	393.21
>>>>>End Processed Spectral Data<<<<<
