SpectraSuite Data File
++++++++++++++++++++++++++++++++++++
Date: Fri Oct 25 12:11:17 EDT 2013
User: price-jones
Dark Spectrum Present: No
Reference Spectrum Present: No
Number of Sampled Component Spectra: 1
Spectrometers: USB2+H05261
Integration Time (usec): 100000 (USB2+H05261)
Spectra Averaged: 1 (USB2+H05261)
Boxcar Smoothing: 0 (USB2+H05261)
Correct for Electrical Dark: No (USB2+H05261)
Strobe/Lamp Enabled: No (USB2+H05261)
Correct for Detector Non-linearity: No (USB2+H05261)
Correct for Stray Light: No (USB2+H05261)
Number of Pixels in Processed Spectrum: 2048
>>>>>Begin Processed Spectral Data<<<<<
365.73	330.02
365.92	330.02
366.12	330.02
366.32	201.29
366.52	220.01
366.72	283.20
366.91	231.71
367.11	264.48
367.31	264.48
367.51	262.14
367.70	297.25
367.90	212.99
368.10	259.80
368.30	315.97
368.49	205.97
368.69	301.93
368.89	215.33
369.09	294.91
369.28	290.23
369.48	257.46
369.68	271.50
369.87	278.52
370.07	287.89
370.27	294.91
370.47	386.19
370.66	351.08
370.86	362.78
371.06	341.72
371.25	304.27
371.45	360.44
371.65	397.89
371.84	390.87
372.04	407.25
372.24	365.12
372.44	386.19
372.63	367.46
372.83	383.85
373.03	423.64
373.22	414.27
373.42	362.78
373.62	440.02
373.81	437.68
374.01	414.27
374.21	390.87
374.40	437.68
374.60	442.36
374.79	486.83
374.99	372.15
375.19	423.64
375.38	393.21
375.58	451.72
375.78	407.25
375.97	454.06
376.17	414.27
376.37	374.49
376.56	381.51
376.76	507.90
376.95	369.80
377.15	458.74
377.35	379.17
377.54	367.46
377.74	393.21
377.93	428.32
378.13	393.21
378.33	400.23
378.52	430.66
378.72	444.70
378.91	414.27
379.11	423.64
379.31	397.89
379.50	395.55
379.70	383.85
379.89	386.19
380.09	393.21
380.28	386.19
380.48	360.44
380.68	402.57
380.87	330.02
381.07	355.76
381.26	470.45
381.46	442.36
381.65	416.62
381.85	395.55
382.04	362.78
382.24	393.21
382.43	407.25
382.63	442.36
382.83	372.15
383.02	458.74
383.22	411.93
383.41	376.83
383.61	435.34
383.80	486.83
384.00	362.78
384.19	437.68
384.39	418.96
384.58	475.13
384.78	421.30
384.97	472.79
385.17	358.10
385.36	402.57
385.56	416.62
385.75	416.62
385.95	411.93
386.14	465.77
386.34	374.49
386.53	411.93
386.72	402.57
386.92	402.57
387.11	479.81
387.31	451.72
387.50	362.78
387.70	339.38
387.89	416.62
388.09	421.30
388.28	327.68
388.48	437.68
388.67	383.85
388.86	435.34
389.06	379.17
389.25	421.30
389.45	351.08
389.64	418.96
389.84	374.49
390.03	414.27
390.22	351.08
390.42	393.21
390.61	393.21
390.81	381.51
391.00	407.25
391.19	409.59
391.39	411.93
391.58	404.91
391.78	449.38
391.97	425.98
392.16	327.68
392.36	433.00
392.55	402.57
392.75	463.43
392.94	386.19
393.13	400.23
393.33	442.36
393.52	468.11
393.71	390.87
393.91	442.36
394.10	388.53
394.29	353.42
394.49	397.89
394.68	393.21
394.88	423.64
395.07	407.25
395.26	376.83
395.46	425.98
395.65	421.30
395.84	402.57
396.04	470.45
396.23	411.93
396.42	365.12
396.62	437.68
396.81	461.09
397.00	447.04
397.19	428.32
397.39	365.12
397.58	437.68
397.77	369.80
397.97	433.00
398.16	477.47
398.35	428.32
398.55	355.76
398.74	409.59
398.93	442.36
399.12	393.21
399.32	344.06
399.51	383.85
399.70	374.49
399.90	416.62
400.09	411.93
400.28	421.30
400.47	418.96
400.67	416.62
400.86	369.80
401.05	395.55
401.24	486.83
401.44	374.49
401.63	409.59
401.82	463.43
402.01	365.12
402.21	404.91
402.40	437.68
402.59	404.91
402.78	428.32
402.97	381.51
403.17	409.59
403.36	451.72
403.55	379.17
403.74	428.32
403.93	416.62
404.13	362.78
404.32	407.25
404.51	444.70
404.70	454.06
404.89	475.13
405.09	440.02
405.28	400.23
405.47	386.19
405.66	358.10
405.85	341.72
406.05	383.85
406.24	348.74
406.43	418.96
406.62	442.36
406.81	383.85
407.00	421.30
407.20	465.77
407.39	416.62
407.58	358.10
407.77	381.51
407.96	416.62
408.15	318.31
408.34	339.38
408.54	421.30
408.73	421.30
408.92	386.19
409.11	355.76
409.30	337.04
409.49	430.66
409.68	393.21
409.87	418.96
410.07	472.79
410.26	386.19
410.45	381.51
410.64	484.49
410.83	404.91
411.02	379.17
411.21	383.85
411.40	425.98
411.59	360.44
411.78	376.83
411.98	425.98
412.17	400.23
412.36	442.36
412.55	447.04
412.74	372.15
412.93	435.34
413.12	428.32
413.31	454.06
413.50	486.83
413.69	435.34
413.88	421.30
414.07	404.91
414.26	386.19
414.45	409.59
414.64	390.87
414.83	362.78
415.02	397.89
415.22	433.00
415.41	397.89
415.60	390.87
415.79	351.08
415.98	477.47
416.17	479.81
416.36	433.00
416.55	334.70
416.74	449.38
416.93	470.45
417.12	451.72
417.31	402.57
417.50	409.59
417.69	484.49
417.88	386.19
418.07	416.62
418.26	379.17
418.45	379.17
418.64	489.17
418.83	369.80
419.02	341.72
419.21	444.70
419.39	318.31
419.58	367.46
419.77	330.02
419.96	365.12
420.15	437.68
420.34	372.15
420.53	411.93
420.72	407.25
420.91	433.00
421.10	430.66
421.29	430.66
421.48	423.64
421.67	383.85
421.86	388.53
422.05	421.30
422.24	425.98
422.43	379.17
422.61	400.23
422.80	330.02
422.99	407.25
423.18	376.83
423.37	440.02
423.56	430.66
423.75	454.06
423.94	393.21
424.13	416.62
424.32	409.59
424.50	395.55
424.69	430.66
424.88	388.53
425.07	447.04
425.26	484.49
425.45	411.93
425.64	428.32
425.83	433.00
426.01	430.66
426.20	388.53
426.39	360.44
426.58	437.68
426.77	397.89
426.96	369.80
427.15	395.55
427.33	475.13
427.52	374.49
427.71	444.70
427.90	425.98
428.09	386.19
428.28	393.21
428.46	430.66
428.65	379.17
428.84	318.31
429.03	414.27
429.22	341.72
429.40	409.59
429.59	428.32
429.78	440.02
429.97	381.51
430.16	374.49
430.34	344.06
430.53	304.27
430.72	423.64
430.91	447.04
431.10	386.19
431.28	423.64
431.47	430.66
431.66	416.62
431.85	456.40
432.03	395.55
432.22	463.43
432.41	463.43
432.60	416.62
432.79	374.49
432.97	423.64
433.16	449.38
433.35	372.15
433.54	395.55
433.72	449.38
433.91	451.72
434.10	435.34
434.28	414.27
434.47	402.57
434.66	416.62
434.85	435.34
435.03	388.53
435.22	470.45
435.41	454.06
435.59	393.21
435.78	437.68
435.97	404.91
436.16	400.23
436.34	440.02
436.53	458.74
436.72	421.30
436.90	484.49
437.09	400.23
437.28	411.93
437.46	358.10
437.65	409.59
437.84	461.09
438.02	409.59
438.21	416.62
438.40	414.27
438.58	374.49
438.77	470.45
438.96	498.53
439.14	458.74
439.33	423.64
439.52	381.51
439.70	383.85
439.89	437.68
440.08	440.02
440.26	456.40
440.45	407.25
440.63	386.19
440.82	376.83
441.01	383.85
441.19	428.32
441.38	416.62
441.57	430.66
441.75	461.09
441.94	468.11
442.12	374.49
442.31	437.68
442.50	369.80
442.68	369.80
442.87	437.68
443.05	393.21
443.24	451.72
443.43	367.46
443.61	430.66
443.80	454.06
443.98	379.17
444.17	404.91
444.35	423.64
444.54	388.53
444.73	397.89
444.91	472.79
445.10	430.66
445.28	372.15
445.47	388.53
445.65	444.70
445.84	400.23
446.02	372.15
446.21	411.93
446.39	414.27
446.58	388.53
446.77	402.57
446.95	390.87
447.14	496.19
447.32	451.72
447.51	456.40
447.69	407.25
447.88	454.06
448.06	402.57
448.25	454.06
448.43	346.40
448.62	393.21
448.80	456.40
448.99	425.98
449.17	397.89
449.36	416.62
449.54	393.21
449.73	421.30
449.91	463.43
450.10	472.79
450.28	402.57
450.46	447.04
450.65	407.25
450.83	442.36
451.02	440.02
451.20	383.85
451.39	376.83
451.57	433.00
451.76	449.38
451.94	407.25
452.13	409.59
452.31	423.64
452.49	402.57
452.68	400.23
452.86	475.13
453.05	395.55
453.23	440.02
453.42	451.72
453.60	505.56
453.78	449.38
453.97	411.93
454.15	437.68
454.34	393.21
454.52	395.55
454.70	456.40
454.89	430.66
455.07	402.57
455.26	414.27
455.44	454.06
455.62	425.98
455.81	475.13
455.99	407.25
456.17	372.15
456.36	339.38
456.54	381.51
456.73	416.62
456.91	414.27
457.09	433.00
457.28	475.13
457.46	383.85
457.64	407.25
457.83	416.62
458.01	479.81
458.19	421.30
458.38	425.98
458.56	425.98
458.74	325.33
458.93	390.87
459.11	388.53
459.29	433.00
459.48	376.83
459.66	414.27
459.84	414.27
460.03	472.79
460.21	482.15
460.39	358.10
460.57	475.13
460.76	411.93
460.94	369.80
461.12	440.02
461.31	428.32
461.49	374.49
461.67	334.70
461.85	388.53
462.04	433.00
462.22	711.52
462.40	498.53
462.59	421.30
462.77	369.80
462.95	397.89
463.13	449.38
463.32	346.40
463.50	454.06
463.68	444.70
463.86	355.76
464.05	425.98
464.23	440.02
464.41	395.55
464.59	418.96
464.78	346.40
464.96	447.04
465.14	425.98
465.32	449.38
465.50	430.66
465.69	388.53
465.87	372.15
466.05	428.32
466.23	355.76
466.41	440.02
466.60	416.62
466.78	411.93
466.96	423.64
467.14	351.08
467.32	421.30
467.51	493.85
467.69	477.47
467.87	461.09
468.05	463.43
468.23	489.17
468.41	447.04
468.60	397.89
468.78	435.34
468.96	395.55
469.14	461.09
469.32	418.96
469.50	423.64
469.69	447.04
469.87	435.34
470.05	433.00
470.23	458.74
470.41	374.49
470.59	362.78
470.77	386.19
470.95	390.87
471.14	451.72
471.32	388.53
471.50	498.53
471.68	360.44
471.86	458.74
472.04	388.53
472.22	447.04
472.40	358.10
472.58	400.23
472.77	449.38
472.95	390.87
473.13	477.47
473.31	355.76
473.49	381.51
473.67	337.04
473.85	468.11
474.03	416.62
474.21	386.19
474.39	456.40
474.57	437.68
474.75	360.44
474.93	369.80
475.12	416.62
475.30	388.53
475.48	376.83
475.66	465.77
475.84	397.89
476.02	402.57
476.20	458.74
476.38	409.59
476.56	397.89
476.74	437.68
476.92	428.32
477.10	414.27
477.28	409.59
477.46	379.17
477.64	395.55
477.82	400.23
478.00	416.62
478.18	395.55
478.36	423.64
478.54	451.72
478.72	339.38
478.90	440.02
479.08	367.46
479.26	381.51
479.44	451.72
479.62	470.45
479.80	442.36
479.98	402.57
480.16	409.59
480.34	409.59
480.52	451.72
480.70	411.93
480.88	454.06
481.06	475.13
481.24	416.62
481.41	337.04
481.59	402.57
481.77	390.87
481.95	430.66
482.13	435.34
482.31	400.23
482.49	353.42
482.67	390.87
482.85	454.06
483.03	402.57
483.21	355.76
483.39	379.17
483.57	383.85
483.74	479.81
483.92	416.62
484.10	425.98
484.28	411.93
484.46	489.17
484.64	404.91
484.82	472.79
485.00	437.68
485.18	421.30
485.35	447.04
485.53	430.66
485.71	383.85
485.89	400.23
486.07	386.19
486.25	425.98
486.43	465.77
486.61	358.10
486.78	411.93
486.96	400.23
487.14	334.70
487.32	353.42
487.50	362.78
487.68	362.78
487.85	475.13
488.03	395.55
488.21	468.11
488.39	444.70
488.57	379.17
488.75	395.55
488.92	510.24
489.10	456.40
489.28	475.13
489.46	425.98
489.64	400.23
489.81	393.21
489.99	423.64
490.17	409.59
490.35	505.56
490.53	411.93
490.70	322.99
490.88	360.44
491.06	334.70
491.24	496.19
491.41	451.72
491.59	402.57
491.77	407.25
491.95	395.55
492.13	414.27
492.30	376.83
492.48	447.04
492.66	428.32
492.84	397.89
493.01	393.21
493.19	402.57
493.37	397.89
493.54	482.15
493.72	341.72
493.90	390.87
494.08	367.46
494.25	430.66
494.43	428.32
494.61	440.02
494.79	362.78
494.96	395.55
495.14	444.70
495.32	433.00
495.49	454.06
495.67	505.56
495.85	318.31
496.02	425.98
496.20	489.17
496.38	341.72
496.55	397.89
496.73	409.59
496.91	414.27
497.09	430.66
497.26	299.59
497.44	332.36
497.62	447.04
497.79	400.23
497.97	482.15
498.14	440.02
498.32	383.85
498.50	409.59
498.67	400.23
498.85	397.89
499.03	423.64
499.20	365.12
499.38	407.25
499.56	379.17
499.73	393.21
499.91	470.45
500.08	433.00
500.26	458.74
500.44	353.42
500.61	390.87
500.79	397.89
500.97	339.38
501.14	440.02
501.32	458.74
501.49	451.72
501.67	433.00
501.84	402.57
502.02	397.89
502.20	447.04
502.37	425.98
502.55	334.70
502.72	428.32
502.90	409.59
503.07	425.98
503.25	376.83
503.43	416.62
503.60	449.38
503.78	449.38
503.95	369.80
504.13	458.74
504.30	449.38
504.48	397.89
504.65	437.68
504.83	442.36
505.01	353.42
505.18	404.91
505.36	411.93
505.53	437.68
505.71	463.43
505.88	510.24
506.06	416.62
506.23	358.10
506.41	407.25
506.58	430.66
506.76	404.91
506.93	402.57
507.11	440.02
507.28	381.51
507.46	355.76
507.63	447.04
507.81	458.74
507.98	498.53
508.16	442.36
508.33	311.29
508.50	416.62
508.68	416.62
508.85	463.43
509.03	428.32
509.20	376.83
509.38	390.87
509.55	395.55
509.73	416.62
509.90	402.57
510.08	430.66
510.25	404.91
510.42	423.64
510.60	425.98
510.77	433.00
510.95	433.00
511.12	386.19
511.30	311.29
511.47	428.32
511.64	491.51
511.82	418.96
511.99	379.17
512.17	388.53
512.34	430.66
512.51	418.96
512.69	444.70
512.86	411.93
513.04	449.38
513.21	435.34
513.38	411.93
513.56	362.78
513.73	402.57
513.90	451.72
514.08	440.02
514.25	365.12
514.43	351.08
514.60	351.08
514.77	360.44
514.95	428.32
515.12	447.04
515.29	414.27
515.47	365.12
515.64	379.17
515.81	397.89
515.99	496.19
516.16	409.59
516.33	451.72
516.51	367.46
516.68	416.62
516.85	374.49
517.03	442.36
517.20	454.06
517.37	456.40
517.54	416.62
517.72	470.45
517.89	409.59
518.06	341.72
518.24	477.47
518.41	411.93
518.58	383.85
518.75	418.96
518.93	507.90
519.10	386.19
519.27	390.87
519.45	442.36
519.62	386.19
519.79	423.64
519.96	428.32
520.14	397.89
520.31	416.62
520.48	475.13
520.65	430.66
520.83	435.34
521.00	451.72
521.17	409.59
521.34	423.64
521.52	440.02
521.69	355.76
521.86	418.96
522.03	475.13
522.20	458.74
522.38	418.96
522.55	482.15
522.72	404.91
522.89	407.25
523.07	498.53
523.24	425.98
523.41	442.36
523.58	449.38
523.75	404.91
523.92	416.62
524.10	407.25
524.27	435.34
524.44	388.53
524.61	456.40
524.78	433.00
524.96	379.17
525.13	416.62
525.30	503.22
525.47	386.19
525.64	395.55
525.81	414.27
525.98	397.89
526.16	402.57
526.33	456.40
526.50	388.53
526.67	449.38
526.84	402.57
527.01	435.34
527.18	435.34
527.36	444.70
527.53	456.40
527.70	449.38
527.87	458.74
528.04	486.83
528.21	433.00
528.38	449.38
528.55	449.38
528.72	430.66
528.89	404.91
529.07	315.97
529.24	407.25
529.41	400.23
529.58	367.46
529.75	463.43
529.92	344.06
530.09	423.64
530.26	428.32
530.43	472.79
530.60	339.38
530.77	486.83
530.94	442.36
531.11	444.70
531.28	376.83
531.46	383.85
531.63	402.57
531.80	407.25
531.97	430.66
532.14	360.44
532.31	397.89
532.48	500.87
532.65	435.34
532.82	472.79
532.99	372.15
533.16	409.59
533.33	393.21
533.50	475.13
533.67	423.64
533.84	393.21
534.01	395.55
534.18	425.98
534.35	367.46
534.52	414.27
534.69	383.85
534.86	461.09
535.03	418.96
535.20	376.83
535.37	449.38
535.54	454.06
535.71	346.40
535.88	390.87
536.05	346.40
536.22	411.93
536.38	454.06
536.55	418.96
536.72	470.45
536.89	407.25
537.06	440.02
537.23	411.93
537.40	465.77
537.57	395.55
537.74	498.53
537.91	507.90
538.08	447.04
538.25	407.25
538.42	390.87
538.59	449.38
538.75	395.55
538.92	367.46
539.09	433.00
539.26	393.21
539.43	433.00
539.60	416.62
539.77	433.00
539.94	428.32
540.11	456.40
540.28	425.98
540.44	418.96
540.61	423.64
540.78	416.62
540.95	430.66
541.12	472.79
541.29	437.68
541.46	437.68
541.62	369.80
541.79	407.25
541.96	423.64
542.13	411.93
542.30	416.62
542.47	374.49
542.63	411.93
542.80	470.45
542.97	468.11
543.14	423.64
543.31	414.27
543.48	430.66
543.64	390.87
543.81	414.27
543.98	416.62
544.15	365.12
544.32	458.74
544.48	470.45
544.65	456.40
544.82	390.87
544.99	407.25
545.16	423.64
545.32	423.64
545.49	404.91
545.66	458.74
545.83	421.30
546.00	388.53
546.16	386.19
546.33	393.21
546.50	397.89
546.67	484.49
546.83	388.53
547.00	353.42
547.17	409.59
547.34	440.02
547.50	458.74
547.67	468.11
547.84	369.80
548.00	437.68
548.17	397.89
548.34	414.27
548.51	437.68
548.67	381.51
548.84	461.09
549.01	395.55
549.18	383.85
549.34	491.51
549.51	449.38
549.68	475.13
549.84	351.08
550.01	447.04
550.18	428.32
550.34	496.19
550.51	442.36
550.68	456.40
550.84	402.57
551.01	381.51
551.18	430.66
551.34	477.47
551.51	400.23
551.68	372.15
551.84	435.34
552.01	404.91
552.18	402.57
552.34	381.51
552.51	416.62
552.68	362.78
552.84	362.78
553.01	414.27
553.18	482.15
553.34	433.00
553.51	404.91
553.67	421.30
553.84	397.89
554.01	444.70
554.17	404.91
554.34	414.27
554.51	484.49
554.67	470.45
554.84	421.30
555.00	409.59
555.17	414.27
555.33	362.78
555.50	372.15
555.67	435.34
555.83	409.59
556.00	381.51
556.16	545.34
556.33	550.03
556.50	383.85
556.66	423.64
556.83	477.47
556.99	372.15
557.16	376.83
557.32	386.19
557.49	449.38
557.65	367.46
557.82	395.55
557.98	468.11
558.15	447.04
558.32	418.96
558.48	365.12
558.65	454.06
558.81	421.30
558.98	440.02
559.14	430.66
559.31	395.55
559.47	451.72
559.64	437.68
559.80	423.64
559.97	376.83
560.13	456.40
560.30	425.98
560.46	402.57
560.63	418.96
560.79	454.06
560.96	442.36
561.12	379.17
561.29	444.70
561.45	484.49
561.61	451.72
561.78	411.93
561.94	440.02
562.11	353.42
562.27	395.55
562.44	404.91
562.60	468.11
562.77	374.49
562.93	461.09
563.10	404.91
563.26	404.91
563.42	458.74
563.59	425.98
563.75	433.00
563.92	430.66
564.08	407.25
564.24	428.32
564.41	470.45
564.57	379.17
564.74	393.21
564.90	449.38
565.07	444.70
565.23	447.04
565.39	449.38
565.56	355.76
565.72	348.74
565.88	447.04
566.05	390.87
566.21	400.23
566.38	407.25
566.54	407.25
566.70	404.91
566.87	451.72
567.03	414.27
567.19	390.87
567.36	461.09
567.52	407.25
567.68	425.98
567.85	383.85
568.01	479.81
568.17	423.64
568.34	482.15
568.50	472.79
568.66	454.06
568.83	435.34
568.99	437.68
569.15	430.66
569.32	344.06
569.48	440.02
569.64	360.44
569.81	418.96
569.97	386.19
570.13	440.02
570.30	428.32
570.46	486.83
570.62	404.91
570.78	421.30
570.95	388.53
571.11	503.22
571.27	404.91
571.43	402.57
571.60	379.17
571.76	355.76
571.92	388.53
572.09	400.23
572.25	461.09
572.41	428.32
572.57	404.91
572.74	468.11
572.90	390.87
573.06	379.17
573.22	425.98
573.38	447.04
573.55	433.00
573.71	400.23
573.87	411.93
574.03	435.34
574.20	430.66
574.36	440.02
574.52	468.11
574.68	425.98
574.84	393.21
575.01	416.62
575.17	425.98
575.33	449.38
575.49	379.17
575.65	388.53
575.82	451.72
575.98	428.32
576.14	479.81
576.30	379.17
576.46	402.57
576.62	421.30
576.79	477.47
576.95	521.94
577.11	379.17
577.27	390.87
577.43	456.40
577.59	451.72
577.75	362.78
577.92	440.02
578.08	430.66
578.24	358.10
578.40	484.49
578.56	472.79
578.72	468.11
578.88	325.33
579.04	444.70
579.21	435.34
579.37	369.80
579.53	388.53
579.69	390.87
579.85	346.40
580.01	418.96
580.17	402.57
580.33	463.43
580.49	407.25
580.65	386.19
580.82	388.53
580.98	390.87
581.14	456.40
581.30	437.68
581.46	433.00
581.62	444.70
581.78	374.49
581.94	461.09
582.10	386.19
582.26	337.04
582.42	388.53
582.58	414.27
582.74	400.23
582.90	430.66
583.06	475.13
583.22	435.34
583.38	400.23
583.54	411.93
583.70	418.96
583.86	440.02
584.02	400.23
584.18	402.57
584.34	402.57
584.50	454.06
584.66	468.11
584.82	416.62
584.98	409.59
585.14	409.59
585.30	486.83
585.46	393.21
585.62	332.36
585.78	381.51
585.94	461.09
586.10	449.38
586.26	397.89
586.42	435.34
586.58	346.40
586.74	435.34
586.90	358.10
587.06	510.24
587.22	393.21
587.38	428.32
587.54	379.17
587.70	402.57
587.86	409.59
588.02	393.21
588.18	386.19
588.34	386.19
588.49	416.62
588.65	369.80
588.81	437.68
588.97	430.66
589.13	447.04
589.29	479.81
589.45	430.66
589.61	465.77
589.77	348.74
589.93	386.19
590.08	362.78
590.24	390.87
590.40	360.44
590.56	418.96
590.72	433.00
590.88	418.96
591.04	442.36
591.20	381.51
591.35	468.11
591.51	395.55
591.67	414.27
591.83	376.83
591.99	402.57
592.15	451.72
592.31	416.62
592.46	433.00
592.62	449.38
592.78	397.89
592.94	409.59
593.10	411.93
593.26	381.51
593.41	479.81
593.57	348.74
593.73	454.06
593.89	414.27
594.05	437.68
594.20	449.38
594.36	325.33
594.52	418.96
594.68	477.47
594.84	465.77
594.99	435.34
595.15	463.43
595.31	477.47
595.47	386.19
595.62	472.79
595.78	463.43
595.94	414.27
596.10	468.11
596.25	433.00
596.41	489.17
596.57	409.59
596.73	374.49
596.88	397.89
597.04	454.06
597.20	425.98
597.36	435.34
597.51	421.30
597.67	390.87
597.83	402.57
597.99	517.26
598.14	458.74
598.30	440.02
598.46	390.87
598.61	407.25
598.77	425.98
598.93	454.06
599.09	386.19
599.24	393.21
599.40	456.40
599.56	374.49
599.71	425.98
599.87	416.62
600.03	428.32
600.18	468.11
600.34	430.66
600.50	400.23
600.65	433.00
600.81	430.66
600.97	334.70
601.12	463.43
601.28	388.53
601.44	381.51
601.59	454.06
601.75	386.19
601.91	358.10
602.06	327.68
602.22	458.74
602.37	425.98
602.53	416.62
602.69	468.11
602.84	416.62
603.00	360.44
603.16	418.96
603.31	430.66
603.47	505.56
603.62	423.64
603.78	468.11
603.94	440.02
604.09	442.36
604.25	423.64
604.40	444.70
604.56	407.25
604.71	435.34
604.87	433.00
605.03	425.98
605.18	381.51
605.34	447.04
605.49	468.11
605.65	447.04
605.80	376.83
605.96	472.79
606.12	463.43
606.27	444.70
606.43	456.40
606.58	367.46
606.74	425.98
606.89	388.53
607.05	449.38
607.20	388.53
607.36	477.47
607.51	449.38
607.67	430.66
607.82	451.72
607.98	414.27
608.13	423.64
608.29	475.13
608.44	491.51
608.60	430.66
608.75	454.06
608.91	442.36
609.06	456.40
609.22	425.98
609.37	374.49
609.53	390.87
609.68	386.19
609.84	407.25
609.99	409.59
610.15	374.49
610.30	444.70
610.46	430.66
610.61	346.40
610.76	402.57
610.92	454.06
611.07	390.87
611.23	402.57
611.38	477.47
611.54	425.98
611.69	475.13
611.84	358.10
612.00	414.27
612.15	397.89
612.31	404.91
612.46	461.09
612.62	388.53
612.77	386.19
612.92	428.32
613.08	503.22
613.23	428.32
613.39	447.04
613.54	388.53
613.69	402.57
613.85	404.91
614.00	379.17
614.15	411.93
614.31	381.51
614.46	430.66
614.62	397.89
614.77	475.13
614.92	325.33
615.08	390.87
615.23	390.87
615.38	337.04
615.54	341.72
615.69	390.87
615.84	376.83
616.00	435.34
616.15	444.70
616.30	360.44
616.46	444.70
616.61	470.45
616.76	402.57
616.92	440.02
617.07	346.40
617.22	407.25
617.37	369.80
617.53	397.89
617.68	421.30
617.83	409.59
617.99	421.30
618.14	493.85
618.29	533.64
618.45	404.91
618.60	402.57
618.75	379.17
618.90	344.06
619.06	393.21
619.21	470.45
619.36	393.21
619.51	482.15
619.67	409.59
619.82	348.74
619.97	383.85
620.12	367.46
620.28	393.21
620.43	388.53
620.58	477.47
620.73	454.06
620.89	456.40
621.04	365.12
621.19	428.32
621.34	383.85
621.49	425.98
621.65	386.19
621.80	435.34
621.95	484.49
622.10	372.15
622.25	428.32
622.41	367.46
622.56	348.74
622.71	358.10
622.86	456.40
623.01	404.91
623.16	437.68
623.32	400.23
623.47	470.45
623.62	440.02
623.77	379.17
623.92	489.17
624.07	404.91
624.23	393.21
624.38	402.57
624.53	393.21
624.68	435.34
624.83	465.77
624.98	416.62
625.13	470.45
625.29	402.57
625.44	472.79
625.59	440.02
625.74	390.87
625.89	355.76
626.04	454.06
626.19	428.32
626.34	397.89
626.49	489.17
626.65	358.10
626.80	479.81
626.95	503.22
627.10	447.04
627.25	458.74
627.40	374.49
627.55	440.02
627.70	416.62
627.85	477.47
628.00	479.81
628.15	444.70
628.30	458.74
628.45	360.44
628.60	482.15
628.76	402.57
628.91	386.19
629.06	444.70
629.21	468.11
629.36	433.00
629.51	400.23
629.66	341.72
629.81	454.06
629.96	402.57
630.11	421.30
630.26	411.93
630.41	372.15
630.56	402.57
630.71	379.17
630.86	447.04
631.01	425.98
631.16	475.13
631.31	416.62
631.46	470.45
631.61	416.62
631.76	470.45
631.91	409.59
632.06	423.64
632.21	381.51
632.36	400.23
632.51	414.27
632.66	411.93
632.81	407.25
632.96	430.66
633.10	404.91
633.25	383.85
633.40	402.57
633.55	461.09
633.70	402.57
633.85	390.87
634.00	430.66
634.15	407.25
634.30	386.19
634.45	475.13
634.60	454.06
634.75	379.17
634.90	468.11
635.05	395.55
635.19	449.38
635.34	355.76
635.49	407.25
635.64	433.00
635.79	430.66
635.94	409.59
636.09	435.34
636.24	416.62
636.39	449.38
636.53	440.02
636.68	418.96
636.83	390.87
636.98	358.10
637.13	397.89
637.28	456.40
637.43	407.25
637.57	393.21
637.72	367.46
637.87	388.53
638.02	407.25
638.17	440.02
638.32	374.49
638.46	454.06
638.61	433.00
638.76	475.13
638.91	442.36
639.06	435.34
639.20	421.30
639.35	437.68
639.50	381.51
639.65	463.43
639.80	411.93
639.94	397.89
640.09	423.64
640.24	418.96
640.39	461.09
640.54	376.83
640.68	435.34
640.83	416.62
640.98	388.53
641.13	409.59
641.27	423.64
641.42	397.89
641.57	454.06
641.72	440.02
641.86	418.96
642.01	442.36
642.16	360.44
642.31	409.59
642.45	407.25
642.60	463.43
642.75	376.83
642.90	414.27
643.04	421.30
643.19	463.43
643.34	367.46
643.48	468.11
643.63	362.78
643.78	416.62
643.93	484.49
644.07	400.23
644.22	362.78
644.37	409.59
644.51	390.87
644.66	463.43
644.81	505.56
644.95	470.45
645.10	402.57
645.25	456.40
645.39	489.17
645.54	428.32
645.69	440.02
645.83	435.34
645.98	435.34
646.13	503.22
646.27	428.32
646.42	456.40
646.57	367.46
646.71	341.72
646.86	388.53
647.00	454.06
647.15	440.02
647.30	425.98
647.44	397.89
647.59	440.02
647.74	411.93
647.88	421.30
648.03	369.80
648.17	440.02
648.32	458.74
648.47	421.30
648.61	372.15
648.76	381.51
648.90	376.83
649.05	411.93
649.20	437.68
649.34	355.76
649.49	383.85
649.63	463.43
649.78	433.00
649.92	454.06
650.07	365.12
650.21	397.89
650.36	442.36
650.51	362.78
650.65	421.30
650.80	458.74
650.94	437.68
651.09	411.93
651.23	442.36
651.38	390.87
651.52	400.23
651.67	388.53
651.81	440.02
651.96	444.70
652.10	404.91
652.25	374.49
652.39	407.25
652.54	489.17
652.68	444.70
652.83	477.47
652.97	451.72
653.12	463.43
653.26	454.06
653.41	484.49
653.55	346.40
653.70	395.55
653.84	393.21
653.99	428.32
654.13	428.32
654.27	390.87
654.42	449.38
654.56	470.45
654.71	423.64
654.85	437.68
655.00	379.17
655.14	437.68
655.29	379.17
655.43	430.66
655.57	381.51
655.72	388.53
655.86	421.30
656.01	428.32
656.15	442.36
656.30	390.87
656.44	425.98
656.58	404.91
656.73	404.91
656.87	425.98
657.01	463.43
657.16	409.59
657.30	433.00
657.45	465.77
657.59	381.51
657.73	379.17
657.88	362.78
658.02	510.24
658.16	379.17
658.31	379.17
658.45	430.66
658.60	425.98
658.74	442.36
658.88	425.98
659.03	418.96
659.17	433.00
659.31	395.55
659.46	491.51
659.60	416.62
659.74	367.46
659.89	421.30
660.03	418.96
660.17	430.66
660.32	451.72
660.46	475.13
660.60	430.66
660.74	428.32
660.89	463.43
661.03	388.53
661.17	411.93
661.32	390.87
661.46	334.70
661.60	409.59
661.74	397.89
661.89	393.21
662.03	409.59
662.17	428.32
662.31	386.19
662.46	397.89
662.60	402.57
662.74	433.00
662.88	465.77
663.03	440.02
663.17	346.40
663.31	442.36
663.45	449.38
663.60	376.83
663.74	418.96
663.88	400.23
664.02	430.66
664.17	411.93
664.31	428.32
664.45	374.49
664.59	386.19
664.73	416.62
664.88	411.93
665.02	458.74
665.16	369.80
665.30	409.59
665.44	461.09
665.59	418.96
665.73	411.93
665.87	404.91
666.01	376.83
666.15	416.62
666.29	430.66
666.44	411.93
666.58	465.77
666.72	393.21
666.86	425.98
667.00	409.59
667.14	386.19
667.28	461.09
667.43	386.19
667.57	390.87
667.71	367.46
667.85	468.11
667.99	351.08
668.13	444.70
668.27	496.19
668.41	379.17
668.56	390.87
668.70	421.30
668.84	411.93
668.98	409.59
669.12	442.36
669.26	421.30
669.40	470.45
669.54	463.43
669.68	367.46
669.82	440.02
669.96	411.93
670.10	463.43
670.25	435.34
670.39	421.30
670.53	458.74
670.67	304.27
670.81	386.19
670.95	433.00
671.09	322.99
671.23	454.06
671.37	477.47
671.51	468.11
671.65	416.62
671.79	430.66
671.93	414.27
672.07	463.43
672.21	449.38
672.35	360.44
672.49	360.44
672.63	451.72
672.77	411.93
672.91	484.49
673.05	393.21
673.19	386.19
673.33	397.89
673.47	486.83
673.61	421.30
673.75	433.00
673.89	339.38
674.03	407.25
674.17	400.23
674.31	449.38
674.45	456.40
674.59	465.77
674.73	428.32
674.87	379.17
675.01	402.57
675.15	367.46
675.29	465.77
675.43	404.91
675.56	435.34
675.70	402.57
675.84	418.96
675.98	456.40
676.12	447.04
676.26	433.00
676.40	372.15
676.54	362.78
676.68	442.36
676.82	496.19
676.96	407.25
677.10	486.83
677.23	390.87
677.37	390.87
677.51	430.66
677.65	447.04
677.79	428.32
677.93	421.30
678.07	365.12
678.21	383.85
678.34	390.87
678.48	358.10
678.62	374.49
678.76	390.87
678.90	346.40
679.04	411.93
679.18	351.08
679.31	442.36
679.45	458.74
679.59	475.13
679.73	437.68
679.87	402.57
680.00	428.32
680.14	418.96
680.28	409.59
680.42	421.30
680.56	402.57
680.70	372.15
680.83	411.93
680.97	369.80
681.11	395.55
681.25	465.77
681.39	358.10
681.52	395.55
681.66	409.59
681.80	442.36
681.94	390.87
682.07	395.55
682.21	437.68
682.35	430.66
682.49	437.68
682.62	430.66
682.76	322.99
682.90	388.53
683.04	414.27
683.17	435.34
683.31	346.40
683.45	423.64
683.59	454.06
683.72	454.06
683.86	421.30
684.00	395.55
684.13	442.36
684.27	477.47
684.41	447.04
684.55	421.30
684.68	440.02
684.82	447.04
684.96	402.57
685.09	369.80
685.23	353.42
685.37	397.89
685.50	491.51
685.64	383.85
685.78	351.08
685.91	411.93
686.05	442.36
686.19	407.25
686.32	383.85
686.46	351.08
686.60	489.17
686.73	442.36
686.87	447.04
687.01	388.53
687.14	447.04
687.28	390.87
687.42	475.13
687.55	458.74
687.69	397.89
687.82	374.49
687.96	451.72
688.10	400.23
688.23	379.17
688.37	442.36
688.50	489.17
688.64	442.36
688.78	407.25
688.91	423.64
689.05	416.62
689.18	486.83
689.32	475.13
689.46	463.43
689.59	407.25
689.73	402.57
689.86	414.27
690.00	358.10
690.13	435.34
690.27	475.13
690.41	388.53
690.54	479.81
690.68	484.49
690.81	341.72
690.95	348.74
691.08	372.15
691.22	433.00
691.35	423.64
691.49	362.78
691.62	454.06
691.76	416.62
691.89	381.51
692.03	407.25
692.16	400.23
692.30	433.00
692.43	428.32
692.57	423.64
692.70	320.65
692.84	454.06
692.97	447.04
693.11	437.68
693.24	358.10
693.38	414.27
693.51	486.83
693.65	388.53
693.78	372.15
693.92	365.12
694.05	470.45
694.19	433.00
694.32	395.55
694.45	454.06
694.59	397.89
694.72	393.21
694.86	440.02
694.99	393.21
695.13	358.10
695.26	428.32
695.39	344.06
695.53	507.90
695.66	360.44
695.80	433.00
695.93	447.04
696.07	381.51
696.20	379.17
696.33	390.87
696.47	475.13
696.60	442.36
696.73	411.93
696.87	421.30
697.00	428.32
697.14	386.19
697.27	449.38
697.40	454.06
697.54	388.53
697.67	372.15
697.80	393.21
697.94	470.45
698.07	500.87
698.21	414.27
698.34	421.30
698.47	404.91
698.61	421.30
698.74	372.15
698.87	388.53
699.01	479.81
699.14	433.00
699.27	447.04
699.40	442.36
699.54	447.04
699.67	386.19
699.80	428.32
699.94	425.98
700.07	308.95
700.20	390.87
700.34	369.80
700.47	348.74
700.60	383.85
700.73	390.87
700.87	404.91
701.00	381.51
701.13	418.96
701.26	418.96
701.40	358.10
701.53	365.12
701.66	381.51
701.79	393.21
701.93	411.93
702.06	400.23
702.19	411.93
702.32	400.23
702.46	440.02
702.59	449.38
702.72	386.19
702.85	433.00
702.99	395.55
703.12	472.79
703.25	376.83
703.38	440.02
703.51	397.89
703.65	437.68
703.78	390.87
703.91	423.64
704.04	507.90
704.17	418.96
704.31	407.25
704.44	397.89
704.57	362.78
704.70	397.89
704.83	306.61
704.96	381.51
705.10	437.68
705.23	374.49
>>>>>End Processed Spectral Data<<<<<
