SpectraSuite Data File
++++++++++++++++++++++++++++++++++++
Date: Fri Oct 25 12:11:02 EDT 2013
User: price-jones
Dark Spectrum Present: No
Reference Spectrum Present: No
Number of Sampled Component Spectra: 1
Spectrometers: USB2+H05261
Integration Time (usec): 100000 (USB2+H05261)
Spectra Averaged: 1 (USB2+H05261)
Boxcar Smoothing: 0 (USB2+H05261)
Correct for Electrical Dark: No (USB2+H05261)
Strobe/Lamp Enabled: No (USB2+H05261)
Correct for Detector Non-linearity: No (USB2+H05261)
Correct for Stray Light: No (USB2+H05261)
Number of Pixels in Processed Spectrum: 2048
>>>>>Begin Processed Spectral Data<<<<<
365.73	355.76
365.92	355.76
366.12	355.76
366.32	259.80
366.52	180.22
366.72	297.25
366.91	245.76
367.11	198.95
367.31	220.01
367.51	280.86
367.70	156.82
367.90	198.95
368.10	210.65
368.30	187.24
368.49	271.50
368.69	198.95
368.89	283.20
369.09	229.37
369.28	287.89
369.48	330.02
369.68	304.27
369.87	346.40
370.07	264.48
370.27	271.50
370.47	257.46
370.66	365.12
370.86	416.62
371.06	351.08
371.25	355.76
371.45	341.72
371.65	376.83
371.84	372.15
372.04	388.53
372.24	393.21
372.44	355.76
372.63	411.93
372.83	428.32
373.03	402.57
373.22	404.91
373.42	383.85
373.62	454.06
373.81	440.02
374.01	451.72
374.21	510.24
374.40	440.02
374.60	430.66
374.79	430.66
374.99	414.27
375.19	418.96
375.38	425.98
375.58	411.93
375.78	339.38
375.97	456.40
376.17	479.81
376.37	421.30
376.56	433.00
376.76	444.70
376.95	468.11
377.15	418.96
377.35	425.98
377.54	400.23
377.74	435.34
377.93	372.15
378.13	491.51
378.33	435.34
378.52	407.25
378.72	442.36
378.91	447.04
379.11	348.74
379.31	311.29
379.50	379.17
379.70	397.89
379.89	400.23
380.09	458.74
380.28	383.85
380.48	425.98
380.68	428.32
380.87	463.43
381.07	416.62
381.26	510.24
381.46	409.59
381.65	369.80
381.85	418.96
382.04	400.23
382.24	444.70
382.43	388.53
382.63	435.34
382.83	411.93
383.02	442.36
383.22	433.00
383.41	404.91
383.61	379.17
383.80	388.53
384.00	360.44
384.19	369.80
384.39	411.93
384.58	421.30
384.78	390.87
384.97	388.53
385.17	407.25
385.36	369.80
385.56	451.72
385.75	383.85
385.95	456.40
386.14	421.30
386.34	393.21
386.53	447.04
386.72	397.89
386.92	440.02
387.11	418.96
387.31	414.27
387.50	440.02
387.70	409.59
387.89	386.19
388.09	425.98
388.28	411.93
388.48	402.57
388.67	388.53
388.86	468.11
389.06	386.19
389.25	362.78
389.45	449.38
389.64	395.55
389.84	451.72
390.03	456.40
390.22	367.46
390.42	479.81
390.61	383.85
390.81	390.87
391.00	379.17
391.19	477.47
391.39	369.80
391.58	440.02
391.78	337.04
391.97	418.96
392.16	449.38
392.36	411.93
392.55	414.27
392.75	416.62
392.94	409.59
393.13	428.32
393.33	381.51
393.52	400.23
393.71	416.62
393.91	404.91
394.10	322.99
394.29	402.57
394.49	409.59
394.68	421.30
394.88	376.83
395.07	437.68
395.26	383.85
395.46	418.96
395.65	442.36
395.84	383.85
396.04	484.49
396.23	472.79
396.42	433.00
396.62	458.74
396.81	475.13
397.00	451.72
397.19	447.04
397.39	355.76
397.58	402.57
397.77	409.59
397.97	437.68
398.16	365.12
398.35	496.19
398.55	407.25
398.74	402.57
398.93	477.47
399.12	376.83
399.32	496.19
399.51	454.06
399.70	428.32
399.90	393.21
400.09	421.30
400.28	449.38
400.47	437.68
400.67	379.17
400.86	414.27
401.05	468.11
401.24	379.17
401.44	330.02
401.63	374.49
401.82	409.59
402.01	414.27
402.21	493.85
402.40	444.70
402.59	393.21
402.78	465.77
402.97	313.63
403.17	428.32
403.36	395.55
403.55	386.19
403.74	393.21
403.93	376.83
404.13	388.53
404.32	425.98
404.51	365.12
404.70	435.34
404.89	351.08
405.09	454.06
405.28	421.30
405.47	388.53
405.66	367.46
405.85	374.49
406.05	433.00
406.24	379.17
406.43	381.51
406.62	407.25
406.81	512.58
407.00	395.55
407.20	358.10
407.39	482.15
407.58	421.30
407.77	407.25
407.96	512.58
408.15	437.68
408.34	395.55
408.54	386.19
408.73	423.64
408.92	369.80
409.11	407.25
409.30	421.30
409.49	369.80
409.68	411.93
409.87	456.40
410.07	362.78
410.26	367.46
410.45	437.68
410.64	388.53
410.83	381.51
411.02	421.30
411.21	477.47
411.40	425.98
411.59	414.27
411.78	444.70
411.98	451.72
412.17	355.76
412.36	393.21
412.55	381.51
412.74	353.42
412.93	365.12
413.12	505.56
413.31	388.53
413.50	390.87
413.69	444.70
413.88	451.72
414.07	421.30
414.26	397.89
414.45	433.00
414.64	383.85
414.83	360.44
415.02	367.46
415.22	416.62
415.41	442.36
415.60	491.51
415.79	442.36
415.98	458.74
416.17	372.15
416.36	353.42
416.55	411.93
416.74	376.83
416.93	416.62
417.12	383.85
417.31	365.12
417.50	454.06
417.69	463.43
417.88	425.98
418.07	388.53
418.26	400.23
418.45	423.64
418.64	414.27
418.83	379.17
419.02	430.66
419.21	358.10
419.39	430.66
419.58	376.83
419.77	320.65
419.96	428.32
420.15	393.21
420.34	423.64
420.53	397.89
420.72	451.72
420.91	404.91
421.10	430.66
421.29	421.30
421.48	435.34
421.67	470.45
421.86	344.06
422.05	440.02
422.24	465.77
422.43	421.30
422.61	409.59
422.80	409.59
422.99	421.30
423.18	409.59
423.37	461.09
423.56	449.38
423.75	402.57
423.94	346.40
424.13	425.98
424.32	353.42
424.50	430.66
424.69	334.70
424.88	428.32
425.07	421.30
425.26	428.32
425.45	430.66
425.64	414.27
425.83	379.17
426.01	447.04
426.20	388.53
426.39	334.70
426.58	411.93
426.77	327.68
426.96	430.66
427.15	390.87
427.33	447.04
427.52	409.59
427.71	440.02
427.90	442.36
428.09	383.85
428.28	346.40
428.46	430.66
428.65	379.17
428.84	451.72
429.03	383.85
429.22	381.51
429.40	423.64
429.59	442.36
429.78	414.27
429.97	454.06
430.16	395.55
430.34	482.15
430.53	416.62
430.72	327.68
430.91	388.53
431.10	381.51
431.28	379.17
431.47	421.30
431.66	451.72
431.85	390.87
432.03	372.15
432.22	397.89
432.41	407.25
432.60	414.27
432.79	386.19
432.97	360.44
433.16	351.08
433.35	390.87
433.54	435.34
433.72	444.70
433.91	374.49
434.10	416.62
434.28	404.91
434.47	348.74
434.66	470.45
434.85	402.57
435.03	442.36
435.22	449.38
435.41	458.74
435.59	425.98
435.78	482.15
435.97	449.38
436.16	477.47
436.34	386.19
436.53	402.57
436.72	454.06
436.90	491.51
437.09	428.32
437.28	402.57
437.46	433.00
437.65	428.32
437.84	407.25
438.02	381.51
438.21	383.85
438.40	358.10
438.58	376.83
438.77	409.59
438.96	416.62
439.14	475.13
439.33	444.70
439.52	409.59
439.70	367.46
439.89	428.32
440.08	367.46
440.26	334.70
440.45	383.85
440.63	411.93
440.82	383.85
441.01	418.96
441.19	418.96
441.38	479.81
441.57	393.21
441.75	435.34
441.94	491.51
442.12	416.62
442.31	409.59
442.50	435.34
442.68	411.93
442.87	433.00
443.05	383.85
443.24	304.27
443.43	360.44
443.61	376.83
443.80	397.89
443.98	458.74
444.17	390.87
444.35	477.47
444.54	482.15
444.73	409.59
444.91	458.74
445.10	442.36
445.28	372.15
445.47	353.42
445.65	395.55
445.84	383.85
446.02	444.70
446.21	360.44
446.39	430.66
446.58	425.98
446.77	393.21
446.95	362.78
447.14	411.93
447.32	433.00
447.51	425.98
447.69	344.06
447.88	418.96
448.06	390.87
448.25	388.53
448.43	461.09
448.62	313.63
448.80	435.34
448.99	440.02
449.17	409.59
449.36	465.77
449.54	386.19
449.73	369.80
449.91	334.70
450.10	411.93
450.28	435.34
450.46	423.64
450.65	404.91
450.83	468.11
451.02	362.78
451.20	365.12
451.39	381.51
451.57	381.51
451.76	409.59
451.94	425.98
452.13	393.21
452.31	404.91
452.49	393.21
452.68	395.55
452.86	411.93
453.05	397.89
453.23	372.15
453.42	383.85
453.60	442.36
453.78	381.51
453.97	442.36
454.15	449.38
454.34	440.02
454.52	402.57
454.70	472.79
454.89	444.70
455.07	376.83
455.26	395.55
455.44	358.10
455.62	475.13
455.81	400.23
455.99	477.47
456.17	465.77
456.36	397.89
456.54	414.27
456.73	353.42
456.91	433.00
457.09	414.27
457.28	409.59
457.46	461.09
457.64	435.34
457.83	369.80
458.01	454.06
458.19	437.68
458.38	367.46
458.56	397.89
458.74	430.66
458.93	337.04
459.11	477.47
459.29	332.36
459.48	388.53
459.66	416.62
459.84	475.13
460.03	486.83
460.21	444.70
460.39	468.11
460.57	407.25
460.76	409.59
460.94	442.36
461.12	402.57
461.31	521.94
461.49	435.34
461.67	404.91
461.85	496.19
462.04	425.98
462.22	557.05
462.40	418.96
462.59	458.74
462.77	402.57
462.95	372.15
463.13	435.34
463.32	374.49
463.50	463.43
463.68	365.12
463.86	409.59
464.05	376.83
464.23	479.81
464.41	416.62
464.59	379.17
464.78	362.78
464.96	402.57
465.14	461.09
465.32	430.66
465.50	428.32
465.69	423.64
465.87	365.12
466.05	449.38
466.23	369.80
466.41	397.89
466.60	372.15
466.78	465.77
466.96	454.06
467.14	400.23
467.32	421.30
467.51	456.40
467.69	388.53
467.87	433.00
468.05	418.96
468.23	507.90
468.41	454.06
468.60	449.38
468.78	442.36
468.96	475.13
469.14	348.74
469.32	435.34
469.50	367.46
469.69	472.79
469.87	395.55
470.05	304.27
470.23	456.40
470.41	444.70
470.59	372.15
470.77	456.40
470.95	444.70
471.14	402.57
471.32	442.36
471.50	472.79
471.68	428.32
471.86	386.19
472.04	423.64
472.22	388.53
472.40	344.06
472.58	390.87
472.77	395.55
472.95	407.25
473.13	306.61
473.31	482.15
473.49	411.93
473.67	360.44
473.85	470.45
474.03	395.55
474.21	458.74
474.39	423.64
474.57	381.51
474.75	400.23
474.93	388.53
475.12	386.19
475.30	418.96
475.48	393.21
475.66	451.72
475.84	430.66
476.02	470.45
476.20	409.59
476.38	451.72
476.56	477.47
476.74	376.83
476.92	383.85
477.10	451.72
477.28	421.30
477.46	421.30
477.64	428.32
477.82	404.91
478.00	395.55
478.18	393.21
478.36	404.91
478.54	372.15
478.72	393.21
478.90	461.09
479.08	386.19
479.26	418.96
479.44	472.79
479.62	369.80
479.80	376.83
479.98	393.21
480.16	374.49
480.34	465.77
480.52	390.87
480.70	367.46
480.88	440.02
481.06	381.51
481.24	379.17
481.41	407.25
481.59	383.85
481.77	390.87
481.95	458.74
482.13	472.79
482.31	456.40
482.49	414.27
482.67	456.40
482.85	360.44
483.03	330.02
483.21	390.87
483.39	390.87
483.57	437.68
483.74	484.49
483.92	383.85
484.10	440.02
484.28	486.83
484.46	468.11
484.64	386.19
484.82	407.25
485.00	404.91
485.18	423.64
485.35	444.70
485.53	433.00
485.71	435.34
485.89	351.08
486.07	397.89
486.25	395.55
486.43	411.93
486.61	442.36
486.78	411.93
486.96	418.96
487.14	395.55
487.32	447.04
487.50	489.17
487.68	458.74
487.85	458.74
488.03	423.64
488.21	409.59
488.39	355.76
488.57	416.62
488.75	409.59
488.92	465.77
489.10	444.70
489.28	423.64
489.46	416.62
489.64	418.96
489.81	365.12
489.99	395.55
490.17	379.17
490.35	440.02
490.53	388.53
490.70	393.21
490.88	423.64
491.06	437.68
491.24	428.32
491.41	461.09
491.59	444.70
491.77	341.72
491.95	421.30
492.13	428.32
492.30	414.27
492.48	451.72
492.66	428.32
492.84	437.68
493.01	433.00
493.19	381.51
493.37	402.57
493.54	440.02
493.72	390.87
493.90	418.96
494.08	407.25
494.25	355.76
494.43	451.72
494.61	330.02
494.79	362.78
494.96	418.96
495.14	418.96
495.32	365.12
495.49	400.23
495.67	414.27
495.85	428.32
496.02	362.78
496.20	423.64
496.38	454.06
496.55	416.62
496.73	344.06
496.91	414.27
497.09	416.62
497.26	418.96
497.44	393.21
497.62	390.87
497.79	456.40
497.97	486.83
498.14	365.12
498.32	379.17
498.50	369.80
498.67	407.25
498.85	367.46
499.03	348.74
499.20	407.25
499.38	430.66
499.56	437.68
499.73	444.70
499.91	421.30
500.08	435.34
500.26	397.89
500.44	395.55
500.61	395.55
500.79	428.32
500.97	435.34
501.14	365.12
501.32	444.70
501.49	416.62
501.67	425.98
501.84	433.00
502.02	421.30
502.20	435.34
502.37	355.76
502.55	425.98
502.72	358.10
502.90	414.27
503.07	430.66
503.25	484.49
503.43	369.80
503.60	428.32
503.78	500.87
503.95	416.62
504.13	381.51
504.30	456.40
504.48	395.55
504.65	425.98
504.83	365.12
505.01	458.74
505.18	409.59
505.36	454.06
505.53	388.53
505.71	416.62
505.88	416.62
506.06	299.59
506.23	482.15
506.41	379.17
506.58	402.57
506.76	386.19
506.93	339.38
507.11	428.32
507.28	386.19
507.46	376.83
507.63	475.13
507.81	423.64
507.98	444.70
508.16	400.23
508.33	416.62
508.50	369.80
508.68	369.80
508.85	404.91
509.03	390.87
509.20	395.55
509.38	353.42
509.55	486.83
509.73	388.53
509.90	472.79
510.08	393.21
510.25	421.30
510.42	348.74
510.60	383.85
510.77	325.33
510.95	428.32
511.12	430.66
511.30	348.74
511.47	402.57
511.64	423.64
511.82	468.11
511.99	339.38
512.17	428.32
512.34	381.51
512.51	449.38
512.69	404.91
512.86	470.45
513.04	395.55
513.21	376.83
513.38	425.98
513.56	447.04
513.73	414.27
513.90	461.09
514.08	496.19
514.25	393.21
514.43	355.76
514.60	447.04
514.77	400.23
514.95	390.87
515.12	348.74
515.29	388.53
515.47	348.74
515.64	470.45
515.81	444.70
515.99	447.04
516.16	472.79
516.33	397.89
516.51	458.74
516.68	433.00
516.85	393.21
517.03	437.68
517.20	447.04
517.37	423.64
517.54	381.51
517.72	400.23
517.89	355.76
518.06	407.25
518.24	505.56
518.41	505.56
518.58	425.98
518.75	496.19
518.93	472.79
519.10	416.62
519.27	421.30
519.45	416.62
519.62	388.53
519.79	393.21
519.96	449.38
520.14	435.34
520.31	475.13
520.48	430.66
520.65	440.02
520.83	447.04
521.00	433.00
521.17	498.53
521.34	355.76
521.52	423.64
521.69	435.34
521.86	463.43
522.03	437.68
522.20	411.93
522.38	414.27
522.55	437.68
522.72	411.93
522.89	414.27
523.07	477.47
523.24	400.23
523.41	381.51
523.58	451.72
523.75	414.27
523.92	407.25
524.10	451.72
524.27	442.36
524.44	395.55
524.61	465.77
524.78	395.55
524.96	449.38
525.13	402.57
525.30	395.55
525.47	442.36
525.64	421.30
525.81	418.96
525.98	428.32
526.16	411.93
526.33	421.30
526.50	430.66
526.67	421.30
526.84	414.27
527.01	390.87
527.18	390.87
527.36	437.68
527.53	461.09
527.70	454.06
527.87	393.21
528.04	360.44
528.21	435.34
528.38	379.17
528.55	404.91
528.72	430.66
528.89	507.90
529.07	414.27
529.24	397.89
529.41	423.64
529.58	421.30
529.75	482.15
529.92	407.25
530.09	435.34
530.26	416.62
530.43	400.23
530.60	341.72
530.77	451.72
530.94	409.59
531.11	496.19
531.28	411.93
531.46	458.74
531.63	376.83
531.80	475.13
531.97	428.32
532.14	369.80
532.31	456.40
532.48	451.72
532.65	465.77
532.82	367.46
532.99	360.44
533.16	414.27
533.33	463.43
533.50	437.68
533.67	372.15
533.84	440.02
534.01	479.81
534.18	468.11
534.35	435.34
534.52	423.64
534.69	428.32
534.86	402.57
535.03	416.62
535.20	482.15
535.37	414.27
535.54	442.36
535.71	447.04
535.88	383.85
536.05	433.00
536.22	461.09
536.38	400.23
536.55	383.85
536.72	425.98
536.89	418.96
537.06	451.72
537.23	397.89
537.40	369.80
537.57	397.89
537.74	418.96
537.91	465.77
538.08	390.87
538.25	416.62
538.42	376.83
538.59	416.62
538.75	388.53
538.92	421.30
539.09	456.40
539.26	440.02
539.43	454.06
539.60	444.70
539.77	409.59
539.94	458.74
540.11	407.25
540.28	409.59
540.44	465.77
540.61	409.59
540.78	449.38
540.95	372.15
541.12	381.51
541.29	388.53
541.46	484.49
541.62	411.93
541.79	393.21
541.96	437.68
542.13	379.17
542.30	454.06
542.47	442.36
542.63	365.12
542.80	440.02
542.97	472.79
543.14	374.49
543.31	437.68
543.48	440.02
543.64	421.30
543.81	454.06
543.98	421.30
544.15	372.15
544.32	458.74
544.48	404.91
544.65	435.34
544.82	423.64
544.99	383.85
545.16	395.55
545.32	435.34
545.49	383.85
545.66	491.51
545.83	395.55
546.00	409.59
546.16	411.93
546.33	348.74
546.50	447.04
546.67	468.11
546.83	442.36
547.00	428.32
547.17	461.09
547.34	435.34
547.50	428.32
547.67	435.34
547.84	447.04
548.00	386.19
548.17	433.00
548.34	465.77
548.51	404.91
548.67	454.06
548.84	418.96
549.01	416.62
549.18	393.21
549.34	496.19
549.51	470.45
549.68	461.09
549.84	437.68
550.01	423.64
550.18	442.36
550.34	442.36
550.51	479.81
550.68	395.55
550.84	381.51
551.01	454.06
551.18	358.10
551.34	449.38
551.51	433.00
551.68	376.83
551.84	442.36
552.01	386.19
552.18	482.15
552.34	414.27
552.51	456.40
552.68	444.70
552.84	442.36
553.01	411.93
553.18	416.62
553.34	451.72
553.51	372.15
553.67	440.02
553.84	447.04
554.01	402.57
554.17	418.96
554.34	421.30
554.51	386.19
554.67	397.89
554.84	433.00
555.00	388.53
555.17	383.85
555.33	423.64
555.50	458.74
555.67	421.30
555.83	372.15
556.00	395.55
556.16	550.03
556.33	461.09
556.50	428.32
556.66	404.91
556.83	407.25
556.99	465.77
557.16	416.62
557.32	383.85
557.49	334.70
557.65	430.66
557.82	454.06
557.98	379.17
558.15	456.40
558.32	416.62
558.48	465.77
558.65	416.62
558.81	498.53
558.98	435.34
559.14	428.32
559.31	440.02
559.47	440.02
559.64	421.30
559.80	372.15
559.97	440.02
560.13	458.74
560.30	470.45
560.46	444.70
560.63	400.23
560.79	381.51
560.96	421.30
561.12	475.13
561.29	437.68
561.45	393.21
561.61	437.68
561.78	484.49
561.94	461.09
562.11	372.15
562.27	442.36
562.44	458.74
562.60	430.66
562.77	444.70
562.93	414.27
563.10	402.57
563.26	407.25
563.42	489.17
563.59	451.72
563.75	397.89
563.92	440.02
564.08	390.87
564.24	414.27
564.41	421.30
564.57	468.11
564.74	400.23
564.90	407.25
565.07	475.13
565.23	386.19
565.39	491.51
565.56	430.66
565.72	367.46
565.88	407.25
566.05	404.91
566.21	444.70
566.38	423.64
566.54	423.64
566.70	416.62
566.87	386.19
567.03	402.57
567.19	437.68
567.36	433.00
567.52	461.09
567.68	409.59
567.85	484.49
568.01	421.30
568.17	383.85
568.34	489.17
568.50	465.77
568.66	400.23
568.83	477.47
568.99	416.62
569.15	449.38
569.32	428.32
569.48	423.64
569.64	402.57
569.81	468.11
569.97	482.15
570.13	418.96
570.30	393.21
570.46	393.21
570.62	435.34
570.78	355.76
570.95	388.53
571.11	533.64
571.27	500.87
571.43	409.59
571.60	400.23
571.76	421.30
571.92	360.44
572.09	404.91
572.25	397.89
572.41	503.22
572.57	360.44
572.74	470.45
572.90	390.87
573.06	437.68
573.22	374.49
573.38	404.91
573.55	414.27
573.71	461.09
573.87	475.13
574.03	358.10
574.20	407.25
574.36	465.77
574.52	414.27
574.68	358.10
574.84	414.27
575.01	376.83
575.17	372.15
575.33	393.21
575.49	491.51
575.65	440.02
575.82	475.13
575.98	386.19
576.14	454.06
576.30	388.53
576.46	468.11
576.62	456.40
576.79	379.17
576.95	486.83
577.11	414.27
577.27	435.34
577.43	379.17
577.59	442.36
577.75	421.30
577.92	456.40
578.08	430.66
578.24	369.80
578.40	388.53
578.56	456.40
578.72	442.36
578.88	454.06
579.04	390.87
579.21	421.30
579.37	507.90
579.53	472.79
579.69	430.66
579.85	402.57
580.01	411.93
580.17	411.93
580.33	402.57
580.49	477.47
580.65	440.02
580.82	468.11
580.98	418.96
581.14	421.30
581.30	498.53
581.46	409.59
581.62	451.72
581.78	369.80
581.94	435.34
582.10	379.17
582.26	390.87
582.42	505.56
582.58	393.21
582.74	423.64
582.90	425.98
583.06	454.06
583.22	386.19
583.38	372.15
583.54	386.19
583.70	521.94
583.86	376.83
584.02	414.27
584.18	435.34
584.34	435.34
584.50	433.00
584.66	395.55
584.82	418.96
584.98	477.47
585.14	393.21
585.30	454.06
585.46	416.62
585.62	430.66
585.78	393.21
585.94	400.23
586.10	449.38
586.26	362.78
586.42	524.28
586.58	463.43
586.74	440.02
586.90	409.59
587.06	468.11
587.22	383.85
587.38	365.12
587.54	411.93
587.70	416.62
587.86	402.57
588.02	430.66
588.18	409.59
588.34	479.81
588.49	376.83
588.65	440.02
588.81	418.96
588.97	381.51
589.13	407.25
589.29	369.80
589.45	416.62
589.61	374.49
589.77	435.34
589.93	409.59
590.08	465.77
590.24	437.68
590.40	433.00
590.56	386.19
590.72	475.13
590.88	447.04
591.04	418.96
591.20	404.91
591.35	456.40
591.51	397.89
591.67	428.32
591.83	358.10
591.99	430.66
592.15	411.93
592.31	388.53
592.46	463.43
592.62	379.17
592.78	395.55
592.94	379.17
593.10	411.93
593.26	388.53
593.41	404.91
593.57	435.34
593.73	411.93
593.89	451.72
594.05	444.70
594.20	442.36
594.36	397.89
594.52	407.25
594.68	517.26
594.84	437.68
594.99	425.98
595.15	444.70
595.31	388.53
595.47	491.51
595.62	442.36
595.78	449.38
595.94	395.55
596.10	418.96
596.25	386.19
596.41	390.87
596.57	337.04
596.73	428.32
596.88	379.17
597.04	407.25
597.20	374.49
597.36	418.96
597.51	395.55
597.67	407.25
597.83	393.21
597.99	456.40
598.14	447.04
598.30	463.43
598.46	444.70
598.61	402.57
598.77	519.60
598.93	416.62
599.09	435.34
599.24	491.51
599.40	423.64
599.56	433.00
599.71	472.79
599.87	411.93
600.03	388.53
600.18	344.06
600.34	484.49
600.50	416.62
600.65	409.59
600.81	390.87
600.97	435.34
601.12	416.62
601.28	449.38
601.44	407.25
601.59	386.19
601.75	435.34
601.91	428.32
602.06	400.23
602.22	458.74
602.37	404.91
602.53	423.64
602.69	447.04
602.84	414.27
603.00	374.49
603.16	365.12
603.31	379.17
603.47	461.09
603.62	475.13
603.78	395.55
603.94	400.23
604.09	360.44
604.25	409.59
604.40	425.98
604.56	386.19
604.71	402.57
604.87	468.11
605.03	423.64
605.18	482.15
605.34	397.89
605.49	414.27
605.65	386.19
605.80	421.30
605.96	381.51
606.12	416.62
606.27	404.91
606.43	472.79
606.58	430.66
606.74	397.89
606.89	409.59
607.05	451.72
607.20	341.72
607.36	414.27
607.51	402.57
607.67	353.42
607.82	428.32
607.98	430.66
608.13	444.70
608.29	372.15
608.44	435.34
608.60	393.21
608.75	468.11
608.91	463.43
609.06	435.34
609.22	463.43
609.37	423.64
609.53	470.45
609.68	465.77
609.84	409.59
609.99	435.34
610.15	433.00
610.30	423.64
610.46	433.00
610.61	411.93
610.76	418.96
610.92	451.72
611.07	383.85
611.23	470.45
611.38	468.11
611.54	400.23
611.69	404.91
611.84	451.72
612.00	395.55
612.15	407.25
612.31	430.66
612.46	461.09
612.62	442.36
612.77	407.25
612.92	416.62
613.08	444.70
613.23	470.45
613.39	355.76
613.54	407.25
613.69	351.08
613.85	376.83
614.00	404.91
614.15	444.70
614.31	393.21
614.46	407.25
614.62	447.04
614.77	463.43
614.92	365.12
615.08	379.17
615.23	442.36
615.38	437.68
615.54	400.23
615.69	402.57
615.84	397.89
616.00	449.38
616.15	444.70
616.30	409.59
616.46	449.38
616.61	409.59
616.76	322.99
616.92	428.32
617.07	463.43
617.22	409.59
617.37	437.68
617.53	388.53
617.68	367.46
617.83	447.04
617.99	365.12
618.14	425.98
618.29	421.30
618.45	379.17
618.60	400.23
618.75	428.32
618.90	409.59
619.06	397.89
619.21	454.06
619.36	421.30
619.51	365.12
619.67	411.93
619.82	416.62
619.97	402.57
620.12	393.21
620.28	383.85
620.43	418.96
620.58	390.87
620.73	425.98
620.89	416.62
621.04	414.27
621.19	465.77
621.34	397.89
621.49	365.12
621.65	416.62
621.80	397.89
621.95	374.49
622.10	376.83
622.25	374.49
622.41	388.53
622.56	472.79
622.71	397.89
622.86	425.98
623.01	397.89
623.16	465.77
623.32	341.72
623.47	409.59
623.62	447.04
623.77	440.02
623.92	390.87
624.07	437.68
624.23	472.79
624.38	388.53
624.53	428.32
624.68	433.00
624.83	470.45
624.98	397.89
625.13	414.27
625.29	411.93
625.44	444.70
625.59	456.40
625.74	425.98
625.89	390.87
626.04	416.62
626.19	402.57
626.34	376.83
626.49	428.32
626.65	437.68
626.80	376.83
626.95	397.89
627.10	430.66
627.25	402.57
627.40	454.06
627.55	433.00
627.70	409.59
627.85	383.85
628.00	358.10
628.15	414.27
628.30	402.57
628.45	346.40
628.60	337.04
628.76	362.78
628.91	449.38
629.06	425.98
629.21	404.91
629.36	402.57
629.51	411.93
629.66	456.40
629.81	400.23
629.96	454.06
630.11	425.98
630.26	409.59
630.41	423.64
630.56	428.32
630.71	409.59
630.86	346.40
631.01	315.97
631.16	388.53
631.31	442.36
631.46	449.38
631.61	411.93
631.76	482.15
631.91	421.30
632.06	505.56
632.21	390.87
632.36	451.72
632.51	379.17
632.66	437.68
632.81	407.25
632.96	372.15
633.10	404.91
633.25	447.04
633.40	393.21
633.55	365.12
633.70	444.70
633.85	489.17
634.00	458.74
634.15	454.06
634.30	409.59
634.45	421.30
634.60	442.36
634.75	430.66
634.90	386.19
635.05	407.25
635.19	430.66
635.34	421.30
635.49	416.62
635.64	470.45
635.79	404.91
635.94	421.30
636.09	418.96
636.24	435.34
636.39	411.93
636.53	404.91
636.68	437.68
636.83	421.30
636.98	416.62
637.13	440.02
637.28	383.85
637.43	430.66
637.57	461.09
637.72	430.66
637.87	440.02
638.02	348.74
638.17	421.30
638.32	468.11
638.46	383.85
638.61	535.98
638.76	442.36
638.91	440.02
639.06	435.34
639.20	468.11
639.35	425.98
639.50	402.57
639.65	454.06
639.80	430.66
639.94	407.25
640.09	386.19
640.24	428.32
640.39	470.45
640.54	388.53
640.68	489.17
640.83	437.68
640.98	397.89
641.13	416.62
641.27	372.15
641.42	388.53
641.57	365.12
641.72	470.45
641.86	428.32
642.01	454.06
642.16	430.66
642.31	341.72
642.45	400.23
642.60	327.68
642.75	367.46
642.90	472.79
643.04	425.98
643.19	416.62
643.34	386.19
643.48	461.09
643.63	386.19
643.78	369.80
643.93	447.04
644.07	451.72
644.22	376.83
644.37	416.62
644.51	435.34
644.66	397.89
644.81	418.96
644.95	386.19
645.10	442.36
645.25	374.49
645.39	458.74
645.54	397.89
645.69	451.72
645.83	444.70
645.98	468.11
646.13	442.36
646.27	458.74
646.42	362.78
646.57	435.34
646.71	390.87
646.86	430.66
647.00	404.91
647.15	447.04
647.30	423.64
647.44	407.25
647.59	383.85
647.74	374.49
647.88	386.19
648.03	381.51
648.17	433.00
648.32	374.49
648.47	411.93
648.61	430.66
648.76	440.02
648.90	433.00
649.05	386.19
649.20	390.87
649.34	514.92
649.49	416.62
649.63	395.55
649.78	517.26
649.92	447.04
650.07	407.25
650.21	390.87
650.36	407.25
650.51	482.15
650.65	456.40
650.80	482.15
650.94	376.83
651.09	454.06
651.23	362.78
651.38	447.04
651.52	465.77
651.67	430.66
651.81	461.09
651.96	433.00
652.10	435.34
652.25	346.40
652.39	423.64
652.54	428.32
652.68	418.96
652.83	400.23
652.97	381.51
653.12	397.89
653.26	383.85
653.41	454.06
653.55	456.40
653.70	409.59
653.84	365.12
653.99	369.80
654.13	353.42
654.27	376.83
654.42	283.20
654.56	430.66
654.71	425.98
654.85	383.85
655.00	351.08
655.14	430.66
655.29	395.55
655.43	470.45
655.57	479.81
655.72	416.62
655.86	444.70
656.01	397.89
656.15	496.19
656.30	498.53
656.44	414.27
656.58	433.00
656.73	526.62
656.87	479.81
657.01	404.91
657.16	484.49
657.30	451.72
657.45	491.51
657.59	451.72
657.73	330.02
657.88	479.81
658.02	526.62
658.16	451.72
658.31	418.96
658.45	407.25
658.60	416.62
658.74	348.74
658.88	376.83
659.03	367.46
659.17	475.13
659.31	423.64
659.46	433.00
659.60	381.51
659.74	409.59
659.89	423.64
660.03	477.47
660.17	456.40
660.32	320.65
660.46	390.87
660.60	351.08
660.74	395.55
660.89	407.25
661.03	421.30
661.17	358.10
661.32	409.59
661.46	440.02
661.60	395.55
661.74	404.91
661.89	379.17
662.03	360.44
662.17	344.06
662.31	369.80
662.46	409.59
662.60	397.89
662.74	425.98
662.88	440.02
663.03	409.59
663.17	407.25
663.31	374.49
663.45	379.17
663.60	339.38
663.74	369.80
663.88	353.42
664.02	411.93
664.17	346.40
664.31	397.89
664.45	400.23
664.59	416.62
664.73	395.55
664.88	407.25
665.02	376.83
665.16	397.89
665.30	416.62
665.44	444.70
665.59	442.36
665.73	416.62
665.87	400.23
666.01	472.79
666.15	421.30
666.29	374.49
666.44	477.47
666.58	472.79
666.72	348.74
666.86	393.21
667.00	468.11
667.14	421.30
667.28	411.93
667.43	395.55
667.57	407.25
667.71	404.91
667.85	421.30
667.99	388.53
668.13	451.72
668.27	465.77
668.41	425.98
668.56	402.57
668.70	386.19
668.84	393.21
668.98	374.49
669.12	367.46
669.26	374.49
669.40	449.38
669.54	440.02
669.68	388.53
669.82	404.91
669.96	376.83
670.10	369.80
670.25	472.79
670.39	423.64
670.53	416.62
670.67	402.57
670.81	383.85
670.95	395.55
671.09	388.53
671.23	458.74
671.37	444.70
671.51	383.85
671.65	423.64
671.79	395.55
671.93	458.74
672.07	423.64
672.21	444.70
672.35	362.78
672.49	351.08
672.63	454.06
672.77	479.81
672.91	390.87
673.05	418.96
673.19	404.91
673.33	362.78
673.47	472.79
673.61	461.09
673.75	414.27
673.89	430.66
674.03	512.58
674.17	465.77
674.31	386.19
674.45	440.02
674.59	418.96
674.73	470.45
674.87	435.34
675.01	447.04
675.15	444.70
675.29	409.59
675.43	472.79
675.56	402.57
675.70	491.51
675.84	393.21
675.98	491.51
676.12	358.10
676.26	388.53
676.40	379.17
676.54	379.17
676.68	428.32
676.82	400.23
676.96	430.66
677.10	407.25
677.23	433.00
677.37	369.80
677.51	407.25
677.65	475.13
677.79	421.30
677.93	381.51
678.07	400.23
678.21	500.87
678.34	409.59
678.48	360.44
678.62	423.64
678.76	411.93
678.90	423.64
679.04	407.25
679.18	421.30
679.31	430.66
679.45	367.46
679.59	358.10
679.73	444.70
679.87	369.80
680.00	341.72
680.14	362.78
680.28	400.23
680.42	458.74
680.56	491.51
680.70	411.93
680.83	451.72
680.97	423.64
681.11	465.77
681.25	428.32
681.39	344.06
681.52	437.68
681.66	416.62
681.80	521.94
681.94	397.89
682.07	425.98
682.21	493.85
682.35	397.89
682.49	400.23
682.62	379.17
682.76	411.93
682.90	393.21
683.04	505.56
683.17	465.77
683.31	400.23
683.45	425.98
683.59	390.87
683.72	538.32
683.86	421.30
684.00	414.27
684.13	430.66
684.27	430.66
684.41	374.49
684.55	404.91
684.68	374.49
684.82	409.59
684.96	383.85
685.09	465.77
685.23	444.70
685.37	397.89
685.50	442.36
685.64	463.43
685.78	421.30
685.91	416.62
686.05	461.09
686.19	416.62
686.32	397.89
686.46	376.83
686.60	337.04
686.73	505.56
686.87	433.00
687.01	430.66
687.14	402.57
687.28	390.87
687.42	477.47
687.55	372.15
687.69	379.17
687.82	400.23
687.96	362.78
688.10	341.72
688.23	397.89
688.37	454.06
688.50	416.62
688.64	404.91
688.78	425.98
688.91	367.46
689.05	409.59
689.18	381.51
689.32	449.38
689.46	435.34
689.59	454.06
689.73	416.62
689.86	465.77
690.00	437.68
690.13	414.27
690.27	498.53
690.41	458.74
690.54	451.72
690.68	437.68
690.81	416.62
690.95	444.70
691.08	425.98
691.22	369.80
691.35	397.89
691.49	369.80
691.62	411.93
691.76	454.06
691.89	367.46
692.03	407.25
692.16	395.55
692.30	386.19
692.43	395.55
692.57	486.83
692.70	416.62
692.84	351.08
692.97	430.66
693.11	381.51
693.24	430.66
693.38	414.27
693.51	353.42
693.65	397.89
693.78	486.83
693.92	355.76
694.05	376.83
694.19	362.78
694.32	411.93
694.45	475.13
694.59	390.87
694.72	367.46
694.86	409.59
694.99	475.13
695.13	428.32
695.26	409.59
695.39	376.83
695.53	465.77
695.66	444.70
695.80	454.06
695.93	425.98
696.07	444.70
696.20	416.62
696.33	423.64
696.47	444.70
696.60	430.66
696.73	442.36
696.87	435.34
697.00	461.09
697.14	365.12
697.27	486.83
697.40	564.07
697.54	416.62
697.67	423.64
697.80	482.15
697.94	423.64
698.07	372.15
698.21	423.64
698.34	358.10
698.47	451.72
698.61	365.12
698.74	383.85
698.87	404.91
699.01	435.34
699.14	404.91
699.27	482.15
699.40	461.09
699.54	344.06
699.67	383.85
699.80	447.04
699.94	425.98
700.07	433.00
700.20	433.00
700.34	430.66
700.47	379.17
700.60	425.98
700.73	369.80
700.87	428.32
701.00	341.72
701.13	379.17
701.26	404.91
701.40	458.74
701.53	458.74
701.66	414.27
701.79	440.02
701.93	397.89
702.06	489.17
702.19	454.06
702.32	395.55
702.46	404.91
702.59	430.66
702.72	423.64
702.85	381.51
702.99	416.62
703.12	468.11
703.25	428.32
703.38	390.87
703.51	489.17
703.65	416.62
703.78	404.91
703.91	463.43
704.04	400.23
704.17	444.70
704.31	393.21
704.44	437.68
704.57	451.72
704.70	449.38
704.83	388.53
704.96	360.44
705.10	414.27
705.23	489.17
>>>>>End Processed Spectral Data<<<<<
