SpectraSuite Data File
++++++++++++++++++++++++++++++++++++
Date: Fri Oct 25 12:10:38 EDT 2013
User: price-jones
Dark Spectrum Present: No
Reference Spectrum Present: No
Number of Sampled Component Spectra: 1
Spectrometers: USB2+H05261
Integration Time (usec): 100000 (USB2+H05261)
Spectra Averaged: 1 (USB2+H05261)
Boxcar Smoothing: 0 (USB2+H05261)
Correct for Electrical Dark: No (USB2+H05261)
Strobe/Lamp Enabled: No (USB2+H05261)
Correct for Detector Non-linearity: No (USB2+H05261)
Correct for Stray Light: No (USB2+H05261)
Number of Pixels in Processed Spectrum: 2048
>>>>>Begin Processed Spectral Data<<<<<
365.73	346.40
365.92	346.40
366.12	346.40
366.32	234.05
366.52	280.86
366.72	236.39
366.91	217.67
367.11	313.63
367.31	180.22
367.51	229.37
367.70	229.37
367.90	227.03
368.10	264.48
368.30	283.20
368.49	224.69
368.69	271.50
368.89	227.03
369.09	241.08
369.28	220.01
369.48	313.63
369.68	287.89
369.87	294.91
370.07	332.36
370.27	365.12
370.47	362.78
370.66	344.06
370.86	322.99
371.06	390.87
371.25	388.53
371.45	315.97
371.65	367.46
371.84	351.08
372.04	348.74
372.24	322.99
372.44	407.25
372.63	397.89
372.83	400.23
373.03	433.00
373.22	430.66
373.42	449.38
373.62	369.80
373.81	428.32
374.01	454.06
374.21	425.98
374.40	409.59
374.60	397.89
374.79	360.44
374.99	418.96
375.19	421.30
375.38	390.87
375.58	463.43
375.78	454.06
375.97	421.30
376.17	470.45
376.37	374.49
376.56	468.11
376.76	315.97
376.95	444.70
377.15	369.80
377.35	479.81
377.54	444.70
377.74	428.32
377.93	416.62
378.13	421.30
378.33	440.02
378.52	425.98
378.72	447.04
378.91	348.74
379.11	414.27
379.31	440.02
379.50	379.17
379.70	353.42
379.89	430.66
380.09	346.40
380.28	388.53
380.48	425.98
380.68	360.44
380.87	393.21
381.07	416.62
381.26	346.40
381.46	388.53
381.65	423.64
381.85	400.23
382.04	402.57
382.24	397.89
382.43	418.96
382.63	353.42
382.83	437.68
383.02	339.38
383.22	440.02
383.41	332.36
383.61	395.55
383.80	482.15
384.00	416.62
384.19	367.46
384.39	369.80
384.58	423.64
384.78	463.43
384.97	409.59
385.17	372.15
385.36	348.74
385.56	407.25
385.75	416.62
385.95	449.38
386.14	393.21
386.34	390.87
386.53	362.78
386.72	440.02
386.92	444.70
387.11	414.27
387.31	440.02
387.50	362.78
387.70	344.06
387.89	367.46
388.09	388.53
388.28	344.06
388.48	362.78
388.67	421.30
388.86	407.25
389.06	351.08
389.25	456.40
389.45	388.53
389.64	402.57
389.84	383.85
390.03	395.55
390.22	402.57
390.42	390.87
390.61	414.27
390.81	451.72
391.00	355.76
391.19	400.23
391.39	428.32
391.58	451.72
391.78	428.32
391.97	418.96
392.16	341.72
392.36	400.23
392.55	486.83
392.75	379.17
392.94	311.29
393.13	393.21
393.33	383.85
393.52	400.23
393.71	411.93
393.91	400.23
394.10	379.17
394.29	421.30
394.49	360.44
394.68	372.15
394.88	437.68
395.07	447.04
395.26	435.34
395.46	388.53
395.65	430.66
395.84	400.23
396.04	430.66
396.23	442.36
396.42	409.59
396.62	458.74
396.81	386.19
397.00	400.23
397.19	344.06
397.39	388.53
397.58	397.89
397.77	388.53
397.97	381.51
398.16	421.30
398.35	400.23
398.55	372.15
398.74	386.19
398.93	358.10
399.12	411.93
399.32	475.13
399.51	351.08
399.70	404.91
399.90	435.34
400.09	376.83
400.28	440.02
400.47	379.17
400.67	421.30
400.86	451.72
401.05	435.34
401.24	421.30
401.44	414.27
401.63	451.72
401.82	400.23
402.01	334.70
402.21	428.32
402.40	407.25
402.59	362.78
402.78	411.93
402.97	379.17
403.17	409.59
403.36	451.72
403.55	386.19
403.74	381.51
403.93	353.42
404.13	437.68
404.32	386.19
404.51	418.96
404.70	369.80
404.89	414.27
405.09	402.57
405.28	449.38
405.47	379.17
405.66	465.77
405.85	454.06
406.05	475.13
406.24	353.42
406.43	435.34
406.62	411.93
406.81	411.93
407.00	440.02
407.20	365.12
407.39	409.59
407.58	449.38
407.77	428.32
407.96	381.51
408.15	372.15
408.34	430.66
408.54	423.64
408.73	360.44
408.92	400.23
409.11	397.89
409.30	416.62
409.49	374.49
409.68	374.49
409.87	451.72
410.07	369.80
410.26	416.62
410.45	374.49
410.64	341.72
410.83	418.96
411.02	397.89
411.21	346.40
411.40	414.27
411.59	351.08
411.78	355.76
411.98	418.96
412.17	388.53
412.36	418.96
412.55	482.15
412.74	397.89
412.93	465.77
413.12	388.53
413.31	435.34
413.50	365.12
413.69	421.30
413.88	407.25
414.07	362.78
414.26	376.83
414.45	421.30
414.64	414.27
414.83	379.17
415.02	447.04
415.22	421.30
415.41	479.81
415.60	421.30
415.79	379.17
415.98	393.21
416.17	423.64
416.36	393.21
416.55	454.06
416.74	416.62
416.93	400.23
417.12	428.32
417.31	379.17
417.50	355.76
417.69	463.43
417.88	411.93
418.07	407.25
418.26	374.49
418.45	418.96
418.64	421.30
418.83	358.10
419.02	397.89
419.21	430.66
419.39	374.49
419.58	346.40
419.77	428.32
419.96	433.00
420.15	423.64
420.34	360.44
420.53	454.06
420.72	425.98
420.91	390.87
421.10	472.79
421.29	362.78
421.48	400.23
421.67	423.64
421.86	322.99
422.05	400.23
422.24	348.74
422.43	451.72
422.61	407.25
422.80	353.42
422.99	386.19
423.18	411.93
423.37	435.34
423.56	421.30
423.75	442.36
423.94	400.23
424.13	353.42
424.32	456.40
424.50	397.89
424.69	414.27
424.88	447.04
425.07	374.49
425.26	468.11
425.45	421.30
425.64	390.87
425.83	362.78
426.01	360.44
426.20	435.34
426.39	330.02
426.58	428.32
426.77	365.12
426.96	435.34
427.15	447.04
427.33	395.55
427.52	416.62
427.71	423.64
427.90	372.15
428.09	367.46
428.28	362.78
428.46	456.40
428.65	449.38
428.84	369.80
429.03	418.96
429.22	369.80
429.40	404.91
429.59	449.38
429.78	404.91
429.97	451.72
430.16	430.66
430.34	397.89
430.53	397.89
430.72	386.19
430.91	423.64
431.10	440.02
431.28	442.36
431.47	414.27
431.66	463.43
431.85	421.30
432.03	379.17
432.22	479.81
432.41	451.72
432.60	407.25
432.79	397.89
432.97	421.30
433.16	444.70
433.35	423.64
433.54	383.85
433.72	421.30
433.91	454.06
434.10	369.80
434.28	355.76
434.47	421.30
434.66	442.36
434.85	409.59
435.03	411.93
435.22	458.74
435.41	444.70
435.59	404.91
435.78	360.44
435.97	388.53
436.16	440.02
436.34	449.38
436.53	463.43
436.72	409.59
436.90	397.89
437.09	454.06
437.28	411.93
437.46	381.51
437.65	393.21
437.84	418.96
438.02	477.47
438.21	400.23
438.40	454.06
438.58	400.23
438.77	477.47
438.96	442.36
439.14	374.49
439.33	416.62
439.52	383.85
439.70	428.32
439.89	444.70
440.08	360.44
440.26	433.00
440.45	414.27
440.63	388.53
440.82	409.59
441.01	416.62
441.19	433.00
441.38	388.53
441.57	362.78
441.75	409.59
441.94	447.04
442.12	451.72
442.31	383.85
442.50	425.98
442.68	404.91
442.87	376.83
443.05	411.93
443.24	381.51
443.43	365.12
443.61	411.93
443.80	451.72
443.98	287.89
444.17	440.02
444.35	454.06
444.54	353.42
444.73	360.44
444.91	433.00
445.10	315.97
445.28	308.95
445.47	444.70
445.65	395.55
445.84	351.08
446.02	376.83
446.21	454.06
446.39	470.45
446.58	416.62
446.77	383.85
446.95	458.74
447.14	430.66
447.32	388.53
447.51	433.00
447.69	400.23
447.88	447.04
448.06	421.30
448.25	397.89
448.43	369.80
448.62	374.49
448.80	435.34
448.99	397.89
449.17	435.34
449.36	400.23
449.54	372.15
449.73	379.17
449.91	416.62
450.10	390.87
450.28	503.22
450.46	493.85
450.65	383.85
450.83	390.87
451.02	414.27
451.20	418.96
451.39	395.55
451.57	407.25
451.76	397.89
451.94	461.09
452.13	461.09
452.31	416.62
452.49	407.25
452.68	393.21
452.86	423.64
453.05	411.93
453.23	433.00
453.42	372.15
453.60	404.91
453.78	435.34
453.97	468.11
454.15	425.98
454.34	400.23
454.52	388.53
454.70	421.30
454.89	395.55
455.07	437.68
455.26	440.02
455.44	337.04
455.62	400.23
455.81	379.17
455.99	411.93
456.17	393.21
456.36	449.38
456.54	444.70
456.73	339.38
456.91	395.55
457.09	498.53
457.28	456.40
457.46	390.87
457.64	444.70
457.83	409.59
458.01	339.38
458.19	414.27
458.38	383.85
458.56	341.72
458.74	442.36
458.93	418.96
459.11	451.72
459.29	381.51
459.48	442.36
459.66	456.40
459.84	433.00
460.03	477.47
460.21	390.87
460.39	411.93
460.57	456.40
460.76	348.74
460.94	381.51
461.12	449.38
461.31	440.02
461.49	411.93
461.67	414.27
461.85	407.25
462.04	418.96
462.22	683.44
462.40	390.87
462.59	386.19
462.77	421.30
462.95	465.77
463.13	409.59
463.32	477.47
463.50	444.70
463.68	369.80
463.86	444.70
464.05	451.72
464.23	418.96
464.41	418.96
464.59	409.59
464.78	423.64
464.96	379.17
465.14	374.49
465.32	433.00
465.50	430.66
465.69	379.17
465.87	390.87
466.05	416.62
466.23	362.78
466.41	430.66
466.60	440.02
466.78	348.74
466.96	477.47
467.14	376.83
467.32	402.57
467.51	388.53
467.69	383.85
467.87	416.62
468.05	400.23
468.23	437.68
468.41	433.00
468.60	442.36
468.78	463.43
468.96	505.56
469.14	456.40
469.32	341.72
469.50	423.64
469.69	444.70
469.87	400.23
470.05	449.38
470.23	402.57
470.41	437.68
470.59	423.64
470.77	456.40
470.95	456.40
471.14	414.27
471.32	449.38
471.50	355.76
471.68	369.80
471.86	425.98
472.04	430.66
472.22	484.49
472.40	400.23
472.58	416.62
472.77	374.49
472.95	416.62
473.13	421.30
473.31	404.91
473.49	409.59
473.67	376.83
473.85	400.23
474.03	418.96
474.21	411.93
474.39	512.58
474.57	500.87
474.75	433.00
474.93	411.93
475.12	381.51
475.30	468.11
475.48	465.77
475.66	341.72
475.84	507.90
476.02	418.96
476.20	400.23
476.38	463.43
476.56	449.38
476.74	411.93
476.92	355.76
477.10	477.47
477.28	425.98
477.46	386.19
477.64	482.15
477.82	353.42
478.00	407.25
478.18	367.46
478.36	451.72
478.54	388.53
478.72	402.57
478.90	463.43
479.08	425.98
479.26	463.43
479.44	369.80
479.62	362.78
479.80	428.32
479.98	423.64
480.16	367.46
480.34	428.32
480.52	465.77
480.70	315.97
480.88	428.32
481.06	395.55
481.24	351.08
481.41	351.08
481.59	337.04
481.77	393.21
481.95	442.36
482.13	402.57
482.31	381.51
482.49	376.83
482.67	376.83
482.85	390.87
483.03	372.15
483.21	386.19
483.39	428.32
483.57	395.55
483.74	444.70
483.92	423.64
484.10	423.64
484.28	461.09
484.46	503.22
484.64	390.87
484.82	435.34
485.00	461.09
485.18	479.81
485.35	390.87
485.53	315.97
485.71	454.06
485.89	362.78
486.07	390.87
486.25	521.94
486.43	444.70
486.61	411.93
486.78	454.06
486.96	400.23
487.14	491.51
487.32	402.57
487.50	386.19
487.68	421.30
487.85	374.49
488.03	376.83
488.21	496.19
488.39	416.62
488.57	477.47
488.75	435.34
488.92	521.94
489.10	440.02
489.28	423.64
489.46	353.42
489.64	388.53
489.81	468.11
489.99	465.77
490.17	379.17
490.35	470.45
490.53	470.45
490.70	409.59
490.88	421.30
491.06	390.87
491.24	404.91
491.41	451.72
491.59	397.89
491.77	435.34
491.95	404.91
492.13	395.55
492.30	386.19
492.48	475.13
492.66	465.77
492.84	435.34
493.01	388.53
493.19	376.83
493.37	337.04
493.54	425.98
493.72	414.27
493.90	482.15
494.08	484.49
494.25	433.00
494.43	381.51
494.61	425.98
494.79	468.11
494.96	386.19
495.14	423.64
495.32	369.80
495.49	390.87
495.67	390.87
495.85	365.12
496.02	404.91
496.20	414.27
496.38	418.96
496.55	395.55
496.73	416.62
496.91	395.55
497.09	437.68
497.26	320.65
497.44	400.23
497.62	386.19
497.79	395.55
497.97	386.19
498.14	395.55
498.32	433.00
498.50	407.25
498.67	470.45
498.85	414.27
499.03	400.23
499.20	308.95
499.38	397.89
499.56	383.85
499.73	435.34
499.91	386.19
500.08	411.93
500.26	435.34
500.44	435.34
500.61	447.04
500.79	456.40
500.97	409.59
501.14	458.74
501.32	437.68
501.49	425.98
501.67	470.45
501.84	465.77
502.02	369.80
502.20	465.77
502.37	400.23
502.55	409.59
502.72	440.02
502.90	444.70
503.07	440.02
503.25	421.30
503.43	430.66
503.60	397.89
503.78	367.46
503.95	433.00
504.13	381.51
504.30	440.02
504.48	503.22
504.65	484.49
504.83	454.06
505.01	418.96
505.18	409.59
505.36	360.44
505.53	400.23
505.71	463.43
505.88	379.17
506.06	397.89
506.23	379.17
506.41	414.27
506.58	458.74
506.76	407.25
506.93	386.19
507.11	304.27
507.28	400.23
507.46	418.96
507.63	409.59
507.81	358.10
507.98	456.40
508.16	444.70
508.33	465.77
508.50	411.93
508.68	433.00
508.85	397.89
509.03	447.04
509.20	367.46
509.38	372.15
509.55	461.09
509.73	402.57
509.90	407.25
510.08	390.87
510.25	386.19
510.42	381.51
510.60	407.25
510.77	388.53
510.95	365.12
511.12	463.43
511.30	402.57
511.47	418.96
511.64	414.27
511.82	395.55
511.99	351.08
512.17	348.74
512.34	414.27
512.51	475.13
512.69	395.55
512.86	503.22
513.04	372.15
513.21	386.19
513.38	332.36
513.56	367.46
513.73	360.44
513.90	372.15
514.08	397.89
514.25	411.93
514.43	414.27
514.60	369.80
514.77	390.87
514.95	409.59
515.12	369.80
515.29	425.98
515.47	404.91
515.64	346.40
515.81	409.59
515.99	402.57
516.16	461.09
516.33	423.64
516.51	437.68
516.68	379.17
516.85	367.46
517.03	454.06
517.20	381.51
517.37	463.43
517.54	348.74
517.72	461.09
517.89	454.06
518.06	435.34
518.24	402.57
518.41	458.74
518.58	409.59
518.75	367.46
518.93	383.85
519.10	440.02
519.27	416.62
519.45	416.62
519.62	390.87
519.79	383.85
519.96	416.62
520.14	348.74
520.31	397.89
520.48	409.59
520.65	407.25
520.83	435.34
521.00	411.93
521.17	369.80
521.34	430.66
521.52	482.15
521.69	416.62
521.86	367.46
522.03	386.19
522.20	463.43
522.38	447.04
522.55	411.93
522.72	400.23
522.89	463.43
523.07	489.17
523.24	369.80
523.41	395.55
523.58	418.96
523.75	379.17
523.92	388.53
524.10	379.17
524.27	393.21
524.44	444.70
524.61	463.43
524.78	388.53
524.96	484.49
525.13	411.93
525.30	416.62
525.47	421.30
525.64	400.23
525.81	409.59
525.98	402.57
526.16	414.27
526.33	367.46
526.50	374.49
526.67	393.21
526.84	390.87
527.01	395.55
527.18	360.44
527.36	409.59
527.53	425.98
527.70	451.72
527.87	428.32
528.04	521.94
528.21	454.06
528.38	433.00
528.55	400.23
528.72	465.77
528.89	465.77
529.07	475.13
529.24	407.25
529.41	381.51
529.58	414.27
529.75	440.02
529.92	423.64
530.09	425.98
530.26	447.04
530.43	393.21
530.60	449.38
530.77	425.98
530.94	489.17
531.11	440.02
531.28	465.77
531.46	409.59
531.63	456.40
531.80	437.68
531.97	369.80
532.14	388.53
532.31	418.96
532.48	400.23
532.65	386.19
532.82	447.04
532.99	386.19
533.16	362.78
533.33	423.64
533.50	437.68
533.67	369.80
533.84	463.43
534.01	425.98
534.18	472.79
534.35	468.11
534.52	461.09
534.69	409.59
534.86	393.21
535.03	376.83
535.20	325.33
535.37	379.17
535.54	360.44
535.71	397.89
535.88	407.25
536.05	468.11
536.22	479.81
536.38	421.30
536.55	475.13
536.72	491.51
536.89	407.25
537.06	409.59
537.23	379.17
537.40	435.34
537.57	416.62
537.74	430.66
537.91	407.25
538.08	423.64
538.25	409.59
538.42	332.36
538.59	418.96
538.75	433.00
538.92	411.93
539.09	411.93
539.26	404.91
539.43	458.74
539.60	449.38
539.77	447.04
539.94	409.59
540.11	451.72
540.28	475.13
540.44	458.74
540.61	425.98
540.78	435.34
540.95	402.57
541.12	421.30
541.29	404.91
541.46	425.98
541.62	369.80
541.79	376.83
541.96	475.13
542.13	430.66
542.30	486.83
542.47	440.02
542.63	451.72
542.80	421.30
542.97	421.30
543.14	376.83
543.31	440.02
543.48	433.00
543.64	388.53
543.81	475.13
543.98	407.25
544.15	416.62
544.32	442.36
544.48	409.59
544.65	423.64
544.82	407.25
544.99	353.42
545.16	395.55
545.32	428.32
545.49	475.13
545.66	454.06
545.83	386.19
546.00	372.15
546.16	404.91
546.33	428.32
546.50	461.09
546.67	433.00
546.83	437.68
547.00	400.23
547.17	447.04
547.34	381.51
547.50	416.62
547.67	334.70
547.84	428.32
548.00	447.04
548.17	395.55
548.34	477.47
548.51	454.06
548.67	454.06
548.84	418.96
549.01	379.17
549.18	416.62
549.34	369.80
549.51	435.34
549.68	372.15
549.84	449.38
550.01	430.66
550.18	503.22
550.34	468.11
550.51	421.30
550.68	421.30
550.84	447.04
551.01	425.98
551.18	355.76
551.34	416.62
551.51	472.79
551.68	461.09
551.84	447.04
552.01	397.89
552.18	477.47
552.34	472.79
552.51	402.57
552.68	451.72
552.84	411.93
553.01	402.57
553.18	479.81
553.34	400.23
553.51	421.30
553.67	470.45
553.84	416.62
554.01	484.49
554.17	416.62
554.34	400.23
554.51	442.36
554.67	479.81
554.84	397.89
555.00	423.64
555.17	423.64
555.33	449.38
555.50	395.55
555.67	388.53
555.83	435.34
556.00	337.04
556.16	517.26
556.33	547.69
556.50	430.66
556.66	458.74
556.83	411.93
556.99	421.30
557.16	397.89
557.32	393.21
557.49	397.89
557.65	451.72
557.82	414.27
557.98	435.34
558.15	362.78
558.32	423.64
558.48	388.53
558.65	423.64
558.81	409.59
558.98	428.32
559.14	440.02
559.31	411.93
559.47	435.34
559.64	425.98
559.80	435.34
559.97	388.53
560.13	463.43
560.30	395.55
560.46	404.91
560.63	318.31
560.79	381.51
560.96	320.65
561.12	470.45
561.29	376.83
561.45	395.55
561.61	425.98
561.78	489.17
561.94	421.30
562.11	482.15
562.27	470.45
562.44	404.91
562.60	465.77
562.77	447.04
562.93	512.58
563.10	447.04
563.26	341.72
563.42	425.98
563.59	433.00
563.75	433.00
563.92	468.11
564.08	339.38
564.24	458.74
564.41	447.04
564.57	407.25
564.74	400.23
564.90	418.96
565.07	451.72
565.23	437.68
565.39	365.12
565.56	437.68
565.72	442.36
565.88	489.17
566.05	404.91
566.21	395.55
566.38	449.38
566.54	400.23
566.70	425.98
566.87	437.68
567.03	388.53
567.19	414.27
567.36	428.32
567.52	409.59
567.68	411.93
567.85	533.64
568.01	425.98
568.17	390.87
568.34	430.66
568.50	458.74
568.66	379.17
568.83	507.90
568.99	390.87
569.15	477.47
569.32	409.59
569.48	425.98
569.64	411.93
569.81	388.53
569.97	442.36
570.13	318.31
570.30	409.59
570.46	400.23
570.62	447.04
570.78	379.17
570.95	390.87
571.11	430.66
571.27	437.68
571.43	388.53
571.60	381.51
571.76	430.66
571.92	404.91
572.09	458.74
572.25	423.64
572.41	458.74
572.57	451.72
572.74	421.30
572.90	421.30
573.06	444.70
573.22	395.55
573.38	454.06
573.55	482.15
573.71	374.49
573.87	435.34
574.03	421.30
574.20	365.12
574.36	442.36
574.52	376.83
574.68	395.55
574.84	402.57
575.01	402.57
575.17	491.51
575.33	435.34
575.49	470.45
575.65	430.66
575.82	437.68
575.98	505.56
576.14	465.77
576.30	461.09
576.46	496.19
576.62	430.66
576.79	390.87
576.95	493.85
577.11	369.80
577.27	414.27
577.43	430.66
577.59	461.09
577.75	435.34
577.92	414.27
578.08	484.49
578.24	435.34
578.40	435.34
578.56	402.57
578.72	468.11
578.88	351.08
579.04	376.83
579.21	477.47
579.37	411.93
579.53	388.53
579.69	369.80
579.85	362.78
580.01	430.66
580.17	468.11
580.33	482.15
580.49	468.11
580.65	397.89
580.82	409.59
580.98	428.32
581.14	421.30
581.30	400.23
581.46	477.47
581.62	437.68
581.78	458.74
581.94	468.11
582.10	315.97
582.26	447.04
582.42	402.57
582.58	428.32
582.74	376.83
582.90	479.81
583.06	496.19
583.22	393.21
583.38	407.25
583.54	362.78
583.70	437.68
583.86	447.04
584.02	425.98
584.18	400.23
584.34	374.49
584.50	430.66
584.66	360.44
584.82	402.57
584.98	435.34
585.14	360.44
585.30	454.06
585.46	344.06
585.62	400.23
585.78	447.04
585.94	479.81
586.10	428.32
586.26	486.83
586.42	449.38
586.58	409.59
586.74	454.06
586.90	465.77
587.06	486.83
587.22	374.49
587.38	339.38
587.54	404.91
587.70	437.68
587.86	437.68
588.02	348.74
588.18	423.64
588.34	428.32
588.49	376.83
588.65	428.32
588.81	423.64
588.97	397.89
589.13	423.64
589.29	442.36
589.45	409.59
589.61	447.04
589.77	411.93
589.93	433.00
590.08	332.36
590.24	437.68
590.40	369.80
590.56	458.74
590.72	440.02
590.88	451.72
591.04	468.11
591.20	390.87
591.35	479.81
591.51	428.32
591.67	351.08
591.83	327.68
591.99	454.06
592.15	440.02
592.31	416.62
592.46	416.62
592.62	402.57
592.78	339.38
592.94	334.70
593.10	458.74
593.26	362.78
593.41	435.34
593.57	425.98
593.73	407.25
593.89	428.32
594.05	367.46
594.20	435.34
594.36	440.02
594.52	440.02
594.68	379.17
594.84	397.89
594.99	456.40
595.15	430.66
595.31	437.68
595.47	430.66
595.62	358.10
595.78	435.34
595.94	339.38
596.10	468.11
596.25	390.87
596.41	440.02
596.57	395.55
596.73	411.93
596.88	383.85
597.04	491.51
597.20	442.36
597.36	400.23
597.51	428.32
597.67	411.93
597.83	360.44
597.99	367.46
598.14	402.57
598.30	416.62
598.46	402.57
598.61	433.00
598.77	447.04
598.93	376.83
599.09	383.85
599.24	379.17
599.40	503.22
599.56	447.04
599.71	484.49
599.87	479.81
600.03	383.85
600.18	447.04
600.34	489.17
600.50	402.57
600.65	458.74
600.81	411.93
600.97	475.13
601.12	388.53
601.28	402.57
601.44	437.68
601.59	383.85
601.75	416.62
601.91	414.27
602.06	397.89
602.22	484.49
602.37	425.98
602.53	418.96
602.69	470.45
602.84	430.66
603.00	428.32
603.16	388.53
603.31	374.49
603.47	383.85
603.62	451.72
603.78	433.00
603.94	454.06
604.09	461.09
604.25	425.98
604.40	425.98
604.56	418.96
604.71	397.89
604.87	360.44
605.03	458.74
605.18	379.17
605.34	390.87
605.49	386.19
605.65	404.91
605.80	491.51
605.96	475.13
606.12	442.36
606.27	397.89
606.43	409.59
606.58	468.11
606.74	411.93
606.89	325.33
607.05	468.11
607.20	416.62
607.36	409.59
607.51	472.79
607.67	393.21
607.82	339.38
607.98	400.23
608.13	472.79
608.29	433.00
608.44	418.96
608.60	397.89
608.75	435.34
608.91	458.74
609.06	470.45
609.22	458.74
609.37	365.12
609.53	365.12
609.68	381.51
609.84	393.21
609.99	437.68
610.15	470.45
610.30	390.87
610.46	510.24
610.61	423.64
610.76	463.43
610.92	430.66
611.07	390.87
611.23	421.30
611.38	409.59
611.54	503.22
611.69	374.49
611.84	376.83
612.00	369.80
612.15	482.15
612.31	456.40
612.46	449.38
612.62	355.76
612.77	484.49
612.92	442.36
613.08	437.68
613.23	421.30
613.39	388.53
613.54	416.62
613.69	489.17
613.85	433.00
614.00	414.27
614.15	395.55
614.31	402.57
614.46	423.64
614.62	400.23
614.77	430.66
614.92	421.30
615.08	388.53
615.23	414.27
615.38	503.22
615.54	433.00
615.69	379.17
615.84	402.57
616.00	390.87
616.15	397.89
616.30	372.15
616.46	447.04
616.61	428.32
616.76	414.27
616.92	402.57
617.07	395.55
617.22	383.85
617.37	346.40
617.53	475.13
617.68	407.25
617.83	505.56
617.99	411.93
618.14	393.21
618.29	440.02
618.45	372.15
618.60	416.62
618.75	400.23
618.90	386.19
619.06	404.91
619.21	454.06
619.36	425.98
619.51	404.91
619.67	447.04
619.82	470.45
619.97	414.27
620.12	388.53
620.28	430.66
620.43	353.42
620.58	465.77
620.73	463.43
620.89	402.57
621.04	400.23
621.19	484.49
621.34	376.83
621.49	440.02
621.65	433.00
621.80	390.87
621.95	428.32
622.10	428.32
622.25	388.53
622.41	390.87
622.56	388.53
622.71	437.68
622.86	444.70
623.01	379.17
623.16	421.30
623.32	454.06
623.47	402.57
623.62	388.53
623.77	451.72
623.92	449.38
624.07	404.91
624.23	355.76
624.38	416.62
624.53	388.53
624.68	475.13
624.83	444.70
624.98	440.02
625.13	360.44
625.29	334.70
625.44	365.12
625.59	493.85
625.74	433.00
625.89	479.81
626.04	395.55
626.19	447.04
626.34	365.12
626.49	458.74
626.65	325.33
626.80	404.91
626.95	435.34
627.10	428.32
627.25	407.25
627.40	393.21
627.55	383.85
627.70	411.93
627.85	454.06
628.00	348.74
628.15	386.19
628.30	383.85
628.45	362.78
628.60	358.10
628.76	463.43
628.91	458.74
629.06	423.64
629.21	444.70
629.36	433.00
629.51	372.15
629.66	468.11
629.81	489.17
629.96	447.04
630.11	449.38
630.26	421.30
630.41	374.49
630.56	348.74
630.71	404.91
630.86	348.74
631.01	411.93
631.16	454.06
631.31	386.19
631.46	461.09
631.61	479.81
631.76	447.04
631.91	409.59
632.06	442.36
632.21	447.04
632.36	416.62
632.51	407.25
632.66	451.72
632.81	468.11
632.96	367.46
633.10	425.98
633.25	496.19
633.40	472.79
633.55	447.04
633.70	470.45
633.85	456.40
634.00	433.00
634.15	397.89
634.30	372.15
634.45	470.45
634.60	444.70
634.75	381.51
634.90	381.51
635.05	444.70
635.19	449.38
635.34	334.70
635.49	498.53
635.64	416.62
635.79	428.32
635.94	383.85
636.09	372.15
636.24	404.91
636.39	383.85
636.53	395.55
636.68	388.53
636.83	402.57
636.98	430.66
637.13	383.85
637.28	353.42
637.43	491.51
637.57	407.25
637.72	465.77
637.87	421.30
638.02	395.55
638.17	402.57
638.32	423.64
638.46	472.79
638.61	437.68
638.76	393.21
638.91	341.72
639.06	376.83
639.20	423.64
639.35	425.98
639.50	440.02
639.65	388.53
639.80	369.80
639.94	437.68
640.09	491.51
640.24	435.34
640.39	500.87
640.54	383.85
640.68	379.17
640.83	430.66
640.98	428.32
641.13	369.80
641.27	395.55
641.42	425.98
641.57	470.45
641.72	393.21
641.86	395.55
642.01	402.57
642.16	351.08
642.31	435.34
642.45	475.13
642.60	402.57
642.75	440.02
642.90	458.74
643.04	468.11
643.19	402.57
643.34	440.02
643.48	397.89
643.63	395.55
643.78	393.21
643.93	468.11
644.07	355.76
644.22	383.85
644.37	400.23
644.51	388.53
644.66	440.02
644.81	355.76
644.95	456.40
645.10	444.70
645.25	472.79
645.39	428.32
645.54	369.80
645.69	496.19
645.83	351.08
645.98	395.55
646.13	491.51
646.27	444.70
646.42	407.25
646.57	418.96
646.71	388.53
646.86	390.87
647.00	374.49
647.15	409.59
647.30	411.93
647.44	369.80
647.59	407.25
647.74	351.08
647.88	465.77
648.03	388.53
648.17	386.19
648.32	376.83
648.47	369.80
648.61	402.57
648.76	433.00
648.90	468.11
649.05	400.23
649.20	318.31
649.34	461.09
649.49	388.53
649.63	421.30
649.78	379.17
649.92	421.30
650.07	414.27
650.21	411.93
650.36	428.32
650.51	423.64
650.65	428.32
650.80	416.62
650.94	397.89
651.09	458.74
651.23	425.98
651.38	435.34
651.52	379.17
651.67	423.64
651.81	468.11
651.96	449.38
652.10	472.79
652.25	447.04
652.39	404.91
652.54	383.85
652.68	440.02
652.83	465.77
652.97	395.55
653.12	374.49
653.26	346.40
653.41	526.62
653.55	440.02
653.70	440.02
653.84	360.44
653.99	374.49
654.13	440.02
654.27	421.30
654.42	383.85
654.56	386.19
654.71	454.06
654.85	425.98
655.00	390.87
655.14	407.25
655.29	430.66
655.43	428.32
655.57	395.55
655.72	397.89
655.86	461.09
656.01	425.98
656.15	388.53
656.30	416.62
656.44	414.27
656.58	440.02
656.73	435.34
656.87	430.66
657.01	390.87
657.16	477.47
657.30	421.30
657.45	477.47
657.59	428.32
657.73	353.42
657.88	510.24
658.02	454.06
658.16	348.74
658.31	341.72
658.45	458.74
658.60	369.80
658.74	383.85
658.88	418.96
659.03	358.10
659.17	386.19
659.31	400.23
659.46	411.93
659.60	397.89
659.74	461.09
659.89	430.66
660.03	449.38
660.17	461.09
660.32	423.64
660.46	447.04
660.60	353.42
660.74	461.09
660.89	442.36
661.03	388.53
661.17	423.64
661.32	418.96
661.46	456.40
661.60	369.80
661.74	491.51
661.89	498.53
662.03	388.53
662.17	353.42
662.31	360.44
662.46	374.49
662.60	418.96
662.74	355.76
662.88	397.89
663.03	416.62
663.17	397.89
663.31	362.78
663.45	425.98
663.60	355.76
663.74	440.02
663.88	465.77
664.02	402.57
664.17	411.93
664.31	472.79
664.45	416.62
664.59	411.93
664.73	416.62
664.88	433.00
665.02	320.65
665.16	332.36
665.30	365.12
665.44	428.32
665.59	465.77
665.73	437.68
665.87	395.55
666.01	397.89
666.15	390.87
666.29	400.23
666.44	444.70
666.58	437.68
666.72	395.55
666.86	339.38
667.00	444.70
667.14	407.25
667.28	454.06
667.43	477.47
667.57	421.30
667.71	433.00
667.85	477.47
667.99	388.53
668.13	362.78
668.27	395.55
668.41	435.34
668.56	404.91
668.70	447.04
668.84	395.55
668.98	327.68
669.12	418.96
669.26	400.23
669.40	447.04
669.54	416.62
669.68	414.27
669.82	484.49
669.96	409.59
670.10	339.38
670.25	416.62
670.39	393.21
670.53	416.62
670.67	372.15
670.81	360.44
670.95	404.91
671.09	442.36
671.23	418.96
671.37	339.38
671.51	411.93
671.65	458.74
671.79	390.87
671.93	444.70
672.07	484.49
672.21	421.30
672.35	404.91
672.49	404.91
672.63	425.98
672.77	395.55
672.91	416.62
673.05	449.38
673.19	418.96
673.33	416.62
673.47	428.32
673.61	461.09
673.75	418.96
673.89	510.24
674.03	472.79
674.17	458.74
674.31	430.66
674.45	393.21
674.59	458.74
674.73	353.42
674.87	383.85
675.01	402.57
675.15	395.55
675.29	465.77
675.43	430.66
675.56	482.15
675.70	402.57
675.84	390.87
675.98	475.13
676.12	425.98
676.26	402.57
676.40	414.27
676.54	402.57
676.68	423.64
676.82	444.70
676.96	409.59
677.10	433.00
677.23	395.55
677.37	416.62
677.51	449.38
677.65	425.98
677.79	423.64
677.93	376.83
678.07	454.06
678.21	451.72
678.34	395.55
678.48	393.21
678.62	447.04
678.76	337.04
678.90	442.36
679.04	468.11
679.18	390.87
679.31	435.34
679.45	440.02
679.59	404.91
679.73	430.66
679.87	423.64
680.00	425.98
680.14	468.11
680.28	449.38
680.42	425.98
680.56	388.53
680.70	451.72
680.83	369.80
680.97	428.32
681.11	402.57
681.25	454.06
681.39	400.23
681.52	372.15
681.66	393.21
681.80	409.59
681.94	437.68
682.07	409.59
682.21	411.93
682.35	337.04
682.49	435.34
682.62	390.87
682.76	444.70
682.90	362.78
683.04	484.49
683.17	456.40
683.31	444.70
683.45	451.72
683.59	447.04
683.72	383.85
683.86	393.21
684.00	346.40
684.13	388.53
684.27	430.66
684.41	395.55
684.55	418.96
684.68	355.76
684.82	430.66
684.96	374.49
685.09	444.70
685.23	358.10
685.37	425.98
685.50	442.36
685.64	423.64
685.78	395.55
685.91	428.32
686.05	447.04
686.19	440.02
686.32	447.04
686.46	414.27
686.60	365.12
686.73	475.13
686.87	468.11
687.01	404.91
687.14	362.78
687.28	376.83
687.42	425.98
687.55	454.06
687.69	500.87
687.82	395.55
687.96	376.83
688.10	423.64
688.23	379.17
688.37	451.72
688.50	411.93
688.64	390.87
688.78	334.70
688.91	409.59
689.05	407.25
689.18	360.44
689.32	390.87
689.46	458.74
689.59	393.21
689.73	449.38
689.86	388.53
690.00	489.17
690.13	425.98
690.27	451.72
690.41	449.38
690.54	456.40
690.68	383.85
690.81	337.04
690.95	388.53
691.08	390.87
691.22	344.06
691.35	414.27
691.49	421.30
691.62	447.04
691.76	402.57
691.89	381.51
692.03	479.81
692.16	402.57
692.30	386.19
692.43	463.43
692.57	381.51
692.70	416.62
692.84	456.40
692.97	442.36
693.11	379.17
693.24	386.19
693.38	409.59
693.51	390.87
693.65	376.83
693.78	493.85
693.92	374.49
694.05	374.49
694.19	402.57
694.32	374.49
694.45	414.27
694.59	425.98
694.72	381.51
694.86	454.06
694.99	414.27
695.13	322.99
695.26	414.27
695.39	416.62
695.53	435.34
695.66	421.30
695.80	421.30
695.93	393.21
696.07	411.93
696.20	456.40
696.33	374.49
696.47	383.85
696.60	381.51
696.73	437.68
696.87	402.57
697.00	409.59
697.14	404.91
697.27	407.25
697.40	444.70
697.54	351.08
697.67	372.15
697.80	425.98
697.94	383.85
698.07	383.85
698.21	376.83
698.34	435.34
698.47	482.15
698.61	416.62
698.74	428.32
698.87	409.59
699.01	379.17
699.14	393.21
699.27	421.30
699.40	545.34
699.54	379.17
699.67	425.98
699.80	372.15
699.94	423.64
700.07	411.93
700.20	404.91
700.34	386.19
700.47	416.62
700.60	407.25
700.73	390.87
700.87	470.45
701.00	444.70
701.13	447.04
701.26	416.62
701.40	397.89
701.53	397.89
701.66	442.36
701.79	386.19
701.93	411.93
702.06	367.46
702.19	425.98
702.32	383.85
702.46	402.57
702.59	362.78
702.72	388.53
702.85	470.45
702.99	379.17
703.12	407.25
703.25	376.83
703.38	437.68
703.51	390.87
703.65	444.70
703.78	346.40
703.91	437.68
704.04	421.30
704.17	374.49
704.31	397.89
704.44	416.62
704.57	374.49
704.70	348.74
704.83	400.23
704.96	437.68
705.10	407.25
705.23	388.53
>>>>>End Processed Spectral Data<<<<<
