SpectraSuite Data File
++++++++++++++++++++++++++++++++++++
Date: Fri Oct 25 12:10:24 EDT 2013
User: price-jones
Dark Spectrum Present: No
Reference Spectrum Present: No
Number of Sampled Component Spectra: 1
Spectrometers: USB2+H05261
Integration Time (usec): 100000 (USB2+H05261)
Spectra Averaged: 1 (USB2+H05261)
Boxcar Smoothing: 0 (USB2+H05261)
Correct for Electrical Dark: No (USB2+H05261)
Strobe/Lamp Enabled: No (USB2+H05261)
Correct for Detector Non-linearity: No (USB2+H05261)
Correct for Stray Light: No (USB2+H05261)
Number of Pixels in Processed Spectrum: 2048
>>>>>Begin Processed Spectral Data<<<<<
365.73	322.99
365.92	322.99
366.12	322.99
366.32	227.03
366.52	259.80
366.72	313.63
366.91	198.95
367.11	198.95
367.31	248.10
367.51	191.92
367.70	191.92
367.90	266.82
368.10	231.71
368.30	248.10
368.49	241.08
368.69	271.50
368.89	252.78
369.09	266.82
369.28	348.74
369.48	306.61
369.68	313.63
369.87	264.48
370.07	287.89
370.27	372.15
370.47	332.36
370.66	287.89
370.86	346.40
371.06	381.51
371.25	341.72
371.45	334.70
371.65	379.17
371.84	297.25
372.04	383.85
372.24	390.87
372.44	348.74
372.63	339.38
372.83	388.53
373.03	404.91
373.22	416.62
373.42	423.64
373.62	362.78
373.81	365.12
374.01	477.47
374.21	386.19
374.40	379.17
374.60	491.51
374.79	367.46
374.99	388.53
375.19	414.27
375.38	430.66
375.58	393.21
375.78	430.66
375.97	393.21
376.17	526.62
376.37	353.42
376.56	454.06
376.76	318.31
376.95	425.98
377.15	402.57
377.35	437.68
377.54	402.57
377.74	475.13
377.93	397.89
378.13	472.79
378.33	470.45
378.52	362.78
378.72	400.23
378.91	407.25
379.11	365.12
379.31	362.78
379.50	360.44
379.70	409.59
379.89	461.09
380.09	393.21
380.28	409.59
380.48	456.40
380.68	367.46
380.87	404.91
381.07	393.21
381.26	404.91
381.46	348.74
381.65	437.68
381.85	407.25
382.04	400.23
382.24	360.44
382.43	320.65
382.63	386.19
382.83	362.78
383.02	416.62
383.22	379.17
383.41	470.45
383.61	379.17
383.80	379.17
384.00	416.62
384.19	489.17
384.39	339.38
384.58	400.23
384.78	437.68
384.97	416.62
385.17	454.06
385.36	442.36
385.56	440.02
385.75	470.45
385.95	299.59
386.14	407.25
386.34	395.55
386.53	400.23
386.72	390.87
386.92	393.21
387.11	367.46
387.31	339.38
387.50	388.53
387.70	325.33
387.89	402.57
388.09	512.58
388.28	250.44
388.48	400.23
388.67	362.78
388.86	409.59
389.06	407.25
389.25	423.64
389.45	390.87
389.64	376.83
389.84	400.23
390.03	423.64
390.22	468.11
390.42	447.04
390.61	388.53
390.81	409.59
391.00	489.17
391.19	435.34
391.39	402.57
391.58	395.55
391.78	482.15
391.97	395.55
392.16	379.17
392.36	372.15
392.55	440.02
392.75	468.11
392.94	421.30
393.13	402.57
393.33	388.53
393.52	400.23
393.71	425.98
393.91	416.62
394.10	430.66
394.29	423.64
394.49	393.21
394.68	442.36
394.88	425.98
395.07	449.38
395.26	367.46
395.46	374.49
395.65	437.68
395.84	423.64
396.04	547.69
396.23	458.74
396.42	362.78
396.62	376.83
396.81	365.12
397.00	360.44
397.19	346.40
397.39	400.23
397.58	416.62
397.77	465.77
397.97	407.25
398.16	411.93
398.35	482.15
398.55	407.25
398.74	411.93
398.93	416.62
399.12	390.87
399.32	409.59
399.51	360.44
399.70	456.40
399.90	379.17
400.09	442.36
400.28	414.27
400.47	386.19
400.67	346.40
400.86	404.91
401.05	393.21
401.24	400.23
401.44	442.36
401.63	411.93
401.82	423.64
402.01	395.55
402.21	416.62
402.40	339.38
402.59	414.27
402.78	362.78
402.97	388.53
403.17	395.55
403.36	372.15
403.55	311.29
403.74	400.23
403.93	435.34
404.13	475.13
404.32	400.23
404.51	397.89
404.70	416.62
404.89	409.59
405.09	393.21
405.28	369.80
405.47	430.66
405.66	379.17
405.85	423.64
406.05	355.76
406.24	437.68
406.43	456.40
406.62	400.23
406.81	477.47
407.00	421.30
407.20	428.32
407.39	425.98
407.58	393.21
407.77	428.32
407.96	379.17
408.15	440.02
408.34	395.55
408.54	393.21
408.73	365.12
408.92	353.42
409.11	351.08
409.30	444.70
409.49	386.19
409.68	402.57
409.87	411.93
410.07	374.49
410.26	367.46
410.45	376.83
410.64	407.25
410.83	416.62
411.02	407.25
411.21	421.30
411.40	526.62
411.59	411.93
411.78	421.30
411.98	447.04
412.17	397.89
412.36	437.68
412.55	372.15
412.74	367.46
412.93	442.36
413.12	372.15
413.31	381.51
413.50	388.53
413.69	320.65
413.88	388.53
414.07	400.23
414.26	393.21
414.45	402.57
414.64	372.15
414.83	447.04
415.02	423.64
415.22	393.21
415.41	470.45
415.60	397.89
415.79	456.40
415.98	393.21
416.17	435.34
416.36	381.51
416.55	381.51
416.74	339.38
416.93	397.89
417.12	332.36
417.31	390.87
417.50	397.89
417.69	465.77
417.88	447.04
418.07	383.85
418.26	348.74
418.45	440.02
418.64	465.77
418.83	425.98
419.02	409.59
419.21	463.43
419.39	440.02
419.58	411.93
419.77	351.08
419.96	414.27
420.15	463.43
420.34	402.57
420.53	425.98
420.72	416.62
420.91	383.85
421.10	444.70
421.29	437.68
421.48	414.27
421.67	423.64
421.86	435.34
422.05	390.87
422.24	372.15
422.43	411.93
422.61	400.23
422.80	383.85
422.99	395.55
423.18	411.93
423.37	440.02
423.56	430.66
423.75	430.66
423.94	411.93
424.13	379.17
424.32	435.34
424.50	386.19
424.69	430.66
424.88	444.70
425.07	435.34
425.26	440.02
425.45	489.17
425.64	383.85
425.83	447.04
426.01	395.55
426.20	463.43
426.39	409.59
426.58	390.87
426.77	407.25
426.96	449.38
427.15	397.89
427.33	400.23
427.52	449.38
427.71	425.98
427.90	425.98
428.09	404.91
428.28	386.19
428.46	423.64
428.65	421.30
428.84	393.21
429.03	351.08
429.22	454.06
429.40	360.44
429.59	383.85
429.78	451.72
429.97	404.91
430.16	339.38
430.34	409.59
430.53	409.59
430.72	430.66
430.91	468.11
431.10	454.06
431.28	390.87
431.47	425.98
431.66	463.43
431.85	442.36
432.03	351.08
432.22	414.27
432.41	416.62
432.60	451.72
432.79	344.06
432.97	449.38
433.16	383.85
433.35	339.38
433.54	402.57
433.72	470.45
433.91	402.57
434.10	435.34
434.28	472.79
434.47	456.40
434.66	367.46
434.85	397.89
435.03	437.68
435.22	351.08
435.41	376.83
435.59	425.98
435.78	411.93
435.97	383.85
436.16	447.04
436.34	407.25
436.53	435.34
436.72	465.77
436.90	379.17
437.09	437.68
437.28	414.27
437.46	418.96
437.65	451.72
437.84	411.93
438.02	379.17
438.21	486.83
438.40	409.59
438.58	421.30
438.77	425.98
438.96	430.66
439.14	442.36
439.33	376.83
439.52	444.70
439.70	428.32
439.89	404.91
440.08	428.32
440.26	339.38
440.45	369.80
440.63	402.57
440.82	358.10
441.01	390.87
441.19	458.74
441.38	404.91
441.57	397.89
441.75	404.91
441.94	421.30
442.12	430.66
442.31	369.80
442.50	433.00
442.68	400.23
442.87	404.91
443.05	423.64
443.24	407.25
443.43	374.49
443.61	383.85
443.80	423.64
443.98	416.62
444.17	383.85
444.35	421.30
444.54	416.62
444.73	404.91
444.91	407.25
445.10	344.06
445.28	376.83
445.47	465.77
445.65	449.38
445.84	337.04
446.02	435.34
446.21	400.23
446.39	407.25
446.58	461.09
446.77	414.27
446.95	433.00
447.14	435.34
447.32	461.09
447.51	351.08
447.69	449.38
447.88	461.09
448.06	517.26
448.25	493.85
448.43	400.23
448.62	407.25
448.80	496.19
448.99	433.00
449.17	402.57
449.36	435.34
449.54	442.36
449.73	423.64
449.91	479.81
450.10	395.55
450.28	454.06
450.46	425.98
450.65	402.57
450.83	472.79
451.02	430.66
451.20	351.08
451.39	451.72
451.57	531.30
451.76	374.49
451.94	388.53
452.13	475.13
452.31	433.00
452.49	395.55
452.68	358.10
452.86	411.93
453.05	402.57
453.23	355.76
453.42	334.70
453.60	437.68
453.78	365.12
453.97	395.55
454.15	428.32
454.34	428.32
454.52	433.00
454.70	463.43
454.89	472.79
455.07	409.59
455.26	390.87
455.44	386.19
455.62	402.57
455.81	454.06
455.99	425.98
456.17	409.59
456.36	421.30
456.54	365.12
456.73	421.30
456.91	416.62
457.09	425.98
457.28	454.06
457.46	379.17
457.64	503.22
457.83	425.98
458.01	404.91
458.19	374.49
458.38	400.23
458.56	376.83
458.74	369.80
458.93	372.15
459.11	461.09
459.29	465.77
459.48	435.34
459.66	484.49
459.84	414.27
460.03	496.19
460.21	381.51
460.39	365.12
460.57	486.83
460.76	421.30
460.94	458.74
461.12	479.81
461.31	416.62
461.49	437.68
461.67	411.93
461.85	395.55
462.04	404.91
462.22	739.61
462.40	421.30
462.59	383.85
462.77	425.98
462.95	479.81
463.13	332.36
463.32	435.34
463.50	383.85
463.68	409.59
463.86	449.38
464.05	397.89
464.23	440.02
464.41	418.96
464.59	383.85
464.78	369.80
464.96	440.02
465.14	325.33
465.32	440.02
465.50	409.59
465.69	437.68
465.87	425.98
466.05	365.12
466.23	428.32
466.41	411.93
466.60	437.68
466.78	458.74
466.96	440.02
467.14	440.02
467.32	416.62
467.51	435.34
467.69	374.49
467.87	414.27
468.05	358.10
468.23	461.09
468.41	416.62
468.60	348.74
468.78	416.62
468.96	397.89
469.14	444.70
469.32	334.70
469.50	397.89
469.69	451.72
469.87	381.51
470.05	435.34
470.23	440.02
470.41	383.85
470.59	423.64
470.77	486.83
470.95	435.34
471.14	425.98
471.32	355.76
471.50	416.62
471.68	379.17
471.86	428.32
472.04	463.43
472.22	411.93
472.40	451.72
472.58	470.45
472.77	360.44
472.95	374.49
473.13	477.47
473.31	428.32
473.49	409.59
473.67	402.57
473.85	463.43
474.03	442.36
474.21	325.33
474.39	369.80
474.57	397.89
474.75	486.83
474.93	402.57
475.12	461.09
475.30	440.02
475.48	414.27
475.66	395.55
475.84	449.38
476.02	418.96
476.20	528.96
476.38	433.00
476.56	397.89
476.74	435.34
476.92	395.55
477.10	353.42
477.28	451.72
477.46	447.04
477.64	411.93
477.82	470.45
478.00	433.00
478.18	423.64
478.36	383.85
478.54	388.53
478.72	404.91
478.90	365.12
479.08	407.25
479.26	390.87
479.44	463.43
479.62	407.25
479.80	435.34
479.98	397.89
480.16	381.51
480.34	461.09
480.52	372.15
480.70	358.10
480.88	430.66
481.06	402.57
481.24	404.91
481.41	400.23
481.59	447.04
481.77	411.93
481.95	374.49
482.13	381.51
482.31	414.27
482.49	430.66
482.67	397.89
482.85	393.21
483.03	397.89
483.21	411.93
483.39	428.32
483.57	404.91
483.74	416.62
483.92	414.27
484.10	472.79
484.28	423.64
484.46	404.91
484.64	383.85
484.82	472.79
485.00	374.49
485.18	435.34
485.35	458.74
485.53	386.19
485.71	416.62
485.89	383.85
486.07	372.15
486.25	484.49
486.43	477.47
486.61	411.93
486.78	395.55
486.96	386.19
487.14	379.17
487.32	435.34
487.50	388.53
487.68	418.96
487.85	416.62
488.03	425.98
488.21	451.72
488.39	463.43
488.57	444.70
488.75	414.27
488.92	451.72
489.10	428.32
489.28	517.26
489.46	423.64
489.64	332.36
489.81	437.68
489.99	407.25
490.17	425.98
490.35	486.83
490.53	409.59
490.70	409.59
490.88	425.98
491.06	428.32
491.24	407.25
491.41	374.49
491.59	454.06
491.77	388.53
491.95	416.62
492.13	360.44
492.30	414.27
492.48	393.21
492.66	440.02
492.84	421.30
493.01	447.04
493.19	430.66
493.37	428.32
493.54	423.64
493.72	400.23
493.90	397.89
494.08	374.49
494.25	442.36
494.43	435.34
494.61	365.12
494.79	416.62
494.96	411.93
495.14	395.55
495.32	402.57
495.49	409.59
495.67	482.15
495.85	390.87
496.02	397.89
496.20	409.59
496.38	355.76
496.55	376.83
496.73	482.15
496.91	381.51
497.09	496.19
497.26	411.93
497.44	440.02
497.62	437.68
497.79	493.85
497.97	468.11
498.14	414.27
498.32	444.70
498.50	409.59
498.67	416.62
498.85	423.64
499.03	458.74
499.20	367.46
499.38	404.91
499.56	402.57
499.73	411.93
499.91	463.43
500.08	407.25
500.26	388.53
500.44	409.59
500.61	388.53
500.79	442.36
500.97	423.64
501.14	397.89
501.32	447.04
501.49	433.00
501.67	390.87
501.84	472.79
502.02	393.21
502.20	447.04
502.37	411.93
502.55	388.53
502.72	451.72
502.90	430.66
503.07	477.47
503.25	442.36
503.43	358.10
503.60	400.23
503.78	428.32
503.95	400.23
504.13	409.59
504.30	402.57
504.48	454.06
504.65	451.72
504.83	390.87
505.01	402.57
505.18	479.81
505.36	416.62
505.53	390.87
505.71	381.51
505.88	374.49
506.06	463.43
506.23	386.19
506.41	418.96
506.58	393.21
506.76	447.04
506.93	421.30
507.11	430.66
507.28	402.57
507.46	414.27
507.63	456.40
507.81	383.85
507.98	381.51
508.16	423.64
508.33	402.57
508.50	421.30
508.68	369.80
508.85	358.10
509.03	348.74
509.20	472.79
509.38	397.89
509.55	397.89
509.73	428.32
509.90	468.11
510.08	351.08
510.25	369.80
510.42	421.30
510.60	428.32
510.77	447.04
510.95	444.70
511.12	332.36
511.30	475.13
511.47	402.57
511.64	421.30
511.82	344.06
511.99	423.64
512.17	365.12
512.34	423.64
512.51	362.78
512.69	390.87
512.86	358.10
513.04	442.36
513.21	447.04
513.38	416.62
513.56	421.30
513.73	402.57
513.90	358.10
514.08	386.19
514.25	393.21
514.43	458.74
514.60	409.59
514.77	437.68
514.95	365.12
515.12	388.53
515.29	458.74
515.47	402.57
515.64	435.34
515.81	386.19
515.99	383.85
516.16	437.68
516.33	428.32
516.51	409.59
516.68	428.32
516.85	344.06
517.03	458.74
517.20	437.68
517.37	430.66
517.54	404.91
517.72	369.80
517.89	395.55
518.06	372.15
518.24	374.49
518.41	486.83
518.58	383.85
518.75	393.21
518.93	442.36
519.10	428.32
519.27	423.64
519.45	367.46
519.62	416.62
519.79	355.76
519.96	402.57
520.14	381.51
520.31	425.98
520.48	435.34
520.65	414.27
520.83	433.00
521.00	386.19
521.17	383.85
521.34	404.91
521.52	477.47
521.69	472.79
521.86	433.00
522.03	479.81
522.20	409.59
522.38	306.61
522.55	402.57
522.72	304.27
522.89	482.15
523.07	557.05
523.24	484.49
523.41	376.83
523.58	402.57
523.75	503.22
523.92	386.19
524.10	374.49
524.27	381.51
524.44	425.98
524.61	428.32
524.78	390.87
524.96	407.25
525.13	414.27
525.30	402.57
525.47	337.04
525.64	454.06
525.81	393.21
525.98	437.68
526.16	402.57
526.33	458.74
526.50	465.77
526.67	386.19
526.84	395.55
527.01	395.55
527.18	435.34
527.36	376.83
527.53	362.78
527.70	367.46
527.87	325.33
528.04	444.70
528.21	428.32
528.38	381.51
528.55	472.79
528.72	397.89
528.89	395.55
529.07	402.57
529.24	341.72
529.41	418.96
529.58	423.64
529.75	414.27
529.92	409.59
530.09	360.44
530.26	437.68
530.43	449.38
530.60	425.98
530.77	383.85
530.94	397.89
531.11	411.93
531.28	409.59
531.46	395.55
531.63	409.59
531.80	468.11
531.97	376.83
532.14	454.06
532.31	451.72
532.48	505.56
532.65	379.17
532.82	402.57
532.99	346.40
533.16	381.51
533.33	440.02
533.50	442.36
533.67	491.51
533.84	355.76
534.01	344.06
534.18	435.34
534.35	461.09
534.52	433.00
534.69	402.57
534.86	390.87
535.03	379.17
535.20	435.34
535.37	433.00
535.54	435.34
535.71	390.87
535.88	468.11
536.05	362.78
536.22	386.19
536.38	430.66
536.55	458.74
536.72	425.98
536.89	484.49
537.06	479.81
537.23	440.02
537.40	484.49
537.57	367.46
537.74	454.06
537.91	407.25
538.08	425.98
538.25	430.66
538.42	414.27
538.59	346.40
538.75	517.26
538.92	395.55
539.09	435.34
539.26	458.74
539.43	404.91
539.60	341.72
539.77	423.64
539.94	414.27
540.11	386.19
540.28	414.27
540.44	367.46
540.61	379.17
540.78	386.19
540.95	318.31
541.12	433.00
541.29	447.04
541.46	463.43
541.62	428.32
541.79	423.64
541.96	451.72
542.13	407.25
542.30	416.62
542.47	374.49
542.63	470.45
542.80	484.49
542.97	374.49
543.14	414.27
543.31	411.93
543.48	386.19
543.64	428.32
543.81	418.96
543.98	423.64
544.15	374.49
544.32	381.51
544.48	411.93
544.65	369.80
544.82	421.30
544.99	388.53
545.16	461.09
545.32	376.83
545.49	472.79
545.66	400.23
545.83	414.27
546.00	456.40
546.16	365.12
546.33	369.80
546.50	409.59
546.67	440.02
546.83	442.36
547.00	437.68
547.17	454.06
547.34	386.19
547.50	341.72
547.67	454.06
547.84	397.89
548.00	367.46
548.17	369.80
548.34	435.34
548.51	433.00
548.67	381.51
548.84	355.76
549.01	414.27
549.18	388.53
549.34	390.87
549.51	428.32
549.68	484.49
549.84	383.85
550.01	491.51
550.18	514.92
550.34	468.11
550.51	397.89
550.68	437.68
550.84	470.45
551.01	430.66
551.18	397.89
551.34	360.44
551.51	458.74
551.68	433.00
551.84	458.74
552.01	388.53
552.18	400.23
552.34	393.21
552.51	383.85
552.68	458.74
552.84	430.66
553.01	447.04
553.18	447.04
553.34	498.53
553.51	402.57
553.67	390.87
553.84	449.38
554.01	402.57
554.17	386.19
554.34	404.91
554.51	404.91
554.67	475.13
554.84	458.74
555.00	390.87
555.17	365.12
555.33	477.47
555.50	440.02
555.67	404.91
555.83	444.70
556.00	444.70
556.16	526.62
556.33	416.62
556.50	456.40
556.66	404.91
556.83	404.91
556.99	386.19
557.16	376.83
557.32	451.72
557.49	365.12
557.65	369.80
557.82	414.27
557.98	353.42
558.15	386.19
558.32	442.36
558.48	400.23
558.65	428.32
558.81	458.74
558.98	440.02
559.14	379.17
559.31	463.43
559.47	418.96
559.64	433.00
559.80	442.36
559.97	430.66
560.13	491.51
560.30	369.80
560.46	386.19
560.63	390.87
560.79	390.87
560.96	463.43
561.12	458.74
561.29	447.04
561.45	454.06
561.61	449.38
561.78	484.49
561.94	355.76
562.11	383.85
562.27	390.87
562.44	362.78
562.60	433.00
562.77	496.19
562.93	489.17
563.10	386.19
563.26	367.46
563.42	395.55
563.59	379.17
563.75	402.57
563.92	498.53
564.08	440.02
564.24	390.87
564.41	477.47
564.57	418.96
564.74	376.83
564.90	400.23
565.07	435.34
565.23	447.04
565.39	442.36
565.56	374.49
565.72	351.08
565.88	322.99
566.05	376.83
566.21	358.10
566.38	428.32
566.54	442.36
566.70	435.34
566.87	388.53
567.03	400.23
567.19	479.81
567.36	423.64
567.52	341.72
567.68	447.04
567.85	437.68
568.01	465.77
568.17	393.21
568.34	418.96
568.50	416.62
568.66	386.19
568.83	425.98
568.99	444.70
569.15	442.36
569.32	397.89
569.48	449.38
569.64	334.70
569.81	442.36
569.97	447.04
570.13	390.87
570.30	437.68
570.46	425.98
570.62	381.51
570.78	381.51
570.95	383.85
571.11	425.98
571.27	454.06
571.43	358.10
571.60	430.66
571.76	386.19
571.92	414.27
572.09	404.91
572.25	425.98
572.41	402.57
572.57	416.62
572.74	421.30
572.90	475.13
573.06	430.66
573.22	388.53
573.38	411.93
573.55	409.59
573.71	447.04
573.87	430.66
574.03	404.91
574.20	397.89
574.36	348.74
574.52	379.17
574.68	454.06
574.84	433.00
575.01	430.66
575.17	418.96
575.33	475.13
575.49	484.49
575.65	503.22
575.82	470.45
575.98	444.70
576.14	458.74
576.30	409.59
576.46	397.89
576.62	425.98
576.79	475.13
576.95	442.36
577.11	332.36
577.27	330.02
577.43	458.74
577.59	451.72
577.75	479.81
577.92	447.04
578.08	430.66
578.24	425.98
578.40	479.81
578.56	395.55
578.72	447.04
578.88	468.11
579.04	376.83
579.21	442.36
579.37	425.98
579.53	390.87
579.69	442.36
579.85	383.85
580.01	428.32
580.17	360.44
580.33	379.17
580.49	416.62
580.65	442.36
580.82	397.89
580.98	393.21
581.14	418.96
581.30	456.40
581.46	379.17
581.62	451.72
581.78	355.76
581.94	416.62
582.10	339.38
582.26	374.49
582.42	456.40
582.58	390.87
582.74	454.06
582.90	425.98
583.06	421.30
583.22	369.80
583.38	475.13
583.54	397.89
583.70	407.25
583.86	348.74
584.02	435.34
584.18	433.00
584.34	400.23
584.50	332.36
584.66	416.62
584.82	421.30
584.98	411.93
585.14	456.40
585.30	463.43
585.46	463.43
585.62	379.17
585.78	344.06
585.94	454.06
586.10	404.91
586.26	416.62
586.42	531.30
586.58	444.70
586.74	397.89
586.90	383.85
587.06	435.34
587.22	425.98
587.38	461.09
587.54	437.68
587.70	407.25
587.86	477.47
588.02	393.21
588.18	374.49
588.34	379.17
588.49	355.76
588.65	362.78
588.81	416.62
588.97	435.34
589.13	451.72
589.29	440.02
589.45	491.51
589.61	411.93
589.77	475.13
589.93	374.49
590.08	440.02
590.24	440.02
590.40	395.55
590.56	425.98
590.72	409.59
590.88	325.33
591.04	451.72
591.20	449.38
591.35	376.83
591.51	425.98
591.67	400.23
591.83	381.51
591.99	444.70
592.15	475.13
592.31	337.04
592.46	400.23
592.62	355.76
592.78	400.23
592.94	355.76
593.10	407.25
593.26	372.15
593.41	346.40
593.57	409.59
593.73	418.96
593.89	461.09
594.05	411.93
594.20	442.36
594.36	393.21
594.52	437.68
594.68	374.49
594.84	395.55
594.99	440.02
595.15	475.13
595.31	451.72
595.47	461.09
595.62	365.12
595.78	407.25
595.94	416.62
596.10	465.77
596.25	458.74
596.41	444.70
596.57	465.77
596.73	442.36
596.88	365.12
597.04	447.04
597.20	440.02
597.36	400.23
597.51	454.06
597.67	400.23
597.83	397.89
597.99	414.27
598.14	468.11
598.30	454.06
598.46	374.49
598.61	395.55
598.77	440.02
598.93	418.96
599.09	447.04
599.24	404.91
599.40	447.04
599.56	418.96
599.71	386.19
599.87	383.85
600.03	358.10
600.18	447.04
600.34	430.66
600.50	395.55
600.65	388.53
600.81	388.53
600.97	416.62
601.12	465.77
601.28	458.74
601.44	423.64
601.59	428.32
601.75	423.64
601.91	418.96
602.06	402.57
602.22	484.49
602.37	461.09
602.53	393.21
602.69	447.04
602.84	442.36
603.00	409.59
603.16	437.68
603.31	388.53
603.47	447.04
603.62	437.68
603.78	477.47
603.94	390.87
604.09	372.15
604.25	449.38
604.40	447.04
604.56	388.53
604.71	465.77
604.87	374.49
605.03	423.64
605.18	374.49
605.34	440.02
605.49	367.46
605.65	416.62
605.80	341.72
605.96	435.34
606.12	440.02
606.27	435.34
606.43	428.32
606.58	456.40
606.74	383.85
606.89	423.64
607.05	489.17
607.20	400.23
607.36	428.32
607.51	486.83
607.67	425.98
607.82	404.91
607.98	425.98
608.13	435.34
608.29	346.40
608.44	472.79
608.60	433.00
608.75	418.96
608.91	435.34
609.06	433.00
609.22	472.79
609.37	339.38
609.53	400.23
609.68	369.80
609.84	393.21
609.99	388.53
610.15	416.62
610.30	383.85
610.46	409.59
610.61	442.36
610.76	411.93
610.92	435.34
611.07	334.70
611.23	447.04
611.38	367.46
611.54	404.91
611.69	400.23
611.84	301.93
612.00	332.36
612.15	442.36
612.31	442.36
612.46	435.34
612.62	386.19
612.77	404.91
612.92	402.57
613.08	444.70
613.23	461.09
613.39	414.27
613.54	454.06
613.69	383.85
613.85	407.25
614.00	433.00
614.15	484.49
614.31	416.62
614.46	362.78
614.62	475.13
614.77	493.85
614.92	381.51
615.08	404.91
615.23	454.06
615.38	458.74
615.54	404.91
615.69	451.72
615.84	353.42
616.00	442.36
616.15	365.12
616.30	393.21
616.46	404.91
616.61	348.74
616.76	358.10
616.92	463.43
617.07	444.70
617.22	440.02
617.37	435.34
617.53	461.09
617.68	442.36
617.83	379.17
617.99	505.56
618.14	421.30
618.29	444.70
618.45	407.25
618.60	435.34
618.75	358.10
618.90	360.44
619.06	416.62
619.21	456.40
619.36	430.66
619.51	435.34
619.67	402.57
619.82	304.27
619.97	381.51
620.12	376.83
620.28	360.44
620.43	369.80
620.58	374.49
620.73	433.00
620.89	388.53
621.04	416.62
621.19	468.11
621.34	418.96
621.49	346.40
621.65	381.51
621.80	418.96
621.95	503.22
622.10	425.98
622.25	327.68
622.41	390.87
622.56	425.98
622.71	383.85
622.86	440.02
623.01	416.62
623.16	423.64
623.32	388.53
623.47	437.68
623.62	367.46
623.77	372.15
623.92	409.59
624.07	458.74
624.23	374.49
624.38	393.21
624.53	428.32
624.68	444.70
624.83	433.00
624.98	477.47
625.13	402.57
625.29	437.68
625.44	337.04
625.59	454.06
625.74	500.87
625.89	388.53
626.04	402.57
626.19	414.27
626.34	402.57
626.49	458.74
626.65	430.66
626.80	395.55
626.95	374.49
627.10	430.66
627.25	411.93
627.40	397.89
627.55	510.24
627.70	372.15
627.85	421.30
628.00	358.10
628.15	435.34
628.30	463.43
628.45	470.45
628.60	430.66
628.76	409.59
628.91	362.78
629.06	440.02
629.21	381.51
629.36	512.58
629.51	423.64
629.66	449.38
629.81	465.77
629.96	358.10
630.11	407.25
630.26	404.91
630.41	369.80
630.56	388.53
630.71	400.23
630.86	390.87
631.01	348.74
631.16	400.23
631.31	402.57
631.46	414.27
631.61	411.93
631.76	428.32
631.91	444.70
632.06	486.83
632.21	414.27
632.36	461.09
632.51	500.87
632.66	437.68
632.81	372.15
632.96	346.40
633.10	407.25
633.25	454.06
633.40	393.21
633.55	447.04
633.70	451.72
633.85	482.15
634.00	404.91
634.15	479.81
634.30	428.32
634.45	367.46
634.60	444.70
634.75	386.19
634.90	341.72
635.05	306.61
635.19	393.21
635.34	320.65
635.49	423.64
635.64	437.68
635.79	362.78
635.94	449.38
636.09	411.93
636.24	376.83
636.39	390.87
636.53	402.57
636.68	437.68
636.83	440.02
636.98	374.49
637.13	404.91
637.28	379.17
637.43	456.40
637.57	414.27
637.72	435.34
637.87	402.57
638.02	358.10
638.17	390.87
638.32	444.70
638.46	362.78
638.61	435.34
638.76	456.40
638.91	456.40
639.06	383.85
639.20	379.17
639.35	444.70
639.50	411.93
639.65	454.06
639.80	447.04
639.94	449.38
640.09	482.15
640.24	381.51
640.39	388.53
640.54	379.17
640.68	372.15
640.83	353.42
640.98	348.74
641.13	423.64
641.27	397.89
641.42	456.40
641.57	414.27
641.72	397.89
641.86	437.68
642.01	341.72
642.16	390.87
642.31	386.19
642.45	414.27
642.60	444.70
642.75	353.42
642.90	365.12
643.04	344.06
643.19	402.57
643.34	440.02
643.48	388.53
643.63	379.17
643.78	397.89
643.93	416.62
644.07	447.04
644.22	423.64
644.37	428.32
644.51	414.27
644.66	409.59
644.81	386.19
644.95	451.72
645.10	344.06
645.25	418.96
645.39	477.47
645.54	451.72
645.69	484.49
645.83	400.23
645.98	486.83
646.13	404.91
646.27	468.11
646.42	330.02
646.57	456.40
646.71	397.89
646.86	491.51
647.00	428.32
647.15	390.87
647.30	451.72
647.44	435.34
647.59	449.38
647.74	381.51
647.88	430.66
648.03	402.57
648.17	409.59
648.32	428.32
648.47	395.55
648.61	425.98
648.76	433.00
648.90	372.15
649.05	428.32
649.20	355.76
649.34	442.36
649.49	383.85
649.63	456.40
649.78	418.96
649.92	479.81
650.07	411.93
650.21	393.21
650.36	318.31
650.51	414.27
650.65	451.72
650.80	411.93
650.94	484.49
651.09	383.85
651.23	435.34
651.38	365.12
651.52	393.21
651.67	402.57
651.81	395.55
651.96	416.62
652.10	451.72
652.25	477.47
652.39	409.59
652.54	409.59
652.68	369.80
652.83	390.87
652.97	337.04
653.12	386.19
653.26	379.17
653.41	421.30
653.55	461.09
653.70	390.87
653.84	421.30
653.99	362.78
654.13	365.12
654.27	393.21
654.42	414.27
654.56	400.23
654.71	418.96
654.85	400.23
655.00	372.15
655.14	458.74
655.29	423.64
655.43	440.02
655.57	407.25
655.72	416.62
655.86	400.23
656.01	416.62
656.15	458.74
656.30	437.68
656.44	393.21
656.58	393.21
656.73	479.81
656.87	388.53
657.01	447.04
657.16	461.09
657.30	414.27
657.45	383.85
657.59	369.80
657.73	416.62
657.88	383.85
658.02	470.45
658.16	440.02
658.31	409.59
658.45	411.93
658.60	433.00
658.74	360.44
658.88	402.57
659.03	411.93
659.17	376.83
659.31	362.78
659.46	411.93
659.60	402.57
659.74	388.53
659.89	414.27
660.03	372.15
660.17	533.64
660.32	437.68
660.46	407.25
660.60	393.21
660.74	388.53
660.89	400.23
661.03	374.49
661.17	461.09
661.32	388.53
661.46	418.96
661.60	428.32
661.74	400.23
661.89	393.21
662.03	360.44
662.17	456.40
662.31	484.49
662.46	458.74
662.60	414.27
662.74	409.59
662.88	437.68
663.03	447.04
663.17	353.42
663.31	416.62
663.45	414.27
663.60	386.19
663.74	395.55
663.88	416.62
664.02	425.98
664.17	418.96
664.31	383.85
664.45	418.96
664.59	425.98
664.73	428.32
664.88	381.51
665.02	365.12
665.16	365.12
665.30	521.94
665.44	407.25
665.59	524.28
665.73	449.38
665.87	400.23
666.01	461.09
666.15	332.36
666.29	379.17
666.44	449.38
666.58	430.66
666.72	390.87
666.86	393.21
667.00	400.23
667.14	444.70
667.28	440.02
667.43	388.53
667.57	386.19
667.71	414.27
667.85	411.93
667.99	379.17
668.13	388.53
668.27	418.96
668.41	449.38
668.56	372.15
668.70	486.83
668.84	463.43
668.98	383.85
669.12	423.64
669.26	374.49
669.40	428.32
669.54	388.53
669.68	423.64
669.82	290.23
669.96	367.46
670.10	414.27
670.25	428.32
670.39	402.57
670.53	393.21
670.67	390.87
670.81	449.38
670.95	477.47
671.09	447.04
671.23	493.85
671.37	409.59
671.51	409.59
671.65	463.43
671.79	386.19
671.93	416.62
672.07	465.77
672.21	423.64
672.35	416.62
672.49	491.51
672.63	489.17
672.77	440.02
672.91	418.96
673.05	409.59
673.19	449.38
673.33	402.57
673.47	416.62
673.61	381.51
673.75	503.22
673.89	404.91
674.03	416.62
674.17	360.44
674.31	437.68
674.45	374.49
674.59	421.30
674.73	362.78
674.87	421.30
675.01	451.72
675.15	463.43
675.29	414.27
675.43	444.70
675.56	463.43
675.70	512.58
675.84	407.25
675.98	400.23
676.12	425.98
676.26	393.21
676.40	437.68
676.54	470.45
676.68	407.25
676.82	435.34
676.96	451.72
677.10	414.27
677.23	395.55
677.37	344.06
677.51	332.36
677.65	496.19
677.79	360.44
677.93	442.36
678.07	440.02
678.21	428.32
678.34	407.25
678.48	433.00
678.62	416.62
678.76	383.85
678.90	369.80
679.04	440.02
679.18	397.89
679.31	388.53
679.45	411.93
679.59	348.74
679.73	421.30
679.87	447.04
680.00	430.66
680.14	372.15
680.28	421.30
680.42	433.00
680.56	437.68
680.70	414.27
680.83	411.93
680.97	388.53
681.11	423.64
681.25	421.30
681.39	428.32
681.52	479.81
681.66	381.51
681.80	468.11
681.94	428.32
682.07	404.91
682.21	477.47
682.35	379.17
682.49	402.57
682.62	421.30
682.76	433.00
682.90	400.23
683.04	458.74
683.17	440.02
683.31	428.32
683.45	428.32
683.59	423.64
683.72	418.96
683.86	381.51
684.00	423.64
684.13	491.51
684.27	379.17
684.41	400.23
684.55	454.06
684.68	341.72
684.82	397.89
684.96	477.47
685.09	442.36
685.23	369.80
685.37	409.59
685.50	409.59
685.64	374.49
685.78	451.72
685.91	440.02
686.05	421.30
686.19	468.11
686.32	390.87
686.46	390.87
686.60	397.89
686.73	449.38
686.87	519.60
687.01	404.91
687.14	353.42
687.28	456.40
687.42	414.27
687.55	395.55
687.69	456.40
687.82	330.02
687.96	393.21
688.10	440.02
688.23	425.98
688.37	414.27
688.50	360.44
688.64	411.93
688.78	411.93
688.91	428.32
689.05	416.62
689.18	383.85
689.32	435.34
689.46	365.12
689.59	421.30
689.73	458.74
689.86	437.68
690.00	376.83
690.13	418.96
690.27	383.85
690.41	397.89
690.54	362.78
690.68	397.89
690.81	360.44
690.95	367.46
691.08	390.87
691.22	484.49
691.35	332.36
691.49	437.68
691.62	355.76
691.76	437.68
691.89	482.15
692.03	383.85
692.16	416.62
692.30	393.21
692.43	383.85
692.57	388.53
692.70	318.31
692.84	411.93
692.97	409.59
693.11	379.17
693.24	430.66
693.38	475.13
693.51	386.19
693.65	390.87
693.78	374.49
693.92	390.87
694.05	456.40
694.19	463.43
694.32	430.66
694.45	388.53
694.59	355.76
694.72	433.00
694.86	351.08
694.99	418.96
695.13	386.19
695.26	437.68
695.39	451.72
695.53	454.06
695.66	362.78
695.80	430.66
695.93	440.02
696.07	456.40
696.20	414.27
696.33	437.68
696.47	341.72
696.60	430.66
696.73	409.59
696.87	348.74
697.00	475.13
697.14	517.26
697.27	367.46
697.40	491.51
697.54	344.06
697.67	369.80
697.80	440.02
697.94	411.93
698.07	390.87
698.21	475.13
698.34	372.15
698.47	437.68
698.61	374.49
698.74	444.70
698.87	400.23
699.01	407.25
699.14	386.19
699.27	407.25
699.40	543.00
699.54	421.30
699.67	465.77
699.80	416.62
699.94	440.02
700.07	407.25
700.20	451.72
700.34	383.85
700.47	369.80
700.60	388.53
700.73	409.59
700.87	465.77
701.00	390.87
701.13	437.68
701.26	369.80
701.40	428.32
701.53	435.34
701.66	358.10
701.79	390.87
701.93	388.53
702.06	477.47
702.19	407.25
702.32	461.09
702.46	379.17
702.59	428.32
702.72	388.53
702.85	360.44
702.99	339.38
703.12	395.55
703.25	360.44
703.38	360.44
703.51	437.68
703.65	283.20
703.78	449.38
703.91	496.19
704.04	407.25
704.17	381.51
704.31	337.04
704.44	470.45
704.57	395.55
704.70	390.87
704.83	463.43
704.96	416.62
705.10	444.70
705.23	423.64
>>>>>End Processed Spectral Data<<<<<
