SpectraSuite Data File
++++++++++++++++++++++++++++++++++++
Date: Fri Oct 25 12:10:08 EDT 2013
User: price-jones
Dark Spectrum Present: No
Reference Spectrum Present: No
Number of Sampled Component Spectra: 1
Spectrometers: USB2+H05261
Integration Time (usec): 100000 (USB2+H05261)
Spectra Averaged: 1 (USB2+H05261)
Boxcar Smoothing: 0 (USB2+H05261)
Correct for Electrical Dark: No (USB2+H05261)
Strobe/Lamp Enabled: No (USB2+H05261)
Correct for Detector Non-linearity: No (USB2+H05261)
Correct for Stray Light: No (USB2+H05261)
Number of Pixels in Processed Spectrum: 2048
>>>>>Begin Processed Spectral Data<<<<<
365.73	308.95
365.92	308.95
366.12	308.95
366.32	299.59
366.52	234.05
366.72	306.61
366.91	283.20
367.11	156.82
367.31	208.31
367.51	198.95
367.70	222.35
367.90	222.35
368.10	236.39
368.30	318.31
368.49	245.76
368.69	231.71
368.89	264.48
369.09	250.44
369.28	259.80
369.48	290.23
369.68	241.08
369.87	299.59
370.07	290.23
370.27	372.15
370.47	308.95
370.66	297.25
370.86	372.15
371.06	397.89
371.25	390.87
371.45	358.10
371.65	381.51
371.84	456.40
372.04	346.40
372.24	315.97
372.44	402.57
372.63	322.99
372.83	397.89
373.03	393.21
373.22	346.40
373.42	367.46
373.62	479.81
373.81	428.32
374.01	477.47
374.21	458.74
374.40	400.23
374.60	479.81
374.79	353.42
374.99	416.62
375.19	400.23
375.38	393.21
375.58	411.93
375.78	395.55
375.97	458.74
376.17	435.34
376.37	470.45
376.56	421.30
376.76	358.10
376.95	411.93
377.15	404.91
377.35	337.04
377.54	442.36
377.74	425.98
377.93	379.17
378.13	454.06
378.33	482.15
378.52	358.10
378.72	447.04
378.91	456.40
379.11	376.83
379.31	430.66
379.50	416.62
379.70	355.76
379.89	388.53
380.09	442.36
380.28	393.21
380.48	414.27
380.68	411.93
380.87	290.23
381.07	423.64
381.26	365.12
381.46	407.25
381.65	381.51
381.85	388.53
382.04	369.80
382.24	447.04
382.43	423.64
382.63	442.36
382.83	425.98
383.02	470.45
383.22	411.93
383.41	404.91
383.61	386.19
383.80	390.87
384.00	388.53
384.19	395.55
384.39	383.85
384.58	365.12
384.78	395.55
384.97	447.04
385.17	360.44
385.36	402.57
385.56	411.93
385.75	409.59
385.95	407.25
386.14	395.55
386.34	376.83
386.53	379.17
386.72	367.46
386.92	472.79
387.11	461.09
387.31	330.02
387.50	383.85
387.70	365.12
387.89	351.08
388.09	411.93
388.28	379.17
388.48	376.83
388.67	409.59
388.86	372.15
389.06	418.96
389.25	397.89
389.45	409.59
389.64	442.36
389.84	477.47
390.03	409.59
390.22	411.93
390.42	444.70
390.61	418.96
390.81	425.98
391.00	358.10
391.19	374.49
391.39	400.23
391.58	311.29
391.78	376.83
391.97	358.10
392.16	402.57
392.36	376.83
392.55	475.13
392.75	416.62
392.94	397.89
393.13	404.91
393.33	346.40
393.52	365.12
393.71	402.57
393.91	379.17
394.10	344.06
394.29	400.23
394.49	414.27
394.68	423.64
394.88	465.77
395.07	404.91
395.26	440.02
395.46	374.49
395.65	458.74
395.84	376.83
396.04	470.45
396.23	355.76
396.42	362.78
396.62	341.72
396.81	400.23
397.00	428.32
397.19	379.17
397.39	402.57
397.58	430.66
397.77	372.15
397.97	374.49
398.16	465.77
398.35	414.27
398.55	402.57
398.74	386.19
398.93	440.02
399.12	362.78
399.32	442.36
399.51	440.02
399.70	433.00
399.90	435.34
400.09	414.27
400.28	470.45
400.47	407.25
400.67	493.85
400.86	374.49
401.05	386.19
401.24	416.62
401.44	418.96
401.63	372.15
401.82	367.46
402.01	411.93
402.21	379.17
402.40	318.31
402.59	433.00
402.78	353.42
402.97	358.10
403.17	416.62
403.36	442.36
403.55	369.80
403.74	404.91
403.93	428.32
404.13	486.83
404.32	409.59
404.51	346.40
404.70	458.74
404.89	341.72
405.09	428.32
405.28	444.70
405.47	374.49
405.66	465.77
405.85	416.62
406.05	482.15
406.24	379.17
406.43	451.72
406.62	386.19
406.81	477.47
407.00	423.64
407.20	451.72
407.39	362.78
407.58	414.27
407.77	404.91
407.96	451.72
408.15	444.70
408.34	465.77
408.54	414.27
408.73	374.49
408.92	454.06
409.11	386.19
409.30	449.38
409.49	388.53
409.68	390.87
409.87	482.15
410.07	388.53
410.26	393.21
410.45	407.25
410.64	454.06
410.83	440.02
411.02	430.66
411.21	428.32
411.40	381.51
411.59	416.62
411.78	355.76
411.98	479.81
412.17	425.98
412.36	507.90
412.55	451.72
412.74	379.17
412.93	418.96
413.12	374.49
413.31	435.34
413.50	320.65
413.69	447.04
413.88	428.32
414.07	402.57
414.26	425.98
414.45	341.72
414.64	437.68
414.83	470.45
415.02	425.98
415.22	531.30
415.41	376.83
415.60	444.70
415.79	397.89
415.98	418.96
416.17	365.12
416.36	463.43
416.55	444.70
416.74	447.04
416.93	449.38
417.12	348.74
417.31	390.87
417.50	440.02
417.69	407.25
417.88	423.64
418.07	416.62
418.26	390.87
418.45	379.17
418.64	433.00
418.83	440.02
419.02	301.93
419.21	365.12
419.39	383.85
419.58	353.42
419.77	287.89
419.96	402.57
420.15	440.02
420.34	400.23
420.53	386.19
420.72	456.40
420.91	433.00
421.10	416.62
421.29	365.12
421.48	447.04
421.67	447.04
421.86	411.93
422.05	374.49
422.24	407.25
422.43	437.68
422.61	428.32
422.80	372.15
422.99	390.87
423.18	383.85
423.37	365.12
423.56	400.23
423.75	428.32
423.94	379.17
424.13	411.93
424.32	362.78
424.50	383.85
424.69	344.06
424.88	404.91
425.07	454.06
425.26	421.30
425.45	372.15
425.64	381.51
425.83	418.96
426.01	433.00
426.20	451.72
426.39	397.89
426.58	376.83
426.77	423.64
426.96	451.72
427.15	428.32
427.33	416.62
427.52	367.46
427.71	397.89
427.90	404.91
428.09	409.59
428.28	365.12
428.46	355.76
428.65	454.06
428.84	472.79
429.03	416.62
429.22	393.21
429.40	421.30
429.59	358.10
429.78	411.93
429.97	388.53
430.16	456.40
430.34	383.85
430.53	416.62
430.72	341.72
430.91	456.40
431.10	411.93
431.28	433.00
431.47	414.27
431.66	402.57
431.85	337.04
432.03	418.96
432.22	416.62
432.41	430.66
432.60	475.13
432.79	421.30
432.97	400.23
433.16	369.80
433.35	395.55
433.54	404.91
433.72	414.27
433.91	430.66
434.10	416.62
434.28	428.32
434.47	332.36
434.66	374.49
434.85	430.66
435.03	353.42
435.22	503.22
435.41	472.79
435.59	430.66
435.78	353.42
435.97	393.21
436.16	425.98
436.34	414.27
436.53	482.15
436.72	458.74
436.90	409.59
437.09	379.17
437.28	341.72
437.46	358.10
437.65	454.06
437.84	386.19
438.02	369.80
438.21	376.83
438.40	414.27
438.58	369.80
438.77	409.59
438.96	421.30
439.14	428.32
439.33	374.49
439.52	411.93
439.70	421.30
439.89	395.55
440.08	390.87
440.26	386.19
440.45	411.93
440.63	393.21
440.82	449.38
441.01	374.49
441.19	386.19
441.38	404.91
441.57	358.10
441.75	393.21
441.94	437.68
442.12	510.24
442.31	404.91
442.50	402.57
442.68	397.89
442.87	358.10
443.05	395.55
443.24	411.93
443.43	451.72
443.61	416.62
443.80	341.72
443.98	404.91
444.17	330.02
444.35	451.72
444.54	423.64
444.73	423.64
444.91	482.15
445.10	379.17
445.28	393.21
445.47	433.00
445.65	355.76
445.84	423.64
446.02	433.00
446.21	433.00
446.39	374.49
446.58	428.32
446.77	482.15
446.95	477.47
447.14	449.38
447.32	475.13
447.51	461.09
447.69	414.27
447.88	393.21
448.06	475.13
448.25	440.02
448.43	386.19
448.62	372.15
448.80	528.96
448.99	433.00
449.17	423.64
449.36	388.53
449.54	444.70
449.73	409.59
449.91	449.38
450.10	407.25
450.28	475.13
450.46	468.11
450.65	402.57
450.83	421.30
451.02	404.91
451.20	400.23
451.39	379.17
451.57	379.17
451.76	393.21
451.94	409.59
452.13	411.93
452.31	437.68
452.49	416.62
452.68	372.15
452.86	400.23
453.05	503.22
453.23	383.85
453.42	362.78
453.60	440.02
453.78	379.17
453.97	397.89
454.15	372.15
454.34	482.15
454.52	348.74
454.70	418.96
454.89	482.15
455.07	454.06
455.26	437.68
455.44	472.79
455.62	397.89
455.81	334.70
455.99	458.74
456.17	404.91
456.36	379.17
456.54	393.21
456.73	404.91
456.91	409.59
457.09	376.83
457.28	344.06
457.46	404.91
457.64	440.02
457.83	472.79
458.01	402.57
458.19	482.15
458.38	435.34
458.56	390.87
458.74	442.36
458.93	402.57
459.11	409.59
459.29	390.87
459.48	475.13
459.66	418.96
459.84	447.04
460.03	444.70
460.21	411.93
460.39	447.04
460.57	407.25
460.76	449.38
460.94	390.87
461.12	435.34
461.31	437.68
461.49	433.00
461.67	442.36
461.85	416.62
462.04	428.32
462.22	772.38
462.40	397.89
462.59	461.09
462.77	428.32
462.95	454.06
463.13	418.96
463.32	463.43
463.50	435.34
463.68	390.87
463.86	397.89
464.05	409.59
464.23	407.25
464.41	437.68
464.59	376.83
464.78	360.44
464.96	339.38
465.14	414.27
465.32	358.10
465.50	425.98
465.69	414.27
465.87	418.96
466.05	411.93
466.23	395.55
466.41	404.91
466.60	414.27
466.78	428.32
466.96	451.72
467.14	463.43
467.32	533.64
467.51	416.62
467.69	409.59
467.87	500.87
468.05	461.09
468.23	411.93
468.41	409.59
468.60	397.89
468.78	411.93
468.96	461.09
469.14	388.53
469.32	402.57
469.50	351.08
469.69	325.33
469.87	454.06
470.05	369.80
470.23	435.34
470.41	409.59
470.59	411.93
470.77	360.44
470.95	374.49
471.14	430.66
471.32	440.02
471.50	386.19
471.68	421.30
471.86	465.77
472.04	454.06
472.22	379.17
472.40	381.51
472.58	479.81
472.77	351.08
472.95	383.85
473.13	526.62
473.31	379.17
473.49	376.83
473.67	463.43
473.85	447.04
474.03	493.85
474.21	411.93
474.39	390.87
474.57	458.74
474.75	379.17
474.93	367.46
475.12	395.55
475.30	344.06
475.48	369.80
475.66	416.62
475.84	458.74
476.02	402.57
476.20	376.83
476.38	458.74
476.56	456.40
476.74	353.42
476.92	402.57
477.10	421.30
477.28	447.04
477.46	440.02
477.64	507.90
477.82	374.49
478.00	376.83
478.18	514.92
478.36	397.89
478.54	407.25
478.72	337.04
478.90	381.51
479.08	407.25
479.26	449.38
479.44	351.08
479.62	374.49
479.80	409.59
479.98	376.83
480.16	353.42
480.34	444.70
480.52	367.46
480.70	430.66
480.88	353.42
481.06	414.27
481.24	358.10
481.41	372.15
481.59	461.09
481.77	423.64
481.95	416.62
482.13	423.64
482.31	442.36
482.49	369.80
482.67	376.83
482.85	402.57
483.03	353.42
483.21	435.34
483.39	447.04
483.57	425.98
483.74	507.90
483.92	346.40
484.10	365.12
484.28	407.25
484.46	475.13
484.64	355.76
484.82	411.93
485.00	433.00
485.18	416.62
485.35	388.53
485.53	409.59
485.71	414.27
485.89	337.04
486.07	428.32
486.25	435.34
486.43	393.21
486.61	458.74
486.78	454.06
486.96	372.15
487.14	353.42
487.32	402.57
487.50	386.19
487.68	440.02
487.85	393.21
488.03	411.93
488.21	496.19
488.39	360.44
488.57	479.81
488.75	433.00
488.92	559.39
489.10	475.13
489.28	442.36
489.46	416.62
489.64	435.34
489.81	360.44
489.99	402.57
490.17	433.00
490.35	475.13
490.53	447.04
490.70	404.91
490.88	435.34
491.06	362.78
491.24	468.11
491.41	482.15
491.59	411.93
491.77	425.98
491.95	390.87
492.13	390.87
492.30	435.34
492.48	411.93
492.66	348.74
492.84	425.98
493.01	465.77
493.19	411.93
493.37	339.38
493.54	318.31
493.72	435.34
493.90	372.15
494.08	365.12
494.25	463.43
494.43	442.36
494.61	369.80
494.79	484.49
494.96	358.10
495.14	465.77
495.32	393.21
495.49	451.72
495.67	465.77
495.85	351.08
496.02	397.89
496.20	351.08
496.38	447.04
496.55	390.87
496.73	437.68
496.91	386.19
497.09	379.17
497.26	423.64
497.44	440.02
497.62	433.00
497.79	397.89
497.97	381.51
498.14	442.36
498.32	421.30
498.50	418.96
498.67	397.89
498.85	379.17
499.03	332.36
499.20	320.65
499.38	365.12
499.56	433.00
499.73	416.62
499.91	526.62
500.08	379.17
500.26	397.89
500.44	458.74
500.61	500.87
500.79	397.89
500.97	416.62
501.14	500.87
501.32	400.23
501.49	475.13
501.67	425.98
501.84	379.17
502.02	423.64
502.20	472.79
502.37	351.08
502.55	372.15
502.72	456.40
502.90	484.49
503.07	421.30
503.25	400.23
503.43	435.34
503.60	383.85
503.78	428.32
503.95	390.87
504.13	425.98
504.30	407.25
504.48	402.57
504.65	390.87
504.83	414.27
505.01	388.53
505.18	470.45
505.36	407.25
505.53	369.80
505.71	402.57
505.88	411.93
506.06	423.64
506.23	444.70
506.41	498.53
506.58	369.80
506.76	416.62
506.93	341.72
507.11	411.93
507.28	416.62
507.46	402.57
507.63	442.36
507.81	397.89
507.98	425.98
508.16	346.40
508.33	374.49
508.50	437.68
508.68	407.25
508.85	423.64
509.03	407.25
509.20	418.96
509.38	428.32
509.55	400.23
509.73	355.76
509.90	411.93
510.08	397.89
510.25	507.90
510.42	414.27
510.60	543.00
510.77	400.23
510.95	444.70
511.12	402.57
511.30	395.55
511.47	416.62
511.64	374.49
511.82	411.93
511.99	451.72
512.17	440.02
512.34	404.91
512.51	433.00
512.69	404.91
512.86	496.19
513.04	425.98
513.21	376.83
513.38	388.53
513.56	358.10
513.73	454.06
513.90	383.85
514.08	386.19
514.25	421.30
514.43	400.23
514.60	407.25
514.77	418.96
514.95	381.51
515.12	409.59
515.29	388.53
515.47	409.59
515.64	468.11
515.81	479.81
515.99	409.59
516.16	379.17
516.33	491.51
516.51	393.21
516.68	449.38
516.85	393.21
517.03	456.40
517.20	409.59
517.37	491.51
517.54	425.98
517.72	486.83
517.89	465.77
518.06	472.79
518.24	440.02
518.41	440.02
518.58	353.42
518.75	404.91
518.93	461.09
519.10	416.62
519.27	409.59
519.45	421.30
519.62	381.51
519.79	386.19
519.96	440.02
520.14	383.85
520.31	442.36
520.48	454.06
520.65	369.80
520.83	418.96
521.00	376.83
521.17	423.64
521.34	355.76
521.52	423.64
521.69	341.72
521.86	379.17
522.03	416.62
522.20	409.59
522.38	355.76
522.55	458.74
522.72	372.15
522.89	479.81
523.07	470.45
523.24	444.70
523.41	397.89
523.58	388.53
523.75	421.30
523.92	388.53
524.10	423.64
524.27	381.51
524.44	458.74
524.61	458.74
524.78	395.55
524.96	339.38
525.13	397.89
525.30	461.09
525.47	447.04
525.64	463.43
525.81	409.59
525.98	404.91
526.16	407.25
526.33	444.70
526.50	344.06
526.67	433.00
526.84	369.80
527.01	390.87
527.18	374.49
527.36	479.81
527.53	416.62
527.70	451.72
527.87	374.49
528.04	414.27
528.21	369.80
528.38	402.57
528.55	425.98
528.72	472.79
528.89	512.58
529.07	337.04
529.24	404.91
529.41	435.34
529.58	425.98
529.75	505.56
529.92	409.59
530.09	379.17
530.26	458.74
530.43	397.89
530.60	313.63
530.77	425.98
530.94	442.36
531.11	418.96
531.28	395.55
531.46	423.64
531.63	435.34
531.80	409.59
531.97	433.00
532.14	400.23
532.31	381.51
532.48	461.09
532.65	491.51
532.82	400.23
532.99	447.04
533.16	355.76
533.33	430.66
533.50	414.27
533.67	454.06
533.84	404.91
534.01	423.64
534.18	409.59
534.35	435.34
534.52	421.30
534.69	486.83
534.86	386.19
535.03	351.08
535.20	351.08
535.37	454.06
535.54	402.57
535.71	423.64
535.88	486.83
536.05	440.02
536.22	386.19
536.38	416.62
536.55	437.68
536.72	444.70
536.89	425.98
537.06	437.68
537.23	430.66
537.40	346.40
537.57	472.79
537.74	468.11
537.91	435.34
538.08	344.06
538.25	425.98
538.42	435.34
538.59	416.62
538.75	454.06
538.92	369.80
539.09	472.79
539.26	386.19
539.43	493.85
539.60	428.32
539.77	449.38
539.94	463.43
540.11	458.74
540.28	404.91
540.44	491.51
540.61	430.66
540.78	409.59
540.95	433.00
541.12	435.34
541.29	425.98
541.46	362.78
541.62	458.74
541.79	374.49
541.96	449.38
542.13	393.21
542.30	421.30
542.47	458.74
542.63	414.27
542.80	465.77
542.97	411.93
543.14	351.08
543.31	367.46
543.48	454.06
543.64	454.06
543.81	414.27
543.98	416.62
544.15	367.46
544.32	447.04
544.48	421.30
544.65	402.57
544.82	451.72
544.99	435.34
545.16	442.36
545.32	327.68
545.49	416.62
545.66	397.89
545.83	428.32
546.00	334.70
546.16	421.30
546.33	353.42
546.50	470.45
546.67	418.96
546.83	449.38
547.00	465.77
547.17	376.83
547.34	379.17
547.50	374.49
547.67	482.15
547.84	360.44
548.00	435.34
548.17	458.74
548.34	451.72
548.51	447.04
548.67	393.21
548.84	451.72
549.01	447.04
549.18	376.83
549.34	421.30
549.51	355.76
549.68	313.63
549.84	442.36
550.01	449.38
550.18	482.15
550.34	463.43
550.51	433.00
550.68	421.30
550.84	374.49
551.01	428.32
551.18	407.25
551.34	484.49
551.51	395.55
551.68	456.40
551.84	482.15
552.01	479.81
552.18	386.19
552.34	411.93
552.51	423.64
552.68	468.11
552.84	486.83
553.01	362.78
553.18	435.34
553.34	360.44
553.51	372.15
553.67	472.79
553.84	437.68
554.01	425.98
554.17	390.87
554.34	374.49
554.51	461.09
554.67	479.81
554.84	390.87
555.00	430.66
555.17	369.80
555.33	463.43
555.50	423.64
555.67	433.00
555.83	470.45
556.00	409.59
556.16	552.37
556.33	404.91
556.50	379.17
556.66	341.72
556.83	341.72
556.99	395.55
557.16	393.21
557.32	421.30
557.49	395.55
557.65	381.51
557.82	435.34
557.98	414.27
558.15	423.64
558.32	433.00
558.48	332.36
558.65	374.49
558.81	381.51
558.98	461.09
559.14	409.59
559.31	421.30
559.47	440.02
559.64	379.17
559.80	440.02
559.97	425.98
560.13	379.17
560.30	418.96
560.46	442.36
560.63	477.47
560.79	486.83
560.96	461.09
561.12	400.23
561.29	379.17
561.45	437.68
561.61	379.17
561.78	454.06
561.94	390.87
562.11	388.53
562.27	423.64
562.44	393.21
562.60	416.62
562.77	449.38
562.93	484.49
563.10	416.62
563.26	386.19
563.42	451.72
563.59	421.30
563.75	430.66
563.92	442.36
564.08	409.59
564.24	451.72
564.41	458.74
564.57	430.66
564.74	365.12
564.90	425.98
565.07	458.74
565.23	447.04
565.39	463.43
565.56	449.38
565.72	437.68
565.88	425.98
566.05	390.87
566.21	425.98
566.38	477.47
566.54	393.21
566.70	365.12
566.87	428.32
567.03	339.38
567.19	421.30
567.36	386.19
567.52	397.89
567.68	456.40
567.85	475.13
568.01	433.00
568.17	421.30
568.34	463.43
568.50	400.23
568.66	388.53
568.83	454.06
568.99	374.49
569.15	388.53
569.32	444.70
569.48	353.42
569.64	440.02
569.81	386.19
569.97	472.79
570.13	423.64
570.30	447.04
570.46	458.74
570.62	355.76
570.78	456.40
570.95	447.04
571.11	447.04
571.27	430.66
571.43	374.49
571.60	458.74
571.76	461.09
571.92	379.17
572.09	390.87
572.25	496.19
572.41	395.55
572.57	414.27
572.74	449.38
572.90	444.70
573.06	428.32
573.22	327.68
573.38	383.85
573.55	402.57
573.71	414.27
573.87	418.96
574.03	348.74
574.20	409.59
574.36	407.25
574.52	433.00
574.68	451.72
574.84	444.70
575.01	423.64
575.17	397.89
575.33	409.59
575.49	355.76
575.65	442.36
575.82	437.68
575.98	409.59
576.14	444.70
576.30	353.42
576.46	395.55
576.62	444.70
576.79	411.93
576.95	440.02
577.11	433.00
577.27	414.27
577.43	477.47
577.59	433.00
577.75	414.27
577.92	423.64
578.08	379.17
578.24	421.30
578.40	468.11
578.56	414.27
578.72	393.21
578.88	393.21
579.04	435.34
579.21	440.02
579.37	421.30
579.53	465.77
579.69	376.83
579.85	409.59
580.01	442.36
580.17	409.59
580.33	449.38
580.49	423.64
580.65	430.66
580.82	437.68
580.98	376.83
581.14	379.17
581.30	428.32
581.46	423.64
581.62	428.32
581.78	423.64
581.94	449.38
582.10	447.04
582.26	367.46
582.42	393.21
582.58	414.27
582.74	374.49
582.90	395.55
583.06	411.93
583.22	418.96
583.38	372.15
583.54	433.00
583.70	433.00
583.86	463.43
584.02	358.10
584.18	383.85
584.34	358.10
584.50	365.12
584.66	388.53
584.82	435.34
584.98	418.96
585.14	404.91
585.30	435.34
585.46	433.00
585.62	444.70
585.78	407.25
585.94	400.23
586.10	435.34
586.26	355.76
586.42	404.91
586.58	444.70
586.74	454.06
586.90	425.98
587.06	482.15
587.22	397.89
587.38	381.51
587.54	430.66
587.70	482.15
587.86	400.23
588.02	395.55
588.18	390.87
588.34	475.13
588.49	428.32
588.65	404.91
588.81	416.62
588.97	355.76
589.13	393.21
589.29	337.04
589.45	463.43
589.61	451.72
589.77	428.32
589.93	435.34
590.08	395.55
590.24	428.32
590.40	404.91
590.56	381.51
590.72	411.93
590.88	402.57
591.04	463.43
591.20	451.72
591.35	428.32
591.51	437.68
591.67	390.87
591.83	437.68
591.99	447.04
592.15	421.30
592.31	409.59
592.46	447.04
592.62	482.15
592.78	428.32
592.94	425.98
593.10	418.96
593.26	397.89
593.41	395.55
593.57	404.91
593.73	390.87
593.89	486.83
594.05	416.62
594.20	440.02
594.36	397.89
594.52	425.98
594.68	416.62
594.84	404.91
594.99	454.06
595.15	454.06
595.31	449.38
595.47	491.51
595.62	421.30
595.78	449.38
595.94	428.32
596.10	416.62
596.25	442.36
596.41	400.23
596.57	386.19
596.73	418.96
596.88	409.59
597.04	421.30
597.20	454.06
597.36	395.55
597.51	414.27
597.67	421.30
597.83	414.27
597.99	465.77
598.14	327.68
598.30	500.87
598.46	440.02
598.61	425.98
598.77	423.64
598.93	407.25
599.09	435.34
599.24	428.32
599.40	425.98
599.56	400.23
599.71	444.70
599.87	454.06
600.03	411.93
600.18	435.34
600.34	456.40
600.50	454.06
600.65	367.46
600.81	400.23
600.97	433.00
601.12	400.23
601.28	407.25
601.44	362.78
601.59	433.00
601.75	456.40
601.91	414.27
602.06	430.66
602.22	528.96
602.37	442.36
602.53	510.24
602.69	411.93
602.84	369.80
603.00	397.89
603.16	416.62
603.31	388.53
603.47	454.06
603.62	400.23
603.78	365.12
603.94	402.57
604.09	341.72
604.25	461.09
604.40	437.68
604.56	416.62
604.71	381.51
604.87	433.00
605.03	407.25
605.18	435.34
605.34	489.17
605.49	393.21
605.65	358.10
605.80	388.53
605.96	407.25
606.12	442.36
606.27	451.72
606.43	393.21
606.58	444.70
606.74	447.04
606.89	404.91
607.05	404.91
607.20	395.55
607.36	433.00
607.51	374.49
607.67	379.17
607.82	407.25
607.98	463.43
608.13	456.40
608.29	395.55
608.44	416.62
608.60	447.04
608.75	404.91
608.91	449.38
609.06	400.23
609.22	358.10
609.37	379.17
609.53	437.68
609.68	416.62
609.84	444.70
609.99	409.59
610.15	454.06
610.30	411.93
610.46	351.08
610.61	470.45
610.76	482.15
610.92	379.17
611.07	449.38
611.23	465.77
611.38	482.15
611.54	454.06
611.69	353.42
611.84	437.68
612.00	379.17
612.15	390.87
612.31	353.42
612.46	409.59
612.62	472.79
612.77	435.34
612.92	475.13
613.08	390.87
613.23	449.38
613.39	447.04
613.54	477.47
613.69	395.55
613.85	451.72
614.00	519.60
614.15	407.25
614.31	437.68
614.46	400.23
614.62	421.30
614.77	346.40
614.92	411.93
615.08	411.93
615.23	458.74
615.38	435.34
615.54	425.98
615.69	397.89
615.84	461.09
616.00	414.27
616.15	369.80
616.30	348.74
616.46	404.91
616.61	507.90
616.76	393.21
616.92	411.93
617.07	374.49
617.22	440.02
617.37	402.57
617.53	369.80
617.68	418.96
617.83	390.87
617.99	395.55
618.14	486.83
618.29	461.09
618.45	440.02
618.60	395.55
618.75	440.02
618.90	402.57
619.06	388.53
619.21	470.45
619.36	409.59
619.51	404.91
619.67	374.49
619.82	388.53
619.97	433.00
620.12	456.40
620.28	393.21
620.43	451.72
620.58	423.64
620.73	423.64
620.89	416.62
621.04	475.13
621.19	437.68
621.34	383.85
621.49	404.91
621.65	479.81
621.80	407.25
621.95	454.06
622.10	442.36
622.25	395.55
622.41	409.59
622.56	379.17
622.71	397.89
622.86	372.15
623.01	353.42
623.16	437.68
623.32	402.57
623.47	407.25
623.62	444.70
623.77	365.12
623.92	407.25
624.07	414.27
624.23	418.96
624.38	414.27
624.53	435.34
624.68	433.00
624.83	414.27
624.98	404.91
625.13	360.44
625.29	393.21
625.44	388.53
625.59	433.00
625.74	381.51
625.89	390.87
626.04	404.91
626.19	423.64
626.34	463.43
626.49	397.89
626.65	463.43
626.80	425.98
626.95	421.30
627.10	435.34
627.25	451.72
627.40	402.57
627.55	423.64
627.70	365.12
627.85	423.64
628.00	425.98
628.15	346.40
628.30	374.49
628.45	341.72
628.60	395.55
628.76	409.59
628.91	500.87
629.06	510.24
629.21	330.02
629.36	414.27
629.51	409.59
629.66	390.87
629.81	372.15
629.96	390.87
630.11	372.15
630.26	454.06
630.41	425.98
630.56	367.46
630.71	411.93
630.86	383.85
631.01	386.19
631.16	454.06
631.31	433.00
631.46	435.34
631.61	454.06
631.76	486.83
631.91	411.93
632.06	411.93
632.21	400.23
632.36	449.38
632.51	344.06
632.66	404.91
632.81	411.93
632.96	475.13
633.10	409.59
633.25	383.85
633.40	418.96
633.55	390.87
633.70	440.02
633.85	440.02
634.00	440.02
634.15	425.98
634.30	458.74
634.45	421.30
634.60	435.34
634.75	395.55
634.90	355.76
635.05	397.89
635.19	449.38
635.34	369.80
635.49	465.77
635.64	425.98
635.79	418.96
635.94	372.15
636.09	390.87
636.24	327.68
636.39	416.62
636.53	395.55
636.68	475.13
636.83	351.08
636.98	454.06
637.13	454.06
637.28	390.87
637.43	355.76
637.57	388.53
637.72	435.34
637.87	414.27
638.02	358.10
638.17	362.78
638.32	451.72
638.46	423.64
638.61	397.89
638.76	409.59
638.91	437.68
639.06	414.27
639.20	437.68
639.35	458.74
639.50	374.49
639.65	402.57
639.80	433.00
639.94	430.66
640.09	512.58
640.24	442.36
640.39	486.83
640.54	353.42
640.68	404.91
640.83	435.34
640.98	458.74
641.13	388.53
641.27	437.68
641.42	414.27
641.57	433.00
641.72	440.02
641.86	397.89
642.01	386.19
642.16	397.89
642.31	400.23
642.45	449.38
642.60	440.02
642.75	404.91
642.90	379.17
643.04	425.98
643.19	433.00
643.34	416.62
643.48	444.70
643.63	456.40
643.78	444.70
643.93	383.85
644.07	433.00
644.22	381.51
644.37	367.46
644.51	425.98
644.66	418.96
644.81	407.25
644.95	447.04
645.10	402.57
645.25	376.83
645.39	454.06
645.54	444.70
645.69	463.43
645.83	402.57
645.98	428.32
646.13	386.19
646.27	402.57
646.42	423.64
646.57	315.97
646.71	442.36
646.86	372.15
647.00	433.00
647.15	393.21
647.30	404.91
647.44	477.47
647.59	437.68
647.74	409.59
647.88	435.34
648.03	489.17
648.17	470.45
648.32	454.06
648.47	397.89
648.61	456.40
648.76	367.46
648.90	470.45
649.05	416.62
649.20	383.85
649.34	402.57
649.49	437.68
649.63	423.64
649.78	454.06
649.92	376.83
650.07	477.47
650.21	367.46
650.36	372.15
650.51	383.85
650.65	437.68
650.80	477.47
650.94	409.59
651.09	472.79
651.23	414.27
651.38	360.44
651.52	367.46
651.67	404.91
651.81	423.64
651.96	433.00
652.10	517.26
652.25	449.38
652.39	390.87
652.54	400.23
652.68	491.51
652.83	400.23
652.97	451.72
653.12	402.57
653.26	393.21
653.41	458.74
653.55	437.68
653.70	367.46
653.84	435.34
653.99	402.57
654.13	402.57
654.27	376.83
654.42	402.57
654.56	449.38
654.71	454.06
654.85	402.57
655.00	425.98
655.14	369.80
655.29	348.74
655.43	334.70
655.57	428.32
655.72	430.66
655.86	379.17
656.01	421.30
656.15	463.43
656.30	430.66
656.44	425.98
656.58	423.64
656.73	379.17
656.87	360.44
657.01	332.36
657.16	390.87
657.30	416.62
657.45	503.22
657.59	362.78
657.73	360.44
657.88	435.34
658.02	433.00
658.16	367.46
658.31	470.45
658.45	407.25
658.60	346.40
658.74	430.66
658.88	379.17
659.03	365.12
659.17	451.72
659.31	430.66
659.46	393.21
659.60	465.77
659.74	400.23
659.89	409.59
660.03	407.25
660.17	465.77
660.32	383.85
660.46	437.68
660.60	374.49
660.74	346.40
660.89	463.43
661.03	418.96
661.17	454.06
661.32	404.91
661.46	351.08
661.60	318.31
661.74	454.06
661.89	444.70
662.03	341.72
662.17	423.64
662.31	468.11
662.46	477.47
662.60	425.98
662.74	475.13
662.88	444.70
663.03	414.27
663.17	411.93
663.31	402.57
663.45	404.91
663.60	348.74
663.74	411.93
663.88	400.23
664.02	440.02
664.17	404.91
664.31	353.42
664.45	456.40
664.59	369.80
664.73	477.47
664.88	442.36
665.02	362.78
665.16	365.12
665.30	418.96
665.44	423.64
665.59	440.02
665.73	447.04
665.87	475.13
666.01	421.30
666.15	381.51
666.29	381.51
666.44	435.34
666.58	444.70
666.72	379.17
666.86	402.57
667.00	449.38
667.14	407.25
667.28	440.02
667.43	397.89
667.57	388.53
667.71	365.12
667.85	430.66
667.99	376.83
668.13	435.34
668.27	519.60
668.41	430.66
668.56	393.21
668.70	402.57
668.84	444.70
668.98	379.17
669.12	461.09
669.26	346.40
669.40	463.43
669.54	430.66
669.68	505.56
669.82	472.79
669.96	428.32
670.10	442.36
670.25	425.98
670.39	425.98
670.53	369.80
670.67	381.51
670.81	425.98
670.95	381.51
671.09	397.89
671.23	463.43
671.37	475.13
671.51	491.51
671.65	489.17
671.79	456.40
671.93	423.64
672.07	449.38
672.21	458.74
672.35	407.25
672.49	353.42
672.63	411.93
672.77	475.13
672.91	428.32
673.05	409.59
673.19	397.89
673.33	493.85
673.47	500.87
673.61	425.98
673.75	411.93
673.89	470.45
674.03	440.02
674.17	346.40
674.31	444.70
674.45	414.27
674.59	470.45
674.73	346.40
674.87	414.27
675.01	386.19
675.15	339.38
675.29	442.36
675.43	486.83
675.56	430.66
675.70	447.04
675.84	334.70
675.98	386.19
676.12	454.06
676.26	440.02
676.40	425.98
676.54	339.38
676.68	423.64
676.82	435.34
676.96	365.12
677.10	423.64
677.23	435.34
677.37	395.55
677.51	397.89
677.65	475.13
677.79	287.89
677.93	465.77
678.07	409.59
678.21	393.21
678.34	332.36
678.48	447.04
678.62	402.57
678.76	369.80
678.90	337.04
679.04	430.66
679.18	402.57
679.31	409.59
679.45	395.55
679.59	367.46
679.73	402.57
679.87	393.21
680.00	468.11
680.14	425.98
680.28	454.06
680.42	407.25
680.56	477.47
680.70	390.87
680.83	486.83
680.97	430.66
681.11	383.85
681.25	463.43
681.39	428.32
681.52	393.21
681.66	407.25
681.80	496.19
681.94	400.23
682.07	470.45
682.21	486.83
682.35	372.15
682.49	397.89
682.62	404.91
682.76	451.72
682.90	414.27
683.04	451.72
683.17	491.51
683.31	390.87
683.45	437.68
683.59	423.64
683.72	421.30
683.86	440.02
684.00	404.91
684.13	451.72
684.27	393.21
684.41	416.62
684.55	402.57
684.68	348.74
684.82	360.44
684.96	374.49
685.09	418.96
685.23	442.36
685.37	367.46
685.50	496.19
685.64	479.81
685.78	442.36
685.91	414.27
686.05	395.55
686.19	393.21
686.32	430.66
686.46	383.85
686.60	395.55
686.73	442.36
686.87	454.06
687.01	388.53
687.14	425.98
687.28	395.55
687.42	449.38
687.55	433.00
687.69	463.43
687.82	376.83
687.96	423.64
688.10	428.32
688.23	416.62
688.37	369.80
688.50	461.09
688.64	414.27
688.78	367.46
688.91	397.89
689.05	428.32
689.18	423.64
689.32	440.02
689.46	447.04
689.59	463.43
689.73	386.19
689.86	411.93
690.00	414.27
690.13	430.66
690.27	355.76
690.41	414.27
690.54	376.83
690.68	465.77
690.81	414.27
690.95	449.38
691.08	395.55
691.22	369.80
691.35	444.70
691.49	372.15
691.62	404.91
691.76	388.53
691.89	409.59
692.03	479.81
692.16	400.23
692.30	435.34
692.43	442.36
692.57	430.66
692.70	362.78
692.84	402.57
692.97	407.25
693.11	383.85
693.24	299.59
693.38	393.21
693.51	367.46
693.65	397.89
693.78	369.80
693.92	416.62
694.05	475.13
694.19	400.23
694.32	386.19
694.45	397.89
694.59	430.66
694.72	404.91
694.86	444.70
694.99	367.46
695.13	351.08
695.26	425.98
695.39	379.17
695.53	444.70
695.66	383.85
695.80	402.57
695.93	355.76
696.07	388.53
696.20	367.46
696.33	397.89
696.47	407.25
696.60	360.44
696.73	428.32
696.87	341.72
697.00	444.70
697.14	367.46
697.27	409.59
697.40	435.34
697.54	334.70
697.67	423.64
697.80	395.55
697.94	402.57
698.07	376.83
698.21	383.85
698.34	425.98
698.47	402.57
698.61	465.77
698.74	376.83
698.87	400.23
699.01	407.25
699.14	435.34
699.27	383.85
699.40	463.43
699.54	372.15
699.67	397.89
699.80	360.44
699.94	376.83
700.07	433.00
700.20	358.10
700.34	402.57
700.47	435.34
700.60	383.85
700.73	409.59
700.87	381.51
701.00	428.32
701.13	355.76
701.26	472.79
701.40	435.34
701.53	383.85
701.66	447.04
701.79	348.74
701.93	458.74
702.06	433.00
702.19	433.00
702.32	456.40
702.46	442.36
702.59	456.40
702.72	367.46
702.85	365.12
702.99	362.78
703.12	390.87
703.25	358.10
703.38	491.51
703.51	428.32
703.65	383.85
703.78	440.02
703.91	390.87
704.04	468.11
704.17	318.31
704.31	348.74
704.44	418.96
704.57	383.85
704.70	278.52
704.83	491.51
704.96	355.76
705.10	423.64
705.23	381.51
>>>>>End Processed Spectral Data<<<<<
