SpectraSuite Data File
++++++++++++++++++++++++++++++++++++
Date: Fri Oct 25 12:11:26 EDT 2013
User: price-jones
Dark Spectrum Present: No
Reference Spectrum Present: No
Number of Sampled Component Spectra: 1
Spectrometers: USB2+H05261
Integration Time (usec): 100000 (USB2+H05261)
Spectra Averaged: 1 (USB2+H05261)
Boxcar Smoothing: 0 (USB2+H05261)
Correct for Electrical Dark: No (USB2+H05261)
Strobe/Lamp Enabled: No (USB2+H05261)
Correct for Detector Non-linearity: No (USB2+H05261)
Correct for Stray Light: No (USB2+H05261)
Number of Pixels in Processed Spectrum: 2048
>>>>>Begin Processed Spectral Data<<<<<
365.73	374.49
365.92	374.49
366.12	374.49
366.32	252.78
366.52	177.88
366.72	252.78
366.91	231.71
367.11	227.03
367.31	182.56
367.51	227.03
367.70	147.45
367.90	264.48
368.10	222.35
368.30	290.23
368.49	320.65
368.69	215.33
368.89	238.73
369.09	205.97
369.28	245.76
369.48	334.70
369.68	273.84
369.87	273.84
370.07	304.27
370.27	397.89
370.47	311.29
370.66	297.25
370.86	285.55
371.06	358.10
371.25	465.77
371.45	379.17
371.65	414.27
371.84	362.78
372.04	386.19
372.24	423.64
372.44	454.06
372.63	423.64
372.83	425.98
373.03	388.53
373.22	365.12
373.42	428.32
373.62	430.66
373.81	397.89
374.01	330.02
374.21	418.96
374.40	414.27
374.60	416.62
374.79	430.66
374.99	355.76
375.19	421.30
375.38	376.83
375.58	470.45
375.78	440.02
375.97	447.04
376.17	447.04
376.37	440.02
376.56	390.87
376.76	407.25
376.95	416.62
377.15	440.02
377.35	411.93
377.54	379.17
377.74	498.53
377.93	428.32
378.13	404.91
378.33	447.04
378.52	379.17
378.72	437.68
378.91	397.89
379.11	395.55
379.31	390.87
379.50	348.74
379.70	400.23
379.89	423.64
380.09	447.04
380.28	383.85
380.48	374.49
380.68	428.32
380.87	388.53
381.07	383.85
381.26	395.55
381.46	367.46
381.65	353.42
381.85	358.10
382.04	425.98
382.24	351.08
382.43	465.77
382.63	409.59
382.83	449.38
383.02	458.74
383.22	402.57
383.41	444.70
383.61	386.19
383.80	421.30
384.00	449.38
384.19	449.38
384.39	351.08
384.58	414.27
384.78	449.38
384.97	386.19
385.17	409.59
385.36	416.62
385.56	395.55
385.75	372.15
385.95	437.68
386.14	430.66
386.34	449.38
386.53	376.83
386.72	339.38
386.92	421.30
387.11	374.49
387.31	395.55
387.50	437.68
387.70	379.17
387.89	376.83
388.09	369.80
388.28	411.93
388.48	362.78
388.67	404.91
388.86	308.95
389.06	407.25
389.25	402.57
389.45	409.59
389.64	374.49
389.84	402.57
390.03	404.91
390.22	440.02
390.42	449.38
390.61	449.38
390.81	409.59
391.00	390.87
391.19	437.68
391.39	344.06
391.58	447.04
391.78	365.12
391.97	468.11
392.16	423.64
392.36	430.66
392.55	411.93
392.75	327.68
392.94	402.57
393.13	393.21
393.33	367.46
393.52	383.85
393.71	454.06
393.91	386.19
394.10	367.46
394.29	418.96
394.49	472.79
394.68	372.15
394.88	404.91
395.07	376.83
395.26	339.38
395.46	393.21
395.65	430.66
395.84	423.64
396.04	507.90
396.23	423.64
396.42	425.98
396.62	416.62
396.81	428.32
397.00	411.93
397.19	372.15
397.39	353.42
397.58	411.93
397.77	421.30
397.97	346.40
398.16	397.89
398.35	397.89
398.55	381.51
398.74	341.72
398.93	372.15
399.12	440.02
399.32	447.04
399.51	383.85
399.70	456.40
399.90	393.21
400.09	428.32
400.28	447.04
400.47	330.02
400.67	407.25
400.86	358.10
401.05	428.32
401.24	390.87
401.44	428.32
401.63	433.00
401.82	414.27
402.01	444.70
402.21	433.00
402.40	379.17
402.59	353.42
402.78	479.81
402.97	423.64
403.17	376.83
403.36	411.93
403.55	421.30
403.74	407.25
403.93	388.53
404.13	414.27
404.32	472.79
404.51	477.47
404.70	454.06
404.89	433.00
405.09	449.38
405.28	369.80
405.47	425.98
405.66	362.78
405.85	388.53
406.05	479.81
406.24	418.96
406.43	435.34
406.62	430.66
406.81	456.40
407.00	383.85
407.20	395.55
407.39	425.98
407.58	437.68
407.77	416.62
407.96	395.55
408.15	334.70
408.34	421.30
408.54	407.25
408.73	358.10
408.92	440.02
409.11	381.51
409.30	330.02
409.49	428.32
409.68	440.02
409.87	449.38
410.07	421.30
410.26	451.72
410.45	318.31
410.64	372.15
410.83	379.17
411.02	388.53
411.21	468.11
411.40	397.89
411.59	381.51
411.78	425.98
411.98	430.66
412.17	428.32
412.36	402.57
412.55	390.87
412.74	454.06
412.93	437.68
413.12	433.00
413.31	423.64
413.50	484.49
413.69	449.38
413.88	425.98
414.07	423.64
414.26	367.46
414.45	376.83
414.64	346.40
414.83	414.27
415.02	404.91
415.22	395.55
415.41	395.55
415.60	409.59
415.79	451.72
415.98	454.06
416.17	365.12
416.36	409.59
416.55	458.74
416.74	416.62
416.93	390.87
417.12	376.83
417.31	358.10
417.50	428.32
417.69	383.85
417.88	397.89
418.07	433.00
418.26	425.98
418.45	414.27
418.64	472.79
418.83	388.53
419.02	430.66
419.21	409.59
419.39	383.85
419.58	411.93
419.77	428.32
419.96	447.04
420.15	433.00
420.34	447.04
420.53	388.53
420.72	416.62
420.91	428.32
421.10	400.23
421.29	496.19
421.48	383.85
421.67	475.13
421.86	430.66
422.05	400.23
422.24	393.21
422.43	440.02
422.61	442.36
422.80	447.04
422.99	484.49
423.18	444.70
423.37	337.04
423.56	402.57
423.75	468.11
423.94	444.70
424.13	425.98
424.32	461.09
424.50	393.21
424.69	390.87
424.88	458.74
425.07	397.89
425.26	425.98
425.45	409.59
425.64	444.70
425.83	416.62
426.01	505.56
426.20	451.72
426.39	402.57
426.58	416.62
426.77	428.32
426.96	390.87
427.15	409.59
427.33	435.34
427.52	468.11
427.71	447.04
427.90	468.11
428.09	435.34
428.28	358.10
428.46	397.89
428.65	423.64
428.84	348.74
429.03	468.11
429.22	418.96
429.40	379.17
429.59	395.55
429.78	430.66
429.97	397.89
430.16	458.74
430.34	440.02
430.53	313.63
430.72	369.80
430.91	372.15
431.10	409.59
431.28	442.36
431.47	367.46
431.66	440.02
431.85	442.36
432.03	397.89
432.22	456.40
432.41	440.02
432.60	447.04
432.79	402.57
432.97	397.89
433.16	388.53
433.35	428.32
433.54	372.15
433.72	374.49
433.91	442.36
434.10	379.17
434.28	442.36
434.47	421.30
434.66	362.78
434.85	407.25
435.03	423.64
435.22	411.93
435.41	388.53
435.59	423.64
435.78	381.51
435.97	381.51
436.16	472.79
436.34	416.62
436.53	423.64
436.72	449.38
436.90	390.87
437.09	458.74
437.28	468.11
437.46	437.68
437.65	433.00
437.84	447.04
438.02	358.10
438.21	465.77
438.40	351.08
438.58	360.44
438.77	388.53
438.96	418.96
439.14	411.93
439.33	456.40
439.52	425.98
439.70	449.38
439.89	388.53
440.08	351.08
440.26	444.70
440.45	503.22
440.63	430.66
440.82	423.64
441.01	421.30
441.19	390.87
441.38	447.04
441.57	482.15
441.75	461.09
441.94	418.96
442.12	376.83
442.31	414.27
442.50	425.98
442.68	437.68
442.87	383.85
443.05	372.15
443.24	376.83
443.43	517.26
443.61	496.19
443.80	421.30
443.98	433.00
444.17	395.55
444.35	409.59
444.54	390.87
444.73	397.89
444.91	463.43
445.10	383.85
445.28	362.78
445.47	437.68
445.65	456.40
445.84	418.96
446.02	461.09
446.21	374.49
446.39	386.19
446.58	386.19
446.77	379.17
446.95	479.81
447.14	493.85
447.32	440.02
447.51	489.17
447.69	433.00
447.88	397.89
448.06	430.66
448.25	386.19
448.43	388.53
448.62	465.77
448.80	388.53
448.99	447.04
449.17	470.45
449.36	344.06
449.54	409.59
449.73	397.89
449.91	458.74
450.10	381.51
450.28	484.49
450.46	372.15
450.65	489.17
450.83	468.11
451.02	402.57
451.20	414.27
451.39	341.72
451.57	400.23
451.76	463.43
451.94	381.51
452.13	458.74
452.31	451.72
452.49	402.57
452.68	337.04
452.86	430.66
453.05	526.62
453.23	458.74
453.42	437.68
453.60	425.98
453.78	442.36
453.97	390.87
454.15	374.49
454.34	416.62
454.52	341.72
454.70	510.24
454.89	407.25
455.07	416.62
455.26	414.27
455.44	454.06
455.62	381.51
455.81	404.91
455.99	430.66
456.17	395.55
456.36	397.89
456.54	409.59
456.73	367.46
456.91	388.53
457.09	409.59
457.28	346.40
457.46	374.49
457.64	386.19
457.83	304.27
458.01	379.17
458.19	388.53
458.38	416.62
458.56	416.62
458.74	369.80
458.93	372.15
459.11	425.98
459.29	416.62
459.48	360.44
459.66	400.23
459.84	379.17
460.03	470.45
460.21	498.53
460.39	465.77
460.57	402.57
460.76	332.36
460.94	404.91
461.12	425.98
461.31	468.11
461.49	421.30
461.67	369.80
461.85	423.64
462.04	341.72
462.22	821.53
462.40	402.57
462.59	449.38
462.77	430.66
462.95	402.57
463.13	383.85
463.32	484.49
463.50	435.34
463.68	447.04
463.86	383.85
464.05	379.17
464.23	376.83
464.41	454.06
464.59	379.17
464.78	430.66
464.96	442.36
465.14	428.32
465.32	393.21
465.50	379.17
465.69	388.53
465.87	428.32
466.05	409.59
466.23	381.51
466.41	376.83
466.60	386.19
466.78	491.51
466.96	433.00
467.14	430.66
467.32	463.43
467.51	400.23
467.69	386.19
467.87	416.62
468.05	404.91
468.23	388.53
468.41	465.77
468.60	421.30
468.78	367.46
468.96	454.06
469.14	400.23
469.32	414.27
469.50	381.51
469.69	454.06
469.87	383.85
470.05	397.89
470.23	491.51
470.41	411.93
470.59	346.40
470.77	430.66
470.95	379.17
471.14	437.68
471.32	409.59
471.50	435.34
471.68	437.68
471.86	418.96
472.04	388.53
472.22	458.74
472.40	404.91
472.58	334.70
472.77	344.06
472.95	348.74
473.13	503.22
473.31	388.53
473.49	414.27
473.67	428.32
473.85	428.32
474.03	411.93
474.21	425.98
474.39	440.02
474.57	475.13
474.75	411.93
474.93	395.55
475.12	390.87
475.30	402.57
475.48	362.78
475.66	355.76
475.84	407.25
476.02	390.87
476.20	435.34
476.38	433.00
476.56	414.27
476.74	402.57
476.92	393.21
477.10	409.59
477.28	383.85
477.46	400.23
477.64	421.30
477.82	374.49
478.00	451.72
478.18	451.72
478.36	390.87
478.54	463.43
478.72	418.96
478.90	388.53
479.08	463.43
479.26	451.72
479.44	395.55
479.62	421.30
479.80	369.80
479.98	397.89
480.16	437.68
480.34	447.04
480.52	334.70
480.70	442.36
480.88	390.87
481.06	442.36
481.24	428.32
481.41	430.66
481.59	400.23
481.77	386.19
481.95	397.89
482.13	435.34
482.31	374.49
482.49	358.10
482.67	411.93
482.85	437.68
483.03	397.89
483.21	383.85
483.39	440.02
483.57	425.98
483.74	521.94
483.92	395.55
484.10	416.62
484.28	404.91
484.46	458.74
484.64	437.68
484.82	390.87
485.00	449.38
485.18	397.89
485.35	411.93
485.53	351.08
485.71	440.02
485.89	386.19
486.07	404.91
486.25	491.51
486.43	463.43
486.61	411.93
486.78	454.06
486.96	407.25
487.14	411.93
487.32	402.57
487.50	442.36
487.68	421.30
487.85	397.89
488.03	442.36
488.21	425.98
488.39	388.53
488.57	451.72
488.75	395.55
488.92	528.96
489.10	425.98
489.28	444.70
489.46	393.21
489.64	367.46
489.81	414.27
489.99	451.72
490.17	339.38
490.35	489.17
490.53	402.57
490.70	463.43
490.88	381.51
491.06	423.64
491.24	407.25
491.41	486.83
491.59	447.04
491.77	458.74
491.95	362.78
492.13	409.59
492.30	397.89
492.48	458.74
492.66	358.10
492.84	327.68
493.01	348.74
493.19	402.57
493.37	433.00
493.54	461.09
493.72	435.34
493.90	440.02
494.08	355.76
494.25	442.36
494.43	360.44
494.61	395.55
494.79	386.19
494.96	435.34
495.14	447.04
495.32	327.68
495.49	386.19
495.67	456.40
495.85	418.96
496.02	365.12
496.20	367.46
496.38	444.70
496.55	425.98
496.73	428.32
496.91	463.43
497.09	411.93
497.26	430.66
497.44	449.38
497.62	425.98
497.79	369.80
497.97	369.80
498.14	437.68
498.32	465.77
498.50	397.89
498.67	421.30
498.85	463.43
499.03	409.59
499.20	477.47
499.38	416.62
499.56	428.32
499.73	463.43
499.91	435.34
500.08	444.70
500.26	430.66
500.44	376.83
500.61	421.30
500.79	395.55
500.97	433.00
501.14	482.15
501.32	369.80
501.49	440.02
501.67	430.66
501.84	374.49
502.02	454.06
502.20	425.98
502.37	421.30
502.55	379.17
502.72	498.53
502.90	383.85
503.07	416.62
503.25	461.09
503.43	381.51
503.60	390.87
503.78	402.57
503.95	395.55
504.13	407.25
504.30	425.98
504.48	425.98
504.65	397.89
504.83	379.17
505.01	447.04
505.18	444.70
505.36	472.79
505.53	416.62
505.71	372.15
505.88	418.96
506.06	468.11
506.23	358.10
506.41	421.30
506.58	447.04
506.76	404.91
506.93	437.68
507.11	402.57
507.28	344.06
507.46	433.00
507.63	440.02
507.81	437.68
507.98	381.51
508.16	404.91
508.33	430.66
508.50	435.34
508.68	383.85
508.85	440.02
509.03	428.32
509.20	379.17
509.38	376.83
509.55	479.81
509.73	386.19
509.90	451.72
510.08	435.34
510.25	414.27
510.42	360.44
510.60	423.64
510.77	383.85
510.95	430.66
511.12	360.44
511.30	503.22
511.47	444.70
511.64	423.64
511.82	456.40
511.99	430.66
512.17	486.83
512.34	428.32
512.51	435.34
512.69	388.53
512.86	393.21
513.04	433.00
513.21	465.77
513.38	402.57
513.56	390.87
513.73	386.19
513.90	388.53
514.08	418.96
514.25	465.77
514.43	365.12
514.60	348.74
514.77	379.17
514.95	437.68
515.12	409.59
515.29	414.27
515.47	468.11
515.64	418.96
515.81	393.21
515.99	402.57
516.16	425.98
516.33	433.00
516.51	444.70
516.68	388.53
516.85	348.74
517.03	442.36
517.20	407.25
517.37	346.40
517.54	435.34
517.72	440.02
517.89	400.23
518.06	367.46
518.24	433.00
518.41	461.09
518.58	447.04
518.75	409.59
518.93	395.55
519.10	437.68
519.27	409.59
519.45	423.64
519.62	383.85
519.79	484.49
519.96	376.83
520.14	358.10
520.31	388.53
520.48	416.62
520.65	400.23
520.83	430.66
521.00	425.98
521.17	402.57
521.34	404.91
521.52	383.85
521.69	433.00
521.86	402.57
522.03	341.72
522.20	421.30
522.38	367.46
522.55	475.13
522.72	393.21
522.89	374.49
523.07	496.19
523.24	428.32
523.41	414.27
523.58	414.27
523.75	428.32
523.92	421.30
524.10	404.91
524.27	440.02
524.44	482.15
524.61	470.45
524.78	472.79
524.96	505.56
525.13	376.83
525.30	393.21
525.47	362.78
525.64	416.62
525.81	414.27
525.98	440.02
526.16	433.00
526.33	404.91
526.50	404.91
526.67	386.19
526.84	428.32
527.01	407.25
527.18	395.55
527.36	395.55
527.53	505.56
527.70	465.77
527.87	409.59
528.04	517.26
528.21	393.21
528.38	479.81
528.55	456.40
528.72	423.64
528.89	416.62
529.07	440.02
529.24	423.64
529.41	465.77
529.58	435.34
529.75	437.68
529.92	416.62
530.09	381.51
530.26	458.74
530.43	428.32
530.60	379.17
530.77	472.79
530.94	404.91
531.11	514.92
531.28	437.68
531.46	423.64
531.63	428.32
531.80	407.25
531.97	367.46
532.14	388.53
532.31	425.98
532.48	425.98
532.65	477.47
532.82	395.55
532.99	372.15
533.16	381.51
533.33	433.00
533.50	489.17
533.67	475.13
533.84	421.30
534.01	416.62
534.18	430.66
534.35	430.66
534.52	451.72
534.69	421.30
534.86	367.46
535.03	458.74
535.20	418.96
535.37	456.40
535.54	369.80
535.71	367.46
535.88	404.91
536.05	402.57
536.22	355.76
536.38	449.38
536.55	400.23
536.72	430.66
536.89	409.59
537.06	430.66
537.23	451.72
537.40	414.27
537.57	428.32
537.74	512.58
537.91	435.34
538.08	477.47
538.25	437.68
538.42	435.34
538.59	428.32
538.75	404.91
538.92	404.91
539.09	435.34
539.26	414.27
539.43	433.00
539.60	451.72
539.77	456.40
539.94	416.62
540.11	411.93
540.28	444.70
540.44	475.13
540.61	322.99
540.78	430.66
540.95	388.53
541.12	456.40
541.29	440.02
541.46	393.21
541.62	454.06
541.79	444.70
541.96	421.30
542.13	435.34
542.30	444.70
542.47	404.91
542.63	451.72
542.80	458.74
542.97	400.23
543.14	421.30
543.31	390.87
543.48	402.57
543.64	407.25
543.81	383.85
543.98	440.02
544.15	344.06
544.32	407.25
544.48	411.93
544.65	421.30
544.82	386.19
544.99	334.70
545.16	461.09
545.32	397.89
545.49	470.45
545.66	470.45
545.83	395.55
546.00	334.70
546.16	430.66
546.33	402.57
546.50	397.89
546.67	491.51
546.83	416.62
547.00	409.59
547.17	454.06
547.34	444.70
547.50	404.91
547.67	311.29
547.84	388.53
548.00	465.77
548.17	414.27
548.34	402.57
548.51	402.57
548.67	383.85
548.84	330.02
549.01	447.04
549.18	430.66
549.34	430.66
549.51	425.98
549.68	423.64
549.84	435.34
550.01	425.98
550.18	430.66
550.34	475.13
550.51	416.62
550.68	477.47
550.84	400.23
551.01	374.49
551.18	465.77
551.34	400.23
551.51	440.02
551.68	390.87
551.84	440.02
552.01	423.64
552.18	402.57
552.34	472.79
552.51	440.02
552.68	470.45
552.84	449.38
553.01	425.98
553.18	465.77
553.34	404.91
553.51	468.11
553.67	423.64
553.84	538.32
554.01	383.85
554.17	402.57
554.34	470.45
554.51	416.62
554.67	376.83
554.84	470.45
555.00	458.74
555.17	472.79
555.33	425.98
555.50	433.00
555.67	421.30
555.83	414.27
556.00	435.34
556.16	503.22
556.33	463.43
556.50	404.91
556.66	491.51
556.83	425.98
556.99	395.55
557.16	425.98
557.32	395.55
557.49	430.66
557.65	437.68
557.82	416.62
557.98	421.30
558.15	425.98
558.32	407.25
558.48	372.15
558.65	418.96
558.81	388.53
558.98	444.70
559.14	472.79
559.31	372.15
559.47	402.57
559.64	362.78
559.80	409.59
559.97	381.51
560.13	372.15
560.30	402.57
560.46	491.51
560.63	435.34
560.79	353.42
560.96	456.40
561.12	358.10
561.29	383.85
561.45	365.12
561.61	414.27
561.78	521.94
561.94	482.15
562.11	365.12
562.27	346.40
562.44	393.21
562.60	409.59
562.77	461.09
562.93	442.36
563.10	374.49
563.26	437.68
563.42	440.02
563.59	409.59
563.75	383.85
563.92	386.19
564.08	411.93
564.24	510.24
564.41	451.72
564.57	423.64
564.74	470.45
564.90	423.64
565.07	430.66
565.23	437.68
565.39	376.83
565.56	440.02
565.72	456.40
565.88	383.85
566.05	430.66
566.21	416.62
566.38	484.49
566.54	447.04
566.70	433.00
566.87	379.17
567.03	437.68
567.19	395.55
567.36	428.32
567.52	409.59
567.68	440.02
567.85	386.19
568.01	416.62
568.17	393.21
568.34	416.62
568.50	470.45
568.66	404.91
568.83	510.24
568.99	369.80
569.15	454.06
569.32	472.79
569.48	449.38
569.64	440.02
569.81	414.27
569.97	421.30
570.13	418.96
570.30	449.38
570.46	421.30
570.62	409.59
570.78	353.42
570.95	402.57
571.11	447.04
571.27	493.85
571.43	390.87
571.60	395.55
571.76	437.68
571.92	430.66
572.09	393.21
572.25	451.72
572.41	360.44
572.57	428.32
572.74	435.34
572.90	393.21
573.06	395.55
573.22	418.96
573.38	414.27
573.55	514.92
573.71	421.30
573.87	411.93
574.03	397.89
574.20	367.46
574.36	463.43
574.52	458.74
574.68	430.66
574.84	442.36
575.01	437.68
575.17	470.45
575.33	421.30
575.49	423.64
575.65	458.74
575.82	498.53
575.98	386.19
576.14	407.25
576.30	374.49
576.46	500.87
576.62	433.00
576.79	444.70
576.95	447.04
577.11	433.00
577.27	292.57
577.43	414.27
577.59	447.04
577.75	454.06
577.92	463.43
578.08	397.89
578.24	365.12
578.40	407.25
578.56	435.34
578.72	468.11
578.88	388.53
579.04	425.98
579.21	367.46
579.37	409.59
579.53	444.70
579.69	463.43
579.85	379.17
580.01	428.32
580.17	421.30
580.33	383.85
580.49	407.25
580.65	414.27
580.82	458.74
580.98	461.09
581.14	383.85
581.30	372.15
581.46	395.55
581.62	386.19
581.78	416.62
581.94	447.04
582.10	421.30
582.26	458.74
582.42	397.89
582.58	379.17
582.74	374.49
582.90	402.57
583.06	535.98
583.22	444.70
583.38	379.17
583.54	355.76
583.70	362.78
583.86	428.32
584.02	449.38
584.18	351.08
584.34	428.32
584.50	435.34
584.66	393.21
584.82	449.38
584.98	444.70
585.14	381.51
585.30	416.62
585.46	404.91
585.62	425.98
585.78	395.55
585.94	411.93
586.10	397.89
586.26	353.42
586.42	498.53
586.58	440.02
586.74	418.96
586.90	475.13
587.06	433.00
587.22	435.34
587.38	437.68
587.54	482.15
587.70	369.80
587.86	348.74
588.02	400.23
588.18	360.44
588.34	437.68
588.49	386.19
588.65	517.26
588.81	393.21
588.97	400.23
589.13	440.02
589.29	435.34
589.45	472.79
589.61	472.79
589.77	447.04
589.93	383.85
590.08	379.17
590.24	372.15
590.40	433.00
590.56	383.85
590.72	397.89
590.88	444.70
591.04	416.62
591.20	418.96
591.35	442.36
591.51	400.23
591.67	442.36
591.83	409.59
591.99	423.64
592.15	458.74
592.31	482.15
592.46	433.00
592.62	458.74
592.78	355.76
592.94	496.19
593.10	395.55
593.26	414.27
593.41	440.02
593.57	362.78
593.73	346.40
593.89	388.53
594.05	386.19
594.20	402.57
594.36	425.98
594.52	440.02
594.68	416.62
594.84	390.87
594.99	386.19
595.15	430.66
595.31	404.91
595.47	463.43
595.62	461.09
595.78	397.89
595.94	402.57
596.10	451.72
596.25	447.04
596.41	402.57
596.57	395.55
596.73	423.64
596.88	376.83
597.04	463.43
597.20	395.55
597.36	451.72
597.51	390.87
597.67	440.02
597.83	425.98
597.99	430.66
598.14	411.93
598.30	458.74
598.46	465.77
598.61	461.09
598.77	414.27
598.93	440.02
599.09	393.21
599.24	468.11
599.40	533.64
599.56	411.93
599.71	421.30
599.87	388.53
600.03	421.30
600.18	397.89
600.34	418.96
600.50	320.65
600.65	416.62
600.81	465.77
600.97	418.96
601.12	437.68
601.28	465.77
601.44	409.59
601.59	437.68
601.75	374.49
601.91	358.10
602.06	414.27
602.22	479.81
602.37	425.98
602.53	428.32
602.69	435.34
602.84	447.04
603.00	369.80
603.16	503.22
603.31	393.21
603.47	498.53
603.62	395.55
603.78	440.02
603.94	430.66
604.09	428.32
604.25	351.08
604.40	451.72
604.56	374.49
604.71	461.09
604.87	423.64
605.03	477.47
605.18	402.57
605.34	449.38
605.49	390.87
605.65	475.13
605.80	425.98
605.96	433.00
606.12	353.42
606.27	388.53
606.43	390.87
606.58	519.60
606.74	390.87
606.89	425.98
607.05	442.36
607.20	468.11
607.36	430.66
607.51	369.80
607.67	454.06
607.82	390.87
607.98	397.89
608.13	348.74
608.29	388.53
608.44	383.85
608.60	447.04
608.75	484.49
608.91	425.98
609.06	397.89
609.22	386.19
609.37	383.85
609.53	437.68
609.68	418.96
609.84	447.04
609.99	437.68
610.15	383.85
610.30	418.96
610.46	367.46
610.61	447.04
610.76	358.10
610.92	402.57
611.07	454.06
611.23	440.02
611.38	411.93
611.54	360.44
611.69	411.93
611.84	425.98
612.00	402.57
612.15	414.27
612.31	475.13
612.46	393.21
612.62	390.87
612.77	395.55
612.92	404.91
613.08	421.30
613.23	437.68
613.39	411.93
613.54	402.57
613.69	430.66
613.85	397.89
614.00	390.87
614.15	440.02
614.31	379.17
614.46	428.32
614.62	337.04
614.77	484.49
614.92	433.00
615.08	388.53
615.23	355.76
615.38	353.42
615.54	404.91
615.69	409.59
615.84	334.70
616.00	409.59
616.15	411.93
616.30	376.83
616.46	383.85
616.61	428.32
616.76	372.15
616.92	477.47
617.07	447.04
617.22	318.31
617.37	397.89
617.53	386.19
617.68	456.40
617.83	491.51
617.99	423.64
618.14	411.93
618.29	390.87
618.45	444.70
618.60	372.15
618.75	465.77
618.90	365.12
619.06	369.80
619.21	472.79
619.36	428.32
619.51	374.49
619.67	351.08
619.82	395.55
619.97	428.32
620.12	458.74
620.28	393.21
620.43	353.42
620.58	379.17
620.73	425.98
620.89	482.15
621.04	430.66
621.19	463.43
621.34	409.59
621.49	416.62
621.65	365.12
621.80	400.23
621.95	425.98
622.10	407.25
622.25	428.32
622.41	447.04
622.56	409.59
622.71	425.98
622.86	390.87
623.01	491.51
623.16	454.06
623.32	454.06
623.47	423.64
623.62	381.51
623.77	421.30
623.92	447.04
624.07	447.04
624.23	393.21
624.38	421.30
624.53	393.21
624.68	393.21
624.83	409.59
624.98	493.85
625.13	428.32
625.29	423.64
625.44	409.59
625.59	449.38
625.74	428.32
625.89	447.04
626.04	351.08
626.19	440.02
626.34	418.96
626.49	407.25
626.65	362.78
626.80	402.57
626.95	341.72
627.10	383.85
627.25	477.47
627.40	395.55
627.55	383.85
627.70	442.36
627.85	351.08
628.00	421.30
628.15	397.89
628.30	416.62
628.45	435.34
628.60	353.42
628.76	458.74
628.91	442.36
629.06	425.98
629.21	458.74
629.36	409.59
629.51	423.64
629.66	372.15
629.81	496.19
629.96	470.45
630.11	461.09
630.26	358.10
630.41	381.51
630.56	383.85
630.71	414.27
630.86	369.80
631.01	379.17
631.16	458.74
631.31	423.64
631.46	362.78
631.61	388.53
631.76	447.04
631.91	430.66
632.06	440.02
632.21	297.25
632.36	428.32
632.51	388.53
632.66	428.32
632.81	369.80
632.96	383.85
633.10	435.34
633.25	454.06
633.40	423.64
633.55	468.11
633.70	423.64
633.85	414.27
634.00	362.78
634.15	409.59
634.30	383.85
634.45	402.57
634.60	425.98
634.75	337.04
634.90	449.38
635.05	346.40
635.19	454.06
635.34	404.91
635.49	428.32
635.64	381.51
635.79	428.32
635.94	440.02
636.09	444.70
636.24	461.09
636.39	362.78
636.53	444.70
636.68	456.40
636.83	355.76
636.98	435.34
637.13	486.83
637.28	444.70
637.43	486.83
637.57	418.96
637.72	418.96
637.87	400.23
638.02	402.57
638.17	367.46
638.32	411.93
638.46	379.17
638.61	442.36
638.76	447.04
638.91	421.30
639.06	383.85
639.20	397.89
639.35	458.74
639.50	388.53
639.65	451.72
639.80	411.93
639.94	449.38
640.09	528.96
640.24	472.79
640.39	435.34
640.54	463.43
640.68	456.40
640.83	414.27
640.98	449.38
641.13	421.30
641.27	369.80
641.42	402.57
641.57	451.72
641.72	454.06
641.86	395.55
642.01	451.72
642.16	393.21
642.31	360.44
642.45	444.70
642.60	437.68
642.75	397.89
642.90	409.59
643.04	386.19
643.19	442.36
643.34	395.55
643.48	397.89
643.63	475.13
643.78	465.77
643.93	425.98
644.07	409.59
644.22	458.74
644.37	444.70
644.51	411.93
644.66	465.77
644.81	458.74
644.95	470.45
645.10	388.53
645.25	449.38
645.39	381.51
645.54	402.57
645.69	430.66
645.83	393.21
645.98	479.81
646.13	341.72
646.27	381.51
646.42	362.78
646.57	430.66
646.71	390.87
646.86	505.56
647.00	456.40
647.15	489.17
647.30	379.17
647.44	411.93
647.59	334.70
647.74	337.04
647.88	409.59
648.03	451.72
648.17	477.47
648.32	362.78
648.47	397.89
648.61	365.12
648.76	407.25
648.90	393.21
649.05	421.30
649.20	372.15
649.34	491.51
649.49	421.30
649.63	430.66
649.78	337.04
649.92	407.25
650.07	388.53
650.21	395.55
650.36	423.64
650.51	369.80
650.65	458.74
650.80	444.70
650.94	440.02
651.09	407.25
651.23	425.98
651.38	442.36
651.52	437.68
651.67	402.57
651.81	393.21
651.96	383.85
652.10	425.98
652.25	388.53
652.39	461.09
652.54	402.57
652.68	425.98
652.83	454.06
652.97	484.49
653.12	372.15
653.26	418.96
653.41	339.38
653.55	479.81
653.70	374.49
653.84	308.95
653.99	395.55
654.13	451.72
654.27	444.70
654.42	428.32
654.56	395.55
654.71	379.17
654.85	489.17
655.00	407.25
655.14	430.66
655.29	369.80
655.43	365.12
655.57	369.80
655.72	374.49
655.86	397.89
656.01	440.02
656.15	411.93
656.30	444.70
656.44	346.40
656.58	468.11
656.73	451.72
656.87	397.89
657.01	374.49
657.16	463.43
657.30	425.98
657.45	416.62
657.59	395.55
657.73	374.49
657.88	444.70
658.02	449.38
658.16	468.11
658.31	423.64
658.45	484.49
658.60	386.19
658.74	435.34
658.88	390.87
659.03	383.85
659.17	358.10
659.31	369.80
659.46	421.30
659.60	416.62
659.74	400.23
659.89	423.64
660.03	407.25
660.17	470.45
660.32	475.13
660.46	411.93
660.60	458.74
660.74	454.06
660.89	444.70
661.03	397.89
661.17	393.21
661.32	411.93
661.46	327.68
661.60	444.70
661.74	468.11
661.89	507.90
662.03	435.34
662.17	435.34
662.31	421.30
662.46	428.32
662.60	416.62
662.74	418.96
662.88	447.04
663.03	409.59
663.17	390.87
663.31	402.57
663.45	463.43
663.60	404.91
663.74	451.72
663.88	393.21
664.02	461.09
664.17	416.62
664.31	395.55
664.45	397.89
664.59	437.68
664.73	379.17
664.88	395.55
665.02	404.91
665.16	362.78
665.30	468.11
665.44	351.08
665.59	458.74
665.73	416.62
665.87	456.40
666.01	428.32
666.15	407.25
666.29	393.21
666.44	493.85
666.58	440.02
666.72	470.45
666.86	465.77
667.00	395.55
667.14	435.34
667.28	461.09
667.43	374.49
667.57	381.51
667.71	404.91
667.85	437.68
667.99	311.29
668.13	411.93
668.27	379.17
668.41	381.51
668.56	402.57
668.70	407.25
668.84	414.27
668.98	421.30
669.12	388.53
669.26	428.32
669.40	428.32
669.54	367.46
669.68	437.68
669.82	409.59
669.96	409.59
670.10	404.91
670.25	393.21
670.39	416.62
670.53	416.62
670.67	428.32
670.81	367.46
670.95	456.40
671.09	458.74
671.23	414.27
671.37	451.72
671.51	442.36
671.65	411.93
671.79	430.66
671.93	463.43
672.07	465.77
672.21	402.57
672.35	444.70
672.49	414.27
672.63	437.68
672.77	379.17
672.91	454.06
673.05	440.02
673.19	454.06
673.33	409.59
673.47	442.36
673.61	400.23
673.75	428.32
673.89	442.36
674.03	397.89
674.17	409.59
674.31	421.30
674.45	404.91
674.59	388.53
674.73	409.59
674.87	418.96
675.01	442.36
675.15	458.74
675.29	486.83
675.43	435.34
675.56	395.55
675.70	390.87
675.84	442.36
675.98	451.72
676.12	414.27
676.26	330.02
676.40	318.31
676.54	374.49
676.68	425.98
676.82	458.74
676.96	393.21
677.10	402.57
677.23	444.70
677.37	386.19
677.51	407.25
677.65	521.94
677.79	442.36
677.93	454.06
678.07	379.17
678.21	367.46
678.34	393.21
678.48	425.98
678.62	451.72
678.76	360.44
678.90	379.17
679.04	416.62
679.18	369.80
679.31	451.72
679.45	372.15
679.59	414.27
679.73	433.00
679.87	465.77
680.00	400.23
680.14	421.30
680.28	369.80
680.42	402.57
680.56	430.66
680.70	390.87
680.83	400.23
680.97	521.94
681.11	454.06
681.25	451.72
681.39	465.77
681.52	416.62
681.66	470.45
681.80	463.43
681.94	358.10
682.07	409.59
682.21	369.80
682.35	365.12
682.49	367.46
682.62	407.25
682.76	402.57
682.90	414.27
683.04	456.40
683.17	456.40
683.31	437.68
683.45	383.85
683.59	414.27
683.72	411.93
683.86	472.79
684.00	348.74
684.13	435.34
684.27	388.53
684.41	400.23
684.55	386.19
684.68	393.21
684.82	318.31
684.96	430.66
685.09	456.40
685.23	440.02
685.37	414.27
685.50	365.12
685.64	461.09
685.78	430.66
685.91	444.70
686.05	435.34
686.19	454.06
686.32	470.45
686.46	463.43
686.60	421.30
686.73	496.19
686.87	486.83
687.01	402.57
687.14	332.36
687.28	393.21
687.42	360.44
687.55	360.44
687.69	390.87
687.82	386.19
687.96	449.38
688.10	440.02
688.23	407.25
688.37	397.89
688.50	400.23
688.64	395.55
688.78	451.72
688.91	390.87
689.05	414.27
689.18	388.53
689.32	374.49
689.46	397.89
689.59	411.93
689.73	404.91
689.86	376.83
690.00	430.66
690.13	393.21
690.27	374.49
690.41	475.13
690.54	489.17
690.68	397.89
690.81	351.08
690.95	433.00
691.08	449.38
691.22	365.12
691.35	479.81
691.49	414.27
691.62	386.19
691.76	379.17
691.89	395.55
692.03	376.83
692.16	421.30
692.30	411.93
692.43	409.59
692.57	454.06
692.70	418.96
692.84	376.83
692.97	407.25
693.11	409.59
693.24	458.74
693.38	360.44
693.51	425.98
693.65	421.30
693.78	440.02
693.92	400.23
694.05	505.56
694.19	379.17
694.32	416.62
694.45	425.98
694.59	425.98
694.72	468.11
694.86	454.06
694.99	435.34
695.13	421.30
695.26	411.93
695.39	454.06
695.53	477.47
695.66	440.02
695.80	348.74
695.93	418.96
696.07	365.12
696.20	404.91
696.33	407.25
696.47	435.34
696.60	395.55
696.73	407.25
696.87	430.66
697.00	440.02
697.14	407.25
697.27	428.32
697.40	524.28
697.54	411.93
697.67	507.90
697.80	374.49
697.94	435.34
698.07	362.78
698.21	421.30
698.34	475.13
698.47	430.66
698.61	458.74
698.74	416.62
698.87	444.70
699.01	365.12
699.14	330.02
699.27	482.15
699.40	428.32
699.54	393.21
699.67	428.32
699.80	400.23
699.94	425.98
700.07	369.80
700.20	440.02
700.34	383.85
700.47	395.55
700.60	496.19
700.73	397.89
700.87	437.68
701.00	372.15
701.13	395.55
701.26	404.91
701.40	374.49
701.53	430.66
701.66	369.80
701.79	454.06
701.93	414.27
702.06	355.76
702.19	425.98
702.32	451.72
702.46	393.21
702.59	437.68
702.72	437.68
702.85	416.62
702.99	400.23
703.12	449.38
703.25	454.06
703.38	451.72
703.51	470.45
703.65	381.51
703.78	358.10
703.91	444.70
704.04	447.04
704.17	334.70
704.31	395.55
704.44	360.44
704.57	372.15
704.70	383.85
704.83	372.15
704.96	528.96
705.10	423.64
705.23	437.68
>>>>>End Processed Spectral Data<<<<<
