SpectraSuite Data File
++++++++++++++++++++++++++++++++++++
Date: Fri Oct 25 12:10:44 EDT 2013
User: price-jones
Dark Spectrum Present: No
Reference Spectrum Present: No
Number of Sampled Component Spectra: 1
Spectrometers: USB2+H05261
Integration Time (usec): 100000 (USB2+H05261)
Spectra Averaged: 1 (USB2+H05261)
Boxcar Smoothing: 0 (USB2+H05261)
Correct for Electrical Dark: No (USB2+H05261)
Strobe/Lamp Enabled: No (USB2+H05261)
Correct for Detector Non-linearity: No (USB2+H05261)
Correct for Stray Light: No (USB2+H05261)
Number of Pixels in Processed Spectrum: 2048
>>>>>Begin Processed Spectral Data<<<<<
365.73	395.55
365.92	395.55
366.12	395.55
366.32	245.76
366.52	243.42
366.72	266.82
366.91	257.46
367.11	189.58
367.31	241.08
367.51	210.65
367.70	224.69
367.90	262.14
368.10	231.71
368.30	243.42
368.49	238.73
368.69	238.73
368.89	278.52
369.09	182.56
369.28	220.01
369.48	290.23
369.68	250.44
369.87	322.99
370.07	266.82
370.27	341.72
370.47	339.38
370.66	325.33
370.86	344.06
371.06	386.19
371.25	355.76
371.45	318.31
371.65	355.76
371.84	287.89
372.04	421.30
372.24	430.66
372.44	351.08
372.63	411.93
372.83	451.72
373.03	386.19
373.22	435.34
373.42	409.59
373.62	477.47
373.81	388.53
374.01	444.70
374.21	470.45
374.40	440.02
374.60	430.66
374.79	374.49
374.99	386.19
375.19	402.57
375.38	449.38
375.58	346.40
375.78	437.68
375.97	411.93
376.17	503.22
376.37	386.19
376.56	418.96
376.76	395.55
376.95	404.91
377.15	397.89
377.35	393.21
377.54	386.19
377.74	411.93
377.93	421.30
378.13	418.96
378.33	463.43
378.52	386.19
378.72	360.44
378.91	433.00
379.11	407.25
379.31	484.49
379.50	402.57
379.70	374.49
379.89	425.98
380.09	330.02
380.28	390.87
380.48	383.85
380.68	407.25
380.87	348.74
381.07	465.77
381.26	447.04
381.46	362.78
381.65	479.81
381.85	322.99
382.04	388.53
382.24	374.49
382.43	430.66
382.63	365.12
382.83	402.57
383.02	451.72
383.22	404.91
383.41	404.91
383.61	358.10
383.80	381.51
384.00	369.80
384.19	381.51
384.39	407.25
384.58	395.55
384.78	435.34
384.97	381.51
385.17	423.64
385.36	400.23
385.56	404.91
385.75	407.25
385.95	353.42
386.14	337.04
386.34	407.25
386.53	404.91
386.72	362.78
386.92	461.09
387.11	421.30
387.31	414.27
387.50	430.66
387.70	376.83
387.89	353.42
388.09	390.87
388.28	425.98
388.48	472.79
388.67	423.64
388.86	374.49
389.06	386.19
389.25	407.25
389.45	463.43
389.64	425.98
389.84	374.49
390.03	374.49
390.22	423.64
390.42	390.87
390.61	411.93
390.81	390.87
391.00	449.38
391.19	468.11
391.39	477.47
391.58	395.55
391.78	433.00
391.97	346.40
392.16	477.47
392.36	433.00
392.55	383.85
392.75	362.78
392.94	416.62
393.13	447.04
393.33	346.40
393.52	325.33
393.71	423.64
393.91	379.17
394.10	430.66
394.29	421.30
394.49	337.04
394.68	400.23
394.88	390.87
395.07	421.30
395.26	411.93
395.46	458.74
395.65	409.59
395.84	386.19
396.04	472.79
396.23	414.27
396.42	456.40
396.62	421.30
396.81	397.89
397.00	400.23
397.19	393.21
397.39	449.38
397.58	430.66
397.77	383.85
397.97	437.68
398.16	421.30
398.35	404.91
398.55	388.53
398.74	358.10
398.93	442.36
399.12	407.25
399.32	395.55
399.51	407.25
399.70	428.32
399.90	421.30
400.09	475.13
400.28	479.81
400.47	358.10
400.67	425.98
400.86	425.98
401.05	411.93
401.24	369.80
401.44	407.25
401.63	421.30
401.82	397.89
402.01	421.30
402.21	437.68
402.40	423.64
402.59	367.46
402.78	376.83
402.97	404.91
403.17	442.36
403.36	421.30
403.55	442.36
403.74	451.72
403.93	421.30
404.13	414.27
404.32	397.89
404.51	353.42
404.70	388.53
404.89	440.02
405.09	461.09
405.28	397.89
405.47	358.10
405.66	430.66
405.85	423.64
406.05	402.57
406.24	435.34
406.43	362.78
406.62	475.13
406.81	461.09
407.00	444.70
407.20	449.38
407.39	437.68
407.58	395.55
407.77	320.65
407.96	383.85
408.15	404.91
408.34	435.34
408.54	425.98
408.73	395.55
408.92	381.51
409.11	465.77
409.30	484.49
409.49	435.34
409.68	358.10
409.87	325.33
410.07	404.91
410.26	367.46
410.45	433.00
410.64	381.51
410.83	414.27
411.02	341.72
411.21	386.19
411.40	418.96
411.59	442.36
411.78	465.77
411.98	461.09
412.17	341.72
412.36	442.36
412.55	395.55
412.74	423.64
412.93	449.38
413.12	437.68
413.31	404.91
413.50	475.13
413.69	400.23
413.88	514.92
414.07	390.87
414.26	428.32
414.45	447.04
414.64	374.49
414.83	428.32
415.02	430.66
415.22	397.89
415.41	451.72
415.60	383.85
415.79	367.46
415.98	435.34
416.17	348.74
416.36	414.27
416.55	444.70
416.74	470.45
416.93	477.47
417.12	461.09
417.31	409.59
417.50	463.43
417.69	409.59
417.88	362.78
418.07	447.04
418.26	334.70
418.45	367.46
418.64	479.81
418.83	409.59
419.02	383.85
419.21	397.89
419.39	397.89
419.58	423.64
419.77	379.17
419.96	433.00
420.15	435.34
420.34	402.57
420.53	418.96
420.72	388.53
420.91	407.25
421.10	397.89
421.29	414.27
421.48	444.70
421.67	468.11
421.86	477.47
422.05	440.02
422.24	435.34
422.43	442.36
422.61	407.25
422.80	376.83
422.99	337.04
423.18	430.66
423.37	444.70
423.56	470.45
423.75	458.74
423.94	498.53
424.13	376.83
424.32	337.04
424.50	388.53
424.69	423.64
424.88	447.04
425.07	454.06
425.26	437.68
425.45	451.72
425.64	421.30
425.83	423.64
426.01	458.74
426.20	376.83
426.39	463.43
426.58	397.89
426.77	442.36
426.96	447.04
427.15	372.15
427.33	454.06
427.52	404.91
427.71	383.85
427.90	458.74
428.09	400.23
428.28	437.68
428.46	444.70
428.65	362.78
428.84	428.32
429.03	414.27
429.22	442.36
429.40	411.93
429.59	444.70
429.78	510.24
429.97	428.32
430.16	435.34
430.34	386.19
430.53	360.44
430.72	390.87
430.91	428.32
431.10	416.62
431.28	372.15
431.47	451.72
431.66	372.15
431.85	348.74
432.03	454.06
432.22	444.70
432.41	322.99
432.60	477.47
432.79	425.98
432.97	411.93
433.16	479.81
433.35	491.51
433.54	365.12
433.72	402.57
433.91	491.51
434.10	454.06
434.28	465.77
434.47	407.25
434.66	421.30
434.85	388.53
435.03	360.44
435.22	503.22
435.41	425.98
435.59	433.00
435.78	386.19
435.97	404.91
436.16	430.66
436.34	358.10
436.53	437.68
436.72	409.59
436.90	451.72
437.09	376.83
437.28	409.59
437.46	397.89
437.65	395.55
437.84	411.93
438.02	454.06
438.21	379.17
438.40	425.98
438.58	402.57
438.77	369.80
438.96	414.27
439.14	465.77
439.33	454.06
439.52	470.45
439.70	418.96
439.89	435.34
440.08	400.23
440.26	414.27
440.45	400.23
440.63	437.68
440.82	454.06
441.01	411.93
441.19	418.96
441.38	428.32
441.57	435.34
441.75	402.57
441.94	451.72
442.12	355.76
442.31	379.17
442.50	365.12
442.68	407.25
442.87	444.70
443.05	423.64
443.24	461.09
443.43	395.55
443.61	376.83
443.80	400.23
443.98	437.68
444.17	435.34
444.35	498.53
444.54	407.25
444.73	332.36
444.91	496.19
445.10	423.64
445.28	407.25
445.47	367.46
445.65	428.32
445.84	386.19
446.02	407.25
446.21	430.66
446.39	451.72
446.58	440.02
446.77	418.96
446.95	386.19
447.14	435.34
447.32	461.09
447.51	416.62
447.69	463.43
447.88	379.17
448.06	362.78
448.25	463.43
448.43	451.72
448.62	381.51
448.80	442.36
448.99	411.93
449.17	351.08
449.36	411.93
449.54	418.96
449.73	388.53
449.91	479.81
450.10	341.72
450.28	461.09
450.46	444.70
450.65	496.19
450.83	454.06
451.02	414.27
451.20	409.59
451.39	435.34
451.57	376.83
451.76	372.15
451.94	292.57
452.13	433.00
452.31	465.77
452.49	397.89
452.68	402.57
452.86	435.34
453.05	442.36
453.23	454.06
453.42	470.45
453.60	414.27
453.78	397.89
453.97	416.62
454.15	383.85
454.34	430.66
454.52	400.23
454.70	414.27
454.89	400.23
455.07	393.21
455.26	397.89
455.44	425.98
455.62	393.21
455.81	433.00
455.99	418.96
456.17	409.59
456.36	444.70
456.54	390.87
456.73	440.02
456.91	416.62
457.09	400.23
457.28	435.34
457.46	376.83
457.64	425.98
457.83	379.17
458.01	386.19
458.19	407.25
458.38	400.23
458.56	437.68
458.74	414.27
458.93	362.78
459.11	437.68
459.29	425.98
459.48	404.91
459.66	472.79
459.84	456.40
460.03	402.57
460.21	418.96
460.39	421.30
460.57	451.72
460.76	409.59
460.94	435.34
461.12	491.51
461.31	477.47
461.49	416.62
461.67	463.43
461.85	461.09
462.04	423.64
462.22	823.87
462.40	449.38
462.59	393.21
462.77	404.91
462.95	404.91
463.13	379.17
463.32	451.72
463.50	397.89
463.68	404.91
463.86	386.19
464.05	430.66
464.23	505.56
464.41	437.68
464.59	416.62
464.78	315.97
464.96	362.78
465.14	407.25
465.32	320.65
465.50	411.93
465.69	500.87
465.87	390.87
466.05	489.17
466.23	416.62
466.41	379.17
466.60	355.76
466.78	383.85
466.96	358.10
467.14	348.74
467.32	503.22
467.51	475.13
467.69	442.36
467.87	479.81
468.05	407.25
468.23	435.34
468.41	433.00
468.60	402.57
468.78	442.36
468.96	425.98
469.14	381.51
469.32	383.85
469.50	369.80
469.69	486.83
469.87	437.68
470.05	332.36
470.23	411.93
470.41	454.06
470.59	360.44
470.77	442.36
470.95	449.38
471.14	463.43
471.32	421.30
471.50	456.40
471.68	383.85
471.86	397.89
472.04	402.57
472.22	437.68
472.40	409.59
472.58	411.93
472.77	379.17
472.95	325.33
473.13	449.38
473.31	416.62
473.49	383.85
473.67	404.91
473.85	482.15
474.03	418.96
474.21	477.47
474.39	383.85
474.57	470.45
474.75	470.45
474.93	440.02
475.12	369.80
475.30	402.57
475.48	404.91
475.66	372.15
475.84	400.23
476.02	407.25
476.20	409.59
476.38	465.77
476.56	468.11
476.74	442.36
476.92	430.66
477.10	423.64
477.28	479.81
477.46	454.06
477.64	418.96
477.82	407.25
478.00	360.44
478.18	402.57
478.36	407.25
478.54	447.04
478.72	428.32
478.90	456.40
479.08	411.93
479.26	437.68
479.44	351.08
479.62	393.21
479.80	334.70
479.98	395.55
480.16	423.64
480.34	390.87
480.52	423.64
480.70	458.74
480.88	348.74
481.06	383.85
481.24	411.93
481.41	374.49
481.59	369.80
481.77	421.30
481.95	442.36
482.13	477.47
482.31	409.59
482.49	397.89
482.67	411.93
482.85	440.02
483.03	358.10
483.21	393.21
483.39	423.64
483.57	362.78
483.74	411.93
483.92	454.06
484.10	411.93
484.28	409.59
484.46	507.90
484.64	367.46
484.82	454.06
485.00	339.38
485.18	447.04
485.35	458.74
485.53	486.83
485.71	360.44
485.89	383.85
486.07	402.57
486.25	437.68
486.43	423.64
486.61	402.57
486.78	409.59
486.96	463.43
487.14	430.66
487.32	507.90
487.50	444.70
487.68	505.56
487.85	407.25
488.03	334.70
488.21	461.09
488.39	395.55
488.57	430.66
488.75	386.19
488.92	454.06
489.10	379.17
489.28	449.38
489.46	449.38
489.64	381.51
489.81	421.30
489.99	414.27
490.17	451.72
490.35	507.90
490.53	383.85
490.70	407.25
490.88	376.83
491.06	388.53
491.24	482.15
491.41	400.23
491.59	393.21
491.77	355.76
491.95	421.30
492.13	407.25
492.30	440.02
492.48	402.57
492.66	421.30
492.84	395.55
493.01	423.64
493.19	428.32
493.37	423.64
493.54	421.30
493.72	400.23
493.90	393.21
494.08	425.98
494.25	463.43
494.43	440.02
494.61	376.83
494.79	433.00
494.96	425.98
495.14	447.04
495.32	440.02
495.49	383.85
495.67	475.13
495.85	470.45
496.02	458.74
496.20	397.89
496.38	414.27
496.55	381.51
496.73	433.00
496.91	440.02
497.09	428.32
497.26	428.32
497.44	339.38
497.62	379.17
497.79	376.83
497.97	454.06
498.14	339.38
498.32	386.19
498.50	421.30
498.67	407.25
498.85	475.13
499.03	381.51
499.20	367.46
499.38	362.78
499.56	381.51
499.73	507.90
499.91	454.06
500.08	402.57
500.26	470.45
500.44	454.06
500.61	362.78
500.79	379.17
500.97	500.87
501.14	381.51
501.32	397.89
501.49	397.89
501.67	383.85
501.84	437.68
502.02	416.62
502.20	430.66
502.37	430.66
502.55	402.57
502.72	402.57
502.90	444.70
503.07	341.72
503.25	491.51
503.43	444.70
503.60	395.55
503.78	421.30
503.95	409.59
504.13	386.19
504.30	365.12
504.48	475.13
504.65	461.09
504.83	435.34
505.01	386.19
505.18	379.17
505.36	390.87
505.53	414.27
505.71	414.27
505.88	402.57
506.06	440.02
506.23	472.79
506.41	369.80
506.58	337.04
506.76	414.27
506.93	444.70
507.11	409.59
507.28	299.59
507.46	400.23
507.63	395.55
507.81	458.74
507.98	393.21
508.16	507.90
508.33	416.62
508.50	365.12
508.68	376.83
508.85	325.33
509.03	404.91
509.20	346.40
509.38	369.80
509.55	477.47
509.73	486.83
509.90	475.13
510.08	418.96
510.25	414.27
510.42	411.93
510.60	414.27
510.77	362.78
510.95	390.87
511.12	423.64
511.30	421.30
511.47	411.93
511.64	442.36
511.82	423.64
511.99	423.64
512.17	416.62
512.34	383.85
512.51	423.64
512.69	358.10
512.86	442.36
513.04	428.32
513.21	414.27
513.38	418.96
513.56	437.68
513.73	388.53
513.90	376.83
514.08	400.23
514.25	388.53
514.43	416.62
514.60	381.51
514.77	449.38
514.95	421.30
515.12	418.96
515.29	388.53
515.47	444.70
515.64	421.30
515.81	484.49
515.99	442.36
516.16	428.32
516.33	402.57
516.51	468.11
516.68	442.36
516.85	379.17
517.03	409.59
517.20	355.76
517.37	404.91
517.54	454.06
517.72	444.70
517.89	458.74
518.06	437.68
518.24	369.80
518.41	428.32
518.58	449.38
518.75	397.89
518.93	409.59
519.10	407.25
519.27	463.43
519.45	416.62
519.62	348.74
519.79	465.77
519.96	390.87
520.14	358.10
520.31	407.25
520.48	341.72
520.65	472.79
520.83	365.12
521.00	365.12
521.17	482.15
521.34	442.36
521.52	407.25
521.69	479.81
521.86	425.98
522.03	421.30
522.20	393.21
522.38	489.17
522.55	383.85
522.72	367.46
522.89	409.59
523.07	428.32
523.24	369.80
523.41	400.23
523.58	461.09
523.75	362.78
523.92	341.72
524.10	477.47
524.27	395.55
524.44	442.36
524.61	449.38
524.78	458.74
524.96	482.15
525.13	381.51
525.30	500.87
525.47	351.08
525.64	451.72
525.81	470.45
525.98	463.43
526.16	440.02
526.33	449.38
526.50	430.66
526.67	390.87
526.84	404.91
527.01	383.85
527.18	404.91
527.36	425.98
527.53	341.72
527.70	433.00
527.87	376.83
528.04	458.74
528.21	374.49
528.38	428.32
528.55	433.00
528.72	484.49
528.89	491.51
529.07	475.13
529.24	458.74
529.41	477.47
529.58	353.42
529.75	334.70
529.92	430.66
530.09	444.70
530.26	390.87
530.43	451.72
530.60	416.62
530.77	379.17
530.94	423.64
531.11	435.34
531.28	402.57
531.46	411.93
531.63	386.19
531.80	418.96
531.97	484.49
532.14	468.11
532.31	449.38
532.48	458.74
532.65	479.81
532.82	437.68
532.99	334.70
533.16	440.02
533.33	425.98
533.50	388.53
533.67	402.57
533.84	489.17
534.01	388.53
534.18	402.57
534.35	409.59
534.52	461.09
534.69	402.57
534.86	414.27
535.03	510.24
535.20	386.19
535.37	393.21
535.54	369.80
535.71	447.04
535.88	393.21
536.05	444.70
536.22	442.36
536.38	421.30
536.55	465.77
536.72	418.96
536.89	414.27
537.06	397.89
537.23	421.30
537.40	337.04
537.57	472.79
537.74	496.19
537.91	344.06
538.08	423.64
538.25	407.25
538.42	461.09
538.59	423.64
538.75	435.34
538.92	362.78
539.09	484.49
539.26	400.23
539.43	416.62
539.60	421.30
539.77	407.25
539.94	496.19
540.11	388.53
540.28	437.68
540.44	510.24
540.61	388.53
540.78	416.62
540.95	402.57
541.12	400.23
541.29	409.59
541.46	407.25
541.62	423.64
541.79	397.89
541.96	425.98
542.13	360.44
542.30	402.57
542.47	461.09
542.63	416.62
542.80	404.91
542.97	390.87
543.14	421.30
543.31	421.30
543.48	390.87
543.64	418.96
543.81	435.34
543.98	472.79
544.15	397.89
544.32	435.34
544.48	433.00
544.65	383.85
544.82	447.04
544.99	442.36
545.16	440.02
545.32	430.66
545.49	442.36
545.66	437.68
545.83	451.72
546.00	400.23
546.16	440.02
546.33	374.49
546.50	430.66
546.67	379.17
546.83	425.98
547.00	430.66
547.17	386.19
547.34	386.19
547.50	372.15
547.67	404.91
547.84	395.55
548.00	423.64
548.17	400.23
548.34	404.91
548.51	465.77
548.67	416.62
548.84	339.38
549.01	454.06
549.18	360.44
549.34	397.89
549.51	507.90
549.68	386.19
549.84	383.85
550.01	362.78
550.18	451.72
550.34	440.02
550.51	461.09
550.68	449.38
550.84	421.30
551.01	425.98
551.18	393.21
551.34	470.45
551.51	461.09
551.68	404.91
551.84	411.93
552.01	423.64
552.18	395.55
552.34	475.13
552.51	440.02
552.68	454.06
552.84	402.57
553.01	379.17
553.18	440.02
553.34	428.32
553.51	423.64
553.67	404.91
553.84	449.38
554.01	435.34
554.17	507.90
554.34	353.42
554.51	442.36
554.67	454.06
554.84	440.02
555.00	428.32
555.17	416.62
555.33	355.76
555.50	423.64
555.67	458.74
555.83	400.23
556.00	449.38
556.16	545.34
556.33	461.09
556.50	409.59
556.66	411.93
556.83	456.40
556.99	404.91
557.16	430.66
557.32	447.04
557.49	362.78
557.65	440.02
557.82	430.66
557.98	400.23
558.15	358.10
558.32	423.64
558.48	449.38
558.65	444.70
558.81	437.68
558.98	442.36
559.14	360.44
559.31	397.89
559.47	463.43
559.64	425.98
559.80	362.78
559.97	442.36
560.13	447.04
560.30	411.93
560.46	454.06
560.63	449.38
560.79	416.62
560.96	454.06
561.12	393.21
561.29	362.78
561.45	451.72
561.61	395.55
561.78	538.32
561.94	400.23
562.11	372.15
562.27	376.83
562.44	372.15
562.60	395.55
562.77	367.46
562.93	376.83
563.10	358.10
563.26	425.98
563.42	486.83
563.59	402.57
563.75	421.30
563.92	414.27
564.08	400.23
564.24	428.32
564.41	435.34
564.57	365.12
564.74	353.42
564.90	484.49
565.07	458.74
565.23	416.62
565.39	397.89
565.56	461.09
565.72	416.62
565.88	421.30
566.05	355.76
566.21	440.02
566.38	409.59
566.54	433.00
566.70	414.27
566.87	367.46
567.03	416.62
567.19	451.72
567.36	395.55
567.52	372.15
567.68	425.98
567.85	402.57
568.01	400.23
568.17	442.36
568.34	444.70
568.50	418.96
568.66	393.21
568.83	496.19
568.99	395.55
569.15	428.32
569.32	390.87
569.48	388.53
569.64	433.00
569.81	451.72
569.97	440.02
570.13	440.02
570.30	440.02
570.46	376.83
570.62	489.17
570.78	451.72
570.95	395.55
571.11	498.53
571.27	360.44
571.43	367.46
571.60	463.43
571.76	397.89
571.92	367.46
572.09	454.06
572.25	442.36
572.41	367.46
572.57	395.55
572.74	484.49
572.90	451.72
573.06	447.04
573.22	433.00
573.38	416.62
573.55	440.02
573.71	435.34
573.87	365.12
574.03	365.12
574.20	402.57
574.36	465.77
574.52	390.87
574.68	425.98
574.84	369.80
575.01	358.10
575.17	437.68
575.33	430.66
575.49	451.72
575.65	505.56
575.82	510.24
575.98	449.38
576.14	489.17
576.30	425.98
576.46	454.06
576.62	407.25
576.79	395.55
576.95	376.83
577.11	393.21
577.27	362.78
577.43	437.68
577.59	437.68
577.75	376.83
577.92	393.21
578.08	433.00
578.24	468.11
578.40	414.27
578.56	407.25
578.72	444.70
578.88	458.74
579.04	437.68
579.21	430.66
579.37	362.78
579.53	458.74
579.69	379.17
579.85	451.72
580.01	425.98
580.17	449.38
580.33	404.91
580.49	402.57
580.65	341.72
580.82	397.89
580.98	411.93
581.14	409.59
581.30	435.34
581.46	444.70
581.62	451.72
581.78	351.08
581.94	435.34
582.10	386.19
582.26	416.62
582.42	435.34
582.58	407.25
582.74	433.00
582.90	463.43
583.06	447.04
583.22	430.66
583.38	369.80
583.54	402.57
583.70	421.30
583.86	411.93
584.02	447.04
584.18	454.06
584.34	449.38
584.50	397.89
584.66	442.36
584.82	418.96
584.98	484.49
585.14	379.17
585.30	418.96
585.46	390.87
585.62	418.96
585.78	397.89
585.94	407.25
586.10	430.66
586.26	440.02
586.42	437.68
586.58	397.89
586.74	463.43
586.90	358.10
587.06	463.43
587.22	411.93
587.38	404.91
587.54	468.11
587.70	397.89
587.86	404.91
588.02	416.62
588.18	411.93
588.34	421.30
588.49	379.17
588.65	458.74
588.81	416.62
588.97	451.72
589.13	425.98
589.29	383.85
589.45	416.62
589.61	425.98
589.77	482.15
589.93	334.70
590.08	418.96
590.24	395.55
590.40	449.38
590.56	449.38
590.72	395.55
590.88	418.96
591.04	409.59
591.20	433.00
591.35	390.87
591.51	449.38
591.67	416.62
591.83	393.21
591.99	442.36
592.15	451.72
592.31	482.15
592.46	491.51
592.62	400.23
592.78	418.96
592.94	416.62
593.10	458.74
593.26	456.40
593.41	503.22
593.57	409.59
593.73	397.89
593.89	372.15
594.05	416.62
594.20	430.66
594.36	451.72
594.52	421.30
594.68	463.43
594.84	444.70
594.99	414.27
595.15	437.68
595.31	425.98
595.47	486.83
595.62	454.06
595.78	468.11
595.94	425.98
596.10	442.36
596.25	369.80
596.41	423.64
596.57	428.32
596.73	390.87
596.88	404.91
597.04	456.40
597.20	421.30
597.36	435.34
597.51	449.38
597.67	367.46
597.83	353.42
597.99	454.06
598.14	433.00
598.30	472.79
598.46	404.91
598.61	397.89
598.77	428.32
598.93	351.08
599.09	418.96
599.24	407.25
599.40	339.38
599.56	416.62
599.71	423.64
599.87	388.53
600.03	360.44
600.18	383.85
600.34	416.62
600.50	402.57
600.65	355.76
600.81	402.57
600.97	472.79
601.12	390.87
601.28	402.57
601.44	414.27
601.59	458.74
601.75	348.74
601.91	353.42
602.06	442.36
602.22	428.32
602.37	468.11
602.53	353.42
602.69	379.17
602.84	372.15
603.00	418.96
603.16	388.53
603.31	411.93
603.47	369.80
603.62	430.66
603.78	322.99
603.94	442.36
604.09	397.89
604.25	393.21
604.40	430.66
604.56	383.85
604.71	388.53
604.87	435.34
605.03	404.91
605.18	346.40
605.34	390.87
605.49	437.68
605.65	409.59
605.80	400.23
605.96	367.46
606.12	430.66
606.27	395.55
606.43	381.51
606.58	451.72
606.74	353.42
606.89	435.34
607.05	458.74
607.20	428.32
607.36	423.64
607.51	369.80
607.67	407.25
607.82	367.46
607.98	465.77
608.13	414.27
608.29	381.51
608.44	400.23
608.60	437.68
608.75	400.23
608.91	430.66
609.06	470.45
609.22	433.00
609.37	414.27
609.53	447.04
609.68	411.93
609.84	383.85
609.99	465.77
610.15	425.98
610.30	472.79
610.46	409.59
610.61	395.55
610.76	351.08
610.92	381.51
611.07	454.06
611.23	430.66
611.38	454.06
611.54	332.36
611.69	402.57
611.84	437.68
612.00	421.30
612.15	393.21
612.31	355.76
612.46	386.19
612.62	362.78
612.77	463.43
612.92	470.45
613.08	484.49
613.23	400.23
613.39	461.09
613.54	294.91
613.69	358.10
613.85	379.17
614.00	454.06
614.15	388.53
614.31	367.46
614.46	430.66
614.62	461.09
614.77	440.02
614.92	437.68
615.08	463.43
615.23	423.64
615.38	428.32
615.54	386.19
615.69	376.83
615.84	409.59
616.00	358.10
616.15	332.36
616.30	409.59
616.46	454.06
616.61	395.55
616.76	416.62
616.92	440.02
617.07	421.30
617.22	437.68
617.37	374.49
617.53	440.02
617.68	393.21
617.83	444.70
617.99	440.02
618.14	491.51
618.29	444.70
618.45	447.04
618.60	479.81
618.75	397.89
618.90	374.49
619.06	442.36
619.21	400.23
619.36	379.17
619.51	411.93
619.67	416.62
619.82	458.74
619.97	367.46
620.12	463.43
620.28	479.81
620.43	411.93
620.58	360.44
620.73	435.34
620.89	447.04
621.04	353.42
621.19	423.64
621.34	404.91
621.49	411.93
621.65	451.72
621.80	372.15
621.95	407.25
622.10	475.13
622.25	395.55
622.41	393.21
622.56	365.12
622.71	409.59
622.86	477.47
623.01	470.45
623.16	461.09
623.32	475.13
623.47	416.62
623.62	430.66
623.77	383.85
623.92	400.23
624.07	376.83
624.23	411.93
624.38	425.98
624.53	435.34
624.68	491.51
624.83	482.15
624.98	411.93
625.13	308.95
625.29	411.93
625.44	393.21
625.59	454.06
625.74	454.06
625.89	447.04
626.04	421.30
626.19	433.00
626.34	407.25
626.49	421.30
626.65	430.66
626.80	433.00
626.95	440.02
627.10	407.25
627.25	425.98
627.40	402.57
627.55	414.27
627.70	430.66
627.85	442.36
628.00	397.89
628.15	437.68
628.30	414.27
628.45	421.30
628.60	463.43
628.76	437.68
628.91	407.25
629.06	402.57
629.21	458.74
629.36	430.66
629.51	425.98
629.66	386.19
629.81	475.13
629.96	437.68
630.11	430.66
630.26	425.98
630.41	442.36
630.56	395.55
630.71	285.55
630.86	461.09
631.01	428.32
631.16	353.42
631.31	423.64
631.46	416.62
631.61	423.64
631.76	433.00
631.91	449.38
632.06	381.51
632.21	433.00
632.36	435.34
632.51	449.38
632.66	433.00
632.81	397.89
632.96	407.25
633.10	381.51
633.25	402.57
633.40	435.34
633.55	400.23
633.70	397.89
633.85	411.93
634.00	355.76
634.15	465.77
634.30	449.38
634.45	468.11
634.60	383.85
634.75	367.46
634.90	449.38
635.05	421.30
635.19	451.72
635.34	421.30
635.49	470.45
635.64	397.89
635.79	386.19
635.94	454.06
636.09	442.36
636.24	341.72
636.39	498.53
636.53	428.32
636.68	456.40
636.83	430.66
636.98	334.70
637.13	404.91
637.28	416.62
637.43	437.68
637.57	447.04
637.72	369.80
637.87	470.45
638.02	449.38
638.17	423.64
638.32	433.00
638.46	437.68
638.61	454.06
638.76	414.27
638.91	421.30
639.06	397.89
639.20	479.81
639.35	428.32
639.50	404.91
639.65	461.09
639.80	414.27
639.94	454.06
640.09	383.85
640.24	414.27
640.39	414.27
640.54	372.15
640.68	362.78
640.83	414.27
640.98	379.17
641.13	444.70
641.27	367.46
641.42	407.25
641.57	463.43
641.72	388.53
641.86	461.09
642.01	433.00
642.16	447.04
642.31	447.04
642.45	348.74
642.60	425.98
642.75	435.34
642.90	374.49
643.04	367.46
643.19	358.10
643.34	369.80
643.48	468.11
643.63	407.25
643.78	451.72
643.93	442.36
644.07	477.47
644.22	500.87
644.37	428.32
644.51	458.74
644.66	449.38
644.81	409.59
644.95	411.93
645.10	416.62
645.25	376.83
645.39	442.36
645.54	444.70
645.69	440.02
645.83	407.25
645.98	500.87
646.13	496.19
646.27	395.55
646.42	400.23
646.57	430.66
646.71	386.19
646.86	379.17
647.00	388.53
647.15	442.36
647.30	442.36
647.44	411.93
647.59	400.23
647.74	404.91
647.88	374.49
648.03	423.64
648.17	442.36
648.32	402.57
648.47	386.19
648.61	447.04
648.76	379.17
648.90	423.64
649.05	423.64
649.20	386.19
649.34	475.13
649.49	351.08
649.63	423.64
649.78	414.27
649.92	461.09
650.07	435.34
650.21	374.49
650.36	430.66
650.51	393.21
650.65	463.43
650.80	388.53
650.94	360.44
651.09	468.11
651.23	358.10
651.38	514.92
651.52	369.80
651.67	418.96
651.81	400.23
651.96	451.72
652.10	353.42
652.25	376.83
652.39	400.23
652.54	423.64
652.68	433.00
652.83	456.40
652.97	470.45
653.12	425.98
653.26	440.02
653.41	430.66
653.55	418.96
653.70	421.30
653.84	355.76
653.99	451.72
654.13	437.68
654.27	482.15
654.42	376.83
654.56	423.64
654.71	393.21
654.85	402.57
655.00	407.25
655.14	428.32
655.29	388.53
655.43	388.53
655.57	376.83
655.72	409.59
655.86	451.72
656.01	472.79
656.15	353.42
656.30	409.59
656.44	407.25
656.58	409.59
656.73	404.91
656.87	355.76
657.01	456.40
657.16	486.83
657.30	468.11
657.45	428.32
657.59	416.62
657.73	315.97
657.88	414.27
658.02	475.13
658.16	376.83
658.31	397.89
658.45	322.99
658.60	428.32
658.74	418.96
658.88	461.09
659.03	313.63
659.17	440.02
659.31	447.04
659.46	416.62
659.60	381.51
659.74	449.38
659.89	376.83
660.03	449.38
660.17	514.92
660.32	449.38
660.46	433.00
660.60	465.77
660.74	409.59
660.89	416.62
661.03	400.23
661.17	475.13
661.32	468.11
661.46	447.04
661.60	388.53
661.74	484.49
661.89	437.68
662.03	404.91
662.17	456.40
662.31	472.79
662.46	416.62
662.60	435.34
662.74	482.15
662.88	451.72
663.03	498.53
663.17	435.34
663.31	414.27
663.45	421.30
663.60	369.80
663.74	475.13
663.88	379.17
664.02	353.42
664.17	414.27
664.31	433.00
664.45	421.30
664.59	428.32
664.73	369.80
664.88	437.68
665.02	355.76
665.16	404.91
665.30	456.40
665.44	433.00
665.59	397.89
665.73	414.27
665.87	393.21
666.01	475.13
666.15	468.11
666.29	421.30
666.44	468.11
666.58	475.13
666.72	416.62
666.86	397.89
667.00	404.91
667.14	395.55
667.28	411.93
667.43	400.23
667.57	430.66
667.71	388.53
667.85	437.68
667.99	456.40
668.13	482.15
668.27	435.34
668.41	463.43
668.56	395.55
668.70	414.27
668.84	451.72
668.98	418.96
669.12	433.00
669.26	402.57
669.40	430.66
669.54	416.62
669.68	404.91
669.82	414.27
669.96	346.40
670.10	411.93
670.25	362.78
670.39	468.11
670.53	433.00
670.67	355.76
670.81	430.66
670.95	404.91
671.09	367.46
671.23	458.74
671.37	421.30
671.51	461.09
671.65	423.64
671.79	454.06
671.93	365.12
672.07	458.74
672.21	428.32
672.35	393.21
672.49	421.30
672.63	491.51
672.77	449.38
672.91	428.32
673.05	414.27
673.19	365.12
673.33	351.08
673.47	379.17
673.61	402.57
673.75	388.53
673.89	409.59
674.03	470.45
674.17	407.25
674.31	330.02
674.45	402.57
674.59	416.62
674.73	433.00
674.87	369.80
675.01	465.77
675.15	418.96
675.29	486.83
675.43	365.12
675.56	463.43
675.70	414.27
675.84	444.70
675.98	388.53
676.12	425.98
676.26	414.27
676.40	418.96
676.54	435.34
676.68	430.66
676.82	395.55
676.96	477.47
677.10	463.43
677.23	404.91
677.37	379.17
677.51	376.83
677.65	456.40
677.79	468.11
677.93	397.89
678.07	409.59
678.21	355.76
678.34	376.83
678.48	388.53
678.62	332.36
678.76	395.55
678.90	425.98
679.04	416.62
679.18	374.49
679.31	433.00
679.45	369.80
679.59	409.59
679.73	390.87
679.87	402.57
680.00	425.98
680.14	428.32
680.28	489.17
680.42	390.87
680.56	404.91
680.70	489.17
680.83	430.66
680.97	334.70
681.11	456.40
681.25	367.46
681.39	414.27
681.52	360.44
681.66	409.59
681.80	388.53
681.94	421.30
682.07	416.62
682.21	430.66
682.35	355.76
682.49	414.27
682.62	409.59
682.76	418.96
682.90	390.87
683.04	369.80
683.17	411.93
683.31	461.09
683.45	440.02
683.59	400.23
683.72	411.93
683.86	435.34
684.00	344.06
684.13	386.19
684.27	442.36
684.41	437.68
684.55	404.91
684.68	360.44
684.82	397.89
684.96	397.89
685.09	423.64
685.23	437.68
685.37	418.96
685.50	395.55
685.64	400.23
685.78	423.64
685.91	447.04
686.05	470.45
686.19	362.78
686.32	444.70
686.46	510.24
686.60	437.68
686.73	388.53
686.87	440.02
687.01	383.85
687.14	395.55
687.28	409.59
687.42	393.21
687.55	486.83
687.69	451.72
687.82	362.78
687.96	379.17
688.10	337.04
688.23	379.17
688.37	472.79
688.50	372.15
688.64	421.30
688.78	435.34
688.91	463.43
689.05	411.93
689.18	379.17
689.32	367.46
689.46	381.51
689.59	456.40
689.73	425.98
689.86	390.87
690.00	430.66
690.13	428.32
690.27	360.44
690.41	435.34
690.54	395.55
690.68	390.87
690.81	393.21
690.95	451.72
691.08	409.59
691.22	402.57
691.35	327.68
691.49	348.74
691.62	423.64
691.76	372.15
691.89	409.59
692.03	409.59
692.16	369.80
692.30	379.17
692.43	395.55
692.57	491.51
692.70	402.57
692.84	390.87
692.97	390.87
693.11	395.55
693.24	379.17
693.38	435.34
693.51	353.42
693.65	503.22
693.78	402.57
693.92	425.98
694.05	390.87
694.19	383.85
694.32	435.34
694.45	435.34
694.59	365.12
694.72	381.51
694.86	393.21
694.99	461.09
695.13	463.43
695.26	383.85
695.39	444.70
695.53	428.32
695.66	355.76
695.80	411.93
695.93	442.36
696.07	379.17
696.20	435.34
696.33	486.83
696.47	524.28
696.60	402.57
696.73	435.34
696.87	428.32
697.00	456.40
697.14	409.59
697.27	381.51
697.40	425.98
697.54	407.25
697.67	383.85
697.80	437.68
697.94	390.87
698.07	440.02
698.21	397.89
698.34	500.87
698.47	470.45
698.61	379.17
698.74	395.55
698.87	456.40
699.01	402.57
699.14	397.89
699.27	393.21
699.40	479.81
699.54	425.98
699.67	397.89
699.80	369.80
699.94	383.85
700.07	505.56
700.20	433.00
700.34	400.23
700.47	330.02
700.60	376.83
700.73	421.30
700.87	433.00
701.00	425.98
701.13	500.87
701.26	444.70
701.40	388.53
701.53	451.72
701.66	418.96
701.79	489.17
701.93	449.38
702.06	465.77
702.19	418.96
702.32	416.62
702.46	400.23
702.59	395.55
702.72	388.53
702.85	463.43
702.99	472.79
703.12	442.36
703.25	367.46
703.38	337.04
703.51	447.04
703.65	477.47
703.78	374.49
703.91	442.36
704.04	435.34
704.17	414.27
704.31	444.70
704.44	358.10
704.57	437.68
704.70	430.66
704.83	407.25
704.96	493.85
705.10	430.66
705.23	421.30
>>>>>End Processed Spectral Data<<<<<
