SpectraSuite Data File
++++++++++++++++++++++++++++++++++++
Date: Fri Oct 25 12:10:53 EDT 2013
User: price-jones
Dark Spectrum Present: No
Reference Spectrum Present: No
Number of Sampled Component Spectra: 1
Spectrometers: USB2+H05261
Integration Time (usec): 100000 (USB2+H05261)
Spectra Averaged: 1 (USB2+H05261)
Boxcar Smoothing: 0 (USB2+H05261)
Correct for Electrical Dark: No (USB2+H05261)
Strobe/Lamp Enabled: No (USB2+H05261)
Correct for Detector Non-linearity: No (USB2+H05261)
Correct for Stray Light: No (USB2+H05261)
Number of Pixels in Processed Spectrum: 2048
>>>>>Begin Processed Spectral Data<<<<<
365.73	276.18
365.92	276.18
366.12	276.18
366.32	234.05
366.52	257.46
366.72	262.14
366.91	215.33
367.11	215.33
367.31	210.65
367.51	238.73
367.70	236.39
367.90	184.90
368.10	290.23
368.30	283.20
368.49	201.29
368.69	245.76
368.89	280.86
369.09	220.01
369.28	224.69
369.48	278.52
369.68	362.78
369.87	308.95
370.07	262.14
370.27	362.78
370.47	299.59
370.66	360.44
370.86	376.83
371.06	400.23
371.25	383.85
371.45	411.93
371.65	416.62
371.84	376.83
372.04	330.02
372.24	372.15
372.44	353.42
372.63	390.87
372.83	433.00
373.03	437.68
373.22	404.91
373.42	409.59
373.62	447.04
373.81	395.55
374.01	360.44
374.21	365.12
374.40	386.19
374.60	463.43
374.79	397.89
374.99	414.27
375.19	458.74
375.38	437.68
375.58	416.62
375.78	430.66
375.97	411.93
376.17	418.96
376.37	433.00
376.56	444.70
376.76	414.27
376.95	465.77
377.15	409.59
377.35	442.36
377.54	423.64
377.74	381.51
377.93	444.70
378.13	447.04
378.33	390.87
378.52	442.36
378.72	463.43
378.91	379.17
379.11	442.36
379.31	376.83
379.50	365.12
379.70	379.17
379.89	409.59
380.09	418.96
380.28	374.49
380.48	486.83
380.68	402.57
380.87	402.57
381.07	407.25
381.26	376.83
381.46	360.44
381.65	416.62
381.85	376.83
382.04	400.23
382.24	428.32
382.43	437.68
382.63	437.68
382.83	393.21
383.02	390.87
383.22	416.62
383.41	407.25
383.61	428.32
383.80	449.38
384.00	404.91
384.19	386.19
384.39	421.30
384.58	379.17
384.78	440.02
384.97	404.91
385.17	348.74
385.36	409.59
385.56	369.80
385.75	376.83
385.95	393.21
386.14	383.85
386.34	437.68
386.53	402.57
386.72	402.57
386.92	442.36
387.11	386.19
387.31	402.57
387.50	442.36
387.70	341.72
387.89	491.51
388.09	449.38
388.28	344.06
388.48	374.49
388.67	458.74
388.86	402.57
389.06	458.74
389.25	435.34
389.45	456.40
389.64	465.77
389.84	435.34
390.03	372.15
390.22	486.83
390.42	381.51
390.61	292.57
390.81	428.32
391.00	390.87
391.19	414.27
391.39	454.06
391.58	416.62
391.78	416.62
391.97	428.32
392.16	353.42
392.36	461.09
392.55	418.96
392.75	409.59
392.94	381.51
393.13	407.25
393.33	404.91
393.52	447.04
393.71	447.04
393.91	414.27
394.10	365.12
394.29	423.64
394.49	360.44
394.68	395.55
394.88	390.87
395.07	421.30
395.26	514.92
395.46	433.00
395.65	421.30
395.84	404.91
396.04	425.98
396.23	421.30
396.42	414.27
396.62	456.40
396.81	402.57
397.00	472.79
397.19	430.66
397.39	440.02
397.58	433.00
397.77	458.74
397.97	447.04
398.16	454.06
398.35	348.74
398.55	482.15
398.74	393.21
398.93	400.23
399.12	369.80
399.32	381.51
399.51	461.09
399.70	418.96
399.90	477.47
400.09	355.76
400.28	411.93
400.47	409.59
400.67	430.66
400.86	351.08
401.05	362.78
401.24	447.04
401.44	351.08
401.63	447.04
401.82	423.64
402.01	367.46
402.21	390.87
402.40	414.27
402.59	451.72
402.78	379.17
402.97	376.83
403.17	330.02
403.36	393.21
403.55	416.62
403.74	393.21
403.93	383.85
404.13	414.27
404.32	367.46
404.51	430.66
404.70	433.00
404.89	423.64
405.09	416.62
405.28	346.40
405.47	315.97
405.66	404.91
405.85	423.64
406.05	381.51
406.24	404.91
406.43	421.30
406.62	418.96
406.81	425.98
407.00	397.89
407.20	404.91
407.39	435.34
407.58	372.15
407.77	447.04
407.96	416.62
408.15	456.40
408.34	402.57
408.54	435.34
408.73	435.34
408.92	402.57
409.11	423.64
409.30	421.30
409.49	449.38
409.68	465.77
409.87	365.12
410.07	416.62
410.26	407.25
410.45	421.30
410.64	322.99
410.83	381.51
411.02	388.53
411.21	390.87
411.40	367.46
411.59	425.98
411.78	433.00
411.98	468.11
412.17	418.96
412.36	407.25
412.55	402.57
412.74	369.80
412.93	491.51
413.12	461.09
413.31	407.25
413.50	360.44
413.69	339.38
413.88	456.40
414.07	404.91
414.26	484.49
414.45	451.72
414.64	395.55
414.83	454.06
415.02	421.30
415.22	402.57
415.41	435.34
415.60	397.89
415.79	440.02
415.98	393.21
416.17	400.23
416.36	388.53
416.55	444.70
416.74	430.66
416.93	386.19
417.12	437.68
417.31	351.08
417.50	447.04
417.69	491.51
417.88	351.08
418.07	372.15
418.26	362.78
418.45	428.32
418.64	449.38
418.83	404.91
419.02	400.23
419.21	423.64
419.39	341.72
419.58	423.64
419.77	475.13
419.96	451.72
420.15	442.36
420.34	430.66
420.53	367.46
420.72	358.10
420.91	374.49
421.10	344.06
421.29	395.55
421.48	486.83
421.67	409.59
421.86	402.57
422.05	358.10
422.24	411.93
422.43	433.00
422.61	395.55
422.80	397.89
422.99	383.85
423.18	379.17
423.37	507.90
423.56	425.98
423.75	421.30
423.94	388.53
424.13	496.19
424.32	402.57
424.50	470.45
424.69	444.70
424.88	454.06
425.07	440.02
425.26	486.83
425.45	444.70
425.64	379.17
425.83	386.19
426.01	423.64
426.20	351.08
426.39	386.19
426.58	428.32
426.77	416.62
426.96	379.17
427.15	386.19
427.33	397.89
427.52	372.15
427.71	393.21
427.90	451.72
428.09	383.85
428.28	404.91
428.46	411.93
428.65	397.89
428.84	379.17
429.03	458.74
429.22	418.96
429.40	418.96
429.59	397.89
429.78	360.44
429.97	388.53
430.16	355.76
430.34	386.19
430.53	454.06
430.72	299.59
430.91	421.30
431.10	360.44
431.28	477.47
431.47	402.57
431.66	360.44
431.85	381.51
432.03	390.87
432.22	435.34
432.41	397.89
432.60	472.79
432.79	344.06
432.97	423.64
433.16	322.99
433.35	477.47
433.54	461.09
433.72	423.64
433.91	351.08
434.10	360.44
434.28	388.53
434.47	327.68
434.66	404.91
434.85	372.15
435.03	454.06
435.22	451.72
435.41	500.87
435.59	395.55
435.78	407.25
435.97	388.53
436.16	421.30
436.34	416.62
436.53	393.21
436.72	458.74
436.90	475.13
437.09	425.98
437.28	442.36
437.46	428.32
437.65	341.72
437.84	376.83
438.02	491.51
438.21	353.42
438.40	468.11
438.58	393.21
438.77	463.43
438.96	395.55
439.14	379.17
439.33	444.70
439.52	421.30
439.70	428.32
439.89	418.96
440.08	425.98
440.26	407.25
440.45	393.21
440.63	454.06
440.82	425.98
441.01	404.91
441.19	390.87
441.38	397.89
441.57	454.06
441.75	383.85
441.94	442.36
442.12	351.08
442.31	367.46
442.50	440.02
442.68	430.66
442.87	390.87
443.05	360.44
443.24	381.51
443.43	369.80
443.61	409.59
443.80	407.25
443.98	461.09
444.17	421.30
444.35	496.19
444.54	433.00
444.73	463.43
444.91	449.38
445.10	395.55
445.28	402.57
445.47	411.93
445.65	411.93
445.84	418.96
446.02	433.00
446.21	390.87
446.39	444.70
446.58	484.49
446.77	348.74
446.95	325.33
447.14	409.59
447.32	463.43
447.51	409.59
447.69	430.66
447.88	393.21
448.06	425.98
448.25	449.38
448.43	433.00
448.62	346.40
448.80	409.59
448.99	437.68
449.17	470.45
449.36	383.85
449.54	493.85
449.73	461.09
449.91	451.72
450.10	418.96
450.28	444.70
450.46	423.64
450.65	437.68
450.83	409.59
451.02	484.49
451.20	341.72
451.39	358.10
451.57	374.49
451.76	447.04
451.94	397.89
452.13	421.30
452.31	454.06
452.49	397.89
452.68	374.49
452.86	433.00
453.05	430.66
453.23	379.17
453.42	372.15
453.60	418.96
453.78	332.36
453.97	470.45
454.15	409.59
454.34	430.66
454.52	418.96
454.70	479.81
454.89	416.62
455.07	374.49
455.26	493.85
455.44	430.66
455.62	376.83
455.81	444.70
455.99	416.62
456.17	437.68
456.36	463.43
456.54	423.64
456.73	414.27
456.91	479.81
457.09	416.62
457.28	355.76
457.46	440.02
457.64	449.38
457.83	407.25
458.01	386.19
458.19	393.21
458.38	491.51
458.56	374.49
458.74	430.66
458.93	395.55
459.11	423.64
459.29	433.00
459.48	470.45
459.66	407.25
459.84	442.36
460.03	477.47
460.21	421.30
460.39	437.68
460.57	447.04
460.76	369.80
460.94	355.76
461.12	423.64
461.31	486.83
461.49	327.68
461.67	355.76
461.85	383.85
462.04	421.30
462.22	795.78
462.40	409.59
462.59	355.76
462.77	404.91
462.95	400.23
463.13	409.59
463.32	456.40
463.50	416.62
463.68	414.27
463.86	393.21
464.05	390.87
464.23	393.21
464.41	379.17
464.59	414.27
464.78	381.51
464.96	414.27
465.14	397.89
465.32	395.55
465.50	395.55
465.69	411.93
465.87	376.83
466.05	428.32
466.23	402.57
466.41	435.34
466.60	456.40
466.78	433.00
466.96	449.38
467.14	447.04
467.32	477.47
467.51	386.19
467.69	379.17
467.87	425.98
468.05	437.68
468.23	428.32
468.41	393.21
468.60	421.30
468.78	458.74
468.96	433.00
469.14	414.27
469.32	381.51
469.50	374.49
469.69	404.91
469.87	383.85
470.05	451.72
470.23	447.04
470.41	414.27
470.59	376.83
470.77	458.74
470.95	482.15
471.14	421.30
471.32	404.91
471.50	381.51
471.68	421.30
471.86	386.19
472.04	454.06
472.22	447.04
472.40	411.93
472.58	372.15
472.77	449.38
472.95	425.98
473.13	458.74
473.31	449.38
473.49	379.17
473.67	388.53
473.85	400.23
474.03	444.70
474.21	449.38
474.39	479.81
474.57	428.32
474.75	423.64
474.93	477.47
475.12	369.80
475.30	430.66
475.48	484.49
475.66	402.57
475.84	388.53
476.02	393.21
476.20	416.62
476.38	465.77
476.56	444.70
476.74	383.85
476.92	390.87
477.10	411.93
477.28	451.72
477.46	379.17
477.64	458.74
477.82	397.89
478.00	440.02
478.18	374.49
478.36	444.70
478.54	430.66
478.72	458.74
478.90	470.45
479.08	428.32
479.26	451.72
479.44	437.68
479.62	388.53
479.80	374.49
479.98	383.85
480.16	454.06
480.34	404.91
480.52	486.83
480.70	442.36
480.88	449.38
481.06	383.85
481.24	447.04
481.41	421.30
481.59	451.72
481.77	402.57
481.95	404.91
482.13	381.51
482.31	414.27
482.49	341.72
482.67	404.91
482.85	482.15
483.03	416.62
483.21	503.22
483.39	416.62
483.57	390.87
483.74	425.98
483.92	390.87
484.10	390.87
484.28	369.80
484.46	390.87
484.64	369.80
484.82	388.53
485.00	351.08
485.18	428.32
485.35	442.36
485.53	435.34
485.71	421.30
485.89	475.13
486.07	411.93
486.25	472.79
486.43	435.34
486.61	493.85
486.78	451.72
486.96	447.04
487.14	456.40
487.32	447.04
487.50	388.53
487.68	435.34
487.85	388.53
488.03	423.64
488.21	428.32
488.39	397.89
488.57	435.34
488.75	463.43
488.92	510.24
489.10	372.15
489.28	423.64
489.46	468.11
489.64	381.51
489.81	379.17
489.99	425.98
490.17	435.34
490.35	507.90
490.53	400.23
490.70	440.02
490.88	430.66
491.06	465.77
491.24	479.81
491.41	437.68
491.59	428.32
491.77	414.27
491.95	374.49
492.13	393.21
492.30	308.95
492.48	440.02
492.66	421.30
492.84	414.27
493.01	498.53
493.19	409.59
493.37	456.40
493.54	411.93
493.72	348.74
493.90	369.80
494.08	322.99
494.25	379.17
494.43	414.27
494.61	388.53
494.79	395.55
494.96	397.89
495.14	477.47
495.32	428.32
495.49	442.36
495.67	414.27
495.85	440.02
496.02	386.19
496.20	425.98
496.38	416.62
496.55	416.62
496.73	440.02
496.91	414.27
497.09	451.72
497.26	365.12
497.44	425.98
497.62	376.83
497.79	444.70
497.97	435.34
498.14	442.36
498.32	414.27
498.50	440.02
498.67	395.55
498.85	407.25
499.03	395.55
499.20	421.30
499.38	416.62
499.56	430.66
499.73	451.72
499.91	447.04
500.08	365.12
500.26	430.66
500.44	374.49
500.61	465.77
500.79	433.00
500.97	449.38
501.14	411.93
501.32	386.19
501.49	430.66
501.67	454.06
501.84	379.17
502.02	440.02
502.20	411.93
502.37	430.66
502.55	402.57
502.72	421.30
502.90	437.68
503.07	339.38
503.25	397.89
503.43	416.62
503.60	383.85
503.78	416.62
503.95	407.25
504.13	449.38
504.30	428.32
504.48	449.38
504.65	454.06
504.83	521.94
505.01	386.19
505.18	362.78
505.36	423.64
505.53	428.32
505.71	407.25
505.88	402.57
506.06	416.62
506.23	477.47
506.41	421.30
506.58	528.96
506.76	411.93
506.93	437.68
507.11	440.02
507.28	393.21
507.46	390.87
507.63	418.96
507.81	433.00
507.98	337.04
508.16	449.38
508.33	404.91
508.50	374.49
508.68	433.00
508.85	409.59
509.03	423.64
509.20	428.32
509.38	447.04
509.55	468.11
509.73	421.30
509.90	472.79
510.08	428.32
510.25	435.34
510.42	346.40
510.60	404.91
510.77	362.78
510.95	442.36
511.12	456.40
511.30	472.79
511.47	479.81
511.64	423.64
511.82	390.87
511.99	355.76
512.17	381.51
512.34	397.89
512.51	386.19
512.69	437.68
512.86	442.36
513.04	369.80
513.21	458.74
513.38	407.25
513.56	402.57
513.73	430.66
513.90	430.66
514.08	344.06
514.25	433.00
514.43	390.87
514.60	435.34
514.77	482.15
514.95	442.36
515.12	388.53
515.29	449.38
515.47	407.25
515.64	463.43
515.81	423.64
515.99	379.17
516.16	435.34
516.33	442.36
516.51	451.72
516.68	404.91
516.85	423.64
517.03	360.44
517.20	451.72
517.37	437.68
517.54	362.78
517.72	493.85
517.89	337.04
518.06	428.32
518.24	440.02
518.41	435.34
518.58	376.83
518.75	421.30
518.93	381.51
519.10	458.74
519.27	409.59
519.45	454.06
519.62	442.36
519.79	383.85
519.96	463.43
520.14	372.15
520.31	416.62
520.48	353.42
520.65	479.81
520.83	365.12
521.00	367.46
521.17	442.36
521.34	423.64
521.52	440.02
521.69	409.59
521.86	425.98
522.03	374.49
522.20	456.40
522.38	449.38
522.55	407.25
522.72	442.36
522.89	454.06
523.07	435.34
523.24	428.32
523.41	407.25
523.58	421.30
523.75	435.34
523.92	383.85
524.10	442.36
524.27	451.72
524.44	388.53
524.61	465.77
524.78	447.04
524.96	327.68
525.13	435.34
525.30	454.06
525.47	409.59
525.64	423.64
525.81	397.89
525.98	383.85
526.16	444.70
526.33	447.04
526.50	383.85
526.67	390.87
526.84	425.98
527.01	409.59
527.18	395.55
527.36	379.17
527.53	437.68
527.70	435.34
527.87	463.43
528.04	461.09
528.21	407.25
528.38	404.91
528.55	376.83
528.72	470.45
528.89	449.38
529.07	440.02
529.24	397.89
529.41	416.62
529.58	449.38
529.75	433.00
529.92	442.36
530.09	491.51
530.26	428.32
530.43	423.64
530.60	402.57
530.77	496.19
530.94	411.93
531.11	451.72
531.28	374.49
531.46	484.49
531.63	407.25
531.80	409.59
531.97	465.77
532.14	437.68
532.31	477.47
532.48	449.38
532.65	397.89
532.82	395.55
532.99	423.64
533.16	440.02
533.33	390.87
533.50	454.06
533.67	400.23
533.84	449.38
534.01	346.40
534.18	393.21
534.35	514.92
534.52	397.89
534.69	430.66
534.86	409.59
535.03	456.40
535.20	456.40
535.37	430.66
535.54	409.59
535.71	425.98
535.88	411.93
536.05	521.94
536.22	482.15
536.38	388.53
536.55	425.98
536.72	407.25
536.89	372.15
537.06	440.02
537.23	386.19
537.40	414.27
537.57	470.45
537.74	409.59
537.91	425.98
538.08	451.72
538.25	421.30
538.42	360.44
538.59	442.36
538.75	435.34
538.92	383.85
539.09	421.30
539.26	442.36
539.43	411.93
539.60	505.56
539.77	421.30
539.94	395.55
540.11	409.59
540.28	465.77
540.44	451.72
540.61	435.34
540.78	355.76
540.95	440.02
541.12	423.64
541.29	411.93
541.46	500.87
541.62	451.72
541.79	407.25
541.96	425.98
542.13	404.91
542.30	376.83
542.47	383.85
542.63	400.23
542.80	322.99
542.97	402.57
543.14	414.27
543.31	456.40
543.48	416.62
543.64	468.11
543.81	397.89
543.98	374.49
544.15	437.68
544.32	428.32
544.48	451.72
544.65	437.68
544.82	376.83
544.99	334.70
545.16	428.32
545.32	437.68
545.49	444.70
545.66	409.59
545.83	416.62
546.00	404.91
546.16	437.68
546.33	325.33
546.50	414.27
546.67	451.72
546.83	421.30
547.00	355.76
547.17	327.68
547.34	393.21
547.50	407.25
547.67	463.43
547.84	447.04
548.00	498.53
548.17	388.53
548.34	416.62
548.51	517.26
548.67	454.06
548.84	393.21
549.01	390.87
549.18	388.53
549.34	360.44
549.51	428.32
549.68	425.98
549.84	433.00
550.01	444.70
550.18	463.43
550.34	503.22
550.51	418.96
550.68	486.83
550.84	374.49
551.01	484.49
551.18	418.96
551.34	444.70
551.51	461.09
551.68	367.46
551.84	451.72
552.01	411.93
552.18	351.08
552.34	437.68
552.51	390.87
552.68	425.98
552.84	440.02
553.01	447.04
553.18	372.15
553.34	372.15
553.51	386.19
553.67	421.30
553.84	512.58
554.01	369.80
554.17	475.13
554.34	484.49
554.51	362.78
554.67	461.09
554.84	435.34
555.00	468.11
555.17	456.40
555.33	458.74
555.50	421.30
555.67	383.85
555.83	411.93
556.00	407.25
556.16	538.32
556.33	538.32
556.50	425.98
556.66	435.34
556.83	402.57
556.99	472.79
557.16	421.30
557.32	416.62
557.49	360.44
557.65	383.85
557.82	407.25
557.98	475.13
558.15	358.10
558.32	454.06
558.48	402.57
558.65	400.23
558.81	491.51
558.98	397.89
559.14	482.15
559.31	428.32
559.47	365.12
559.64	390.87
559.80	372.15
559.97	348.74
560.13	421.30
560.30	430.66
560.46	390.87
560.63	360.44
560.79	533.64
560.96	407.25
561.12	454.06
561.29	435.34
561.45	468.11
561.61	379.17
561.78	472.79
561.94	437.68
562.11	428.32
562.27	510.24
562.44	444.70
562.60	484.49
562.77	411.93
562.93	472.79
563.10	447.04
563.26	433.00
563.42	430.66
563.59	393.21
563.75	433.00
563.92	425.98
564.08	510.24
564.24	470.45
564.41	444.70
564.57	393.21
564.74	454.06
564.90	402.57
565.07	437.68
565.23	358.10
565.39	418.96
565.56	411.93
565.72	332.36
565.88	461.09
566.05	393.21
566.21	397.89
566.38	369.80
566.54	386.19
566.70	395.55
566.87	435.34
567.03	395.55
567.19	383.85
567.36	461.09
567.52	362.78
567.68	393.21
567.85	430.66
568.01	376.83
568.17	402.57
568.34	414.27
568.50	425.98
568.66	447.04
568.83	454.06
568.99	442.36
569.15	430.66
569.32	400.23
569.48	423.64
569.64	407.25
569.81	440.02
569.97	454.06
570.13	402.57
570.30	409.59
570.46	416.62
570.62	360.44
570.78	458.74
570.95	404.91
571.11	475.13
571.27	444.70
571.43	397.89
571.60	330.02
571.76	404.91
571.92	388.53
572.09	400.23
572.25	496.19
572.41	447.04
572.57	437.68
572.74	456.40
572.90	418.96
573.06	383.85
573.22	456.40
573.38	545.34
573.55	477.47
573.71	503.22
573.87	435.34
574.03	440.02
574.20	351.08
574.36	517.26
574.52	458.74
574.68	489.17
574.84	465.77
575.01	383.85
575.17	430.66
575.33	472.79
575.49	444.70
575.65	423.64
575.82	397.89
575.98	437.68
576.14	411.93
576.30	414.27
576.46	437.68
576.62	393.21
576.79	362.78
576.95	524.28
577.11	358.10
577.27	421.30
577.43	468.11
577.59	456.40
577.75	468.11
577.92	404.91
578.08	418.96
578.24	444.70
578.40	430.66
578.56	449.38
578.72	430.66
578.88	451.72
579.04	367.46
579.21	472.79
579.37	344.06
579.53	369.80
579.69	489.17
579.85	416.62
580.01	404.91
580.17	454.06
580.33	449.38
580.49	374.49
580.65	418.96
580.82	358.10
580.98	451.72
581.14	465.77
581.30	428.32
581.46	430.66
581.62	458.74
581.78	416.62
581.94	458.74
582.10	454.06
582.26	440.02
582.42	379.17
582.58	395.55
582.74	400.23
582.90	430.66
583.06	404.91
583.22	433.00
583.38	402.57
583.54	402.57
583.70	440.02
583.86	447.04
584.02	418.96
584.18	486.83
584.34	372.15
584.50	407.25
584.66	369.80
584.82	367.46
584.98	404.91
585.14	421.30
585.30	411.93
585.46	383.85
585.62	362.78
585.78	418.96
585.94	435.34
586.10	388.53
586.26	374.49
586.42	437.68
586.58	360.44
586.74	416.62
586.90	435.34
587.06	358.10
587.22	393.21
587.38	327.68
587.54	376.83
587.70	383.85
587.86	496.19
588.02	327.68
588.18	402.57
588.34	454.06
588.49	369.80
588.65	463.43
588.81	444.70
588.97	430.66
589.13	367.46
589.29	500.87
589.45	477.47
589.61	430.66
589.77	421.30
589.93	454.06
590.08	409.59
590.24	393.21
590.40	409.59
590.56	374.49
590.72	400.23
590.88	390.87
591.04	411.93
591.20	442.36
591.35	423.64
591.51	423.64
591.67	383.85
591.83	430.66
591.99	484.49
592.15	456.40
592.31	416.62
592.46	393.21
592.62	414.27
592.78	425.98
592.94	454.06
593.10	362.78
593.26	458.74
593.41	472.79
593.57	409.59
593.73	400.23
593.89	435.34
594.05	339.38
594.20	372.15
594.36	475.13
594.52	400.23
594.68	428.32
594.84	435.34
594.99	400.23
595.15	442.36
595.31	444.70
595.47	505.56
595.62	376.83
595.78	404.91
595.94	468.11
596.10	379.17
596.25	365.12
596.41	482.15
596.57	397.89
596.73	442.36
596.88	456.40
597.04	444.70
597.20	369.80
597.36	444.70
597.51	400.23
597.67	397.89
597.83	404.91
597.99	435.34
598.14	409.59
598.30	411.93
598.46	379.17
598.61	393.21
598.77	486.83
598.93	454.06
599.09	430.66
599.24	360.44
599.40	461.09
599.56	435.34
599.71	400.23
599.87	430.66
600.03	421.30
600.18	372.15
600.34	458.74
600.50	418.96
600.65	400.23
600.81	390.87
600.97	425.98
601.12	409.59
601.28	423.64
601.44	437.68
601.59	425.98
601.75	435.34
601.91	440.02
602.06	435.34
602.22	526.62
602.37	500.87
602.53	461.09
602.69	397.89
602.84	402.57
603.00	437.68
603.16	491.51
603.31	433.00
603.47	402.57
603.62	402.57
603.78	397.89
603.94	416.62
604.09	423.64
604.25	430.66
604.40	395.55
604.56	421.30
604.71	470.45
604.87	390.87
605.03	458.74
605.18	528.96
605.34	442.36
605.49	425.98
605.65	449.38
605.80	423.64
605.96	435.34
606.12	365.12
606.27	451.72
606.43	451.72
606.58	477.47
606.74	407.25
606.89	470.45
607.05	484.49
607.20	454.06
607.36	381.51
607.51	374.49
607.67	437.68
607.82	407.25
607.98	507.90
608.13	458.74
608.29	465.77
608.44	465.77
608.60	402.57
608.75	386.19
608.91	461.09
609.06	493.85
609.22	411.93
609.37	442.36
609.53	351.08
609.68	440.02
609.84	386.19
609.99	372.15
610.15	458.74
610.30	435.34
610.46	519.60
610.61	503.22
610.76	383.85
610.92	407.25
611.07	458.74
611.23	489.17
611.38	461.09
611.54	477.47
611.69	418.96
611.84	376.83
612.00	449.38
612.15	416.62
612.31	393.21
612.46	421.30
612.62	416.62
612.77	372.15
612.92	425.98
613.08	421.30
613.23	404.91
613.39	402.57
613.54	376.83
613.69	383.85
613.85	433.00
614.00	369.80
614.15	433.00
614.31	407.25
614.46	449.38
614.62	470.45
614.77	395.55
614.92	390.87
615.08	379.17
615.23	435.34
615.38	395.55
615.54	397.89
615.69	367.46
615.84	461.09
616.00	411.93
616.15	395.55
616.30	404.91
616.46	379.17
616.61	423.64
616.76	433.00
616.92	425.98
617.07	416.62
617.22	447.04
617.37	386.19
617.53	348.74
617.68	463.43
617.83	461.09
617.99	428.32
618.14	470.45
618.29	393.21
618.45	423.64
618.60	400.23
618.75	444.70
618.90	411.93
619.06	416.62
619.21	428.32
619.36	379.17
619.51	423.64
619.67	449.38
619.82	425.98
619.97	386.19
620.12	442.36
620.28	404.91
620.43	437.68
620.58	461.09
620.73	411.93
620.89	461.09
621.04	442.36
621.19	437.68
621.34	458.74
621.49	421.30
621.65	421.30
621.80	362.78
621.95	442.36
622.10	458.74
622.25	447.04
622.41	468.11
622.56	388.53
622.71	355.76
622.86	374.49
623.01	442.36
623.16	404.91
623.32	376.83
623.47	447.04
623.62	390.87
623.77	409.59
623.92	418.96
624.07	482.15
624.23	430.66
624.38	423.64
624.53	503.22
624.68	477.47
624.83	482.15
624.98	498.53
625.13	449.38
625.29	411.93
625.44	430.66
625.59	358.10
625.74	379.17
625.89	428.32
626.04	390.87
626.19	351.08
626.34	414.27
626.49	437.68
626.65	454.06
626.80	430.66
626.95	369.80
627.10	425.98
627.25	416.62
627.40	421.30
627.55	451.72
627.70	414.27
627.85	458.74
628.00	362.78
628.15	320.65
628.30	444.70
628.45	433.00
628.60	379.17
628.76	383.85
628.91	402.57
629.06	449.38
629.21	461.09
629.36	463.43
629.51	425.98
629.66	433.00
629.81	437.68
629.96	433.00
630.11	482.15
630.26	404.91
630.41	440.02
630.56	442.36
630.71	383.85
630.86	444.70
631.01	379.17
631.16	362.78
631.31	456.40
631.46	428.32
631.61	451.72
631.76	430.66
631.91	409.59
632.06	327.68
632.21	381.51
632.36	390.87
632.51	449.38
632.66	514.92
632.81	386.19
632.96	449.38
633.10	407.25
633.25	517.26
633.40	365.12
633.55	498.53
633.70	428.32
633.85	402.57
634.00	383.85
634.15	365.12
634.30	407.25
634.45	360.44
634.60	362.78
634.75	454.06
634.90	423.64
635.05	393.21
635.19	376.83
635.34	393.21
635.49	444.70
635.64	500.87
635.79	437.68
635.94	402.57
636.09	337.04
636.24	409.59
636.39	311.29
636.53	388.53
636.68	524.28
636.83	379.17
636.98	430.66
637.13	376.83
637.28	454.06
637.43	444.70
637.57	421.30
637.72	418.96
637.87	379.17
638.02	334.70
638.17	390.87
638.32	383.85
638.46	372.15
638.61	435.34
638.76	428.32
638.91	425.98
639.06	430.66
639.20	400.23
639.35	411.93
639.50	425.98
639.65	472.79
639.80	414.27
639.94	449.38
640.09	454.06
640.24	475.13
640.39	447.04
640.54	404.91
640.68	390.87
640.83	425.98
640.98	444.70
641.13	376.83
641.27	388.53
641.42	383.85
641.57	388.53
641.72	411.93
641.86	397.89
642.01	442.36
642.16	404.91
642.31	458.74
642.45	437.68
642.60	416.62
642.75	367.46
642.90	447.04
643.04	393.21
643.19	402.57
643.34	435.34
643.48	407.25
643.63	444.70
643.78	440.02
643.93	433.00
644.07	404.91
644.22	386.19
644.37	437.68
644.51	425.98
644.66	461.09
644.81	414.27
644.95	437.68
645.10	416.62
645.25	365.12
645.39	418.96
645.54	447.04
645.69	440.02
645.83	442.36
645.98	383.85
646.13	414.27
646.27	428.32
646.42	400.23
646.57	402.57
646.71	355.76
646.86	409.59
647.00	444.70
647.15	437.68
647.30	376.83
647.44	390.87
647.59	465.77
647.74	447.04
647.88	330.02
648.03	404.91
648.17	449.38
648.32	482.15
648.47	411.93
648.61	425.98
648.76	411.93
648.90	365.12
649.05	433.00
649.20	369.80
649.34	397.89
649.49	463.43
649.63	430.66
649.78	449.38
649.92	383.85
650.07	416.62
650.21	374.49
650.36	489.17
650.51	346.40
650.65	456.40
650.80	355.76
650.94	351.08
651.09	475.13
651.23	374.49
651.38	416.62
651.52	500.87
651.67	409.59
651.81	409.59
651.96	388.53
652.10	451.72
652.25	461.09
652.39	416.62
652.54	458.74
652.68	404.91
652.83	425.98
652.97	383.85
653.12	402.57
653.26	379.17
653.41	388.53
653.55	447.04
653.70	388.53
653.84	416.62
653.99	416.62
654.13	425.98
654.27	461.09
654.42	404.91
654.56	456.40
654.71	430.66
654.85	395.55
655.00	437.68
655.14	383.85
655.29	411.93
655.43	379.17
655.57	425.98
655.72	486.83
655.86	388.53
656.01	411.93
656.15	388.53
656.30	482.15
656.44	475.13
656.58	433.00
656.73	430.66
656.87	409.59
657.01	374.49
657.16	348.74
657.30	358.10
657.45	376.83
657.59	414.27
657.73	411.93
657.88	409.59
658.02	479.81
658.16	454.06
658.31	437.68
658.45	416.62
658.60	437.68
658.74	386.19
658.88	381.51
659.03	390.87
659.17	442.36
659.31	451.72
659.46	381.51
659.60	510.24
659.74	489.17
659.89	442.36
660.03	421.30
660.17	395.55
660.32	433.00
660.46	367.46
660.60	404.91
660.74	393.21
660.89	447.04
661.03	388.53
661.17	428.32
661.32	416.62
661.46	365.12
661.60	414.27
661.74	404.91
661.89	416.62
662.03	395.55
662.17	337.04
662.31	421.30
662.46	470.45
662.60	440.02
662.74	362.78
662.88	437.68
663.03	407.25
663.17	393.21
663.31	435.34
663.45	404.91
663.60	440.02
663.74	454.06
663.88	353.42
664.02	404.91
664.17	414.27
664.31	475.13
664.45	433.00
664.59	409.59
664.73	388.53
664.88	435.34
665.02	369.80
665.16	440.02
665.30	465.77
665.44	444.70
665.59	400.23
665.73	409.59
665.87	440.02
666.01	404.91
666.15	374.49
666.29	393.21
666.44	491.51
666.58	503.22
666.72	421.30
666.86	454.06
667.00	428.32
667.14	395.55
667.28	400.23
667.43	418.96
667.57	472.79
667.71	454.06
667.85	379.17
667.99	437.68
668.13	404.91
668.27	416.62
668.41	437.68
668.56	414.27
668.70	465.77
668.84	458.74
668.98	486.83
669.12	327.68
669.26	444.70
669.40	449.38
669.54	423.64
669.68	402.57
669.82	409.59
669.96	475.13
670.10	414.27
670.25	425.98
670.39	423.64
670.53	428.32
670.67	383.85
670.81	320.65
670.95	416.62
671.09	437.68
671.23	404.91
671.37	379.17
671.51	423.64
671.65	447.04
671.79	416.62
671.93	435.34
672.07	433.00
672.21	489.17
672.35	418.96
672.49	458.74
672.63	440.02
672.77	442.36
672.91	407.25
673.05	402.57
673.19	416.62
673.33	393.21
673.47	472.79
673.61	388.53
673.75	367.46
673.89	535.98
674.03	379.17
674.17	393.21
674.31	421.30
674.45	425.98
674.59	433.00
674.73	423.64
674.87	418.96
675.01	484.49
675.15	365.12
675.29	425.98
675.43	484.49
675.56	482.15
675.70	463.43
675.84	472.79
675.98	449.38
676.12	372.15
676.26	376.83
676.40	430.66
676.54	444.70
676.68	381.51
676.82	463.43
676.96	456.40
677.10	421.30
677.23	393.21
677.37	414.27
677.51	290.23
677.65	444.70
677.79	386.19
677.93	365.12
678.07	421.30
678.21	360.44
678.34	433.00
678.48	379.17
678.62	475.13
678.76	397.89
678.90	386.19
679.04	393.21
679.18	404.91
679.31	440.02
679.45	440.02
679.59	428.32
679.73	456.40
679.87	400.23
680.00	475.13
680.14	402.57
680.28	409.59
680.42	409.59
680.56	397.89
680.70	421.30
680.83	348.74
680.97	425.98
681.11	353.42
681.25	421.30
681.39	482.15
681.52	411.93
681.66	397.89
681.80	463.43
681.94	456.40
682.07	379.17
682.21	407.25
682.35	355.76
682.49	355.76
682.62	451.72
682.76	400.23
682.90	433.00
683.04	447.04
683.17	435.34
683.31	379.17
683.45	451.72
683.59	484.49
683.72	449.38
683.86	393.21
684.00	421.30
684.13	411.93
684.27	362.78
684.41	386.19
684.55	355.76
684.68	449.38
684.82	322.99
684.96	447.04
685.09	428.32
685.23	325.33
685.37	367.46
685.50	447.04
685.64	409.59
685.78	404.91
685.91	470.45
686.05	470.45
686.19	397.89
686.32	463.43
686.46	383.85
686.60	332.36
686.73	475.13
686.87	353.42
687.01	400.23
687.14	395.55
687.28	449.38
687.42	353.42
687.55	418.96
687.69	498.53
687.82	404.91
687.96	355.76
688.10	402.57
688.23	407.25
688.37	428.32
688.50	423.64
688.64	388.53
688.78	451.72
688.91	369.80
689.05	395.55
689.18	332.36
689.32	362.78
689.46	397.89
689.59	428.32
689.73	470.45
689.86	440.02
690.00	428.32
690.13	395.55
690.27	383.85
690.41	400.23
690.54	418.96
690.68	428.32
690.81	407.25
690.95	379.17
691.08	369.80
691.22	425.98
691.35	414.27
691.49	411.93
691.62	414.27
691.76	482.15
691.89	400.23
692.03	388.53
692.16	407.25
692.30	440.02
692.43	454.06
692.57	423.64
692.70	440.02
692.84	435.34
692.97	369.80
693.11	369.80
693.24	409.59
693.38	440.02
693.51	418.96
693.65	409.59
693.78	346.40
693.92	393.21
694.05	414.27
694.19	449.38
694.32	423.64
694.45	409.59
694.59	344.06
694.72	400.23
694.86	407.25
694.99	461.09
695.13	482.15
695.26	449.38
695.39	451.72
695.53	498.53
695.66	402.57
695.80	440.02
695.93	393.21
696.07	435.34
696.20	449.38
696.33	358.10
696.47	414.27
696.60	388.53
696.73	524.28
696.87	444.70
697.00	393.21
697.14	428.32
697.27	454.06
697.40	550.03
697.54	435.34
697.67	440.02
697.80	465.77
697.94	463.43
698.07	416.62
698.21	348.74
698.34	428.32
698.47	358.10
698.61	381.51
698.74	367.46
698.87	444.70
699.01	437.68
699.14	472.79
699.27	451.72
699.40	571.09
699.54	355.76
699.67	372.15
699.80	395.55
699.94	428.32
700.07	421.30
700.20	435.34
700.34	428.32
700.47	400.23
700.60	402.57
700.73	365.12
700.87	397.89
701.00	414.27
701.13	341.72
701.26	444.70
701.40	423.64
701.53	458.74
701.66	376.83
701.79	510.24
701.93	433.00
702.06	472.79
702.19	374.49
702.32	376.83
702.46	416.62
702.59	449.38
702.72	383.85
702.85	404.91
702.99	404.91
703.12	447.04
703.25	393.21
703.38	477.47
703.51	437.68
703.65	390.87
703.78	355.76
703.91	423.64
704.04	428.32
704.17	386.19
704.31	407.25
704.44	332.36
704.57	447.04
704.70	430.66
704.83	510.24
704.96	447.04
705.10	458.74
705.23	390.87
>>>>>End Processed Spectral Data<<<<<
