SpectraSuite Data File
++++++++++++++++++++++++++++++++++++
Date: Fri Oct 25 12:11:37 EDT 2013
User: price-jones
Dark Spectrum Present: No
Reference Spectrum Present: No
Number of Sampled Component Spectra: 1
Spectrometers: USB2+H05261
Integration Time (usec): 100000 (USB2+H05261)
Spectra Averaged: 1 (USB2+H05261)
Boxcar Smoothing: 0 (USB2+H05261)
Correct for Electrical Dark: No (USB2+H05261)
Strobe/Lamp Enabled: No (USB2+H05261)
Correct for Detector Non-linearity: No (USB2+H05261)
Correct for Stray Light: No (USB2+H05261)
Number of Pixels in Processed Spectrum: 2048
>>>>>Begin Processed Spectral Data<<<<<
365.73	386.19
365.92	386.19
366.12	386.19
366.32	266.82
366.52	308.95
366.72	203.63
366.91	271.50
367.11	201.29
367.31	264.48
367.51	236.39
367.70	203.63
367.90	215.33
368.10	290.23
368.30	222.35
368.49	234.05
368.69	287.89
368.89	264.48
369.09	227.03
369.28	224.69
369.48	262.14
369.68	266.82
369.87	299.59
370.07	395.55
370.27	393.21
370.47	299.59
370.66	346.40
370.86	374.49
371.06	341.72
371.25	437.68
371.45	388.53
371.65	383.85
371.84	409.59
372.04	337.04
372.24	365.12
372.44	351.08
372.63	407.25
372.83	395.55
373.03	341.72
373.22	402.57
373.42	332.36
373.62	440.02
373.81	435.34
374.01	414.27
374.21	451.72
374.40	470.45
374.60	388.53
374.79	430.66
374.99	477.47
375.19	376.83
375.38	440.02
375.58	440.02
375.78	444.70
375.97	395.55
376.17	440.02
376.37	416.62
376.56	365.12
376.76	435.34
376.95	425.98
377.15	470.45
377.35	430.66
377.54	451.72
377.74	433.00
377.93	360.44
378.13	421.30
378.33	425.98
378.52	421.30
378.72	418.96
378.91	447.04
379.11	411.93
379.31	400.23
379.50	421.30
379.70	421.30
379.89	444.70
380.09	421.30
380.28	386.19
380.48	423.64
380.68	376.83
380.87	404.91
381.07	433.00
381.26	409.59
381.46	386.19
381.65	386.19
381.85	416.62
382.04	358.10
382.24	355.76
382.43	351.08
382.63	409.59
382.83	440.02
383.02	409.59
383.22	428.32
383.41	418.96
383.61	425.98
383.80	386.19
384.00	400.23
384.19	442.36
384.39	425.98
384.58	344.06
384.78	425.98
384.97	390.87
385.17	386.19
385.36	414.27
385.56	327.68
385.75	320.65
385.95	428.32
386.14	367.46
386.34	440.02
386.53	465.77
386.72	400.23
386.92	379.17
387.11	456.40
387.31	461.09
387.50	458.74
387.70	409.59
387.89	372.15
388.09	395.55
388.28	404.91
388.48	353.42
388.67	337.04
388.86	418.96
389.06	379.17
389.25	402.57
389.45	414.27
389.64	351.08
389.84	411.93
390.03	425.98
390.22	388.53
390.42	442.36
390.61	386.19
390.81	376.83
391.00	337.04
391.19	414.27
391.39	379.17
391.58	423.64
391.78	379.17
391.97	430.66
392.16	390.87
392.36	423.64
392.55	395.55
392.75	440.02
392.94	390.87
393.13	437.68
393.33	447.04
393.52	409.59
393.71	414.27
393.91	449.38
394.10	388.53
394.29	425.98
394.49	360.44
394.68	381.51
394.88	428.32
395.07	372.15
395.26	313.63
395.46	418.96
395.65	458.74
395.84	351.08
396.04	444.70
396.23	393.21
396.42	362.78
396.62	435.34
396.81	461.09
397.00	390.87
397.19	433.00
397.39	407.25
397.58	416.62
397.77	430.66
397.97	433.00
398.16	393.21
398.35	407.25
398.55	395.55
398.74	374.49
398.93	444.70
399.12	444.70
399.32	437.68
399.51	390.87
399.70	430.66
399.90	409.59
400.09	409.59
400.28	418.96
400.47	348.74
400.67	428.32
400.86	379.17
401.05	458.74
401.24	418.96
401.44	475.13
401.63	360.44
401.82	418.96
402.01	367.46
402.21	428.32
402.40	397.89
402.59	365.12
402.78	388.53
402.97	407.25
403.17	402.57
403.36	423.64
403.55	407.25
403.74	346.40
403.93	430.66
404.13	449.38
404.32	383.85
404.51	418.96
404.70	404.91
404.89	365.12
405.09	456.40
405.28	425.98
405.47	365.12
405.66	414.27
405.85	379.17
406.05	461.09
406.24	430.66
406.43	383.85
406.62	388.53
406.81	456.40
407.00	435.34
407.20	500.87
407.39	393.21
407.58	428.32
407.77	416.62
407.96	528.96
408.15	409.59
408.34	428.32
408.54	407.25
408.73	351.08
408.92	369.80
409.11	346.40
409.30	479.81
409.49	461.09
409.68	379.17
409.87	365.12
410.07	416.62
410.26	416.62
410.45	437.68
410.64	388.53
410.83	463.43
411.02	430.66
411.21	521.94
411.40	383.85
411.59	428.32
411.78	376.83
411.98	416.62
412.17	423.64
412.36	421.30
412.55	458.74
412.74	449.38
412.93	402.57
413.12	416.62
413.31	451.72
413.50	379.17
413.69	372.15
413.88	470.45
414.07	360.44
414.26	416.62
414.45	393.21
414.64	393.21
414.83	395.55
415.02	416.62
415.22	486.83
415.41	409.59
415.60	404.91
415.79	407.25
415.98	402.57
416.17	393.21
416.36	339.38
416.55	400.23
416.74	383.85
416.93	451.72
417.12	433.00
417.31	435.34
417.50	458.74
417.69	486.83
417.88	365.12
418.07	416.62
418.26	397.89
418.45	367.46
418.64	397.89
418.83	418.96
419.02	470.45
419.21	386.19
419.39	402.57
419.58	414.27
419.77	411.93
419.96	435.34
420.15	451.72
420.34	381.51
420.53	390.87
420.72	388.53
420.91	365.12
421.10	400.23
421.29	369.80
421.48	482.15
421.67	383.85
421.86	369.80
422.05	337.04
422.24	421.30
422.43	442.36
422.61	451.72
422.80	433.00
422.99	423.64
423.18	400.23
423.37	461.09
423.56	451.72
423.75	425.98
423.94	348.74
424.13	367.46
424.32	414.27
424.50	393.21
424.69	379.17
424.88	475.13
425.07	416.62
425.26	395.55
425.45	418.96
425.64	358.10
425.83	390.87
426.01	458.74
426.20	442.36
426.39	421.30
426.58	388.53
426.77	433.00
426.96	449.38
427.15	423.64
427.33	397.89
427.52	351.08
427.71	346.40
427.90	365.12
428.09	447.04
428.28	409.59
428.46	449.38
428.65	414.27
428.84	416.62
429.03	400.23
429.22	435.34
429.40	470.45
429.59	351.08
429.78	421.30
429.97	372.15
430.16	395.55
430.34	425.98
430.53	409.59
430.72	493.85
430.91	435.34
431.10	416.62
431.28	423.64
431.47	418.96
431.66	416.62
431.85	416.62
432.03	400.23
432.22	482.15
432.41	407.25
432.60	482.15
432.79	348.74
432.97	416.62
433.16	456.40
433.35	433.00
433.54	374.49
433.72	411.93
433.91	425.98
434.10	386.19
434.28	395.55
434.47	395.55
434.66	442.36
434.85	475.13
435.03	383.85
435.22	489.17
435.41	451.72
435.59	409.59
435.78	414.27
435.97	430.66
436.16	444.70
436.34	423.64
436.53	386.19
436.72	400.23
436.90	475.13
437.09	381.51
437.28	440.02
437.46	437.68
437.65	437.68
437.84	386.19
438.02	411.93
438.21	437.68
438.40	479.81
438.58	397.89
438.77	386.19
438.96	454.06
439.14	407.25
439.33	402.57
439.52	425.98
439.70	461.09
439.89	428.32
440.08	362.78
440.26	355.76
440.45	451.72
440.63	440.02
440.82	425.98
441.01	451.72
441.19	437.68
441.38	402.57
441.57	348.74
441.75	369.80
441.94	463.43
442.12	390.87
442.31	376.83
442.50	400.23
442.68	418.96
442.87	423.64
443.05	313.63
443.24	430.66
443.43	447.04
443.61	404.91
443.80	433.00
443.98	409.59
444.17	456.40
444.35	411.93
444.54	369.80
444.73	409.59
444.91	472.79
445.10	372.15
445.28	374.49
445.47	461.09
445.65	435.34
445.84	411.93
446.02	414.27
446.21	465.77
446.39	409.59
446.58	423.64
446.77	409.59
446.95	449.38
447.14	430.66
447.32	400.23
447.51	344.06
447.69	463.43
447.88	381.51
448.06	454.06
448.25	414.27
448.43	367.46
448.62	395.55
448.80	351.08
448.99	500.87
449.17	430.66
449.36	421.30
449.54	437.68
449.73	339.38
449.91	395.55
450.10	372.15
450.28	444.70
450.46	451.72
450.65	360.44
450.83	369.80
451.02	402.57
451.20	418.96
451.39	414.27
451.57	358.10
451.76	404.91
451.94	428.32
452.13	367.46
452.31	393.21
452.49	470.45
452.68	414.27
452.86	409.59
453.05	468.11
453.23	430.66
453.42	388.53
453.60	423.64
453.78	440.02
453.97	444.70
454.15	414.27
454.34	433.00
454.52	421.30
454.70	451.72
454.89	437.68
455.07	374.49
455.26	395.55
455.44	442.36
455.62	360.44
455.81	414.27
455.99	280.86
456.17	409.59
456.36	376.83
456.54	423.64
456.73	294.91
456.91	360.44
457.09	414.27
457.28	444.70
457.46	404.91
457.64	393.21
457.83	416.62
458.01	414.27
458.19	379.17
458.38	402.57
458.56	477.47
458.74	423.64
458.93	393.21
459.11	418.96
459.29	414.27
459.48	418.96
459.66	428.32
459.84	465.77
460.03	442.36
460.21	451.72
460.39	348.74
460.57	381.51
460.76	454.06
460.94	421.30
461.12	451.72
461.31	365.12
461.49	433.00
461.67	428.32
461.85	437.68
462.04	430.66
462.22	741.95
462.40	423.64
462.59	486.83
462.77	407.25
462.95	437.68
463.13	402.57
463.32	388.53
463.50	461.09
463.68	428.32
463.86	463.43
464.05	433.00
464.23	484.49
464.41	393.21
464.59	376.83
464.78	468.11
464.96	440.02
465.14	383.85
465.32	367.46
465.50	407.25
465.69	414.27
465.87	390.87
466.05	374.49
466.23	428.32
466.41	414.27
466.60	414.27
466.78	369.80
466.96	435.34
467.14	491.51
467.32	505.56
467.51	379.17
467.69	407.25
467.87	442.36
468.05	440.02
468.23	437.68
468.41	372.15
468.60	416.62
468.78	442.36
468.96	472.79
469.14	421.30
469.32	348.74
469.50	400.23
469.69	444.70
469.87	414.27
470.05	458.74
470.23	447.04
470.41	388.53
470.59	390.87
470.77	447.04
470.95	351.08
471.14	418.96
471.32	416.62
471.50	372.15
471.68	348.74
471.86	447.04
472.04	397.89
472.22	454.06
472.40	486.83
472.58	465.77
472.77	367.46
472.95	388.53
473.13	557.05
473.31	430.66
473.49	374.49
473.67	421.30
473.85	433.00
474.03	393.21
474.21	388.53
474.39	423.64
474.57	489.17
474.75	372.15
474.93	407.25
475.12	383.85
475.30	388.53
475.48	341.72
475.66	416.62
475.84	388.53
476.02	435.34
476.20	479.81
476.38	414.27
476.56	425.98
476.74	411.93
476.92	416.62
477.10	444.70
477.28	433.00
477.46	400.23
477.64	425.98
477.82	407.25
478.00	470.45
478.18	428.32
478.36	360.44
478.54	414.27
478.72	449.38
478.90	351.08
479.08	381.51
479.26	383.85
479.44	344.06
479.62	416.62
479.80	341.72
479.98	362.78
480.16	383.85
480.34	400.23
480.52	430.66
480.70	437.68
480.88	400.23
481.06	388.53
481.24	442.36
481.41	468.11
481.59	437.68
481.77	437.68
481.95	390.87
482.13	449.38
482.31	444.70
482.49	456.40
482.67	430.66
482.85	444.70
483.03	411.93
483.21	416.62
483.39	493.85
483.57	386.19
483.74	421.30
483.92	442.36
484.10	409.59
484.28	393.21
484.46	409.59
484.64	374.49
484.82	472.79
485.00	404.91
485.18	442.36
485.35	465.77
485.53	489.17
485.71	507.90
485.89	409.59
486.07	404.91
486.25	442.36
486.43	430.66
486.61	409.59
486.78	397.89
486.96	425.98
487.14	486.83
487.32	402.57
487.50	472.79
487.68	479.81
487.85	362.78
488.03	344.06
488.21	400.23
488.39	444.70
488.57	388.53
488.75	395.55
488.92	503.22
489.10	430.66
489.28	463.43
489.46	383.85
489.64	425.98
489.81	386.19
489.99	430.66
490.17	395.55
490.35	512.58
490.53	407.25
490.70	386.19
490.88	421.30
491.06	479.81
491.24	348.74
491.41	386.19
491.59	465.77
491.77	510.24
491.95	404.91
492.13	379.17
492.30	360.44
492.48	400.23
492.66	372.15
492.84	414.27
493.01	369.80
493.19	411.93
493.37	365.12
493.54	552.37
493.72	341.72
493.90	433.00
494.08	355.76
494.25	470.45
494.43	421.30
494.61	407.25
494.79	428.32
494.96	395.55
495.14	461.09
495.32	425.98
495.49	407.25
495.67	404.91
495.85	402.57
496.02	416.62
496.20	390.87
496.38	407.25
496.55	428.32
496.73	461.09
496.91	381.51
497.09	369.80
497.26	433.00
497.44	423.64
497.62	390.87
497.79	430.66
497.97	407.25
498.14	416.62
498.32	433.00
498.50	444.70
498.67	365.12
498.85	423.64
499.03	376.83
499.20	458.74
499.38	353.42
499.56	423.64
499.73	461.09
499.91	423.64
500.08	400.23
500.26	437.68
500.44	360.44
500.61	418.96
500.79	348.74
500.97	402.57
501.14	444.70
501.32	428.32
501.49	425.98
501.67	425.98
501.84	479.81
502.02	376.83
502.20	397.89
502.37	433.00
502.55	383.85
502.72	337.04
502.90	470.45
503.07	454.06
503.25	444.70
503.43	400.23
503.60	463.43
503.78	346.40
503.95	416.62
504.13	451.72
504.30	425.98
504.48	376.83
504.65	512.58
504.83	365.12
505.01	416.62
505.18	456.40
505.36	447.04
505.53	407.25
505.71	407.25
505.88	414.27
506.06	437.68
506.23	440.02
506.41	418.96
506.58	404.91
506.76	442.36
506.93	433.00
507.11	400.23
507.28	430.66
507.46	421.30
507.63	428.32
507.81	454.06
507.98	461.09
508.16	407.25
508.33	454.06
508.50	369.80
508.68	442.36
508.85	444.70
509.03	451.72
509.20	440.02
509.38	379.17
509.55	379.17
509.73	437.68
509.90	428.32
510.08	355.76
510.25	379.17
510.42	395.55
510.60	423.64
510.77	388.53
510.95	386.19
511.12	440.02
511.30	390.87
511.47	383.85
511.64	442.36
511.82	341.72
511.99	416.62
512.17	376.83
512.34	369.80
512.51	367.46
512.69	407.25
512.86	348.74
513.04	388.53
513.21	379.17
513.38	381.51
513.56	348.74
513.73	435.34
513.90	463.43
514.08	351.08
514.25	425.98
514.43	437.68
514.60	397.89
514.77	390.87
514.95	442.36
515.12	435.34
515.29	308.95
515.47	393.21
515.64	564.07
515.81	458.74
515.99	418.96
516.16	433.00
516.33	435.34
516.51	365.12
516.68	397.89
516.85	411.93
517.03	454.06
517.20	402.57
517.37	400.23
517.54	454.06
517.72	425.98
517.89	477.47
518.06	414.27
518.24	491.51
518.41	376.83
518.58	372.15
518.75	402.57
518.93	372.15
519.10	454.06
519.27	374.49
519.45	409.59
519.62	451.72
519.79	379.17
519.96	414.27
520.14	428.32
520.31	456.40
520.48	447.04
520.65	461.09
520.83	449.38
521.00	404.91
521.17	461.09
521.34	440.02
521.52	444.70
521.69	367.46
521.86	404.91
522.03	402.57
522.20	470.45
522.38	411.93
522.55	393.21
522.72	397.89
522.89	381.51
523.07	444.70
523.24	435.34
523.41	437.68
523.58	491.51
523.75	472.79
523.92	428.32
524.10	440.02
524.27	428.32
524.44	402.57
524.61	498.53
524.78	500.87
524.96	472.79
525.13	449.38
525.30	437.68
525.47	388.53
525.64	484.49
525.81	461.09
525.98	447.04
526.16	468.11
526.33	442.36
526.50	472.79
526.67	374.49
526.84	414.27
527.01	479.81
527.18	414.27
527.36	440.02
527.53	376.83
527.70	383.85
527.87	458.74
528.04	440.02
528.21	388.53
528.38	430.66
528.55	458.74
528.72	404.91
528.89	418.96
529.07	404.91
529.24	437.68
529.41	425.98
529.58	383.85
529.75	503.22
529.92	418.96
530.09	397.89
530.26	416.62
530.43	362.78
530.60	374.49
530.77	351.08
530.94	442.36
531.11	374.49
531.28	479.81
531.46	362.78
531.63	407.25
531.80	433.00
531.97	367.46
532.14	372.15
532.31	379.17
532.48	416.62
532.65	437.68
532.82	341.72
532.99	465.77
533.16	418.96
533.33	416.62
533.50	423.64
533.67	353.42
533.84	339.38
534.01	397.89
534.18	393.21
534.35	414.27
534.52	388.53
534.69	440.02
534.86	418.96
535.03	376.83
535.20	423.64
535.37	437.68
535.54	440.02
535.71	397.89
535.88	418.96
536.05	479.81
536.22	400.23
536.38	435.34
536.55	442.36
536.72	393.21
536.89	407.25
537.06	472.79
537.23	393.21
537.40	376.83
537.57	433.00
537.74	472.79
537.91	454.06
538.08	456.40
538.25	428.32
538.42	444.70
538.59	428.32
538.75	461.09
538.92	397.89
539.09	486.83
539.26	447.04
539.43	458.74
539.60	425.98
539.77	433.00
539.94	400.23
540.11	400.23
540.28	358.10
540.44	402.57
540.61	451.72
540.78	454.06
540.95	416.62
541.12	440.02
541.29	430.66
541.46	397.89
541.62	479.81
541.79	425.98
541.96	400.23
542.13	411.93
542.30	365.12
542.47	440.02
542.63	465.77
542.80	376.83
542.97	447.04
543.14	395.55
543.31	428.32
543.48	425.98
543.64	409.59
543.81	400.23
543.98	416.62
544.15	425.98
544.32	425.98
544.48	428.32
544.65	447.04
544.82	479.81
544.99	454.06
545.16	470.45
545.32	418.96
545.49	362.78
545.66	444.70
545.83	360.44
546.00	372.15
546.16	374.49
546.33	411.93
546.50	397.89
546.67	402.57
546.83	468.11
547.00	437.68
547.17	491.51
547.34	374.49
547.50	360.44
547.67	430.66
547.84	416.62
548.00	411.93
548.17	435.34
548.34	397.89
548.51	428.32
548.67	344.06
548.84	425.98
549.01	444.70
549.18	400.23
549.34	393.21
549.51	353.42
549.68	397.89
549.84	402.57
550.01	404.91
550.18	418.96
550.34	543.00
550.51	411.93
550.68	449.38
550.84	393.21
551.01	456.40
551.18	442.36
551.34	437.68
551.51	407.25
551.68	435.34
551.84	498.53
552.01	451.72
552.18	418.96
552.34	404.91
552.51	503.22
552.68	372.15
552.84	379.17
553.01	404.91
553.18	477.47
553.34	442.36
553.51	395.55
553.67	404.91
553.84	468.11
554.01	440.02
554.17	393.21
554.34	449.38
554.51	433.00
554.67	358.10
554.84	376.83
555.00	388.53
555.17	407.25
555.33	482.15
555.50	407.25
555.67	435.34
555.83	437.68
556.00	407.25
556.16	482.15
556.33	475.13
556.50	379.17
556.66	447.04
556.83	437.68
556.99	395.55
557.16	528.96
557.32	416.62
557.49	423.64
557.65	449.38
557.82	484.49
557.98	465.77
558.15	472.79
558.32	461.09
558.48	407.25
558.65	393.21
558.81	461.09
558.98	428.32
559.14	362.78
559.31	440.02
559.47	411.93
559.64	433.00
559.80	400.23
559.97	430.66
560.13	449.38
560.30	482.15
560.46	318.31
560.63	456.40
560.79	425.98
560.96	404.91
561.12	390.87
561.29	461.09
561.45	383.85
561.61	390.87
561.78	498.53
561.94	475.13
562.11	428.32
562.27	362.78
562.44	386.19
562.60	395.55
562.77	404.91
562.93	372.15
563.10	475.13
563.26	428.32
563.42	379.17
563.59	411.93
563.75	395.55
563.92	496.19
564.08	374.49
564.24	393.21
564.41	411.93
564.57	404.91
564.74	454.06
564.90	435.34
565.07	409.59
565.23	475.13
565.39	388.53
565.56	411.93
565.72	468.11
565.88	428.32
566.05	423.64
566.21	437.68
566.38	360.44
566.54	411.93
566.70	388.53
566.87	407.25
567.03	433.00
567.19	440.02
567.36	404.91
567.52	421.30
567.68	416.62
567.85	451.72
568.01	428.32
568.17	339.38
568.34	388.53
568.50	444.70
568.66	355.76
568.83	505.56
568.99	425.98
569.15	416.62
569.32	510.24
569.48	376.83
569.64	418.96
569.81	414.27
569.97	409.59
570.13	404.91
570.30	440.02
570.46	414.27
570.62	458.74
570.78	430.66
570.95	402.57
571.11	367.46
571.27	430.66
571.43	435.34
571.60	430.66
571.76	447.04
571.92	470.45
572.09	393.21
572.25	456.40
572.41	393.21
572.57	430.66
572.74	482.15
572.90	454.06
573.06	283.20
573.22	505.56
573.38	388.53
573.55	425.98
573.71	423.64
573.87	423.64
574.03	451.72
574.20	393.21
574.36	433.00
574.52	379.17
574.68	390.87
574.84	477.47
575.01	334.70
575.17	442.36
575.33	472.79
575.49	421.30
575.65	402.57
575.82	454.06
575.98	404.91
576.14	430.66
576.30	418.96
576.46	381.51
576.62	447.04
576.79	421.30
576.95	458.74
577.11	416.62
577.27	414.27
577.43	451.72
577.59	414.27
577.75	475.13
577.92	447.04
578.08	440.02
578.24	423.64
578.40	430.66
578.56	421.30
578.72	365.12
578.88	393.21
579.04	414.27
579.21	395.55
579.37	433.00
579.53	463.43
579.69	416.62
579.85	416.62
580.01	414.27
580.17	454.06
580.33	365.12
580.49	344.06
580.65	456.40
580.82	397.89
580.98	456.40
581.14	423.64
581.30	425.98
581.46	482.15
581.62	388.53
581.78	444.70
581.94	421.30
582.10	411.93
582.26	400.23
582.42	409.59
582.58	404.91
582.74	372.15
582.90	470.45
583.06	468.11
583.22	372.15
583.38	397.89
583.54	411.93
583.70	447.04
583.86	437.68
584.02	458.74
584.18	421.30
584.34	444.70
584.50	543.00
584.66	437.68
584.82	379.17
584.98	414.27
585.14	400.23
585.30	430.66
585.46	414.27
585.62	402.57
585.78	521.94
585.94	491.51
586.10	383.85
586.26	397.89
586.42	458.74
586.58	346.40
586.74	388.53
586.90	397.89
587.06	428.32
587.22	416.62
587.38	437.68
587.54	386.19
587.70	498.53
587.86	348.74
588.02	440.02
588.18	449.38
588.34	454.06
588.49	393.21
588.65	444.70
588.81	444.70
588.97	411.93
589.13	383.85
589.29	477.47
589.45	437.68
589.61	414.27
589.77	500.87
589.93	365.12
590.08	423.64
590.24	400.23
590.40	400.23
590.56	454.06
590.72	388.53
590.88	367.46
591.04	444.70
591.20	465.77
591.35	454.06
591.51	365.12
591.67	447.04
591.83	351.08
591.99	430.66
592.15	447.04
592.31	444.70
592.46	435.34
592.62	425.98
592.78	421.30
592.94	437.68
593.10	379.17
593.26	423.64
593.41	484.49
593.57	402.57
593.73	425.98
593.89	421.30
594.05	383.85
594.20	416.62
594.36	397.89
594.52	430.66
594.68	437.68
594.84	496.19
594.99	463.43
595.15	374.49
595.31	339.38
595.47	411.93
595.62	376.83
595.78	393.21
595.94	367.46
596.10	423.64
596.25	444.70
596.41	430.66
596.57	430.66
596.73	517.26
596.88	351.08
597.04	390.87
597.20	400.23
597.36	411.93
597.51	404.91
597.67	383.85
597.83	456.40
597.99	468.11
598.14	444.70
598.30	421.30
598.46	386.19
598.61	393.21
598.77	402.57
598.93	346.40
599.09	360.44
599.24	395.55
599.40	503.22
599.56	372.15
599.71	440.02
599.87	421.30
600.03	428.32
600.18	470.45
600.34	514.92
600.50	374.49
600.65	362.78
600.81	447.04
600.97	454.06
601.12	454.06
601.28	449.38
601.44	402.57
601.59	421.30
601.75	402.57
601.91	475.13
602.06	430.66
602.22	468.11
602.37	451.72
602.53	437.68
602.69	411.93
602.84	447.04
603.00	430.66
603.16	505.56
603.31	393.21
603.47	444.70
603.62	400.23
603.78	463.43
603.94	346.40
604.09	390.87
604.25	404.91
604.40	390.87
604.56	454.06
604.71	437.68
604.87	416.62
605.03	442.36
605.18	400.23
605.34	468.11
605.49	355.76
605.65	440.02
605.80	414.27
605.96	400.23
606.12	430.66
606.27	374.49
606.43	327.68
606.58	440.02
606.74	447.04
606.89	404.91
607.05	416.62
607.20	425.98
607.36	404.91
607.51	383.85
607.67	381.51
607.82	379.17
607.98	458.74
608.13	423.64
608.29	388.53
608.44	496.19
608.60	393.21
608.75	435.34
608.91	402.57
609.06	482.15
609.22	402.57
609.37	447.04
609.53	351.08
609.68	430.66
609.84	433.00
609.99	388.53
610.15	411.93
610.30	414.27
610.46	454.06
610.61	397.89
610.76	425.98
610.92	463.43
611.07	395.55
611.23	477.47
611.38	411.93
611.54	411.93
611.69	379.17
611.84	348.74
612.00	430.66
612.15	381.51
612.31	367.46
612.46	468.11
612.62	355.76
612.77	414.27
612.92	355.76
613.08	414.27
613.23	425.98
613.39	444.70
613.54	416.62
613.69	416.62
613.85	449.38
614.00	390.87
614.15	397.89
614.31	395.55
614.46	379.17
614.62	423.64
614.77	514.92
614.92	409.59
615.08	433.00
615.23	374.49
615.38	360.44
615.54	362.78
615.69	400.23
615.84	383.85
616.00	425.98
616.15	442.36
616.30	376.83
616.46	428.32
616.61	395.55
616.76	379.17
616.92	444.70
617.07	353.42
617.22	491.51
617.37	376.83
617.53	374.49
617.68	423.64
617.83	409.59
617.99	430.66
618.14	456.40
618.29	458.74
618.45	376.83
618.60	482.15
618.75	376.83
618.90	451.72
619.06	463.43
619.21	461.09
619.36	433.00
619.51	465.77
619.67	360.44
619.82	414.27
619.97	400.23
620.12	472.79
620.28	461.09
620.43	393.21
620.58	433.00
620.73	433.00
620.89	334.70
621.04	444.70
621.19	461.09
621.34	421.30
621.49	477.47
621.65	463.43
621.80	397.89
621.95	421.30
622.10	369.80
622.25	468.11
622.41	369.80
622.56	428.32
622.71	397.89
622.86	346.40
623.01	416.62
623.16	449.38
623.32	379.17
623.47	437.68
623.62	393.21
623.77	470.45
623.92	400.23
624.07	360.44
624.23	362.78
624.38	442.36
624.53	367.46
624.68	468.11
624.83	503.22
624.98	360.44
625.13	418.96
625.29	362.78
625.44	433.00
625.59	376.83
625.74	379.17
625.89	393.21
626.04	367.46
626.19	376.83
626.34	447.04
626.49	404.91
626.65	414.27
626.80	358.10
626.95	472.79
627.10	353.42
627.25	435.34
627.40	346.40
627.55	440.02
627.70	390.87
627.85	458.74
628.00	395.55
628.15	365.12
628.30	379.17
628.45	428.32
628.60	437.68
628.76	355.76
628.91	428.32
629.06	479.81
629.21	425.98
629.36	416.62
629.51	475.13
629.66	468.11
629.81	381.51
629.96	430.66
630.11	383.85
630.26	407.25
630.41	498.53
630.56	430.66
630.71	407.25
630.86	456.40
631.01	332.36
631.16	341.72
631.31	449.38
631.46	454.06
631.61	423.64
631.76	440.02
631.91	409.59
632.06	498.53
632.21	437.68
632.36	454.06
632.51	451.72
632.66	416.62
632.81	409.59
632.96	421.30
633.10	458.74
633.25	437.68
633.40	411.93
633.55	463.43
633.70	423.64
633.85	489.17
634.00	463.43
634.15	451.72
634.30	407.25
634.45	414.27
634.60	393.21
634.75	393.21
634.90	456.40
635.05	437.68
635.19	435.34
635.34	423.64
635.49	433.00
635.64	407.25
635.79	400.23
635.94	402.57
636.09	442.36
636.24	456.40
636.39	435.34
636.53	318.31
636.68	463.43
636.83	477.47
636.98	454.06
637.13	397.89
637.28	435.34
637.43	526.62
637.57	475.13
637.72	423.64
637.87	395.55
638.02	369.80
638.17	449.38
638.32	472.79
638.46	458.74
638.61	465.77
638.76	482.15
638.91	294.91
639.06	365.12
639.20	411.93
639.35	484.49
639.50	346.40
639.65	428.32
639.80	397.89
639.94	369.80
640.09	393.21
640.24	454.06
640.39	416.62
640.54	369.80
640.68	458.74
640.83	454.06
640.98	423.64
641.13	421.30
641.27	383.85
641.42	440.02
641.57	402.57
641.72	367.46
641.86	484.49
642.01	367.46
642.16	414.27
642.31	404.91
642.45	444.70
642.60	486.83
642.75	472.79
642.90	388.53
643.04	503.22
643.19	395.55
643.34	454.06
643.48	362.78
643.63	388.53
643.78	421.30
643.93	437.68
644.07	411.93
644.22	470.45
644.37	353.42
644.51	451.72
644.66	411.93
644.81	369.80
644.95	458.74
645.10	435.34
645.25	367.46
645.39	458.74
645.54	456.40
645.69	428.32
645.83	418.96
645.98	484.49
646.13	407.25
646.27	458.74
646.42	414.27
646.57	390.87
646.71	458.74
646.86	444.70
647.00	416.62
647.15	430.66
647.30	404.91
647.44	360.44
647.59	362.78
647.74	435.34
647.88	428.32
648.03	397.89
648.17	463.43
648.32	407.25
648.47	393.21
648.61	374.49
648.76	465.77
648.90	437.68
649.05	440.02
649.20	428.32
649.34	374.49
649.49	404.91
649.63	428.32
649.78	444.70
649.92	414.27
650.07	524.28
650.21	409.59
650.36	379.17
650.51	421.30
650.65	442.36
650.80	351.08
650.94	421.30
651.09	388.53
651.23	308.95
651.38	379.17
651.52	330.02
651.67	397.89
651.81	465.77
651.96	393.21
652.10	449.38
652.25	360.44
652.39	433.00
652.54	374.49
652.68	428.32
652.83	390.87
652.97	456.40
653.12	395.55
653.26	442.36
653.41	484.49
653.55	440.02
653.70	400.23
653.84	416.62
653.99	447.04
654.13	362.78
654.27	379.17
654.42	409.59
654.56	430.66
654.71	402.57
654.85	379.17
655.00	395.55
655.14	437.68
655.29	301.93
655.43	369.80
655.57	411.93
655.72	428.32
655.86	428.32
656.01	414.27
656.15	444.70
656.30	425.98
656.44	374.49
656.58	393.21
656.73	416.62
656.87	411.93
657.01	416.62
657.16	388.53
657.30	423.64
657.45	500.87
657.59	393.21
657.73	442.36
657.88	351.08
658.02	472.79
658.16	381.51
658.31	395.55
658.45	409.59
658.60	369.80
658.74	393.21
658.88	444.70
659.03	395.55
659.17	400.23
659.31	442.36
659.46	451.72
659.60	437.68
659.74	416.62
659.89	404.91
660.03	451.72
660.17	386.19
660.32	486.83
660.46	430.66
660.60	404.91
660.74	456.40
660.89	341.72
661.03	346.40
661.17	409.59
661.32	472.79
661.46	425.98
661.60	479.81
661.74	411.93
661.89	465.77
662.03	418.96
662.17	379.17
662.31	433.00
662.46	440.02
662.60	433.00
662.74	395.55
662.88	430.66
663.03	414.27
663.17	379.17
663.31	449.38
663.45	404.91
663.60	430.66
663.74	428.32
663.88	400.23
664.02	400.23
664.17	409.59
664.31	388.53
664.45	400.23
664.59	458.74
664.73	407.25
664.88	465.77
665.02	400.23
665.16	416.62
665.30	489.17
665.44	397.89
665.59	414.27
665.73	414.27
665.87	461.09
666.01	388.53
666.15	433.00
666.29	388.53
666.44	421.30
666.58	472.79
666.72	442.36
666.86	433.00
667.00	407.25
667.14	404.91
667.28	486.83
667.43	416.62
667.57	395.55
667.71	449.38
667.85	374.49
667.99	465.77
668.13	423.64
668.27	423.64
668.41	386.19
668.56	465.77
668.70	468.11
668.84	318.31
668.98	486.83
669.12	355.76
669.26	397.89
669.40	414.27
669.54	411.93
669.68	470.45
669.82	407.25
669.96	351.08
670.10	409.59
670.25	470.45
670.39	386.19
670.53	388.53
670.67	472.79
670.81	409.59
670.95	428.32
671.09	365.12
671.23	477.47
671.37	458.74
671.51	454.06
671.65	402.57
671.79	348.74
671.93	461.09
672.07	454.06
672.21	423.64
672.35	386.19
672.49	351.08
672.63	402.57
672.77	395.55
672.91	423.64
673.05	444.70
673.19	388.53
673.33	430.66
673.47	440.02
673.61	393.21
673.75	491.51
673.89	407.25
674.03	409.59
674.17	416.62
674.31	423.64
674.45	468.11
674.59	425.98
674.73	360.44
674.87	402.57
675.01	435.34
675.15	400.23
675.29	402.57
675.43	479.81
675.56	381.51
675.70	386.19
675.84	435.34
675.98	383.85
676.12	421.30
676.26	451.72
676.40	416.62
676.54	433.00
676.68	468.11
676.82	393.21
676.96	416.62
677.10	465.77
677.23	484.49
677.37	360.44
677.51	498.53
677.65	433.00
677.79	393.21
677.93	358.10
678.07	440.02
678.21	456.40
678.34	388.53
678.48	409.59
678.62	449.38
678.76	397.89
678.90	362.78
679.04	430.66
679.18	397.89
679.31	383.85
679.45	332.36
679.59	496.19
679.73	442.36
679.87	369.80
680.00	437.68
680.14	409.59
680.28	440.02
680.42	409.59
680.56	390.87
680.70	362.78
680.83	482.15
680.97	440.02
681.11	362.78
681.25	421.30
681.39	425.98
681.52	430.66
681.66	425.98
681.80	456.40
681.94	383.85
682.07	344.06
682.21	447.04
682.35	407.25
682.49	409.59
682.62	447.04
682.76	404.91
682.90	395.55
683.04	442.36
683.17	482.15
683.31	442.36
683.45	425.98
683.59	433.00
683.72	482.15
683.86	437.68
684.00	423.64
684.13	395.55
684.27	458.74
684.41	423.64
684.55	397.89
684.68	341.72
684.82	416.62
684.96	395.55
685.09	351.08
685.23	386.19
685.37	388.53
685.50	456.40
685.64	411.93
685.78	416.62
685.91	465.77
686.05	456.40
686.19	411.93
686.32	409.59
686.46	435.34
686.60	402.57
686.73	493.85
686.87	468.11
687.01	372.15
687.14	423.64
687.28	468.11
687.42	390.87
687.55	421.30
687.69	414.27
687.82	449.38
687.96	477.47
688.10	404.91
688.23	388.53
688.37	451.72
688.50	393.21
688.64	386.19
688.78	407.25
688.91	435.34
689.05	379.17
689.18	355.76
689.32	421.30
689.46	440.02
689.59	334.70
689.73	416.62
689.86	358.10
690.00	423.64
690.13	383.85
690.27	425.98
690.41	421.30
690.54	411.93
690.68	442.36
690.81	395.55
690.95	428.32
691.08	444.70
691.22	409.59
691.35	418.96
691.49	407.25
691.62	435.34
691.76	416.62
691.89	362.78
692.03	369.80
692.16	386.19
692.30	421.30
692.43	437.68
692.57	468.11
692.70	458.74
692.84	397.89
692.97	409.59
693.11	372.15
693.24	486.83
693.38	475.13
693.51	430.66
693.65	388.53
693.78	390.87
693.92	430.66
694.05	423.64
694.19	475.13
694.32	393.21
694.45	479.81
694.59	407.25
694.72	400.23
694.86	449.38
694.99	484.49
695.13	479.81
695.26	400.23
695.39	472.79
695.53	418.96
695.66	409.59
695.80	435.34
695.93	421.30
696.07	416.62
696.20	451.72
696.33	369.80
696.47	365.12
696.60	402.57
696.73	503.22
696.87	430.66
697.00	402.57
697.14	409.59
697.27	372.15
697.40	461.09
697.54	421.30
697.67	425.98
697.80	433.00
697.94	414.27
698.07	430.66
698.21	409.59
698.34	519.60
698.47	404.91
698.61	440.02
698.74	468.11
698.87	435.34
699.01	388.53
699.14	416.62
699.27	418.96
699.40	468.11
699.54	463.43
699.67	428.32
699.80	435.34
699.94	376.83
700.07	442.36
700.20	369.80
700.34	348.74
700.47	435.34
700.60	496.19
700.73	430.66
700.87	414.27
701.00	381.51
701.13	374.49
701.26	374.49
701.40	355.76
701.53	414.27
701.66	372.15
701.79	346.40
701.93	402.57
702.06	456.40
702.19	341.72
702.32	390.87
702.46	327.68
702.59	421.30
702.72	390.87
702.85	416.62
702.99	425.98
703.12	425.98
703.25	393.21
703.38	390.87
703.51	395.55
703.65	400.23
703.78	461.09
703.91	430.66
704.04	411.93
704.17	395.55
704.31	404.91
704.44	374.49
704.57	369.80
704.70	402.57
704.83	383.85
704.96	407.25
705.10	472.79
705.23	411.93
>>>>>End Processed Spectral Data<<<<<
