SpectraSuite Data File
++++++++++++++++++++++++++++++++++++
Date: Fri Oct 25 12:11:42 EDT 2013
User: price-jones
Dark Spectrum Present: No
Reference Spectrum Present: No
Number of Sampled Component Spectra: 1
Spectrometers: USB2+H05261
Integration Time (usec): 100000 (USB2+H05261)
Spectra Averaged: 1 (USB2+H05261)
Boxcar Smoothing: 0 (USB2+H05261)
Correct for Electrical Dark: No (USB2+H05261)
Strobe/Lamp Enabled: No (USB2+H05261)
Correct for Detector Non-linearity: No (USB2+H05261)
Correct for Stray Light: No (USB2+H05261)
Number of Pixels in Processed Spectrum: 2048
>>>>>Begin Processed Spectral Data<<<<<
365.73	304.27
365.92	304.27
366.12	304.27
366.32	327.68
366.52	304.27
366.72	266.82
366.91	269.16
367.11	236.39
367.31	224.69
367.51	205.97
367.70	152.13
367.90	248.10
368.10	229.37
368.30	271.50
368.49	241.08
368.69	313.63
368.89	224.69
369.09	196.60
369.28	283.20
369.48	271.50
369.68	332.36
369.87	245.76
370.07	332.36
370.27	320.65
370.47	290.23
370.66	402.57
370.86	374.49
371.06	339.38
371.25	397.89
371.45	400.23
371.65	383.85
371.84	379.17
372.04	400.23
372.24	381.51
372.44	414.27
372.63	409.59
372.83	404.91
373.03	428.32
373.22	376.83
373.42	397.89
373.62	461.09
373.81	447.04
374.01	430.66
374.21	411.93
374.40	454.06
374.60	400.23
374.79	465.77
374.99	447.04
375.19	397.89
375.38	428.32
375.58	367.46
375.78	400.23
375.97	418.96
376.17	465.77
376.37	414.27
376.56	444.70
376.76	409.59
376.95	395.55
377.15	433.00
377.35	421.30
377.54	454.06
377.74	433.00
377.93	425.98
378.13	430.66
378.33	421.30
378.52	451.72
378.72	383.85
378.91	468.11
379.11	421.30
379.31	360.44
379.50	458.74
379.70	461.09
379.89	447.04
380.09	339.38
380.28	442.36
380.48	409.59
380.68	353.42
380.87	390.87
381.07	402.57
381.26	367.46
381.46	409.59
381.65	463.43
381.85	435.34
382.04	400.23
382.24	386.19
382.43	372.15
382.63	437.68
382.83	414.27
383.02	409.59
383.22	449.38
383.41	409.59
383.61	346.40
383.80	444.70
384.00	395.55
384.19	383.85
384.39	528.96
384.58	454.06
384.78	454.06
384.97	390.87
385.17	444.70
385.36	416.62
385.56	381.51
385.75	444.70
385.95	479.81
386.14	418.96
386.34	428.32
386.53	386.19
386.72	386.19
386.92	411.93
387.11	470.45
387.31	334.70
387.50	470.45
387.70	423.64
387.89	388.53
388.09	447.04
388.28	395.55
388.48	367.46
388.67	447.04
388.86	381.51
389.06	383.85
389.25	407.25
389.45	418.96
389.64	409.59
389.84	425.98
390.03	470.45
390.22	351.08
390.42	454.06
390.61	376.83
390.81	355.76
391.00	383.85
391.19	435.34
391.39	390.87
391.58	393.21
391.78	369.80
391.97	479.81
392.16	383.85
392.36	447.04
392.55	386.19
392.75	376.83
392.94	381.51
393.13	433.00
393.33	437.68
393.52	449.38
393.71	388.53
393.91	411.93
394.10	395.55
394.29	374.49
394.49	449.38
394.68	461.09
394.88	442.36
395.07	440.02
395.26	421.30
395.46	402.57
395.65	449.38
395.84	379.17
396.04	500.87
396.23	470.45
396.42	414.27
396.62	393.21
396.81	369.80
397.00	458.74
397.19	390.87
397.39	428.32
397.58	493.85
397.77	404.91
397.97	376.83
398.16	414.27
398.35	416.62
398.55	390.87
398.74	425.98
398.93	465.77
399.12	372.15
399.32	510.24
399.51	407.25
399.70	381.51
399.90	430.66
400.09	346.40
400.28	475.13
400.47	372.15
400.67	402.57
400.86	397.89
401.05	404.91
401.24	379.17
401.44	376.83
401.63	383.85
401.82	418.96
402.01	362.78
402.21	386.19
402.40	400.23
402.59	341.72
402.78	353.42
402.97	428.32
403.17	372.15
403.36	447.04
403.55	388.53
403.74	418.96
403.93	423.64
404.13	416.62
404.32	397.89
404.51	379.17
404.70	339.38
404.89	348.74
405.09	416.62
405.28	395.55
405.47	409.59
405.66	433.00
405.85	416.62
406.05	416.62
406.24	369.80
406.43	472.79
406.62	400.23
406.81	461.09
407.00	360.44
407.20	447.04
407.39	465.77
407.58	353.42
407.77	407.25
407.96	435.34
408.15	360.44
408.34	472.79
408.54	451.72
408.73	428.32
408.92	479.81
409.11	402.57
409.30	367.46
409.49	358.10
409.68	395.55
409.87	454.06
410.07	475.13
410.26	433.00
410.45	381.51
410.64	390.87
410.83	449.38
411.02	402.57
411.21	402.57
411.40	425.98
411.59	365.12
411.78	369.80
411.98	411.93
412.17	407.25
412.36	411.93
412.55	418.96
412.74	404.91
412.93	451.72
413.12	351.08
413.31	423.64
413.50	360.44
413.69	418.96
413.88	423.64
414.07	411.93
414.26	468.11
414.45	395.55
414.64	411.93
414.83	435.34
415.02	355.76
415.22	482.15
415.41	430.66
415.60	404.91
415.79	390.87
415.98	428.32
416.17	435.34
416.36	332.36
416.55	430.66
416.74	400.23
416.93	355.76
417.12	365.12
417.31	320.65
417.50	318.31
417.69	491.51
417.88	440.02
418.07	409.59
418.26	355.76
418.45	358.10
418.64	411.93
418.83	454.06
419.02	407.25
419.21	388.53
419.39	383.85
419.58	386.19
419.77	407.25
419.96	482.15
420.15	411.93
420.34	433.00
420.53	374.49
420.72	402.57
420.91	437.68
421.10	374.49
421.29	395.55
421.48	414.27
421.67	402.57
421.86	374.49
422.05	299.59
422.24	367.46
422.43	411.93
422.61	383.85
422.80	407.25
422.99	428.32
423.18	360.44
423.37	477.47
423.56	428.32
423.75	416.62
423.94	440.02
424.13	393.21
424.32	416.62
424.50	393.21
424.69	430.66
424.88	484.49
425.07	358.10
425.26	444.70
425.45	463.43
425.64	346.40
425.83	414.27
426.01	447.04
426.20	407.25
426.39	433.00
426.58	430.66
426.77	430.66
426.96	416.62
427.15	470.45
427.33	332.36
427.52	367.46
427.71	365.12
427.90	407.25
428.09	479.81
428.28	444.70
428.46	482.15
428.65	423.64
428.84	383.85
429.03	475.13
429.22	360.44
429.40	400.23
429.59	423.64
429.78	433.00
429.97	367.46
430.16	388.53
430.34	451.72
430.53	421.30
430.72	411.93
430.91	423.64
431.10	341.72
431.28	442.36
431.47	414.27
431.66	402.57
431.85	337.04
432.03	428.32
432.22	510.24
432.41	500.87
432.60	482.15
432.79	369.80
432.97	442.36
433.16	465.77
433.35	444.70
433.54	440.02
433.72	393.21
433.91	411.93
434.10	411.93
434.28	365.12
434.47	409.59
434.66	318.31
434.85	414.27
435.03	430.66
435.22	407.25
435.41	479.81
435.59	397.89
435.78	433.00
435.97	433.00
436.16	374.49
436.34	430.66
436.53	411.93
436.72	425.98
436.90	470.45
437.09	397.89
437.28	479.81
437.46	383.85
437.65	423.64
437.84	449.38
438.02	433.00
438.21	379.17
438.40	395.55
438.58	411.93
438.77	404.91
438.96	437.68
439.14	390.87
439.33	475.13
439.52	393.21
439.70	409.59
439.89	425.98
440.08	430.66
440.26	411.93
440.45	428.32
440.63	397.89
440.82	332.36
441.01	430.66
441.19	447.04
441.38	472.79
441.57	344.06
441.75	437.68
441.94	414.27
442.12	383.85
442.31	423.64
442.50	447.04
442.68	435.34
442.87	402.57
443.05	477.47
443.24	348.74
443.43	411.93
443.61	477.47
443.80	358.10
443.98	430.66
444.17	400.23
444.35	435.34
444.54	456.40
444.73	372.15
444.91	482.15
445.10	421.30
445.28	409.59
445.47	374.49
445.65	407.25
445.84	362.78
446.02	437.68
446.21	418.96
446.39	421.30
446.58	383.85
446.77	440.02
446.95	430.66
447.14	367.46
447.32	428.32
447.51	437.68
447.69	421.30
447.88	433.00
448.06	433.00
448.25	402.57
448.43	435.34
448.62	395.55
448.80	400.23
448.99	437.68
449.17	334.70
449.36	358.10
449.54	442.36
449.73	430.66
449.91	421.30
450.10	400.23
450.28	407.25
450.46	461.09
450.65	402.57
450.83	407.25
451.02	421.30
451.20	456.40
451.39	435.34
451.57	444.70
451.76	463.43
451.94	409.59
452.13	430.66
452.31	505.56
452.49	442.36
452.68	322.99
452.86	339.38
453.05	447.04
453.23	383.85
453.42	430.66
453.60	428.32
453.78	493.85
453.97	404.91
454.15	430.66
454.34	397.89
454.52	468.11
454.70	472.79
454.89	411.93
455.07	400.23
455.26	409.59
455.44	465.77
455.62	435.34
455.81	369.80
455.99	411.93
456.17	397.89
456.36	369.80
456.54	411.93
456.73	463.43
456.91	402.57
457.09	440.02
457.28	528.96
457.46	400.23
457.64	451.72
457.83	379.17
458.01	418.96
458.19	463.43
458.38	353.42
458.56	400.23
458.74	437.68
458.93	416.62
459.11	355.76
459.29	297.25
459.48	397.89
459.66	447.04
459.84	477.47
460.03	510.24
460.21	430.66
460.39	386.19
460.57	416.62
460.76	395.55
460.94	440.02
461.12	360.44
461.31	421.30
461.49	395.55
461.67	407.25
461.85	423.64
462.04	444.70
462.22	793.44
462.40	423.64
462.59	358.10
462.77	397.89
462.95	416.62
463.13	374.49
463.32	400.23
463.50	407.25
463.68	447.04
463.86	383.85
464.05	489.17
464.23	393.21
464.41	428.32
464.59	409.59
464.78	423.64
464.96	442.36
465.14	409.59
465.32	437.68
465.50	451.72
465.69	395.55
465.87	365.12
466.05	430.66
466.23	435.34
466.41	362.78
466.60	423.64
466.78	484.49
466.96	463.43
467.14	423.64
467.32	458.74
467.51	461.09
467.69	372.15
467.87	404.91
468.05	449.38
468.23	465.77
468.41	411.93
468.60	442.36
468.78	458.74
468.96	472.79
469.14	407.25
469.32	416.62
469.50	369.80
469.69	482.15
469.87	416.62
470.05	428.32
470.23	344.06
470.41	489.17
470.59	388.53
470.77	421.30
470.95	456.40
471.14	444.70
471.32	423.64
471.50	430.66
471.68	388.53
471.86	411.93
472.04	531.30
472.22	411.93
472.40	416.62
472.58	421.30
472.77	416.62
472.95	451.72
473.13	447.04
473.31	407.25
473.49	416.62
473.67	327.68
473.85	475.13
474.03	454.06
474.21	397.89
474.39	404.91
474.57	440.02
474.75	430.66
474.93	414.27
475.12	395.55
475.30	472.79
475.48	444.70
475.66	383.85
475.84	421.30
476.02	390.87
476.20	465.77
476.38	362.78
476.56	425.98
476.74	404.91
476.92	458.74
477.10	404.91
477.28	468.11
477.46	379.17
477.64	423.64
477.82	390.87
478.00	435.34
478.18	416.62
478.36	414.27
478.54	341.72
478.72	393.21
478.90	463.43
479.08	383.85
479.26	479.81
479.44	425.98
479.62	402.57
479.80	341.72
479.98	442.36
480.16	418.96
480.34	409.59
480.52	447.04
480.70	414.27
480.88	386.19
481.06	423.64
481.24	418.96
481.41	472.79
481.59	437.68
481.77	454.06
481.95	449.38
482.13	418.96
482.31	418.96
482.49	372.15
482.67	456.40
482.85	381.51
483.03	322.99
483.21	393.21
483.39	421.30
483.57	425.98
483.74	390.87
483.92	421.30
484.10	325.33
484.28	414.27
484.46	435.34
484.64	386.19
484.82	465.77
485.00	475.13
485.18	386.19
485.35	423.64
485.53	341.72
485.71	456.40
485.89	402.57
486.07	379.17
486.25	489.17
486.43	423.64
486.61	456.40
486.78	409.59
486.96	381.51
487.14	430.66
487.32	393.21
487.50	381.51
487.68	404.91
487.85	430.66
488.03	465.77
488.21	463.43
488.39	404.91
488.57	393.21
488.75	337.04
488.92	517.26
489.10	390.87
489.28	451.72
489.46	372.15
489.64	341.72
489.81	386.19
489.99	425.98
490.17	404.91
490.35	500.87
490.53	421.30
490.70	428.32
490.88	383.85
491.06	348.74
491.24	447.04
491.41	489.17
491.59	372.15
491.77	447.04
491.95	435.34
492.13	400.23
492.30	374.49
492.48	433.00
492.66	395.55
492.84	435.34
493.01	465.77
493.19	416.62
493.37	514.92
493.54	362.78
493.72	430.66
493.90	393.21
494.08	376.83
494.25	479.81
494.43	390.87
494.61	411.93
494.79	411.93
494.96	372.15
495.14	407.25
495.32	418.96
495.49	416.62
495.67	383.85
495.85	386.19
496.02	416.62
496.20	465.77
496.38	486.83
496.55	442.36
496.73	444.70
496.91	454.06
497.09	489.17
497.26	465.77
497.44	393.21
497.62	388.53
497.79	411.93
497.97	430.66
498.14	437.68
498.32	393.21
498.50	404.91
498.67	437.68
498.85	409.59
499.03	383.85
499.20	390.87
499.38	376.83
499.56	404.91
499.73	489.17
499.91	407.25
500.08	344.06
500.26	435.34
500.44	374.49
500.61	442.36
500.79	449.38
500.97	472.79
501.14	437.68
501.32	383.85
501.49	409.59
501.67	454.06
501.84	395.55
502.02	388.53
502.20	458.74
502.37	383.85
502.55	379.17
502.72	400.23
502.90	365.12
503.07	440.02
503.25	416.62
503.43	327.68
503.60	339.38
503.78	461.09
503.95	386.19
504.13	407.25
504.30	437.68
504.48	440.02
504.65	402.57
504.83	437.68
505.01	379.17
505.18	400.23
505.36	367.46
505.53	458.74
505.71	447.04
505.88	428.32
506.06	425.98
506.23	421.30
506.41	388.53
506.58	351.08
506.76	449.38
506.93	386.19
507.11	454.06
507.28	407.25
507.46	390.87
507.63	395.55
507.81	440.02
507.98	404.91
508.16	395.55
508.33	411.93
508.50	451.72
508.68	435.34
508.85	395.55
509.03	404.91
509.20	372.15
509.38	456.40
509.55	489.17
509.73	484.49
509.90	421.30
510.08	367.46
510.25	416.62
510.42	395.55
510.60	400.23
510.77	423.64
510.95	437.68
511.12	409.59
511.30	390.87
511.47	388.53
511.64	435.34
511.82	416.62
511.99	386.19
512.17	442.36
512.34	444.70
512.51	402.57
512.69	409.59
512.86	472.79
513.04	458.74
513.21	449.38
513.38	374.49
513.56	435.34
513.73	425.98
513.90	433.00
514.08	447.04
514.25	402.57
514.43	428.32
514.60	299.59
514.77	447.04
514.95	376.83
515.12	337.04
515.29	428.32
515.47	400.23
515.64	484.49
515.81	404.91
515.99	449.38
516.16	383.85
516.33	421.30
516.51	440.02
516.68	447.04
516.85	395.55
517.03	496.19
517.20	461.09
517.37	376.83
517.54	337.04
517.72	435.34
517.89	372.15
518.06	358.10
518.24	519.60
518.41	500.87
518.58	489.17
518.75	388.53
518.93	395.55
519.10	372.15
519.27	456.40
519.45	442.36
519.62	444.70
519.79	425.98
519.96	348.74
520.14	404.91
520.31	433.00
520.48	435.34
520.65	465.77
520.83	491.51
521.00	451.72
521.17	454.06
521.34	430.66
521.52	416.62
521.69	386.19
521.86	407.25
522.03	348.74
522.20	468.11
522.38	414.27
522.55	409.59
522.72	383.85
522.89	423.64
523.07	489.17
523.24	402.57
523.41	379.17
523.58	379.17
523.75	489.17
523.92	458.74
524.10	472.79
524.27	407.25
524.44	304.27
524.61	425.98
524.78	402.57
524.96	402.57
525.13	482.15
525.30	388.53
525.47	423.64
525.64	400.23
525.81	339.38
525.98	444.70
526.16	425.98
526.33	423.64
526.50	447.04
526.67	400.23
526.84	404.91
527.01	379.17
527.18	386.19
527.36	423.64
527.53	388.53
527.70	454.06
527.87	360.44
528.04	484.49
528.21	425.98
528.38	430.66
528.55	456.40
528.72	411.93
528.89	428.32
529.07	411.93
529.24	416.62
529.41	449.38
529.58	484.49
529.75	418.96
529.92	461.09
530.09	475.13
530.26	372.15
530.43	353.42
530.60	416.62
530.77	421.30
530.94	418.96
531.11	407.25
531.28	449.38
531.46	421.30
531.63	444.70
531.80	383.85
531.97	461.09
532.14	433.00
532.31	407.25
532.48	397.89
532.65	402.57
532.82	447.04
532.99	477.47
533.16	418.96
533.33	407.25
533.50	517.26
533.67	365.12
533.84	376.83
534.01	400.23
534.18	395.55
534.35	372.15
534.52	418.96
534.69	437.68
534.86	383.85
535.03	404.91
535.20	397.89
535.37	468.11
535.54	414.27
535.71	428.32
535.88	393.21
536.05	395.55
536.22	411.93
536.38	416.62
536.55	440.02
536.72	472.79
536.89	402.57
537.06	421.30
537.23	376.83
537.40	388.53
537.57	440.02
537.74	528.96
537.91	435.34
538.08	430.66
538.25	397.89
538.42	360.44
538.59	430.66
538.75	388.53
538.92	433.00
539.09	402.57
539.26	414.27
539.43	442.36
539.60	435.34
539.77	437.68
539.94	433.00
540.11	421.30
540.28	425.98
540.44	447.04
540.61	440.02
540.78	437.68
540.95	376.83
541.12	475.13
541.29	390.87
541.46	484.49
541.62	381.51
541.79	397.89
541.96	407.25
542.13	444.70
542.30	358.10
542.47	465.77
542.63	428.32
542.80	449.38
542.97	451.72
543.14	409.59
543.31	468.11
543.48	381.51
543.64	465.77
543.81	341.72
543.98	454.06
544.15	358.10
544.32	400.23
544.48	407.25
544.65	404.91
544.82	320.65
544.99	355.76
545.16	440.02
545.32	425.98
545.49	404.91
545.66	414.27
545.83	397.89
546.00	346.40
546.16	458.74
546.33	358.10
546.50	442.36
546.67	390.87
546.83	404.91
547.00	386.19
547.17	376.83
547.34	393.21
547.50	411.93
547.67	402.57
547.84	449.38
548.00	416.62
548.17	463.43
548.34	421.30
548.51	430.66
548.67	423.64
548.84	435.34
549.01	463.43
549.18	496.19
549.34	409.59
549.51	374.49
549.68	451.72
549.84	374.49
550.01	411.93
550.18	498.53
550.34	505.56
550.51	383.85
550.68	482.15
550.84	449.38
551.01	341.72
551.18	421.30
551.34	355.76
551.51	458.74
551.68	400.23
551.84	397.89
552.01	379.17
552.18	468.11
552.34	442.36
552.51	400.23
552.68	381.51
552.84	418.96
553.01	456.40
553.18	400.23
553.34	414.27
553.51	397.89
553.67	430.66
553.84	416.62
554.01	489.17
554.17	414.27
554.34	376.83
554.51	369.80
554.67	425.98
554.84	430.66
555.00	409.59
555.17	379.17
555.33	444.70
555.50	425.98
555.67	409.59
555.83	435.34
556.00	416.62
556.16	503.22
556.33	461.09
556.50	355.76
556.66	472.79
556.83	400.23
556.99	379.17
557.16	407.25
557.32	433.00
557.49	414.27
557.65	383.85
557.82	440.02
557.98	393.21
558.15	454.06
558.32	425.98
558.48	402.57
558.65	404.91
558.81	472.79
558.98	414.27
559.14	430.66
559.31	463.43
559.47	355.76
559.64	383.85
559.80	381.51
559.97	337.04
560.13	404.91
560.30	383.85
560.46	425.98
560.63	372.15
560.79	409.59
560.96	409.59
561.12	409.59
561.29	442.36
561.45	411.93
561.61	404.91
561.78	528.96
561.94	442.36
562.11	372.15
562.27	482.15
562.44	407.25
562.60	418.96
562.77	531.30
562.93	496.19
563.10	348.74
563.26	397.89
563.42	486.83
563.59	411.93
563.75	381.51
563.92	456.40
564.08	421.30
564.24	402.57
564.41	414.27
564.57	449.38
564.74	421.30
564.90	416.62
565.07	442.36
565.23	407.25
565.39	416.62
565.56	442.36
565.72	304.27
565.88	407.25
566.05	451.72
566.21	390.87
566.38	461.09
566.54	381.51
566.70	402.57
566.87	472.79
567.03	440.02
567.19	479.81
567.36	374.49
567.52	369.80
567.68	395.55
567.85	395.55
568.01	484.49
568.17	461.09
568.34	444.70
568.50	479.81
568.66	421.30
568.83	482.15
568.99	386.19
569.15	444.70
569.32	339.38
569.48	454.06
569.64	402.57
569.81	397.89
569.97	454.06
570.13	437.68
570.30	421.30
570.46	447.04
570.62	414.27
570.78	433.00
570.95	421.30
571.11	468.11
571.27	435.34
571.43	393.21
571.60	442.36
571.76	498.53
571.92	442.36
572.09	348.74
572.25	425.98
572.41	449.38
572.57	393.21
572.74	510.24
572.90	355.76
573.06	409.59
573.22	472.79
573.38	416.62
573.55	458.74
573.71	505.56
573.87	372.15
574.03	430.66
574.20	435.34
574.36	468.11
574.52	449.38
574.68	416.62
574.84	383.85
575.01	416.62
575.17	433.00
575.33	444.70
575.49	447.04
575.65	430.66
575.82	372.15
575.98	449.38
576.14	430.66
576.30	416.62
576.46	397.89
576.62	418.96
576.79	400.23
576.95	447.04
577.11	407.25
577.27	404.91
577.43	379.17
577.59	409.59
577.75	358.10
577.92	374.49
578.08	374.49
578.24	411.93
578.40	411.93
578.56	404.91
578.72	444.70
578.88	376.83
579.04	390.87
579.21	430.66
579.37	475.13
579.53	376.83
579.69	416.62
579.85	355.76
580.01	386.19
580.17	400.23
580.33	444.70
580.49	351.08
580.65	463.43
580.82	428.32
580.98	433.00
581.14	388.53
581.30	461.09
581.46	437.68
581.62	484.49
581.78	383.85
581.94	390.87
582.10	365.12
582.26	418.96
582.42	409.59
582.58	409.59
582.74	444.70
582.90	479.81
583.06	428.32
583.22	479.81
583.38	388.53
583.54	437.68
583.70	376.83
583.86	407.25
584.02	435.34
584.18	447.04
584.34	503.22
584.50	423.64
584.66	428.32
584.82	418.96
584.98	409.59
585.14	423.64
585.30	409.59
585.46	423.64
585.62	372.15
585.78	402.57
585.94	416.62
586.10	444.70
586.26	379.17
586.42	433.00
586.58	440.02
586.74	447.04
586.90	447.04
587.06	414.27
587.22	404.91
587.38	437.68
587.54	407.25
587.70	337.04
587.86	362.78
588.02	423.64
588.18	425.98
588.34	447.04
588.49	334.70
588.65	425.98
588.81	372.15
588.97	402.57
589.13	339.38
589.29	456.40
589.45	409.59
589.61	416.62
589.77	463.43
589.93	402.57
590.08	400.23
590.24	430.66
590.40	358.10
590.56	486.83
590.72	416.62
590.88	386.19
591.04	418.96
591.20	367.46
591.35	444.70
591.51	425.98
591.67	395.55
591.83	489.17
591.99	442.36
592.15	430.66
592.31	409.59
592.46	388.53
592.62	461.09
592.78	433.00
592.94	437.68
593.10	428.32
593.26	372.15
593.41	479.81
593.57	365.12
593.73	425.98
593.89	433.00
594.05	383.85
594.20	435.34
594.36	430.66
594.52	486.83
594.68	442.36
594.84	400.23
594.99	414.27
595.15	437.68
595.31	433.00
595.47	444.70
595.62	400.23
595.78	472.79
595.94	421.30
596.10	362.78
596.25	414.27
596.41	512.58
596.57	376.83
596.73	449.38
596.88	402.57
597.04	423.64
597.20	388.53
597.36	376.83
597.51	409.59
597.67	402.57
597.83	425.98
597.99	437.68
598.14	430.66
598.30	414.27
598.46	418.96
598.61	454.06
598.77	395.55
598.93	407.25
599.09	390.87
599.24	325.33
599.40	442.36
599.56	430.66
599.71	449.38
599.87	442.36
600.03	477.47
600.18	461.09
600.34	411.93
600.50	414.27
600.65	416.62
600.81	416.62
600.97	423.64
601.12	444.70
601.28	435.34
601.44	456.40
601.59	395.55
601.75	458.74
601.91	395.55
602.06	475.13
602.22	486.83
602.37	409.59
602.53	425.98
602.69	416.62
602.84	440.02
603.00	425.98
603.16	416.62
603.31	465.77
603.47	404.91
603.62	416.62
603.78	411.93
603.94	397.89
604.09	360.44
604.25	367.46
604.40	461.09
604.56	376.83
604.71	379.17
604.87	416.62
605.03	425.98
605.18	404.91
605.34	365.12
605.49	437.68
605.65	411.93
605.80	463.43
605.96	411.93
606.12	435.34
606.27	456.40
606.43	465.77
606.58	430.66
606.74	397.89
606.89	477.47
607.05	404.91
607.20	472.79
607.36	409.59
607.51	390.87
607.67	411.93
607.82	421.30
607.98	447.04
608.13	416.62
608.29	383.85
608.44	526.62
608.60	486.83
608.75	421.30
608.91	416.62
609.06	355.76
609.22	514.92
609.37	416.62
609.53	454.06
609.68	456.40
609.84	367.46
609.99	386.19
610.15	433.00
610.30	383.85
610.46	433.00
610.61	423.64
610.76	461.09
610.92	404.91
611.07	430.66
611.23	402.57
611.38	456.40
611.54	395.55
611.69	348.74
611.84	433.00
612.00	421.30
612.15	463.43
612.31	470.45
612.46	407.25
612.62	418.96
612.77	465.77
612.92	454.06
613.08	440.02
613.23	421.30
613.39	437.68
613.54	365.12
613.69	425.98
613.85	425.98
614.00	379.17
614.15	381.51
614.31	358.10
614.46	346.40
614.62	386.19
614.77	433.00
614.92	407.25
615.08	491.51
615.23	409.59
615.38	423.64
615.54	332.36
615.69	402.57
615.84	416.62
616.00	400.23
616.15	461.09
616.30	503.22
616.46	451.72
616.61	461.09
616.76	472.79
616.92	493.85
617.07	451.72
617.22	447.04
617.37	444.70
617.53	461.09
617.68	400.23
617.83	407.25
617.99	400.23
618.14	430.66
618.29	393.21
618.45	383.85
618.60	369.80
618.75	402.57
618.90	440.02
619.06	400.23
619.21	407.25
619.36	500.87
619.51	376.83
619.67	416.62
619.82	458.74
619.97	435.34
620.12	454.06
620.28	442.36
620.43	388.53
620.58	425.98
620.73	449.38
620.89	430.66
621.04	447.04
621.19	479.81
621.34	465.77
621.49	353.42
621.65	362.78
621.80	383.85
621.95	416.62
622.10	404.91
622.25	348.74
622.41	402.57
622.56	346.40
622.71	428.32
622.86	468.11
623.01	433.00
623.16	437.68
623.32	414.27
623.47	451.72
623.62	411.93
623.77	365.12
623.92	444.70
624.07	404.91
624.23	472.79
624.38	456.40
624.53	500.87
624.68	454.06
624.83	531.30
624.98	493.85
625.13	372.15
625.29	390.87
625.44	470.45
625.59	456.40
625.74	388.53
625.89	428.32
626.04	416.62
626.19	386.19
626.34	362.78
626.49	465.77
626.65	437.68
626.80	407.25
626.95	468.11
627.10	355.76
627.25	395.55
627.40	491.51
627.55	447.04
627.70	355.76
627.85	418.96
628.00	414.27
628.15	437.68
628.30	388.53
628.45	423.64
628.60	362.78
628.76	379.17
628.91	407.25
629.06	390.87
629.21	416.62
629.36	535.98
629.51	379.17
629.66	449.38
629.81	409.59
629.96	383.85
630.11	414.27
630.26	404.91
630.41	390.87
630.56	402.57
630.71	348.74
630.86	397.89
631.01	437.68
631.16	379.17
631.31	479.81
631.46	430.66
631.61	435.34
631.76	404.91
631.91	416.62
632.06	365.12
632.21	418.96
632.36	435.34
632.51	437.68
632.66	360.44
632.81	437.68
632.96	433.00
633.10	390.87
633.25	428.32
633.40	484.49
633.55	428.32
633.70	400.23
633.85	390.87
634.00	414.27
634.15	376.83
634.30	402.57
634.45	425.98
634.60	388.53
634.75	386.19
634.90	428.32
635.05	390.87
635.19	433.00
635.34	470.45
635.49	411.93
635.64	463.43
635.79	341.72
635.94	393.21
636.09	461.09
636.24	435.34
636.39	407.25
636.53	489.17
636.68	353.42
636.83	517.26
636.98	444.70
637.13	491.51
637.28	301.93
637.43	479.81
637.57	423.64
637.72	360.44
637.87	437.68
638.02	447.04
638.17	362.78
638.32	437.68
638.46	386.19
638.61	418.96
638.76	447.04
638.91	423.64
639.06	484.49
639.20	442.36
639.35	437.68
639.50	437.68
639.65	514.92
639.80	388.53
639.94	386.19
640.09	461.09
640.24	505.56
640.39	404.91
640.54	444.70
640.68	470.45
640.83	407.25
640.98	395.55
641.13	437.68
641.27	414.27
641.42	456.40
641.57	456.40
641.72	475.13
641.86	407.25
642.01	365.12
642.16	416.62
642.31	376.83
642.45	447.04
642.60	421.30
642.75	367.46
642.90	430.66
643.04	386.19
643.19	383.85
643.34	393.21
643.48	376.83
643.63	428.32
643.78	386.19
643.93	524.28
644.07	472.79
644.22	346.40
644.37	449.38
644.51	454.06
644.66	418.96
644.81	376.83
644.95	447.04
645.10	411.93
645.25	440.02
645.39	430.66
645.54	390.87
645.69	484.49
645.83	421.30
645.98	435.34
646.13	482.15
646.27	397.89
646.42	402.57
646.57	414.27
646.71	442.36
646.86	447.04
647.00	437.68
647.15	381.51
647.30	365.12
647.44	435.34
647.59	388.53
647.74	397.89
647.88	477.47
648.03	425.98
648.17	500.87
648.32	433.00
648.47	388.53
648.61	421.30
648.76	407.25
648.90	447.04
649.05	407.25
649.20	365.12
649.34	390.87
649.49	449.38
649.63	376.83
649.78	407.25
649.92	386.19
650.07	435.34
650.21	430.66
650.36	503.22
650.51	402.57
650.65	458.74
650.80	402.57
650.94	360.44
651.09	383.85
651.23	463.43
651.38	404.91
651.52	456.40
651.67	360.44
651.81	404.91
651.96	440.02
652.10	507.90
652.25	421.30
652.39	411.93
652.54	489.17
652.68	416.62
652.83	463.43
652.97	402.57
653.12	379.17
653.26	379.17
653.41	423.64
653.55	402.57
653.70	360.44
653.84	397.89
653.99	416.62
654.13	433.00
654.27	437.68
654.42	449.38
654.56	372.15
654.71	428.32
654.85	428.32
655.00	435.34
655.14	407.25
655.29	353.42
655.43	411.93
655.57	344.06
655.72	416.62
655.86	458.74
656.01	442.36
656.15	465.77
656.30	472.79
656.44	423.64
656.58	428.32
656.73	397.89
656.87	376.83
657.01	381.51
657.16	379.17
657.30	475.13
657.45	440.02
657.59	444.70
657.73	365.12
657.88	374.49
658.02	535.98
658.16	458.74
658.31	435.34
658.45	372.15
658.60	414.27
658.74	435.34
658.88	418.96
659.03	416.62
659.17	341.72
659.31	381.51
659.46	327.68
659.60	421.30
659.74	334.70
659.89	437.68
660.03	456.40
660.17	521.94
660.32	397.89
660.46	486.83
660.60	454.06
660.74	463.43
660.89	437.68
661.03	416.62
661.17	414.27
661.32	390.87
661.46	447.04
661.60	440.02
661.74	428.32
661.89	421.30
662.03	409.59
662.17	411.93
662.31	332.36
662.46	454.06
662.60	407.25
662.74	470.45
662.88	479.81
663.03	430.66
663.17	449.38
663.31	400.23
663.45	411.93
663.60	458.74
663.74	411.93
663.88	430.66
664.02	470.45
664.17	437.68
664.31	325.33
664.45	416.62
664.59	449.38
664.73	449.38
664.88	449.38
665.02	454.06
665.16	400.23
665.30	404.91
665.44	433.00
665.59	449.38
665.73	482.15
665.87	402.57
666.01	416.62
666.15	449.38
666.29	372.15
666.44	386.19
666.58	463.43
666.72	433.00
666.86	393.21
667.00	418.96
667.14	491.51
667.28	416.62
667.43	486.83
667.57	423.64
667.71	404.91
667.85	447.04
667.99	393.21
668.13	388.53
668.27	433.00
668.41	353.42
668.56	411.93
668.70	517.26
668.84	512.58
668.98	479.81
669.12	304.27
669.26	440.02
669.40	458.74
669.54	418.96
669.68	395.55
669.82	433.00
669.96	482.15
670.10	409.59
670.25	414.27
670.39	381.51
670.53	407.25
670.67	418.96
670.81	416.62
670.95	433.00
671.09	369.80
671.23	402.57
671.37	442.36
671.51	381.51
671.65	465.77
671.79	388.53
671.93	379.17
672.07	442.36
672.21	348.74
672.35	416.62
672.49	456.40
672.63	437.68
672.77	421.30
672.91	362.78
673.05	472.79
673.19	393.21
673.33	442.36
673.47	447.04
673.61	444.70
673.75	433.00
673.89	353.42
674.03	430.66
674.17	418.96
674.31	393.21
674.45	451.72
674.59	393.21
674.73	390.87
674.87	381.51
675.01	433.00
675.15	418.96
675.29	423.64
675.43	465.77
675.56	421.30
675.70	388.53
675.84	358.10
675.98	409.59
676.12	374.49
676.26	437.68
676.40	397.89
676.54	433.00
676.68	388.53
676.82	461.09
676.96	402.57
677.10	425.98
677.23	386.19
677.37	311.29
677.51	449.38
677.65	421.30
677.79	372.15
677.93	397.89
678.07	379.17
678.21	428.32
678.34	425.98
678.48	456.40
678.62	451.72
678.76	421.30
678.90	425.98
679.04	411.93
679.18	430.66
679.31	409.59
679.45	454.06
679.59	468.11
679.73	418.96
679.87	454.06
680.00	423.64
680.14	395.55
680.28	470.45
680.42	418.96
680.56	379.17
680.70	463.43
680.83	414.27
680.97	418.96
681.11	440.02
681.25	442.36
681.39	390.87
681.52	470.45
681.66	416.62
681.80	433.00
681.94	440.02
682.07	402.57
682.21	430.66
682.35	353.42
682.49	397.89
682.62	411.93
682.76	388.53
682.90	461.09
683.04	472.79
683.17	362.78
683.31	386.19
683.45	390.87
683.59	449.38
683.72	404.91
683.86	355.76
684.00	400.23
684.13	500.87
684.27	479.81
684.41	388.53
684.55	358.10
684.68	409.59
684.82	383.85
684.96	355.76
685.09	428.32
685.23	407.25
685.37	400.23
685.50	472.79
685.64	440.02
685.78	442.36
685.91	388.53
686.05	437.68
686.19	456.40
686.32	477.47
686.46	531.30
686.60	437.68
686.73	470.45
686.87	390.87
687.01	351.08
687.14	447.04
687.28	425.98
687.42	468.11
687.55	395.55
687.69	475.13
687.82	402.57
687.96	369.80
688.10	416.62
688.23	416.62
688.37	440.02
688.50	444.70
688.64	409.59
688.78	411.93
688.91	390.87
689.05	402.57
689.18	407.25
689.32	444.70
689.46	449.38
689.59	425.98
689.73	423.64
689.86	386.19
690.00	430.66
690.13	461.09
690.27	435.34
690.41	428.32
690.54	437.68
690.68	423.64
690.81	423.64
690.95	404.91
691.08	388.53
691.22	444.70
691.35	440.02
691.49	404.91
691.62	440.02
691.76	374.49
691.89	393.21
692.03	428.32
692.16	407.25
692.30	362.78
692.43	430.66
692.57	383.85
692.70	402.57
692.84	416.62
692.97	428.32
693.11	388.53
693.24	421.30
693.38	395.55
693.51	440.02
693.65	479.81
693.78	395.55
693.92	421.30
694.05	447.04
694.19	435.34
694.32	470.45
694.45	477.47
694.59	421.30
694.72	444.70
694.86	425.98
694.99	400.23
695.13	404.91
695.26	425.98
695.39	500.87
695.53	477.47
695.66	400.23
695.80	442.36
695.93	440.02
696.07	482.15
696.20	409.59
696.33	447.04
696.47	386.19
696.60	372.15
696.73	479.81
696.87	400.23
697.00	400.23
697.14	475.13
697.27	407.25
697.40	421.30
697.54	365.12
697.67	362.78
697.80	463.43
697.94	411.93
698.07	383.85
698.21	374.49
698.34	386.19
698.47	358.10
698.61	454.06
698.74	395.55
698.87	411.93
699.01	414.27
699.14	402.57
699.27	400.23
699.40	479.81
699.54	397.89
699.67	428.32
699.80	404.91
699.94	440.02
700.07	383.85
700.20	376.83
700.34	444.70
700.47	367.46
700.60	456.40
700.73	395.55
700.87	423.64
701.00	362.78
701.13	409.59
701.26	407.25
701.40	386.19
701.53	416.62
701.66	393.21
701.79	409.59
701.93	407.25
702.06	430.66
702.19	433.00
702.32	461.09
702.46	362.78
702.59	344.06
702.72	376.83
702.85	409.59
702.99	332.36
703.12	468.11
703.25	486.83
703.38	365.12
703.51	458.74
703.65	407.25
703.78	365.12
703.91	404.91
704.04	468.11
704.17	395.55
704.31	425.98
704.44	381.51
704.57	372.15
704.70	388.53
704.83	482.15
704.96	416.62
705.10	376.83
705.23	397.89
>>>>>End Processed Spectral Data<<<<<
