SpectraSuite Data File
++++++++++++++++++++++++++++++++++++
Date: Fri Oct 25 12:11:27 EDT 2013
User: price-jones
Dark Spectrum Present: No
Reference Spectrum Present: No
Number of Sampled Component Spectra: 1
Spectrometers: USB2+H05261
Integration Time (usec): 100000 (USB2+H05261)
Spectra Averaged: 1 (USB2+H05261)
Boxcar Smoothing: 0 (USB2+H05261)
Correct for Electrical Dark: No (USB2+H05261)
Strobe/Lamp Enabled: No (USB2+H05261)
Correct for Detector Non-linearity: No (USB2+H05261)
Correct for Stray Light: No (USB2+H05261)
Number of Pixels in Processed Spectrum: 2048
>>>>>Begin Processed Spectral Data<<<<<
365.73	276.18
365.92	276.18
366.12	276.18
366.32	290.23
366.52	255.12
366.72	276.18
366.91	266.82
367.11	273.84
367.31	203.63
367.51	266.82
367.70	248.10
367.90	241.08
368.10	245.76
368.30	255.12
368.49	245.76
368.69	229.37
368.89	252.78
369.09	273.84
369.28	276.18
369.48	276.18
369.68	262.14
369.87	318.31
370.07	308.95
370.27	362.78
370.47	341.72
370.66	285.55
370.86	327.68
371.06	358.10
371.25	421.30
371.45	353.42
371.65	360.44
371.84	381.51
372.04	372.15
372.24	388.53
372.44	425.98
372.63	381.51
372.83	411.93
373.03	514.92
373.22	461.09
373.42	393.21
373.62	397.89
373.81	409.59
374.01	423.64
374.21	428.32
374.40	475.13
374.60	418.96
374.79	425.98
374.99	379.17
375.19	404.91
375.38	395.55
375.58	458.74
375.78	416.62
375.97	435.34
376.17	479.81
376.37	416.62
376.56	362.78
376.76	407.25
376.95	454.06
377.15	416.62
377.35	418.96
377.54	425.98
377.74	482.15
377.93	390.87
378.13	433.00
378.33	369.80
378.52	379.17
378.72	440.02
378.91	428.32
379.11	374.49
379.31	395.55
379.50	334.70
379.70	449.38
379.89	437.68
380.09	372.15
380.28	407.25
380.48	346.40
380.68	374.49
380.87	418.96
381.07	304.27
381.26	416.62
381.46	386.19
381.65	468.11
381.85	430.66
382.04	376.83
382.24	400.23
382.43	411.93
382.63	433.00
382.83	421.30
383.02	395.55
383.22	374.49
383.41	348.74
383.61	447.04
383.80	423.64
384.00	421.30
384.19	395.55
384.39	440.02
384.58	479.81
384.78	318.31
384.97	381.51
385.17	365.12
385.36	386.19
385.56	379.17
385.75	423.64
385.95	360.44
386.14	390.87
386.34	374.49
386.53	397.89
386.72	416.62
386.92	400.23
387.11	360.44
387.31	414.27
387.50	379.17
387.70	428.32
387.89	369.80
388.09	369.80
388.28	402.57
388.48	376.83
388.67	447.04
388.86	372.15
389.06	442.36
389.25	367.46
389.45	388.53
389.64	430.66
389.84	491.51
390.03	386.19
390.22	407.25
390.42	381.51
390.61	425.98
390.81	433.00
391.00	442.36
391.19	362.78
391.39	344.06
391.58	444.70
391.78	372.15
391.97	465.77
392.16	409.59
392.36	428.32
392.55	444.70
392.75	465.77
392.94	402.57
393.13	468.11
393.33	344.06
393.52	332.36
393.71	397.89
393.91	395.55
394.10	383.85
394.29	360.44
394.49	428.32
394.68	447.04
394.88	418.96
395.07	458.74
395.26	330.02
395.46	447.04
395.65	397.89
395.84	458.74
396.04	463.43
396.23	449.38
396.42	383.85
396.62	374.49
396.81	428.32
397.00	414.27
397.19	376.83
397.39	442.36
397.58	393.21
397.77	383.85
397.97	358.10
398.16	416.62
398.35	402.57
398.55	433.00
398.74	383.85
398.93	383.85
399.12	402.57
399.32	358.10
399.51	409.59
399.70	374.49
399.90	411.93
400.09	355.76
400.28	402.57
400.47	334.70
400.67	482.15
400.86	533.64
401.05	365.12
401.24	421.30
401.44	449.38
401.63	435.34
401.82	404.91
402.01	437.68
402.21	416.62
402.40	400.23
402.59	393.21
402.78	379.17
402.97	376.83
403.17	334.70
403.36	395.55
403.55	472.79
403.74	379.17
403.93	421.30
404.13	411.93
404.32	414.27
404.51	388.53
404.70	428.32
404.89	414.27
405.09	472.79
405.28	369.80
405.47	358.10
405.66	339.38
405.85	423.64
406.05	421.30
406.24	442.36
406.43	383.85
406.62	402.57
406.81	447.04
407.00	407.25
407.20	397.89
407.39	442.36
407.58	402.57
407.77	430.66
407.96	475.13
408.15	449.38
408.34	423.64
408.54	388.53
408.73	433.00
408.92	395.55
409.11	435.34
409.30	393.21
409.49	440.02
409.68	416.62
409.87	433.00
410.07	421.30
410.26	430.66
410.45	437.68
410.64	447.04
410.83	383.85
411.02	362.78
411.21	402.57
411.40	379.17
411.59	330.02
411.78	390.87
411.98	465.77
412.17	418.96
412.36	386.19
412.55	428.32
412.74	411.93
412.93	430.66
413.12	379.17
413.31	416.62
413.50	447.04
413.69	379.17
413.88	468.11
414.07	381.51
414.26	465.77
414.45	372.15
414.64	301.93
414.83	447.04
415.02	463.43
415.22	418.96
415.41	376.83
415.60	367.46
415.79	428.32
415.98	421.30
416.17	428.32
416.36	442.36
416.55	451.72
416.74	451.72
416.93	379.17
417.12	433.00
417.31	454.06
417.50	360.44
417.69	390.87
417.88	437.68
418.07	404.91
418.26	468.11
418.45	428.32
418.64	402.57
418.83	414.27
419.02	381.51
419.21	470.45
419.39	400.23
419.58	402.57
419.77	393.21
419.96	435.34
420.15	397.89
420.34	440.02
420.53	423.64
420.72	416.62
420.91	447.04
421.10	341.72
421.29	395.55
421.48	386.19
421.67	486.83
421.86	449.38
422.05	416.62
422.24	379.17
422.43	416.62
422.61	397.89
422.80	458.74
422.99	428.32
423.18	442.36
423.37	428.32
423.56	416.62
423.75	402.57
423.94	381.51
424.13	383.85
424.32	353.42
424.50	416.62
424.69	451.72
424.88	444.70
425.07	435.34
425.26	437.68
425.45	397.89
425.64	388.53
425.83	404.91
426.01	503.22
426.20	386.19
426.39	442.36
426.58	337.04
426.77	386.19
426.96	383.85
427.15	458.74
427.33	383.85
427.52	428.32
427.71	346.40
427.90	381.51
428.09	383.85
428.28	407.25
428.46	353.42
428.65	482.15
428.84	381.51
429.03	482.15
429.22	416.62
429.40	379.17
429.59	449.38
429.78	425.98
429.97	421.30
430.16	402.57
430.34	407.25
430.53	440.02
430.72	400.23
430.91	397.89
431.10	423.64
431.28	397.89
431.47	355.76
431.66	447.04
431.85	425.98
432.03	430.66
432.22	456.40
432.41	433.00
432.60	430.66
432.79	386.19
432.97	442.36
433.16	437.68
433.35	386.19
433.54	397.89
433.72	433.00
433.91	465.77
434.10	430.66
434.28	407.25
434.47	393.21
434.66	416.62
434.85	362.78
435.03	383.85
435.22	433.00
435.41	458.74
435.59	470.45
435.78	437.68
435.97	348.74
436.16	416.62
436.34	433.00
436.53	444.70
436.72	437.68
436.90	416.62
437.09	451.72
437.28	372.15
437.46	468.11
437.65	449.38
437.84	390.87
438.02	409.59
438.21	414.27
438.40	409.59
438.58	407.25
438.77	367.46
438.96	440.02
439.14	376.83
439.33	411.93
439.52	472.79
439.70	409.59
439.89	498.53
440.08	472.79
440.26	433.00
440.45	472.79
440.63	416.62
440.82	397.89
441.01	463.43
441.19	404.91
441.38	418.96
441.57	351.08
441.75	390.87
441.94	421.30
442.12	416.62
442.31	416.62
442.50	362.78
442.68	330.02
442.87	402.57
443.05	447.04
443.24	383.85
443.43	344.06
443.61	433.00
443.80	393.21
443.98	454.06
444.17	374.49
444.35	444.70
444.54	407.25
444.73	477.47
444.91	505.56
445.10	454.06
445.28	454.06
445.47	468.11
445.65	393.21
445.84	435.34
446.02	400.23
446.21	456.40
446.39	430.66
446.58	351.08
446.77	369.80
446.95	411.93
447.14	461.09
447.32	421.30
447.51	376.83
447.69	409.59
447.88	440.02
448.06	456.40
448.25	376.83
448.43	425.98
448.62	421.30
448.80	503.22
448.99	442.36
449.17	409.59
449.36	383.85
449.54	475.13
449.73	402.57
449.91	430.66
450.10	372.15
450.28	379.17
450.46	423.64
450.65	379.17
450.83	374.49
451.02	425.98
451.20	393.21
451.39	404.91
451.57	489.17
451.76	461.09
451.94	400.23
452.13	433.00
452.31	463.43
452.49	341.72
452.68	449.38
452.86	468.11
453.05	416.62
453.23	411.93
453.42	348.74
453.60	409.59
453.78	461.09
453.97	409.59
454.15	348.74
454.34	447.04
454.52	454.06
454.70	402.57
454.89	418.96
455.07	407.25
455.26	451.72
455.44	444.70
455.62	414.27
455.81	404.91
455.99	437.68
456.17	397.89
456.36	440.02
456.54	475.13
456.73	400.23
456.91	430.66
457.09	463.43
457.28	444.70
457.46	416.62
457.64	454.06
457.83	454.06
458.01	428.32
458.19	416.62
458.38	386.19
458.56	404.91
458.74	393.21
458.93	482.15
459.11	395.55
459.29	388.53
459.48	444.70
459.66	484.49
459.84	433.00
460.03	383.85
460.21	503.22
460.39	409.59
460.57	395.55
460.76	461.09
460.94	386.19
461.12	386.19
461.31	407.25
461.49	383.85
461.67	447.04
461.85	428.32
462.04	437.68
462.22	758.33
462.40	454.06
462.59	411.93
462.77	381.51
462.95	433.00
463.13	416.62
463.32	423.64
463.50	440.02
463.68	395.55
463.86	451.72
464.05	369.80
464.23	433.00
464.41	437.68
464.59	468.11
464.78	411.93
464.96	449.38
465.14	374.49
465.32	388.53
465.50	404.91
465.69	444.70
465.87	440.02
466.05	400.23
466.23	454.06
466.41	393.21
466.60	397.89
466.78	379.17
466.96	435.34
467.14	458.74
467.32	411.93
467.51	423.64
467.69	477.47
467.87	463.43
468.05	435.34
468.23	496.19
468.41	411.93
468.60	423.64
468.78	418.96
468.96	442.36
469.14	456.40
469.32	430.66
469.50	416.62
469.69	454.06
469.87	505.56
470.05	402.57
470.23	428.32
470.41	425.98
470.59	390.87
470.77	475.13
470.95	395.55
471.14	423.64
471.32	411.93
471.50	393.21
471.68	411.93
471.86	372.15
472.04	365.12
472.22	404.91
472.40	381.51
472.58	418.96
472.77	386.19
472.95	376.83
473.13	465.77
473.31	374.49
473.49	491.51
473.67	400.23
473.85	482.15
474.03	440.02
474.21	423.64
474.39	465.77
474.57	472.79
474.75	421.30
474.93	379.17
475.12	367.46
475.30	358.10
475.48	388.53
475.66	454.06
475.84	409.59
476.02	416.62
476.20	454.06
476.38	468.11
476.56	451.72
476.74	418.96
476.92	404.91
477.10	386.19
477.28	437.68
477.46	430.66
477.64	461.09
477.82	423.64
478.00	395.55
478.18	423.64
478.36	442.36
478.54	451.72
478.72	365.12
478.90	393.21
479.08	395.55
479.26	397.89
479.44	386.19
479.62	393.21
479.80	353.42
479.98	425.98
480.16	447.04
480.34	425.98
480.52	383.85
480.70	414.27
480.88	397.89
481.06	409.59
481.24	440.02
481.41	433.00
481.59	425.98
481.77	416.62
481.95	411.93
482.13	472.79
482.31	386.19
482.49	440.02
482.67	470.45
482.85	470.45
483.03	456.40
483.21	402.57
483.39	430.66
483.57	442.36
483.74	365.12
483.92	444.70
484.10	390.87
484.28	400.23
484.46	423.64
484.64	458.74
484.82	430.66
485.00	435.34
485.18	421.30
485.35	369.80
485.53	425.98
485.71	433.00
485.89	435.34
486.07	416.62
486.25	458.74
486.43	379.17
486.61	348.74
486.78	425.98
486.96	416.62
487.14	411.93
487.32	390.87
487.50	383.85
487.68	444.70
487.85	503.22
488.03	440.02
488.21	409.59
488.39	400.23
488.57	395.55
488.75	353.42
488.92	519.60
489.10	411.93
489.28	402.57
489.46	411.93
489.64	425.98
489.81	379.17
489.99	493.85
490.17	442.36
490.35	507.90
490.53	421.30
490.70	411.93
490.88	407.25
491.06	374.49
491.24	386.19
491.41	442.36
491.59	477.47
491.77	430.66
491.95	402.57
492.13	421.30
492.30	421.30
492.48	435.34
492.66	475.13
492.84	400.23
493.01	414.27
493.19	362.78
493.37	374.49
493.54	437.68
493.72	468.11
493.90	358.10
494.08	386.19
494.25	425.98
494.43	402.57
494.61	372.15
494.79	383.85
494.96	472.79
495.14	423.64
495.32	472.79
495.49	395.55
495.67	383.85
495.85	458.74
496.02	379.17
496.20	414.27
496.38	444.70
496.55	430.66
496.73	454.06
496.91	355.76
497.09	442.36
497.26	440.02
497.44	362.78
497.62	346.40
497.79	440.02
497.97	456.40
498.14	440.02
498.32	355.76
498.50	425.98
498.67	301.93
498.85	418.96
499.03	416.62
499.20	402.57
499.38	395.55
499.56	414.27
499.73	414.27
499.91	428.32
500.08	416.62
500.26	369.80
500.44	390.87
500.61	409.59
500.79	435.34
500.97	402.57
501.14	470.45
501.32	444.70
501.49	430.66
501.67	468.11
501.84	491.51
502.02	409.59
502.20	360.44
502.37	395.55
502.55	402.57
502.72	402.57
502.90	468.11
503.07	395.55
503.25	470.45
503.43	390.87
503.60	435.34
503.78	418.96
503.95	390.87
504.13	395.55
504.30	503.22
504.48	433.00
504.65	404.91
504.83	442.36
505.01	444.70
505.18	498.53
505.36	461.09
505.53	440.02
505.71	388.53
505.88	414.27
506.06	433.00
506.23	425.98
506.41	449.38
506.58	421.30
506.76	374.49
506.93	440.02
507.11	430.66
507.28	407.25
507.46	425.98
507.63	475.13
507.81	425.98
507.98	418.96
508.16	454.06
508.33	437.68
508.50	400.23
508.68	383.85
508.85	379.17
509.03	475.13
509.20	505.56
509.38	423.64
509.55	355.76
509.73	414.27
509.90	386.19
510.08	348.74
510.25	484.49
510.42	379.17
510.60	390.87
510.77	381.51
510.95	456.40
511.12	374.49
511.30	472.79
511.47	435.34
511.64	440.02
511.82	404.91
511.99	423.64
512.17	440.02
512.34	437.68
512.51	404.91
512.69	421.30
512.86	482.15
513.04	447.04
513.21	400.23
513.38	423.64
513.56	411.93
513.73	421.30
513.90	355.76
514.08	400.23
514.25	433.00
514.43	444.70
514.60	402.57
514.77	411.93
514.95	470.45
515.12	465.77
515.29	404.91
515.47	456.40
515.64	379.17
515.81	458.74
515.99	468.11
516.16	454.06
516.33	447.04
516.51	454.06
516.68	395.55
516.85	430.66
517.03	416.62
517.20	430.66
517.37	442.36
517.54	393.21
517.72	344.06
517.89	339.38
518.06	407.25
518.24	531.30
518.41	440.02
518.58	414.27
518.75	421.30
518.93	437.68
519.10	379.17
519.27	395.55
519.45	362.78
519.62	433.00
519.79	393.21
519.96	369.80
520.14	388.53
520.31	472.79
520.48	402.57
520.65	358.10
520.83	411.93
521.00	475.13
521.17	395.55
521.34	451.72
521.52	390.87
521.69	482.15
521.86	456.40
522.03	414.27
522.20	465.77
522.38	327.68
522.55	365.12
522.72	407.25
522.89	454.06
523.07	418.96
523.24	407.25
523.41	444.70
523.58	414.27
523.75	388.53
523.92	411.93
524.10	388.53
524.27	383.85
524.44	402.57
524.61	470.45
524.78	409.59
524.96	451.72
525.13	472.79
525.30	484.49
525.47	454.06
525.64	390.87
525.81	512.58
525.98	376.83
526.16	404.91
526.33	465.77
526.50	414.27
526.67	423.64
526.84	428.32
527.01	383.85
527.18	397.89
527.36	484.49
527.53	395.55
527.70	418.96
527.87	402.57
528.04	456.40
528.21	435.34
528.38	444.70
528.55	465.77
528.72	402.57
528.89	390.87
529.07	423.64
529.24	344.06
529.41	437.68
529.58	475.13
529.75	418.96
529.92	482.15
530.09	383.85
530.26	411.93
530.43	397.89
530.60	425.98
530.77	388.53
530.94	433.00
531.11	402.57
531.28	414.27
531.46	367.46
531.63	440.02
531.80	381.51
531.97	423.64
532.14	416.62
532.31	397.89
532.48	423.64
532.65	418.96
532.82	479.81
532.99	402.57
533.16	447.04
533.33	379.17
533.50	451.72
533.67	440.02
533.84	379.17
534.01	444.70
534.18	390.87
534.35	484.49
534.52	416.62
534.69	444.70
534.86	379.17
535.03	402.57
535.20	414.27
535.37	414.27
535.54	428.32
535.71	444.70
535.88	440.02
536.05	440.02
536.22	411.93
536.38	430.66
536.55	397.89
536.72	475.13
536.89	407.25
537.06	407.25
537.23	407.25
537.40	435.34
537.57	397.89
537.74	510.24
537.91	411.93
538.08	423.64
538.25	428.32
538.42	416.62
538.59	411.93
538.75	461.09
538.92	341.72
539.09	472.79
539.26	390.87
539.43	428.32
539.60	397.89
539.77	428.32
539.94	362.78
540.11	463.43
540.28	470.45
540.44	484.49
540.61	425.98
540.78	369.80
540.95	367.46
541.12	421.30
541.29	341.72
541.46	437.68
541.62	367.46
541.79	400.23
541.96	390.87
542.13	372.15
542.30	435.34
542.47	447.04
542.63	348.74
542.80	411.93
542.97	365.12
543.14	402.57
543.31	447.04
543.48	414.27
543.64	479.81
543.81	423.64
543.98	362.78
544.15	383.85
544.32	379.17
544.48	409.59
544.65	423.64
544.82	484.49
544.99	388.53
545.16	435.34
545.32	409.59
545.49	458.74
545.66	393.21
545.83	507.90
546.00	456.40
546.16	362.78
546.33	440.02
546.50	425.98
546.67	411.93
546.83	521.94
547.00	461.09
547.17	388.53
547.34	447.04
547.50	372.15
547.67	411.93
547.84	437.68
548.00	397.89
548.17	423.64
548.34	423.64
548.51	381.51
548.67	395.55
548.84	397.89
549.01	479.81
549.18	463.43
549.34	397.89
549.51	353.42
549.68	372.15
549.84	409.59
550.01	416.62
550.18	435.34
550.34	496.19
550.51	451.72
550.68	454.06
550.84	442.36
551.01	395.55
551.18	423.64
551.34	407.25
551.51	416.62
551.68	376.83
551.84	386.19
552.01	451.72
552.18	416.62
552.34	430.66
552.51	461.09
552.68	479.81
552.84	421.30
553.01	449.38
553.18	397.89
553.34	458.74
553.51	425.98
553.67	461.09
553.84	470.45
554.01	409.59
554.17	418.96
554.34	411.93
554.51	463.43
554.67	416.62
554.84	482.15
555.00	409.59
555.17	493.85
555.33	451.72
555.50	421.30
555.67	376.83
555.83	428.32
556.00	332.36
556.16	526.62
556.33	435.34
556.50	372.15
556.66	416.62
556.83	365.12
556.99	344.06
557.16	442.36
557.32	421.30
557.49	437.68
557.65	407.25
557.82	355.76
557.98	393.21
558.15	381.51
558.32	353.42
558.48	463.43
558.65	407.25
558.81	458.74
558.98	465.77
559.14	388.53
559.31	390.87
559.47	430.66
559.64	447.04
559.80	386.19
559.97	463.43
560.13	393.21
560.30	484.49
560.46	374.49
560.63	411.93
560.79	369.80
560.96	491.51
561.12	330.02
561.29	390.87
561.45	456.40
561.61	355.76
561.78	496.19
561.94	468.11
562.11	477.47
562.27	393.21
562.44	386.19
562.60	465.77
562.77	425.98
562.93	484.49
563.10	416.62
563.26	411.93
563.42	458.74
563.59	421.30
563.75	379.17
563.92	428.32
564.08	348.74
564.24	458.74
564.41	428.32
564.57	383.85
564.74	351.08
564.90	423.64
565.07	456.40
565.23	465.77
565.39	454.06
565.56	395.55
565.72	479.81
565.88	390.87
566.05	425.98
566.21	369.80
566.38	362.78
566.54	456.40
566.70	428.32
566.87	451.72
567.03	440.02
567.19	404.91
567.36	479.81
567.52	458.74
567.68	400.23
567.85	470.45
568.01	454.06
568.17	402.57
568.34	421.30
568.50	435.34
568.66	430.66
568.83	493.85
568.99	433.00
569.15	428.32
569.32	449.38
569.48	423.64
569.64	425.98
569.81	477.47
569.97	402.57
570.13	400.23
570.30	355.76
570.46	400.23
570.62	470.45
570.78	430.66
570.95	339.38
571.11	440.02
571.27	372.15
571.43	365.12
571.60	425.98
571.76	386.19
571.92	428.32
572.09	433.00
572.25	416.62
572.41	383.85
572.57	451.72
572.74	437.68
572.90	433.00
573.06	449.38
573.22	409.59
573.38	430.66
573.55	458.74
573.71	442.36
573.87	409.59
574.03	400.23
574.20	386.19
574.36	486.83
574.52	348.74
574.68	468.11
574.84	390.87
575.01	409.59
575.17	390.87
575.33	381.51
575.49	425.98
575.65	468.11
575.82	435.34
575.98	433.00
576.14	351.08
576.30	407.25
576.46	414.27
576.62	390.87
576.79	475.13
576.95	458.74
577.11	365.12
577.27	428.32
577.43	468.11
577.59	449.38
577.75	393.21
577.92	454.06
578.08	400.23
578.24	397.89
578.40	365.12
578.56	409.59
578.72	397.89
578.88	442.36
579.04	402.57
579.21	376.83
579.37	421.30
579.53	454.06
579.69	423.64
579.85	395.55
580.01	411.93
580.17	395.55
580.33	435.34
580.49	447.04
580.65	372.15
580.82	365.12
580.98	393.21
581.14	383.85
581.30	451.72
581.46	379.17
581.62	388.53
581.78	374.49
581.94	416.62
582.10	390.87
582.26	379.17
582.42	353.42
582.58	444.70
582.74	320.65
582.90	374.49
583.06	479.81
583.22	428.32
583.38	411.93
583.54	402.57
583.70	454.06
583.86	451.72
584.02	447.04
584.18	414.27
584.34	367.46
584.50	374.49
584.66	374.49
584.82	442.36
584.98	322.99
585.14	482.15
585.30	435.34
585.46	388.53
585.62	428.32
585.78	369.80
585.94	458.74
586.10	395.55
586.26	365.12
586.42	524.28
586.58	440.02
586.74	454.06
586.90	379.17
587.06	472.79
587.22	437.68
587.38	411.93
587.54	414.27
587.70	458.74
587.86	442.36
588.02	416.62
588.18	397.89
588.34	411.93
588.49	458.74
588.65	442.36
588.81	404.91
588.97	418.96
589.13	437.68
589.29	519.60
589.45	498.53
589.61	414.27
589.77	421.30
589.93	409.59
590.08	475.13
590.24	397.89
590.40	451.72
590.56	425.98
590.72	397.89
590.88	428.32
591.04	351.08
591.20	414.27
591.35	402.57
591.51	388.53
591.67	397.89
591.83	402.57
591.99	442.36
592.15	456.40
592.31	442.36
592.46	393.21
592.62	456.40
592.78	351.08
592.94	430.66
593.10	400.23
593.26	416.62
593.41	386.19
593.57	411.93
593.73	365.12
593.89	379.17
594.05	482.15
594.20	442.36
594.36	444.70
594.52	376.83
594.68	444.70
594.84	376.83
594.99	425.98
595.15	521.94
595.31	418.96
595.47	421.30
595.62	449.38
595.78	433.00
595.94	468.11
596.10	348.74
596.25	409.59
596.41	393.21
596.57	372.15
596.73	425.98
596.88	411.93
597.04	451.72
597.20	381.51
597.36	433.00
597.51	418.96
597.67	393.21
597.83	381.51
597.99	411.93
598.14	404.91
598.30	430.66
598.46	388.53
598.61	444.70
598.77	458.74
598.93	388.53
599.09	395.55
599.24	395.55
599.40	454.06
599.56	425.98
599.71	433.00
599.87	416.62
600.03	393.21
600.18	449.38
600.34	482.15
600.50	358.10
600.65	475.13
600.81	451.72
600.97	362.78
601.12	411.93
601.28	491.51
601.44	402.57
601.59	379.17
601.75	383.85
601.91	418.96
602.06	404.91
602.22	475.13
602.37	409.59
602.53	369.80
602.69	472.79
602.84	454.06
603.00	468.11
603.16	470.45
603.31	376.83
603.47	388.53
603.62	339.38
603.78	447.04
603.94	393.21
604.09	376.83
604.25	376.83
604.40	489.17
604.56	444.70
604.71	360.44
604.87	404.91
605.03	423.64
605.18	362.78
605.34	414.27
605.49	409.59
605.65	447.04
605.80	367.46
605.96	390.87
606.12	411.93
606.27	489.17
606.43	425.98
606.58	484.49
606.74	461.09
606.89	388.53
607.05	430.66
607.20	442.36
607.36	423.64
607.51	374.49
607.67	428.32
607.82	437.68
607.98	461.09
608.13	379.17
608.29	472.79
608.44	444.70
608.60	397.89
608.75	388.53
608.91	411.93
609.06	489.17
609.22	423.64
609.37	437.68
609.53	440.02
609.68	444.70
609.84	454.06
609.99	418.96
610.15	428.32
610.30	435.34
610.46	461.09
610.61	444.70
610.76	372.15
610.92	383.85
611.07	411.93
611.23	468.11
611.38	388.53
611.54	372.15
611.69	416.62
611.84	367.46
612.00	416.62
612.15	437.68
612.31	404.91
612.46	400.23
612.62	341.72
612.77	477.47
612.92	468.11
613.08	477.47
613.23	442.36
613.39	500.87
613.54	418.96
613.69	395.55
613.85	395.55
614.00	425.98
614.15	400.23
614.31	421.30
614.46	444.70
614.62	433.00
614.77	421.30
614.92	430.66
615.08	320.65
615.23	425.98
615.38	461.09
615.54	400.23
615.69	358.10
615.84	360.44
616.00	395.55
616.15	337.04
616.30	458.74
616.46	430.66
616.61	543.00
616.76	463.43
616.92	435.34
617.07	442.36
617.22	393.21
617.37	397.89
617.53	435.34
617.68	430.66
617.83	451.72
617.99	423.64
618.14	496.19
618.29	458.74
618.45	351.08
618.60	416.62
618.75	395.55
618.90	400.23
619.06	435.34
619.21	433.00
619.36	437.68
619.51	402.57
619.67	435.34
619.82	390.87
619.97	414.27
620.12	440.02
620.28	395.55
620.43	440.02
620.58	421.30
620.73	442.36
620.89	428.32
621.04	409.59
621.19	447.04
621.34	337.04
621.49	437.68
621.65	416.62
621.80	468.11
621.95	404.91
622.10	425.98
622.25	414.27
622.41	409.59
622.56	423.64
622.71	411.93
622.86	430.66
623.01	395.55
623.16	449.38
623.32	388.53
623.47	313.63
623.62	447.04
623.77	409.59
623.92	407.25
624.07	423.64
624.23	407.25
624.38	421.30
624.53	465.77
624.68	428.32
624.83	496.19
624.98	437.68
625.13	365.12
625.29	383.85
625.44	421.30
625.59	435.34
625.74	505.56
625.89	402.57
626.04	402.57
626.19	360.44
626.34	486.83
626.49	458.74
626.65	418.96
626.80	414.27
626.95	433.00
627.10	428.32
627.25	444.70
627.40	425.98
627.55	397.89
627.70	472.79
627.85	442.36
628.00	418.96
628.15	381.51
628.30	428.32
628.45	369.80
628.60	437.68
628.76	468.11
628.91	416.62
629.06	393.21
629.21	400.23
629.36	416.62
629.51	353.42
629.66	447.04
629.81	454.06
629.96	402.57
630.11	407.25
630.26	407.25
630.41	449.38
630.56	383.85
630.71	407.25
630.86	360.44
631.01	454.06
631.16	425.98
631.31	444.70
631.46	449.38
631.61	458.74
631.76	379.17
631.91	416.62
632.06	449.38
632.21	381.51
632.36	440.02
632.51	437.68
632.66	411.93
632.81	414.27
632.96	379.17
633.10	435.34
633.25	440.02
633.40	402.57
633.55	411.93
633.70	411.93
633.85	430.66
634.00	351.08
634.15	430.66
634.30	430.66
634.45	390.87
634.60	372.15
634.75	379.17
634.90	411.93
635.05	430.66
635.19	390.87
635.34	407.25
635.49	449.38
635.64	397.89
635.79	421.30
635.94	404.91
636.09	463.43
636.24	386.19
636.39	400.23
636.53	433.00
636.68	376.83
636.83	407.25
636.98	437.68
637.13	365.12
637.28	489.17
637.43	416.62
637.57	425.98
637.72	386.19
637.87	379.17
638.02	489.17
638.17	414.27
638.32	390.87
638.46	400.23
638.61	507.90
638.76	430.66
638.91	433.00
639.06	411.93
639.20	400.23
639.35	430.66
639.50	421.30
639.65	475.13
639.80	442.36
639.94	397.89
640.09	449.38
640.24	456.40
640.39	472.79
640.54	421.30
640.68	479.81
640.83	447.04
640.98	362.78
641.13	418.96
641.27	435.34
641.42	449.38
641.57	491.51
641.72	454.06
641.86	421.30
642.01	433.00
642.16	472.79
642.31	435.34
642.45	400.23
642.60	437.68
642.75	463.43
642.90	435.34
643.04	437.68
643.19	418.96
643.34	458.74
643.48	437.68
643.63	458.74
643.78	409.59
643.93	465.77
644.07	425.98
644.22	376.83
644.37	386.19
644.51	484.49
644.66	381.51
644.81	362.78
644.95	348.74
645.10	463.43
645.25	388.53
645.39	491.51
645.54	458.74
645.69	533.64
645.83	407.25
645.98	456.40
646.13	414.27
646.27	430.66
646.42	437.68
646.57	386.19
646.71	442.36
646.86	433.00
647.00	463.43
647.15	468.11
647.30	433.00
647.44	437.68
647.59	454.06
647.74	440.02
647.88	442.36
648.03	390.87
648.17	444.70
648.32	374.49
648.47	456.40
648.61	470.45
648.76	386.19
648.90	395.55
649.05	486.83
649.20	407.25
649.34	400.23
649.49	395.55
649.63	442.36
649.78	348.74
649.92	423.64
650.07	418.96
650.21	425.98
650.36	425.98
650.51	388.53
650.65	442.36
650.80	341.72
650.94	421.30
651.09	369.80
651.23	339.38
651.38	418.96
651.52	477.47
651.67	451.72
651.81	423.64
651.96	421.30
652.10	423.64
652.25	451.72
652.39	425.98
652.54	468.11
652.68	404.91
652.83	451.72
652.97	407.25
653.12	416.62
653.26	395.55
653.41	456.40
653.55	418.96
653.70	376.83
653.84	444.70
653.99	423.64
654.13	461.09
654.27	430.66
654.42	360.44
654.56	407.25
654.71	463.43
654.85	381.51
655.00	414.27
655.14	447.04
655.29	353.42
655.43	360.44
655.57	442.36
655.72	404.91
655.86	433.00
656.01	402.57
656.15	320.65
656.30	461.09
656.44	409.59
656.58	433.00
656.73	346.40
656.87	280.86
657.01	355.76
657.16	470.45
657.30	411.93
657.45	334.70
657.59	461.09
657.73	383.85
657.88	475.13
658.02	543.00
658.16	369.80
658.31	498.53
658.45	407.25
658.60	447.04
658.74	369.80
658.88	416.62
659.03	435.34
659.17	409.59
659.31	360.44
659.46	402.57
659.60	383.85
659.74	397.89
659.89	456.40
660.03	423.64
660.17	484.49
660.32	433.00
660.46	428.32
660.60	430.66
660.74	346.40
660.89	351.08
661.03	411.93
661.17	379.17
661.32	367.46
661.46	376.83
661.60	437.68
661.74	440.02
661.89	482.15
662.03	341.72
662.17	416.62
662.31	484.49
662.46	346.40
662.60	486.83
662.74	447.04
662.88	416.62
663.03	458.74
663.17	379.17
663.31	451.72
663.45	402.57
663.60	367.46
663.74	334.70
663.88	404.91
664.02	353.42
664.17	376.83
664.31	444.70
664.45	407.25
664.59	447.04
664.73	379.17
664.88	435.34
665.02	397.89
665.16	416.62
665.30	477.47
665.44	383.85
665.59	428.32
665.73	362.78
665.87	418.96
666.01	402.57
666.15	444.70
666.29	409.59
666.44	500.87
666.58	489.17
666.72	379.17
666.86	447.04
667.00	425.98
667.14	425.98
667.28	444.70
667.43	444.70
667.57	374.49
667.71	425.98
667.85	472.79
667.99	383.85
668.13	416.62
668.27	362.78
668.41	470.45
668.56	433.00
668.70	386.19
668.84	402.57
668.98	409.59
669.12	325.33
669.26	404.91
669.40	425.98
669.54	409.59
669.68	388.53
669.82	388.53
669.96	451.72
670.10	454.06
670.25	456.40
670.39	491.51
670.53	397.89
670.67	491.51
670.81	358.10
670.95	383.85
671.09	367.46
671.23	472.79
671.37	458.74
671.51	379.17
671.65	463.43
671.79	393.21
671.93	475.13
672.07	472.79
672.21	449.38
672.35	461.09
672.49	425.98
672.63	404.91
672.77	440.02
672.91	435.34
673.05	430.66
673.19	397.89
673.33	444.70
673.47	470.45
673.61	421.30
673.75	447.04
673.89	461.09
674.03	423.64
674.17	360.44
674.31	397.89
674.45	435.34
674.59	402.57
674.73	369.80
674.87	447.04
675.01	421.30
675.15	400.23
675.29	437.68
675.43	465.77
675.56	339.38
675.70	428.32
675.84	449.38
675.98	397.89
676.12	400.23
676.26	409.59
676.40	402.57
676.54	451.72
676.68	386.19
676.82	393.21
676.96	458.74
677.10	442.36
677.23	433.00
677.37	430.66
677.51	449.38
677.65	430.66
677.79	390.87
677.93	339.38
678.07	360.44
678.21	407.25
678.34	379.17
678.48	360.44
678.62	430.66
678.76	348.74
678.90	397.89
679.04	430.66
679.18	376.83
679.31	418.96
679.45	411.93
679.59	411.93
679.73	437.68
679.87	442.36
680.00	397.89
680.14	463.43
680.28	430.66
680.42	390.87
680.56	383.85
680.70	308.95
680.83	397.89
680.97	421.30
681.11	367.46
681.25	447.04
681.39	451.72
681.52	409.59
681.66	414.27
681.80	383.85
681.94	447.04
682.07	428.32
682.21	414.27
682.35	447.04
682.49	402.57
682.62	411.93
682.76	503.22
682.90	470.45
683.04	482.15
683.17	444.70
683.31	451.72
683.45	461.09
683.59	461.09
683.72	428.32
683.86	496.19
684.00	418.96
684.13	393.21
684.27	437.68
684.41	437.68
684.55	433.00
684.68	442.36
684.82	395.55
684.96	428.32
685.09	393.21
685.23	388.53
685.37	418.96
685.50	463.43
685.64	400.23
685.78	486.83
685.91	423.64
686.05	390.87
686.19	437.68
686.32	351.08
686.46	470.45
686.60	400.23
686.73	428.32
686.87	470.45
687.01	425.98
687.14	421.30
687.28	444.70
687.42	376.83
687.55	372.15
687.69	430.66
687.82	404.91
687.96	456.40
688.10	451.72
688.23	348.74
688.37	435.34
688.50	425.98
688.64	367.46
688.78	430.66
688.91	379.17
689.05	362.78
689.18	365.12
689.32	435.34
689.46	404.91
689.59	400.23
689.73	416.62
689.86	435.34
690.00	327.68
690.13	388.53
690.27	376.83
690.41	353.42
690.54	388.53
690.68	435.34
690.81	414.27
690.95	379.17
691.08	461.09
691.22	421.30
691.35	465.77
691.49	442.36
691.62	461.09
691.76	423.64
691.89	491.51
692.03	402.57
692.16	402.57
692.30	430.66
692.43	400.23
692.57	440.02
692.70	397.89
692.84	470.45
692.97	414.27
693.11	411.93
693.24	416.62
693.38	461.09
693.51	407.25
693.65	458.74
693.78	454.06
693.92	376.83
694.05	472.79
694.19	325.33
694.32	402.57
694.45	395.55
694.59	393.21
694.72	397.89
694.86	440.02
694.99	381.51
695.13	444.70
695.26	416.62
695.39	388.53
695.53	411.93
695.66	402.57
695.80	456.40
695.93	423.64
696.07	425.98
696.20	400.23
696.33	421.30
696.47	409.59
696.60	414.27
696.73	496.19
696.87	418.96
697.00	447.04
697.14	388.53
697.27	423.64
697.40	456.40
697.54	367.46
697.67	428.32
697.80	402.57
697.94	428.32
698.07	440.02
698.21	353.42
698.34	400.23
698.47	414.27
698.61	402.57
698.74	475.13
698.87	409.59
699.01	355.76
699.14	320.65
699.27	430.66
699.40	512.58
699.54	444.70
699.67	404.91
699.80	407.25
699.94	428.32
700.07	425.98
700.20	386.19
700.34	425.98
700.47	400.23
700.60	433.00
700.73	390.87
700.87	442.36
701.00	400.23
701.13	344.06
701.26	395.55
701.40	430.66
701.53	440.02
701.66	355.76
701.79	472.79
701.93	304.27
702.06	470.45
702.19	386.19
702.32	491.51
702.46	421.30
702.59	402.57
702.72	353.42
702.85	418.96
702.99	409.59
703.12	449.38
703.25	442.36
703.38	475.13
703.51	402.57
703.65	435.34
703.78	425.98
703.91	388.53
704.04	428.32
704.17	393.21
704.31	355.76
704.44	365.12
704.57	362.78
704.70	404.91
704.83	402.57
704.96	393.21
705.10	451.72
705.23	428.32
>>>>>End Processed Spectral Data<<<<<
