SpectraSuite Data File
++++++++++++++++++++++++++++++++++++
Date: Fri Oct 25 12:11:30 EDT 2013
User: price-jones
Dark Spectrum Present: No
Reference Spectrum Present: No
Number of Sampled Component Spectra: 1
Spectrometers: USB2+H05261
Integration Time (usec): 100000 (USB2+H05261)
Spectra Averaged: 1 (USB2+H05261)
Boxcar Smoothing: 0 (USB2+H05261)
Correct for Electrical Dark: No (USB2+H05261)
Strobe/Lamp Enabled: No (USB2+H05261)
Correct for Detector Non-linearity: No (USB2+H05261)
Correct for Stray Light: No (USB2+H05261)
Number of Pixels in Processed Spectrum: 2048
>>>>>Begin Processed Spectral Data<<<<<
365.73	369.80
365.92	369.80
366.12	369.80
366.32	262.14
366.52	250.44
366.72	337.04
366.91	231.71
367.11	238.73
367.31	203.63
367.51	250.44
367.70	234.05
367.90	266.82
368.10	215.33
368.30	227.03
368.49	266.82
368.69	311.29
368.89	255.12
369.09	266.82
369.28	243.42
369.48	271.50
369.68	262.14
369.87	283.20
370.07	327.68
370.27	292.57
370.47	358.10
370.66	346.40
370.86	346.40
371.06	362.78
371.25	430.66
371.45	421.30
371.65	379.17
371.84	346.40
372.04	395.55
372.24	414.27
372.44	351.08
372.63	388.53
372.83	351.08
373.03	386.19
373.22	400.23
373.42	409.59
373.62	400.23
373.81	430.66
374.01	442.36
374.21	404.91
374.40	400.23
374.60	425.98
374.79	344.06
374.99	454.06
375.19	435.34
375.38	470.45
375.58	418.96
375.78	367.46
375.97	435.34
376.17	395.55
376.37	451.72
376.56	512.58
376.76	454.06
376.95	388.53
377.15	418.96
377.35	379.17
377.54	449.38
377.74	383.85
377.93	442.36
378.13	404.91
378.33	447.04
378.52	400.23
378.72	372.15
378.91	407.25
379.11	418.96
379.31	407.25
379.50	360.44
379.70	425.98
379.89	498.53
380.09	379.17
380.28	348.74
380.48	390.87
380.68	383.85
380.87	451.72
381.07	416.62
381.26	376.83
381.46	397.89
381.65	402.57
381.85	325.33
382.04	386.19
382.24	414.27
382.43	360.44
382.63	351.08
382.83	386.19
383.02	440.02
383.22	465.77
383.41	388.53
383.61	411.93
383.80	402.57
384.00	411.93
384.19	430.66
384.39	332.36
384.58	339.38
384.78	449.38
384.97	433.00
385.17	386.19
385.36	418.96
385.56	435.34
385.75	388.53
385.95	423.64
386.14	376.83
386.34	451.72
386.53	369.80
386.72	404.91
386.92	477.47
387.11	430.66
387.31	456.40
387.50	411.93
387.70	444.70
387.89	411.93
388.09	315.97
388.28	421.30
388.48	346.40
388.67	451.72
388.86	367.46
389.06	400.23
389.25	402.57
389.45	381.51
389.64	421.30
389.84	456.40
390.03	428.32
390.22	407.25
390.42	400.23
390.61	428.32
390.81	414.27
391.00	442.36
391.19	449.38
391.39	414.27
391.58	397.89
391.78	449.38
391.97	456.40
392.16	423.64
392.36	383.85
392.55	407.25
392.75	440.02
392.94	451.72
393.13	402.57
393.33	381.51
393.52	397.89
393.71	379.17
393.91	397.89
394.10	351.08
394.29	358.10
394.49	390.87
394.68	386.19
394.88	400.23
395.07	472.79
395.26	456.40
395.46	395.55
395.65	395.55
395.84	428.32
396.04	444.70
396.23	437.68
396.42	386.19
396.62	390.87
396.81	461.09
397.00	425.98
397.19	416.62
397.39	348.74
397.58	440.02
397.77	393.21
397.97	465.77
398.16	433.00
398.35	416.62
398.55	414.27
398.74	355.76
398.93	423.64
399.12	369.80
399.32	472.79
399.51	440.02
399.70	404.91
399.90	423.64
400.09	355.76
400.28	409.59
400.47	353.42
400.67	365.12
400.86	435.34
401.05	519.60
401.24	458.74
401.44	491.51
401.63	430.66
401.82	411.93
402.01	341.72
402.21	372.15
402.40	416.62
402.59	411.93
402.78	421.30
402.97	372.15
403.17	393.21
403.36	416.62
403.55	360.44
403.74	454.06
403.93	428.32
404.13	332.36
404.32	416.62
404.51	421.30
404.70	388.53
404.89	414.27
405.09	365.12
405.28	409.59
405.47	475.13
405.66	414.27
405.85	372.15
406.05	386.19
406.24	360.44
406.43	456.40
406.62	416.62
406.81	414.27
407.00	402.57
407.20	425.98
407.39	440.02
407.58	430.66
407.77	442.36
407.96	430.66
408.15	393.21
408.34	425.98
408.54	395.55
408.73	456.40
408.92	433.00
409.11	423.64
409.30	409.59
409.49	421.30
409.68	421.30
409.87	344.06
410.07	472.79
410.26	355.76
410.45	362.78
410.64	435.34
410.83	393.21
411.02	425.98
411.21	423.64
411.40	456.40
411.59	433.00
411.78	337.04
411.98	454.06
412.17	435.34
412.36	451.72
412.55	435.34
412.74	400.23
412.93	393.21
413.12	418.96
413.31	411.93
413.50	404.91
413.69	334.70
413.88	409.59
414.07	451.72
414.26	454.06
414.45	365.12
414.64	414.27
414.83	409.59
415.02	325.33
415.22	440.02
415.41	461.09
415.60	421.30
415.79	463.43
415.98	388.53
416.17	400.23
416.36	379.17
416.55	416.62
416.74	393.21
416.93	418.96
417.12	362.78
417.31	418.96
417.50	414.27
417.69	421.30
417.88	351.08
418.07	388.53
418.26	367.46
418.45	381.51
418.64	428.32
418.83	411.93
419.02	433.00
419.21	421.30
419.39	433.00
419.58	376.83
419.77	414.27
419.96	423.64
420.15	402.57
420.34	404.91
420.53	374.49
420.72	409.59
420.91	402.57
421.10	411.93
421.29	390.87
421.48	416.62
421.67	376.83
421.86	397.89
422.05	444.70
422.24	435.34
422.43	395.55
422.61	409.59
422.80	386.19
422.99	440.02
423.18	372.15
423.37	416.62
423.56	447.04
423.75	367.46
423.94	308.95
424.13	383.85
424.32	395.55
424.50	337.04
424.69	475.13
424.88	479.81
425.07	383.85
425.26	421.30
425.45	425.98
425.64	428.32
425.83	418.96
426.01	402.57
426.20	430.66
426.39	388.53
426.58	341.72
426.77	348.74
426.96	461.09
427.15	472.79
427.33	376.83
427.52	463.43
427.71	451.72
427.90	433.00
428.09	404.91
428.28	430.66
428.46	374.49
428.65	423.64
428.84	409.59
429.03	418.96
429.22	376.83
429.40	397.89
429.59	437.68
429.78	414.27
429.97	430.66
430.16	449.38
430.34	433.00
430.53	395.55
430.72	322.99
430.91	447.04
431.10	402.57
431.28	383.85
431.47	416.62
431.66	477.47
431.85	425.98
432.03	372.15
432.22	353.42
432.41	442.36
432.60	449.38
432.79	442.36
432.97	337.04
433.16	463.43
433.35	337.04
433.54	423.64
433.72	463.43
433.91	395.55
434.10	372.15
434.28	482.15
434.47	486.83
434.66	418.96
434.85	449.38
435.03	482.15
435.22	425.98
435.41	517.26
435.59	482.15
435.78	425.98
435.97	425.98
436.16	498.53
436.34	428.32
436.53	468.11
436.72	374.49
436.90	346.40
437.09	428.32
437.28	461.09
437.46	454.06
437.65	418.96
437.84	381.51
438.02	397.89
438.21	425.98
438.40	400.23
438.58	437.68
438.77	454.06
438.96	425.98
439.14	414.27
439.33	388.53
439.52	372.15
439.70	440.02
439.89	386.19
440.08	414.27
440.26	395.55
440.45	388.53
440.63	388.53
440.82	440.02
441.01	383.85
441.19	489.17
441.38	423.64
441.57	409.59
441.75	353.42
441.94	423.64
442.12	444.70
442.31	416.62
442.50	414.27
442.68	461.09
442.87	383.85
443.05	428.32
443.24	411.93
443.43	400.23
443.61	496.19
443.80	433.00
443.98	449.38
444.17	397.89
444.35	393.21
444.54	482.15
444.73	440.02
444.91	454.06
445.10	365.12
445.28	414.27
445.47	416.62
445.65	442.36
445.84	461.09
446.02	458.74
446.21	458.74
446.39	379.17
446.58	367.46
446.77	383.85
446.95	404.91
447.14	463.43
447.32	409.59
447.51	379.17
447.69	444.70
447.88	390.87
448.06	433.00
448.25	430.66
448.43	397.89
448.62	430.66
448.80	395.55
448.99	418.96
449.17	390.87
449.36	318.31
449.54	376.83
449.73	397.89
449.91	414.27
450.10	449.38
450.28	433.00
450.46	447.04
450.65	430.66
450.83	409.59
451.02	517.26
451.20	425.98
451.39	416.62
451.57	393.21
451.76	423.64
451.94	440.02
452.13	416.62
452.31	397.89
452.49	435.34
452.68	325.33
452.86	428.32
453.05	547.69
453.23	409.59
453.42	369.80
453.60	376.83
453.78	486.83
453.97	376.83
454.15	383.85
454.34	461.09
454.52	451.72
454.70	416.62
454.89	510.24
455.07	414.27
455.26	477.47
455.44	404.91
455.62	418.96
455.81	437.68
455.99	386.19
456.17	381.51
456.36	416.62
456.54	468.11
456.73	423.64
456.91	383.85
457.09	414.27
457.28	409.59
457.46	416.62
457.64	463.43
457.83	416.62
458.01	451.72
458.19	397.89
458.38	386.19
458.56	444.70
458.74	374.49
458.93	430.66
459.11	442.36
459.29	461.09
459.48	395.55
459.66	454.06
459.84	423.64
460.03	447.04
460.21	496.19
460.39	414.27
460.57	451.72
460.76	454.06
460.94	376.83
461.12	454.06
461.31	425.98
461.49	365.12
461.67	414.27
461.85	414.27
462.04	388.53
462.22	748.97
462.40	397.89
462.59	463.43
462.77	407.25
462.95	388.53
463.13	393.21
463.32	444.70
463.50	379.17
463.68	393.21
463.86	428.32
464.05	482.15
464.23	463.43
464.41	407.25
464.59	386.19
464.78	430.66
464.96	381.51
465.14	411.93
465.32	449.38
465.50	496.19
465.69	451.72
465.87	437.68
466.05	358.10
466.23	409.59
466.41	390.87
466.60	358.10
466.78	374.49
466.96	461.09
467.14	465.77
467.32	421.30
467.51	395.55
467.69	433.00
467.87	496.19
468.05	456.40
468.23	482.15
468.41	465.77
468.60	402.57
468.78	425.98
468.96	437.68
469.14	348.74
469.32	393.21
469.50	465.77
469.69	433.00
469.87	425.98
470.05	353.42
470.23	348.74
470.41	430.66
470.59	477.47
470.77	414.27
470.95	442.36
471.14	407.25
471.32	416.62
471.50	449.38
471.68	451.72
471.86	374.49
472.04	428.32
472.22	390.87
472.40	404.91
472.58	397.89
472.77	353.42
472.95	404.91
473.13	444.70
473.31	477.47
473.49	435.34
473.67	430.66
473.85	463.43
474.03	470.45
474.21	430.66
474.39	393.21
474.57	423.64
474.75	395.55
474.93	437.68
475.12	397.89
475.30	463.43
475.48	416.62
475.66	423.64
475.84	465.77
476.02	451.72
476.20	425.98
476.38	402.57
476.56	486.83
476.74	491.51
476.92	416.62
477.10	465.77
477.28	409.59
477.46	372.15
477.64	454.06
477.82	402.57
478.00	374.49
478.18	381.51
478.36	404.91
478.54	444.70
478.72	400.23
478.90	400.23
479.08	407.25
479.26	400.23
479.44	437.68
479.62	407.25
479.80	411.93
479.98	376.83
480.16	400.23
480.34	416.62
480.52	337.04
480.70	404.91
480.88	346.40
481.06	388.53
481.24	423.64
481.41	433.00
481.59	475.13
481.77	374.49
481.95	369.80
482.13	482.15
482.31	482.15
482.49	414.27
482.67	393.21
482.85	411.93
483.03	442.36
483.21	407.25
483.39	383.85
483.57	397.89
483.74	447.04
483.92	447.04
484.10	388.53
484.28	449.38
484.46	442.36
484.64	400.23
484.82	456.40
485.00	484.49
485.18	411.93
485.35	449.38
485.53	414.27
485.71	491.51
485.89	365.12
486.07	418.96
486.25	479.81
486.43	428.32
486.61	449.38
486.78	456.40
486.96	404.91
487.14	503.22
487.32	367.46
487.50	330.02
487.68	472.79
487.85	386.19
488.03	390.87
488.21	386.19
488.39	423.64
488.57	444.70
488.75	383.85
488.92	458.74
489.10	456.40
489.28	411.93
489.46	383.85
489.64	393.21
489.81	365.12
489.99	407.25
490.17	425.98
490.35	526.62
490.53	479.81
490.70	386.19
490.88	458.74
491.06	447.04
491.24	468.11
491.41	454.06
491.59	454.06
491.77	390.87
491.95	351.08
492.13	484.49
492.30	416.62
492.48	346.40
492.66	369.80
492.84	456.40
493.01	472.79
493.19	372.15
493.37	411.93
493.54	449.38
493.72	472.79
493.90	395.55
494.08	367.46
494.25	435.34
494.43	470.45
494.61	388.53
494.79	418.96
494.96	395.55
495.14	376.83
495.32	437.68
495.49	383.85
495.67	400.23
495.85	414.27
496.02	339.38
496.20	463.43
496.38	433.00
496.55	411.93
496.73	416.62
496.91	414.27
497.09	400.23
497.26	435.34
497.44	386.19
497.62	411.93
497.79	386.19
497.97	461.09
498.14	362.78
498.32	390.87
498.50	397.89
498.67	416.62
498.85	437.68
499.03	376.83
499.20	383.85
499.38	470.45
499.56	337.04
499.73	437.68
499.91	498.53
500.08	442.36
500.26	339.38
500.44	388.53
500.61	411.93
500.79	482.15
500.97	458.74
501.14	414.27
501.32	423.64
501.49	428.32
501.67	390.87
501.84	444.70
502.02	395.55
502.20	484.49
502.37	451.72
502.55	433.00
502.72	351.08
502.90	475.13
503.07	393.21
503.25	484.49
503.43	430.66
503.60	449.38
503.78	442.36
503.95	435.34
504.13	461.09
504.30	491.51
504.48	372.15
504.65	475.13
504.83	360.44
505.01	362.78
505.18	400.23
505.36	463.43
505.53	454.06
505.71	381.51
505.88	444.70
506.06	437.68
506.23	440.02
506.41	402.57
506.58	414.27
506.76	400.23
506.93	416.62
507.11	454.06
507.28	395.55
507.46	376.83
507.63	411.93
507.81	472.79
507.98	423.64
508.16	421.30
508.33	437.68
508.50	423.64
508.68	482.15
508.85	376.83
509.03	486.83
509.20	428.32
509.38	472.79
509.55	482.15
509.73	489.17
509.90	463.43
510.08	374.49
510.25	423.64
510.42	470.45
510.60	449.38
510.77	414.27
510.95	421.30
511.12	421.30
511.30	402.57
511.47	407.25
511.64	376.83
511.82	358.10
511.99	393.21
512.17	395.55
512.34	444.70
512.51	421.30
512.69	449.38
512.86	468.11
513.04	400.23
513.21	395.55
513.38	440.02
513.56	393.21
513.73	346.40
513.90	454.06
514.08	416.62
514.25	395.55
514.43	437.68
514.60	374.49
514.77	372.15
514.95	461.09
515.12	475.13
515.29	400.23
515.47	397.89
515.64	449.38
515.81	416.62
515.99	369.80
516.16	416.62
516.33	407.25
516.51	416.62
516.68	451.72
516.85	463.43
517.03	416.62
517.20	451.72
517.37	421.30
517.54	397.89
517.72	430.66
517.89	425.98
518.06	383.85
518.24	526.62
518.41	449.38
518.58	444.70
518.75	440.02
518.93	407.25
519.10	402.57
519.27	334.70
519.45	332.36
519.62	407.25
519.79	456.40
519.96	440.02
520.14	451.72
520.31	425.98
520.48	479.81
520.65	411.93
520.83	407.25
521.00	397.89
521.17	397.89
521.34	468.11
521.52	376.83
521.69	402.57
521.86	482.15
522.03	376.83
522.20	470.45
522.38	374.49
522.55	454.06
522.72	397.89
522.89	440.02
523.07	411.93
523.24	430.66
523.41	402.57
523.58	425.98
523.75	500.87
523.92	421.30
524.10	358.10
524.27	397.89
524.44	418.96
524.61	451.72
524.78	451.72
524.96	367.46
525.13	383.85
525.30	376.83
525.47	435.34
525.64	407.25
525.81	468.11
525.98	411.93
526.16	418.96
526.33	475.13
526.50	337.04
526.67	437.68
526.84	423.64
527.01	425.98
527.18	428.32
527.36	421.30
527.53	395.55
527.70	437.68
527.87	421.30
528.04	454.06
528.21	404.91
528.38	425.98
528.55	437.68
528.72	454.06
528.89	437.68
529.07	442.36
529.24	454.06
529.41	435.34
529.58	348.74
529.75	365.12
529.92	472.79
530.09	390.87
530.26	435.34
530.43	437.68
530.60	372.15
530.77	444.70
530.94	397.89
531.11	383.85
531.28	407.25
531.46	414.27
531.63	428.32
531.80	409.59
531.97	348.74
532.14	449.38
532.31	449.38
532.48	440.02
532.65	456.40
532.82	365.12
532.99	421.30
533.16	339.38
533.33	386.19
533.50	369.80
533.67	339.38
533.84	423.64
534.01	430.66
534.18	479.81
534.35	409.59
534.52	395.55
534.69	437.68
534.86	444.70
535.03	337.04
535.20	355.76
535.37	376.83
535.54	433.00
535.71	386.19
535.88	496.19
536.05	358.10
536.22	433.00
536.38	447.04
536.55	404.91
536.72	421.30
536.89	390.87
537.06	458.74
537.23	383.85
537.40	390.87
537.57	416.62
537.74	383.85
537.91	404.91
538.08	372.15
538.25	418.96
538.42	423.64
538.59	400.23
538.75	425.98
538.92	397.89
539.09	444.70
539.26	386.19
539.43	489.17
539.60	451.72
539.77	411.93
539.94	421.30
540.11	409.59
540.28	451.72
540.44	409.59
540.61	482.15
540.78	383.85
540.95	397.89
541.12	444.70
541.29	402.57
541.46	440.02
541.62	430.66
541.79	374.49
541.96	423.64
542.13	435.34
542.30	397.89
542.47	440.02
542.63	430.66
542.80	425.98
542.97	407.25
543.14	355.76
543.31	430.66
543.48	355.76
543.64	440.02
543.81	383.85
543.98	381.51
544.15	414.27
544.32	505.56
544.48	388.53
544.65	393.21
544.82	423.64
544.99	351.08
545.16	435.34
545.32	358.10
545.49	346.40
545.66	400.23
545.83	374.49
546.00	383.85
546.16	418.96
546.33	351.08
546.50	362.78
546.67	454.06
546.83	463.43
547.00	367.46
547.17	468.11
547.34	395.55
547.50	454.06
547.67	449.38
547.84	315.97
548.00	437.68
548.17	437.68
548.34	440.02
548.51	421.30
548.67	360.44
548.84	369.80
549.01	418.96
549.18	430.66
549.34	409.59
549.51	433.00
549.68	482.15
549.84	388.53
550.01	383.85
550.18	514.92
550.34	447.04
550.51	416.62
550.68	491.51
550.84	414.27
551.01	437.68
551.18	397.89
551.34	390.87
551.51	423.64
551.68	388.53
551.84	463.43
552.01	454.06
552.18	374.49
552.34	442.36
552.51	390.87
552.68	498.53
552.84	447.04
553.01	369.80
553.18	437.68
553.34	404.91
553.51	374.49
553.67	496.19
553.84	465.77
554.01	468.11
554.17	416.62
554.34	397.89
554.51	440.02
554.67	435.34
554.84	395.55
555.00	386.19
555.17	362.78
555.33	496.19
555.50	461.09
555.67	369.80
555.83	393.21
556.00	421.30
556.16	613.22
556.33	409.59
556.50	435.34
556.66	372.15
556.83	430.66
556.99	461.09
557.16	444.70
557.32	421.30
557.49	411.93
557.65	374.49
557.82	418.96
557.98	381.51
558.15	400.23
558.32	447.04
558.48	486.83
558.65	451.72
558.81	512.58
558.98	482.15
559.14	479.81
559.31	376.83
559.47	489.17
559.64	416.62
559.80	386.19
559.97	388.53
560.13	400.23
560.30	369.80
560.46	369.80
560.63	346.40
560.79	414.27
560.96	498.53
561.12	332.36
561.29	442.36
561.45	433.00
561.61	367.46
561.78	507.90
561.94	430.66
562.11	475.13
562.27	465.77
562.44	435.34
562.60	388.53
562.77	421.30
562.93	521.94
563.10	465.77
563.26	411.93
563.42	470.45
563.59	430.66
563.75	468.11
563.92	454.06
564.08	496.19
564.24	390.87
564.41	472.79
564.57	425.98
564.74	433.00
564.90	421.30
565.07	472.79
565.23	463.43
565.39	458.74
565.56	428.32
565.72	400.23
565.88	437.68
566.05	407.25
566.21	397.89
566.38	437.68
566.54	449.38
566.70	418.96
566.87	402.57
567.03	425.98
567.19	444.70
567.36	404.91
567.52	442.36
567.68	447.04
567.85	437.68
568.01	454.06
568.17	447.04
568.34	437.68
568.50	407.25
568.66	409.59
568.83	465.77
568.99	393.21
569.15	393.21
569.32	393.21
569.48	351.08
569.64	444.70
569.81	409.59
569.97	386.19
570.13	346.40
570.30	451.72
570.46	379.17
570.62	393.21
570.78	416.62
570.95	414.27
571.11	404.91
571.27	400.23
571.43	372.15
571.60	322.99
571.76	386.19
571.92	358.10
572.09	379.17
572.25	379.17
572.41	454.06
572.57	449.38
572.74	561.73
572.90	479.81
573.06	395.55
573.22	456.40
573.38	475.13
573.55	428.32
573.71	383.85
573.87	451.72
574.03	402.57
574.20	411.93
574.36	423.64
574.52	451.72
574.68	435.34
574.84	465.77
575.01	440.02
575.17	493.85
575.33	433.00
575.49	491.51
575.65	437.68
575.82	496.19
575.98	468.11
576.14	390.87
576.30	430.66
576.46	447.04
576.62	418.96
576.79	411.93
576.95	418.96
577.11	400.23
577.27	414.27
577.43	400.23
577.59	447.04
577.75	383.85
577.92	395.55
578.08	390.87
578.24	376.83
578.40	468.11
578.56	461.09
578.72	472.79
578.88	390.87
579.04	461.09
579.21	376.83
579.37	458.74
579.53	470.45
579.69	395.55
579.85	421.30
580.01	493.85
580.17	411.93
580.33	421.30
580.49	477.47
580.65	512.58
580.82	447.04
580.98	442.36
581.14	442.36
581.30	372.15
581.46	444.70
581.62	447.04
581.78	449.38
581.94	472.79
582.10	444.70
582.26	390.87
582.42	367.46
582.58	407.25
582.74	442.36
582.90	458.74
583.06	407.25
583.22	428.32
583.38	409.59
583.54	355.76
583.70	407.25
583.86	379.17
584.02	390.87
584.18	433.00
584.34	372.15
584.50	395.55
584.66	411.93
584.82	397.89
584.98	442.36
585.14	416.62
585.30	468.11
585.46	421.30
585.62	451.72
585.78	379.17
585.94	397.89
586.10	360.44
586.26	423.64
586.42	444.70
586.58	428.32
586.74	463.43
586.90	444.70
587.06	395.55
587.22	447.04
587.38	451.72
587.54	411.93
587.70	538.32
587.86	437.68
588.02	376.83
588.18	482.15
588.34	477.47
588.49	376.83
588.65	397.89
588.81	395.55
588.97	397.89
589.13	447.04
589.29	365.12
589.45	386.19
589.61	472.79
589.77	386.19
589.93	461.09
590.08	418.96
590.24	360.44
590.40	418.96
590.56	437.68
590.72	435.34
590.88	372.15
591.04	440.02
591.20	402.57
591.35	475.13
591.51	470.45
591.67	372.15
591.83	451.72
591.99	369.80
592.15	465.77
592.31	397.89
592.46	400.23
592.62	456.40
592.78	374.49
592.94	421.30
593.10	374.49
593.26	475.13
593.41	437.68
593.57	416.62
593.73	428.32
593.89	465.77
594.05	444.70
594.20	465.77
594.36	472.79
594.52	430.66
594.68	362.78
594.84	414.27
594.99	409.59
595.15	440.02
595.31	372.15
595.47	468.11
595.62	425.98
595.78	381.51
595.94	388.53
596.10	454.06
596.25	433.00
596.41	379.17
596.57	397.89
596.73	418.96
596.88	388.53
597.04	407.25
597.20	355.76
597.36	442.36
597.51	524.28
597.67	360.44
597.83	447.04
597.99	393.21
598.14	465.77
598.30	440.02
598.46	430.66
598.61	451.72
598.77	423.64
598.93	348.74
599.09	351.08
599.24	369.80
599.40	482.15
599.56	489.17
599.71	400.23
599.87	440.02
600.03	428.32
600.18	456.40
600.34	395.55
600.50	292.57
600.65	447.04
600.81	442.36
600.97	376.83
601.12	409.59
601.28	425.98
601.44	449.38
601.59	433.00
601.75	407.25
601.91	388.53
602.06	421.30
602.22	376.83
602.37	493.85
602.53	409.59
602.69	423.64
602.84	433.00
603.00	353.42
603.16	379.17
603.31	423.64
603.47	344.06
603.62	456.40
603.78	444.70
603.94	447.04
604.09	454.06
604.25	346.40
604.40	400.23
604.56	421.30
604.71	465.77
604.87	437.68
605.03	400.23
605.18	341.72
605.34	411.93
605.49	465.77
605.65	421.30
605.80	362.78
605.96	505.56
606.12	477.47
606.27	423.64
606.43	388.53
606.58	456.40
606.74	447.04
606.89	390.87
607.05	428.32
607.20	414.27
607.36	395.55
607.51	414.27
607.67	418.96
607.82	465.77
607.98	369.80
608.13	451.72
608.29	402.57
608.44	454.06
608.60	341.72
608.75	435.34
608.91	435.34
609.06	393.21
609.22	435.34
609.37	447.04
609.53	411.93
609.68	390.87
609.84	388.53
609.99	454.06
610.15	369.80
610.30	477.47
610.46	470.45
610.61	353.42
610.76	365.12
610.92	381.51
611.07	400.23
611.23	423.64
611.38	449.38
611.54	397.89
611.69	435.34
611.84	416.62
612.00	416.62
612.15	344.06
612.31	388.53
612.46	491.51
612.62	395.55
612.77	416.62
612.92	404.91
613.08	418.96
613.23	376.83
613.39	407.25
613.54	353.42
613.69	444.70
613.85	381.51
614.00	414.27
614.15	374.49
614.31	390.87
614.46	461.09
614.62	383.85
614.77	447.04
614.92	393.21
615.08	409.59
615.23	386.19
615.38	435.34
615.54	358.10
615.69	402.57
615.84	461.09
616.00	451.72
616.15	411.93
616.30	440.02
616.46	404.91
616.61	435.34
616.76	430.66
616.92	451.72
617.07	447.04
617.22	416.62
617.37	404.91
617.53	409.59
617.68	421.30
617.83	435.34
617.99	447.04
618.14	421.30
618.29	358.10
618.45	411.93
618.60	465.77
618.75	447.04
618.90	444.70
619.06	386.19
619.21	461.09
619.36	437.68
619.51	435.34
619.67	444.70
619.82	414.27
619.97	468.11
620.12	423.64
620.28	425.98
620.43	454.06
620.58	383.85
620.73	376.83
620.89	372.15
621.04	437.68
621.19	496.19
621.34	437.68
621.49	397.89
621.65	470.45
621.80	404.91
621.95	388.53
622.10	458.74
622.25	409.59
622.41	388.53
622.56	444.70
622.71	430.66
622.86	498.53
623.01	409.59
623.16	418.96
623.32	409.59
623.47	449.38
623.62	351.08
623.77	374.49
623.92	423.64
624.07	353.42
624.23	362.78
624.38	440.02
624.53	414.27
624.68	447.04
624.83	479.81
624.98	407.25
625.13	437.68
625.29	390.87
625.44	388.53
625.59	447.04
625.74	440.02
625.89	421.30
626.04	423.64
626.19	433.00
626.34	430.66
626.49	454.06
626.65	425.98
626.80	369.80
626.95	390.87
627.10	386.19
627.25	435.34
627.40	463.43
627.55	404.91
627.70	418.96
627.85	456.40
628.00	447.04
628.15	409.59
628.30	423.64
628.45	440.02
628.60	353.42
628.76	383.85
628.91	451.72
629.06	482.15
629.21	435.34
629.36	402.57
629.51	447.04
629.66	435.34
629.81	397.89
629.96	447.04
630.11	479.81
630.26	447.04
630.41	383.85
630.56	355.76
630.71	423.64
630.86	447.04
631.01	414.27
631.16	409.59
631.31	402.57
631.46	428.32
631.61	442.36
631.76	332.36
631.91	512.58
632.06	458.74
632.21	308.95
632.36	437.68
632.51	365.12
632.66	355.76
632.81	388.53
632.96	322.99
633.10	397.89
633.25	369.80
633.40	435.34
633.55	416.62
633.70	404.91
633.85	423.64
634.00	339.38
634.15	397.89
634.30	381.51
634.45	402.57
634.60	372.15
634.75	341.72
634.90	369.80
635.05	404.91
635.19	454.06
635.34	435.34
635.49	421.30
635.64	395.55
635.79	397.89
635.94	365.12
636.09	425.98
636.24	322.99
636.39	447.04
636.53	444.70
636.68	430.66
636.83	425.98
636.98	463.43
637.13	423.64
637.28	421.30
637.43	514.92
637.57	397.89
637.72	486.83
637.87	425.98
638.02	435.34
638.17	433.00
638.32	430.66
638.46	451.72
638.61	479.81
638.76	425.98
638.91	423.64
639.06	367.46
639.20	355.76
639.35	440.02
639.50	365.12
639.65	468.11
639.80	430.66
639.94	451.72
640.09	428.32
640.24	444.70
640.39	376.83
640.54	376.83
640.68	430.66
640.83	437.68
640.98	362.78
641.13	355.76
641.27	369.80
641.42	421.30
641.57	374.49
641.72	444.70
641.86	402.57
642.01	362.78
642.16	365.12
642.31	355.76
642.45	383.85
642.60	376.83
642.75	360.44
642.90	400.23
643.04	404.91
643.19	409.59
643.34	416.62
643.48	465.77
643.63	449.38
643.78	418.96
643.93	407.25
644.07	367.46
644.22	407.25
644.37	407.25
644.51	454.06
644.66	433.00
644.81	386.19
644.95	383.85
645.10	421.30
645.25	463.43
645.39	468.11
645.54	390.87
645.69	395.55
645.83	393.21
645.98	437.68
646.13	416.62
646.27	423.64
646.42	395.55
646.57	414.27
646.71	444.70
646.86	416.62
647.00	397.89
647.15	421.30
647.30	379.17
647.44	430.66
647.59	362.78
647.74	430.66
647.88	383.85
648.03	404.91
648.17	433.00
648.32	381.51
648.47	425.98
648.61	444.70
648.76	360.44
648.90	379.17
649.05	409.59
649.20	390.87
649.34	393.21
649.49	437.68
649.63	404.91
649.78	468.11
649.92	430.66
650.07	477.47
650.21	390.87
650.36	404.91
650.51	407.25
650.65	437.68
650.80	475.13
650.94	386.19
651.09	486.83
651.23	407.25
651.38	421.30
651.52	425.98
651.67	461.09
651.81	409.59
651.96	454.06
652.10	376.83
652.25	416.62
652.39	433.00
652.54	421.30
652.68	489.17
652.83	369.80
652.97	428.32
653.12	402.57
653.26	421.30
653.41	414.27
653.55	440.02
653.70	388.53
653.84	383.85
653.99	425.98
654.13	397.89
654.27	421.30
654.42	395.55
654.56	470.45
654.71	456.40
654.85	433.00
655.00	421.30
655.14	468.11
655.29	437.68
655.43	463.43
655.57	367.46
655.72	451.72
655.86	404.91
656.01	465.77
656.15	374.49
656.30	409.59
656.44	383.85
656.58	383.85
656.73	383.85
656.87	425.98
657.01	430.66
657.16	435.34
657.30	397.89
657.45	430.66
657.59	423.64
657.73	423.64
657.88	416.62
658.02	393.21
658.16	418.96
658.31	393.21
658.45	400.23
658.60	390.87
658.74	381.51
658.88	416.62
659.03	402.57
659.17	463.43
659.31	404.91
659.46	414.27
659.60	397.89
659.74	444.70
659.89	421.30
660.03	442.36
660.17	498.53
660.32	397.89
660.46	397.89
660.60	454.06
660.74	423.64
660.89	468.11
661.03	414.27
661.17	416.62
661.32	463.43
661.46	463.43
661.60	341.72
661.74	496.19
661.89	449.38
662.03	423.64
662.17	402.57
662.31	411.93
662.46	486.83
662.60	376.83
662.74	435.34
662.88	416.62
663.03	454.06
663.17	437.68
663.31	402.57
663.45	372.15
663.60	402.57
663.74	358.10
663.88	379.17
664.02	428.32
664.17	437.68
664.31	402.57
664.45	475.13
664.59	400.23
664.73	433.00
664.88	475.13
665.02	355.76
665.16	404.91
665.30	465.77
665.44	400.23
665.59	437.68
665.73	414.27
665.87	379.17
666.01	465.77
666.15	519.60
666.29	418.96
666.44	437.68
666.58	472.79
666.72	416.62
666.86	365.12
667.00	440.02
667.14	503.22
667.28	500.87
667.43	369.80
667.57	458.74
667.71	355.76
667.85	365.12
667.99	390.87
668.13	409.59
668.27	496.19
668.41	451.72
668.56	393.21
668.70	341.72
668.84	332.36
668.98	395.55
669.12	400.23
669.26	444.70
669.40	416.62
669.54	435.34
669.68	414.27
669.82	390.87
669.96	435.34
670.10	381.51
670.25	390.87
670.39	397.89
670.53	351.08
670.67	430.66
670.81	407.25
670.95	407.25
671.09	414.27
671.23	463.43
671.37	409.59
671.51	430.66
671.65	440.02
671.79	411.93
671.93	425.98
672.07	463.43
672.21	421.30
672.35	386.19
672.49	437.68
672.63	428.32
672.77	456.40
672.91	435.34
673.05	430.66
673.19	433.00
673.33	400.23
673.47	463.43
673.61	475.13
673.75	353.42
673.89	428.32
674.03	437.68
674.17	362.78
674.31	376.83
674.45	407.25
674.59	393.21
674.73	428.32
674.87	461.09
675.01	421.30
675.15	442.36
675.29	465.77
675.43	355.76
675.56	440.02
675.70	477.47
675.84	397.89
675.98	383.85
676.12	374.49
676.26	430.66
676.40	383.85
676.54	440.02
676.68	468.11
676.82	447.04
676.96	379.17
677.10	383.85
677.23	386.19
677.37	388.53
677.51	449.38
677.65	423.64
677.79	425.98
677.93	390.87
678.07	447.04
678.21	440.02
678.34	397.89
678.48	390.87
678.62	386.19
678.76	379.17
678.90	397.89
679.04	369.80
679.18	395.55
679.31	346.40
679.45	365.12
679.59	425.98
679.73	367.46
679.87	409.59
680.00	442.36
680.14	332.36
680.28	470.45
680.42	433.00
680.56	393.21
680.70	381.51
680.83	461.09
680.97	395.55
681.11	475.13
681.25	395.55
681.39	461.09
681.52	442.36
681.66	449.38
681.80	482.15
681.94	500.87
682.07	421.30
682.21	447.04
682.35	374.49
682.49	416.62
682.62	444.70
682.76	407.25
682.90	440.02
683.04	414.27
683.17	411.93
683.31	442.36
683.45	454.06
683.59	484.49
683.72	433.00
683.86	411.93
684.00	369.80
684.13	421.30
684.27	484.49
684.41	425.98
684.55	454.06
684.68	435.34
684.82	397.89
684.96	442.36
685.09	442.36
685.23	393.21
685.37	400.23
685.50	393.21
685.64	379.17
685.78	428.32
685.91	407.25
686.05	360.44
686.19	489.17
686.32	449.38
686.46	393.21
686.60	369.80
686.73	447.04
686.87	477.47
687.01	400.23
687.14	397.89
687.28	414.27
687.42	414.27
687.55	435.34
687.69	409.59
687.82	348.74
687.96	397.89
688.10	418.96
688.23	444.70
688.37	451.72
688.50	447.04
688.64	465.77
688.78	393.21
688.91	388.53
689.05	491.51
689.18	416.62
689.32	414.27
689.46	437.68
689.59	393.21
689.73	475.13
689.86	454.06
690.00	390.87
690.13	414.27
690.27	433.00
690.41	435.34
690.54	505.56
690.68	367.46
690.81	465.77
690.95	447.04
691.08	418.96
691.22	491.51
691.35	390.87
691.49	404.91
691.62	421.30
691.76	393.21
691.89	425.98
692.03	397.89
692.16	468.11
692.30	411.93
692.43	414.27
692.57	477.47
692.70	393.21
692.84	407.25
692.97	421.30
693.11	444.70
693.24	386.19
693.38	414.27
693.51	386.19
693.65	435.34
693.78	402.57
693.92	397.89
694.05	372.15
694.19	423.64
694.32	449.38
694.45	409.59
694.59	346.40
694.72	411.93
694.86	409.59
694.99	433.00
695.13	381.51
695.26	367.46
695.39	404.91
695.53	458.74
695.66	376.83
695.80	442.36
695.93	355.76
696.07	355.76
696.20	369.80
696.33	435.34
696.47	435.34
696.60	447.04
696.73	418.96
696.87	454.06
697.00	496.19
697.14	437.68
697.27	421.30
697.40	507.90
697.54	435.34
697.67	425.98
697.80	454.06
697.94	341.72
698.07	411.93
698.21	433.00
698.34	425.98
698.47	454.06
698.61	461.09
698.74	372.15
698.87	517.26
699.01	376.83
699.14	376.83
699.27	463.43
699.40	430.66
699.54	477.47
699.67	400.23
699.80	418.96
699.94	379.17
700.07	418.96
700.20	376.83
700.34	397.89
700.47	477.47
700.60	395.55
700.73	409.59
700.87	418.96
701.00	327.68
701.13	383.85
701.26	367.46
701.40	400.23
701.53	423.64
701.66	358.10
701.79	461.09
701.93	468.11
702.06	454.06
702.19	400.23
702.32	447.04
702.46	418.96
702.59	402.57
702.72	404.91
702.85	348.74
702.99	407.25
703.12	451.72
703.25	421.30
703.38	379.17
703.51	360.44
703.65	421.30
703.78	395.55
703.91	381.51
704.04	425.98
704.17	348.74
704.31	360.44
704.44	395.55
704.57	421.30
704.70	484.49
704.83	386.19
704.96	477.47
705.10	411.93
705.23	414.27
>>>>>End Processed Spectral Data<<<<<
