SpectraSuite Data File
++++++++++++++++++++++++++++++++++++
Date: Fri Oct 25 12:11:34 EDT 2013
User: price-jones
Dark Spectrum Present: No
Reference Spectrum Present: No
Number of Sampled Component Spectra: 1
Spectrometers: USB2+H05261
Integration Time (usec): 100000 (USB2+H05261)
Spectra Averaged: 1 (USB2+H05261)
Boxcar Smoothing: 0 (USB2+H05261)
Correct for Electrical Dark: No (USB2+H05261)
Strobe/Lamp Enabled: No (USB2+H05261)
Correct for Detector Non-linearity: No (USB2+H05261)
Correct for Stray Light: No (USB2+H05261)
Number of Pixels in Processed Spectrum: 2048
>>>>>Begin Processed Spectral Data<<<<<
365.73	381.51
365.92	381.51
366.12	381.51
366.32	285.55
366.52	187.24
366.72	280.86
366.91	264.48
367.11	212.99
367.31	180.22
367.51	234.05
367.70	229.37
367.90	308.95
368.10	255.12
368.30	229.37
368.49	220.01
368.69	241.08
368.89	245.76
369.09	222.35
369.28	292.57
369.48	278.52
369.68	252.78
369.87	194.26
370.07	283.20
370.27	353.42
370.47	337.04
370.66	358.10
370.86	332.36
371.06	325.33
371.25	430.66
371.45	341.72
371.65	423.64
371.84	414.27
372.04	435.34
372.24	320.65
372.44	421.30
372.63	421.30
372.83	407.25
373.03	477.47
373.22	440.02
373.42	409.59
373.62	404.91
373.81	468.11
374.01	416.62
374.21	423.64
374.40	374.49
374.60	465.77
374.79	404.91
374.99	430.66
375.19	421.30
375.38	444.70
375.58	381.51
375.78	416.62
375.97	449.38
376.17	433.00
376.37	376.83
376.56	472.79
376.76	425.98
376.95	388.53
377.15	479.81
377.35	393.21
377.54	472.79
377.74	395.55
377.93	374.49
378.13	400.23
378.33	475.13
378.52	388.53
378.72	407.25
378.91	409.59
379.11	393.21
379.31	395.55
379.50	388.53
379.70	433.00
379.89	386.19
380.09	372.15
380.28	376.83
380.48	433.00
380.68	379.17
380.87	353.42
381.07	463.43
381.26	360.44
381.46	468.11
381.65	367.46
381.85	400.23
382.04	400.23
382.24	355.76
382.43	360.44
382.63	388.53
382.83	433.00
383.02	367.46
383.22	418.96
383.41	393.21
383.61	458.74
383.80	430.66
384.00	386.19
384.19	369.80
384.39	461.09
384.58	416.62
384.78	465.77
384.97	416.62
385.17	447.04
385.36	332.36
385.56	416.62
385.75	418.96
385.95	390.87
386.14	400.23
386.34	430.66
386.53	395.55
386.72	437.68
386.92	479.81
387.11	411.93
387.31	386.19
387.50	339.38
387.70	355.76
387.89	404.91
388.09	500.87
388.28	437.68
388.48	416.62
388.67	393.21
388.86	409.59
389.06	374.49
389.25	437.68
389.45	362.78
389.64	369.80
389.84	423.64
390.03	428.32
390.22	360.44
390.42	458.74
390.61	395.55
390.81	409.59
391.00	442.36
391.19	454.06
391.39	383.85
391.58	407.25
391.78	397.89
391.97	365.12
392.16	390.87
392.36	468.11
392.55	414.27
392.75	390.87
392.94	423.64
393.13	479.81
393.33	379.17
393.52	444.70
393.71	435.34
393.91	414.27
394.10	418.96
394.29	411.93
394.49	433.00
394.68	440.02
394.88	454.06
395.07	386.19
395.26	463.43
395.46	421.30
395.65	458.74
395.84	411.93
396.04	428.32
396.23	423.64
396.42	458.74
396.62	383.85
396.81	442.36
397.00	397.89
397.19	414.27
397.39	428.32
397.58	409.59
397.77	421.30
397.97	451.72
398.16	334.70
398.35	393.21
398.55	416.62
398.74	376.83
398.93	447.04
399.12	393.21
399.32	337.04
399.51	477.47
399.70	440.02
399.90	362.78
400.09	397.89
400.28	416.62
400.47	395.55
400.67	472.79
400.86	449.38
401.05	409.59
401.24	397.89
401.44	367.46
401.63	411.93
401.82	346.40
402.01	383.85
402.21	451.72
402.40	379.17
402.59	346.40
402.78	383.85
402.97	404.91
403.17	461.09
403.36	416.62
403.55	444.70
403.74	414.27
403.93	362.78
404.13	475.13
404.32	400.23
404.51	397.89
404.70	456.40
404.89	322.99
405.09	402.57
405.28	381.51
405.47	421.30
405.66	400.23
405.85	435.34
406.05	430.66
406.24	416.62
406.43	451.72
406.62	365.12
406.81	461.09
407.00	379.17
407.20	451.72
407.39	421.30
407.58	376.83
407.77	479.81
407.96	484.49
408.15	461.09
408.34	404.91
408.54	465.77
408.73	393.21
408.92	451.72
409.11	458.74
409.30	470.45
409.49	411.93
409.68	437.68
409.87	409.59
410.07	479.81
410.26	383.85
410.45	430.66
410.64	393.21
410.83	421.30
411.02	374.49
411.21	496.19
411.40	407.25
411.59	425.98
411.78	407.25
411.98	332.36
412.17	388.53
412.36	421.30
412.55	374.49
412.74	425.98
412.93	447.04
413.12	428.32
413.31	395.55
413.50	360.44
413.69	428.32
413.88	433.00
414.07	425.98
414.26	393.21
414.45	381.51
414.64	360.44
414.83	449.38
415.02	409.59
415.22	414.27
415.41	404.91
415.60	374.49
415.79	416.62
415.98	407.25
416.17	461.09
416.36	402.57
416.55	383.85
416.74	430.66
416.93	379.17
417.12	449.38
417.31	433.00
417.50	367.46
417.69	470.45
417.88	369.80
418.07	402.57
418.26	365.12
418.45	461.09
418.64	374.49
418.83	428.32
419.02	376.83
419.21	430.66
419.39	348.74
419.58	355.76
419.77	390.87
419.96	367.46
420.15	421.30
420.34	388.53
420.53	409.59
420.72	404.91
420.91	365.12
421.10	355.76
421.29	407.25
421.48	400.23
421.67	362.78
421.86	386.19
422.05	358.10
422.24	409.59
422.43	435.34
422.61	390.87
422.80	388.53
422.99	440.02
423.18	404.91
423.37	491.51
423.56	430.66
423.75	411.93
423.94	411.93
424.13	400.23
424.32	463.43
424.50	440.02
424.69	404.91
424.88	435.34
425.07	425.98
425.26	435.34
425.45	409.59
425.64	376.83
425.83	322.99
426.01	414.27
426.20	416.62
426.39	418.96
426.58	442.36
426.77	465.77
426.96	451.72
427.15	414.27
427.33	360.44
427.52	390.87
427.71	411.93
427.90	411.93
428.09	418.96
428.28	386.19
428.46	423.64
428.65	437.68
428.84	376.83
429.03	489.17
429.22	355.76
429.40	379.17
429.59	440.02
429.78	425.98
429.97	355.76
430.16	341.72
430.34	440.02
430.53	423.64
430.72	388.53
430.91	407.25
431.10	386.19
431.28	454.06
431.47	409.59
431.66	444.70
431.85	447.04
432.03	379.17
432.22	498.53
432.41	407.25
432.60	386.19
432.79	397.89
432.97	437.68
433.16	346.40
433.35	376.83
433.54	430.66
433.72	430.66
433.91	477.47
434.10	416.62
434.28	393.21
434.47	430.66
434.66	440.02
434.85	451.72
435.03	433.00
435.22	414.27
435.41	402.57
435.59	388.53
435.78	498.53
435.97	444.70
436.16	496.19
436.34	437.68
436.53	465.77
436.72	456.40
436.90	498.53
437.09	451.72
437.28	376.83
437.46	421.30
437.65	407.25
437.84	407.25
438.02	458.74
438.21	477.47
438.40	440.02
438.58	475.13
438.77	374.49
438.96	463.43
439.14	334.70
439.33	339.38
439.52	386.19
439.70	393.21
439.89	411.93
440.08	397.89
440.26	346.40
440.45	407.25
440.63	421.30
440.82	444.70
441.01	418.96
441.19	454.06
441.38	397.89
441.57	400.23
441.75	376.83
441.94	395.55
442.12	430.66
442.31	395.55
442.50	425.98
442.68	367.46
442.87	468.11
443.05	442.36
443.24	407.25
443.43	332.36
443.61	472.79
443.80	418.96
443.98	442.36
444.17	416.62
444.35	472.79
444.54	416.62
444.73	416.62
444.91	400.23
445.10	376.83
445.28	437.68
445.47	390.87
445.65	402.57
445.84	472.79
446.02	414.27
446.21	454.06
446.39	402.57
446.58	332.36
446.77	437.68
446.95	397.89
447.14	404.91
447.32	386.19
447.51	421.30
447.69	409.59
447.88	404.91
448.06	489.17
448.25	461.09
448.43	411.93
448.62	475.13
448.80	407.25
448.99	374.49
449.17	393.21
449.36	351.08
449.54	414.27
449.73	367.46
449.91	428.32
450.10	353.42
450.28	409.59
450.46	442.36
450.65	437.68
450.83	435.34
451.02	454.06
451.20	388.53
451.39	442.36
451.57	404.91
451.76	404.91
451.94	421.30
452.13	423.64
452.31	442.36
452.49	416.62
452.68	416.62
452.86	362.78
453.05	463.43
453.23	376.83
453.42	313.63
453.60	425.98
453.78	440.02
453.97	414.27
454.15	465.77
454.34	411.93
454.52	428.32
454.70	442.36
454.89	351.08
455.07	332.36
455.26	379.17
455.44	397.89
455.62	409.59
455.81	379.17
455.99	463.43
456.17	376.83
456.36	402.57
456.54	409.59
456.73	479.81
456.91	383.85
457.09	433.00
457.28	404.91
457.46	355.76
457.64	430.66
457.83	362.78
458.01	393.21
458.19	353.42
458.38	400.23
458.56	390.87
458.74	447.04
458.93	440.02
459.11	421.30
459.29	449.38
459.48	397.89
459.66	449.38
459.84	411.93
460.03	411.93
460.21	461.09
460.39	365.12
460.57	355.76
460.76	409.59
460.94	447.04
461.12	435.34
461.31	507.90
461.49	414.27
461.67	334.70
461.85	379.17
462.04	365.12
462.22	732.59
462.40	437.68
462.59	477.47
462.77	351.08
462.95	463.43
463.13	388.53
463.32	416.62
463.50	437.68
463.68	423.64
463.86	379.17
464.05	397.89
464.23	428.32
464.41	470.45
464.59	430.66
464.78	369.80
464.96	379.17
465.14	346.40
465.32	358.10
465.50	444.70
465.69	500.87
465.87	383.85
466.05	362.78
466.23	414.27
466.41	433.00
466.60	374.49
466.78	505.56
466.96	461.09
467.14	503.22
467.32	437.68
467.51	376.83
467.69	433.00
467.87	486.83
468.05	367.46
468.23	528.96
468.41	395.55
468.60	489.17
468.78	341.72
468.96	475.13
469.14	376.83
469.32	334.70
469.50	411.93
469.69	430.66
469.87	425.98
470.05	372.15
470.23	418.96
470.41	421.30
470.59	374.49
470.77	430.66
470.95	360.44
471.14	339.38
471.32	362.78
471.50	442.36
471.68	430.66
471.86	430.66
472.04	449.38
472.22	442.36
472.40	369.80
472.58	351.08
472.77	407.25
472.95	365.12
473.13	442.36
473.31	479.81
473.49	400.23
473.67	367.46
473.85	397.89
474.03	404.91
474.21	468.11
474.39	395.55
474.57	475.13
474.75	402.57
474.93	468.11
475.12	386.19
475.30	388.53
475.48	376.83
475.66	362.78
475.84	430.66
476.02	383.85
476.20	456.40
476.38	400.23
476.56	507.90
476.74	472.79
476.92	411.93
477.10	358.10
477.28	433.00
477.46	416.62
477.64	346.40
477.82	383.85
478.00	430.66
478.18	393.21
478.36	369.80
478.54	489.17
478.72	355.76
478.90	397.89
479.08	456.40
479.26	418.96
479.44	362.78
479.62	379.17
479.80	355.76
479.98	393.21
480.16	346.40
480.34	383.85
480.52	381.51
480.70	402.57
480.88	416.62
481.06	414.27
481.24	397.89
481.41	386.19
481.59	423.64
481.77	510.24
481.95	437.68
482.13	381.51
482.31	451.72
482.49	386.19
482.67	400.23
482.85	367.46
483.03	414.27
483.21	425.98
483.39	461.09
483.57	397.89
483.74	465.77
483.92	411.93
484.10	395.55
484.28	400.23
484.46	428.32
484.64	397.89
484.82	433.00
485.00	447.04
485.18	433.00
485.35	395.55
485.53	416.62
485.71	433.00
485.89	456.40
486.07	369.80
486.25	463.43
486.43	332.36
486.61	379.17
486.78	397.89
486.96	416.62
487.14	400.23
487.32	367.46
487.50	397.89
487.68	416.62
487.85	430.66
488.03	402.57
488.21	430.66
488.39	465.77
488.57	402.57
488.75	358.10
488.92	500.87
489.10	447.04
489.28	376.83
489.46	369.80
489.64	423.64
489.81	402.57
489.99	379.17
490.17	383.85
490.35	411.93
490.53	423.64
490.70	393.21
490.88	421.30
491.06	425.98
491.24	402.57
491.41	409.59
491.59	421.30
491.77	390.87
491.95	367.46
492.13	355.76
492.30	395.55
492.48	433.00
492.66	458.74
492.84	402.57
493.01	440.02
493.19	381.51
493.37	475.13
493.54	456.40
493.72	442.36
493.90	400.23
494.08	451.72
494.25	505.56
494.43	440.02
494.61	379.17
494.79	407.25
494.96	421.30
495.14	418.96
495.32	407.25
495.49	365.12
495.67	433.00
495.85	414.27
496.02	386.19
496.20	393.21
496.38	482.15
496.55	423.64
496.73	355.76
496.91	318.31
497.09	407.25
497.26	400.23
497.44	374.49
497.62	421.30
497.79	418.96
497.97	393.21
498.14	433.00
498.32	362.78
498.50	414.27
498.67	404.91
498.85	428.32
499.03	463.43
499.20	423.64
499.38	409.59
499.56	407.25
499.73	449.38
499.91	489.17
500.08	465.77
500.26	425.98
500.44	397.89
500.61	369.80
500.79	383.85
500.97	383.85
501.14	388.53
501.32	440.02
501.49	395.55
501.67	351.08
501.84	402.57
502.02	397.89
502.20	435.34
502.37	428.32
502.55	409.59
502.72	451.72
502.90	435.34
503.07	416.62
503.25	500.87
503.43	430.66
503.60	425.98
503.78	414.27
503.95	404.91
504.13	440.02
504.30	451.72
504.48	369.80
504.65	367.46
504.83	376.83
505.01	440.02
505.18	421.30
505.36	353.42
505.53	346.40
505.71	355.76
505.88	402.57
506.06	393.21
506.23	388.53
506.41	470.45
506.58	379.17
506.76	451.72
506.93	397.89
507.11	435.34
507.28	428.32
507.46	479.81
507.63	503.22
507.81	367.46
507.98	362.78
508.16	376.83
508.33	416.62
508.50	461.09
508.68	440.02
508.85	430.66
509.03	486.83
509.20	404.91
509.38	400.23
509.55	404.91
509.73	498.53
509.90	428.32
510.08	393.21
510.25	486.83
510.42	414.27
510.60	374.49
510.77	383.85
510.95	414.27
511.12	360.44
511.30	442.36
511.47	440.02
511.64	472.79
511.82	416.62
511.99	435.34
512.17	367.46
512.34	395.55
512.51	400.23
512.69	507.90
512.86	465.77
513.04	472.79
513.21	416.62
513.38	430.66
513.56	475.13
513.73	400.23
513.90	430.66
514.08	390.87
514.25	496.19
514.43	388.53
514.60	425.98
514.77	430.66
514.95	379.17
515.12	435.34
515.29	416.62
515.47	411.93
515.64	479.81
515.81	332.36
515.99	411.93
516.16	477.47
516.33	414.27
516.51	376.83
516.68	425.98
516.85	386.19
517.03	458.74
517.20	477.47
517.37	376.83
517.54	358.10
517.72	444.70
517.89	390.87
518.06	386.19
518.24	374.49
518.41	411.93
518.58	507.90
518.75	482.15
518.93	411.93
519.10	444.70
519.27	402.57
519.45	353.42
519.62	416.62
519.79	402.57
519.96	386.19
520.14	505.56
520.31	440.02
520.48	470.45
520.65	447.04
520.83	433.00
521.00	337.04
521.17	465.77
521.34	416.62
521.52	416.62
521.69	348.74
521.86	418.96
522.03	440.02
522.20	444.70
522.38	341.72
522.55	507.90
522.72	416.62
522.89	456.40
523.07	423.64
523.24	365.12
523.41	383.85
523.58	386.19
523.75	458.74
523.92	430.66
524.10	388.53
524.27	421.30
524.44	458.74
524.61	477.47
524.78	397.89
524.96	447.04
525.13	430.66
525.30	330.02
525.47	374.49
525.64	365.12
525.81	472.79
525.98	451.72
526.16	379.17
526.33	344.06
526.50	400.23
526.67	395.55
526.84	362.78
527.01	409.59
527.18	430.66
527.36	451.72
527.53	440.02
527.70	458.74
527.87	416.62
528.04	411.93
528.21	472.79
528.38	388.53
528.55	500.87
528.72	395.55
528.89	514.92
529.07	299.59
529.24	447.04
529.41	454.06
529.58	376.83
529.75	367.46
529.92	468.11
530.09	416.62
530.26	362.78
530.43	390.87
530.60	383.85
530.77	435.34
530.94	428.32
531.11	437.68
531.28	383.85
531.46	362.78
531.63	416.62
531.80	454.06
531.97	416.62
532.14	400.23
532.31	440.02
532.48	311.29
532.65	400.23
532.82	376.83
532.99	381.51
533.16	433.00
533.33	442.36
533.50	428.32
533.67	388.53
533.84	411.93
534.01	418.96
534.18	435.34
534.35	491.51
534.52	416.62
534.69	379.17
534.86	407.25
535.03	393.21
535.20	411.93
535.37	451.72
535.54	330.02
535.71	388.53
535.88	411.93
536.05	411.93
536.22	503.22
536.38	465.77
536.55	433.00
536.72	425.98
536.89	404.91
537.06	367.46
537.23	418.96
537.40	416.62
537.57	407.25
537.74	437.68
537.91	388.53
538.08	461.09
538.25	451.72
538.42	440.02
538.59	430.66
538.75	400.23
538.92	533.64
539.09	461.09
539.26	458.74
539.43	491.51
539.60	379.17
539.77	327.68
539.94	486.83
540.11	383.85
540.28	435.34
540.44	383.85
540.61	393.21
540.78	374.49
540.95	425.98
541.12	433.00
541.29	390.87
541.46	447.04
541.62	407.25
541.79	500.87
541.96	442.36
542.13	484.49
542.30	397.89
542.47	402.57
542.63	369.80
542.80	477.47
542.97	468.11
543.14	369.80
543.31	411.93
543.48	461.09
543.64	374.49
543.81	404.91
543.98	468.11
544.15	374.49
544.32	468.11
544.48	339.38
544.65	395.55
544.82	351.08
544.99	465.77
545.16	430.66
545.32	390.87
545.49	430.66
545.66	388.53
545.83	409.59
546.00	409.59
546.16	372.15
546.33	383.85
546.50	461.09
546.67	451.72
546.83	489.17
547.00	442.36
547.17	404.91
547.34	404.91
547.50	414.27
547.67	367.46
547.84	369.80
548.00	376.83
548.17	400.23
548.34	416.62
548.51	491.51
548.67	425.98
548.84	425.98
549.01	449.38
549.18	332.36
549.34	409.59
549.51	397.89
549.68	486.83
549.84	493.85
550.01	390.87
550.18	449.38
550.34	540.66
550.51	423.64
550.68	458.74
550.84	402.57
551.01	447.04
551.18	442.36
551.34	456.40
551.51	402.57
551.68	416.62
551.84	400.23
552.01	395.55
552.18	437.68
552.34	456.40
552.51	409.59
552.68	400.23
552.84	390.87
553.01	477.47
553.18	449.38
553.34	395.55
553.51	437.68
553.67	463.43
553.84	461.09
554.01	442.36
554.17	423.64
554.34	353.42
554.51	463.43
554.67	433.00
554.84	463.43
555.00	442.36
555.17	390.87
555.33	477.47
555.50	351.08
555.67	386.19
555.83	367.46
556.00	337.04
556.16	519.60
556.33	416.62
556.50	409.59
556.66	341.72
556.83	470.45
556.99	346.40
557.16	404.91
557.32	379.17
557.49	402.57
557.65	407.25
557.82	393.21
557.98	463.43
558.15	397.89
558.32	423.64
558.48	437.68
558.65	440.02
558.81	404.91
558.98	383.85
559.14	379.17
559.31	479.81
559.47	353.42
559.64	395.55
559.80	468.11
559.97	461.09
560.13	486.83
560.30	407.25
560.46	458.74
560.63	416.62
560.79	395.55
560.96	437.68
561.12	468.11
561.29	463.43
561.45	428.32
561.61	409.59
561.78	451.72
561.94	475.13
562.11	444.70
562.27	435.34
562.44	381.51
562.60	414.27
562.77	435.34
562.93	514.92
563.10	411.93
563.26	447.04
563.42	456.40
563.59	423.64
563.75	416.62
563.92	486.83
564.08	421.30
564.24	456.40
564.41	486.83
564.57	334.70
564.74	447.04
564.90	395.55
565.07	355.76
565.23	444.70
565.39	428.32
565.56	521.94
565.72	425.98
565.88	337.04
566.05	381.51
566.21	414.27
566.38	435.34
566.54	454.06
566.70	404.91
566.87	315.97
567.03	454.06
567.19	425.98
567.36	472.79
567.52	395.55
567.68	428.32
567.85	507.90
568.01	461.09
568.17	435.34
568.34	407.25
568.50	404.91
568.66	430.66
568.83	552.37
568.99	379.17
569.15	543.00
569.32	500.87
569.48	381.51
569.64	339.38
569.81	430.66
569.97	397.89
570.13	451.72
570.30	397.89
570.46	421.30
570.62	447.04
570.78	458.74
570.95	421.30
571.11	423.64
571.27	465.77
571.43	440.02
571.60	442.36
571.76	395.55
571.92	404.91
572.09	440.02
572.25	400.23
572.41	416.62
572.57	449.38
572.74	430.66
572.90	554.71
573.06	374.49
573.22	425.98
573.38	472.79
573.55	451.72
573.71	496.19
573.87	430.66
574.03	416.62
574.20	386.19
574.36	397.89
574.52	440.02
574.68	447.04
574.84	381.51
575.01	465.77
575.17	463.43
575.33	383.85
575.49	425.98
575.65	489.17
575.82	437.68
575.98	404.91
576.14	482.15
576.30	416.62
576.46	425.98
576.62	390.87
576.79	409.59
576.95	454.06
577.11	294.91
577.27	365.12
577.43	374.49
577.59	451.72
577.75	472.79
577.92	407.25
578.08	409.59
578.24	407.25
578.40	503.22
578.56	428.32
578.72	461.09
578.88	395.55
579.04	440.02
579.21	421.30
579.37	400.23
579.53	496.19
579.69	423.64
579.85	358.10
580.01	461.09
580.17	451.72
580.33	423.64
580.49	409.59
580.65	294.91
580.82	365.12
580.98	425.98
581.14	383.85
581.30	482.15
581.46	388.53
581.62	440.02
581.78	407.25
581.94	404.91
582.10	337.04
582.26	365.12
582.42	362.78
582.58	423.64
582.74	369.80
582.90	372.15
583.06	430.66
583.22	341.72
583.38	376.83
583.54	381.51
583.70	435.34
583.86	418.96
584.02	376.83
584.18	440.02
584.34	418.96
584.50	463.43
584.66	379.17
584.82	374.49
584.98	393.21
585.14	437.68
585.30	463.43
585.46	440.02
585.62	416.62
585.78	402.57
585.94	409.59
586.10	418.96
586.26	510.24
586.42	440.02
586.58	451.72
586.74	437.68
586.90	442.36
587.06	365.12
587.22	458.74
587.38	454.06
587.54	344.06
587.70	421.30
587.86	461.09
588.02	395.55
588.18	449.38
588.34	386.19
588.49	390.87
588.65	425.98
588.81	437.68
588.97	486.83
589.13	395.55
589.29	468.11
589.45	425.98
589.61	386.19
589.77	430.66
589.93	393.21
590.08	351.08
590.24	463.43
590.40	390.87
590.56	376.83
590.72	475.13
590.88	489.17
591.04	409.59
591.20	372.15
591.35	421.30
591.51	414.27
591.67	449.38
591.83	437.68
591.99	418.96
592.15	482.15
592.31	360.44
592.46	454.06
592.62	423.64
592.78	416.62
592.94	407.25
593.10	407.25
593.26	409.59
593.41	379.17
593.57	416.62
593.73	400.23
593.89	379.17
594.05	435.34
594.20	355.76
594.36	498.53
594.52	409.59
594.68	458.74
594.84	428.32
594.99	454.06
595.15	367.46
595.31	503.22
595.47	444.70
595.62	491.51
595.78	416.62
595.94	484.49
596.10	409.59
596.25	367.46
596.41	418.96
596.57	433.00
596.73	423.64
596.88	451.72
597.04	411.93
597.20	367.46
597.36	489.17
597.51	409.59
597.67	344.06
597.83	418.96
597.99	390.87
598.14	447.04
598.30	458.74
598.46	418.96
598.61	404.91
598.77	409.59
598.93	425.98
599.09	425.98
599.24	433.00
599.40	442.36
599.56	400.23
599.71	407.25
599.87	430.66
600.03	390.87
600.18	397.89
600.34	334.70
600.50	472.79
600.65	416.62
600.81	418.96
600.97	477.47
601.12	376.83
601.28	416.62
601.44	409.59
601.59	353.42
601.75	435.34
601.91	358.10
602.06	390.87
602.22	465.77
602.37	383.85
602.53	435.34
602.69	402.57
602.84	365.12
603.00	381.51
603.16	435.34
603.31	425.98
603.47	433.00
603.62	341.72
603.78	456.40
603.94	379.17
604.09	397.89
604.25	367.46
604.40	395.55
604.56	379.17
604.71	454.06
604.87	456.40
605.03	416.62
605.18	409.59
605.34	418.96
605.49	416.62
605.65	409.59
605.80	505.56
605.96	465.77
606.12	386.19
606.27	402.57
606.43	458.74
606.58	451.72
606.74	402.57
606.89	400.23
607.05	498.53
607.20	383.85
607.36	416.62
607.51	388.53
607.67	418.96
607.82	395.55
607.98	407.25
608.13	393.21
608.29	365.12
608.44	388.53
608.60	407.25
608.75	463.43
608.91	433.00
609.06	360.44
609.22	444.70
609.37	440.02
609.53	369.80
609.68	393.21
609.84	416.62
609.99	395.55
610.15	437.68
610.30	477.47
610.46	374.49
610.61	390.87
610.76	379.17
610.92	442.36
611.07	486.83
611.23	505.56
611.38	381.51
611.54	395.55
611.69	365.12
611.84	311.29
612.00	437.68
612.15	425.98
612.31	430.66
612.46	456.40
612.62	414.27
612.77	454.06
612.92	482.15
613.08	449.38
613.23	435.34
613.39	365.12
613.54	355.76
613.69	383.85
613.85	433.00
614.00	374.49
614.15	449.38
614.31	383.85
614.46	395.55
614.62	458.74
614.77	489.17
614.92	402.57
615.08	404.91
615.23	444.70
615.38	433.00
615.54	400.23
615.69	355.76
615.84	463.43
616.00	407.25
616.15	400.23
616.30	393.21
616.46	388.53
616.61	376.83
616.76	393.21
616.92	404.91
617.07	463.43
617.22	395.55
617.37	479.81
617.53	404.91
617.68	372.15
617.83	379.17
617.99	435.34
618.14	479.81
618.29	477.47
618.45	437.68
618.60	372.15
618.75	395.55
618.90	425.98
619.06	491.51
619.21	526.62
619.36	409.59
619.51	468.11
619.67	374.49
619.82	322.99
619.97	505.56
620.12	367.46
620.28	416.62
620.43	404.91
620.58	447.04
620.73	421.30
620.89	386.19
621.04	421.30
621.19	444.70
621.34	358.10
621.49	430.66
621.65	409.59
621.80	430.66
621.95	423.64
622.10	353.42
622.25	367.46
622.41	407.25
622.56	437.68
622.71	493.85
622.86	423.64
623.01	353.42
623.16	433.00
623.32	390.87
623.47	409.59
623.62	440.02
623.77	381.51
623.92	386.19
624.07	468.11
624.23	355.76
624.38	423.64
624.53	325.33
624.68	421.30
624.83	421.30
624.98	397.89
625.13	358.10
625.29	404.91
625.44	379.17
625.59	390.87
625.74	465.77
625.89	341.72
626.04	365.12
626.19	360.44
626.34	407.25
626.49	447.04
626.65	435.34
626.80	425.98
626.95	379.17
627.10	367.46
627.25	428.32
627.40	402.57
627.55	414.27
627.70	416.62
627.85	383.85
628.00	442.36
628.15	491.51
628.30	369.80
628.45	388.53
628.60	383.85
628.76	376.83
628.91	383.85
629.06	437.68
629.21	395.55
629.36	447.04
629.51	411.93
629.66	531.30
629.81	411.93
629.96	428.32
630.11	411.93
630.26	430.66
630.41	418.96
630.56	411.93
630.71	428.32
630.86	407.25
631.01	379.17
631.16	386.19
631.31	404.91
631.46	468.11
631.61	444.70
631.76	442.36
631.91	372.15
632.06	402.57
632.21	414.27
632.36	435.34
632.51	397.89
632.66	482.15
632.81	388.53
632.96	383.85
633.10	465.77
633.25	519.60
633.40	440.02
633.55	447.04
633.70	468.11
633.85	414.27
634.00	458.74
634.15	400.23
634.30	376.83
634.45	435.34
634.60	400.23
634.75	355.76
634.90	423.64
635.05	425.98
635.19	437.68
635.34	425.98
635.49	383.85
635.64	414.27
635.79	442.36
635.94	390.87
636.09	461.09
636.24	437.68
636.39	346.40
636.53	433.00
636.68	418.96
636.83	451.72
636.98	421.30
637.13	425.98
637.28	383.85
637.43	435.34
637.57	421.30
637.72	435.34
637.87	339.38
638.02	376.83
638.17	468.11
638.32	442.36
638.46	358.10
638.61	430.66
638.76	353.42
638.91	444.70
639.06	425.98
639.20	416.62
639.35	404.91
639.50	337.04
639.65	468.11
639.80	421.30
639.94	458.74
640.09	493.85
640.24	407.25
640.39	428.32
640.54	407.25
640.68	418.96
640.83	376.83
640.98	386.19
641.13	367.46
641.27	393.21
641.42	402.57
641.57	397.89
641.72	362.78
641.86	428.32
642.01	425.98
642.16	447.04
642.31	437.68
642.45	514.92
642.60	451.72
642.75	376.83
642.90	435.34
643.04	379.17
643.19	402.57
643.34	418.96
643.48	414.27
643.63	390.87
643.78	369.80
643.93	414.27
644.07	395.55
644.22	397.89
644.37	395.55
644.51	393.21
644.66	365.12
644.81	341.72
644.95	449.38
645.10	442.36
645.25	407.25
645.39	402.57
645.54	416.62
645.69	461.09
645.83	374.49
645.98	425.98
646.13	444.70
646.27	346.40
646.42	407.25
646.57	400.23
646.71	386.19
646.86	320.65
647.00	444.70
647.15	397.89
647.30	386.19
647.44	472.79
647.59	353.42
647.74	411.93
647.88	337.04
648.03	395.55
648.17	468.11
648.32	367.46
648.47	444.70
648.61	360.44
648.76	447.04
648.90	486.83
649.05	489.17
649.20	402.57
649.34	421.30
649.49	463.43
649.63	383.85
649.78	428.32
649.92	468.11
650.07	472.79
650.21	397.89
650.36	411.93
650.51	440.02
650.65	484.49
650.80	369.80
650.94	337.04
651.09	404.91
651.23	414.27
651.38	411.93
651.52	407.25
651.67	435.34
651.81	421.30
651.96	470.45
652.10	496.19
652.25	425.98
652.39	404.91
652.54	489.17
652.68	425.98
652.83	334.70
652.97	411.93
653.12	416.62
653.26	423.64
653.41	369.80
653.55	395.55
653.70	388.53
653.84	341.72
653.99	444.70
654.13	421.30
654.27	381.51
654.42	444.70
654.56	379.17
654.71	531.30
654.85	409.59
655.00	365.12
655.14	456.40
655.29	402.57
655.43	395.55
655.57	397.89
655.72	411.93
655.86	395.55
656.01	416.62
656.15	407.25
656.30	489.17
656.44	402.57
656.58	404.91
656.73	477.47
656.87	362.78
657.01	430.66
657.16	503.22
657.30	421.30
657.45	463.43
657.59	479.81
657.73	379.17
657.88	404.91
658.02	528.96
658.16	430.66
658.31	367.46
658.45	447.04
658.60	360.44
658.74	414.27
658.88	372.15
659.03	418.96
659.17	400.23
659.31	402.57
659.46	411.93
659.60	402.57
659.74	447.04
659.89	353.42
660.03	425.98
660.17	454.06
660.32	500.87
660.46	411.93
660.60	404.91
660.74	456.40
660.89	484.49
661.03	416.62
661.17	449.38
661.32	451.72
661.46	407.25
661.60	388.53
661.74	374.49
661.89	355.76
662.03	407.25
662.17	414.27
662.31	425.98
662.46	430.66
662.60	491.51
662.74	440.02
662.88	451.72
663.03	442.36
663.17	383.85
663.31	383.85
663.45	498.53
663.60	411.93
663.74	369.80
663.88	395.55
664.02	393.21
664.17	477.47
664.31	421.30
664.45	484.49
664.59	411.93
664.73	388.53
664.88	409.59
665.02	433.00
665.16	442.36
665.30	463.43
665.44	421.30
665.59	451.72
665.73	496.19
665.87	409.59
666.01	418.96
666.15	397.89
666.29	386.19
666.44	430.66
666.58	437.68
666.72	449.38
666.86	402.57
667.00	491.51
667.14	465.77
667.28	395.55
667.43	395.55
667.57	447.04
667.71	454.06
667.85	437.68
667.99	444.70
668.13	400.23
668.27	421.30
668.41	454.06
668.56	374.49
668.70	414.27
668.84	376.83
668.98	374.49
669.12	423.64
669.26	437.68
669.40	451.72
669.54	468.11
669.68	472.79
669.82	388.53
669.96	411.93
670.10	404.91
670.25	477.47
670.39	386.19
670.53	437.68
670.67	468.11
670.81	409.59
670.95	456.40
671.09	334.70
671.23	470.45
671.37	421.30
671.51	418.96
671.65	447.04
671.79	390.87
671.93	388.53
672.07	430.66
672.21	507.90
672.35	456.40
672.49	430.66
672.63	433.00
672.77	386.19
672.91	435.34
673.05	409.59
673.19	407.25
673.33	444.70
673.47	472.79
673.61	414.27
673.75	425.98
673.89	423.64
674.03	468.11
674.17	442.36
674.31	423.64
674.45	416.62
674.59	376.83
674.73	442.36
674.87	447.04
675.01	423.64
675.15	355.76
675.29	500.87
675.43	454.06
675.56	442.36
675.70	468.11
675.84	500.87
675.98	421.30
676.12	437.68
676.26	395.55
676.40	409.59
676.54	383.85
676.68	369.80
676.82	411.93
676.96	390.87
677.10	418.96
677.23	414.27
677.37	369.80
677.51	400.23
677.65	423.64
677.79	409.59
677.93	341.72
678.07	449.38
678.21	414.27
678.34	404.91
678.48	447.04
678.62	423.64
678.76	416.62
678.90	447.04
679.04	388.53
679.18	379.17
679.31	383.85
679.45	358.10
679.59	379.17
679.73	442.36
679.87	451.72
680.00	393.21
680.14	400.23
680.28	444.70
680.42	374.49
680.56	407.25
680.70	348.74
680.83	437.68
680.97	365.12
681.11	440.02
681.25	435.34
681.39	423.64
681.52	433.00
681.66	400.23
681.80	454.06
681.94	367.46
682.07	433.00
682.21	463.43
682.35	381.51
682.49	468.11
682.62	393.21
682.76	421.30
682.90	433.00
683.04	447.04
683.17	416.62
683.31	416.62
683.45	369.80
683.59	421.30
683.72	383.85
683.86	390.87
684.00	374.49
684.13	425.98
684.27	458.74
684.41	367.46
684.55	400.23
684.68	365.12
684.82	383.85
684.96	428.32
685.09	355.76
685.23	379.17
685.37	360.44
685.50	369.80
685.64	472.79
685.78	397.89
685.91	440.02
686.05	512.58
686.19	444.70
686.32	468.11
686.46	337.04
686.60	388.53
686.73	465.77
686.87	449.38
687.01	414.27
687.14	416.62
687.28	360.44
687.42	409.59
687.55	416.62
687.69	409.59
687.82	411.93
687.96	456.40
688.10	435.34
688.23	414.27
688.37	458.74
688.50	402.57
688.64	390.87
688.78	440.02
688.91	416.62
689.05	465.77
689.18	447.04
689.32	407.25
689.46	430.66
689.59	435.34
689.73	503.22
689.86	395.55
690.00	456.40
690.13	430.66
690.27	404.91
690.41	435.34
690.54	484.49
690.68	400.23
690.81	388.53
690.95	393.21
691.08	369.80
691.22	468.11
691.35	428.32
691.49	397.89
691.62	437.68
691.76	428.32
691.89	404.91
692.03	397.89
692.16	339.38
692.30	414.27
692.43	428.32
692.57	407.25
692.70	421.30
692.84	402.57
692.97	428.32
693.11	397.89
693.24	454.06
693.38	430.66
693.51	353.42
693.65	367.46
693.78	421.30
693.92	472.79
694.05	477.47
694.19	414.27
694.32	479.81
694.45	451.72
694.59	414.27
694.72	365.12
694.86	313.63
694.99	421.30
695.13	475.13
695.26	344.06
695.39	365.12
695.53	463.43
695.66	447.04
695.80	456.40
695.93	421.30
696.07	383.85
696.20	442.36
696.33	390.87
696.47	433.00
696.60	447.04
696.73	447.04
696.87	372.15
697.00	477.47
697.14	367.46
697.27	365.12
697.40	496.19
697.54	493.85
697.67	372.15
697.80	456.40
697.94	348.74
698.07	395.55
698.21	416.62
698.34	358.10
698.47	386.19
698.61	379.17
698.74	449.38
698.87	461.09
699.01	421.30
699.14	421.30
699.27	425.98
699.40	510.24
699.54	505.56
699.67	428.32
699.80	388.53
699.94	339.38
700.07	386.19
700.20	386.19
700.34	430.66
700.47	411.93
700.60	411.93
700.73	351.08
700.87	341.72
701.00	395.55
701.13	458.74
701.26	407.25
701.40	388.53
701.53	400.23
701.66	409.59
701.79	430.66
701.93	416.62
702.06	437.68
702.19	451.72
702.32	491.51
702.46	449.38
702.59	512.58
702.72	475.13
702.85	407.25
702.99	458.74
703.12	433.00
703.25	433.00
703.38	407.25
703.51	468.11
703.65	411.93
703.78	437.68
703.91	402.57
704.04	444.70
704.17	421.30
704.31	404.91
704.44	395.55
704.57	468.11
704.70	395.55
704.83	458.74
704.96	416.62
705.10	383.85
705.23	397.89
>>>>>End Processed Spectral Data<<<<<
