SpectraSuite Data File
++++++++++++++++++++++++++++++++++++
Date: Fri Oct 25 12:11:29 EDT 2013
User: price-jones
Dark Spectrum Present: No
Reference Spectrum Present: No
Number of Sampled Component Spectra: 1
Spectrometers: USB2+H05261
Integration Time (usec): 100000 (USB2+H05261)
Spectra Averaged: 1 (USB2+H05261)
Boxcar Smoothing: 0 (USB2+H05261)
Correct for Electrical Dark: No (USB2+H05261)
Strobe/Lamp Enabled: No (USB2+H05261)
Correct for Detector Non-linearity: No (USB2+H05261)
Correct for Stray Light: No (USB2+H05261)
Number of Pixels in Processed Spectrum: 2048
>>>>>Begin Processed Spectral Data<<<<<
365.73	346.40
365.92	346.40
366.12	346.40
366.32	259.80
366.52	269.16
366.72	259.80
366.91	212.99
367.11	210.65
367.31	224.69
367.51	243.42
367.70	220.01
367.90	266.82
368.10	227.03
368.30	208.31
368.49	273.84
368.69	231.71
368.89	257.46
369.09	245.76
369.28	271.50
369.48	269.16
369.68	315.97
369.87	271.50
370.07	320.65
370.27	320.65
370.47	339.38
370.66	283.20
370.86	386.19
371.06	360.44
371.25	418.96
371.45	341.72
371.65	454.06
371.84	386.19
372.04	348.74
372.24	418.96
372.44	372.15
372.63	313.63
372.83	414.27
373.03	374.49
373.22	400.23
373.42	393.21
373.62	407.25
373.81	407.25
374.01	414.27
374.21	388.53
374.40	400.23
374.60	409.59
374.79	461.09
374.99	369.80
375.19	379.17
375.38	470.45
375.58	463.43
375.78	454.06
375.97	411.93
376.17	505.56
376.37	376.83
376.56	433.00
376.76	374.49
376.95	425.98
377.15	423.64
377.35	505.56
377.54	409.59
377.74	423.64
377.93	404.91
378.13	470.45
378.33	414.27
378.52	381.51
378.72	423.64
378.91	454.06
379.11	440.02
379.31	388.53
379.50	388.53
379.70	397.89
379.89	421.30
380.09	402.57
380.28	355.76
380.48	383.85
380.68	425.98
380.87	388.53
381.07	447.04
381.26	437.68
381.46	479.81
381.65	402.57
381.85	393.21
382.04	484.49
382.24	491.51
382.43	411.93
382.63	416.62
382.83	407.25
383.02	404.91
383.22	416.62
383.41	440.02
383.61	433.00
383.80	470.45
384.00	369.80
384.19	430.66
384.39	374.49
384.58	386.19
384.78	470.45
384.97	409.59
385.17	543.00
385.36	325.33
385.56	367.46
385.75	322.99
385.95	393.21
386.14	407.25
386.34	451.72
386.53	418.96
386.72	395.55
386.92	444.70
387.11	437.68
387.31	409.59
387.50	435.34
387.70	344.06
387.89	437.68
388.09	372.15
388.28	407.25
388.48	442.36
388.67	374.49
388.86	435.34
389.06	421.30
389.25	393.21
389.45	409.59
389.64	393.21
389.84	451.72
390.03	425.98
390.22	376.83
390.42	393.21
390.61	409.59
390.81	374.49
391.00	379.17
391.19	535.98
391.39	430.66
391.58	414.27
391.78	386.19
391.97	353.42
392.16	362.78
392.36	376.83
392.55	418.96
392.75	447.04
392.94	444.70
393.13	372.15
393.33	400.23
393.52	423.64
393.71	358.10
393.91	411.93
394.10	421.30
394.29	421.30
394.49	379.17
394.68	465.77
394.88	449.38
395.07	447.04
395.26	341.72
395.46	407.25
395.65	428.32
395.84	425.98
396.04	472.79
396.23	400.23
396.42	393.21
396.62	465.77
396.81	386.19
397.00	465.77
397.19	449.38
397.39	383.85
397.58	435.34
397.77	383.85
397.97	444.70
398.16	442.36
398.35	458.74
398.55	388.53
398.74	456.40
398.93	367.46
399.12	393.21
399.32	428.32
399.51	395.55
399.70	411.93
399.90	477.47
400.09	425.98
400.28	400.23
400.47	447.04
400.67	365.12
400.86	440.02
401.05	428.32
401.24	435.34
401.44	454.06
401.63	397.89
401.82	468.11
402.01	351.08
402.21	383.85
402.40	440.02
402.59	454.06
402.78	418.96
402.97	388.53
403.17	425.98
403.36	400.23
403.55	435.34
403.74	381.51
403.93	482.15
404.13	428.32
404.32	484.49
404.51	421.30
404.70	379.17
404.89	416.62
405.09	407.25
405.28	404.91
405.47	458.74
405.66	463.43
405.85	425.98
406.05	388.53
406.24	353.42
406.43	402.57
406.62	379.17
406.81	435.34
407.00	409.59
407.20	468.11
407.39	365.12
407.58	393.21
407.77	416.62
407.96	360.44
408.15	372.15
408.34	416.62
408.54	383.85
408.73	393.21
408.92	477.47
409.11	362.78
409.30	449.38
409.49	505.56
409.68	383.85
409.87	346.40
410.07	388.53
410.26	383.85
410.45	393.21
410.64	444.70
410.83	409.59
411.02	411.93
411.21	428.32
411.40	397.89
411.59	395.55
411.78	416.62
411.98	414.27
412.17	458.74
412.36	306.61
412.55	437.68
412.74	372.15
412.93	468.11
413.12	421.30
413.31	451.72
413.50	421.30
413.69	484.49
413.88	444.70
414.07	498.53
414.26	435.34
414.45	367.46
414.64	491.51
414.83	463.43
415.02	400.23
415.22	400.23
415.41	472.79
415.60	393.21
415.79	440.02
415.98	479.81
416.17	369.80
416.36	428.32
416.55	344.06
416.74	479.81
416.93	423.64
417.12	332.36
417.31	369.80
417.50	447.04
417.69	416.62
417.88	491.51
418.07	444.70
418.26	367.46
418.45	339.38
418.64	430.66
418.83	440.02
419.02	430.66
419.21	360.44
419.39	367.46
419.58	447.04
419.77	479.81
419.96	425.98
420.15	409.59
420.34	388.53
420.53	414.27
420.72	397.89
420.91	435.34
421.10	393.21
421.29	461.09
421.48	482.15
421.67	416.62
421.86	411.93
422.05	461.09
422.24	414.27
422.43	346.40
422.61	421.30
422.80	383.85
422.99	397.89
423.18	386.19
423.37	447.04
423.56	416.62
423.75	414.27
423.94	388.53
424.13	430.66
424.32	411.93
424.50	381.51
424.69	374.49
424.88	402.57
425.07	325.33
425.26	404.91
425.45	465.77
425.64	421.30
425.83	430.66
426.01	514.92
426.20	407.25
426.39	449.38
426.58	428.32
426.77	440.02
426.96	365.12
427.15	421.30
427.33	332.36
427.52	400.23
427.71	397.89
427.90	428.32
428.09	414.27
428.28	304.27
428.46	421.30
428.65	390.87
428.84	390.87
429.03	433.00
429.22	428.32
429.40	374.49
429.59	388.53
429.78	397.89
429.97	393.21
430.16	379.17
430.34	437.68
430.53	402.57
430.72	411.93
430.91	381.51
431.10	360.44
431.28	388.53
431.47	463.43
431.66	360.44
431.85	325.33
432.03	416.62
432.22	468.11
432.41	423.64
432.60	395.55
432.79	383.85
432.97	437.68
433.16	442.36
433.35	433.00
433.54	421.30
433.72	334.70
433.91	416.62
434.10	418.96
434.28	379.17
434.47	430.66
434.66	407.25
434.85	477.47
435.03	386.19
435.22	524.28
435.41	482.15
435.59	421.30
435.78	409.59
435.97	360.44
436.16	437.68
436.34	362.78
436.53	421.30
436.72	416.62
436.90	404.91
437.09	524.28
437.28	447.04
437.46	463.43
437.65	421.30
437.84	454.06
438.02	425.98
438.21	395.55
438.40	383.85
438.58	486.83
438.77	421.30
438.96	428.32
439.14	433.00
439.33	458.74
439.52	414.27
439.70	425.98
439.89	449.38
440.08	456.40
440.26	514.92
440.45	421.30
440.63	447.04
440.82	390.87
441.01	447.04
441.19	454.06
441.38	489.17
441.57	369.80
441.75	482.15
441.94	447.04
442.12	423.64
442.31	400.23
442.50	425.98
442.68	433.00
442.87	470.45
443.05	388.53
443.24	322.99
443.43	428.32
443.61	355.76
443.80	423.64
443.98	346.40
444.17	463.43
444.35	482.15
444.54	461.09
444.73	416.62
444.91	472.79
445.10	409.59
445.28	411.93
445.47	418.96
445.65	444.70
445.84	386.19
446.02	411.93
446.21	393.21
446.39	376.83
446.58	484.49
446.77	414.27
446.95	442.36
447.14	454.06
447.32	447.04
447.51	404.91
447.69	465.77
447.88	409.59
448.06	430.66
448.25	402.57
448.43	388.53
448.62	411.93
448.80	407.25
448.99	442.36
449.17	404.91
449.36	416.62
449.54	433.00
449.73	383.85
449.91	400.23
450.10	381.51
450.28	447.04
450.46	430.66
450.65	458.74
450.83	451.72
451.02	344.06
451.20	400.23
451.39	416.62
451.57	381.51
451.76	416.62
451.94	358.10
452.13	489.17
452.31	477.47
452.49	395.55
452.68	395.55
452.86	369.80
453.05	393.21
453.23	402.57
453.42	421.30
453.60	381.51
453.78	463.43
453.97	400.23
454.15	418.96
454.34	414.27
454.52	402.57
454.70	472.79
454.89	411.93
455.07	472.79
455.26	444.70
455.44	437.68
455.62	362.78
455.81	395.55
455.99	454.06
456.17	400.23
456.36	416.62
456.54	397.89
456.73	437.68
456.91	407.25
457.09	339.38
457.28	430.66
457.46	463.43
457.64	383.85
457.83	411.93
458.01	447.04
458.19	397.89
458.38	367.46
458.56	437.68
458.74	388.53
458.93	407.25
459.11	407.25
459.29	409.59
459.48	409.59
459.66	383.85
459.84	383.85
460.03	461.09
460.21	360.44
460.39	421.30
460.57	437.68
460.76	463.43
460.94	421.30
461.12	402.57
461.31	463.43
461.49	369.80
461.67	386.19
461.85	418.96
462.04	433.00
462.22	777.06
462.40	454.06
462.59	409.59
462.77	449.38
462.95	409.59
463.13	423.64
463.32	435.34
463.50	425.98
463.68	484.49
463.86	442.36
464.05	435.34
464.23	465.77
464.41	425.98
464.59	379.17
464.78	393.21
464.96	386.19
465.14	433.00
465.32	402.57
465.50	484.49
465.69	397.89
465.87	423.64
466.05	428.32
466.23	442.36
466.41	372.15
466.60	379.17
466.78	414.27
466.96	479.81
467.14	430.66
467.32	433.00
467.51	409.59
467.69	475.13
467.87	404.91
468.05	379.17
468.23	416.62
468.41	390.87
468.60	484.49
468.78	475.13
468.96	393.21
469.14	381.51
469.32	402.57
469.50	381.51
469.69	458.74
469.87	465.77
470.05	456.40
470.23	428.32
470.41	388.53
470.59	433.00
470.77	437.68
470.95	397.89
471.14	430.66
471.32	376.83
471.50	440.02
471.68	374.49
471.86	397.89
472.04	407.25
472.22	456.40
472.40	414.27
472.58	444.70
472.77	308.95
472.95	379.17
473.13	442.36
473.31	414.27
473.49	451.72
473.67	407.25
473.85	414.27
474.03	411.93
474.21	404.91
474.39	433.00
474.57	397.89
474.75	388.53
474.93	374.49
475.12	421.30
475.30	339.38
475.48	411.93
475.66	414.27
475.84	456.40
476.02	360.44
476.20	360.44
476.38	374.49
476.56	425.98
476.74	400.23
476.92	379.17
477.10	400.23
477.28	418.96
477.46	407.25
477.64	402.57
477.82	397.89
478.00	353.42
478.18	423.64
478.36	388.53
478.54	442.36
478.72	421.30
478.90	425.98
479.08	409.59
479.26	444.70
479.44	475.13
479.62	358.10
479.80	388.53
479.98	437.68
480.16	376.83
480.34	421.30
480.52	402.57
480.70	430.66
480.88	433.00
481.06	379.17
481.24	383.85
481.41	386.19
481.59	423.64
481.77	367.46
481.95	388.53
482.13	433.00
482.31	465.77
482.49	358.10
482.67	365.12
482.85	447.04
483.03	381.51
483.21	388.53
483.39	461.09
483.57	397.89
483.74	484.49
483.92	442.36
484.10	418.96
484.28	393.21
484.46	533.64
484.64	442.36
484.82	379.17
485.00	421.30
485.18	451.72
485.35	423.64
485.53	379.17
485.71	458.74
485.89	402.57
486.07	433.00
486.25	451.72
486.43	442.36
486.61	496.19
486.78	477.47
486.96	418.96
487.14	423.64
487.32	430.66
487.50	454.06
487.68	484.49
487.85	404.91
488.03	454.06
488.21	470.45
488.39	433.00
488.57	477.47
488.75	421.30
488.92	440.02
489.10	444.70
489.28	407.25
489.46	451.72
489.64	402.57
489.81	395.55
489.99	482.15
490.17	409.59
490.35	451.72
490.53	407.25
490.70	505.56
490.88	374.49
491.06	425.98
491.24	447.04
491.41	482.15
491.59	416.62
491.77	433.00
491.95	414.27
492.13	430.66
492.30	451.72
492.48	425.98
492.66	430.66
492.84	458.74
493.01	411.93
493.19	383.85
493.37	407.25
493.54	493.85
493.72	437.68
493.90	423.64
494.08	346.40
494.25	477.47
494.43	358.10
494.61	409.59
494.79	428.32
494.96	374.49
495.14	430.66
495.32	430.66
495.49	433.00
495.67	496.19
495.85	369.80
496.02	428.32
496.20	374.49
496.38	421.30
496.55	390.87
496.73	421.30
496.91	351.08
497.09	442.36
497.26	423.64
497.44	440.02
497.62	456.40
497.79	407.25
497.97	400.23
498.14	397.89
498.32	447.04
498.50	470.45
498.67	400.23
498.85	376.83
499.03	430.66
499.20	386.19
499.38	418.96
499.56	374.49
499.73	407.25
499.91	376.83
500.08	416.62
500.26	425.98
500.44	390.87
500.61	477.47
500.79	430.66
500.97	418.96
501.14	468.11
501.32	367.46
501.49	421.30
501.67	386.19
501.84	433.00
502.02	411.93
502.20	496.19
502.37	390.87
502.55	418.96
502.72	355.76
502.90	397.89
503.07	458.74
503.25	425.98
503.43	379.17
503.60	402.57
503.78	442.36
503.95	435.34
504.13	430.66
504.30	339.38
504.48	472.79
504.65	435.34
504.83	444.70
505.01	451.72
505.18	388.53
505.36	409.59
505.53	320.65
505.71	425.98
505.88	416.62
506.06	496.19
506.23	496.19
506.41	435.34
506.58	416.62
506.76	402.57
506.93	397.89
507.11	402.57
507.28	402.57
507.46	395.55
507.63	421.30
507.81	348.74
507.98	435.34
508.16	484.49
508.33	397.89
508.50	395.55
508.68	386.19
508.85	306.61
509.03	409.59
509.20	379.17
509.38	433.00
509.55	463.43
509.73	493.85
509.90	421.30
510.08	393.21
510.25	397.89
510.42	409.59
510.60	435.34
510.77	369.80
510.95	433.00
511.12	442.36
511.30	400.23
511.47	440.02
511.64	482.15
511.82	372.15
511.99	428.32
512.17	416.62
512.34	411.93
512.51	423.64
512.69	351.08
512.86	416.62
513.04	435.34
513.21	395.55
513.38	404.91
513.56	330.02
513.73	482.15
513.90	416.62
514.08	416.62
514.25	430.66
514.43	430.66
514.60	388.53
514.77	418.96
514.95	402.57
515.12	400.23
515.29	430.66
515.47	458.74
515.64	475.13
515.81	421.30
515.99	416.62
516.16	463.43
516.33	447.04
516.51	423.64
516.68	395.55
516.85	416.62
517.03	461.09
517.20	430.66
517.37	425.98
517.54	449.38
517.72	449.38
517.89	362.78
518.06	393.21
518.24	400.23
518.41	512.58
518.58	437.68
518.75	416.62
518.93	475.13
519.10	397.89
519.27	449.38
519.45	425.98
519.62	425.98
519.79	409.59
519.96	353.42
520.14	404.91
520.31	517.26
520.48	454.06
520.65	407.25
520.83	383.85
521.00	425.98
521.17	367.46
521.34	416.62
521.52	430.66
521.69	351.08
521.86	409.59
522.03	458.74
522.20	507.90
522.38	435.34
522.55	444.70
522.72	423.64
522.89	360.44
523.07	447.04
523.24	465.77
523.41	414.27
523.58	381.51
523.75	433.00
523.92	423.64
524.10	414.27
524.27	390.87
524.44	374.49
524.61	409.59
524.78	458.74
524.96	386.19
525.13	423.64
525.30	458.74
525.47	465.77
525.64	440.02
525.81	463.43
525.98	444.70
526.16	388.53
526.33	404.91
526.50	362.78
526.67	447.04
526.84	400.23
527.01	430.66
527.18	360.44
527.36	409.59
527.53	379.17
527.70	456.40
527.87	411.93
528.04	458.74
528.21	433.00
528.38	379.17
528.55	454.06
528.72	435.34
528.89	449.38
529.07	376.83
529.24	397.89
529.41	428.32
529.58	456.40
529.75	435.34
529.92	372.15
530.09	437.68
530.26	409.59
530.43	425.98
530.60	374.49
530.77	454.06
530.94	402.57
531.11	435.34
531.28	367.46
531.46	379.17
531.63	451.72
531.80	372.15
531.97	461.09
532.14	470.45
532.31	451.72
532.48	379.17
532.65	383.85
532.82	411.93
532.99	393.21
533.16	397.89
533.33	421.30
533.50	416.62
533.67	416.62
533.84	447.04
534.01	409.59
534.18	421.30
534.35	400.23
534.52	454.06
534.69	463.43
534.86	447.04
535.03	414.27
535.20	451.72
535.37	425.98
535.54	437.68
535.71	470.45
535.88	468.11
536.05	355.76
536.22	390.87
536.38	451.72
536.55	428.32
536.72	465.77
536.89	351.08
537.06	388.53
537.23	456.40
537.40	362.78
537.57	407.25
537.74	475.13
537.91	423.64
538.08	465.77
538.25	489.17
538.42	449.38
538.59	416.62
538.75	400.23
538.92	442.36
539.09	376.83
539.26	423.64
539.43	360.44
539.60	418.96
539.77	440.02
539.94	428.32
540.11	430.66
540.28	393.21
540.44	465.77
540.61	383.85
540.78	409.59
540.95	421.30
541.12	543.00
541.29	437.68
541.46	423.64
541.62	456.40
541.79	416.62
541.96	386.19
542.13	472.79
542.30	351.08
542.47	390.87
542.63	465.77
542.80	400.23
542.97	404.91
543.14	423.64
543.31	409.59
543.48	369.80
543.64	454.06
543.81	430.66
543.98	463.43
544.15	444.70
544.32	456.40
544.48	395.55
544.65	414.27
544.82	433.00
544.99	418.96
545.16	489.17
545.32	451.72
545.49	440.02
545.66	407.25
545.83	390.87
546.00	411.93
546.16	409.59
546.33	425.98
546.50	463.43
546.67	437.68
546.83	465.77
547.00	421.30
547.17	395.55
547.34	409.59
547.50	463.43
547.67	451.72
547.84	433.00
548.00	400.23
548.17	372.15
548.34	423.64
548.51	510.24
548.67	372.15
548.84	418.96
549.01	386.19
549.18	435.34
549.34	400.23
549.51	360.44
549.68	454.06
549.84	423.64
550.01	386.19
550.18	470.45
550.34	463.43
550.51	456.40
550.68	535.98
550.84	442.36
551.01	414.27
551.18	444.70
551.34	454.06
551.51	388.53
551.68	418.96
551.84	407.25
552.01	416.62
552.18	400.23
552.34	425.98
552.51	365.12
552.68	421.30
552.84	397.89
553.01	416.62
553.18	475.13
553.34	475.13
553.51	388.53
553.67	470.45
553.84	402.57
554.01	397.89
554.17	393.21
554.34	433.00
554.51	416.62
554.67	449.38
554.84	433.00
555.00	435.34
555.17	372.15
555.33	433.00
555.50	404.91
555.67	407.25
555.83	430.66
556.00	463.43
556.16	533.64
556.33	409.59
556.50	421.30
556.66	428.32
556.83	484.49
556.99	435.34
557.16	442.36
557.32	430.66
557.49	451.72
557.65	484.49
557.82	447.04
557.98	395.55
558.15	435.34
558.32	458.74
558.48	402.57
558.65	409.59
558.81	421.30
558.98	458.74
559.14	461.09
559.31	463.43
559.47	388.53
559.64	435.34
559.80	397.89
559.97	449.38
560.13	444.70
560.30	411.93
560.46	388.53
560.63	482.15
560.79	404.91
560.96	447.04
561.12	430.66
561.29	395.55
561.45	430.66
561.61	472.79
561.78	475.13
561.94	505.56
562.11	395.55
562.27	477.47
562.44	367.46
562.60	430.66
562.77	425.98
562.93	400.23
563.10	465.77
563.26	402.57
563.42	369.80
563.59	418.96
563.75	393.21
563.92	423.64
564.08	442.36
564.24	437.68
564.41	360.44
564.57	416.62
564.74	470.45
564.90	365.12
565.07	423.64
565.23	418.96
565.39	454.06
565.56	451.72
565.72	397.89
565.88	421.30
566.05	404.91
566.21	404.91
566.38	454.06
566.54	390.87
566.70	409.59
566.87	395.55
567.03	337.04
567.19	374.49
567.36	372.15
567.52	423.64
567.68	407.25
567.85	388.53
568.01	454.06
568.17	386.19
568.34	383.85
568.50	449.38
568.66	440.02
568.83	470.45
568.99	400.23
569.15	458.74
569.32	393.21
569.48	447.04
569.64	381.51
569.81	397.89
569.97	379.17
570.13	425.98
570.30	351.08
570.46	404.91
570.62	468.11
570.78	435.34
570.95	461.09
571.11	449.38
571.27	437.68
571.43	421.30
571.60	449.38
571.76	367.46
571.92	428.32
572.09	402.57
572.25	404.91
572.41	376.83
572.57	430.66
572.74	500.87
572.90	451.72
573.06	428.32
573.22	383.85
573.38	463.43
573.55	472.79
573.71	409.59
573.87	404.91
574.03	414.27
574.20	386.19
574.36	472.79
574.52	386.19
574.68	430.66
574.84	447.04
575.01	393.21
575.17	404.91
575.33	437.68
575.49	449.38
575.65	358.10
575.82	514.92
575.98	458.74
576.14	442.36
576.30	470.45
576.46	404.91
576.62	442.36
576.79	425.98
576.95	397.89
577.11	386.19
577.27	360.44
577.43	386.19
577.59	433.00
577.75	404.91
577.92	444.70
578.08	386.19
578.24	313.63
578.40	442.36
578.56	372.15
578.72	388.53
578.88	449.38
579.04	428.32
579.21	454.06
579.37	425.98
579.53	390.87
579.69	395.55
579.85	390.87
580.01	437.68
580.17	390.87
580.33	451.72
580.49	475.13
580.65	440.02
580.82	383.85
580.98	388.53
581.14	362.78
581.30	421.30
581.46	395.55
581.62	496.19
581.78	435.34
581.94	472.79
582.10	397.89
582.26	416.62
582.42	379.17
582.58	416.62
582.74	475.13
582.90	437.68
583.06	376.83
583.22	470.45
583.38	386.19
583.54	362.78
583.70	435.34
583.86	390.87
584.02	440.02
584.18	440.02
584.34	388.53
584.50	435.34
584.66	472.79
584.82	362.78
584.98	465.77
585.14	440.02
585.30	456.40
585.46	454.06
585.62	397.89
585.78	447.04
585.94	468.11
586.10	482.15
586.26	440.02
586.42	386.19
586.58	418.96
586.74	423.64
586.90	414.27
587.06	341.72
587.22	472.79
587.38	355.76
587.54	449.38
587.70	404.91
587.86	477.47
588.02	393.21
588.18	418.96
588.34	407.25
588.49	414.27
588.65	411.93
588.81	386.19
588.97	386.19
589.13	421.30
589.29	334.70
589.45	397.89
589.61	461.09
589.77	379.17
589.93	423.64
590.08	425.98
590.24	435.34
590.40	411.93
590.56	423.64
590.72	409.59
590.88	386.19
591.04	362.78
591.20	369.80
591.35	414.27
591.51	449.38
591.67	376.83
591.83	372.15
591.99	435.34
592.15	421.30
592.31	461.09
592.46	442.36
592.62	430.66
592.78	428.32
592.94	416.62
593.10	386.19
593.26	374.49
593.41	477.47
593.57	404.91
593.73	414.27
593.89	365.12
594.05	430.66
594.20	444.70
594.36	402.57
594.52	386.19
594.68	428.32
594.84	447.04
594.99	550.03
595.15	428.32
595.31	400.23
595.47	374.49
595.62	365.12
595.78	449.38
595.94	395.55
596.10	449.38
596.25	430.66
596.41	390.87
596.57	425.98
596.73	362.78
596.88	421.30
597.04	433.00
597.20	409.59
597.36	477.47
597.51	400.23
597.67	402.57
597.83	397.89
597.99	433.00
598.14	400.23
598.30	456.40
598.46	461.09
598.61	440.02
598.77	400.23
598.93	337.04
599.09	463.43
599.24	404.91
599.40	404.91
599.56	433.00
599.71	390.87
599.87	449.38
600.03	456.40
600.18	414.27
600.34	423.64
600.50	390.87
600.65	337.04
600.81	461.09
600.97	437.68
601.12	451.72
601.28	397.89
601.44	430.66
601.59	344.06
601.75	437.68
601.91	390.87
602.06	369.80
602.22	440.02
602.37	411.93
602.53	454.06
602.69	449.38
602.84	402.57
603.00	423.64
603.16	374.49
603.31	437.68
603.47	498.53
603.62	421.30
603.78	491.51
603.94	449.38
604.09	351.08
604.25	421.30
604.40	388.53
604.56	416.62
604.71	451.72
604.87	379.17
605.03	440.02
605.18	486.83
605.34	491.51
605.49	463.43
605.65	411.93
605.80	367.46
605.96	360.44
606.12	433.00
606.27	442.36
606.43	407.25
606.58	433.00
606.74	411.93
606.89	409.59
607.05	404.91
607.20	470.45
607.36	435.34
607.51	374.49
607.67	409.59
607.82	393.21
607.98	409.59
608.13	442.36
608.29	402.57
608.44	407.25
608.60	407.25
608.75	507.90
608.91	486.83
609.06	442.36
609.22	416.62
609.37	411.93
609.53	437.68
609.68	447.04
609.84	411.93
609.99	458.74
610.15	477.47
610.30	447.04
610.46	451.72
610.61	468.11
610.76	383.85
610.92	451.72
611.07	444.70
611.23	461.09
611.38	461.09
611.54	393.21
611.69	402.57
611.84	411.93
612.00	409.59
612.15	400.23
612.31	393.21
612.46	414.27
612.62	397.89
612.77	435.34
612.92	456.40
613.08	421.30
613.23	418.96
613.39	369.80
613.54	374.49
613.69	437.68
613.85	355.76
614.00	358.10
614.15	395.55
614.31	395.55
614.46	411.93
614.62	376.83
614.77	484.49
614.92	379.17
615.08	395.55
615.23	407.25
615.38	395.55
615.54	428.32
615.69	365.12
615.84	482.15
616.00	393.21
616.15	430.66
616.30	355.76
616.46	388.53
616.61	423.64
616.76	435.34
616.92	418.96
617.07	428.32
617.22	390.87
617.37	411.93
617.53	468.11
617.68	383.85
617.83	334.70
617.99	400.23
618.14	475.13
618.29	360.44
618.45	362.78
618.60	468.11
618.75	435.34
618.90	418.96
619.06	430.66
619.21	477.47
619.36	372.15
619.51	414.27
619.67	437.68
619.82	430.66
619.97	458.74
620.12	447.04
620.28	404.91
620.43	470.45
620.58	365.12
620.73	416.62
620.89	454.06
621.04	369.80
621.19	440.02
621.34	393.21
621.49	423.64
621.65	425.98
621.80	372.15
621.95	421.30
622.10	486.83
622.25	402.57
622.41	454.06
622.56	428.32
622.71	390.87
622.86	498.53
623.01	421.30
623.16	500.87
623.32	397.89
623.47	400.23
623.62	346.40
623.77	470.45
623.92	351.08
624.07	458.74
624.23	360.44
624.38	416.62
624.53	381.51
624.68	491.51
624.83	379.17
624.98	440.02
625.13	498.53
625.29	440.02
625.44	334.70
625.59	423.64
625.74	418.96
625.89	379.17
626.04	383.85
626.19	482.15
626.34	374.49
626.49	381.51
626.65	440.02
626.80	421.30
626.95	449.38
627.10	421.30
627.25	449.38
627.40	381.51
627.55	409.59
627.70	421.30
627.85	454.06
628.00	416.62
628.15	367.46
628.30	369.80
628.45	428.32
628.60	386.19
628.76	386.19
628.91	433.00
629.06	369.80
629.21	442.36
629.36	456.40
629.51	433.00
629.66	395.55
629.81	390.87
629.96	465.77
630.11	447.04
630.26	386.19
630.41	449.38
630.56	397.89
630.71	416.62
630.86	435.34
631.01	411.93
631.16	440.02
631.31	458.74
631.46	397.89
631.61	348.74
631.76	423.64
631.91	369.80
632.06	425.98
632.21	390.87
632.36	454.06
632.51	437.68
632.66	463.43
632.81	428.32
632.96	468.11
633.10	423.64
633.25	409.59
633.40	367.46
633.55	428.32
633.70	482.15
633.85	402.57
634.00	458.74
634.15	425.98
634.30	423.64
634.45	458.74
634.60	407.25
634.75	351.08
634.90	418.96
635.05	423.64
635.19	407.25
635.34	425.98
635.49	437.68
635.64	451.72
635.79	365.12
635.94	463.43
636.09	332.36
636.24	435.34
636.39	362.78
636.53	430.66
636.68	360.44
636.83	362.78
636.98	409.59
637.13	390.87
637.28	416.62
637.43	454.06
637.57	440.02
637.72	428.32
637.87	367.46
638.02	381.51
638.17	376.83
638.32	442.36
638.46	465.77
638.61	449.38
638.76	381.51
638.91	402.57
639.06	440.02
639.20	507.90
639.35	409.59
639.50	376.83
639.65	489.17
639.80	440.02
639.94	414.27
640.09	444.70
640.24	418.96
640.39	444.70
640.54	416.62
640.68	334.70
640.83	418.96
640.98	440.02
641.13	505.56
641.27	470.45
641.42	421.30
641.57	435.34
641.72	376.83
641.86	400.23
642.01	360.44
642.16	444.70
642.31	395.55
642.45	421.30
642.60	500.87
642.75	407.25
642.90	407.25
643.04	433.00
643.19	386.19
643.34	440.02
643.48	351.08
643.63	411.93
643.78	465.77
643.93	524.28
644.07	425.98
644.22	484.49
644.37	381.51
644.51	430.66
644.66	451.72
644.81	379.17
644.95	458.74
645.10	411.93
645.25	423.64
645.39	407.25
645.54	411.93
645.69	496.19
645.83	386.19
645.98	442.36
646.13	447.04
646.27	470.45
646.42	334.70
646.57	411.93
646.71	395.55
646.86	379.17
647.00	376.83
647.15	425.98
647.30	393.21
647.44	367.46
647.59	397.89
647.74	386.19
647.88	358.10
648.03	409.59
648.17	388.53
648.32	404.91
648.47	461.09
648.61	388.53
648.76	451.72
648.90	397.89
649.05	416.62
649.20	486.83
649.34	369.80
649.49	470.45
649.63	404.91
649.78	451.72
649.92	433.00
650.07	468.11
650.21	425.98
650.36	454.06
650.51	409.59
650.65	507.90
650.80	414.27
650.94	397.89
651.09	404.91
651.23	386.19
651.38	475.13
651.52	416.62
651.67	409.59
651.81	388.53
651.96	447.04
652.10	440.02
652.25	341.72
652.39	409.59
652.54	383.85
652.68	393.21
652.83	423.64
652.97	353.42
653.12	388.53
653.26	360.44
653.41	407.25
653.55	456.40
653.70	372.15
653.84	461.09
653.99	409.59
654.13	404.91
654.27	379.17
654.42	484.49
654.56	318.31
654.71	416.62
654.85	456.40
655.00	374.49
655.14	367.46
655.29	353.42
655.43	416.62
655.57	402.57
655.72	430.66
655.86	407.25
656.01	463.43
656.15	458.74
656.30	416.62
656.44	390.87
656.58	360.44
656.73	397.89
656.87	465.77
657.01	416.62
657.16	425.98
657.30	428.32
657.45	482.15
657.59	425.98
657.73	414.27
657.88	372.15
658.02	482.15
658.16	407.25
658.31	421.30
658.45	397.89
658.60	381.51
658.74	407.25
658.88	362.78
659.03	472.79
659.17	423.64
659.31	390.87
659.46	503.22
659.60	447.04
659.74	479.81
659.89	402.57
660.03	407.25
660.17	381.51
660.32	411.93
660.46	458.74
660.60	414.27
660.74	465.77
660.89	348.74
661.03	404.91
661.17	444.70
661.32	388.53
661.46	407.25
661.60	393.21
661.74	468.11
661.89	454.06
662.03	402.57
662.17	416.62
662.31	468.11
662.46	475.13
662.60	458.74
662.74	416.62
662.88	465.77
663.03	407.25
663.17	355.76
663.31	383.85
663.45	456.40
663.60	430.66
663.74	404.91
663.88	372.15
664.02	442.36
664.17	425.98
664.31	400.23
664.45	308.95
664.59	402.57
664.73	367.46
664.88	425.98
665.02	425.98
665.16	372.15
665.30	449.38
665.44	402.57
665.59	393.21
665.73	397.89
665.87	374.49
666.01	381.51
666.15	421.30
666.29	423.64
666.44	498.53
666.58	496.19
666.72	435.34
666.86	416.62
667.00	416.62
667.14	491.51
667.28	374.49
667.43	355.76
667.57	423.64
667.71	428.32
667.85	425.98
667.99	470.45
668.13	393.21
668.27	402.57
668.41	470.45
668.56	425.98
668.70	423.64
668.84	463.43
668.98	386.19
669.12	344.06
669.26	461.09
669.40	505.56
669.54	433.00
669.68	400.23
669.82	409.59
669.96	386.19
670.10	430.66
670.25	407.25
670.39	456.40
670.53	440.02
670.67	379.17
670.81	435.34
670.95	458.74
671.09	458.74
671.23	447.04
671.37	433.00
671.51	461.09
671.65	461.09
671.79	411.93
671.93	409.59
672.07	486.83
672.21	463.43
672.35	430.66
672.49	388.53
672.63	428.32
672.77	440.02
672.91	423.64
673.05	400.23
673.19	381.51
673.33	458.74
673.47	503.22
673.61	435.34
673.75	360.44
673.89	407.25
674.03	433.00
674.17	472.79
674.31	456.40
674.45	372.15
674.59	388.53
674.73	369.80
674.87	430.66
675.01	440.02
675.15	418.96
675.29	486.83
675.43	423.64
675.56	374.49
675.70	447.04
675.84	477.47
675.98	456.40
676.12	498.53
676.26	416.62
676.40	400.23
676.54	493.85
676.68	383.85
676.82	416.62
676.96	477.47
677.10	463.43
677.23	435.34
677.37	325.33
677.51	313.63
677.65	498.53
677.79	383.85
677.93	348.74
678.07	325.33
678.21	341.72
678.34	442.36
678.48	430.66
678.62	433.00
678.76	468.11
678.90	414.27
679.04	360.44
679.18	418.96
679.31	390.87
679.45	386.19
679.59	433.00
679.73	458.74
679.87	397.89
680.00	404.91
680.14	416.62
680.28	423.64
680.42	327.68
680.56	404.91
680.70	416.62
680.83	435.34
680.97	404.91
681.11	383.85
681.25	458.74
681.39	433.00
681.52	430.66
681.66	423.64
681.80	404.91
681.94	414.27
682.07	428.32
682.21	468.11
682.35	449.38
682.49	381.51
682.62	456.40
682.76	437.68
682.90	358.10
683.04	358.10
683.17	442.36
683.31	362.78
683.45	447.04
683.59	414.27
683.72	477.47
683.86	418.96
684.00	479.81
684.13	414.27
684.27	451.72
684.41	425.98
684.55	465.77
684.68	430.66
684.82	449.38
684.96	425.98
685.09	416.62
685.23	400.23
685.37	386.19
685.50	449.38
685.64	404.91
685.78	346.40
685.91	449.38
686.05	454.06
686.19	428.32
686.32	411.93
686.46	381.51
686.60	367.46
686.73	423.64
686.87	433.00
687.01	325.33
687.14	414.27
687.28	416.62
687.42	416.62
687.55	423.64
687.69	430.66
687.82	418.96
687.96	454.06
688.10	430.66
688.23	454.06
688.37	447.04
688.50	440.02
688.64	442.36
688.78	360.44
688.91	402.57
689.05	407.25
689.18	425.98
689.32	402.57
689.46	418.96
689.59	430.66
689.73	411.93
689.86	360.44
690.00	477.47
690.13	374.49
690.27	409.59
690.41	390.87
690.54	407.25
690.68	414.27
690.81	425.98
690.95	416.62
691.08	461.09
691.22	451.72
691.35	414.27
691.49	423.64
691.62	374.49
691.76	449.38
691.89	369.80
692.03	421.30
692.16	409.59
692.30	444.70
692.43	477.47
692.57	369.80
692.70	425.98
692.84	425.98
692.97	369.80
693.11	463.43
693.24	397.89
693.38	409.59
693.51	472.79
693.65	418.96
693.78	414.27
693.92	430.66
694.05	486.83
694.19	414.27
694.32	425.98
694.45	393.21
694.59	365.12
694.72	379.17
694.86	383.85
694.99	449.38
695.13	430.66
695.26	411.93
695.39	433.00
695.53	388.53
695.66	388.53
695.80	421.30
695.93	456.40
696.07	402.57
696.20	430.66
696.33	416.62
696.47	388.53
696.60	524.28
696.73	486.83
696.87	451.72
697.00	447.04
697.14	430.66
697.27	423.64
697.40	479.81
697.54	374.49
697.67	425.98
697.80	437.68
697.94	437.68
698.07	428.32
698.21	411.93
698.34	411.93
698.47	404.91
698.61	458.74
698.74	437.68
698.87	435.34
699.01	449.38
699.14	393.21
699.27	449.38
699.40	528.96
699.54	393.21
699.67	456.40
699.80	440.02
699.94	376.83
700.07	414.27
700.20	437.68
700.34	470.45
700.47	348.74
700.60	421.30
700.73	360.44
700.87	444.70
701.00	437.68
701.13	430.66
701.26	404.91
701.40	376.83
701.53	381.51
701.66	393.21
701.79	433.00
701.93	362.78
702.06	416.62
702.19	400.23
702.32	360.44
702.46	433.00
702.59	372.15
702.72	435.34
702.85	351.08
702.99	430.66
703.12	454.06
703.25	351.08
703.38	435.34
703.51	437.68
703.65	397.89
703.78	435.34
703.91	360.44
704.04	470.45
704.17	397.89
704.31	454.06
704.44	397.89
704.57	395.55
704.70	440.02
704.83	421.30
704.96	416.62
705.10	447.04
705.23	428.32
>>>>>End Processed Spectral Data<<<<<
