SpectraSuite Data File
++++++++++++++++++++++++++++++++++++
Date: Fri Oct 25 12:11:00 EDT 2013
User: price-jones
Dark Spectrum Present: No
Reference Spectrum Present: No
Number of Sampled Component Spectra: 1
Spectrometers: USB2+H05261
Integration Time (usec): 100000 (USB2+H05261)
Spectra Averaged: 1 (USB2+H05261)
Boxcar Smoothing: 0 (USB2+H05261)
Correct for Electrical Dark: No (USB2+H05261)
Strobe/Lamp Enabled: No (USB2+H05261)
Correct for Detector Non-linearity: No (USB2+H05261)
Correct for Stray Light: No (USB2+H05261)
Number of Pixels in Processed Spectrum: 2048
>>>>>Begin Processed Spectral Data<<<<<
365.73	334.70
365.92	334.70
366.12	334.70
366.32	259.80
366.52	229.37
366.72	271.50
366.91	227.03
367.11	320.65
367.31	166.18
367.51	189.58
367.70	290.23
367.90	159.16
368.10	173.20
368.30	205.97
368.49	227.03
368.69	250.44
368.89	229.37
369.09	220.01
369.28	297.25
369.48	320.65
369.68	266.82
369.87	241.08
370.07	311.29
370.27	327.68
370.47	297.25
370.66	339.38
370.86	334.70
371.06	386.19
371.25	404.91
371.45	358.10
371.65	444.70
371.84	388.53
372.04	411.93
372.24	409.59
372.44	381.51
372.63	346.40
372.83	402.57
373.03	388.53
373.22	484.49
373.42	470.45
373.62	348.74
373.81	386.19
374.01	454.06
374.21	482.15
374.40	449.38
374.60	418.96
374.79	379.17
374.99	442.36
375.19	372.15
375.38	433.00
375.58	404.91
375.78	397.89
375.97	414.27
376.17	444.70
376.37	402.57
376.56	465.77
376.76	451.72
376.95	393.21
377.15	416.62
377.35	423.64
377.54	381.51
377.74	330.02
377.93	390.87
378.13	421.30
378.33	381.51
378.52	388.53
378.72	360.44
378.91	374.49
379.11	376.83
379.31	407.25
379.50	360.44
379.70	463.43
379.89	365.12
380.09	362.78
380.28	449.38
380.48	435.34
380.68	372.15
380.87	423.64
381.07	423.64
381.26	390.87
381.46	360.44
381.65	463.43
381.85	489.17
382.04	479.81
382.24	351.08
382.43	407.25
382.63	379.17
382.83	395.55
383.02	365.12
383.22	386.19
383.41	447.04
383.61	456.40
383.80	461.09
384.00	379.17
384.19	353.42
384.39	425.98
384.58	435.34
384.78	351.08
384.97	416.62
385.17	355.76
385.36	360.44
385.56	418.96
385.75	379.17
385.95	362.78
386.14	379.17
386.34	344.06
386.53	414.27
386.72	390.87
386.92	484.49
387.11	444.70
387.31	327.68
387.50	433.00
387.70	390.87
387.89	447.04
388.09	360.44
388.28	409.59
388.48	358.10
388.67	416.62
388.86	423.64
389.06	379.17
389.25	372.15
389.45	397.89
389.64	400.23
389.84	372.15
390.03	423.64
390.22	353.42
390.42	395.55
390.61	440.02
390.81	351.08
391.00	433.00
391.19	435.34
391.39	486.83
391.58	423.64
391.78	437.68
391.97	430.66
392.16	362.78
392.36	402.57
392.55	407.25
392.75	393.21
392.94	374.49
393.13	505.56
393.33	440.02
393.52	397.89
393.71	486.83
393.91	430.66
394.10	482.15
394.29	430.66
394.49	414.27
394.68	374.49
394.88	482.15
395.07	442.36
395.26	367.46
395.46	372.15
395.65	372.15
395.84	442.36
396.04	440.02
396.23	430.66
396.42	379.17
396.62	381.51
396.81	421.30
397.00	421.30
397.19	456.40
397.39	418.96
397.58	437.68
397.77	430.66
397.97	393.21
398.16	411.93
398.35	444.70
398.55	409.59
398.74	404.91
398.93	374.49
399.12	423.64
399.32	372.15
399.51	421.30
399.70	461.09
399.90	388.53
400.09	440.02
400.28	470.45
400.47	437.68
400.67	411.93
400.86	409.59
401.05	421.30
401.24	395.55
401.44	390.87
401.63	435.34
401.82	379.17
402.01	404.91
402.21	421.30
402.40	402.57
402.59	484.49
402.78	334.70
402.97	458.74
403.17	425.98
403.36	491.51
403.55	435.34
403.74	409.59
403.93	433.00
404.13	390.87
404.32	435.34
404.51	365.12
404.70	360.44
404.89	409.59
405.09	454.06
405.28	383.85
405.47	418.96
405.66	447.04
405.85	416.62
406.05	402.57
406.24	435.34
406.43	390.87
406.62	404.91
406.81	447.04
407.00	400.23
407.20	397.89
407.39	402.57
407.58	411.93
407.77	435.34
407.96	456.40
408.15	440.02
408.34	372.15
408.54	437.68
408.73	376.83
408.92	479.81
409.11	463.43
409.30	376.83
409.49	341.72
409.68	383.85
409.87	404.91
410.07	418.96
410.26	451.72
410.45	423.64
410.64	418.96
410.83	463.43
411.02	447.04
411.21	402.57
411.40	402.57
411.59	404.91
411.78	440.02
411.98	381.51
412.17	423.64
412.36	400.23
412.55	390.87
412.74	409.59
412.93	447.04
413.12	414.27
413.31	376.83
413.50	386.19
413.69	451.72
413.88	458.74
414.07	346.40
414.26	386.19
414.45	369.80
414.64	437.68
414.83	437.68
415.02	416.62
415.22	367.46
415.41	461.09
415.60	388.53
415.79	390.87
415.98	381.51
416.17	369.80
416.36	423.64
416.55	360.44
416.74	421.30
416.93	390.87
417.12	407.25
417.31	496.19
417.50	355.76
417.69	442.36
417.88	372.15
418.07	447.04
418.26	407.25
418.45	500.87
418.64	458.74
418.83	456.40
419.02	433.00
419.21	491.51
419.39	421.30
419.58	346.40
419.77	374.49
419.96	390.87
420.15	433.00
420.34	386.19
420.53	358.10
420.72	386.19
420.91	409.59
421.10	379.17
421.29	407.25
421.48	346.40
421.67	414.27
421.86	358.10
422.05	479.81
422.24	400.23
422.43	379.17
422.61	372.15
422.80	447.04
422.99	458.74
423.18	416.62
423.37	425.98
423.56	428.32
423.75	449.38
423.94	397.89
424.13	390.87
424.32	430.66
424.50	376.83
424.69	404.91
424.88	428.32
425.07	444.70
425.26	423.64
425.45	437.68
425.64	388.53
425.83	369.80
426.01	421.30
426.20	454.06
426.39	442.36
426.58	449.38
426.77	433.00
426.96	374.49
427.15	390.87
427.33	397.89
427.52	402.57
427.71	407.25
427.90	418.96
428.09	437.68
428.28	341.72
428.46	411.93
428.65	397.89
428.84	374.49
429.03	437.68
429.22	376.83
429.40	344.06
429.59	358.10
429.78	411.93
429.97	472.79
430.16	425.98
430.34	339.38
430.53	416.62
430.72	379.17
430.91	423.64
431.10	407.25
431.28	409.59
431.47	383.85
431.66	447.04
431.85	475.13
432.03	383.85
432.22	397.89
432.41	332.36
432.60	372.15
432.79	402.57
432.97	367.46
433.16	430.66
433.35	430.66
433.54	402.57
433.72	367.46
433.91	435.34
434.10	400.23
434.28	397.89
434.47	465.77
434.66	433.00
434.85	395.55
435.03	383.85
435.22	456.40
435.41	505.56
435.59	416.62
435.78	393.21
435.97	407.25
436.16	407.25
436.34	402.57
436.53	423.64
436.72	437.68
436.90	404.91
437.09	383.85
437.28	411.93
437.46	475.13
437.65	358.10
437.84	449.38
438.02	430.66
438.21	437.68
438.40	386.19
438.58	416.62
438.77	421.30
438.96	425.98
439.14	465.77
439.33	468.11
439.52	433.00
439.70	444.70
439.89	486.83
440.08	437.68
440.26	362.78
440.45	416.62
440.63	428.32
440.82	437.68
441.01	360.44
441.19	423.64
441.38	414.27
441.57	395.55
441.75	409.59
441.94	397.89
442.12	407.25
442.31	411.93
442.50	390.87
442.68	461.09
442.87	397.89
443.05	423.64
443.24	386.19
443.43	430.66
443.61	458.74
443.80	428.32
443.98	402.57
444.17	461.09
444.35	430.66
444.54	465.77
444.73	407.25
444.91	451.72
445.10	395.55
445.28	400.23
445.47	447.04
445.65	381.51
445.84	428.32
446.02	451.72
446.21	386.19
446.39	388.53
446.58	423.64
446.77	332.36
446.95	425.98
447.14	421.30
447.32	369.80
447.51	334.70
447.69	414.27
447.88	428.32
448.06	482.15
448.25	421.30
448.43	425.98
448.62	383.85
448.80	344.06
448.99	383.85
449.17	442.36
449.36	468.11
449.54	386.19
449.73	362.78
449.91	423.64
450.10	383.85
450.28	423.64
450.46	379.17
450.65	400.23
450.83	423.64
451.02	414.27
451.20	423.64
451.39	381.51
451.57	379.17
451.76	365.12
451.94	421.30
452.13	418.96
452.31	416.62
452.49	393.21
452.68	390.87
452.86	402.57
453.05	451.72
453.23	456.40
453.42	393.21
453.60	367.46
453.78	355.76
453.97	390.87
454.15	390.87
454.34	379.17
454.52	374.49
454.70	440.02
454.89	395.55
455.07	388.53
455.26	433.00
455.44	407.25
455.62	416.62
455.81	397.89
455.99	428.32
456.17	463.43
456.36	348.74
456.54	369.80
456.73	330.02
456.91	379.17
457.09	402.57
457.28	421.30
457.46	425.98
457.64	409.59
457.83	454.06
458.01	386.19
458.19	334.70
458.38	372.15
458.56	440.02
458.74	416.62
458.93	416.62
459.11	411.93
459.29	407.25
459.48	423.64
459.66	395.55
459.84	395.55
460.03	397.89
460.21	393.21
460.39	393.21
460.57	400.23
460.76	388.53
460.94	381.51
461.12	407.25
461.31	400.23
461.49	414.27
461.67	351.08
461.85	425.98
462.04	397.89
462.22	559.39
462.40	461.09
462.59	477.47
462.77	411.93
462.95	465.77
463.13	437.68
463.32	411.93
463.50	390.87
463.68	404.91
463.86	423.64
464.05	444.70
464.23	414.27
464.41	447.04
464.59	414.27
464.78	456.40
464.96	458.74
465.14	383.85
465.32	433.00
465.50	428.32
465.69	510.24
465.87	411.93
466.05	458.74
466.23	414.27
466.41	337.04
466.60	383.85
466.78	433.00
466.96	428.32
467.14	454.06
467.32	482.15
467.51	327.68
467.69	409.59
467.87	369.80
468.05	444.70
468.23	489.17
468.41	479.81
468.60	383.85
468.78	383.85
468.96	507.90
469.14	433.00
469.32	470.45
469.50	386.19
469.69	458.74
469.87	402.57
470.05	400.23
470.23	409.59
470.41	437.68
470.59	400.23
470.77	404.91
470.95	407.25
471.14	449.38
471.32	418.96
471.50	372.15
471.68	358.10
471.86	374.49
472.04	365.12
472.22	411.93
472.40	423.64
472.58	367.46
472.77	372.15
472.95	433.00
473.13	517.26
473.31	402.57
473.49	362.78
473.67	418.96
473.85	456.40
474.03	367.46
474.21	400.23
474.39	447.04
474.57	411.93
474.75	369.80
474.93	397.89
475.12	418.96
475.30	444.70
475.48	428.32
475.66	463.43
475.84	423.64
476.02	407.25
476.20	491.51
476.38	458.74
476.56	451.72
476.74	484.49
476.92	428.32
477.10	421.30
477.28	423.64
477.46	465.77
477.64	379.17
477.82	435.34
478.00	381.51
478.18	421.30
478.36	411.93
478.54	437.68
478.72	416.62
478.90	418.96
479.08	449.38
479.26	421.30
479.44	418.96
479.62	381.51
479.80	344.06
479.98	360.44
480.16	451.72
480.34	369.80
480.52	381.51
480.70	477.47
480.88	386.19
481.06	348.74
481.24	435.34
481.41	470.45
481.59	411.93
481.77	416.62
481.95	404.91
482.13	395.55
482.31	416.62
482.49	353.42
482.67	390.87
482.85	423.64
483.03	376.83
483.21	416.62
483.39	353.42
483.57	411.93
483.74	442.36
483.92	484.49
484.10	348.74
484.28	416.62
484.46	402.57
484.64	456.40
484.82	425.98
485.00	393.21
485.18	376.83
485.35	404.91
485.53	433.00
485.71	463.43
485.89	447.04
486.07	376.83
486.25	498.53
486.43	400.23
486.61	454.06
486.78	456.40
486.96	358.10
487.14	395.55
487.32	456.40
487.50	418.96
487.68	390.87
487.85	379.17
488.03	414.27
488.21	393.21
488.39	416.62
488.57	411.93
488.75	451.72
488.92	496.19
489.10	388.53
489.28	400.23
489.46	416.62
489.64	442.36
489.81	444.70
489.99	411.93
490.17	383.85
490.35	491.51
490.53	358.10
490.70	500.87
490.88	400.23
491.06	355.76
491.24	447.04
491.41	416.62
491.59	430.66
491.77	360.44
491.95	423.64
492.13	400.23
492.30	395.55
492.48	437.68
492.66	390.87
492.84	341.72
493.01	402.57
493.19	435.34
493.37	430.66
493.54	465.77
493.72	369.80
493.90	374.49
494.08	418.96
494.25	369.80
494.43	433.00
494.61	393.21
494.79	430.66
494.96	428.32
495.14	388.53
495.32	421.30
495.49	376.83
495.67	421.30
495.85	444.70
496.02	416.62
496.20	444.70
496.38	428.32
496.55	414.27
496.73	463.43
496.91	369.80
497.09	379.17
497.26	440.02
497.44	369.80
497.62	425.98
497.79	397.89
497.97	437.68
498.14	489.17
498.32	428.32
498.50	327.68
498.67	440.02
498.85	395.55
499.03	369.80
499.20	407.25
499.38	400.23
499.56	444.70
499.73	489.17
499.91	425.98
500.08	393.21
500.26	491.51
500.44	404.91
500.61	425.98
500.79	421.30
500.97	454.06
501.14	416.62
501.32	362.78
501.49	489.17
501.67	449.38
501.84	444.70
502.02	376.83
502.20	395.55
502.37	444.70
502.55	404.91
502.72	388.53
502.90	311.29
503.07	461.09
503.25	402.57
503.43	498.53
503.60	421.30
503.78	402.57
503.95	383.85
504.13	407.25
504.30	411.93
504.48	421.30
504.65	435.34
504.83	428.32
505.01	409.59
505.18	411.93
505.36	381.51
505.53	381.51
505.71	365.12
505.88	463.43
506.06	430.66
506.23	451.72
506.41	390.87
506.58	376.83
506.76	386.19
506.93	381.51
507.11	388.53
507.28	444.70
507.46	409.59
507.63	402.57
507.81	339.38
507.98	468.11
508.16	386.19
508.33	465.77
508.50	454.06
508.68	411.93
508.85	428.32
509.03	367.46
509.20	374.49
509.38	402.57
509.55	393.21
509.73	440.02
509.90	381.51
510.08	383.85
510.25	407.25
510.42	367.46
510.60	395.55
510.77	442.36
510.95	463.43
511.12	383.85
511.30	372.15
511.47	454.06
511.64	360.44
511.82	449.38
511.99	304.27
512.17	372.15
512.34	430.66
512.51	414.27
512.69	388.53
512.86	400.23
513.04	395.55
513.21	395.55
513.38	430.66
513.56	355.76
513.73	374.49
513.90	367.46
514.08	374.49
514.25	425.98
514.43	365.12
514.60	393.21
514.77	367.46
514.95	437.68
515.12	409.59
515.29	388.53
515.47	400.23
515.64	425.98
515.81	411.93
515.99	407.25
516.16	425.98
516.33	447.04
516.51	351.08
516.68	386.19
516.85	428.32
517.03	425.98
517.20	414.27
517.37	547.69
517.54	461.09
517.72	379.17
517.89	449.38
518.06	416.62
518.24	517.26
518.41	543.00
518.58	433.00
518.75	416.62
518.93	524.28
519.10	390.87
519.27	421.30
519.45	409.59
519.62	489.17
519.79	489.17
519.96	421.30
520.14	425.98
520.31	374.49
520.48	351.08
520.65	435.34
520.83	374.49
521.00	379.17
521.17	379.17
521.34	444.70
521.52	447.04
521.69	456.40
521.86	440.02
522.03	390.87
522.20	500.87
522.38	402.57
522.55	395.55
522.72	404.91
522.89	411.93
523.07	442.36
523.24	376.83
523.41	418.96
523.58	447.04
523.75	418.96
523.92	416.62
524.10	465.77
524.27	397.89
524.44	386.19
524.61	463.43
524.78	337.04
524.96	489.17
525.13	386.19
525.30	456.40
525.47	383.85
525.64	393.21
525.81	454.06
525.98	425.98
526.16	440.02
526.33	397.89
526.50	409.59
526.67	390.87
526.84	498.53
527.01	374.49
527.18	496.19
527.36	379.17
527.53	365.12
527.70	390.87
527.87	430.66
528.04	444.70
528.21	360.44
528.38	470.45
528.55	414.27
528.72	414.27
528.89	514.92
529.07	400.23
529.24	435.34
529.41	435.34
529.58	444.70
529.75	386.19
529.92	486.83
530.09	393.21
530.26	428.32
530.43	442.36
530.60	383.85
530.77	409.59
530.94	381.51
531.11	451.72
531.28	423.64
531.46	365.12
531.63	402.57
531.80	465.77
531.97	465.77
532.14	442.36
532.31	440.02
532.48	409.59
532.65	393.21
532.82	388.53
532.99	437.68
533.16	360.44
533.33	444.70
533.50	421.30
533.67	423.64
533.84	437.68
534.01	409.59
534.18	395.55
534.35	318.31
534.52	400.23
534.69	404.91
534.86	376.83
535.03	393.21
535.20	411.93
535.37	421.30
535.54	386.19
535.71	440.02
535.88	482.15
536.05	414.27
536.22	524.28
536.38	409.59
536.55	433.00
536.72	362.78
536.89	393.21
537.06	409.59
537.23	411.93
537.40	444.70
537.57	388.53
537.74	463.43
537.91	383.85
538.08	337.04
538.25	374.49
538.42	348.74
538.59	456.40
538.75	402.57
538.92	404.91
539.09	409.59
539.26	447.04
539.43	468.11
539.60	454.06
539.77	423.64
539.94	416.62
540.11	430.66
540.28	470.45
540.44	461.09
540.61	421.30
540.78	437.68
540.95	351.08
541.12	440.02
541.29	428.32
541.46	463.43
541.62	435.34
541.79	472.79
541.96	421.30
542.13	437.68
542.30	447.04
542.47	503.22
542.63	407.25
542.80	533.64
542.97	475.13
543.14	519.60
543.31	468.11
543.48	367.46
543.64	468.11
543.81	381.51
543.98	458.74
544.15	409.59
544.32	496.19
544.48	411.93
544.65	486.83
544.82	477.47
544.99	369.80
545.16	404.91
545.32	411.93
545.49	367.46
545.66	472.79
545.83	372.15
546.00	369.80
546.16	390.87
546.33	386.19
546.50	435.34
546.67	505.56
546.83	379.17
547.00	440.02
547.17	428.32
547.34	449.38
547.50	416.62
547.67	397.89
547.84	365.12
548.00	390.87
548.17	341.72
548.34	365.12
548.51	430.66
548.67	456.40
548.84	468.11
549.01	425.98
549.18	437.68
549.34	538.32
549.51	397.89
549.68	470.45
549.84	468.11
550.01	465.77
550.18	486.83
550.34	404.91
550.51	442.36
550.68	477.47
550.84	479.81
551.01	458.74
551.18	440.02
551.34	348.74
551.51	376.83
551.68	397.89
551.84	414.27
552.01	461.09
552.18	444.70
552.34	433.00
552.51	444.70
552.68	451.72
552.84	449.38
553.01	458.74
553.18	423.64
553.34	475.13
553.51	390.87
553.67	472.79
553.84	418.96
554.01	430.66
554.17	465.77
554.34	442.36
554.51	395.55
554.67	465.77
554.84	390.87
555.00	444.70
555.17	435.34
555.33	437.68
555.50	472.79
555.67	416.62
555.83	409.59
556.00	381.51
556.16	566.41
556.33	456.40
556.50	433.00
556.66	414.27
556.83	444.70
556.99	411.93
557.16	390.87
557.32	465.77
557.49	435.34
557.65	461.09
557.82	444.70
557.98	433.00
558.15	348.74
558.32	390.87
558.48	447.04
558.65	423.64
558.81	461.09
558.98	456.40
559.14	421.30
559.31	372.15
559.47	418.96
559.64	454.06
559.80	411.93
559.97	435.34
560.13	423.64
560.30	362.78
560.46	379.17
560.63	454.06
560.79	372.15
560.96	400.23
561.12	421.30
561.29	390.87
561.45	449.38
561.61	416.62
561.78	543.00
561.94	386.19
562.11	421.30
562.27	414.27
562.44	442.36
562.60	421.30
562.77	468.11
562.93	407.25
563.10	409.59
563.26	475.13
563.42	444.70
563.59	397.89
563.75	360.44
563.92	341.72
564.08	348.74
564.24	367.46
564.41	444.70
564.57	482.15
564.74	444.70
564.90	461.09
565.07	411.93
565.23	421.30
565.39	470.45
565.56	430.66
565.72	428.32
565.88	435.34
566.05	451.72
566.21	379.17
566.38	482.15
566.54	437.68
566.70	365.12
566.87	416.62
567.03	402.57
567.19	428.32
567.36	400.23
567.52	280.86
567.68	409.59
567.85	409.59
568.01	372.15
568.17	397.89
568.34	454.06
568.50	376.83
568.66	435.34
568.83	433.00
568.99	451.72
569.15	451.72
569.32	421.30
569.48	461.09
569.64	404.91
569.81	379.17
569.97	421.30
570.13	437.68
570.30	458.74
570.46	372.15
570.62	505.56
570.78	383.85
570.95	430.66
571.11	461.09
571.27	442.36
571.43	442.36
571.60	456.40
571.76	425.98
571.92	468.11
572.09	472.79
572.25	461.09
572.41	404.91
572.57	348.74
572.74	409.59
572.90	472.79
573.06	388.53
573.22	407.25
573.38	435.34
573.55	472.79
573.71	454.06
573.87	442.36
574.03	411.93
574.20	437.68
574.36	414.27
574.52	381.51
574.68	465.77
574.84	435.34
575.01	386.19
575.17	416.62
575.33	376.83
575.49	454.06
575.65	430.66
575.82	414.27
575.98	372.15
576.14	414.27
576.30	475.13
576.46	388.53
576.62	447.04
576.79	411.93
576.95	433.00
577.11	421.30
577.27	447.04
577.43	407.25
577.59	402.57
577.75	416.62
577.92	369.80
578.08	390.87
578.24	393.21
578.40	433.00
578.56	423.64
578.72	458.74
578.88	414.27
579.04	390.87
579.21	395.55
579.37	411.93
579.53	437.68
579.69	407.25
579.85	454.06
580.01	404.91
580.17	334.70
580.33	393.21
580.49	430.66
580.65	433.00
580.82	423.64
580.98	402.57
581.14	428.32
581.30	407.25
581.46	442.36
581.62	397.89
581.78	388.53
581.94	437.68
582.10	395.55
582.26	390.87
582.42	409.59
582.58	402.57
582.74	418.96
582.90	372.15
583.06	491.51
583.22	416.62
583.38	374.49
583.54	430.66
583.70	430.66
583.86	386.19
584.02	423.64
584.18	447.04
584.34	409.59
584.50	461.09
584.66	414.27
584.82	461.09
584.98	428.32
585.14	400.23
585.30	435.34
585.46	475.13
585.62	411.93
585.78	477.47
585.94	444.70
586.10	482.15
586.26	433.00
586.42	402.57
586.58	404.91
586.74	444.70
586.90	416.62
587.06	395.55
587.22	440.02
587.38	404.91
587.54	395.55
587.70	435.34
587.86	376.83
588.02	482.15
588.18	430.66
588.34	442.36
588.49	416.62
588.65	435.34
588.81	409.59
588.97	374.49
589.13	437.68
589.29	425.98
589.45	454.06
589.61	414.27
589.77	414.27
589.93	386.19
590.08	332.36
590.24	369.80
590.40	386.19
590.56	470.45
590.72	444.70
590.88	456.40
591.04	386.19
591.20	395.55
591.35	447.04
591.51	383.85
591.67	416.62
591.83	381.51
591.99	440.02
592.15	430.66
592.31	451.72
592.46	414.27
592.62	425.98
592.78	376.83
592.94	402.57
593.10	418.96
593.26	400.23
593.41	397.89
593.57	428.32
593.73	463.43
593.89	428.32
594.05	407.25
594.20	402.57
594.36	423.64
594.52	348.74
594.68	444.70
594.84	400.23
594.99	435.34
595.15	437.68
595.31	372.15
595.47	414.27
595.62	451.72
595.78	437.68
595.94	407.25
596.10	440.02
596.25	414.27
596.41	486.83
596.57	411.93
596.73	430.66
596.88	404.91
597.04	489.17
597.20	428.32
597.36	421.30
597.51	400.23
597.67	442.36
597.83	402.57
597.99	355.76
598.14	421.30
598.30	463.43
598.46	416.62
598.61	409.59
598.77	355.76
598.93	332.36
599.09	447.04
599.24	470.45
599.40	416.62
599.56	372.15
599.71	386.19
599.87	416.62
600.03	390.87
600.18	477.47
600.34	416.62
600.50	353.42
600.65	388.53
600.81	397.89
600.97	386.19
601.12	383.85
601.28	374.49
601.44	507.90
601.59	388.53
601.75	421.30
601.91	409.59
602.06	444.70
602.22	507.90
602.37	421.30
602.53	430.66
602.69	430.66
602.84	402.57
603.00	376.83
603.16	440.02
603.31	404.91
603.47	468.11
603.62	411.93
603.78	416.62
603.94	444.70
604.09	376.83
604.25	404.91
604.40	444.70
604.56	395.55
604.71	402.57
604.87	428.32
605.03	341.72
605.18	479.81
605.34	386.19
605.49	395.55
605.65	386.19
605.80	369.80
605.96	395.55
606.12	374.49
606.27	451.72
606.43	437.68
606.58	430.66
606.74	414.27
606.89	463.43
607.05	360.44
607.20	418.96
607.36	475.13
607.51	421.30
607.67	423.64
607.82	435.34
607.98	458.74
608.13	447.04
608.29	388.53
608.44	383.85
608.60	390.87
608.75	451.72
608.91	442.36
609.06	404.91
609.22	390.87
609.37	395.55
609.53	472.79
609.68	407.25
609.84	468.11
609.99	325.33
610.15	386.19
610.30	430.66
610.46	390.87
610.61	435.34
610.76	390.87
610.92	433.00
611.07	400.23
611.23	440.02
611.38	409.59
611.54	440.02
611.69	362.78
611.84	400.23
612.00	381.51
612.15	463.43
612.31	404.91
612.46	414.27
612.62	362.78
612.77	411.93
612.92	411.93
613.08	402.57
613.23	418.96
613.39	433.00
613.54	411.93
613.69	416.62
613.85	463.43
614.00	348.74
614.15	397.89
614.31	440.02
614.46	407.25
614.62	376.83
614.77	407.25
614.92	376.83
615.08	386.19
615.23	402.57
615.38	411.93
615.54	449.38
615.69	517.26
615.84	414.27
616.00	435.34
616.15	390.87
616.30	444.70
616.46	496.19
616.61	449.38
616.76	425.98
616.92	383.85
617.07	395.55
617.22	365.12
617.37	475.13
617.53	440.02
617.68	425.98
617.83	421.30
617.99	449.38
618.14	463.43
618.29	393.21
618.45	472.79
618.60	369.80
618.75	372.15
618.90	425.98
619.06	472.79
619.21	505.56
619.36	433.00
619.51	365.12
619.67	395.55
619.82	449.38
619.97	449.38
620.12	376.83
620.28	463.43
620.43	435.34
620.58	395.55
620.73	400.23
620.89	402.57
621.04	376.83
621.19	402.57
621.34	430.66
621.49	430.66
621.65	393.21
621.80	411.93
621.95	395.55
622.10	454.06
622.25	402.57
622.41	472.79
622.56	341.72
622.71	454.06
622.86	421.30
623.01	379.17
623.16	383.85
623.32	390.87
623.47	367.46
623.62	423.64
623.77	400.23
623.92	315.97
624.07	430.66
624.23	344.06
624.38	381.51
624.53	332.36
624.68	407.25
624.83	454.06
624.98	390.87
625.13	393.21
625.29	444.70
625.44	376.83
625.59	386.19
625.74	332.36
625.89	409.59
626.04	395.55
626.19	421.30
626.34	381.51
626.49	395.55
626.65	351.08
626.80	407.25
626.95	404.91
627.10	437.68
627.25	435.34
627.40	475.13
627.55	454.06
627.70	456.40
627.85	418.96
628.00	489.17
628.15	479.81
628.30	456.40
628.45	379.17
628.60	367.46
628.76	458.74
628.91	332.36
629.06	411.93
629.21	400.23
629.36	390.87
629.51	299.59
629.66	376.83
629.81	390.87
629.96	358.10
630.11	447.04
630.26	435.34
630.41	397.89
630.56	451.72
630.71	386.19
630.86	496.19
631.01	407.25
631.16	383.85
631.31	442.36
631.46	440.02
631.61	470.45
631.76	367.46
631.91	444.70
632.06	379.17
632.21	425.98
632.36	423.64
632.51	407.25
632.66	449.38
632.81	386.19
632.96	428.32
633.10	365.12
633.25	423.64
633.40	442.36
633.55	437.68
633.70	416.62
633.85	407.25
634.00	418.96
634.15	423.64
634.30	360.44
634.45	440.02
634.60	421.30
634.75	433.00
634.90	421.30
635.05	414.27
635.19	409.59
635.34	440.02
635.49	454.06
635.64	435.34
635.79	360.44
635.94	416.62
636.09	470.45
636.24	353.42
636.39	430.66
636.53	456.40
636.68	418.96
636.83	374.49
636.98	496.19
637.13	411.93
637.28	421.30
637.43	470.45
637.57	454.06
637.72	416.62
637.87	435.34
638.02	458.74
638.17	346.40
638.32	470.45
638.46	486.83
638.61	428.32
638.76	407.25
638.91	379.17
639.06	437.68
639.20	395.55
639.35	414.27
639.50	341.72
639.65	397.89
639.80	475.13
639.94	404.91
640.09	428.32
640.24	344.06
640.39	411.93
640.54	428.32
640.68	482.15
640.83	486.83
640.98	470.45
641.13	393.21
641.27	430.66
641.42	468.11
641.57	444.70
641.72	332.36
641.86	468.11
642.01	449.38
642.16	390.87
642.31	463.43
642.45	472.79
642.60	402.57
642.75	428.32
642.90	526.62
643.04	444.70
643.19	425.98
643.34	330.02
643.48	411.93
643.63	411.93
643.78	472.79
643.93	517.26
644.07	402.57
644.22	468.11
644.37	374.49
644.51	454.06
644.66	430.66
644.81	421.30
644.95	505.56
645.10	411.93
645.25	430.66
645.39	482.15
645.54	416.62
645.69	423.64
645.83	414.27
645.98	444.70
646.13	400.23
646.27	421.30
646.42	369.80
646.57	397.89
646.71	435.34
646.86	365.12
647.00	360.44
647.15	477.47
647.30	407.25
647.44	440.02
647.59	416.62
647.74	376.83
647.88	421.30
648.03	381.51
648.17	468.11
648.32	404.91
648.47	433.00
648.61	421.30
648.76	458.74
648.90	440.02
649.05	374.49
649.20	449.38
649.34	400.23
649.49	346.40
649.63	416.62
649.78	374.49
649.92	437.68
650.07	442.36
650.21	430.66
650.36	461.09
650.51	475.13
650.65	418.96
650.80	423.64
650.94	407.25
651.09	409.59
651.23	400.23
651.38	395.55
651.52	381.51
651.67	444.70
651.81	430.66
651.96	404.91
652.10	369.80
652.25	400.23
652.39	465.77
652.54	397.89
652.68	400.23
652.83	433.00
652.97	472.79
653.12	353.42
653.26	465.77
653.41	458.74
653.55	437.68
653.70	313.63
653.84	425.98
653.99	435.34
654.13	451.72
654.27	409.59
654.42	365.12
654.56	428.32
654.71	498.53
654.85	421.30
655.00	449.38
655.14	390.87
655.29	400.23
655.43	379.17
655.57	444.70
655.72	451.72
655.86	454.06
656.01	397.89
656.15	428.32
656.30	449.38
656.44	465.77
656.58	395.55
656.73	402.57
656.87	397.89
657.01	428.32
657.16	395.55
657.30	463.43
657.45	451.72
657.59	454.06
657.73	381.51
657.88	383.85
658.02	491.51
658.16	402.57
658.31	395.55
658.45	421.30
658.60	416.62
658.74	428.32
658.88	402.57
659.03	402.57
659.17	402.57
659.31	400.23
659.46	397.89
659.60	475.13
659.74	418.96
659.89	402.57
660.03	395.55
660.17	500.87
660.32	521.94
660.46	433.00
660.60	339.38
660.74	397.89
660.89	358.10
661.03	388.53
661.17	386.19
661.32	454.06
661.46	404.91
661.60	472.79
661.74	416.62
661.89	486.83
662.03	402.57
662.17	416.62
662.31	421.30
662.46	421.30
662.60	365.12
662.74	437.68
662.88	386.19
663.03	390.87
663.17	388.53
663.31	402.57
663.45	393.21
663.60	362.78
663.74	381.51
663.88	393.21
664.02	386.19
664.17	416.62
664.31	416.62
664.45	379.17
664.59	395.55
664.73	407.25
664.88	390.87
665.02	428.32
665.16	372.15
665.30	423.64
665.44	402.57
665.59	407.25
665.73	421.30
665.87	447.04
666.01	327.68
666.15	372.15
666.29	369.80
666.44	433.00
666.58	486.83
666.72	402.57
666.86	465.77
667.00	454.06
667.14	386.19
667.28	411.93
667.43	360.44
667.57	355.76
667.71	444.70
667.85	341.72
667.99	379.17
668.13	430.66
668.27	433.00
668.41	418.96
668.56	369.80
668.70	416.62
668.84	477.47
668.98	416.62
669.12	390.87
669.26	372.15
669.40	491.51
669.54	383.85
669.68	458.74
669.82	372.15
669.96	442.36
670.10	397.89
670.25	393.21
670.39	358.10
670.53	470.45
670.67	418.96
670.81	400.23
670.95	404.91
671.09	409.59
671.23	423.64
671.37	409.59
671.51	393.21
671.65	404.91
671.79	369.80
671.93	386.19
672.07	489.17
672.21	442.36
672.35	447.04
672.49	376.83
672.63	400.23
672.77	442.36
672.91	425.98
673.05	416.62
673.19	425.98
673.33	482.15
673.47	454.06
673.61	447.04
673.75	458.74
673.89	402.57
674.03	440.02
674.17	414.27
674.31	386.19
674.45	404.91
674.59	477.47
674.73	437.68
674.87	442.36
675.01	390.87
675.15	416.62
675.29	411.93
675.43	437.68
675.56	444.70
675.70	482.15
675.84	472.79
675.98	379.17
676.12	409.59
676.26	449.38
676.40	301.93
676.54	397.89
676.68	433.00
676.82	414.27
676.96	383.85
677.10	447.04
677.23	465.77
677.37	393.21
677.51	301.93
677.65	484.49
677.79	383.85
677.93	409.59
678.07	393.21
678.21	402.57
678.34	360.44
678.48	407.25
678.62	451.72
678.76	414.27
678.90	425.98
679.04	477.47
679.18	353.42
679.31	437.68
679.45	397.89
679.59	379.17
679.73	369.80
679.87	433.00
680.00	428.32
680.14	400.23
680.28	402.57
680.42	388.53
680.56	320.65
680.70	367.46
680.83	479.81
680.97	435.34
681.11	428.32
681.25	435.34
681.39	360.44
681.52	344.06
681.66	304.27
681.80	416.62
681.94	418.96
682.07	440.02
682.21	395.55
682.35	404.91
682.49	421.30
682.62	381.51
682.76	362.78
682.90	411.93
683.04	472.79
683.17	360.44
683.31	428.32
683.45	433.00
683.59	451.72
683.72	397.89
683.86	428.32
684.00	360.44
684.13	435.34
684.27	468.11
684.41	498.53
684.55	489.17
684.68	423.64
684.82	390.87
684.96	416.62
685.09	442.36
685.23	402.57
685.37	430.66
685.50	397.89
685.64	433.00
685.78	416.62
685.91	465.77
686.05	421.30
686.19	454.06
686.32	435.34
686.46	421.30
686.60	414.27
686.73	444.70
686.87	416.62
687.01	456.40
687.14	425.98
687.28	418.96
687.42	458.74
687.55	442.36
687.69	461.09
687.82	369.80
687.96	411.93
688.10	449.38
688.23	402.57
688.37	444.70
688.50	458.74
688.64	458.74
688.78	404.91
688.91	458.74
689.05	353.42
689.18	433.00
689.32	461.09
689.46	390.87
689.59	454.06
689.73	519.60
689.86	472.79
690.00	379.17
690.13	386.19
690.27	369.80
690.41	461.09
690.54	440.02
690.68	404.91
690.81	390.87
690.95	374.49
691.08	414.27
691.22	362.78
691.35	440.02
691.49	365.12
691.62	395.55
691.76	458.74
691.89	458.74
692.03	414.27
692.16	390.87
692.30	430.66
692.43	423.64
692.57	402.57
692.70	383.85
692.84	491.51
692.97	454.06
693.11	479.81
693.24	414.27
693.38	407.25
693.51	383.85
693.65	383.85
693.78	479.81
693.92	353.42
694.05	397.89
694.19	430.66
694.32	362.78
694.45	400.23
694.59	411.93
694.72	465.77
694.86	367.46
694.99	409.59
695.13	407.25
695.26	381.51
695.39	400.23
695.53	461.09
695.66	418.96
695.80	360.44
695.93	365.12
696.07	447.04
696.20	430.66
696.33	428.32
696.47	449.38
696.60	393.21
696.73	458.74
696.87	435.34
697.00	465.77
697.14	400.23
697.27	428.32
697.40	524.28
697.54	376.83
697.67	486.83
697.80	393.21
697.94	372.15
698.07	425.98
698.21	491.51
698.34	390.87
698.47	388.53
698.61	376.83
698.74	395.55
698.87	461.09
699.01	414.27
699.14	409.59
699.27	463.43
699.40	475.13
699.54	334.70
699.67	390.87
699.80	421.30
699.94	430.66
700.07	402.57
700.20	400.23
700.34	346.40
700.47	402.57
700.60	395.55
700.73	418.96
700.87	393.21
701.00	482.15
701.13	402.57
701.26	440.02
701.40	409.59
701.53	383.85
701.66	444.70
701.79	447.04
701.93	440.02
702.06	414.27
702.19	351.08
702.32	365.12
702.46	407.25
702.59	423.64
702.72	395.55
702.85	409.59
702.99	395.55
703.12	388.53
703.25	456.40
703.38	402.57
703.51	423.64
703.65	388.53
703.78	344.06
703.91	353.42
704.04	418.96
704.17	414.27
704.31	409.59
704.44	428.32
704.57	369.80
704.70	404.91
704.83	386.19
704.96	395.55
705.10	428.32
705.23	411.93
>>>>>End Processed Spectral Data<<<<<
