SpectraSuite Data File
++++++++++++++++++++++++++++++++++++
Date: Fri Oct 25 12:10:29 EDT 2013
User: price-jones
Dark Spectrum Present: No
Reference Spectrum Present: No
Number of Sampled Component Spectra: 1
Spectrometers: USB2+H05261
Integration Time (usec): 100000 (USB2+H05261)
Spectra Averaged: 1 (USB2+H05261)
Boxcar Smoothing: 0 (USB2+H05261)
Correct for Electrical Dark: No (USB2+H05261)
Strobe/Lamp Enabled: No (USB2+H05261)
Correct for Detector Non-linearity: No (USB2+H05261)
Correct for Stray Light: No (USB2+H05261)
Number of Pixels in Processed Spectrum: 2048
>>>>>Begin Processed Spectral Data<<<<<
365.73	346.40
365.92	346.40
366.12	346.40
366.32	332.36
366.52	198.95
366.72	212.99
366.91	173.20
367.11	276.18
367.31	234.05
367.51	222.35
367.70	236.39
367.90	238.73
368.10	184.90
368.30	222.35
368.49	259.80
368.69	262.14
368.89	245.76
369.09	236.39
369.28	217.67
369.48	217.67
369.68	294.91
369.87	283.20
370.07	280.86
370.27	292.57
370.47	304.27
370.66	330.02
370.86	388.53
371.06	404.91
371.25	369.80
371.45	388.53
371.65	400.23
371.84	346.40
372.04	402.57
372.24	320.65
372.44	362.78
372.63	360.44
372.83	372.15
373.03	367.46
373.22	386.19
373.42	402.57
373.62	423.64
373.81	442.36
374.01	355.76
374.21	341.72
374.40	409.59
374.60	454.06
374.79	440.02
374.99	454.06
375.19	440.02
375.38	393.21
375.58	348.74
375.78	440.02
375.97	425.98
376.17	482.15
376.37	369.80
376.56	454.06
376.76	451.72
376.95	395.55
377.15	430.66
377.35	348.74
377.54	421.30
377.74	337.04
377.93	433.00
378.13	379.17
378.33	463.43
378.52	479.81
378.72	397.89
378.91	416.62
379.11	388.53
379.31	409.59
379.50	334.70
379.70	430.66
379.89	407.25
380.09	411.93
380.28	477.47
380.48	416.62
380.68	344.06
380.87	388.53
381.07	430.66
381.26	423.64
381.46	367.46
381.65	360.44
381.85	374.49
382.04	421.30
382.24	400.23
382.43	425.98
382.63	386.19
382.83	416.62
383.02	489.17
383.22	409.59
383.41	423.64
383.61	393.21
383.80	395.55
384.00	400.23
384.19	365.12
384.39	402.57
384.58	416.62
384.78	444.70
384.97	411.93
385.17	397.89
385.36	376.83
385.56	379.17
385.75	327.68
385.95	465.77
386.14	402.57
386.34	430.66
386.53	390.87
386.72	447.04
386.92	404.91
387.11	358.10
387.31	416.62
387.50	397.89
387.70	346.40
387.89	402.57
388.09	400.23
388.28	355.76
388.48	414.27
388.67	374.49
388.86	358.10
389.06	458.74
389.25	404.91
389.45	463.43
389.64	362.78
389.84	416.62
390.03	390.87
390.22	353.42
390.42	440.02
390.61	390.87
390.81	390.87
391.00	407.25
391.19	402.57
391.39	423.64
391.58	428.32
391.78	395.55
391.97	388.53
392.16	402.57
392.36	393.21
392.55	374.49
392.75	383.85
392.94	369.80
393.13	416.62
393.33	353.42
393.52	360.44
393.71	447.04
393.91	423.64
394.10	367.46
394.29	409.59
394.49	423.64
394.68	435.34
394.88	472.79
395.07	397.89
395.26	407.25
395.46	418.96
395.65	411.93
395.84	486.83
396.04	393.21
396.23	397.89
396.42	390.87
396.62	428.32
396.81	433.00
397.00	451.72
397.19	348.74
397.39	458.74
397.58	442.36
397.77	407.25
397.97	402.57
398.16	381.51
398.35	435.34
398.55	418.96
398.74	330.02
398.93	456.40
399.12	397.89
399.32	442.36
399.51	376.83
399.70	440.02
399.90	435.34
400.09	449.38
400.28	416.62
400.47	369.80
400.67	423.64
400.86	386.19
401.05	409.59
401.24	430.66
401.44	486.83
401.63	454.06
401.82	425.98
402.01	386.19
402.21	458.74
402.40	374.49
402.59	358.10
402.78	493.85
402.97	369.80
403.17	346.40
403.36	383.85
403.55	353.42
403.74	414.27
403.93	407.25
404.13	400.23
404.32	341.72
404.51	374.49
404.70	367.46
404.89	390.87
405.09	437.68
405.28	353.42
405.47	404.91
405.66	444.70
405.85	430.66
406.05	421.30
406.24	484.49
406.43	362.78
406.62	362.78
406.81	376.83
407.00	355.76
407.20	383.85
407.39	435.34
407.58	425.98
407.77	395.55
407.96	440.02
408.15	393.21
408.34	379.17
408.54	351.08
408.73	379.17
408.92	390.87
409.11	351.08
409.30	423.64
409.49	386.19
409.68	433.00
409.87	479.81
410.07	393.21
410.26	437.68
410.45	442.36
410.64	423.64
410.83	376.83
411.02	407.25
411.21	423.64
411.40	369.80
411.59	447.04
411.78	449.38
411.98	344.06
412.17	358.10
412.36	381.51
412.55	393.21
412.74	475.13
412.93	437.68
413.12	493.85
413.31	433.00
413.50	416.62
413.69	334.70
413.88	435.34
414.07	411.93
414.26	297.25
414.45	365.12
414.64	423.64
414.83	442.36
415.02	402.57
415.22	421.30
415.41	402.57
415.60	367.46
415.79	348.74
415.98	395.55
416.17	418.96
416.36	365.12
416.55	442.36
416.74	461.09
416.93	470.45
417.12	390.87
417.31	381.51
417.50	407.25
417.69	400.23
417.88	449.38
418.07	402.57
418.26	388.53
418.45	402.57
418.64	425.98
418.83	390.87
419.02	428.32
419.21	472.79
419.39	409.59
419.58	447.04
419.77	395.55
419.96	463.43
420.15	465.77
420.34	435.34
420.53	428.32
420.72	395.55
420.91	425.98
421.10	360.44
421.29	425.98
421.48	440.02
421.67	330.02
421.86	425.98
422.05	360.44
422.24	470.45
422.43	440.02
422.61	442.36
422.80	397.89
422.99	418.96
423.18	418.96
423.37	414.27
423.56	372.15
423.75	430.66
423.94	383.85
424.13	423.64
424.32	411.93
424.50	454.06
424.69	433.00
424.88	470.45
425.07	416.62
425.26	416.62
425.45	493.85
425.64	425.98
425.83	397.89
426.01	442.36
426.20	447.04
426.39	440.02
426.58	374.49
426.77	414.27
426.96	400.23
427.15	451.72
427.33	400.23
427.52	477.47
427.71	449.38
427.90	461.09
428.09	353.42
428.28	372.15
428.46	472.79
428.65	402.57
428.84	433.00
429.03	447.04
429.22	383.85
429.40	409.59
429.59	402.57
429.78	435.34
429.97	374.49
430.16	414.27
430.34	365.12
430.53	393.21
430.72	451.72
430.91	430.66
431.10	393.21
431.28	397.89
431.47	381.51
431.66	374.49
431.85	458.74
432.03	409.59
432.22	447.04
432.41	379.17
432.60	351.08
432.79	402.57
432.97	433.00
433.16	416.62
433.35	388.53
433.54	414.27
433.72	430.66
433.91	416.62
434.10	393.21
434.28	409.59
434.47	365.12
434.66	397.89
434.85	334.70
435.03	390.87
435.22	421.30
435.41	444.70
435.59	442.36
435.78	454.06
435.97	421.30
436.16	437.68
436.34	411.93
436.53	435.34
436.72	379.17
436.90	442.36
437.09	339.38
437.28	374.49
437.46	423.64
437.65	437.68
437.84	442.36
438.02	379.17
438.21	411.93
438.40	418.96
438.58	320.65
438.77	362.78
438.96	425.98
439.14	411.93
439.33	449.38
439.52	449.38
439.70	486.83
439.89	493.85
440.08	358.10
440.26	437.68
440.45	461.09
440.63	397.89
440.82	330.02
441.01	430.66
441.19	376.83
441.38	409.59
441.57	367.46
441.75	423.64
441.94	386.19
442.12	386.19
442.31	454.06
442.50	351.08
442.68	379.17
442.87	372.15
443.05	416.62
443.24	440.02
443.43	407.25
443.61	397.89
443.80	379.17
443.98	351.08
444.17	369.80
444.35	440.02
444.54	346.40
444.73	437.68
444.91	440.02
445.10	383.85
445.28	440.02
445.47	418.96
445.65	411.93
445.84	322.99
446.02	402.57
446.21	353.42
446.39	451.72
446.58	472.79
446.77	421.30
446.95	400.23
447.14	437.68
447.32	477.47
447.51	381.51
447.69	383.85
447.88	409.59
448.06	404.91
448.25	449.38
448.43	386.19
448.62	416.62
448.80	379.17
448.99	442.36
449.17	416.62
449.36	383.85
449.54	437.68
449.73	416.62
449.91	409.59
450.10	435.34
450.28	456.40
450.46	500.87
450.65	503.22
450.83	454.06
451.02	433.00
451.20	489.17
451.39	409.59
451.57	437.68
451.76	353.42
451.94	383.85
452.13	404.91
452.31	447.04
452.49	433.00
452.68	355.76
452.86	421.30
453.05	421.30
453.23	465.77
453.42	440.02
453.60	388.53
453.78	484.49
453.97	400.23
454.15	400.23
454.34	430.66
454.52	409.59
454.70	477.47
454.89	395.55
455.07	383.85
455.26	360.44
455.44	353.42
455.62	390.87
455.81	433.00
455.99	414.27
456.17	440.02
456.36	433.00
456.54	435.34
456.73	456.40
456.91	435.34
457.09	409.59
457.28	374.49
457.46	449.38
457.64	456.40
457.83	355.76
458.01	346.40
458.19	374.49
458.38	360.44
458.56	397.89
458.74	444.70
458.93	418.96
459.11	430.66
459.29	386.19
459.48	381.51
459.66	325.33
459.84	365.12
460.03	465.77
460.21	402.57
460.39	322.99
460.57	407.25
460.76	402.57
460.94	416.62
461.12	465.77
461.31	379.17
461.49	505.56
461.67	409.59
461.85	456.40
462.04	365.12
462.22	807.48
462.40	395.55
462.59	400.23
462.77	362.78
462.95	444.70
463.13	416.62
463.32	451.72
463.50	395.55
463.68	383.85
463.86	365.12
464.05	437.68
464.23	421.30
464.41	383.85
464.59	458.74
464.78	355.76
464.96	418.96
465.14	407.25
465.32	407.25
465.50	402.57
465.69	451.72
465.87	388.53
466.05	386.19
466.23	437.68
466.41	416.62
466.60	437.68
466.78	404.91
466.96	411.93
467.14	341.72
467.32	430.66
467.51	407.25
467.69	449.38
467.87	463.43
468.05	358.10
468.23	372.15
468.41	402.57
468.60	468.11
468.78	440.02
468.96	428.32
469.14	409.59
469.32	421.30
469.50	339.38
469.69	416.62
469.87	444.70
470.05	416.62
470.23	411.93
470.41	458.74
470.59	383.85
470.77	447.04
470.95	440.02
471.14	454.06
471.32	379.17
471.50	458.74
471.68	358.10
471.86	425.98
472.04	407.25
472.22	381.51
472.40	360.44
472.58	400.23
472.77	388.53
472.95	365.12
473.13	449.38
473.31	425.98
473.49	423.64
473.67	442.36
473.85	400.23
474.03	376.83
474.21	404.91
474.39	428.32
474.57	463.43
474.75	454.06
474.93	348.74
475.12	379.17
475.30	402.57
475.48	390.87
475.66	428.32
475.84	470.45
476.02	414.27
476.20	472.79
476.38	484.49
476.56	472.79
476.74	411.93
476.92	423.64
477.10	414.27
477.28	308.95
477.46	365.12
477.64	423.64
477.82	393.21
478.00	390.87
478.18	411.93
478.36	444.70
478.54	442.36
478.72	362.78
478.90	489.17
479.08	402.57
479.26	400.23
479.44	411.93
479.62	470.45
479.80	472.79
479.98	407.25
480.16	409.59
480.34	390.87
480.52	351.08
480.70	411.93
480.88	407.25
481.06	433.00
481.24	454.06
481.41	409.59
481.59	397.89
481.77	404.91
481.95	461.09
482.13	397.89
482.31	308.95
482.49	386.19
482.67	383.85
482.85	472.79
483.03	365.12
483.21	461.09
483.39	407.25
483.57	383.85
483.74	451.72
483.92	379.17
484.10	334.70
484.28	386.19
484.46	425.98
484.64	404.91
484.82	367.46
485.00	395.55
485.18	475.13
485.35	505.56
485.53	421.30
485.71	475.13
485.89	393.21
486.07	428.32
486.25	484.49
486.43	437.68
486.61	449.38
486.78	414.27
486.96	374.49
487.14	411.93
487.32	451.72
487.50	418.96
487.68	416.62
487.85	496.19
488.03	388.53
488.21	400.23
488.39	437.68
488.57	472.79
488.75	503.22
488.92	514.92
489.10	468.11
489.28	358.10
489.46	383.85
489.64	390.87
489.81	411.93
489.99	447.04
490.17	428.32
490.35	489.17
490.53	458.74
490.70	430.66
490.88	428.32
491.06	360.44
491.24	421.30
491.41	425.98
491.59	458.74
491.77	348.74
491.95	416.62
492.13	379.17
492.30	437.68
492.48	433.00
492.66	402.57
492.84	397.89
493.01	416.62
493.19	376.83
493.37	454.06
493.54	442.36
493.72	393.21
493.90	407.25
494.08	404.91
494.25	451.72
494.43	463.43
494.61	395.55
494.79	374.49
494.96	447.04
495.14	482.15
495.32	449.38
495.49	365.12
495.67	395.55
495.85	493.85
496.02	379.17
496.20	409.59
496.38	468.11
496.55	404.91
496.73	470.45
496.91	379.17
497.09	491.51
497.26	442.36
497.44	388.53
497.62	425.98
497.79	414.27
497.97	397.89
498.14	404.91
498.32	407.25
498.50	390.87
498.67	421.30
498.85	486.83
499.03	372.15
499.20	402.57
499.38	388.53
499.56	367.46
499.73	451.72
499.91	437.68
500.08	421.30
500.26	489.17
500.44	306.61
500.61	461.09
500.79	418.96
500.97	367.46
501.14	482.15
501.32	418.96
501.49	393.21
501.67	400.23
501.84	400.23
502.02	414.27
502.20	409.59
502.37	507.90
502.55	402.57
502.72	346.40
502.90	402.57
503.07	414.27
503.25	477.47
503.43	423.64
503.60	367.46
503.78	451.72
503.95	454.06
504.13	468.11
504.30	409.59
504.48	428.32
504.65	482.15
504.83	428.32
505.01	376.83
505.18	397.89
505.36	447.04
505.53	372.15
505.71	397.89
505.88	407.25
506.06	400.23
506.23	425.98
506.41	358.10
506.58	421.30
506.76	341.72
506.93	411.93
507.11	428.32
507.28	383.85
507.46	341.72
507.63	437.68
507.81	407.25
507.98	397.89
508.16	416.62
508.33	395.55
508.50	416.62
508.68	365.12
508.85	451.72
509.03	355.76
509.20	435.34
509.38	475.13
509.55	425.98
509.73	470.45
509.90	461.09
510.08	374.49
510.25	365.12
510.42	367.46
510.60	416.62
510.77	435.34
510.95	353.42
511.12	451.72
511.30	397.89
511.47	458.74
511.64	437.68
511.82	472.79
511.99	393.21
512.17	388.53
512.34	390.87
512.51	381.51
512.69	383.85
512.86	451.72
513.04	409.59
513.21	386.19
513.38	393.21
513.56	451.72
513.73	407.25
513.90	411.93
514.08	407.25
514.25	444.70
514.43	468.11
514.60	360.44
514.77	304.27
514.95	428.32
515.12	433.00
515.29	430.66
515.47	428.32
515.64	409.59
515.81	416.62
515.99	383.85
516.16	421.30
516.33	442.36
516.51	379.17
516.68	365.12
516.85	386.19
517.03	512.58
517.20	418.96
517.37	468.11
517.54	437.68
517.72	440.02
517.89	337.04
518.06	437.68
518.24	475.13
518.41	461.09
518.58	479.81
518.75	463.43
518.93	369.80
519.10	411.93
519.27	437.68
519.45	395.55
519.62	430.66
519.79	435.34
519.96	381.51
520.14	383.85
520.31	454.06
520.48	456.40
520.65	418.96
520.83	435.34
521.00	414.27
521.17	395.55
521.34	456.40
521.52	372.15
521.69	440.02
521.86	465.77
522.03	437.68
522.20	505.56
522.38	339.38
522.55	395.55
522.72	344.06
522.89	433.00
523.07	430.66
523.24	449.38
523.41	435.34
523.58	348.74
523.75	449.38
523.92	465.77
524.10	386.19
524.27	437.68
524.44	435.34
524.61	435.34
524.78	423.64
524.96	433.00
525.13	409.59
525.30	449.38
525.47	421.30
525.64	348.74
525.81	430.66
525.98	451.72
526.16	418.96
526.33	358.10
526.50	430.66
526.67	433.00
526.84	461.09
527.01	437.68
527.18	381.51
527.36	409.59
527.53	449.38
527.70	428.32
527.87	367.46
528.04	449.38
528.21	449.38
528.38	451.72
528.55	421.30
528.72	418.96
528.89	444.70
529.07	435.34
529.24	451.72
529.41	470.45
529.58	430.66
529.75	409.59
529.92	477.47
530.09	411.93
530.26	463.43
530.43	442.36
530.60	407.25
530.77	435.34
530.94	395.55
531.11	390.87
531.28	409.59
531.46	414.27
531.63	449.38
531.80	442.36
531.97	435.34
532.14	456.40
532.31	425.98
532.48	367.46
532.65	475.13
532.82	430.66
532.99	381.51
533.16	428.32
533.33	404.91
533.50	402.57
533.67	386.19
533.84	411.93
534.01	444.70
534.18	372.15
534.35	430.66
534.52	491.51
534.69	383.85
534.86	322.99
535.03	393.21
535.20	388.53
535.37	393.21
535.54	367.46
535.71	447.04
535.88	440.02
536.05	379.17
536.22	433.00
536.38	454.06
536.55	449.38
536.72	418.96
536.89	435.34
537.06	374.49
537.23	421.30
537.40	397.89
537.57	407.25
537.74	430.66
537.91	407.25
538.08	430.66
538.25	418.96
538.42	404.91
538.59	409.59
538.75	454.06
538.92	447.04
539.09	496.19
539.26	430.66
539.43	440.02
539.60	404.91
539.77	369.80
539.94	423.64
540.11	409.59
540.28	456.40
540.44	358.10
540.61	423.64
540.78	437.68
540.95	395.55
541.12	451.72
541.29	393.21
541.46	493.85
541.62	374.49
541.79	425.98
541.96	393.21
542.13	430.66
542.30	447.04
542.47	381.51
542.63	407.25
542.80	414.27
542.97	444.70
543.14	407.25
543.31	451.72
543.48	409.59
543.64	454.06
543.81	397.89
543.98	355.76
544.15	362.78
544.32	442.36
544.48	437.68
544.65	442.36
544.82	393.21
544.99	404.91
545.16	451.72
545.32	407.25
545.49	414.27
545.66	386.19
545.83	369.80
546.00	397.89
546.16	393.21
546.33	414.27
546.50	423.64
546.67	465.77
546.83	491.51
547.00	416.62
547.17	414.27
547.34	421.30
547.50	454.06
547.67	421.30
547.84	388.53
548.00	454.06
548.17	360.44
548.34	421.30
548.51	463.43
548.67	402.57
548.84	435.34
549.01	435.34
549.18	463.43
549.34	404.91
549.51	470.45
549.68	416.62
549.84	388.53
550.01	477.47
550.18	388.53
550.34	489.17
550.51	552.37
550.68	533.64
550.84	421.30
551.01	489.17
551.18	472.79
551.34	428.32
551.51	304.27
551.68	409.59
551.84	437.68
552.01	395.55
552.18	477.47
552.34	437.68
552.51	367.46
552.68	390.87
552.84	393.21
553.01	447.04
553.18	433.00
553.34	367.46
553.51	423.64
553.67	423.64
553.84	423.64
554.01	416.62
554.17	491.51
554.34	404.91
554.51	407.25
554.67	435.34
554.84	423.64
555.00	435.34
555.17	367.46
555.33	470.45
555.50	407.25
555.67	428.32
555.83	379.17
556.00	376.83
556.16	535.98
556.33	493.85
556.50	381.51
556.66	423.64
556.83	423.64
556.99	400.23
557.16	383.85
557.32	430.66
557.49	374.49
557.65	409.59
557.82	381.51
557.98	425.98
558.15	416.62
558.32	409.59
558.48	496.19
558.65	433.00
558.81	482.15
558.98	486.83
559.14	447.04
559.31	414.27
559.47	447.04
559.64	386.19
559.80	404.91
559.97	404.91
560.13	437.68
560.30	482.15
560.46	493.85
560.63	386.19
560.79	430.66
560.96	381.51
561.12	360.44
561.29	442.36
561.45	402.57
561.61	379.17
561.78	458.74
561.94	454.06
562.11	374.49
562.27	395.55
562.44	456.40
562.60	383.85
562.77	372.15
562.93	514.92
563.10	430.66
563.26	386.19
563.42	437.68
563.59	369.80
563.75	369.80
563.92	440.02
564.08	433.00
564.24	465.77
564.41	491.51
564.57	447.04
564.74	449.38
564.90	411.93
565.07	404.91
565.23	360.44
565.39	341.72
565.56	414.27
565.72	393.21
565.88	367.46
566.05	486.83
566.21	442.36
566.38	433.00
566.54	442.36
566.70	456.40
566.87	456.40
567.03	442.36
567.19	334.70
567.36	442.36
567.52	442.36
567.68	447.04
567.85	486.83
568.01	393.21
568.17	428.32
568.34	390.87
568.50	346.40
568.66	428.32
568.83	465.77
568.99	423.64
569.15	468.11
569.32	425.98
569.48	397.89
569.64	421.30
569.81	444.70
569.97	390.87
570.13	421.30
570.30	503.22
570.46	337.04
570.62	477.47
570.78	461.09
570.95	397.89
571.11	414.27
571.27	458.74
571.43	418.96
571.60	404.91
571.76	388.53
571.92	353.42
572.09	367.46
572.25	367.46
572.41	456.40
572.57	379.17
572.74	477.47
572.90	423.64
573.06	393.21
573.22	465.77
573.38	433.00
573.55	423.64
573.71	407.25
573.87	402.57
574.03	381.51
574.20	402.57
574.36	447.04
574.52	489.17
574.68	433.00
574.84	423.64
575.01	390.87
575.17	463.43
575.33	400.23
575.49	433.00
575.65	433.00
575.82	470.45
575.98	451.72
576.14	402.57
576.30	409.59
576.46	411.93
576.62	414.27
576.79	442.36
576.95	404.91
577.11	404.91
577.27	435.34
577.43	440.02
577.59	496.19
577.75	430.66
577.92	374.49
578.08	367.46
578.24	393.21
578.40	397.89
578.56	435.34
578.72	428.32
578.88	390.87
579.04	383.85
579.21	451.72
579.37	489.17
579.53	486.83
579.69	482.15
579.85	437.68
580.01	510.24
580.17	393.21
580.33	496.19
580.49	397.89
580.65	416.62
580.82	407.25
580.98	358.10
581.14	486.83
581.30	430.66
581.46	334.70
581.62	416.62
581.78	379.17
581.94	461.09
582.10	362.78
582.26	470.45
582.42	423.64
582.58	400.23
582.74	440.02
582.90	341.72
583.06	451.72
583.22	360.44
583.38	367.46
583.54	372.15
583.70	428.32
583.86	449.38
584.02	351.08
584.18	374.49
584.34	393.21
584.50	416.62
584.66	400.23
584.82	461.09
584.98	376.83
585.14	362.78
585.30	332.36
585.46	365.12
585.62	393.21
585.78	411.93
585.94	400.23
586.10	435.34
586.26	458.74
586.42	444.70
586.58	404.91
586.74	381.51
586.90	433.00
587.06	358.10
587.22	383.85
587.38	416.62
587.54	393.21
587.70	430.66
587.86	458.74
588.02	416.62
588.18	444.70
588.34	386.19
588.49	421.30
588.65	418.96
588.81	472.79
588.97	358.10
589.13	395.55
589.29	374.49
589.45	547.69
589.61	468.11
589.77	407.25
589.93	362.78
590.08	421.30
590.24	397.89
590.40	421.30
590.56	292.57
590.72	423.64
590.88	435.34
591.04	470.45
591.20	393.21
591.35	496.19
591.51	416.62
591.67	353.42
591.83	454.06
591.99	456.40
592.15	428.32
592.31	430.66
592.46	358.10
592.62	498.53
592.78	416.62
592.94	369.80
593.10	416.62
593.26	418.96
593.41	428.32
593.57	390.87
593.73	388.53
593.89	411.93
594.05	409.59
594.20	372.15
594.36	475.13
594.52	393.21
594.68	430.66
594.84	374.49
594.99	463.43
595.15	414.27
595.31	440.02
595.47	423.64
595.62	421.30
595.78	430.66
595.94	395.55
596.10	447.04
596.25	491.51
596.41	463.43
596.57	395.55
596.73	393.21
596.88	430.66
597.04	404.91
597.20	346.40
597.36	433.00
597.51	465.77
597.67	433.00
597.83	458.74
597.99	454.06
598.14	433.00
598.30	451.72
598.46	425.98
598.61	479.81
598.77	461.09
598.93	447.04
599.09	383.85
599.24	451.72
599.40	423.64
599.56	386.19
599.71	397.89
599.87	416.62
600.03	407.25
600.18	414.27
600.34	425.98
600.50	381.51
600.65	353.42
600.81	451.72
600.97	437.68
601.12	358.10
601.28	425.98
601.44	437.68
601.59	400.23
601.75	442.36
601.91	423.64
602.06	442.36
602.22	507.90
602.37	428.32
602.53	341.72
602.69	414.27
602.84	442.36
603.00	421.30
603.16	360.44
603.31	400.23
603.47	409.59
603.62	409.59
603.78	449.38
603.94	390.87
604.09	372.15
604.25	414.27
604.40	479.81
604.56	472.79
604.71	416.62
604.87	425.98
605.03	402.57
605.18	442.36
605.34	465.77
605.49	341.72
605.65	440.02
605.80	409.59
605.96	475.13
606.12	482.15
606.27	425.98
606.43	416.62
606.58	407.25
606.74	440.02
606.89	379.17
607.05	411.93
607.20	418.96
607.36	425.98
607.51	393.21
607.67	397.89
607.82	409.59
607.98	491.51
608.13	437.68
608.29	397.89
608.44	433.00
608.60	390.87
608.75	381.51
608.91	468.11
609.06	430.66
609.22	421.30
609.37	440.02
609.53	407.25
609.68	409.59
609.84	493.85
609.99	477.47
610.15	437.68
610.30	451.72
610.46	404.91
610.61	418.96
610.76	435.34
610.92	330.02
611.07	442.36
611.23	425.98
611.38	451.72
611.54	369.80
611.69	416.62
611.84	454.06
612.00	337.04
612.15	421.30
612.31	374.49
612.46	304.27
612.62	435.34
612.77	442.36
612.92	482.15
613.08	435.34
613.23	411.93
613.39	397.89
613.54	407.25
613.69	449.38
613.85	423.64
614.00	365.12
614.15	505.56
614.31	444.70
614.46	411.93
614.62	482.15
614.77	437.68
614.92	397.89
615.08	344.06
615.23	447.04
615.38	386.19
615.54	393.21
615.69	489.17
615.84	353.42
616.00	386.19
616.15	390.87
616.30	463.43
616.46	346.40
616.61	383.85
616.76	421.30
616.92	414.27
617.07	479.81
617.22	416.62
617.37	411.93
617.53	351.08
617.68	421.30
617.83	428.32
617.99	458.74
618.14	477.47
618.29	367.46
618.45	407.25
618.60	444.70
618.75	388.53
618.90	454.06
619.06	418.96
619.21	444.70
619.36	440.02
619.51	423.64
619.67	423.64
619.82	416.62
619.97	351.08
620.12	440.02
620.28	444.70
620.43	435.34
620.58	402.57
620.73	414.27
620.89	390.87
621.04	435.34
621.19	463.43
621.34	376.83
621.49	360.44
621.65	465.77
621.80	376.83
621.95	430.66
622.10	390.87
622.25	409.59
622.41	470.45
622.56	379.17
622.71	428.32
622.86	507.90
623.01	360.44
623.16	437.68
623.32	411.93
623.47	421.30
623.62	400.23
623.77	435.34
623.92	465.77
624.07	421.30
624.23	428.32
624.38	390.87
624.53	351.08
624.68	383.85
624.83	470.45
624.98	465.77
625.13	367.46
625.29	397.89
625.44	444.70
625.59	372.15
625.74	393.21
625.89	402.57
626.04	334.70
626.19	397.89
626.34	468.11
626.49	465.77
626.65	365.12
626.80	451.72
626.95	360.44
627.10	414.27
627.25	404.91
627.40	472.79
627.55	449.38
627.70	418.96
627.85	425.98
628.00	435.34
628.15	421.30
628.30	407.25
628.45	435.34
628.60	379.17
628.76	414.27
628.91	425.98
629.06	407.25
629.21	407.25
629.36	435.34
629.51	379.17
629.66	393.21
629.81	444.70
629.96	449.38
630.11	449.38
630.26	437.68
630.41	411.93
630.56	454.06
630.71	393.21
630.86	414.27
631.01	402.57
631.16	449.38
631.31	454.06
631.46	409.59
631.61	418.96
631.76	353.42
631.91	369.80
632.06	437.68
632.21	461.09
632.36	409.59
632.51	409.59
632.66	400.23
632.81	404.91
632.96	442.36
633.10	472.79
633.25	423.64
633.40	369.80
633.55	388.53
633.70	386.19
633.85	435.34
634.00	358.10
634.15	390.87
634.30	404.91
634.45	503.22
634.60	423.64
634.75	344.06
634.90	444.70
635.05	435.34
635.19	484.49
635.34	447.04
635.49	407.25
635.64	461.09
635.79	355.76
635.94	393.21
636.09	411.93
636.24	484.49
636.39	379.17
636.53	435.34
636.68	414.27
636.83	404.91
636.98	456.40
637.13	449.38
637.28	404.91
637.43	423.64
637.57	402.57
637.72	444.70
637.87	442.36
638.02	358.10
638.17	425.98
638.32	411.93
638.46	407.25
638.61	486.83
638.76	379.17
638.91	330.02
639.06	440.02
639.20	402.57
639.35	463.43
639.50	425.98
639.65	447.04
639.80	407.25
639.94	456.40
640.09	505.56
640.24	458.74
640.39	407.25
640.54	435.34
640.68	421.30
640.83	414.27
640.98	418.96
641.13	390.87
641.27	423.64
641.42	339.38
641.57	442.36
641.72	435.34
641.86	456.40
642.01	397.89
642.16	367.46
642.31	376.83
642.45	414.27
642.60	440.02
642.75	437.68
642.90	456.40
643.04	416.62
643.19	348.74
643.34	470.45
643.48	418.96
643.63	360.44
643.78	456.40
643.93	491.51
644.07	425.98
644.22	315.97
644.37	414.27
644.51	458.74
644.66	456.40
644.81	402.57
644.95	442.36
645.10	442.36
645.25	482.15
645.39	416.62
645.54	365.12
645.69	447.04
645.83	348.74
645.98	482.15
646.13	372.15
646.27	440.02
646.42	437.68
646.57	369.80
646.71	435.34
646.86	458.74
647.00	430.66
647.15	411.93
647.30	383.85
647.44	390.87
647.59	402.57
647.74	421.30
647.88	402.57
648.03	447.04
648.17	470.45
648.32	404.91
648.47	402.57
648.61	414.27
648.76	388.53
648.90	433.00
649.05	454.06
649.20	358.10
649.34	400.23
649.49	433.00
649.63	330.02
649.78	358.10
649.92	327.68
650.07	477.47
650.21	367.46
650.36	465.77
650.51	456.40
650.65	510.24
650.80	468.11
650.94	484.49
651.09	421.30
651.23	395.55
651.38	423.64
651.52	442.36
651.67	397.89
651.81	360.44
651.96	428.32
652.10	400.23
652.25	435.34
652.39	444.70
652.54	411.93
652.68	416.62
652.83	486.83
652.97	463.43
653.12	416.62
653.26	409.59
653.41	442.36
653.55	461.09
653.70	449.38
653.84	435.34
653.99	430.66
654.13	353.42
654.27	386.19
654.42	411.93
654.56	374.49
654.71	461.09
654.85	430.66
655.00	400.23
655.14	397.89
655.29	433.00
655.43	449.38
655.57	454.06
655.72	386.19
655.86	451.72
656.01	404.91
656.15	430.66
656.30	437.68
656.44	472.79
656.58	411.93
656.73	365.12
656.87	416.62
657.01	468.11
657.16	423.64
657.30	440.02
657.45	407.25
657.59	435.34
657.73	332.36
657.88	435.34
658.02	486.83
658.16	341.72
658.31	421.30
658.45	416.62
658.60	367.46
658.74	360.44
658.88	372.15
659.03	379.17
659.17	411.93
659.31	437.68
659.46	418.96
659.60	404.91
659.74	376.83
659.89	355.76
660.03	433.00
660.17	388.53
660.32	456.40
660.46	407.25
660.60	383.85
660.74	451.72
660.89	411.93
661.03	397.89
661.17	390.87
661.32	390.87
661.46	383.85
661.60	393.21
661.74	402.57
661.89	425.98
662.03	461.09
662.17	351.08
662.31	423.64
662.46	463.43
662.60	468.11
662.74	411.93
662.88	498.53
663.03	440.02
663.17	381.51
663.31	416.62
663.45	400.23
663.60	404.91
663.74	365.12
663.88	388.53
664.02	411.93
664.17	393.21
664.31	346.40
664.45	374.49
664.59	416.62
664.73	402.57
664.88	402.57
665.02	402.57
665.16	414.27
665.30	409.59
665.44	493.85
665.59	486.83
665.73	400.23
665.87	390.87
666.01	411.93
666.15	327.68
666.29	374.49
666.44	433.00
666.58	477.47
666.72	425.98
666.86	442.36
667.00	416.62
667.14	451.72
667.28	407.25
667.43	512.58
667.57	393.21
667.71	372.15
667.85	454.06
667.99	393.21
668.13	451.72
668.27	393.21
668.41	451.72
668.56	388.53
668.70	369.80
668.84	425.98
668.98	395.55
669.12	433.00
669.26	409.59
669.40	533.64
669.54	416.62
669.68	433.00
669.82	425.98
669.96	465.77
670.10	425.98
670.25	407.25
670.39	388.53
670.53	372.15
670.67	390.87
670.81	337.04
670.95	456.40
671.09	425.98
671.23	461.09
671.37	374.49
671.51	372.15
671.65	425.98
671.79	418.96
671.93	379.17
672.07	428.32
672.21	374.49
672.35	395.55
672.49	430.66
672.63	449.38
672.77	435.34
672.91	449.38
673.05	423.64
673.19	365.12
673.33	344.06
673.47	463.43
673.61	395.55
673.75	430.66
673.89	346.40
674.03	449.38
674.17	393.21
674.31	456.40
674.45	470.45
674.59	409.59
674.73	442.36
674.87	442.36
675.01	416.62
675.15	442.36
675.29	440.02
675.43	376.83
675.56	514.92
675.70	423.64
675.84	447.04
675.98	440.02
676.12	397.89
676.26	418.96
676.40	414.27
676.54	365.12
676.68	379.17
676.82	362.78
676.96	393.21
677.10	447.04
677.23	374.49
677.37	418.96
677.51	395.55
677.65	381.51
677.79	393.21
677.93	337.04
678.07	425.98
678.21	381.51
678.34	442.36
678.48	423.64
678.62	362.78
678.76	461.09
678.90	381.51
679.04	334.70
679.18	386.19
679.31	454.06
679.45	437.68
679.59	383.85
679.73	486.83
679.87	440.02
680.00	447.04
680.14	461.09
680.28	430.66
680.42	358.10
680.56	418.96
680.70	390.87
680.83	463.43
680.97	348.74
681.11	400.23
681.25	472.79
681.39	393.21
681.52	458.74
681.66	416.62
681.80	433.00
681.94	367.46
682.07	369.80
682.21	444.70
682.35	425.98
682.49	388.53
682.62	484.49
682.76	425.98
682.90	360.44
683.04	437.68
683.17	400.23
683.31	346.40
683.45	369.80
683.59	393.21
683.72	486.83
683.86	433.00
684.00	360.44
684.13	407.25
684.27	430.66
684.41	442.36
684.55	456.40
684.68	440.02
684.82	365.12
684.96	381.51
685.09	442.36
685.23	425.98
685.37	367.46
685.50	423.64
685.64	414.27
685.78	468.11
685.91	461.09
686.05	472.79
686.19	355.76
686.32	477.47
686.46	414.27
686.60	400.23
686.73	475.13
686.87	498.53
687.01	386.19
687.14	358.10
687.28	390.87
687.42	465.77
687.55	496.19
687.69	404.91
687.82	362.78
687.96	414.27
688.10	437.68
688.23	425.98
688.37	435.34
688.50	470.45
688.64	374.49
688.78	430.66
688.91	414.27
689.05	461.09
689.18	355.76
689.32	393.21
689.46	418.96
689.59	465.77
689.73	461.09
689.86	435.34
690.00	346.40
690.13	444.70
690.27	334.70
690.41	402.57
690.54	425.98
690.68	376.83
690.81	414.27
690.95	416.62
691.08	451.72
691.22	320.65
691.35	383.85
691.49	376.83
691.62	423.64
691.76	486.83
691.89	353.42
692.03	362.78
692.16	428.32
692.30	395.55
692.43	482.15
692.57	463.43
692.70	475.13
692.84	418.96
692.97	379.17
693.11	351.08
693.24	379.17
693.38	407.25
693.51	418.96
693.65	451.72
693.78	397.89
693.92	372.15
694.05	374.49
694.19	365.12
694.32	395.55
694.45	379.17
694.59	425.98
694.72	421.30
694.86	451.72
694.99	365.12
695.13	376.83
695.26	425.98
695.39	404.91
695.53	425.98
695.66	397.89
695.80	447.04
695.93	449.38
696.07	428.32
696.20	423.64
696.33	381.51
696.47	386.19
696.60	407.25
696.73	395.55
696.87	472.79
697.00	486.83
697.14	386.19
697.27	379.17
697.40	458.74
697.54	395.55
697.67	388.53
697.80	440.02
697.94	468.11
698.07	409.59
698.21	386.19
698.34	430.66
698.47	437.68
698.61	430.66
698.74	409.59
698.87	463.43
699.01	379.17
699.14	365.12
699.27	400.23
699.40	465.77
699.54	404.91
699.67	332.36
699.80	355.76
699.94	416.62
700.07	430.66
700.20	397.89
700.34	430.66
700.47	388.53
700.60	395.55
700.73	404.91
700.87	496.19
701.00	393.21
701.13	379.17
701.26	348.74
701.40	423.64
701.53	425.98
701.66	440.02
701.79	435.34
701.93	430.66
702.06	414.27
702.19	465.77
702.32	404.91
702.46	376.83
702.59	423.64
702.72	346.40
702.85	393.21
702.99	400.23
703.12	430.66
703.25	461.09
703.38	369.80
703.51	416.62
703.65	365.12
703.78	433.00
703.91	374.49
704.04	381.51
704.17	472.79
704.31	381.51
704.44	376.83
704.57	409.59
704.70	456.40
704.83	395.55
704.96	451.72
705.10	409.59
705.23	477.47
>>>>>End Processed Spectral Data<<<<<
