SpectraSuite Data File
++++++++++++++++++++++++++++++++++++
Date: Fri Oct 25 12:11:41 EDT 2013
User: price-jones
Dark Spectrum Present: No
Reference Spectrum Present: No
Number of Sampled Component Spectra: 1
Spectrometers: USB2+H05261
Integration Time (usec): 100000 (USB2+H05261)
Spectra Averaged: 1 (USB2+H05261)
Boxcar Smoothing: 0 (USB2+H05261)
Correct for Electrical Dark: No (USB2+H05261)
Strobe/Lamp Enabled: No (USB2+H05261)
Correct for Detector Non-linearity: No (USB2+H05261)
Correct for Stray Light: No (USB2+H05261)
Number of Pixels in Processed Spectrum: 2048
>>>>>Begin Processed Spectral Data<<<<<
365.73	306.61
365.92	306.61
366.12	306.61
366.32	250.44
366.52	210.65
366.72	273.84
366.91	259.80
367.11	250.44
367.31	271.50
367.51	266.82
367.70	278.52
367.90	187.24
368.10	238.73
368.30	175.54
368.49	236.39
368.69	238.73
368.89	315.97
369.09	269.16
369.28	259.80
369.48	262.14
369.68	304.27
369.87	271.50
370.07	381.51
370.27	360.44
370.47	276.18
370.66	297.25
370.86	313.63
371.06	339.38
371.25	435.34
371.45	409.59
371.65	430.66
371.84	339.38
372.04	400.23
372.24	386.19
372.44	397.89
372.63	393.21
372.83	409.59
373.03	411.93
373.22	341.72
373.42	390.87
373.62	484.49
373.81	449.38
374.01	514.92
374.21	449.38
374.40	365.12
374.60	433.00
374.79	416.62
374.99	458.74
375.19	376.83
375.38	437.68
375.58	477.47
375.78	395.55
375.97	440.02
376.17	430.66
376.37	402.57
376.56	442.36
376.76	444.70
376.95	358.10
377.15	383.85
377.35	369.80
377.54	447.04
377.74	353.42
377.93	365.12
378.13	421.30
378.33	435.34
378.52	416.62
378.72	442.36
378.91	447.04
379.11	383.85
379.31	414.27
379.50	390.87
379.70	484.49
379.89	430.66
380.09	414.27
380.28	411.93
380.48	472.79
380.68	416.62
380.87	353.42
381.07	374.49
381.26	451.72
381.46	437.68
381.65	463.43
381.85	437.68
382.04	421.30
382.24	411.93
382.43	440.02
382.63	388.53
382.83	397.89
383.02	454.06
383.22	489.17
383.41	395.55
383.61	381.51
383.80	411.93
384.00	444.70
384.19	325.33
384.39	393.21
384.58	348.74
384.78	388.53
384.97	379.17
385.17	362.78
385.36	339.38
385.56	400.23
385.75	409.59
385.95	458.74
386.14	414.27
386.34	379.17
386.53	442.36
386.72	416.62
386.92	496.19
387.11	421.30
387.31	451.72
387.50	456.40
387.70	449.38
387.89	374.49
388.09	407.25
388.28	386.19
388.48	449.38
388.67	442.36
388.86	365.12
389.06	367.46
389.25	381.51
389.45	421.30
389.64	395.55
389.84	390.87
390.03	404.91
390.22	428.32
390.42	433.00
390.61	346.40
390.81	472.79
391.00	430.66
391.19	437.68
391.39	423.64
391.58	365.12
391.78	388.53
391.97	472.79
392.16	444.70
392.36	454.06
392.55	397.89
392.75	421.30
392.94	437.68
393.13	451.72
393.33	334.70
393.52	362.78
393.71	451.72
393.91	397.89
394.10	414.27
394.29	367.46
394.49	365.12
394.68	442.36
394.88	447.04
395.07	376.83
395.26	409.59
395.46	433.00
395.65	409.59
395.84	470.45
396.04	442.36
396.23	411.93
396.42	397.89
396.62	423.64
396.81	402.57
397.00	404.91
397.19	500.87
397.39	423.64
397.58	416.62
397.77	325.33
397.97	428.32
398.16	390.87
398.35	367.46
398.55	362.78
398.74	404.91
398.93	498.53
399.12	428.32
399.32	425.98
399.51	440.02
399.70	468.11
399.90	454.06
400.09	411.93
400.28	433.00
400.47	409.59
400.67	468.11
400.86	369.80
401.05	421.30
401.24	461.09
401.44	428.32
401.63	358.10
401.82	402.57
402.01	369.80
402.21	381.51
402.40	379.17
402.59	395.55
402.78	383.85
402.97	440.02
403.17	484.49
403.36	475.13
403.55	337.04
403.74	376.83
403.93	400.23
404.13	458.74
404.32	369.80
404.51	505.56
404.70	409.59
404.89	388.53
405.09	428.32
405.28	428.32
405.47	383.85
405.66	447.04
405.85	351.08
406.05	428.32
406.24	369.80
406.43	379.17
406.62	416.62
406.81	407.25
407.00	435.34
407.20	362.78
407.39	425.98
407.58	468.11
407.77	430.66
407.96	477.47
408.15	374.49
408.34	437.68
408.54	383.85
408.73	390.87
408.92	388.53
409.11	414.27
409.30	383.85
409.49	367.46
409.68	423.64
409.87	386.19
410.07	388.53
410.26	423.64
410.45	390.87
410.64	447.04
410.83	393.21
411.02	449.38
411.21	447.04
411.40	341.72
411.59	397.89
411.78	341.72
411.98	454.06
412.17	390.87
412.36	334.70
412.55	360.44
412.74	479.81
412.93	379.17
413.12	468.11
413.31	463.43
413.50	369.80
413.69	425.98
413.88	454.06
414.07	409.59
414.26	397.89
414.45	374.49
414.64	447.04
414.83	397.89
415.02	388.53
415.22	463.43
415.41	395.55
415.60	367.46
415.79	353.42
415.98	437.68
416.17	341.72
416.36	418.96
416.55	414.27
416.74	318.31
416.93	425.98
417.12	400.23
417.31	411.93
417.50	395.55
417.69	475.13
417.88	428.32
418.07	428.32
418.26	383.85
418.45	421.30
418.64	421.30
418.83	397.89
419.02	440.02
419.21	423.64
419.39	353.42
419.58	358.10
419.77	322.99
419.96	425.98
420.15	433.00
420.34	454.06
420.53	411.93
420.72	372.15
420.91	418.96
421.10	414.27
421.29	386.19
421.48	404.91
421.67	437.68
421.86	365.12
422.05	407.25
422.24	414.27
422.43	447.04
422.61	442.36
422.80	433.00
422.99	393.21
423.18	390.87
423.37	447.04
423.56	451.72
423.75	440.02
423.94	430.66
424.13	454.06
424.32	407.25
424.50	388.53
424.69	423.64
424.88	430.66
425.07	437.68
425.26	437.68
425.45	423.64
425.64	320.65
425.83	388.53
426.01	400.23
426.20	433.00
426.39	388.53
426.58	344.06
426.77	433.00
426.96	505.56
427.15	418.96
427.33	444.70
427.52	442.36
427.71	383.85
427.90	390.87
428.09	374.49
428.28	393.21
428.46	376.83
428.65	416.62
428.84	435.34
429.03	423.64
429.22	449.38
429.40	433.00
429.59	425.98
429.78	449.38
429.97	449.38
430.16	395.55
430.34	435.34
430.53	423.64
430.72	386.19
430.91	435.34
431.10	379.17
431.28	355.76
431.47	402.57
431.66	472.79
431.85	409.59
432.03	397.89
432.22	437.68
432.41	358.10
432.60	393.21
432.79	449.38
432.97	524.28
433.16	458.74
433.35	397.89
433.54	454.06
433.72	428.32
433.91	456.40
434.10	421.30
434.28	428.32
434.47	358.10
434.66	498.53
434.85	367.46
435.03	442.36
435.22	430.66
435.41	421.30
435.59	421.30
435.78	428.32
435.97	465.77
436.16	362.78
436.34	418.96
436.53	376.83
436.72	362.78
436.90	498.53
437.09	447.04
437.28	456.40
437.46	407.25
437.65	430.66
437.84	433.00
438.02	475.13
438.21	479.81
438.40	388.53
438.58	365.12
438.77	393.21
438.96	397.89
439.14	444.70
439.33	433.00
439.52	348.74
439.70	402.57
439.89	433.00
440.08	437.68
440.26	440.02
440.45	358.10
440.63	428.32
440.82	416.62
441.01	390.87
441.19	421.30
441.38	386.19
441.57	383.85
441.75	353.42
441.94	411.93
442.12	402.57
442.31	414.27
442.50	346.40
442.68	365.12
442.87	409.59
443.05	383.85
443.24	376.83
443.43	425.98
443.61	409.59
443.80	407.25
443.98	383.85
444.17	456.40
444.35	374.49
444.54	388.53
444.73	402.57
444.91	395.55
445.10	409.59
445.28	348.74
445.47	346.40
445.65	421.30
445.84	353.42
446.02	397.89
446.21	461.09
446.39	348.74
446.58	395.55
446.77	407.25
446.95	461.09
447.14	351.08
447.32	428.32
447.51	374.49
447.69	346.40
447.88	425.98
448.06	456.40
448.25	416.62
448.43	388.53
448.62	400.23
448.80	407.25
448.99	397.89
449.17	423.64
449.36	381.51
449.54	414.27
449.73	425.98
449.91	468.11
450.10	365.12
450.28	381.51
450.46	465.77
450.65	461.09
450.83	393.21
451.02	402.57
451.20	470.45
451.39	421.30
451.57	430.66
451.76	451.72
451.94	365.12
452.13	404.91
452.31	409.59
452.49	433.00
452.68	404.91
452.86	463.43
453.05	409.59
453.23	351.08
453.42	330.02
453.60	416.62
453.78	355.76
453.97	388.53
454.15	421.30
454.34	397.89
454.52	484.49
454.70	402.57
454.89	425.98
455.07	440.02
455.26	444.70
455.44	454.06
455.62	376.83
455.81	409.59
455.99	493.85
456.17	397.89
456.36	404.91
456.54	430.66
456.73	388.53
456.91	458.74
457.09	383.85
457.28	409.59
457.46	425.98
457.64	458.74
457.83	442.36
458.01	395.55
458.19	461.09
458.38	423.64
458.56	414.27
458.74	376.83
458.93	425.98
459.11	435.34
459.29	402.57
459.48	360.44
459.66	512.58
459.84	351.08
460.03	447.04
460.21	416.62
460.39	388.53
460.57	451.72
460.76	425.98
460.94	358.10
461.12	402.57
461.31	465.77
461.49	376.83
461.67	442.36
461.85	374.49
462.04	433.00
462.22	734.93
462.40	433.00
462.59	468.11
462.77	414.27
462.95	435.34
463.13	397.89
463.32	449.38
463.50	416.62
463.68	447.04
463.86	400.23
464.05	367.46
464.23	477.47
464.41	451.72
464.59	372.15
464.78	437.68
464.96	414.27
465.14	362.78
465.32	388.53
465.50	423.64
465.69	458.74
465.87	409.59
466.05	442.36
466.23	372.15
466.41	369.80
466.60	449.38
466.78	447.04
466.96	409.59
467.14	407.25
467.32	447.04
467.51	447.04
467.69	402.57
467.87	423.64
468.05	442.36
468.23	493.85
468.41	447.04
468.60	433.00
468.78	451.72
468.96	456.40
469.14	400.23
469.32	390.87
469.50	376.83
469.69	428.32
469.87	390.87
470.05	404.91
470.23	407.25
470.41	388.53
470.59	489.17
470.77	491.51
470.95	393.21
471.14	468.11
471.32	449.38
471.50	463.43
471.68	421.30
471.86	411.93
472.04	402.57
472.22	425.98
472.40	456.40
472.58	411.93
472.77	505.56
472.95	435.34
473.13	386.19
473.31	435.34
473.49	388.53
473.67	397.89
473.85	498.53
474.03	416.62
474.21	407.25
474.39	425.98
474.57	430.66
474.75	376.83
474.93	358.10
475.12	409.59
475.30	400.23
475.48	404.91
475.66	477.47
475.84	477.47
476.02	447.04
476.20	367.46
476.38	383.85
476.56	505.56
476.74	421.30
476.92	440.02
477.10	472.79
477.28	379.17
477.46	379.17
477.64	465.77
477.82	379.17
478.00	409.59
478.18	400.23
478.36	435.34
478.54	372.15
478.72	463.43
478.90	421.30
479.08	416.62
479.26	440.02
479.44	440.02
479.62	379.17
479.80	423.64
479.98	433.00
480.16	409.59
480.34	461.09
480.52	372.15
480.70	461.09
480.88	409.59
481.06	388.53
481.24	416.62
481.41	397.89
481.59	383.85
481.77	388.53
481.95	425.98
482.13	433.00
482.31	425.98
482.49	433.00
482.67	458.74
482.85	433.00
483.03	484.49
483.21	449.38
483.39	423.64
483.57	369.80
483.74	482.15
483.92	454.06
484.10	409.59
484.28	440.02
484.46	500.87
484.64	400.23
484.82	313.63
485.00	365.12
485.18	425.98
485.35	353.42
485.53	395.55
485.71	496.19
485.89	435.34
486.07	376.83
486.25	430.66
486.43	428.32
486.61	404.91
486.78	374.49
486.96	414.27
487.14	383.85
487.32	479.81
487.50	348.74
487.68	489.17
487.85	461.09
488.03	369.80
488.21	409.59
488.39	386.19
488.57	440.02
488.75	433.00
488.92	498.53
489.10	477.47
489.28	423.64
489.46	444.70
489.64	402.57
489.81	456.40
489.99	397.89
490.17	468.11
490.35	538.32
490.53	393.21
490.70	367.46
490.88	425.98
491.06	433.00
491.24	360.44
491.41	421.30
491.59	404.91
491.77	390.87
491.95	358.10
492.13	397.89
492.30	440.02
492.48	421.30
492.66	400.23
492.84	397.89
493.01	437.68
493.19	390.87
493.37	468.11
493.54	423.64
493.72	390.87
493.90	409.59
494.08	416.62
494.25	407.25
494.43	437.68
494.61	407.25
494.79	409.59
494.96	397.89
495.14	465.77
495.32	414.27
495.49	435.34
495.67	409.59
495.85	353.42
496.02	379.17
496.20	414.27
496.38	451.72
496.55	348.74
496.73	421.30
496.91	372.15
497.09	397.89
497.26	418.96
497.44	444.70
497.62	470.45
497.79	425.98
497.97	437.68
498.14	400.23
498.32	430.66
498.50	451.72
498.67	447.04
498.85	395.55
499.03	402.57
499.20	440.02
499.38	411.93
499.56	468.11
499.73	444.70
499.91	416.62
500.08	421.30
500.26	402.57
500.44	442.36
500.61	423.64
500.79	433.00
500.97	381.51
501.14	458.74
501.32	369.80
501.49	477.47
501.67	404.91
501.84	421.30
502.02	355.76
502.20	430.66
502.37	348.74
502.55	423.64
502.72	341.72
502.90	454.06
503.07	393.21
503.25	482.15
503.43	395.55
503.60	374.49
503.78	430.66
503.95	423.64
504.13	458.74
504.30	451.72
504.48	416.62
504.65	489.17
504.83	353.42
505.01	472.79
505.18	414.27
505.36	372.15
505.53	397.89
505.71	381.51
505.88	470.45
506.06	418.96
506.23	458.74
506.41	393.21
506.58	421.30
506.76	454.06
506.93	400.23
507.11	376.83
507.28	372.15
507.46	411.93
507.63	456.40
507.81	430.66
507.98	383.85
508.16	421.30
508.33	421.30
508.50	461.09
508.68	393.21
508.85	421.30
509.03	383.85
509.20	400.23
509.38	397.89
509.55	447.04
509.73	409.59
509.90	397.89
510.08	423.64
510.25	447.04
510.42	454.06
510.60	395.55
510.77	376.83
510.95	437.68
511.12	433.00
511.30	449.38
511.47	386.19
511.64	437.68
511.82	388.53
511.99	386.19
512.17	447.04
512.34	381.51
512.51	449.38
512.69	409.59
512.86	447.04
513.04	433.00
513.21	418.96
513.38	393.21
513.56	414.27
513.73	416.62
513.90	463.43
514.08	468.11
514.25	416.62
514.43	428.32
514.60	491.51
514.77	369.80
514.95	470.45
515.12	388.53
515.29	390.87
515.47	386.19
515.64	407.25
515.81	425.98
515.99	418.96
516.16	519.60
516.33	454.06
516.51	461.09
516.68	414.27
516.85	421.30
517.03	461.09
517.20	430.66
517.37	400.23
517.54	442.36
517.72	421.30
517.89	402.57
518.06	463.43
518.24	461.09
518.41	433.00
518.58	465.77
518.75	418.96
518.93	325.33
519.10	393.21
519.27	409.59
519.45	475.13
519.62	423.64
519.79	472.79
519.96	386.19
520.14	418.96
520.31	477.47
520.48	393.21
520.65	465.77
520.83	423.64
521.00	351.08
521.17	383.85
521.34	491.51
521.52	379.17
521.69	465.77
521.86	442.36
522.03	369.80
522.20	458.74
522.38	416.62
522.55	372.15
522.72	421.30
522.89	411.93
523.07	444.70
523.24	383.85
523.41	388.53
523.58	409.59
523.75	447.04
523.92	423.64
524.10	458.74
524.27	458.74
524.44	355.76
524.61	425.98
524.78	365.12
524.96	449.38
525.13	456.40
525.30	475.13
525.47	372.15
525.64	433.00
525.81	414.27
525.98	421.30
526.16	362.78
526.33	376.83
526.50	353.42
526.67	330.02
526.84	372.15
527.01	379.17
527.18	437.68
527.36	477.47
527.53	416.62
527.70	477.47
527.87	414.27
528.04	493.85
528.21	390.87
528.38	407.25
528.55	447.04
528.72	428.32
528.89	383.85
529.07	390.87
529.24	367.46
529.41	430.66
529.58	435.34
529.75	430.66
529.92	416.62
530.09	404.91
530.26	451.72
530.43	404.91
530.60	414.27
530.77	358.10
530.94	444.70
531.11	491.51
531.28	433.00
531.46	388.53
531.63	517.26
531.80	397.89
531.97	500.87
532.14	400.23
532.31	470.45
532.48	409.59
532.65	456.40
532.82	395.55
532.99	379.17
533.16	447.04
533.33	369.80
533.50	472.79
533.67	388.53
533.84	440.02
534.01	353.42
534.18	339.38
534.35	414.27
534.52	393.21
534.69	440.02
534.86	447.04
535.03	440.02
535.20	388.53
535.37	418.96
535.54	465.77
535.71	423.64
535.88	475.13
536.05	414.27
536.22	418.96
536.38	423.64
536.55	414.27
536.72	433.00
536.89	425.98
537.06	344.06
537.23	376.83
537.40	458.74
537.57	409.59
537.74	486.83
537.91	482.15
538.08	421.30
538.25	458.74
538.42	425.98
538.59	482.15
538.75	484.49
538.92	435.34
539.09	468.11
539.26	454.06
539.43	407.25
539.60	444.70
539.77	456.40
539.94	376.83
540.11	397.89
540.28	421.30
540.44	440.02
540.61	461.09
540.78	463.43
540.95	400.23
541.12	430.66
541.29	442.36
541.46	440.02
541.62	369.80
541.79	489.17
541.96	383.85
542.13	332.36
542.30	503.22
542.47	528.96
542.63	447.04
542.80	482.15
542.97	449.38
543.14	458.74
543.31	390.87
543.48	433.00
543.64	372.15
543.81	395.55
543.98	400.23
544.15	425.98
544.32	330.02
544.48	437.68
544.65	411.93
544.82	404.91
544.99	493.85
545.16	435.34
545.32	447.04
545.49	425.98
545.66	411.93
545.83	348.74
546.00	449.38
546.16	393.21
546.33	388.53
546.50	395.55
546.67	489.17
546.83	430.66
547.00	491.51
547.17	411.93
547.34	418.96
547.50	458.74
547.67	475.13
547.84	435.34
548.00	465.77
548.17	465.77
548.34	442.36
548.51	444.70
548.67	437.68
548.84	376.83
549.01	493.85
549.18	376.83
549.34	433.00
549.51	376.83
549.68	404.91
549.84	418.96
550.01	444.70
550.18	440.02
550.34	528.96
550.51	437.68
550.68	411.93
550.84	440.02
551.01	376.83
551.18	470.45
551.34	390.87
551.51	425.98
551.68	414.27
551.84	418.96
552.01	461.09
552.18	458.74
552.34	374.49
552.51	433.00
552.68	418.96
552.84	381.51
553.01	404.91
553.18	423.64
553.34	468.11
553.51	425.98
553.67	428.32
553.84	414.27
554.01	393.21
554.17	416.62
554.34	400.23
554.51	393.21
554.67	435.34
554.84	369.80
555.00	470.45
555.17	444.70
555.33	472.79
555.50	447.04
555.67	433.00
555.83	442.36
556.00	447.04
556.16	521.94
556.33	475.13
556.50	479.81
556.66	358.10
556.83	376.83
556.99	451.72
557.16	500.87
557.32	423.64
557.49	468.11
557.65	402.57
557.82	440.02
557.98	353.42
558.15	379.17
558.32	351.08
558.48	454.06
558.65	425.98
558.81	416.62
558.98	418.96
559.14	388.53
559.31	484.49
559.47	447.04
559.64	430.66
559.80	397.89
559.97	390.87
560.13	409.59
560.30	388.53
560.46	393.21
560.63	355.76
560.79	383.85
560.96	421.30
561.12	369.80
561.29	461.09
561.45	461.09
561.61	402.57
561.78	451.72
561.94	458.74
562.11	402.57
562.27	402.57
562.44	341.72
562.60	407.25
562.77	461.09
562.93	493.85
563.10	400.23
563.26	379.17
563.42	472.79
563.59	454.06
563.75	514.92
563.92	418.96
564.08	388.53
564.24	444.70
564.41	447.04
564.57	496.19
564.74	386.19
564.90	440.02
565.07	320.65
565.23	486.83
565.39	388.53
565.56	404.91
565.72	365.12
565.88	400.23
566.05	514.92
566.21	379.17
566.38	498.53
566.54	428.32
566.70	409.59
566.87	444.70
567.03	365.12
567.19	374.49
567.36	407.25
567.52	402.57
567.68	423.64
567.85	372.15
568.01	393.21
568.17	416.62
568.34	451.72
568.50	458.74
568.66	400.23
568.83	486.83
568.99	454.06
569.15	456.40
569.32	386.19
569.48	344.06
569.64	423.64
569.81	449.38
569.97	369.80
570.13	409.59
570.30	395.55
570.46	423.64
570.62	421.30
570.78	409.59
570.95	416.62
571.11	489.17
571.27	533.64
571.43	442.36
571.60	390.87
571.76	491.51
571.92	369.80
572.09	404.91
572.25	418.96
572.41	397.89
572.57	418.96
572.74	489.17
572.90	418.96
573.06	400.23
573.22	362.78
573.38	425.98
573.55	407.25
573.71	402.57
573.87	447.04
574.03	388.53
574.20	390.87
574.36	393.21
574.52	383.85
574.68	386.19
574.84	425.98
575.01	461.09
575.17	444.70
575.33	458.74
575.49	393.21
575.65	374.49
575.82	498.53
575.98	477.47
576.14	414.27
576.30	407.25
576.46	404.91
576.62	355.76
576.79	451.72
576.95	411.93
577.11	449.38
577.27	447.04
577.43	449.38
577.59	402.57
577.75	367.46
577.92	407.25
578.08	376.83
578.24	404.91
578.40	397.89
578.56	409.59
578.72	477.47
578.88	433.00
579.04	395.55
579.21	393.21
579.37	418.96
579.53	362.78
579.69	440.02
579.85	402.57
580.01	404.91
580.17	369.80
580.33	418.96
580.49	381.51
580.65	388.53
580.82	430.66
580.98	435.34
581.14	418.96
581.30	409.59
581.46	421.30
581.62	362.78
581.78	430.66
581.94	409.59
582.10	367.46
582.26	383.85
582.42	341.72
582.58	318.31
582.74	325.33
582.90	433.00
583.06	411.93
583.22	383.85
583.38	369.80
583.54	421.30
583.70	411.93
583.86	393.21
584.02	367.46
584.18	433.00
584.34	433.00
584.50	428.32
584.66	433.00
584.82	435.34
584.98	386.19
585.14	376.83
585.30	416.62
585.46	346.40
585.62	372.15
585.78	397.89
585.94	444.70
586.10	440.02
586.26	381.51
586.42	397.89
586.58	362.78
586.74	435.34
586.90	379.17
587.06	418.96
587.22	395.55
587.38	435.34
587.54	456.40
587.70	360.44
587.86	456.40
588.02	344.06
588.18	407.25
588.34	458.74
588.49	425.98
588.65	381.51
588.81	397.89
588.97	353.42
589.13	395.55
589.29	440.02
589.45	425.98
589.61	421.30
589.77	414.27
589.93	362.78
590.08	369.80
590.24	402.57
590.40	444.70
590.56	355.76
590.72	468.11
590.88	421.30
591.04	402.57
591.20	388.53
591.35	416.62
591.51	433.00
591.67	458.74
591.83	442.36
591.99	444.70
592.15	447.04
592.31	470.45
592.46	461.09
592.62	461.09
592.78	409.59
592.94	360.44
593.10	374.49
593.26	414.27
593.41	428.32
593.57	449.38
593.73	402.57
593.89	407.25
594.05	442.36
594.20	402.57
594.36	451.72
594.52	472.79
594.68	379.17
594.84	433.00
594.99	440.02
595.15	369.80
595.31	461.09
595.47	468.11
595.62	407.25
595.78	388.53
595.94	372.15
596.10	444.70
596.25	407.25
596.41	355.76
596.57	423.64
596.73	430.66
596.88	388.53
597.04	435.34
597.20	402.57
597.36	430.66
597.51	395.55
597.67	449.38
597.83	393.21
597.99	425.98
598.14	458.74
598.30	468.11
598.46	423.64
598.61	489.17
598.77	444.70
598.93	463.43
599.09	414.27
599.24	447.04
599.40	414.27
599.56	512.58
599.71	440.02
599.87	390.87
600.03	397.89
600.18	402.57
600.34	388.53
600.50	355.76
600.65	365.12
600.81	484.49
600.97	339.38
601.12	383.85
601.28	402.57
601.44	461.09
601.59	304.27
601.75	372.15
601.91	435.34
602.06	451.72
602.22	430.66
602.37	425.98
602.53	456.40
602.69	355.76
602.84	442.36
603.00	477.47
603.16	334.70
603.31	393.21
603.47	491.51
603.62	416.62
603.78	411.93
603.94	374.49
604.09	486.83
604.25	435.34
604.40	386.19
604.56	418.96
604.71	393.21
604.87	404.91
605.03	430.66
605.18	423.64
605.34	493.85
605.49	421.30
605.65	421.30
605.80	416.62
605.96	423.64
606.12	479.81
606.27	444.70
606.43	444.70
606.58	461.09
606.74	411.93
606.89	367.46
607.05	376.83
607.20	332.36
607.36	381.51
607.51	372.15
607.67	365.12
607.82	430.66
607.98	444.70
608.13	498.53
608.29	451.72
608.44	489.17
608.60	496.19
608.75	407.25
608.91	491.51
609.06	447.04
609.22	402.57
609.37	376.83
609.53	421.30
609.68	456.40
609.84	416.62
609.99	337.04
610.15	456.40
610.30	423.64
610.46	451.72
610.61	383.85
610.76	369.80
610.92	468.11
611.07	407.25
611.23	449.38
611.38	458.74
611.54	435.34
611.69	404.91
611.84	458.74
612.00	397.89
612.15	400.23
612.31	395.55
612.46	447.04
612.62	435.34
612.77	472.79
612.92	440.02
613.08	435.34
613.23	458.74
613.39	472.79
613.54	433.00
613.69	463.43
613.85	456.40
614.00	395.55
614.15	416.62
614.31	390.87
614.46	500.87
614.62	411.93
614.77	475.13
614.92	468.11
615.08	411.93
615.23	440.02
615.38	423.64
615.54	372.15
615.69	365.12
615.84	372.15
616.00	355.76
616.15	407.25
616.30	400.23
616.46	461.09
616.61	369.80
616.76	418.96
616.92	430.66
617.07	355.76
617.22	402.57
617.37	461.09
617.53	411.93
617.68	465.77
617.83	449.38
617.99	390.87
618.14	386.19
618.29	442.36
618.45	369.80
618.60	395.55
618.75	435.34
618.90	416.62
619.06	421.30
619.21	454.06
619.36	512.58
619.51	472.79
619.67	449.38
619.82	496.19
619.97	484.49
620.12	411.93
620.28	381.51
620.43	433.00
620.58	416.62
620.73	409.59
620.89	461.09
621.04	458.74
621.19	491.51
621.34	362.78
621.49	388.53
621.65	369.80
621.80	337.04
621.95	442.36
622.10	454.06
622.25	437.68
622.41	404.91
622.56	381.51
622.71	360.44
622.86	404.91
623.01	423.64
623.16	482.15
623.32	353.42
623.47	442.36
623.62	421.30
623.77	449.38
623.92	393.21
624.07	416.62
624.23	379.17
624.38	425.98
624.53	404.91
624.68	440.02
624.83	479.81
624.98	465.77
625.13	404.91
625.29	486.83
625.44	365.12
625.59	447.04
625.74	430.66
625.89	423.64
626.04	395.55
626.19	402.57
626.34	416.62
626.49	390.87
626.65	421.30
626.80	397.89
626.95	442.36
627.10	428.32
627.25	486.83
627.40	409.59
627.55	397.89
627.70	416.62
627.85	437.68
628.00	435.34
628.15	388.53
628.30	433.00
628.45	409.59
628.60	395.55
628.76	433.00
628.91	393.21
629.06	456.40
629.21	381.51
629.36	440.02
629.51	416.62
629.66	437.68
629.81	322.99
629.96	435.34
630.11	477.47
630.26	393.21
630.41	395.55
630.56	465.77
630.71	411.93
630.86	393.21
631.01	388.53
631.16	416.62
631.31	425.98
631.46	477.47
631.61	440.02
631.76	383.85
631.91	498.53
632.06	440.02
632.21	374.49
632.36	418.96
632.51	465.77
632.66	421.30
632.81	414.27
632.96	390.87
633.10	449.38
633.25	484.49
633.40	454.06
633.55	397.89
633.70	461.09
633.85	400.23
634.00	395.55
634.15	376.83
634.30	325.33
634.45	334.70
634.60	440.02
634.75	390.87
634.90	367.46
635.05	372.15
635.19	423.64
635.34	533.64
635.49	461.09
635.64	489.17
635.79	442.36
635.94	433.00
636.09	470.45
636.24	353.42
636.39	395.55
636.53	355.76
636.68	402.57
636.83	414.27
636.98	449.38
637.13	390.87
637.28	421.30
637.43	362.78
637.57	407.25
637.72	402.57
637.87	444.70
638.02	381.51
638.17	372.15
638.32	397.89
638.46	435.34
638.61	341.72
638.76	404.91
638.91	411.93
639.06	372.15
639.20	433.00
639.35	421.30
639.50	407.25
639.65	447.04
639.80	418.96
639.94	346.40
640.09	393.21
640.24	404.91
640.39	393.21
640.54	447.04
640.68	423.64
640.83	444.70
640.98	400.23
641.13	449.38
641.27	355.76
641.42	404.91
641.57	449.38
641.72	430.66
641.86	433.00
642.01	428.32
642.16	437.68
642.31	360.44
642.45	430.66
642.60	440.02
642.75	418.96
642.90	475.13
643.04	484.49
643.19	402.57
643.34	416.62
643.48	437.68
643.63	402.57
643.78	472.79
643.93	437.68
644.07	418.96
644.22	409.59
644.37	397.89
644.51	470.45
644.66	425.98
644.81	526.62
644.95	425.98
645.10	322.99
645.25	346.40
645.39	346.40
645.54	358.10
645.69	465.77
645.83	444.70
645.98	475.13
646.13	402.57
646.27	442.36
646.42	402.57
646.57	463.43
646.71	444.70
646.86	442.36
647.00	444.70
647.15	390.87
647.30	360.44
647.44	461.09
647.59	465.77
647.74	472.79
647.88	463.43
648.03	390.87
648.17	386.19
648.32	428.32
648.47	470.45
648.61	442.36
648.76	411.93
648.90	360.44
649.05	379.17
649.20	414.27
649.34	416.62
649.49	400.23
649.63	449.38
649.78	451.72
649.92	451.72
650.07	381.51
650.21	362.78
650.36	442.36
650.51	388.53
650.65	444.70
650.80	430.66
650.94	411.93
651.09	379.17
651.23	379.17
651.38	358.10
651.52	400.23
651.67	407.25
651.81	444.70
651.96	454.06
652.10	472.79
652.25	475.13
652.39	454.06
652.54	332.36
652.68	414.27
652.83	477.47
652.97	425.98
653.12	395.55
653.26	437.68
653.41	433.00
653.55	428.32
653.70	416.62
653.84	395.55
653.99	388.53
654.13	374.49
654.27	372.15
654.42	421.30
654.56	402.57
654.71	444.70
654.85	421.30
655.00	390.87
655.14	369.80
655.29	390.87
655.43	440.02
655.57	458.74
655.72	381.51
655.86	447.04
656.01	428.32
656.15	404.91
656.30	388.53
656.44	393.21
656.58	425.98
656.73	409.59
656.87	463.43
657.01	425.98
657.16	461.09
657.30	414.27
657.45	456.40
657.59	425.98
657.73	435.34
657.88	365.12
658.02	468.11
658.16	444.70
658.31	423.64
658.45	397.89
658.60	402.57
658.74	388.53
658.88	402.57
659.03	437.68
659.17	362.78
659.31	330.02
659.46	386.19
659.60	435.34
659.74	421.30
659.89	435.34
660.03	414.27
660.17	486.83
660.32	409.59
660.46	442.36
660.60	444.70
660.74	437.68
660.89	475.13
661.03	428.32
661.17	425.98
661.32	472.79
661.46	390.87
661.60	395.55
661.74	402.57
661.89	465.77
662.03	369.80
662.17	425.98
662.31	376.83
662.46	447.04
662.60	458.74
662.74	397.89
662.88	430.66
663.03	365.12
663.17	355.76
663.31	505.56
663.45	433.00
663.60	395.55
663.74	395.55
663.88	437.68
664.02	367.46
664.17	390.87
664.31	440.02
664.45	388.53
664.59	451.72
664.73	376.83
664.88	489.17
665.02	416.62
665.16	383.85
665.30	510.24
665.44	404.91
665.59	449.38
665.73	404.91
665.87	339.38
666.01	433.00
666.15	322.99
666.29	400.23
666.44	465.77
666.58	428.32
666.72	425.98
666.86	355.76
667.00	442.36
667.14	372.15
667.28	421.30
667.43	397.89
667.57	444.70
667.71	479.81
667.85	379.17
667.99	456.40
668.13	397.89
668.27	425.98
668.41	423.64
668.56	451.72
668.70	404.91
668.84	444.70
668.98	388.53
669.12	367.46
669.26	468.11
669.40	503.22
669.54	414.27
669.68	414.27
669.82	447.04
669.96	468.11
670.10	423.64
670.25	367.46
670.39	500.87
670.53	388.53
670.67	428.32
670.81	442.36
670.95	472.79
671.09	437.68
671.23	472.79
671.37	437.68
671.51	376.83
671.65	468.11
671.79	411.93
671.93	416.62
672.07	418.96
672.21	400.23
672.35	458.74
672.49	353.42
672.63	440.02
672.77	376.83
672.91	435.34
673.05	428.32
673.19	444.70
673.33	386.19
673.47	390.87
673.61	465.77
673.75	447.04
673.89	449.38
674.03	367.46
674.17	444.70
674.31	388.53
674.45	379.17
674.59	386.19
674.73	390.87
674.87	386.19
675.01	407.25
675.15	414.27
675.29	435.34
675.43	479.81
675.56	482.15
675.70	477.47
675.84	512.58
675.98	411.93
676.12	458.74
676.26	409.59
676.40	400.23
676.54	421.30
676.68	472.79
676.82	353.42
676.96	337.04
677.10	411.93
677.23	425.98
677.37	409.59
677.51	414.27
677.65	451.72
677.79	458.74
677.93	362.78
678.07	358.10
678.21	414.27
678.34	355.76
678.48	421.30
678.62	428.32
678.76	400.23
678.90	416.62
679.04	505.56
679.18	367.46
679.31	393.21
679.45	407.25
679.59	435.34
679.73	475.13
679.87	486.83
680.00	400.23
680.14	390.87
680.28	437.68
680.42	381.51
680.56	433.00
680.70	409.59
680.83	435.34
680.97	409.59
681.11	435.34
681.25	388.53
681.39	458.74
681.52	374.49
681.66	423.64
681.80	423.64
681.94	374.49
682.07	418.96
682.21	444.70
682.35	362.78
682.49	341.72
682.62	388.53
682.76	381.51
682.90	383.85
683.04	418.96
683.17	388.53
683.31	390.87
683.45	430.66
683.59	498.53
683.72	442.36
683.86	451.72
684.00	362.78
684.13	383.85
684.27	463.43
684.41	440.02
684.55	463.43
684.68	435.34
684.82	411.93
684.96	395.55
685.09	388.53
685.23	444.70
685.37	472.79
685.50	496.19
685.64	451.72
685.78	358.10
685.91	440.02
686.05	470.45
686.19	411.93
686.32	369.80
686.46	369.80
686.60	381.51
686.73	440.02
686.87	461.09
687.01	430.66
687.14	449.38
687.28	465.77
687.42	465.77
687.55	421.30
687.69	416.62
687.82	393.21
687.96	369.80
688.10	425.98
688.23	444.70
688.37	423.64
688.50	388.53
688.64	425.98
688.78	421.30
688.91	411.93
689.05	395.55
689.18	411.93
689.32	449.38
689.46	442.36
689.59	332.36
689.73	444.70
689.86	416.62
690.00	430.66
690.13	456.40
690.27	416.62
690.41	393.21
690.54	442.36
690.68	435.34
690.81	383.85
690.95	414.27
691.08	454.06
691.22	430.66
691.35	423.64
691.49	365.12
691.62	400.23
691.76	477.47
691.89	416.62
692.03	433.00
692.16	428.32
692.30	423.64
692.43	390.87
692.57	447.04
692.70	313.63
692.84	351.08
692.97	360.44
693.11	383.85
693.24	442.36
693.38	433.00
693.51	463.43
693.65	430.66
693.78	393.21
693.92	402.57
694.05	402.57
694.19	374.49
694.32	386.19
694.45	407.25
694.59	433.00
694.72	367.46
694.86	348.74
694.99	402.57
695.13	379.17
695.26	402.57
695.39	346.40
695.53	414.27
695.66	365.12
695.80	414.27
695.93	358.10
696.07	425.98
696.20	461.09
696.33	383.85
696.47	381.51
696.60	402.57
696.73	379.17
696.87	425.98
697.00	369.80
697.14	416.62
697.27	379.17
697.40	533.64
697.54	395.55
697.67	395.55
697.80	479.81
697.94	451.72
698.07	458.74
698.21	395.55
698.34	421.30
698.47	484.49
698.61	374.49
698.74	416.62
698.87	437.68
699.01	397.89
699.14	379.17
699.27	418.96
699.40	433.00
699.54	397.89
699.67	367.46
699.80	425.98
699.94	346.40
700.07	435.34
700.20	449.38
700.34	421.30
700.47	428.32
700.60	435.34
700.73	447.04
700.87	472.79
701.00	414.27
701.13	388.53
701.26	482.15
701.40	435.34
701.53	430.66
701.66	458.74
701.79	428.32
701.93	402.57
702.06	423.64
702.19	393.21
702.32	456.40
702.46	435.34
702.59	416.62
702.72	353.42
702.85	435.34
702.99	409.59
703.12	454.06
703.25	330.02
703.38	468.11
703.51	421.30
703.65	440.02
703.78	346.40
703.91	435.34
704.04	421.30
704.17	423.64
704.31	421.30
704.44	418.96
704.57	463.43
704.70	358.10
704.83	428.32
704.96	407.25
705.10	484.49
705.23	351.08
>>>>>End Processed Spectral Data<<<<<
