SpectraSuite Data File
++++++++++++++++++++++++++++++++++++
Date: Fri Oct 25 12:10:06 EDT 2013
User: price-jones
Dark Spectrum Present: No
Reference Spectrum Present: No
Number of Sampled Component Spectra: 1
Spectrometers: USB2+H05261
Integration Time (usec): 100000 (USB2+H05261)
Spectra Averaged: 1 (USB2+H05261)
Boxcar Smoothing: 0 (USB2+H05261)
Correct for Electrical Dark: No (USB2+H05261)
Strobe/Lamp Enabled: No (USB2+H05261)
Correct for Detector Non-linearity: No (USB2+H05261)
Correct for Stray Light: No (USB2+H05261)
Number of Pixels in Processed Spectrum: 2048
>>>>>Begin Processed Spectral Data<<<<<
365.73	332.36
365.92	332.36
366.12	332.36
366.32	241.08
366.52	210.65
366.72	257.46
366.91	227.03
367.11	227.03
367.31	257.46
367.51	229.37
367.70	266.82
367.90	215.33
368.10	198.95
368.30	215.33
368.49	201.29
368.69	280.86
368.89	330.02
369.09	224.69
369.28	273.84
369.48	299.59
369.68	327.68
369.87	287.89
370.07	290.23
370.27	353.42
370.47	273.84
370.66	332.36
370.86	334.70
371.06	379.17
371.25	304.27
371.45	334.70
371.65	372.15
371.84	292.57
372.04	355.76
372.24	402.57
372.44	383.85
372.63	454.06
372.83	362.78
373.03	407.25
373.22	379.17
373.42	465.77
373.62	433.00
373.81	409.59
374.01	521.94
374.21	521.94
374.40	458.74
374.60	411.93
374.79	416.62
374.99	404.91
375.19	414.27
375.38	416.62
375.58	397.89
375.78	381.51
375.97	428.32
376.17	444.70
376.37	402.57
376.56	379.17
376.76	463.43
376.95	454.06
377.15	409.59
377.35	360.44
377.54	397.89
377.74	435.34
377.93	444.70
378.13	400.23
378.33	447.04
378.52	402.57
378.72	397.89
378.91	451.72
379.11	393.21
379.31	372.15
379.50	425.98
379.70	440.02
379.89	409.59
380.09	395.55
380.28	449.38
380.48	346.40
380.68	400.23
380.87	339.38
381.07	418.96
381.26	430.66
381.46	360.44
381.65	351.08
381.85	425.98
382.04	353.42
382.24	346.40
382.43	376.83
382.63	348.74
382.83	397.89
383.02	411.93
383.22	365.12
383.41	400.23
383.61	416.62
383.80	435.34
384.00	442.36
384.19	458.74
384.39	393.21
384.58	411.93
384.78	458.74
384.97	402.57
385.17	449.38
385.36	418.96
385.56	416.62
385.75	430.66
385.95	430.66
386.14	423.64
386.34	407.25
386.53	388.53
386.72	358.10
386.92	421.30
387.11	428.32
387.31	400.23
387.50	447.04
387.70	344.06
387.89	386.19
388.09	386.19
388.28	362.78
388.48	362.78
388.67	461.09
388.86	449.38
389.06	397.89
389.25	348.74
389.45	381.51
389.64	381.51
389.84	407.25
390.03	482.15
390.22	449.38
390.42	416.62
390.61	442.36
390.81	414.27
391.00	332.36
391.19	397.89
391.39	332.36
391.58	400.23
391.78	435.34
391.97	404.91
392.16	397.89
392.36	390.87
392.55	430.66
392.75	395.55
392.94	433.00
393.13	442.36
393.33	407.25
393.52	437.68
393.71	411.93
393.91	365.12
394.10	416.62
394.29	407.25
394.49	301.93
394.68	421.30
394.88	423.64
395.07	491.51
395.26	374.49
395.46	379.17
395.65	416.62
395.84	367.46
396.04	433.00
396.23	407.25
396.42	421.30
396.62	362.78
396.81	463.43
397.00	332.36
397.19	430.66
397.39	306.61
397.58	372.15
397.77	444.70
397.97	400.23
398.16	402.57
398.35	454.06
398.55	416.62
398.74	456.40
398.93	418.96
399.12	386.19
399.32	458.74
399.51	376.83
399.70	369.80
399.90	470.45
400.09	404.91
400.28	507.90
400.47	327.68
400.67	418.96
400.86	409.59
401.05	440.02
401.24	479.81
401.44	442.36
401.63	330.02
401.82	463.43
402.01	306.61
402.21	386.19
402.40	404.91
402.59	395.55
402.78	402.57
402.97	360.44
403.17	400.23
403.36	435.34
403.55	428.32
403.74	477.47
403.93	428.32
404.13	454.06
404.32	402.57
404.51	397.89
404.70	456.40
404.89	386.19
405.09	442.36
405.28	454.06
405.47	421.30
405.66	404.91
405.85	407.25
406.05	395.55
406.24	423.64
406.43	348.74
406.62	435.34
406.81	418.96
407.00	447.04
407.20	425.98
407.39	386.19
407.58	386.19
407.77	451.72
407.96	463.43
408.15	418.96
408.34	402.57
408.54	402.57
408.73	454.06
408.92	411.93
409.11	402.57
409.30	388.53
409.49	344.06
409.68	444.70
409.87	433.00
410.07	430.66
410.26	437.68
410.45	416.62
410.64	313.63
410.83	409.59
411.02	383.85
411.21	428.32
411.40	486.83
411.59	388.53
411.78	397.89
411.98	407.25
412.17	372.15
412.36	395.55
412.55	404.91
412.74	470.45
412.93	444.70
413.12	397.89
413.31	383.85
413.50	376.83
413.69	416.62
413.88	477.47
414.07	402.57
414.26	360.44
414.45	458.74
414.64	449.38
414.83	440.02
415.02	411.93
415.22	463.43
415.41	470.45
415.60	388.53
415.79	397.89
415.98	456.40
416.17	416.62
416.36	339.38
416.55	365.12
416.74	465.77
416.93	458.74
417.12	358.10
417.31	421.30
417.50	395.55
417.69	386.19
417.88	444.70
418.07	360.44
418.26	393.21
418.45	416.62
418.64	397.89
418.83	409.59
419.02	479.81
419.21	348.74
419.39	414.27
419.58	395.55
419.77	383.85
419.96	463.43
420.15	425.98
420.34	376.83
420.53	404.91
420.72	521.94
420.91	360.44
421.10	407.25
421.29	411.93
421.48	461.09
421.67	500.87
421.86	367.46
422.05	463.43
422.24	355.76
422.43	395.55
422.61	388.53
422.80	379.17
422.99	348.74
423.18	437.68
423.37	423.64
423.56	461.09
423.75	463.43
423.94	362.78
424.13	393.21
424.32	430.66
424.50	430.66
424.69	334.70
424.88	440.02
425.07	294.91
425.26	395.55
425.45	407.25
425.64	362.78
425.83	374.49
426.01	428.32
426.20	414.27
426.39	421.30
426.58	367.46
426.77	407.25
426.96	383.85
427.15	374.49
427.33	510.24
427.52	433.00
427.71	365.12
427.90	433.00
428.09	435.34
428.28	383.85
428.46	322.99
428.65	440.02
428.84	423.64
429.03	430.66
429.22	428.32
429.40	404.91
429.59	425.98
429.78	369.80
429.97	390.87
430.16	451.72
430.34	411.93
430.53	418.96
430.72	484.49
430.91	397.89
431.10	395.55
431.28	475.13
431.47	451.72
431.66	428.32
431.85	411.93
432.03	463.43
432.22	433.00
432.41	421.30
432.60	447.04
432.79	470.45
432.97	425.98
433.16	409.59
433.35	404.91
433.54	376.83
433.72	400.23
433.91	395.55
434.10	346.40
434.28	390.87
434.47	374.49
434.66	404.91
434.85	383.85
435.03	437.68
435.22	454.06
435.41	472.79
435.59	421.30
435.78	386.19
435.97	425.98
436.16	468.11
436.34	407.25
436.53	437.68
436.72	353.42
436.90	423.64
437.09	503.22
437.28	390.87
437.46	451.72
437.65	416.62
437.84	393.21
438.02	402.57
438.21	407.25
438.40	388.53
438.58	456.40
438.77	484.49
438.96	402.57
439.14	388.53
439.33	386.19
439.52	390.87
439.70	428.32
439.89	435.34
440.08	369.80
440.26	397.89
440.45	477.47
440.63	369.80
440.82	383.85
441.01	447.04
441.19	330.02
441.38	395.55
441.57	421.30
441.75	418.96
441.94	430.66
442.12	409.59
442.31	369.80
442.50	369.80
442.68	383.85
442.87	435.34
443.05	407.25
443.24	440.02
443.43	428.32
443.61	423.64
443.80	498.53
443.98	390.87
444.17	418.96
444.35	444.70
444.54	369.80
444.73	491.51
444.91	411.93
445.10	372.15
445.28	425.98
445.47	414.27
445.65	379.17
445.84	447.04
446.02	404.91
446.21	430.66
446.39	383.85
446.58	383.85
446.77	344.06
446.95	395.55
447.14	409.59
447.32	400.23
447.51	362.78
447.69	416.62
447.88	449.38
448.06	479.81
448.25	472.79
448.43	379.17
448.62	416.62
448.80	400.23
448.99	447.04
449.17	458.74
449.36	442.36
449.54	409.59
449.73	447.04
449.91	332.36
450.10	362.78
450.28	470.45
450.46	538.32
450.65	416.62
450.83	470.45
451.02	355.76
451.20	435.34
451.39	428.32
451.57	404.91
451.76	376.83
451.94	353.42
452.13	430.66
452.31	435.34
452.49	407.25
452.68	395.55
452.86	449.38
453.05	372.15
453.23	397.89
453.42	465.77
453.60	397.89
453.78	339.38
453.97	365.12
454.15	433.00
454.34	327.68
454.52	381.51
454.70	400.23
454.89	388.53
455.07	362.78
455.26	435.34
455.44	428.32
455.62	411.93
455.81	437.68
455.99	451.72
456.17	475.13
456.36	411.93
456.54	404.91
456.73	379.17
456.91	402.57
457.09	339.38
457.28	390.87
457.46	421.30
457.64	449.38
457.83	404.91
458.01	409.59
458.19	397.89
458.38	437.68
458.56	383.85
458.74	388.53
458.93	440.02
459.11	444.70
459.29	435.34
459.48	472.79
459.66	430.66
459.84	397.89
460.03	383.85
460.21	447.04
460.39	414.27
460.57	428.32
460.76	376.83
460.94	397.89
461.12	365.12
461.31	461.09
461.49	491.51
461.67	456.40
461.85	400.23
462.04	360.44
462.22	777.06
462.40	484.49
462.59	477.47
462.77	437.68
462.95	423.64
463.13	381.51
463.32	416.62
463.50	454.06
463.68	425.98
463.86	489.17
464.05	416.62
464.23	440.02
464.41	409.59
464.59	365.12
464.78	423.64
464.96	360.44
465.14	407.25
465.32	414.27
465.50	390.87
465.69	407.25
465.87	362.78
466.05	437.68
466.23	458.74
466.41	407.25
466.60	484.49
466.78	440.02
466.96	425.98
467.14	390.87
467.32	409.59
467.51	397.89
467.69	386.19
467.87	360.44
468.05	386.19
468.23	404.91
468.41	428.32
468.60	379.17
468.78	458.74
468.96	463.43
469.14	362.78
469.32	360.44
469.50	353.42
469.69	407.25
469.87	461.09
470.05	379.17
470.23	465.77
470.41	407.25
470.59	395.55
470.77	393.21
470.95	423.64
471.14	404.91
471.32	411.93
471.50	461.09
471.68	388.53
471.86	400.23
472.04	386.19
472.22	402.57
472.40	449.38
472.58	449.38
472.77	461.09
472.95	360.44
473.13	402.57
473.31	435.34
473.49	369.80
473.67	390.87
473.85	404.91
474.03	400.23
474.21	388.53
474.39	442.36
474.57	482.15
474.75	416.62
474.93	362.78
475.12	360.44
475.30	465.77
475.48	402.57
475.66	390.87
475.84	358.10
476.02	421.30
476.20	425.98
476.38	442.36
476.56	411.93
476.74	395.55
476.92	376.83
477.10	442.36
477.28	421.30
477.46	390.87
477.64	437.68
477.82	423.64
478.00	442.36
478.18	383.85
478.36	425.98
478.54	344.06
478.72	400.23
478.90	390.87
479.08	355.76
479.26	379.17
479.44	409.59
479.62	409.59
479.80	397.89
479.98	404.91
480.16	468.11
480.34	447.04
480.52	388.53
480.70	383.85
480.88	372.15
481.06	447.04
481.24	400.23
481.41	440.02
481.59	433.00
481.77	440.02
481.95	404.91
482.13	421.30
482.31	484.49
482.49	414.27
482.67	435.34
482.85	376.83
483.03	428.32
483.21	433.00
483.39	409.59
483.57	484.49
483.74	421.30
483.92	395.55
484.10	451.72
484.28	353.42
484.46	463.43
484.64	421.30
484.82	421.30
485.00	447.04
485.18	393.21
485.35	425.98
485.53	341.72
485.71	449.38
485.89	358.10
486.07	346.40
486.25	409.59
486.43	440.02
486.61	421.30
486.78	414.27
486.96	353.42
487.14	409.59
487.32	376.83
487.50	482.15
487.68	353.42
487.85	386.19
488.03	444.70
488.21	449.38
488.39	430.66
488.57	437.68
488.75	400.23
488.92	437.68
489.10	409.59
489.28	433.00
489.46	369.80
489.64	456.40
489.81	409.59
489.99	367.46
490.17	440.02
490.35	465.77
490.53	397.89
490.70	425.98
490.88	395.55
491.06	327.68
491.24	461.09
491.41	374.49
491.59	479.81
491.77	416.62
491.95	470.45
492.13	411.93
492.30	435.34
492.48	376.83
492.66	416.62
492.84	369.80
493.01	416.62
493.19	423.64
493.37	475.13
493.54	430.66
493.72	447.04
493.90	367.46
494.08	376.83
494.25	444.70
494.43	519.60
494.61	444.70
494.79	360.44
494.96	381.51
495.14	482.15
495.32	395.55
495.49	402.57
495.67	402.57
495.85	402.57
496.02	402.57
496.20	393.21
496.38	416.62
496.55	355.76
496.73	411.93
496.91	332.36
497.09	425.98
497.26	465.77
497.44	425.98
497.62	376.83
497.79	411.93
497.97	411.93
498.14	428.32
498.32	433.00
498.50	456.40
498.67	397.89
498.85	449.38
499.03	407.25
499.20	360.44
499.38	414.27
499.56	468.11
499.73	451.72
499.91	463.43
500.08	435.34
500.26	376.83
500.44	367.46
500.61	472.79
500.79	435.34
500.97	493.85
501.14	458.74
501.32	414.27
501.49	472.79
501.67	463.43
501.84	379.17
502.02	433.00
502.20	528.96
502.37	435.34
502.55	379.17
502.72	421.30
502.90	383.85
503.07	437.68
503.25	470.45
503.43	407.25
503.60	418.96
503.78	395.55
503.95	454.06
504.13	402.57
504.30	444.70
504.48	416.62
504.65	383.85
504.83	402.57
505.01	367.46
505.18	428.32
505.36	318.31
505.53	407.25
505.71	409.59
505.88	454.06
506.06	395.55
506.23	388.53
506.41	404.91
506.58	423.64
506.76	489.17
506.93	386.19
507.11	437.68
507.28	402.57
507.46	374.49
507.63	397.89
507.81	428.32
507.98	388.53
508.16	376.83
508.33	461.09
508.50	402.57
508.68	390.87
508.85	461.09
509.03	348.74
509.20	397.89
509.38	367.46
509.55	454.06
509.73	449.38
509.90	512.58
510.08	381.51
510.25	400.23
510.42	442.36
510.60	435.34
510.77	484.49
510.95	440.02
511.12	332.36
511.30	454.06
511.47	386.19
511.64	458.74
511.82	454.06
511.99	449.38
512.17	482.15
512.34	390.87
512.51	346.40
512.69	423.64
512.86	461.09
513.04	444.70
513.21	395.55
513.38	423.64
513.56	449.38
513.73	423.64
513.90	447.04
514.08	386.19
514.25	397.89
514.43	423.64
514.60	414.27
514.77	451.72
514.95	456.40
515.12	498.53
515.29	423.64
515.47	402.57
515.64	367.46
515.81	421.30
515.99	442.36
516.16	358.10
516.33	444.70
516.51	390.87
516.68	430.66
516.85	414.27
517.03	493.85
517.20	365.12
517.37	444.70
517.54	395.55
517.72	493.85
517.89	320.65
518.06	409.59
518.24	458.74
518.41	411.93
518.58	418.96
518.75	308.95
518.93	402.57
519.10	409.59
519.27	383.85
519.45	421.30
519.62	423.64
519.79	437.68
519.96	379.17
520.14	407.25
520.31	393.21
520.48	353.42
520.65	416.62
520.83	374.49
521.00	451.72
521.17	388.53
521.34	444.70
521.52	470.45
521.69	442.36
521.86	479.81
522.03	444.70
522.20	376.83
522.38	411.93
522.55	433.00
522.72	447.04
522.89	388.53
523.07	402.57
523.24	449.38
523.41	386.19
523.58	365.12
523.75	372.15
523.92	411.93
524.10	381.51
524.27	339.38
524.44	425.98
524.61	393.21
524.78	442.36
524.96	367.46
525.13	433.00
525.30	449.38
525.47	458.74
525.64	409.59
525.81	451.72
525.98	397.89
526.16	414.27
526.33	454.06
526.50	365.12
526.67	447.04
526.84	409.59
527.01	374.49
527.18	463.43
527.36	400.23
527.53	425.98
527.70	479.81
527.87	404.91
528.04	465.77
528.21	402.57
528.38	381.51
528.55	472.79
528.72	400.23
528.89	437.68
529.07	379.17
529.24	437.68
529.41	475.13
529.58	433.00
529.75	381.51
529.92	465.77
530.09	414.27
530.26	416.62
530.43	470.45
530.60	386.19
530.77	428.32
530.94	510.24
531.11	400.23
531.28	395.55
531.46	430.66
531.63	341.72
531.80	360.44
531.97	465.77
532.14	519.60
532.31	449.38
532.48	414.27
532.65	475.13
532.82	454.06
532.99	379.17
533.16	416.62
533.33	411.93
533.50	449.38
533.67	418.96
533.84	437.68
534.01	414.27
534.18	397.89
534.35	379.17
534.52	400.23
534.69	404.91
534.86	414.27
535.03	428.32
535.20	458.74
535.37	463.43
535.54	369.80
535.71	381.51
535.88	404.91
536.05	374.49
536.22	440.02
536.38	458.74
536.55	423.64
536.72	451.72
536.89	360.44
537.06	447.04
537.23	341.72
537.40	372.15
537.57	468.11
537.74	451.72
537.91	486.83
538.08	393.21
538.25	433.00
538.42	433.00
538.59	409.59
538.75	390.87
538.92	428.32
539.09	444.70
539.26	308.95
539.43	435.34
539.60	327.68
539.77	372.15
539.94	409.59
540.11	500.87
540.28	451.72
540.44	425.98
540.61	514.92
540.78	416.62
540.95	393.21
541.12	435.34
541.29	425.98
541.46	482.15
541.62	393.21
541.79	372.15
541.96	435.34
542.13	348.74
542.30	386.19
542.47	409.59
542.63	421.30
542.80	500.87
542.97	470.45
543.14	451.72
543.31	447.04
543.48	374.49
543.64	421.30
543.81	379.17
543.98	442.36
544.15	447.04
544.32	416.62
544.48	390.87
544.65	472.79
544.82	418.96
544.99	454.06
545.16	339.38
545.32	388.53
545.49	402.57
545.66	418.96
545.83	390.87
546.00	454.06
546.16	353.42
546.33	411.93
546.50	435.34
546.67	418.96
546.83	395.55
547.00	461.09
547.17	367.46
547.34	374.49
547.50	376.83
547.67	444.70
547.84	390.87
548.00	421.30
548.17	365.12
548.34	390.87
548.51	404.91
548.67	503.22
548.84	444.70
549.01	500.87
549.18	381.51
549.34	400.23
549.51	402.57
549.68	365.12
549.84	365.12
550.01	367.46
550.18	463.43
550.34	393.21
550.51	374.49
550.68	414.27
550.84	379.17
551.01	447.04
551.18	386.19
551.34	440.02
551.51	404.91
551.68	400.23
551.84	444.70
552.01	440.02
552.18	444.70
552.34	451.72
552.51	381.51
552.68	353.42
552.84	388.53
553.01	390.87
553.18	449.38
553.34	447.04
553.51	514.92
553.67	440.02
553.84	440.02
554.01	500.87
554.17	418.96
554.34	367.46
554.51	430.66
554.67	411.93
554.84	418.96
555.00	461.09
555.17	505.56
555.33	397.89
555.50	351.08
555.67	505.56
555.83	383.85
556.00	393.21
556.16	519.60
556.33	491.51
556.50	369.80
556.66	418.96
556.83	461.09
556.99	418.96
557.16	447.04
557.32	374.49
557.49	435.34
557.65	397.89
557.82	440.02
557.98	428.32
558.15	423.64
558.32	468.11
558.48	435.34
558.65	425.98
558.81	433.00
558.98	425.98
559.14	390.87
559.31	465.77
559.47	461.09
559.64	414.27
559.80	447.04
559.97	414.27
560.13	390.87
560.30	428.32
560.46	428.32
560.63	372.15
560.79	395.55
560.96	404.91
561.12	388.53
561.29	376.83
561.45	449.38
561.61	454.06
561.78	533.64
561.94	379.17
562.11	374.49
562.27	433.00
562.44	388.53
562.60	477.47
562.77	437.68
562.93	451.72
563.10	411.93
563.26	390.87
563.42	465.77
563.59	458.74
563.75	437.68
563.92	454.06
564.08	414.27
564.24	397.89
564.41	482.15
564.57	423.64
564.74	344.06
564.90	458.74
565.07	379.17
565.23	444.70
565.39	458.74
565.56	411.93
565.72	407.25
565.88	421.30
566.05	304.27
566.21	444.70
566.38	477.47
566.54	458.74
566.70	320.65
566.87	304.27
567.03	458.74
567.19	428.32
567.36	463.43
567.52	477.47
567.68	393.21
567.85	461.09
568.01	425.98
568.17	510.24
568.34	479.81
568.50	395.55
568.66	407.25
568.83	472.79
568.99	409.59
569.15	395.55
569.32	400.23
569.48	475.13
569.64	390.87
569.81	447.04
569.97	374.49
570.13	440.02
570.30	475.13
570.46	346.40
570.62	430.66
570.78	458.74
570.95	339.38
571.11	451.72
571.27	477.47
571.43	425.98
571.60	423.64
571.76	418.96
571.92	425.98
572.09	416.62
572.25	390.87
572.41	402.57
572.57	461.09
572.74	383.85
572.90	437.68
573.06	348.74
573.22	423.64
573.38	465.77
573.55	456.40
573.71	510.24
573.87	440.02
574.03	449.38
574.20	454.06
574.36	442.36
574.52	442.36
574.68	411.93
574.84	489.17
575.01	430.66
575.17	463.43
575.33	365.12
575.49	451.72
575.65	491.51
575.82	388.53
575.98	395.55
576.14	397.89
576.30	468.11
576.46	423.64
576.62	418.96
576.79	402.57
576.95	451.72
577.11	374.49
577.27	362.78
577.43	407.25
577.59	498.53
577.75	463.43
577.92	477.47
578.08	418.96
578.24	369.80
578.40	386.19
578.56	449.38
578.72	430.66
578.88	397.89
579.04	407.25
579.21	418.96
579.37	404.91
579.53	472.79
579.69	437.68
579.85	404.91
580.01	475.13
580.17	369.80
580.33	379.17
580.49	376.83
580.65	407.25
580.82	421.30
580.98	404.91
581.14	449.38
581.30	397.89
581.46	404.91
581.62	416.62
581.78	397.89
581.94	449.38
582.10	451.72
582.26	444.70
582.42	388.53
582.58	500.87
582.74	437.68
582.90	325.33
583.06	484.49
583.22	416.62
583.38	320.65
583.54	339.38
583.70	414.27
583.86	344.06
584.02	337.04
584.18	409.59
584.34	355.76
584.50	355.76
584.66	421.30
584.82	425.98
584.98	430.66
585.14	407.25
585.30	388.53
585.46	376.83
585.62	348.74
585.78	388.53
585.94	393.21
586.10	430.66
586.26	386.19
586.42	416.62
586.58	411.93
586.74	423.64
586.90	442.36
587.06	451.72
587.22	447.04
587.38	437.68
587.54	442.36
587.70	456.40
587.86	451.72
588.02	402.57
588.18	418.96
588.34	404.91
588.49	418.96
588.65	444.70
588.81	411.93
588.97	447.04
589.13	386.19
589.29	367.46
589.45	447.04
589.61	447.04
589.77	442.36
589.93	360.44
590.08	355.76
590.24	397.89
590.40	437.68
590.56	505.56
590.72	425.98
590.88	381.51
591.04	435.34
591.20	372.15
591.35	397.89
591.51	376.83
591.67	367.46
591.83	318.31
591.99	411.93
592.15	428.32
592.31	362.78
592.46	402.57
592.62	423.64
592.78	428.32
592.94	404.91
593.10	421.30
593.26	383.85
593.41	458.74
593.57	325.33
593.73	386.19
593.89	428.32
594.05	433.00
594.20	421.30
594.36	451.72
594.52	421.30
594.68	388.53
594.84	416.62
594.99	418.96
595.15	454.06
595.31	456.40
595.47	447.04
595.62	397.89
595.78	388.53
595.94	383.85
596.10	411.93
596.25	344.06
596.41	430.66
596.57	463.43
596.73	393.21
596.88	428.32
597.04	444.70
597.20	442.36
597.36	461.09
597.51	423.64
597.67	379.17
597.83	404.91
597.99	411.93
598.14	421.30
598.30	381.51
598.46	388.53
598.61	435.34
598.77	423.64
598.93	395.55
599.09	374.49
599.24	425.98
599.40	423.64
599.56	435.34
599.71	416.62
599.87	428.32
600.03	376.83
600.18	449.38
600.34	411.93
600.50	423.64
600.65	435.34
600.81	482.15
600.97	465.77
601.12	390.87
601.28	444.70
601.44	430.66
601.59	435.34
601.75	451.72
601.91	437.68
602.06	414.27
602.22	482.15
602.37	463.43
602.53	355.76
602.69	428.32
602.84	339.38
603.00	433.00
603.16	418.96
603.31	383.85
603.47	411.93
603.62	409.59
603.78	416.62
603.94	479.81
604.09	355.76
604.25	451.72
604.40	411.93
604.56	386.19
604.71	447.04
604.87	500.87
605.03	416.62
605.18	435.34
605.34	418.96
605.49	409.59
605.65	435.34
605.80	430.66
605.96	404.91
606.12	409.59
606.27	465.77
606.43	409.59
606.58	463.43
606.74	367.46
606.89	383.85
607.05	505.56
607.20	435.34
607.36	440.02
607.51	372.15
607.67	465.77
607.82	461.09
607.98	369.80
608.13	386.19
608.29	449.38
608.44	437.68
608.60	404.91
608.75	404.91
608.91	510.24
609.06	423.64
609.22	372.15
609.37	402.57
609.53	407.25
609.68	411.93
609.84	428.32
609.99	386.19
610.15	503.22
610.30	440.02
610.46	411.93
610.61	327.68
610.76	428.32
610.92	461.09
611.07	411.93
611.23	442.36
611.38	470.45
611.54	407.25
611.69	451.72
611.84	306.61
612.00	397.89
612.15	388.53
612.31	458.74
612.46	395.55
612.62	433.00
612.77	552.37
612.92	458.74
613.08	447.04
613.23	463.43
613.39	444.70
613.54	393.21
613.69	376.83
613.85	430.66
614.00	421.30
614.15	404.91
614.31	463.43
614.46	430.66
614.62	395.55
614.77	390.87
614.92	411.93
615.08	402.57
615.23	421.30
615.38	390.87
615.54	393.21
615.69	379.17
615.84	400.23
616.00	374.49
616.15	430.66
616.30	416.62
616.46	386.19
616.61	390.87
616.76	489.17
616.92	376.83
617.07	423.64
617.22	437.68
617.37	397.89
617.53	456.40
617.68	454.06
617.83	381.51
617.99	421.30
618.14	409.59
618.29	383.85
618.45	447.04
618.60	393.21
618.75	425.98
618.90	299.59
619.06	491.51
619.21	414.27
619.36	458.74
619.51	505.56
619.67	400.23
619.82	346.40
619.97	449.38
620.12	440.02
620.28	447.04
620.43	411.93
620.58	463.43
620.73	465.77
620.89	433.00
621.04	372.15
621.19	444.70
621.34	381.51
621.49	400.23
621.65	421.30
621.80	411.93
621.95	519.60
622.10	430.66
622.25	332.36
622.41	454.06
622.56	367.46
622.71	416.62
622.86	463.43
623.01	416.62
623.16	444.70
623.32	421.30
623.47	458.74
623.62	414.27
623.77	496.19
623.92	386.19
624.07	379.17
624.23	404.91
624.38	440.02
624.53	519.60
624.68	451.72
624.83	421.30
624.98	358.10
625.13	461.09
625.29	367.46
625.44	393.21
625.59	404.91
625.74	475.13
625.89	402.57
626.04	395.55
626.19	411.93
626.34	390.87
626.49	423.64
626.65	414.27
626.80	423.64
626.95	435.34
627.10	397.89
627.25	372.15
627.40	440.02
627.55	400.23
627.70	447.04
627.85	470.45
628.00	447.04
628.15	372.15
628.30	414.27
628.45	383.85
628.60	351.08
628.76	390.87
628.91	365.12
629.06	376.83
629.21	421.30
629.36	430.66
629.51	444.70
629.66	330.02
629.81	409.59
629.96	468.11
630.11	451.72
630.26	449.38
630.41	491.51
630.56	358.10
630.71	327.68
630.86	428.32
631.01	395.55
631.16	400.23
631.31	458.74
631.46	369.80
631.61	465.77
631.76	486.83
631.91	479.81
632.06	386.19
632.21	397.89
632.36	440.02
632.51	435.34
632.66	468.11
632.81	416.62
632.96	367.46
633.10	414.27
633.25	421.30
633.40	428.32
633.55	365.12
633.70	423.64
633.85	444.70
634.00	362.78
634.15	379.17
634.30	388.53
634.45	463.43
634.60	418.96
634.75	451.72
634.90	444.70
635.05	393.21
635.19	376.83
635.34	386.19
635.49	433.00
635.64	409.59
635.79	435.34
635.94	463.43
636.09	411.93
636.24	358.10
636.39	442.36
636.53	428.32
636.68	435.34
636.83	418.96
636.98	395.55
637.13	395.55
637.28	358.10
637.43	463.43
637.57	433.00
637.72	346.40
637.87	465.77
638.02	425.98
638.17	451.72
638.32	414.27
638.46	381.51
638.61	383.85
638.76	454.06
638.91	449.38
639.06	402.57
639.20	428.32
639.35	461.09
639.50	400.23
639.65	456.40
639.80	416.62
639.94	482.15
640.09	425.98
640.24	465.77
640.39	407.25
640.54	369.80
640.68	404.91
640.83	458.74
640.98	379.17
641.13	348.74
641.27	442.36
641.42	404.91
641.57	449.38
641.72	465.77
641.86	433.00
642.01	430.66
642.16	489.17
642.31	376.83
642.45	454.06
642.60	423.64
642.75	360.44
642.90	461.09
643.04	418.96
643.19	360.44
643.34	496.19
643.48	402.57
643.63	409.59
643.78	376.83
643.93	430.66
644.07	451.72
644.22	397.89
644.37	411.93
644.51	355.76
644.66	374.49
644.81	348.74
644.95	461.09
645.10	400.23
645.25	395.55
645.39	421.30
645.54	386.19
645.69	442.36
645.83	409.59
645.98	421.30
646.13	402.57
646.27	367.46
646.42	381.51
646.57	346.40
646.71	472.79
646.86	444.70
647.00	393.21
647.15	472.79
647.30	400.23
647.44	423.64
647.59	423.64
647.74	388.53
647.88	418.96
648.03	468.11
648.17	444.70
648.32	428.32
648.47	402.57
648.61	365.12
648.76	418.96
648.90	397.89
649.05	433.00
649.20	433.00
649.34	400.23
649.49	355.76
649.63	404.91
649.78	437.68
649.92	425.98
650.07	397.89
650.21	374.49
650.36	393.21
650.51	414.27
650.65	451.72
650.80	428.32
650.94	360.44
651.09	416.62
651.23	397.89
651.38	355.76
651.52	437.68
651.67	468.11
651.81	444.70
651.96	428.32
652.10	430.66
652.25	383.85
652.39	465.77
652.54	332.36
652.68	430.66
652.83	463.43
652.97	362.78
653.12	458.74
653.26	388.53
653.41	376.83
653.55	440.02
653.70	379.17
653.84	416.62
653.99	376.83
654.13	365.12
654.27	388.53
654.42	451.72
654.56	444.70
654.71	461.09
654.85	379.17
655.00	376.83
655.14	411.93
655.29	428.32
655.43	433.00
655.57	386.19
655.72	440.02
655.86	411.93
656.01	477.47
656.15	381.51
656.30	449.38
656.44	348.74
656.58	428.32
656.73	514.92
656.87	374.49
657.01	428.32
657.16	337.04
657.30	355.76
657.45	456.40
657.59	416.62
657.73	379.17
657.88	388.53
658.02	482.15
658.16	477.47
658.31	491.51
658.45	435.34
658.60	414.27
658.74	468.11
658.88	360.44
659.03	428.32
659.17	433.00
659.31	482.15
659.46	411.93
659.60	362.78
659.74	383.85
659.89	416.62
660.03	477.47
660.17	437.68
660.32	395.55
660.46	381.51
660.60	379.17
660.74	479.81
660.89	418.96
661.03	358.10
661.17	360.44
661.32	383.85
661.46	428.32
661.60	372.15
661.74	430.66
661.89	435.34
662.03	374.49
662.17	411.93
662.31	564.07
662.46	397.89
662.60	341.72
662.74	369.80
662.88	362.78
663.03	367.46
663.17	428.32
663.31	386.19
663.45	374.49
663.60	414.27
663.74	388.53
663.88	400.23
664.02	444.70
664.17	461.09
664.31	425.98
664.45	449.38
664.59	435.34
664.73	418.96
664.88	383.85
665.02	416.62
665.16	402.57
665.30	411.93
665.44	444.70
665.59	418.96
665.73	484.49
665.87	355.76
666.01	365.12
666.15	407.25
666.29	411.93
666.44	435.34
666.58	407.25
666.72	414.27
666.86	437.68
667.00	374.49
667.14	414.27
667.28	388.53
667.43	428.32
667.57	421.30
667.71	454.06
667.85	461.09
667.99	407.25
668.13	416.62
668.27	440.02
668.41	407.25
668.56	414.27
668.70	447.04
668.84	404.91
668.98	423.64
669.12	435.34
669.26	423.64
669.40	444.70
669.54	440.02
669.68	463.43
669.82	423.64
669.96	416.62
670.10	482.15
670.25	416.62
670.39	416.62
670.53	388.53
670.67	444.70
670.81	435.34
670.95	402.57
671.09	423.64
671.23	428.32
671.37	428.32
671.51	458.74
671.65	407.25
671.79	383.85
671.93	404.91
672.07	402.57
672.21	418.96
672.35	386.19
672.49	423.64
672.63	416.62
672.77	379.17
672.91	397.89
673.05	351.08
673.19	442.36
673.33	414.27
673.47	468.11
673.61	383.85
673.75	358.10
673.89	388.53
674.03	381.51
674.17	477.47
674.31	440.02
674.45	449.38
674.59	430.66
674.73	425.98
674.87	381.51
675.01	365.12
675.15	421.30
675.29	416.62
675.43	360.44
675.56	428.32
675.70	458.74
675.84	353.42
675.98	381.51
676.12	416.62
676.26	402.57
676.40	400.23
676.54	383.85
676.68	465.77
676.82	486.83
676.96	470.45
677.10	465.77
677.23	379.17
677.37	407.25
677.51	430.66
677.65	498.53
677.79	376.83
677.93	437.68
678.07	355.76
678.21	472.79
678.34	404.91
678.48	390.87
678.62	414.27
678.76	334.70
678.90	416.62
679.04	430.66
679.18	437.68
679.31	423.64
679.45	477.47
679.59	379.17
679.73	365.12
679.87	360.44
680.00	486.83
680.14	444.70
680.28	447.04
680.42	421.30
680.56	421.30
680.70	346.40
680.83	402.57
680.97	400.23
681.11	440.02
681.25	383.85
681.39	447.04
681.52	388.53
681.66	395.55
681.80	383.85
681.94	372.15
682.07	381.51
682.21	430.66
682.35	383.85
682.49	437.68
682.62	458.74
682.76	353.42
682.90	421.30
683.04	458.74
683.17	442.36
683.31	435.34
683.45	428.32
683.59	362.78
683.72	381.51
683.86	416.62
684.00	416.62
684.13	423.64
684.27	395.55
684.41	348.74
684.55	376.83
684.68	416.62
684.82	367.46
684.96	442.36
685.09	458.74
685.23	449.38
685.37	407.25
685.50	416.62
685.64	477.47
685.78	397.89
685.91	416.62
686.05	430.66
686.19	400.23
686.32	393.21
686.46	451.72
686.60	477.47
686.73	533.64
686.87	367.46
687.01	409.59
687.14	388.53
687.28	383.85
687.42	433.00
687.55	355.76
687.69	428.32
687.82	339.38
687.96	369.80
688.10	428.32
688.23	397.89
688.37	430.66
688.50	444.70
688.64	386.19
688.78	393.21
688.91	383.85
689.05	430.66
689.18	402.57
689.32	367.46
689.46	440.02
689.59	442.36
689.73	444.70
689.86	397.89
690.00	437.68
690.13	423.64
690.27	423.64
690.41	404.91
690.54	425.98
690.68	456.40
690.81	388.53
690.95	362.78
691.08	393.21
691.22	395.55
691.35	454.06
691.49	418.96
691.62	386.19
691.76	425.98
691.89	421.30
692.03	416.62
692.16	383.85
692.30	423.64
692.43	374.49
692.57	407.25
692.70	390.87
692.84	416.62
692.97	407.25
693.11	374.49
693.24	425.98
693.38	409.59
693.51	355.76
693.65	409.59
693.78	421.30
693.92	383.85
694.05	470.45
694.19	465.77
694.32	428.32
694.45	400.23
694.59	414.27
694.72	372.15
694.86	442.36
694.99	435.34
695.13	454.06
695.26	435.34
695.39	362.78
695.53	433.00
695.66	376.83
695.80	402.57
695.93	421.30
696.07	414.27
696.20	425.98
696.33	404.91
696.47	414.27
696.60	355.76
696.73	433.00
696.87	381.51
697.00	411.93
697.14	454.06
697.27	376.83
697.40	524.28
697.54	418.96
697.67	358.10
697.80	404.91
697.94	404.91
698.07	404.91
698.21	362.78
698.34	470.45
698.47	423.64
698.61	376.83
698.74	407.25
698.87	433.00
699.01	425.98
699.14	449.38
699.27	395.55
699.40	514.92
699.54	440.02
699.67	442.36
699.80	428.32
699.94	463.43
700.07	433.00
700.20	458.74
700.34	463.43
700.47	388.53
700.60	486.83
700.73	397.89
700.87	463.43
701.00	344.06
701.13	423.64
701.26	409.59
701.40	409.59
701.53	346.40
701.66	456.40
701.79	430.66
701.93	388.53
702.06	395.55
702.19	489.17
702.32	400.23
702.46	444.70
702.59	344.06
702.72	440.02
702.85	367.46
702.99	386.19
703.12	477.47
703.25	379.17
703.38	430.66
703.51	449.38
703.65	484.49
703.78	376.83
703.91	465.77
704.04	409.59
704.17	407.25
704.31	374.49
704.44	397.89
704.57	355.76
704.70	486.83
704.83	423.64
704.96	409.59
705.10	423.64
705.23	444.70
>>>>>End Processed Spectral Data<<<<<
