SpectraSuite Data File
++++++++++++++++++++++++++++++++++++
Date: Fri Oct 25 12:10:26 EDT 2013
User: price-jones
Dark Spectrum Present: No
Reference Spectrum Present: No
Number of Sampled Component Spectra: 1
Spectrometers: USB2+H05261
Integration Time (usec): 100000 (USB2+H05261)
Spectra Averaged: 1 (USB2+H05261)
Boxcar Smoothing: 0 (USB2+H05261)
Correct for Electrical Dark: No (USB2+H05261)
Strobe/Lamp Enabled: No (USB2+H05261)
Correct for Detector Non-linearity: No (USB2+H05261)
Correct for Stray Light: No (USB2+H05261)
Number of Pixels in Processed Spectrum: 2048
>>>>>Begin Processed Spectral Data<<<<<
365.73	332.36
365.92	332.36
366.12	332.36
366.32	227.03
366.52	250.44
366.72	278.52
366.91	212.99
367.11	252.78
367.31	189.58
367.51	269.16
367.70	212.99
367.90	327.68
368.10	276.18
368.30	210.65
368.49	152.13
368.69	318.31
368.89	297.25
369.09	252.78
369.28	194.26
369.48	229.37
369.68	187.24
369.87	262.14
370.07	379.17
370.27	367.46
370.47	308.95
370.66	325.33
370.86	386.19
371.06	414.27
371.25	444.70
371.45	369.80
371.65	381.51
371.84	308.95
372.04	330.02
372.24	470.45
372.44	435.34
372.63	400.23
372.83	442.36
373.03	388.53
373.22	409.59
373.42	388.53
373.62	414.27
373.81	475.13
374.01	454.06
374.21	372.15
374.40	437.68
374.60	433.00
374.79	444.70
374.99	423.64
375.19	386.19
375.38	367.46
375.58	360.44
375.78	458.74
375.97	393.21
376.17	444.70
376.37	451.72
376.56	449.38
376.76	444.70
376.95	442.36
377.15	374.49
377.35	430.66
377.54	365.12
377.74	465.77
377.93	449.38
378.13	395.55
378.33	393.21
378.52	416.62
378.72	411.93
378.91	393.21
379.11	507.90
379.31	437.68
379.50	390.87
379.70	470.45
379.89	407.25
380.09	397.89
380.28	400.23
380.48	400.23
380.68	355.76
380.87	386.19
381.07	461.09
381.26	437.68
381.46	404.91
381.65	383.85
381.85	428.32
382.04	372.15
382.24	423.64
382.43	355.76
382.63	400.23
382.83	433.00
383.02	358.10
383.22	442.36
383.41	402.57
383.61	407.25
383.80	440.02
384.00	423.64
384.19	416.62
384.39	369.80
384.58	325.33
384.78	416.62
384.97	414.27
385.17	365.12
385.36	395.55
385.56	388.53
385.75	374.49
385.95	402.57
386.14	374.49
386.34	346.40
386.53	383.85
386.72	383.85
386.92	374.49
387.11	416.62
387.31	423.64
387.50	358.10
387.70	367.46
387.89	376.83
388.09	374.49
388.28	330.02
388.48	383.85
388.67	416.62
388.86	463.43
389.06	409.59
389.25	355.76
389.45	435.34
389.64	402.57
389.84	435.34
390.03	444.70
390.22	447.04
390.42	402.57
390.61	454.06
390.81	346.40
391.00	470.45
391.19	407.25
391.39	367.46
391.58	418.96
391.78	325.33
391.97	425.98
392.16	362.78
392.36	477.47
392.55	444.70
392.75	358.10
392.94	397.89
393.13	421.30
393.33	390.87
393.52	407.25
393.71	395.55
393.91	388.53
394.10	390.87
394.29	449.38
394.49	367.46
394.68	444.70
394.88	421.30
395.07	440.02
395.26	425.98
395.46	447.04
395.65	404.91
395.84	423.64
396.04	451.72
396.23	435.34
396.42	402.57
396.62	409.59
396.81	397.89
397.00	362.78
397.19	360.44
397.39	409.59
397.58	468.11
397.77	407.25
397.97	411.93
398.16	421.30
398.35	402.57
398.55	383.85
398.74	421.30
398.93	313.63
399.12	395.55
399.32	374.49
399.51	332.36
399.70	400.23
399.90	351.08
400.09	482.15
400.28	433.00
400.47	425.98
400.67	416.62
400.86	376.83
401.05	388.53
401.24	402.57
401.44	423.64
401.63	470.45
401.82	407.25
402.01	365.12
402.21	416.62
402.40	362.78
402.59	348.74
402.78	433.00
402.97	437.68
403.17	465.77
403.36	374.49
403.55	315.97
403.74	397.89
403.93	409.59
404.13	388.53
404.32	402.57
404.51	409.59
404.70	454.06
404.89	411.93
405.09	458.74
405.28	367.46
405.47	400.23
405.66	451.72
405.85	355.76
406.05	425.98
406.24	372.15
406.43	440.02
406.62	442.36
406.81	369.80
407.00	400.23
407.20	416.62
407.39	411.93
407.58	330.02
407.77	430.66
407.96	386.19
408.15	416.62
408.34	507.90
408.54	402.57
408.73	404.91
408.92	435.34
409.11	407.25
409.30	421.30
409.49	386.19
409.68	306.61
409.87	435.34
410.07	423.64
410.26	395.55
410.45	437.68
410.64	395.55
410.83	409.59
411.02	411.93
411.21	458.74
411.40	489.17
411.59	437.68
411.78	430.66
411.98	386.19
412.17	468.11
412.36	355.76
412.55	449.38
412.74	447.04
412.93	458.74
413.12	379.17
413.31	397.89
413.50	454.06
413.69	358.10
413.88	463.43
414.07	369.80
414.26	411.93
414.45	447.04
414.64	430.66
414.83	433.00
415.02	461.09
415.22	425.98
415.41	491.51
415.60	430.66
415.79	390.87
415.98	393.21
416.17	353.42
416.36	451.72
416.55	435.34
416.74	395.55
416.93	463.43
417.12	409.59
417.31	407.25
417.50	376.83
417.69	428.32
417.88	423.64
418.07	332.36
418.26	407.25
418.45	404.91
418.64	449.38
418.83	325.33
419.02	503.22
419.21	416.62
419.39	421.30
419.58	386.19
419.77	430.66
419.96	463.43
420.15	468.11
420.34	444.70
420.53	407.25
420.72	404.91
420.91	430.66
421.10	397.89
421.29	421.30
421.48	344.06
421.67	400.23
421.86	409.59
422.05	425.98
422.24	437.68
422.43	421.30
422.61	421.30
422.80	383.85
422.99	397.89
423.18	416.62
423.37	484.49
423.56	416.62
423.75	360.44
423.94	379.17
424.13	421.30
424.32	327.68
424.50	376.83
424.69	425.98
424.88	440.02
425.07	386.19
425.26	463.43
425.45	447.04
425.64	418.96
425.83	430.66
426.01	353.42
426.20	444.70
426.39	334.70
426.58	423.64
426.77	381.51
426.96	379.17
427.15	475.13
427.33	360.44
427.52	369.80
427.71	397.89
427.90	397.89
428.09	468.11
428.28	369.80
428.46	351.08
428.65	414.27
428.84	379.17
429.03	444.70
429.22	308.95
429.40	315.97
429.59	367.46
429.78	414.27
429.97	423.64
430.16	411.93
430.34	425.98
430.53	404.91
430.72	409.59
430.91	425.98
431.10	332.36
431.28	379.17
431.47	404.91
431.66	512.58
431.85	367.46
432.03	372.15
432.22	477.47
432.41	390.87
432.60	337.04
432.79	411.93
432.97	430.66
433.16	447.04
433.35	383.85
433.54	395.55
433.72	447.04
433.91	411.93
434.10	404.91
434.28	444.70
434.47	421.30
434.66	395.55
434.85	372.15
435.03	365.12
435.22	397.89
435.41	440.02
435.59	425.98
435.78	397.89
435.97	411.93
436.16	447.04
436.34	390.87
436.53	397.89
436.72	442.36
436.90	447.04
437.09	449.38
437.28	376.83
437.46	400.23
437.65	428.32
437.84	435.34
438.02	456.40
438.21	381.51
438.40	409.59
438.58	423.64
438.77	449.38
438.96	425.98
439.14	355.76
439.33	383.85
439.52	414.27
439.70	425.98
439.89	379.17
440.08	381.51
440.26	360.44
440.45	409.59
440.63	435.34
440.82	449.38
441.01	454.06
441.19	416.62
441.38	395.55
441.57	428.32
441.75	423.64
441.94	442.36
442.12	477.47
442.31	351.08
442.50	416.62
442.68	383.85
442.87	308.95
443.05	327.68
443.24	491.51
443.43	402.57
443.61	383.85
443.80	479.81
443.98	463.43
444.17	360.44
444.35	454.06
444.54	400.23
444.73	444.70
444.91	472.79
445.10	379.17
445.28	402.57
445.47	423.64
445.65	395.55
445.84	444.70
446.02	407.25
446.21	400.23
446.39	409.59
446.58	430.66
446.77	386.19
446.95	414.27
447.14	449.38
447.32	407.25
447.51	447.04
447.69	447.04
447.88	374.49
448.06	451.72
448.25	407.25
448.43	437.68
448.62	461.09
448.80	376.83
448.99	456.40
449.17	447.04
449.36	411.93
449.54	442.36
449.73	386.19
449.91	416.62
450.10	402.57
450.28	493.85
450.46	433.00
450.65	472.79
450.83	397.89
451.02	341.72
451.20	407.25
451.39	325.33
451.57	362.78
451.76	376.83
451.94	360.44
452.13	433.00
452.31	416.62
452.49	451.72
452.68	397.89
452.86	454.06
453.05	493.85
453.23	449.38
453.42	461.09
453.60	376.83
453.78	475.13
453.97	379.17
454.15	386.19
454.34	374.49
454.52	449.38
454.70	402.57
454.89	465.77
455.07	440.02
455.26	395.55
455.44	404.91
455.62	369.80
455.81	355.76
455.99	381.51
456.17	393.21
456.36	404.91
456.54	379.17
456.73	463.43
456.91	435.34
457.09	479.81
457.28	444.70
457.46	414.27
457.64	437.68
457.83	423.64
458.01	393.21
458.19	468.11
458.38	409.59
458.56	416.62
458.74	442.36
458.93	425.98
459.11	409.59
459.29	400.23
459.48	388.53
459.66	430.66
459.84	395.55
460.03	447.04
460.21	423.64
460.39	407.25
460.57	451.72
460.76	435.34
460.94	418.96
461.12	428.32
461.31	442.36
461.49	409.59
461.67	416.62
461.85	397.89
462.04	435.34
462.22	737.27
462.40	465.77
462.59	374.49
462.77	458.74
462.95	409.59
463.13	374.49
463.32	411.93
463.50	456.40
463.68	404.91
463.86	428.32
464.05	449.38
464.23	402.57
464.41	409.59
464.59	404.91
464.78	390.87
464.96	372.15
465.14	423.64
465.32	374.49
465.50	482.15
465.69	463.43
465.87	367.46
466.05	465.77
466.23	470.45
466.41	411.93
466.60	449.38
466.78	388.53
466.96	393.21
467.14	449.38
467.32	386.19
467.51	416.62
467.69	409.59
467.87	386.19
468.05	372.15
468.23	442.36
468.41	397.89
468.60	395.55
468.78	433.00
468.96	465.77
469.14	493.85
469.32	418.96
469.50	362.78
469.69	381.51
469.87	456.40
470.05	430.66
470.23	416.62
470.41	404.91
470.59	414.27
470.77	355.76
470.95	463.43
471.14	444.70
471.32	414.27
471.50	395.55
471.68	435.34
471.86	430.66
472.04	440.02
472.22	381.51
472.40	491.51
472.58	411.93
472.77	458.74
472.95	409.59
473.13	437.68
473.31	461.09
473.49	339.38
473.67	402.57
473.85	416.62
474.03	507.90
474.21	409.59
474.39	386.19
474.57	379.17
474.75	433.00
474.93	428.32
475.12	407.25
475.30	470.45
475.48	421.30
475.66	400.23
475.84	397.89
476.02	428.32
476.20	362.78
476.38	393.21
476.56	440.02
476.74	444.70
476.92	397.89
477.10	411.93
477.28	402.57
477.46	393.21
477.64	388.53
477.82	428.32
478.00	435.34
478.18	400.23
478.36	344.06
478.54	372.15
478.72	418.96
478.90	362.78
479.08	437.68
479.26	397.89
479.44	395.55
479.62	423.64
479.80	402.57
479.98	376.83
480.16	430.66
480.34	407.25
480.52	418.96
480.70	435.34
480.88	423.64
481.06	383.85
481.24	440.02
481.41	416.62
481.59	425.98
481.77	444.70
481.95	411.93
482.13	423.64
482.31	479.81
482.49	395.55
482.67	395.55
482.85	411.93
483.03	360.44
483.21	383.85
483.39	395.55
483.57	423.64
483.74	355.76
483.92	379.17
484.10	353.42
484.28	416.62
484.46	500.87
484.64	477.47
484.82	386.19
485.00	341.72
485.18	472.79
485.35	393.21
485.53	421.30
485.71	358.10
485.89	360.44
486.07	402.57
486.25	430.66
486.43	468.11
486.61	430.66
486.78	311.29
486.96	346.40
487.14	372.15
487.32	383.85
487.50	411.93
487.68	440.02
487.85	393.21
488.03	416.62
488.21	447.04
488.39	416.62
488.57	451.72
488.75	456.40
488.92	517.26
489.10	425.98
489.28	505.56
489.46	404.91
489.64	402.57
489.81	454.06
489.99	456.40
490.17	437.68
490.35	404.91
490.53	411.93
490.70	374.49
490.88	411.93
491.06	411.93
491.24	449.38
491.41	444.70
491.59	374.49
491.77	353.42
491.95	475.13
492.13	449.38
492.30	486.83
492.48	428.32
492.66	472.79
492.84	390.87
493.01	489.17
493.19	395.55
493.37	430.66
493.54	461.09
493.72	365.12
493.90	381.51
494.08	362.78
494.25	418.96
494.43	465.77
494.61	367.46
494.79	402.57
494.96	369.80
495.14	465.77
495.32	397.89
495.49	437.68
495.67	414.27
495.85	430.66
496.02	472.79
496.20	341.72
496.38	428.32
496.55	407.25
496.73	372.15
496.91	423.64
497.09	468.11
497.26	442.36
497.44	458.74
497.62	404.91
497.79	435.34
497.97	465.77
498.14	397.89
498.32	353.42
498.50	393.21
498.67	456.40
498.85	486.83
499.03	461.09
499.20	437.68
499.38	397.89
499.56	379.17
499.73	449.38
499.91	433.00
500.08	428.32
500.26	353.42
500.44	428.32
500.61	416.62
500.79	402.57
500.97	444.70
501.14	475.13
501.32	430.66
501.49	500.87
501.67	458.74
501.84	376.83
502.02	365.12
502.20	404.91
502.37	451.72
502.55	362.78
502.72	428.32
502.90	421.30
503.07	437.68
503.25	416.62
503.43	395.55
503.60	433.00
503.78	425.98
503.95	409.59
504.13	367.46
504.30	407.25
504.48	383.85
504.65	461.09
504.83	409.59
505.01	451.72
505.18	421.30
505.36	400.23
505.53	360.44
505.71	390.87
505.88	430.66
506.06	390.87
506.23	376.83
506.41	447.04
506.58	374.49
506.76	376.83
506.93	475.13
507.11	430.66
507.28	362.78
507.46	442.36
507.63	423.64
507.81	402.57
507.98	355.76
508.16	383.85
508.33	395.55
508.50	444.70
508.68	400.23
508.85	407.25
509.03	381.51
509.20	374.49
509.38	414.27
509.55	390.87
509.73	423.64
509.90	397.89
510.08	451.72
510.25	430.66
510.42	428.32
510.60	372.15
510.77	449.38
510.95	451.72
511.12	440.02
511.30	418.96
511.47	372.15
511.64	444.70
511.82	430.66
511.99	430.66
512.17	437.68
512.34	388.53
512.51	409.59
512.69	400.23
512.86	409.59
513.04	411.93
513.21	454.06
513.38	409.59
513.56	433.00
513.73	430.66
513.90	461.09
514.08	411.93
514.25	437.68
514.43	458.74
514.60	442.36
514.77	486.83
514.95	517.26
515.12	411.93
515.29	421.30
515.47	454.06
515.64	409.59
515.81	383.85
515.99	428.32
516.16	447.04
516.33	381.51
516.51	505.56
516.68	358.10
516.85	435.34
517.03	440.02
517.20	477.47
517.37	489.17
517.54	386.19
517.72	444.70
517.89	393.21
518.06	437.68
518.24	465.77
518.41	482.15
518.58	433.00
518.75	440.02
518.93	379.17
519.10	400.23
519.27	421.30
519.45	409.59
519.62	386.19
519.79	367.46
519.96	397.89
520.14	423.64
520.31	447.04
520.48	393.21
520.65	407.25
520.83	414.27
521.00	402.57
521.17	411.93
521.34	374.49
521.52	376.83
521.69	374.49
521.86	376.83
522.03	388.53
522.20	458.74
522.38	334.70
522.55	376.83
522.72	386.19
522.89	372.15
523.07	465.77
523.24	447.04
523.41	423.64
523.58	400.23
523.75	409.59
523.92	362.78
524.10	409.59
524.27	444.70
524.44	409.59
524.61	383.85
524.78	390.87
524.96	397.89
525.13	454.06
525.30	414.27
525.47	447.04
525.64	423.64
525.81	430.66
525.98	402.57
526.16	418.96
526.33	383.85
526.50	407.25
526.67	444.70
526.84	397.89
527.01	433.00
527.18	442.36
527.36	334.70
527.53	435.34
527.70	346.40
527.87	355.76
528.04	470.45
528.21	332.36
528.38	358.10
528.55	461.09
528.72	414.27
528.89	472.79
529.07	472.79
529.24	414.27
529.41	472.79
529.58	379.17
529.75	367.46
529.92	447.04
530.09	428.32
530.26	458.74
530.43	409.59
530.60	393.21
530.77	437.68
530.94	365.12
531.11	416.62
531.28	365.12
531.46	393.21
531.63	418.96
531.80	444.70
531.97	461.09
532.14	355.76
532.31	400.23
532.48	393.21
532.65	418.96
532.82	400.23
532.99	421.30
533.16	404.91
533.33	402.57
533.50	468.11
533.67	393.21
533.84	423.64
534.01	400.23
534.18	498.53
534.35	390.87
534.52	404.91
534.69	418.96
534.86	421.30
535.03	468.11
535.20	400.23
535.37	491.51
535.54	454.06
535.71	433.00
535.88	489.17
536.05	346.40
536.22	440.02
536.38	374.49
536.55	444.70
536.72	395.55
536.89	409.59
537.06	442.36
537.23	442.36
537.40	449.38
537.57	430.66
537.74	411.93
537.91	428.32
538.08	430.66
538.25	433.00
538.42	400.23
538.59	425.98
538.75	449.38
538.92	433.00
539.09	470.45
539.26	414.27
539.43	407.25
539.60	418.96
539.77	430.66
539.94	407.25
540.11	433.00
540.28	496.19
540.44	505.56
540.61	411.93
540.78	456.40
540.95	355.76
541.12	456.40
541.29	423.64
541.46	430.66
541.62	442.36
541.79	414.27
541.96	395.55
542.13	404.91
542.30	428.32
542.47	477.47
542.63	418.96
542.80	400.23
542.97	430.66
543.14	369.80
543.31	449.38
543.48	423.64
543.64	470.45
543.81	456.40
543.98	400.23
544.15	372.15
544.32	376.83
544.48	358.10
544.65	400.23
544.82	418.96
544.99	475.13
545.16	390.87
545.32	339.38
545.49	360.44
545.66	397.89
545.83	393.21
546.00	388.53
546.16	369.80
546.33	322.99
546.50	428.32
546.67	433.00
546.83	526.62
547.00	475.13
547.17	404.91
547.34	484.49
547.50	423.64
547.67	390.87
547.84	402.57
548.00	454.06
548.17	369.80
548.34	433.00
548.51	442.36
548.67	416.62
548.84	463.43
549.01	360.44
549.18	447.04
549.34	437.68
549.51	383.85
549.68	421.30
549.84	374.49
550.01	374.49
550.18	482.15
550.34	461.09
550.51	383.85
550.68	437.68
550.84	449.38
551.01	411.93
551.18	367.46
551.34	444.70
551.51	442.36
551.68	454.06
551.84	428.32
552.01	388.53
552.18	376.83
552.34	437.68
552.51	456.40
552.68	393.21
552.84	393.21
553.01	367.46
553.18	463.43
553.34	386.19
553.51	430.66
553.67	461.09
553.84	390.87
554.01	454.06
554.17	479.81
554.34	369.80
554.51	395.55
554.67	421.30
554.84	444.70
555.00	395.55
555.17	402.57
555.33	414.27
555.50	402.57
555.67	444.70
555.83	440.02
556.00	444.70
556.16	587.47
556.33	493.85
556.50	358.10
556.66	383.85
556.83	442.36
556.99	454.06
557.16	433.00
557.32	337.04
557.49	400.23
557.65	404.91
557.82	423.64
557.98	388.53
558.15	367.46
558.32	454.06
558.48	409.59
558.65	367.46
558.81	423.64
558.98	421.30
559.14	409.59
559.31	390.87
559.47	440.02
559.64	421.30
559.80	472.79
559.97	381.51
560.13	383.85
560.30	423.64
560.46	388.53
560.63	423.64
560.79	475.13
560.96	454.06
561.12	318.31
561.29	404.91
561.45	411.93
561.61	425.98
561.78	461.09
561.94	430.66
562.11	362.78
562.27	393.21
562.44	374.49
562.60	428.32
562.77	449.38
562.93	507.90
563.10	411.93
563.26	418.96
563.42	447.04
563.59	414.27
563.75	440.02
563.92	428.32
564.08	423.64
564.24	482.15
564.41	442.36
564.57	351.08
564.74	379.17
564.90	442.36
565.07	526.62
565.23	411.93
565.39	416.62
565.56	454.06
565.72	449.38
565.88	395.55
566.05	393.21
566.21	428.32
566.38	421.30
566.54	386.19
566.70	390.87
566.87	369.80
567.03	376.83
567.19	498.53
567.36	465.77
567.52	454.06
567.68	358.10
567.85	442.36
568.01	442.36
568.17	402.57
568.34	456.40
568.50	411.93
568.66	400.23
568.83	421.30
568.99	395.55
569.15	482.15
569.32	437.68
569.48	416.62
569.64	437.68
569.81	444.70
569.97	372.15
570.13	447.04
570.30	407.25
570.46	409.59
570.62	381.51
570.78	386.19
570.95	411.93
571.11	402.57
571.27	416.62
571.43	416.62
571.60	379.17
571.76	374.49
571.92	330.02
572.09	442.36
572.25	414.27
572.41	477.47
572.57	440.02
572.74	418.96
572.90	451.72
573.06	344.06
573.22	444.70
573.38	367.46
573.55	409.59
573.71	454.06
573.87	458.74
574.03	425.98
574.20	362.78
574.36	397.89
574.52	379.17
574.68	444.70
574.84	463.43
575.01	472.79
575.17	486.83
575.33	416.62
575.49	486.83
575.65	470.45
575.82	353.42
575.98	421.30
576.14	411.93
576.30	390.87
576.46	416.62
576.62	397.89
576.79	449.38
576.95	507.90
577.11	360.44
577.27	355.76
577.43	442.36
577.59	414.27
577.75	341.72
577.92	365.12
578.08	425.98
578.24	388.53
578.40	486.83
578.56	507.90
578.72	447.04
578.88	454.06
579.04	348.74
579.21	456.40
579.37	365.12
579.53	418.96
579.69	409.59
579.85	374.49
580.01	421.30
580.17	360.44
580.33	423.64
580.49	461.09
580.65	435.34
580.82	346.40
580.98	358.10
581.14	334.70
581.30	430.66
581.46	465.77
581.62	503.22
581.78	414.27
581.94	461.09
582.10	390.87
582.26	444.70
582.42	414.27
582.58	386.19
582.74	402.57
582.90	407.25
583.06	425.98
583.22	411.93
583.38	341.72
583.54	348.74
583.70	430.66
583.86	433.00
584.02	355.76
584.18	381.51
584.34	461.09
584.50	397.89
584.66	440.02
584.82	414.27
584.98	463.43
585.14	374.49
585.30	404.91
585.46	379.17
585.62	358.10
585.78	381.51
585.94	421.30
586.10	430.66
586.26	358.10
586.42	454.06
586.58	414.27
586.74	454.06
586.90	423.64
587.06	458.74
587.22	418.96
587.38	388.53
587.54	404.91
587.70	444.70
587.86	484.49
588.02	402.57
588.18	442.36
588.34	430.66
588.49	376.83
588.65	397.89
588.81	390.87
588.97	332.36
589.13	458.74
589.29	433.00
589.45	484.49
589.61	383.85
589.77	400.23
589.93	468.11
590.08	463.43
590.24	372.15
590.40	465.77
590.56	395.55
590.72	353.42
590.88	395.55
591.04	465.77
591.20	458.74
591.35	505.56
591.51	407.25
591.67	369.80
591.83	468.11
591.99	418.96
592.15	388.53
592.31	444.70
592.46	395.55
592.62	332.36
592.78	362.78
592.94	411.93
593.10	444.70
593.26	402.57
593.41	430.66
593.57	397.89
593.73	372.15
593.89	458.74
594.05	444.70
594.20	418.96
594.36	493.85
594.52	475.13
594.68	440.02
594.84	472.79
594.99	341.72
595.15	411.93
595.31	433.00
595.47	503.22
595.62	374.49
595.78	451.72
595.94	400.23
596.10	421.30
596.25	381.51
596.41	400.23
596.57	407.25
596.73	444.70
596.88	397.89
597.04	418.96
597.20	388.53
597.36	395.55
597.51	440.02
597.67	409.59
597.83	433.00
597.99	400.23
598.14	383.85
598.30	475.13
598.46	409.59
598.61	428.32
598.77	414.27
598.93	421.30
599.09	425.98
599.24	477.47
599.40	447.04
599.56	435.34
599.71	407.25
599.87	442.36
600.03	423.64
600.18	381.51
600.34	475.13
600.50	479.81
600.65	369.80
600.81	388.53
600.97	351.08
601.12	425.98
601.28	458.74
601.44	381.51
601.59	444.70
601.75	411.93
601.91	388.53
602.06	468.11
602.22	456.40
602.37	397.89
602.53	393.21
602.69	409.59
602.84	362.78
603.00	444.70
603.16	449.38
603.31	433.00
603.47	390.87
603.62	402.57
603.78	465.77
603.94	416.62
604.09	397.89
604.25	428.32
604.40	393.21
604.56	400.23
604.71	374.49
604.87	395.55
605.03	341.72
605.18	395.55
605.34	514.92
605.49	400.23
605.65	390.87
605.80	390.87
605.96	409.59
606.12	416.62
606.27	430.66
606.43	383.85
606.58	421.30
606.74	404.91
606.89	339.38
607.05	386.19
607.20	388.53
607.36	383.85
607.51	416.62
607.67	397.89
607.82	383.85
607.98	397.89
608.13	451.72
608.29	505.56
608.44	430.66
608.60	407.25
608.75	437.68
608.91	458.74
609.06	437.68
609.22	482.15
609.37	376.83
609.53	372.15
609.68	458.74
609.84	463.43
609.99	444.70
610.15	386.19
610.30	433.00
610.46	519.60
610.61	461.09
610.76	479.81
610.92	447.04
611.07	337.04
611.23	430.66
611.38	468.11
611.54	411.93
611.69	348.74
611.84	454.06
612.00	400.23
612.15	379.17
612.31	416.62
612.46	428.32
612.62	444.70
612.77	484.49
612.92	461.09
613.08	433.00
613.23	416.62
613.39	416.62
613.54	418.96
613.69	428.32
613.85	437.68
614.00	360.44
614.15	395.55
614.31	344.06
614.46	477.47
614.62	402.57
614.77	435.34
614.92	465.77
615.08	376.83
615.23	400.23
615.38	435.34
615.54	423.64
615.69	404.91
615.84	330.02
616.00	423.64
616.15	395.55
616.30	437.68
616.46	447.04
616.61	407.25
616.76	402.57
616.92	358.10
617.07	451.72
617.22	416.62
617.37	425.98
617.53	465.77
617.68	407.25
617.83	388.53
617.99	437.68
618.14	531.30
618.29	447.04
618.45	442.36
618.60	442.36
618.75	379.17
618.90	430.66
619.06	421.30
619.21	503.22
619.36	428.32
619.51	327.68
619.67	428.32
619.82	447.04
619.97	463.43
620.12	440.02
620.28	451.72
620.43	409.59
620.58	500.87
620.73	407.25
620.89	379.17
621.04	491.51
621.19	458.74
621.34	491.51
621.49	425.98
621.65	477.47
621.80	416.62
621.95	440.02
622.10	383.85
622.25	402.57
622.41	421.30
622.56	435.34
622.71	435.34
622.86	458.74
623.01	430.66
623.16	472.79
623.32	425.98
623.47	400.23
623.62	372.15
623.77	440.02
623.92	402.57
624.07	435.34
624.23	369.80
624.38	395.55
624.53	404.91
624.68	423.64
624.83	433.00
624.98	411.93
625.13	386.19
625.29	411.93
625.44	447.04
625.59	451.72
625.74	372.15
625.89	395.55
626.04	414.27
626.19	451.72
626.34	337.04
626.49	400.23
626.65	409.59
626.80	381.51
626.95	425.98
627.10	386.19
627.25	451.72
627.40	421.30
627.55	435.34
627.70	358.10
627.85	437.68
628.00	437.68
628.15	447.04
628.30	484.49
628.45	430.66
628.60	346.40
628.76	451.72
628.91	430.66
629.06	468.11
629.21	372.15
629.36	407.25
629.51	411.93
629.66	414.27
629.81	442.36
629.96	449.38
630.11	416.62
630.26	465.77
630.41	437.68
630.56	454.06
630.71	407.25
630.86	395.55
631.01	411.93
631.16	369.80
631.31	465.77
631.46	461.09
631.61	461.09
631.76	425.98
631.91	447.04
632.06	372.15
632.21	440.02
632.36	444.70
632.51	332.36
632.66	416.62
632.81	376.83
632.96	454.06
633.10	358.10
633.25	491.51
633.40	386.19
633.55	409.59
633.70	388.53
633.85	456.40
634.00	365.12
634.15	355.76
634.30	428.32
634.45	379.17
634.60	470.45
634.75	418.96
634.90	472.79
635.05	447.04
635.19	411.93
635.34	425.98
635.49	423.64
635.64	421.30
635.79	327.68
635.94	465.77
636.09	447.04
636.24	433.00
636.39	409.59
636.53	430.66
636.68	397.89
636.83	421.30
636.98	369.80
637.13	418.96
637.28	496.19
637.43	402.57
637.57	402.57
637.72	411.93
637.87	416.62
638.02	376.83
638.17	369.80
638.32	430.66
638.46	369.80
638.61	463.43
638.76	496.19
638.91	381.51
639.06	407.25
639.20	400.23
639.35	421.30
639.50	411.93
639.65	472.79
639.80	376.83
639.94	379.17
640.09	463.43
640.24	395.55
640.39	393.21
640.54	433.00
640.68	442.36
640.83	447.04
640.98	421.30
641.13	414.27
641.27	386.19
641.42	418.96
641.57	449.38
641.72	454.06
641.86	435.34
642.01	397.89
642.16	456.40
642.31	416.62
642.45	451.72
642.60	470.45
642.75	465.77
642.90	489.17
643.04	430.66
643.19	341.72
643.34	402.57
643.48	444.70
643.63	383.85
643.78	425.98
643.93	458.74
644.07	306.61
644.22	367.46
644.37	444.70
644.51	372.15
644.66	428.32
644.81	428.32
644.95	444.70
645.10	477.47
645.25	400.23
645.39	435.34
645.54	381.51
645.69	444.70
645.83	418.96
645.98	507.90
646.13	404.91
646.27	456.40
646.42	418.96
646.57	351.08
646.71	440.02
646.86	433.00
647.00	400.23
647.15	358.10
647.30	400.23
647.44	425.98
647.59	428.32
647.74	444.70
647.88	395.55
648.03	383.85
648.17	393.21
648.32	416.62
648.47	463.43
648.61	433.00
648.76	351.08
648.90	435.34
649.05	409.59
649.20	409.59
649.34	374.49
649.49	409.59
649.63	360.44
649.78	461.09
649.92	418.96
650.07	341.72
650.21	468.11
650.36	451.72
650.51	360.44
650.65	388.53
650.80	409.59
650.94	358.10
651.09	463.43
651.23	421.30
651.38	498.53
651.52	444.70
651.67	383.85
651.81	397.89
651.96	463.43
652.10	454.06
652.25	458.74
652.39	390.87
652.54	374.49
652.68	414.27
652.83	390.87
652.97	416.62
653.12	425.98
653.26	461.09
653.41	505.56
653.55	376.83
653.70	414.27
653.84	428.32
653.99	416.62
654.13	353.42
654.27	418.96
654.42	428.32
654.56	376.83
654.71	470.45
654.85	451.72
655.00	409.59
655.14	472.79
655.29	454.06
655.43	449.38
655.57	358.10
655.72	395.55
655.86	447.04
656.01	409.59
656.15	423.64
656.30	449.38
656.44	482.15
656.58	421.30
656.73	433.00
656.87	386.19
657.01	411.93
657.16	421.30
657.30	360.44
657.45	362.78
657.59	393.21
657.73	369.80
657.88	421.30
658.02	362.78
658.16	404.91
658.31	409.59
658.45	435.34
658.60	428.32
658.74	376.83
658.88	388.53
659.03	430.66
659.17	400.23
659.31	477.47
659.46	442.36
659.60	449.38
659.74	444.70
659.89	388.53
660.03	379.17
660.17	421.30
660.32	425.98
660.46	416.62
660.60	411.93
660.74	454.06
660.89	475.13
661.03	435.34
661.17	458.74
661.32	353.42
661.46	416.62
661.60	444.70
661.74	386.19
661.89	486.83
662.03	414.27
662.17	430.66
662.31	409.59
662.46	388.53
662.60	423.64
662.74	451.72
662.88	386.19
663.03	414.27
663.17	463.43
663.31	416.62
663.45	454.06
663.60	421.30
663.74	416.62
663.88	451.72
664.02	390.87
664.17	381.51
664.31	409.59
664.45	383.85
664.59	393.21
664.73	414.27
664.88	472.79
665.02	402.57
665.16	402.57
665.30	411.93
665.44	418.96
665.59	458.74
665.73	346.40
665.87	416.62
666.01	425.98
666.15	414.27
666.29	414.27
666.44	409.59
666.58	496.19
666.72	395.55
666.86	393.21
667.00	404.91
667.14	386.19
667.28	390.87
667.43	435.34
667.57	358.10
667.71	442.36
667.85	449.38
667.99	402.57
668.13	372.15
668.27	456.40
668.41	425.98
668.56	421.30
668.70	463.43
668.84	465.77
668.98	437.68
669.12	397.89
669.26	458.74
669.40	484.49
669.54	395.55
669.68	409.59
669.82	423.64
669.96	425.98
670.10	374.49
670.25	423.64
670.39	418.96
670.53	402.57
670.67	346.40
670.81	386.19
670.95	414.27
671.09	372.15
671.23	388.53
671.37	393.21
671.51	360.44
671.65	372.15
671.79	348.74
671.93	428.32
672.07	393.21
672.21	383.85
672.35	449.38
672.49	365.12
672.63	428.32
672.77	465.77
672.91	393.21
673.05	407.25
673.19	421.30
673.33	330.02
673.47	491.51
673.61	477.47
673.75	393.21
673.89	374.49
674.03	355.76
674.17	308.95
674.31	498.53
674.45	423.64
674.59	416.62
674.73	423.64
674.87	397.89
675.01	416.62
675.15	472.79
675.29	440.02
675.43	458.74
675.56	442.36
675.70	447.04
675.84	425.98
675.98	489.17
676.12	475.13
676.26	360.44
676.40	372.15
676.54	397.89
676.68	379.17
676.82	407.25
676.96	433.00
677.10	423.64
677.23	397.89
677.37	346.40
677.51	440.02
677.65	486.83
677.79	379.17
677.93	440.02
678.07	381.51
678.21	388.53
678.34	344.06
678.48	360.44
678.62	449.38
678.76	386.19
678.90	423.64
679.04	365.12
679.18	428.32
679.31	325.33
679.45	355.76
679.59	418.96
679.73	388.53
679.87	362.78
680.00	362.78
680.14	390.87
680.28	423.64
680.42	367.46
680.56	456.40
680.70	409.59
680.83	386.19
680.97	353.42
681.11	449.38
681.25	409.59
681.39	416.62
681.52	433.00
681.66	374.49
681.80	390.87
681.94	381.51
682.07	402.57
682.21	407.25
682.35	468.11
682.49	437.68
682.62	447.04
682.76	381.51
682.90	362.78
683.04	395.55
683.17	491.51
683.31	411.93
683.45	404.91
683.59	463.43
683.72	468.11
683.86	430.66
684.00	395.55
684.13	393.21
684.27	440.02
684.41	379.17
684.55	440.02
684.68	475.13
684.82	299.59
684.96	447.04
685.09	437.68
685.23	458.74
685.37	393.21
685.50	465.77
685.64	421.30
685.78	344.06
685.91	400.23
686.05	465.77
686.19	451.72
686.32	454.06
686.46	435.34
686.60	376.83
686.73	500.87
686.87	421.30
687.01	423.64
687.14	421.30
687.28	433.00
687.42	456.40
687.55	409.59
687.69	418.96
687.82	491.51
687.96	365.12
688.10	440.02
688.23	461.09
688.37	468.11
688.50	444.70
688.64	503.22
688.78	351.08
688.91	390.87
689.05	379.17
689.18	465.77
689.32	437.68
689.46	423.64
689.59	358.10
689.73	421.30
689.86	404.91
690.00	381.51
690.13	393.21
690.27	397.89
690.41	440.02
690.54	533.64
690.68	423.64
690.81	374.49
690.95	379.17
691.08	440.02
691.22	362.78
691.35	376.83
691.49	386.19
691.62	486.83
691.76	407.25
691.89	402.57
692.03	451.72
692.16	409.59
692.30	369.80
692.43	404.91
692.57	418.96
692.70	484.49
692.84	477.47
692.97	395.55
693.11	418.96
693.24	428.32
693.38	503.22
693.51	379.17
693.65	407.25
693.78	397.89
693.92	404.91
694.05	435.34
694.19	393.21
694.32	444.70
694.45	430.66
694.59	404.91
694.72	449.38
694.86	421.30
694.99	433.00
695.13	379.17
695.26	400.23
695.39	395.55
695.53	381.51
695.66	395.55
695.80	484.49
695.93	337.04
696.07	390.87
696.20	447.04
696.33	397.89
696.47	395.55
696.60	381.51
696.73	353.42
696.87	369.80
697.00	362.78
697.14	395.55
697.27	395.55
697.40	477.47
697.54	461.09
697.67	395.55
697.80	437.68
697.94	388.53
698.07	402.57
698.21	407.25
698.34	421.30
698.47	383.85
698.61	447.04
698.74	367.46
698.87	365.12
699.01	454.06
699.14	386.19
699.27	433.00
699.40	559.39
699.54	372.15
699.67	423.64
699.80	428.32
699.94	393.21
700.07	425.98
700.20	418.96
700.34	433.00
700.47	421.30
700.60	468.11
700.73	423.64
700.87	423.64
701.00	430.66
701.13	428.32
701.26	393.21
701.40	390.87
701.53	468.11
701.66	433.00
701.79	414.27
701.93	355.76
702.06	470.45
702.19	367.46
702.32	447.04
702.46	425.98
702.59	353.42
702.72	484.49
702.85	376.83
702.99	421.30
703.12	418.96
703.25	397.89
703.38	386.19
703.51	411.93
703.65	379.17
703.78	407.25
703.91	365.12
704.04	404.91
704.17	383.85
704.31	365.12
704.44	383.85
704.57	425.98
704.70	355.76
704.83	435.34
704.96	411.93
705.10	407.25
705.23	416.62
>>>>>End Processed Spectral Data<<<<<
