SpectraSuite Data File
++++++++++++++++++++++++++++++++++++
Date: Fri Oct 25 12:10:11 EDT 2013
User: price-jones
Dark Spectrum Present: No
Reference Spectrum Present: No
Number of Sampled Component Spectra: 1
Spectrometers: USB2+H05261
Integration Time (usec): 100000 (USB2+H05261)
Spectra Averaged: 1 (USB2+H05261)
Boxcar Smoothing: 0 (USB2+H05261)
Correct for Electrical Dark: No (USB2+H05261)
Strobe/Lamp Enabled: No (USB2+H05261)
Correct for Detector Non-linearity: No (USB2+H05261)
Correct for Stray Light: No (USB2+H05261)
Number of Pixels in Processed Spectrum: 2048
>>>>>Begin Processed Spectral Data<<<<<
365.73	348.74
365.92	348.74
366.12	348.74
366.32	250.44
366.52	231.71
366.72	220.01
366.91	201.29
367.11	266.82
367.31	231.71
367.51	257.46
367.70	259.80
367.90	280.86
368.10	262.14
368.30	292.57
368.49	243.42
368.69	257.46
368.89	264.48
369.09	264.48
369.28	301.93
369.48	210.65
369.68	205.97
369.87	287.89
370.07	313.63
370.27	416.62
370.47	355.76
370.66	248.10
370.86	407.25
371.06	374.49
371.25	393.21
371.45	425.98
371.65	409.59
371.84	374.49
372.04	400.23
372.24	400.23
372.44	362.78
372.63	365.12
372.83	386.19
373.03	386.19
373.22	362.78
373.42	393.21
373.62	442.36
373.81	407.25
374.01	442.36
374.21	386.19
374.40	362.78
374.60	451.72
374.79	395.55
374.99	451.72
375.19	409.59
375.38	379.17
375.58	409.59
375.78	482.15
375.97	449.38
376.17	414.27
376.37	414.27
376.56	423.64
376.76	374.49
376.95	437.68
377.15	423.64
377.35	526.62
377.54	411.93
377.74	409.59
377.93	383.85
378.13	407.25
378.33	461.09
378.52	341.72
378.72	423.64
378.91	423.64
379.11	390.87
379.31	454.06
379.50	416.62
379.70	425.98
379.89	400.23
380.09	353.42
380.28	402.57
380.48	367.46
380.68	358.10
380.87	372.15
381.07	402.57
381.26	404.91
381.46	388.53
381.65	416.62
381.85	355.76
382.04	360.44
382.24	353.42
382.43	444.70
382.63	409.59
382.83	402.57
383.02	463.43
383.22	327.68
383.41	358.10
383.61	449.38
383.80	414.27
384.00	393.21
384.19	341.72
384.39	470.45
384.58	414.27
384.78	411.93
384.97	421.30
385.17	397.89
385.36	402.57
385.56	416.62
385.75	430.66
385.95	400.23
386.14	430.66
386.34	421.30
386.53	372.15
386.72	404.91
386.92	423.64
387.11	435.34
387.31	418.96
387.50	447.04
387.70	348.74
387.89	409.59
388.09	400.23
388.28	437.68
388.48	330.02
388.67	447.04
388.86	477.47
389.06	407.25
389.25	449.38
389.45	402.57
389.64	365.12
389.84	421.30
390.03	400.23
390.22	369.80
390.42	463.43
390.61	507.90
390.81	437.68
391.00	379.17
391.19	409.59
391.39	421.30
391.58	451.72
391.78	395.55
391.97	433.00
392.16	451.72
392.36	376.83
392.55	477.47
392.75	372.15
392.94	369.80
393.13	395.55
393.33	430.66
393.52	433.00
393.71	472.79
393.91	425.98
394.10	379.17
394.29	388.53
394.49	409.59
394.68	409.59
394.88	362.78
395.07	442.36
395.26	367.46
395.46	430.66
395.65	390.87
395.84	425.98
396.04	437.68
396.23	440.02
396.42	348.74
396.62	407.25
396.81	400.23
397.00	400.23
397.19	313.63
397.39	430.66
397.58	437.68
397.77	390.87
397.97	437.68
398.16	423.64
398.35	437.68
398.55	395.55
398.74	341.72
398.93	458.74
399.12	463.43
399.32	386.19
399.51	344.06
399.70	440.02
399.90	416.62
400.09	440.02
400.28	470.45
400.47	374.49
400.67	449.38
400.86	461.09
401.05	428.32
401.24	440.02
401.44	390.87
401.63	430.66
401.82	390.87
402.01	395.55
402.21	407.25
402.40	409.59
402.59	393.21
402.78	400.23
402.97	400.23
403.17	437.68
403.36	414.27
403.55	367.46
403.74	409.59
403.93	407.25
404.13	362.78
404.32	390.87
404.51	355.76
404.70	444.70
404.89	402.57
405.09	407.25
405.28	404.91
405.47	400.23
405.66	402.57
405.85	454.06
406.05	416.62
406.24	348.74
406.43	470.45
406.62	458.74
406.81	390.87
407.00	411.93
407.20	440.02
407.39	442.36
407.58	447.04
407.77	423.64
407.96	421.30
408.15	416.62
408.34	414.27
408.54	449.38
408.73	428.32
408.92	423.64
409.11	393.21
409.30	400.23
409.49	402.57
409.68	407.25
409.87	365.12
410.07	411.93
410.26	440.02
410.45	404.91
410.64	395.55
410.83	318.31
411.02	381.51
411.21	421.30
411.40	390.87
411.59	407.25
411.78	351.08
411.98	414.27
412.17	416.62
412.36	393.21
412.55	404.91
412.74	372.15
412.93	449.38
413.12	428.32
413.31	442.36
413.50	418.96
413.69	435.34
413.88	514.92
414.07	454.06
414.26	468.11
414.45	416.62
414.64	397.89
414.83	416.62
415.02	465.77
415.22	416.62
415.41	444.70
415.60	411.93
415.79	451.72
415.98	507.90
416.17	402.57
416.36	390.87
416.55	325.33
416.74	383.85
416.93	416.62
417.12	386.19
417.31	397.89
417.50	320.65
417.69	372.15
417.88	493.85
418.07	376.83
418.26	433.00
418.45	421.30
418.64	447.04
418.83	379.17
419.02	386.19
419.21	372.15
419.39	381.51
419.58	409.59
419.77	416.62
419.96	496.19
420.15	470.45
420.34	449.38
420.53	416.62
420.72	421.30
420.91	463.43
421.10	411.93
421.29	423.64
421.48	421.30
421.67	444.70
421.86	428.32
422.05	423.64
422.24	416.62
422.43	409.59
422.61	491.51
422.80	454.06
422.99	318.31
423.18	402.57
423.37	437.68
423.56	355.76
423.75	433.00
423.94	369.80
424.13	393.21
424.32	402.57
424.50	341.72
424.69	367.46
424.88	418.96
425.07	390.87
425.26	395.55
425.45	411.93
425.64	393.21
425.83	409.59
426.01	353.42
426.20	421.30
426.39	395.55
426.58	435.34
426.77	411.93
426.96	355.76
427.15	372.15
427.33	463.43
427.52	416.62
427.71	435.34
427.90	430.66
428.09	425.98
428.28	437.68
428.46	407.25
428.65	423.64
428.84	397.89
429.03	465.77
429.22	360.44
429.40	433.00
429.59	456.40
429.78	428.32
429.97	386.19
430.16	470.45
430.34	435.34
430.53	421.30
430.72	423.64
430.91	390.87
431.10	339.38
431.28	344.06
431.47	425.98
431.66	428.32
431.85	397.89
432.03	454.06
432.22	463.43
432.41	421.30
432.60	379.17
432.79	397.89
432.97	447.04
433.16	407.25
433.35	379.17
433.54	416.62
433.72	442.36
433.91	491.51
434.10	379.17
434.28	393.21
434.47	374.49
434.66	425.98
434.85	421.30
435.03	353.42
435.22	411.93
435.41	465.77
435.59	428.32
435.78	402.57
435.97	418.96
436.16	442.36
436.34	404.91
436.53	322.99
436.72	362.78
436.90	444.70
437.09	463.43
437.28	374.49
437.46	393.21
437.65	397.89
437.84	428.32
438.02	397.89
438.21	367.46
438.40	468.11
438.58	365.12
438.77	416.62
438.96	390.87
439.14	362.78
439.33	493.85
439.52	411.93
439.70	493.85
439.89	470.45
440.08	369.80
440.26	421.30
440.45	421.30
440.63	411.93
440.82	510.24
441.01	486.83
441.19	451.72
441.38	437.68
441.57	435.34
441.75	367.46
441.94	421.30
442.12	395.55
442.31	449.38
442.50	372.15
442.68	358.10
442.87	402.57
443.05	369.80
443.24	402.57
443.43	435.34
443.61	409.59
443.80	351.08
443.98	367.46
444.17	355.76
444.35	379.17
444.54	390.87
444.73	421.30
444.91	540.66
445.10	435.34
445.28	341.72
445.47	372.15
445.65	332.36
445.84	325.33
446.02	414.27
446.21	437.68
446.39	397.89
446.58	444.70
446.77	423.64
446.95	449.38
447.14	395.55
447.32	442.36
447.51	374.49
447.69	423.64
447.88	407.25
448.06	489.17
448.25	458.74
448.43	414.27
448.62	386.19
448.80	400.23
448.99	376.83
449.17	411.93
449.36	435.34
449.54	458.74
449.73	365.12
449.91	409.59
450.10	407.25
450.28	440.02
450.46	390.87
450.65	475.13
450.83	397.89
451.02	519.60
451.20	376.83
451.39	369.80
451.57	386.19
451.76	395.55
451.94	421.30
452.13	372.15
452.31	404.91
452.49	442.36
452.68	442.36
452.86	447.04
453.05	418.96
453.23	430.66
453.42	402.57
453.60	421.30
453.78	447.04
453.97	383.85
454.15	407.25
454.34	402.57
454.52	369.80
454.70	437.68
454.89	428.32
455.07	390.87
455.26	423.64
455.44	421.30
455.62	395.55
455.81	383.85
455.99	428.32
456.17	355.76
456.36	449.38
456.54	428.32
456.73	395.55
456.91	414.27
457.09	395.55
457.28	479.81
457.46	402.57
457.64	414.27
457.83	425.98
458.01	367.46
458.19	353.42
458.38	425.98
458.56	435.34
458.74	325.33
458.93	409.59
459.11	390.87
459.29	416.62
459.48	397.89
459.66	393.21
459.84	451.72
460.03	500.87
460.21	428.32
460.39	409.59
460.57	407.25
460.76	411.93
460.94	379.17
461.12	407.25
461.31	301.93
461.49	437.68
461.67	425.98
461.85	409.59
462.04	395.55
462.22	802.80
462.40	486.83
462.59	449.38
462.77	402.57
462.95	435.34
463.13	379.17
463.32	458.74
463.50	430.66
463.68	454.06
463.86	425.98
464.05	367.46
464.23	393.21
464.41	437.68
464.59	411.93
464.78	332.36
464.96	435.34
465.14	376.83
465.32	381.51
465.50	362.78
465.69	376.83
465.87	465.77
466.05	393.21
466.23	369.80
466.41	407.25
466.60	360.44
466.78	400.23
466.96	383.85
467.14	416.62
467.32	442.36
467.51	423.64
467.69	425.98
467.87	423.64
468.05	430.66
468.23	381.51
468.41	418.96
468.60	461.09
468.78	479.81
468.96	470.45
469.14	440.02
469.32	416.62
469.50	351.08
469.69	409.59
469.87	430.66
470.05	435.34
470.23	461.09
470.41	463.43
470.59	379.17
470.77	421.30
470.95	416.62
471.14	400.23
471.32	407.25
471.50	461.09
471.68	418.96
471.86	407.25
472.04	461.09
472.22	461.09
472.40	379.17
472.58	414.27
472.77	454.06
472.95	442.36
473.13	414.27
473.31	442.36
473.49	418.96
473.67	360.44
473.85	472.79
474.03	381.51
474.21	442.36
474.39	440.02
474.57	425.98
474.75	414.27
474.93	400.23
475.12	449.38
475.30	428.32
475.48	454.06
475.66	390.87
475.84	449.38
476.02	407.25
476.20	379.17
476.38	433.00
476.56	507.90
476.74	428.32
476.92	351.08
477.10	482.15
477.28	402.57
477.46	358.10
477.64	388.53
477.82	416.62
478.00	463.43
478.18	383.85
478.36	402.57
478.54	437.68
478.72	409.59
478.90	381.51
479.08	447.04
479.26	451.72
479.44	433.00
479.62	353.42
479.80	409.59
479.98	322.99
480.16	367.46
480.34	411.93
480.52	339.38
480.70	416.62
480.88	400.23
481.06	411.93
481.24	397.89
481.41	421.30
481.59	425.98
481.77	463.43
481.95	386.19
482.13	477.47
482.31	425.98
482.49	358.10
482.67	428.32
482.85	402.57
483.03	451.72
483.21	381.51
483.39	348.74
483.57	374.49
483.74	400.23
483.92	418.96
484.10	416.62
484.28	430.66
484.46	437.68
484.64	376.83
484.82	393.21
485.00	351.08
485.18	386.19
485.35	376.83
485.53	353.42
485.71	435.34
485.89	374.49
486.07	454.06
486.25	470.45
486.43	379.17
486.61	421.30
486.78	395.55
486.96	404.91
487.14	376.83
487.32	346.40
487.50	418.96
487.68	395.55
487.85	395.55
488.03	465.77
488.21	479.81
488.39	442.36
488.57	407.25
488.75	447.04
488.92	517.26
489.10	425.98
489.28	442.36
489.46	435.34
489.64	409.59
489.81	425.98
489.99	451.72
490.17	393.21
490.35	472.79
490.53	456.40
490.70	407.25
490.88	395.55
491.06	390.87
491.24	362.78
491.41	395.55
491.59	386.19
491.77	376.83
491.95	447.04
492.13	400.23
492.30	379.17
492.48	402.57
492.66	351.08
492.84	402.57
493.01	440.02
493.19	381.51
493.37	379.17
493.54	414.27
493.72	472.79
493.90	409.59
494.08	388.53
494.25	383.85
494.43	395.55
494.61	503.22
494.79	390.87
494.96	451.72
495.14	433.00
495.32	365.12
495.49	435.34
495.67	322.99
495.85	416.62
496.02	400.23
496.20	397.89
496.38	393.21
496.55	433.00
496.73	409.59
496.91	407.25
497.09	367.46
497.26	402.57
497.44	416.62
497.62	341.72
497.79	383.85
497.97	456.40
498.14	449.38
498.32	465.77
498.50	461.09
498.67	388.53
498.85	430.66
499.03	454.06
499.20	367.46
499.38	355.76
499.56	430.66
499.73	379.17
499.91	447.04
500.08	454.06
500.26	411.93
500.44	339.38
500.61	376.83
500.79	339.38
500.97	428.32
501.14	461.09
501.32	402.57
501.49	435.34
501.67	472.79
501.84	351.08
502.02	351.08
502.20	425.98
502.37	388.53
502.55	423.64
502.72	458.74
502.90	409.59
503.07	353.42
503.25	404.91
503.43	409.59
503.60	442.36
503.78	484.49
503.95	437.68
504.13	390.87
504.30	435.34
504.48	379.17
504.65	414.27
504.83	430.66
505.01	376.83
505.18	379.17
505.36	353.42
505.53	374.49
505.71	416.62
505.88	425.98
506.06	397.89
506.23	383.85
506.41	428.32
506.58	411.93
506.76	409.59
506.93	411.93
507.11	428.32
507.28	400.23
507.46	414.27
507.63	465.77
507.81	416.62
507.98	348.74
508.16	395.55
508.33	440.02
508.50	358.10
508.68	395.55
508.85	435.34
509.03	407.25
509.20	456.40
509.38	449.38
509.55	414.27
509.73	470.45
509.90	437.68
510.08	400.23
510.25	414.27
510.42	411.93
510.60	358.10
510.77	449.38
510.95	425.98
511.12	486.83
511.30	437.68
511.47	447.04
511.64	409.59
511.82	393.21
511.99	428.32
512.17	425.98
512.34	416.62
512.51	400.23
512.69	374.49
512.86	381.51
513.04	447.04
513.21	400.23
513.38	395.55
513.56	407.25
513.73	407.25
513.90	442.36
514.08	425.98
514.25	393.21
514.43	379.17
514.60	388.53
514.77	414.27
514.95	421.30
515.12	393.21
515.29	358.10
515.47	451.72
515.64	442.36
515.81	440.02
515.99	440.02
516.16	472.79
516.33	447.04
516.51	456.40
516.68	376.83
516.85	444.70
517.03	463.43
517.20	442.36
517.37	475.13
517.54	444.70
517.72	503.22
517.89	393.21
518.06	365.12
518.24	449.38
518.41	395.55
518.58	409.59
518.75	411.93
518.93	367.46
519.10	498.53
519.27	386.19
519.45	355.76
519.62	423.64
519.79	463.43
519.96	447.04
520.14	402.57
520.31	414.27
520.48	458.74
520.65	416.62
520.83	423.64
521.00	456.40
521.17	465.77
521.34	334.70
521.52	440.02
521.69	388.53
521.86	407.25
522.03	404.91
522.20	409.59
522.38	416.62
522.55	416.62
522.72	397.89
522.89	433.00
523.07	470.45
523.24	339.38
523.41	484.49
523.58	435.34
523.75	386.19
523.92	379.17
524.10	428.32
524.27	449.38
524.44	421.30
524.61	381.51
524.78	411.93
524.96	411.93
525.13	475.13
525.30	414.27
525.47	468.11
525.64	449.38
525.81	428.32
525.98	468.11
526.16	416.62
526.33	423.64
526.50	372.15
526.67	402.57
526.84	383.85
527.01	440.02
527.18	428.32
527.36	477.47
527.53	397.89
527.70	400.23
527.87	425.98
528.04	498.53
528.21	458.74
528.38	400.23
528.55	353.42
528.72	477.47
528.89	437.68
529.07	393.21
529.24	407.25
529.41	449.38
529.58	397.89
529.75	430.66
529.92	465.77
530.09	388.53
530.26	461.09
530.43	393.21
530.60	440.02
530.77	489.17
530.94	456.40
531.11	395.55
531.28	444.70
531.46	372.15
531.63	472.79
531.80	425.98
531.97	327.68
532.14	418.96
532.31	383.85
532.48	442.36
532.65	468.11
532.82	379.17
532.99	440.02
533.16	418.96
533.33	400.23
533.50	369.80
533.67	367.46
533.84	423.64
534.01	365.12
534.18	423.64
534.35	390.87
534.52	402.57
534.69	456.40
534.86	435.34
535.03	435.34
535.20	475.13
535.37	447.04
535.54	421.30
535.71	395.55
535.88	383.85
536.05	383.85
536.22	514.92
536.38	365.12
536.55	447.04
536.72	423.64
536.89	451.72
537.06	409.59
537.23	393.21
537.40	456.40
537.57	430.66
537.74	407.25
537.91	475.13
538.08	435.34
538.25	402.57
538.42	337.04
538.59	411.93
538.75	484.49
538.92	484.49
539.09	489.17
539.26	379.17
539.43	435.34
539.60	404.91
539.77	456.40
539.94	369.80
540.11	393.21
540.28	447.04
540.44	402.57
540.61	484.49
540.78	491.51
540.95	440.02
541.12	402.57
541.29	393.21
541.46	397.89
541.62	414.27
541.79	423.64
541.96	383.85
542.13	475.13
542.30	402.57
542.47	451.72
542.63	407.25
542.80	397.89
542.97	388.53
543.14	425.98
543.31	388.53
543.48	428.32
543.64	428.32
543.81	395.55
543.98	444.70
544.15	379.17
544.32	440.02
544.48	409.59
544.65	416.62
544.82	360.44
544.99	325.33
545.16	526.62
545.32	440.02
545.49	409.59
545.66	442.36
545.83	355.76
546.00	447.04
546.16	414.27
546.33	381.51
546.50	416.62
546.67	393.21
546.83	425.98
547.00	425.98
547.17	395.55
547.34	404.91
547.50	458.74
547.67	393.21
547.84	442.36
548.00	428.32
548.17	454.06
548.34	393.21
548.51	428.32
548.67	428.32
548.84	437.68
549.01	484.49
549.18	400.23
549.34	447.04
549.51	428.32
549.68	365.12
549.84	318.31
550.01	416.62
550.18	465.77
550.34	358.10
550.51	444.70
550.68	425.98
550.84	421.30
551.01	348.74
551.18	407.25
551.34	393.21
551.51	397.89
551.68	365.12
551.84	500.87
552.01	400.23
552.18	330.02
552.34	372.15
552.51	451.72
552.68	463.43
552.84	414.27
553.01	416.62
553.18	421.30
553.34	397.89
553.51	430.66
553.67	428.32
553.84	447.04
554.01	402.57
554.17	414.27
554.34	414.27
554.51	454.06
554.67	404.91
554.84	430.66
555.00	404.91
555.17	402.57
555.33	510.24
555.50	414.27
555.67	409.59
555.83	374.49
556.00	355.76
556.16	587.47
556.33	430.66
556.50	404.91
556.66	456.40
556.83	435.34
556.99	369.80
557.16	440.02
557.32	475.13
557.49	383.85
557.65	456.40
557.82	390.87
557.98	411.93
558.15	430.66
558.32	395.55
558.48	461.09
558.65	444.70
558.81	416.62
558.98	463.43
559.14	507.90
559.31	383.85
559.47	416.62
559.64	355.76
559.80	388.53
559.97	425.98
560.13	351.08
560.30	435.34
560.46	433.00
560.63	449.38
560.79	463.43
560.96	395.55
561.12	369.80
561.29	463.43
561.45	442.36
561.61	386.19
561.78	498.53
561.94	376.83
562.11	334.70
562.27	402.57
562.44	416.62
562.60	421.30
562.77	390.87
562.93	463.43
563.10	454.06
563.26	418.96
563.42	437.68
563.59	447.04
563.75	458.74
563.92	472.79
564.08	411.93
564.24	414.27
564.41	425.98
564.57	411.93
564.74	374.49
564.90	442.36
565.07	444.70
565.23	444.70
565.39	379.17
565.56	484.49
565.72	428.32
565.88	374.49
566.05	430.66
566.21	435.34
566.38	409.59
566.54	416.62
566.70	369.80
566.87	362.78
567.03	353.42
567.19	500.87
567.36	379.17
567.52	414.27
567.68	407.25
567.85	365.12
568.01	407.25
568.17	421.30
568.34	409.59
568.50	442.36
568.66	395.55
568.83	528.96
568.99	428.32
569.15	423.64
569.32	451.72
569.48	404.91
569.64	393.21
569.81	407.25
569.97	395.55
570.13	442.36
570.30	362.78
570.46	423.64
570.62	404.91
570.78	404.91
570.95	360.44
571.11	421.30
571.27	409.59
571.43	365.12
571.60	528.96
571.76	423.64
571.92	465.77
572.09	393.21
572.25	468.11
572.41	388.53
572.57	418.96
572.74	433.00
572.90	421.30
573.06	381.51
573.22	472.79
573.38	425.98
573.55	425.98
573.71	491.51
573.87	409.59
574.03	381.51
574.20	388.53
574.36	402.57
574.52	381.51
574.68	421.30
574.84	400.23
575.01	372.15
575.17	440.02
575.33	365.12
575.49	484.49
575.65	475.13
575.82	374.49
575.98	451.72
576.14	444.70
576.30	435.34
576.46	353.42
576.62	381.51
576.79	418.96
576.95	463.43
577.11	444.70
577.27	442.36
577.43	444.70
577.59	465.77
577.75	437.68
577.92	355.76
578.08	404.91
578.24	416.62
578.40	503.22
578.56	430.66
578.72	447.04
578.88	325.33
579.04	482.15
579.21	423.64
579.37	479.81
579.53	461.09
579.69	397.89
579.85	416.62
580.01	430.66
580.17	348.74
580.33	393.21
580.49	355.76
580.65	491.51
580.82	486.83
580.98	437.68
581.14	381.51
581.30	447.04
581.46	379.17
581.62	388.53
581.78	454.06
581.94	433.00
582.10	379.17
582.26	379.17
582.42	386.19
582.58	514.92
582.74	367.46
582.90	386.19
583.06	507.90
583.22	418.96
583.38	440.02
583.54	372.15
583.70	423.64
583.86	381.51
584.02	348.74
584.18	404.91
584.34	402.57
584.50	362.78
584.66	409.59
584.82	404.91
584.98	407.25
585.14	456.40
585.30	407.25
585.46	416.62
585.62	430.66
585.78	418.96
585.94	395.55
586.10	451.72
586.26	484.49
586.42	447.04
586.58	365.12
586.74	425.98
586.90	404.91
587.06	411.93
587.22	454.06
587.38	442.36
587.54	376.83
587.70	425.98
587.86	458.74
588.02	414.27
588.18	374.49
588.34	418.96
588.49	358.10
588.65	435.34
588.81	454.06
588.97	404.91
589.13	381.51
589.29	437.68
589.45	437.68
589.61	437.68
589.77	440.02
589.93	435.34
590.08	458.74
590.24	381.51
590.40	374.49
590.56	442.36
590.72	327.68
590.88	404.91
591.04	383.85
591.20	451.72
591.35	447.04
591.51	367.46
591.67	351.08
591.83	409.59
591.99	463.43
592.15	425.98
592.31	407.25
592.46	397.89
592.62	437.68
592.78	397.89
592.94	411.93
593.10	444.70
593.26	428.32
593.41	484.49
593.57	402.57
593.73	332.36
593.89	351.08
594.05	486.83
594.20	449.38
594.36	437.68
594.52	313.63
594.68	444.70
594.84	451.72
594.99	440.02
595.15	472.79
595.31	435.34
595.47	409.59
595.62	482.15
595.78	447.04
595.94	425.98
596.10	498.53
596.25	339.38
596.41	463.43
596.57	414.27
596.73	344.06
596.88	395.55
597.04	414.27
597.20	433.00
597.36	339.38
597.51	423.64
597.67	374.49
597.83	409.59
597.99	521.94
598.14	425.98
598.30	449.38
598.46	407.25
598.61	435.34
598.77	383.85
598.93	381.51
599.09	414.27
599.24	376.83
599.40	421.30
599.56	458.74
599.71	409.59
599.87	416.62
600.03	435.34
600.18	425.98
600.34	381.51
600.50	500.87
600.65	346.40
600.81	423.64
600.97	367.46
601.12	458.74
601.28	393.21
601.44	404.91
601.59	348.74
601.75	454.06
601.91	379.17
602.06	339.38
602.22	503.22
602.37	402.57
602.53	404.91
602.69	437.68
602.84	360.44
603.00	416.62
603.16	416.62
603.31	425.98
603.47	407.25
603.62	435.34
603.78	372.15
603.94	376.83
604.09	355.76
604.25	472.79
604.40	397.89
604.56	388.53
604.71	430.66
604.87	388.53
605.03	367.46
605.18	442.36
605.34	397.89
605.49	404.91
605.65	402.57
605.80	388.53
605.96	411.93
606.12	428.32
606.27	395.55
606.43	433.00
606.58	484.49
606.74	477.47
606.89	404.91
607.05	430.66
607.20	362.78
607.36	440.02
607.51	360.44
607.67	369.80
607.82	458.74
607.98	449.38
608.13	407.25
608.29	383.85
608.44	470.45
608.60	477.47
608.75	442.36
608.91	433.00
609.06	379.17
609.22	428.32
609.37	442.36
609.53	400.23
609.68	418.96
609.84	416.62
609.99	393.21
610.15	362.78
610.30	461.09
610.46	425.98
610.61	472.79
610.76	395.55
610.92	456.40
611.07	386.19
611.23	402.57
611.38	425.98
611.54	458.74
611.69	390.87
611.84	433.00
612.00	397.89
612.15	435.34
612.31	423.64
612.46	435.34
612.62	444.70
612.77	428.32
612.92	435.34
613.08	458.74
613.23	421.30
613.39	376.83
613.54	451.72
613.69	393.21
613.85	475.13
614.00	381.51
614.15	449.38
614.31	395.55
614.46	444.70
614.62	383.85
614.77	440.02
614.92	416.62
615.08	411.93
615.23	383.85
615.38	428.32
615.54	400.23
615.69	400.23
615.84	390.87
616.00	400.23
616.15	465.77
616.30	381.51
616.46	379.17
616.61	388.53
616.76	416.62
616.92	416.62
617.07	376.83
617.22	369.80
617.37	425.98
617.53	449.38
617.68	425.98
617.83	332.36
617.99	416.62
618.14	486.83
618.29	451.72
618.45	484.49
618.60	369.80
618.75	465.77
618.90	327.68
619.06	447.04
619.21	465.77
619.36	465.77
619.51	376.83
619.67	428.32
619.82	477.47
619.97	376.83
620.12	421.30
620.28	383.85
620.43	451.72
620.58	507.90
620.73	423.64
620.89	397.89
621.04	395.55
621.19	454.06
621.34	409.59
621.49	397.89
621.65	468.11
621.80	458.74
621.95	458.74
622.10	379.17
622.25	465.77
622.41	360.44
622.56	449.38
622.71	442.36
622.86	437.68
623.01	425.98
623.16	440.02
623.32	437.68
623.47	376.83
623.62	393.21
623.77	472.79
623.92	442.36
624.07	454.06
624.23	404.91
624.38	397.89
624.53	442.36
624.68	418.96
624.83	465.77
624.98	437.68
625.13	418.96
625.29	472.79
625.44	451.72
625.59	386.19
625.74	428.32
625.89	402.57
626.04	425.98
626.19	365.12
626.34	374.49
626.49	395.55
626.65	411.93
626.80	451.72
626.95	430.66
627.10	402.57
627.25	447.04
627.40	449.38
627.55	505.56
627.70	444.70
627.85	435.34
628.00	397.89
628.15	402.57
628.30	376.83
628.45	402.57
628.60	400.23
628.76	402.57
628.91	421.30
629.06	404.91
629.21	479.81
629.36	440.02
629.51	418.96
629.66	479.81
629.81	402.57
629.96	393.21
630.11	407.25
630.26	362.78
630.41	372.15
630.56	404.91
630.71	379.17
630.86	379.17
631.01	332.36
631.16	332.36
631.31	454.06
631.46	458.74
631.61	484.49
631.76	440.02
631.91	461.09
632.06	493.85
632.21	435.34
632.36	400.23
632.51	381.51
632.66	404.91
632.81	418.96
632.96	400.23
633.10	421.30
633.25	418.96
633.40	416.62
633.55	372.15
633.70	388.53
633.85	479.81
634.00	383.85
634.15	395.55
634.30	390.87
634.45	482.15
634.60	386.19
634.75	360.44
634.90	355.76
635.05	386.19
635.19	435.34
635.34	430.66
635.49	435.34
635.64	402.57
635.79	395.55
635.94	416.62
636.09	451.72
636.24	470.45
636.39	304.27
636.53	477.47
636.68	365.12
636.83	353.42
636.98	372.15
637.13	451.72
637.28	409.59
637.43	463.43
637.57	470.45
637.72	433.00
637.87	449.38
638.02	423.64
638.17	456.40
638.32	372.15
638.46	454.06
638.61	465.77
638.76	388.53
638.91	404.91
639.06	374.49
639.20	456.40
639.35	472.79
639.50	418.96
639.65	447.04
639.80	383.85
639.94	418.96
640.09	423.64
640.24	423.64
640.39	388.53
640.54	388.53
640.68	376.83
640.83	470.45
640.98	428.32
641.13	486.83
641.27	395.55
641.42	397.89
641.57	454.06
641.72	486.83
641.86	454.06
642.01	374.49
642.16	425.98
642.31	381.51
642.45	484.49
642.60	355.76
642.75	409.59
642.90	397.89
643.04	402.57
643.19	365.12
643.34	472.79
643.48	454.06
643.63	470.45
643.78	423.64
643.93	423.64
644.07	383.85
644.22	411.93
644.37	414.27
644.51	489.17
644.66	416.62
644.81	355.76
644.95	411.93
645.10	388.53
645.25	425.98
645.39	444.70
645.54	423.64
645.69	442.36
645.83	397.89
645.98	475.13
646.13	428.32
646.27	451.72
646.42	435.34
646.57	400.23
646.71	404.91
646.86	440.02
647.00	437.68
647.15	477.47
647.30	416.62
647.44	383.85
647.59	390.87
647.74	416.62
647.88	411.93
648.03	442.36
648.17	416.62
648.32	369.80
648.47	369.80
648.61	414.27
648.76	470.45
648.90	365.12
649.05	400.23
649.20	404.91
649.34	411.93
649.49	351.08
649.63	442.36
649.78	402.57
649.92	344.06
650.07	376.83
650.21	489.17
650.36	435.34
650.51	472.79
650.65	489.17
650.80	421.30
650.94	435.34
651.09	374.49
651.23	390.87
651.38	449.38
651.52	376.83
651.67	435.34
651.81	395.55
651.96	477.47
652.10	498.53
652.25	430.66
652.39	456.40
652.54	386.19
652.68	386.19
652.83	440.02
652.97	388.53
653.12	369.80
653.26	440.02
653.41	421.30
653.55	421.30
653.70	318.31
653.84	362.78
653.99	407.25
654.13	372.15
654.27	437.68
654.42	362.78
654.56	449.38
654.71	472.79
654.85	416.62
655.00	437.68
655.14	435.34
655.29	353.42
655.43	500.87
655.57	449.38
655.72	421.30
655.86	402.57
656.01	425.98
656.15	351.08
656.30	353.42
656.44	358.10
656.58	437.68
656.73	425.98
656.87	346.40
657.01	381.51
657.16	390.87
657.30	416.62
657.45	430.66
657.59	449.38
657.73	414.27
657.88	355.76
658.02	500.87
658.16	437.68
658.31	400.23
658.45	456.40
658.60	404.91
658.74	416.62
658.88	383.85
659.03	390.87
659.17	423.64
659.31	393.21
659.46	423.64
659.60	465.77
659.74	421.30
659.89	390.87
660.03	416.62
660.17	402.57
660.32	475.13
660.46	367.46
660.60	442.36
660.74	409.59
660.89	444.70
661.03	369.80
661.17	402.57
661.32	428.32
661.46	400.23
661.60	360.44
661.74	423.64
661.89	425.98
662.03	482.15
662.17	430.66
662.31	470.45
662.46	409.59
662.60	423.64
662.74	437.68
662.88	425.98
663.03	421.30
663.17	416.62
663.31	442.36
663.45	367.46
663.60	444.70
663.74	379.17
663.88	414.27
664.02	437.68
664.17	390.87
664.31	367.46
664.45	376.83
664.59	418.96
664.73	365.12
664.88	435.34
665.02	332.36
665.16	322.99
665.30	435.34
665.44	430.66
665.59	411.93
665.73	400.23
665.87	381.51
666.01	395.55
666.15	353.42
666.29	416.62
666.44	447.04
666.58	472.79
666.72	421.30
666.86	433.00
667.00	388.53
667.14	472.79
667.28	447.04
667.43	362.78
667.57	416.62
667.71	421.30
667.85	447.04
667.99	423.64
668.13	386.19
668.27	376.83
668.41	355.76
668.56	447.04
668.70	397.89
668.84	400.23
668.98	421.30
669.12	402.57
669.26	346.40
669.40	484.49
669.54	362.78
669.68	435.34
669.82	271.50
669.96	407.25
670.10	451.72
670.25	456.40
670.39	418.96
670.53	416.62
670.67	468.11
670.81	461.09
670.95	456.40
671.09	435.34
671.23	486.83
671.37	433.00
671.51	479.81
671.65	468.11
671.79	447.04
671.93	386.19
672.07	402.57
672.21	475.13
672.35	425.98
672.49	367.46
672.63	475.13
672.77	407.25
672.91	547.69
673.05	454.06
673.19	470.45
673.33	482.15
673.47	414.27
673.61	362.78
673.75	484.49
673.89	348.74
674.03	425.98
674.17	404.91
674.31	454.06
674.45	383.85
674.59	414.27
674.73	407.25
674.87	421.30
675.01	442.36
675.15	444.70
675.29	428.32
675.43	421.30
675.56	472.79
675.70	458.74
675.84	390.87
675.98	524.28
676.12	318.31
676.26	449.38
676.40	381.51
676.54	390.87
676.68	496.19
676.82	440.02
676.96	440.02
677.10	437.68
677.23	435.34
677.37	407.25
677.51	397.89
677.65	442.36
677.79	465.77
677.93	458.74
678.07	404.91
678.21	416.62
678.34	440.02
678.48	449.38
678.62	430.66
678.76	330.02
678.90	395.55
679.04	339.38
679.18	414.27
679.31	425.98
679.45	341.72
679.59	390.87
679.73	500.87
679.87	358.10
680.00	388.53
680.14	376.83
680.28	451.72
680.42	402.57
680.56	404.91
680.70	444.70
680.83	407.25
680.97	362.78
681.11	449.38
681.25	390.87
681.39	418.96
681.52	404.91
681.66	442.36
681.80	458.74
681.94	418.96
682.07	388.53
682.21	440.02
682.35	416.62
682.49	433.00
682.62	421.30
682.76	418.96
682.90	383.85
683.04	442.36
683.17	433.00
683.31	418.96
683.45	493.85
683.59	435.34
683.72	374.49
683.86	414.27
684.00	407.25
684.13	360.44
684.27	442.36
684.41	465.77
684.55	315.97
684.68	428.32
684.82	374.49
684.96	390.87
685.09	437.68
685.23	409.59
685.37	486.83
685.50	456.40
685.64	444.70
685.78	456.40
685.91	423.64
686.05	374.49
686.19	461.09
686.32	428.32
686.46	463.43
686.60	437.68
686.73	468.11
686.87	433.00
687.01	397.89
687.14	433.00
687.28	367.46
687.42	437.68
687.55	475.13
687.69	465.77
687.82	397.89
687.96	376.83
688.10	451.72
688.23	383.85
688.37	435.34
688.50	479.81
688.64	421.30
688.78	395.55
688.91	416.62
689.05	395.55
689.18	374.49
689.32	404.91
689.46	472.79
689.59	468.11
689.73	440.02
689.86	397.89
690.00	444.70
690.13	388.53
690.27	423.64
690.41	435.34
690.54	489.17
690.68	435.34
690.81	433.00
690.95	454.06
691.08	484.49
691.22	430.66
691.35	318.31
691.49	365.12
691.62	423.64
691.76	418.96
691.89	444.70
692.03	386.19
692.16	402.57
692.30	449.38
692.43	418.96
692.57	454.06
692.70	449.38
692.84	491.51
692.97	454.06
693.11	409.59
693.24	386.19
693.38	428.32
693.51	430.66
693.65	390.87
693.78	388.53
693.92	416.62
694.05	465.77
694.19	442.36
694.32	397.89
694.45	390.87
694.59	365.12
694.72	425.98
694.86	376.83
694.99	461.09
695.13	372.15
695.26	456.40
695.39	414.27
695.53	458.74
695.66	454.06
695.80	475.13
695.93	418.96
696.07	400.23
696.20	360.44
696.33	348.74
696.47	311.29
696.60	353.42
696.73	428.32
696.87	416.62
697.00	402.57
697.14	393.21
697.27	379.17
697.40	435.34
697.54	440.02
697.67	444.70
697.80	414.27
697.94	454.06
698.07	381.51
698.21	423.64
698.34	442.36
698.47	456.40
698.61	397.89
698.74	475.13
698.87	407.25
699.01	435.34
699.14	381.51
699.27	395.55
699.40	489.17
699.54	468.11
699.67	414.27
699.80	437.68
699.94	423.64
700.07	433.00
700.20	428.32
700.34	418.96
700.47	414.27
700.60	416.62
700.73	463.43
700.87	559.39
701.00	489.17
701.13	365.12
701.26	411.93
701.40	444.70
701.53	360.44
701.66	418.96
701.79	386.19
701.93	430.66
702.06	416.62
702.19	386.19
702.32	423.64
702.46	411.93
702.59	407.25
702.72	386.19
702.85	383.85
702.99	339.38
703.12	447.04
703.25	402.57
703.38	423.64
703.51	442.36
703.65	435.34
703.78	461.09
703.91	416.62
704.04	409.59
704.17	435.34
704.31	421.30
704.44	353.42
704.57	365.12
704.70	388.53
704.83	507.90
704.96	461.09
705.10	437.68
705.23	428.32
>>>>>End Processed Spectral Data<<<<<
