SpectraSuite Data File
++++++++++++++++++++++++++++++++++++
Date: Fri Oct 25 12:11:43 EDT 2013
User: price-jones
Dark Spectrum Present: No
Reference Spectrum Present: No
Number of Sampled Component Spectra: 1
Spectrometers: USB2+H05261
Integration Time (usec): 100000 (USB2+H05261)
Spectra Averaged: 1 (USB2+H05261)
Boxcar Smoothing: 0 (USB2+H05261)
Correct for Electrical Dark: No (USB2+H05261)
Strobe/Lamp Enabled: No (USB2+H05261)
Correct for Detector Non-linearity: No (USB2+H05261)
Correct for Stray Light: No (USB2+H05261)
Number of Pixels in Processed Spectrum: 2048
>>>>>Begin Processed Spectral Data<<<<<
365.73	402.57
365.92	402.57
366.12	402.57
366.32	315.97
366.52	264.48
366.72	322.99
366.91	241.08
367.11	271.50
367.31	152.13
367.51	234.05
367.70	217.67
367.90	236.39
368.10	196.60
368.30	243.42
368.49	224.69
368.69	210.65
368.89	301.93
369.09	278.52
369.28	266.82
369.48	287.89
369.68	374.49
369.87	245.76
370.07	327.68
370.27	325.33
370.47	362.78
370.66	297.25
370.86	376.83
371.06	367.46
371.25	449.38
371.45	332.36
371.65	393.21
371.84	353.42
372.04	393.21
372.24	435.34
372.44	381.51
372.63	404.91
372.83	346.40
373.03	404.91
373.22	437.68
373.42	423.64
373.62	444.70
373.81	461.09
374.01	365.12
374.21	470.45
374.40	437.68
374.60	421.30
374.79	397.89
374.99	383.85
375.19	393.21
375.38	444.70
375.58	383.85
375.78	379.17
375.97	397.89
376.17	433.00
376.37	330.02
376.56	416.62
376.76	416.62
376.95	425.98
377.15	440.02
377.35	402.57
377.54	313.63
377.74	372.15
377.93	472.79
378.13	428.32
378.33	425.98
378.52	404.91
378.72	393.21
378.91	372.15
379.11	353.42
379.31	360.44
379.50	372.15
379.70	435.34
379.89	388.53
380.09	447.04
380.28	449.38
380.48	402.57
380.68	379.17
380.87	400.23
381.07	404.91
381.26	383.85
381.46	369.80
381.65	386.19
381.85	423.64
382.04	304.27
382.24	376.83
382.43	341.72
382.63	489.17
382.83	360.44
383.02	369.80
383.22	440.02
383.41	423.64
383.61	411.93
383.80	421.30
384.00	437.68
384.19	369.80
384.39	418.96
384.58	421.30
384.78	381.51
384.97	418.96
385.17	414.27
385.36	411.93
385.56	442.36
385.75	353.42
385.95	407.25
386.14	491.51
386.34	411.93
386.53	395.55
386.72	360.44
386.92	456.40
387.11	386.19
387.31	440.02
387.50	409.59
387.70	379.17
387.89	477.47
388.09	341.72
388.28	416.62
388.48	454.06
388.67	442.36
388.86	393.21
389.06	395.55
389.25	425.98
389.45	468.11
389.64	383.85
389.84	435.34
390.03	451.72
390.22	482.15
390.42	442.36
390.61	425.98
390.81	358.10
391.00	423.64
391.19	425.98
391.39	404.91
391.58	353.42
391.78	421.30
391.97	346.40
392.16	362.78
392.36	470.45
392.55	454.06
392.75	414.27
392.94	493.85
393.13	409.59
393.33	400.23
393.52	409.59
393.71	390.87
393.91	365.12
394.10	409.59
394.29	372.15
394.49	358.10
394.68	390.87
394.88	430.66
395.07	472.79
395.26	418.96
395.46	367.46
395.65	447.04
395.84	440.02
396.04	433.00
396.23	440.02
396.42	416.62
396.62	409.59
396.81	404.91
397.00	358.10
397.19	390.87
397.39	479.81
397.58	386.19
397.77	407.25
397.97	344.06
398.16	421.30
398.35	421.30
398.55	397.89
398.74	397.89
398.93	428.32
399.12	348.74
399.32	425.98
399.51	346.40
399.70	437.68
399.90	400.23
400.09	463.43
400.28	425.98
400.47	402.57
400.67	409.59
400.86	428.32
401.05	447.04
401.24	416.62
401.44	423.64
401.63	395.55
401.82	435.34
402.01	367.46
402.21	407.25
402.40	402.57
402.59	397.89
402.78	440.02
402.97	491.51
403.17	418.96
403.36	386.19
403.55	351.08
403.74	444.70
403.93	346.40
404.13	458.74
404.32	400.23
404.51	456.40
404.70	407.25
404.89	435.34
405.09	414.27
405.28	470.45
405.47	381.51
405.66	386.19
405.85	423.64
406.05	393.21
406.24	503.22
406.43	388.53
406.62	404.91
406.81	428.32
407.00	404.91
407.20	435.34
407.39	365.12
407.58	390.87
407.77	416.62
407.96	414.27
408.15	381.51
408.34	397.89
408.54	383.85
408.73	407.25
408.92	418.96
409.11	489.17
409.30	414.27
409.49	372.15
409.68	390.87
409.87	367.46
410.07	344.06
410.26	416.62
410.45	447.04
410.64	421.30
410.83	456.40
411.02	416.62
411.21	468.11
411.40	442.36
411.59	430.66
411.78	449.38
411.98	404.91
412.17	400.23
412.36	404.91
412.55	416.62
412.74	433.00
412.93	400.23
413.12	376.83
413.31	472.79
413.50	414.27
413.69	444.70
413.88	388.53
414.07	428.32
414.26	383.85
414.45	456.40
414.64	425.98
414.83	428.32
415.02	433.00
415.22	468.11
415.41	397.89
415.60	442.36
415.79	423.64
415.98	440.02
416.17	463.43
416.36	416.62
416.55	393.21
416.74	454.06
416.93	379.17
417.12	458.74
417.31	374.49
417.50	400.23
417.69	479.81
417.88	400.23
418.07	435.34
418.26	367.46
418.45	395.55
418.64	463.43
418.83	470.45
419.02	437.68
419.21	444.70
419.39	407.25
419.58	383.85
419.77	414.27
419.96	407.25
420.15	411.93
420.34	444.70
420.53	337.04
420.72	374.49
420.91	421.30
421.10	430.66
421.29	435.34
421.48	423.64
421.67	423.64
421.86	449.38
422.05	461.09
422.24	374.49
422.43	482.15
422.61	416.62
422.80	423.64
422.99	430.66
423.18	447.04
423.37	418.96
423.56	425.98
423.75	390.87
423.94	418.96
424.13	395.55
424.32	318.31
424.50	449.38
424.69	388.53
424.88	388.53
425.07	397.89
425.26	461.09
425.45	449.38
425.64	430.66
425.83	409.59
426.01	388.53
426.20	425.98
426.39	395.55
426.58	430.66
426.77	454.06
426.96	388.53
427.15	379.17
427.33	421.30
427.52	484.49
427.71	416.62
427.90	505.56
428.09	470.45
428.28	374.49
428.46	379.17
428.65	411.93
428.84	437.68
429.03	442.36
429.22	369.80
429.40	395.55
429.59	390.87
429.78	337.04
429.97	379.17
430.16	388.53
430.34	442.36
430.53	372.15
430.72	461.09
430.91	411.93
431.10	360.44
431.28	407.25
431.47	367.46
431.66	451.72
431.85	442.36
432.03	379.17
432.22	458.74
432.41	437.68
432.60	440.02
432.79	381.51
432.97	397.89
433.16	353.42
433.35	393.21
433.54	407.25
433.72	503.22
433.91	447.04
434.10	369.80
434.28	428.32
434.47	353.42
434.66	418.96
434.85	400.23
435.03	374.49
435.22	411.93
435.41	397.89
435.59	404.91
435.78	442.36
435.97	327.68
436.16	430.66
436.34	444.70
436.53	400.23
436.72	449.38
436.90	482.15
437.09	402.57
437.28	348.74
437.46	393.21
437.65	402.57
437.84	458.74
438.02	411.93
438.21	372.15
438.40	411.93
438.58	376.83
438.77	423.64
438.96	402.57
439.14	425.98
439.33	411.93
439.52	395.55
439.70	447.04
439.89	390.87
440.08	447.04
440.26	402.57
440.45	416.62
440.63	360.44
440.82	390.87
441.01	454.06
441.19	421.30
441.38	311.29
441.57	465.77
441.75	428.32
441.94	496.19
442.12	472.79
442.31	442.36
442.50	454.06
442.68	346.40
442.87	353.42
443.05	425.98
443.24	400.23
443.43	433.00
443.61	437.68
443.80	442.36
443.98	374.49
444.17	395.55
444.35	435.34
444.54	409.59
444.73	402.57
444.91	482.15
445.10	395.55
445.28	351.08
445.47	484.49
445.65	440.02
445.84	444.70
446.02	400.23
446.21	367.46
446.39	367.46
446.58	437.68
446.77	454.06
446.95	327.68
447.14	404.91
447.32	437.68
447.51	376.83
447.69	383.85
447.88	397.89
448.06	521.94
448.25	379.17
448.43	365.12
448.62	369.80
448.80	407.25
448.99	430.66
449.17	365.12
449.36	411.93
449.54	423.64
449.73	386.19
449.91	442.36
450.10	451.72
450.28	505.56
450.46	503.22
450.65	463.43
450.83	409.59
451.02	433.00
451.20	400.23
451.39	425.98
451.57	411.93
451.76	404.91
451.94	463.43
452.13	465.77
452.31	468.11
452.49	472.79
452.68	447.04
452.86	409.59
453.05	472.79
453.23	393.21
453.42	348.74
453.60	400.23
453.78	433.00
453.97	358.10
454.15	425.98
454.34	395.55
454.52	374.49
454.70	454.06
454.89	472.79
455.07	334.70
455.26	463.43
455.44	470.45
455.62	421.30
455.81	400.23
455.99	386.19
456.17	351.08
456.36	418.96
456.54	451.72
456.73	484.49
456.91	430.66
457.09	433.00
457.28	423.64
457.46	447.04
457.64	465.77
457.83	341.72
458.01	393.21
458.19	400.23
458.38	346.40
458.56	332.36
458.74	409.59
458.93	383.85
459.11	430.66
459.29	423.64
459.48	386.19
459.66	465.77
459.84	463.43
460.03	400.23
460.21	320.65
460.39	416.62
460.57	484.49
460.76	470.45
460.94	444.70
461.12	379.17
461.31	339.38
461.49	428.32
461.67	465.77
461.85	430.66
462.04	454.06
462.22	791.10
462.40	444.70
462.59	393.21
462.77	332.36
462.95	404.91
463.13	306.61
463.32	425.98
463.50	437.68
463.68	470.45
463.86	383.85
464.05	315.97
464.23	454.06
464.41	428.32
464.59	440.02
464.78	390.87
464.96	383.85
465.14	423.64
465.32	351.08
465.50	355.76
465.69	433.00
465.87	414.27
466.05	447.04
466.23	400.23
466.41	444.70
466.60	430.66
466.78	440.02
466.96	369.80
467.14	470.45
467.32	404.91
467.51	461.09
467.69	421.30
467.87	407.25
468.05	397.89
468.23	444.70
468.41	470.45
468.60	486.83
468.78	383.85
468.96	440.02
469.14	456.40
469.32	458.74
469.50	367.46
469.69	386.19
469.87	475.13
470.05	386.19
470.23	358.10
470.41	416.62
470.59	393.21
470.77	400.23
470.95	369.80
471.14	475.13
471.32	411.93
471.50	423.64
471.68	428.32
471.86	351.08
472.04	402.57
472.22	421.30
472.40	327.68
472.58	433.00
472.77	440.02
472.95	381.51
473.13	409.59
473.31	444.70
473.49	428.32
473.67	456.40
473.85	447.04
474.03	418.96
474.21	386.19
474.39	388.53
474.57	433.00
474.75	355.76
474.93	454.06
475.12	341.72
475.30	409.59
475.48	414.27
475.66	388.53
475.84	383.85
476.02	404.91
476.20	397.89
476.38	435.34
476.56	519.60
476.74	397.89
476.92	311.29
477.10	421.30
477.28	454.06
477.46	440.02
477.64	444.70
477.82	388.53
478.00	360.44
478.18	393.21
478.36	456.40
478.54	465.77
478.72	332.36
478.90	416.62
479.08	395.55
479.26	393.21
479.44	435.34
479.62	425.98
479.80	367.46
479.98	313.63
480.16	402.57
480.34	433.00
480.52	402.57
480.70	461.09
480.88	425.98
481.06	351.08
481.24	381.51
481.41	489.17
481.59	456.40
481.77	353.42
481.95	428.32
482.13	437.68
482.31	416.62
482.49	456.40
482.67	444.70
482.85	430.66
483.03	407.25
483.21	465.77
483.39	411.93
483.57	468.11
483.74	418.96
483.92	449.38
484.10	402.57
484.28	327.68
484.46	458.74
484.64	461.09
484.82	447.04
485.00	383.85
485.18	440.02
485.35	418.96
485.53	402.57
485.71	400.23
485.89	365.12
486.07	444.70
486.25	367.46
486.43	414.27
486.61	416.62
486.78	456.40
486.96	425.98
487.14	421.30
487.32	390.87
487.50	416.62
487.68	374.49
487.85	344.06
488.03	325.33
488.21	409.59
488.39	444.70
488.57	484.49
488.75	449.38
488.92	477.47
489.10	397.89
489.28	447.04
489.46	421.30
489.64	376.83
489.81	358.10
489.99	358.10
490.17	411.93
490.35	479.81
490.53	404.91
490.70	388.53
490.88	381.51
491.06	374.49
491.24	400.23
491.41	475.13
491.59	411.93
491.77	425.98
491.95	386.19
492.13	397.89
492.30	470.45
492.48	496.19
492.66	379.17
492.84	383.85
493.01	463.43
493.19	442.36
493.37	496.19
493.54	475.13
493.72	437.68
493.90	402.57
494.08	465.77
494.25	444.70
494.43	407.25
494.61	435.34
494.79	402.57
494.96	360.44
495.14	425.98
495.32	360.44
495.49	428.32
495.67	411.93
495.85	346.40
496.02	341.72
496.20	388.53
496.38	360.44
496.55	418.96
496.73	418.96
496.91	339.38
497.09	411.93
497.26	449.38
497.44	416.62
497.62	374.49
497.79	444.70
497.97	428.32
498.14	397.89
498.32	435.34
498.50	404.91
498.67	386.19
498.85	458.74
499.03	482.15
499.20	451.72
499.38	404.91
499.56	447.04
499.73	416.62
499.91	468.11
500.08	423.64
500.26	491.51
500.44	386.19
500.61	437.68
500.79	451.72
500.97	486.83
501.14	477.47
501.32	418.96
501.49	500.87
501.67	425.98
501.84	395.55
502.02	461.09
502.20	395.55
502.37	400.23
502.55	411.93
502.72	442.36
502.90	451.72
503.07	393.21
503.25	433.00
503.43	416.62
503.60	421.30
503.78	435.34
503.95	423.64
504.13	444.70
504.30	498.53
504.48	447.04
504.65	372.15
504.83	400.23
505.01	425.98
505.18	395.55
505.36	395.55
505.53	428.32
505.71	358.10
505.88	414.27
506.06	358.10
506.23	355.76
506.41	418.96
506.58	458.74
506.76	390.87
506.93	402.57
507.11	470.45
507.28	418.96
507.46	428.32
507.63	404.91
507.81	379.17
507.98	421.30
508.16	330.02
508.33	430.66
508.50	456.40
508.68	376.83
508.85	423.64
509.03	400.23
509.20	383.85
509.38	437.68
509.55	400.23
509.73	503.22
509.90	461.09
510.08	379.17
510.25	463.43
510.42	444.70
510.60	411.93
510.77	449.38
510.95	414.27
511.12	409.59
511.30	458.74
511.47	489.17
511.64	360.44
511.82	397.89
511.99	435.34
512.17	421.30
512.34	402.57
512.51	425.98
512.69	362.78
512.86	414.27
513.04	376.83
513.21	444.70
513.38	383.85
513.56	454.06
513.73	404.91
513.90	418.96
514.08	395.55
514.25	423.64
514.43	440.02
514.60	383.85
514.77	437.68
514.95	360.44
515.12	376.83
515.29	430.66
515.47	418.96
515.64	454.06
515.81	482.15
515.99	435.34
516.16	449.38
516.33	421.30
516.51	409.59
516.68	379.17
516.85	390.87
517.03	418.96
517.20	428.32
517.37	456.40
517.54	397.89
517.72	353.42
517.89	440.02
518.06	430.66
518.24	437.68
518.41	442.36
518.58	402.57
518.75	388.53
518.93	430.66
519.10	355.76
519.27	430.66
519.45	393.21
519.62	393.21
519.79	475.13
519.96	421.30
520.14	433.00
520.31	360.44
520.48	430.66
520.65	407.25
520.83	444.70
521.00	447.04
521.17	458.74
521.34	402.57
521.52	463.43
521.69	411.93
521.86	444.70
522.03	454.06
522.20	421.30
522.38	423.64
522.55	456.40
522.72	409.59
522.89	402.57
523.07	486.83
523.24	397.89
523.41	390.87
523.58	390.87
523.75	381.51
523.92	397.89
524.10	456.40
524.27	402.57
524.44	430.66
524.61	360.44
524.78	318.31
524.96	458.74
525.13	456.40
525.30	449.38
525.47	435.34
525.64	421.30
525.81	346.40
525.98	423.64
526.16	454.06
526.33	362.78
526.50	397.89
526.67	421.30
526.84	414.27
527.01	383.85
527.18	374.49
527.36	372.15
527.53	451.72
527.70	414.27
527.87	428.32
528.04	461.09
528.21	395.55
528.38	409.59
528.55	484.49
528.72	390.87
528.89	475.13
529.07	365.12
529.24	463.43
529.41	461.09
529.58	451.72
529.75	402.57
529.92	451.72
530.09	390.87
530.26	351.08
530.43	397.89
530.60	395.55
530.77	322.99
530.94	393.21
531.11	463.43
531.28	402.57
531.46	437.68
531.63	414.27
531.80	367.46
531.97	461.09
532.14	381.51
532.31	444.70
532.48	418.96
532.65	463.43
532.82	344.06
532.99	449.38
533.16	409.59
533.33	425.98
533.50	369.80
533.67	454.06
533.84	407.25
534.01	409.59
534.18	367.46
534.35	404.91
534.52	404.91
534.69	414.27
534.86	411.93
535.03	416.62
535.20	411.93
535.37	418.96
535.54	397.89
535.71	435.34
535.88	386.19
536.05	407.25
536.22	545.34
536.38	465.77
536.55	383.85
536.72	414.27
536.89	411.93
537.06	416.62
537.23	433.00
537.40	386.19
537.57	402.57
537.74	449.38
537.91	411.93
538.08	430.66
538.25	416.62
538.42	360.44
538.59	433.00
538.75	425.98
538.92	402.57
539.09	461.09
539.26	318.31
539.43	503.22
539.60	383.85
539.77	421.30
539.94	386.19
540.11	449.38
540.28	395.55
540.44	442.36
540.61	402.57
540.78	433.00
540.95	353.42
541.12	379.17
541.29	421.30
541.46	451.72
541.62	390.87
541.79	400.23
541.96	386.19
542.13	381.51
542.30	397.89
542.47	367.46
542.63	423.64
542.80	423.64
542.97	449.38
543.14	372.15
543.31	425.98
543.48	486.83
543.64	416.62
543.81	444.70
543.98	337.04
544.15	416.62
544.32	402.57
544.48	372.15
544.65	430.66
544.82	477.47
544.99	411.93
545.16	456.40
545.32	486.83
545.49	374.49
545.66	416.62
545.83	404.91
546.00	468.11
546.16	451.72
546.33	430.66
546.50	395.55
546.67	503.22
546.83	468.11
547.00	407.25
547.17	383.85
547.34	435.34
547.50	428.32
547.67	404.91
547.84	400.23
548.00	447.04
548.17	430.66
548.34	433.00
548.51	425.98
548.67	435.34
548.84	393.21
549.01	430.66
549.18	402.57
549.34	475.13
549.51	440.02
549.68	360.44
549.84	407.25
550.01	440.02
550.18	418.96
550.34	451.72
550.51	409.59
550.68	514.92
550.84	346.40
551.01	416.62
551.18	486.83
551.34	390.87
551.51	430.66
551.68	395.55
551.84	409.59
552.01	407.25
552.18	421.30
552.34	383.85
552.51	435.34
552.68	489.17
552.84	376.83
553.01	451.72
553.18	430.66
553.34	409.59
553.51	414.27
553.67	458.74
553.84	409.59
554.01	435.34
554.17	430.66
554.34	332.36
554.51	400.23
554.67	374.49
554.84	397.89
555.00	393.21
555.17	437.68
555.33	470.45
555.50	409.59
555.67	484.49
555.83	374.49
556.00	383.85
556.16	510.24
556.33	425.98
556.50	374.49
556.66	421.30
556.83	470.45
556.99	486.83
557.16	428.32
557.32	461.09
557.49	440.02
557.65	461.09
557.82	400.23
557.98	540.66
558.15	447.04
558.32	437.68
558.48	390.87
558.65	425.98
558.81	447.04
558.98	339.38
559.14	465.77
559.31	425.98
559.47	465.77
559.64	407.25
559.80	393.21
559.97	416.62
560.13	437.68
560.30	433.00
560.46	447.04
560.63	383.85
560.79	365.12
560.96	461.09
561.12	454.06
561.29	388.53
561.45	390.87
561.61	414.27
561.78	510.24
561.94	407.25
562.11	327.68
562.27	489.17
562.44	447.04
562.60	379.17
562.77	456.40
562.93	500.87
563.10	418.96
563.26	369.80
563.42	451.72
563.59	440.02
563.75	348.74
563.92	454.06
564.08	484.49
564.24	425.98
564.41	514.92
564.57	442.36
564.74	390.87
564.90	397.89
565.07	503.22
565.23	461.09
565.39	425.98
565.56	400.23
565.72	503.22
565.88	425.98
566.05	461.09
566.21	393.21
566.38	444.70
566.54	449.38
566.70	353.42
566.87	400.23
567.03	540.66
567.19	404.91
567.36	365.12
567.52	393.21
567.68	411.93
567.85	479.81
568.01	463.43
568.17	407.25
568.34	489.17
568.50	409.59
568.66	498.53
568.83	477.47
568.99	407.25
569.15	482.15
569.32	421.30
569.48	423.64
569.64	454.06
569.81	397.89
569.97	402.57
570.13	423.64
570.30	360.44
570.46	379.17
570.62	418.96
570.78	430.66
570.95	386.19
571.11	454.06
571.27	409.59
571.43	383.85
571.60	461.09
571.76	407.25
571.92	437.68
572.09	449.38
572.25	465.77
572.41	449.38
572.57	360.44
572.74	463.43
572.90	400.23
573.06	390.87
573.22	330.02
573.38	472.79
573.55	430.66
573.71	442.36
573.87	400.23
574.03	383.85
574.20	397.89
574.36	475.13
574.52	411.93
574.68	393.21
574.84	440.02
575.01	461.09
575.17	435.34
575.33	400.23
575.49	456.40
575.65	449.38
575.82	447.04
575.98	444.70
576.14	482.15
576.30	416.62
576.46	425.98
576.62	393.21
576.79	447.04
576.95	568.75
577.11	430.66
577.27	411.93
577.43	451.72
577.59	461.09
577.75	507.90
577.92	505.56
578.08	463.43
578.24	435.34
578.40	451.72
578.56	472.79
578.72	397.89
578.88	444.70
579.04	430.66
579.21	402.57
579.37	425.98
579.53	461.09
579.69	404.91
579.85	421.30
580.01	437.68
580.17	383.85
580.33	411.93
580.49	454.06
580.65	444.70
580.82	395.55
580.98	397.89
581.14	397.89
581.30	477.47
581.46	425.98
581.62	456.40
581.78	435.34
581.94	386.19
582.10	341.72
582.26	430.66
582.42	433.00
582.58	407.25
582.74	456.40
582.90	428.32
583.06	423.64
583.22	449.38
583.38	388.53
583.54	477.47
583.70	358.10
583.86	472.79
584.02	437.68
584.18	442.36
584.34	482.15
584.50	402.57
584.66	437.68
584.82	440.02
584.98	409.59
585.14	402.57
585.30	435.34
585.46	383.85
585.62	390.87
585.78	379.17
585.94	421.30
586.10	362.78
586.26	400.23
586.42	500.87
586.58	388.53
586.74	428.32
586.90	397.89
587.06	393.21
587.22	388.53
587.38	454.06
587.54	458.74
587.70	594.50
587.86	411.93
588.02	402.57
588.18	463.43
588.34	400.23
588.49	395.55
588.65	411.93
588.81	437.68
588.97	358.10
589.13	430.66
589.29	442.36
589.45	411.93
589.61	367.46
589.77	383.85
589.93	418.96
590.08	416.62
590.24	468.11
590.40	393.21
590.56	442.36
590.72	365.12
590.88	393.21
591.04	425.98
591.20	348.74
591.35	451.72
591.51	376.83
591.67	472.79
591.83	379.17
591.99	428.32
592.15	472.79
592.31	423.64
592.46	379.17
592.62	381.51
592.78	374.49
592.94	334.70
593.10	358.10
593.26	341.72
593.41	430.66
593.57	423.64
593.73	442.36
593.89	451.72
594.05	423.64
594.20	381.51
594.36	416.62
594.52	416.62
594.68	414.27
594.84	360.44
594.99	381.51
595.15	447.04
595.31	402.57
595.47	416.62
595.62	416.62
595.78	416.62
595.94	404.91
596.10	428.32
596.25	458.74
596.41	428.32
596.57	411.93
596.73	421.30
596.88	402.57
597.04	437.68
597.20	414.27
597.36	435.34
597.51	407.25
597.67	428.32
597.83	423.64
597.99	482.15
598.14	395.55
598.30	444.70
598.46	400.23
598.61	367.46
598.77	458.74
598.93	341.72
599.09	425.98
599.24	407.25
599.40	423.64
599.56	388.53
599.71	388.53
599.87	393.21
600.03	400.23
600.18	360.44
600.34	440.02
600.50	379.17
600.65	330.02
600.81	404.91
600.97	456.40
601.12	348.74
601.28	463.43
601.44	393.21
601.59	449.38
601.75	374.49
601.91	395.55
602.06	346.40
602.22	416.62
602.37	458.74
602.53	461.09
602.69	456.40
602.84	440.02
603.00	433.00
603.16	451.72
603.31	411.93
603.47	416.62
603.62	397.89
603.78	435.34
603.94	425.98
604.09	400.23
604.25	416.62
604.40	465.77
604.56	423.64
604.71	355.76
604.87	463.43
605.03	442.36
605.18	433.00
605.34	503.22
605.49	390.87
605.65	461.09
605.80	435.34
605.96	507.90
606.12	379.17
606.27	425.98
606.43	440.02
606.58	418.96
606.74	395.55
606.89	425.98
607.05	444.70
607.20	421.30
607.36	449.38
607.51	454.06
607.67	503.22
607.82	428.32
607.98	386.19
608.13	416.62
608.29	395.55
608.44	418.96
608.60	397.89
608.75	461.09
608.91	325.33
609.06	433.00
609.22	428.32
609.37	444.70
609.53	418.96
609.68	461.09
609.84	414.27
609.99	458.74
610.15	414.27
610.30	463.43
610.46	395.55
610.61	440.02
610.76	388.53
610.92	444.70
611.07	355.76
611.23	477.47
611.38	447.04
611.54	409.59
611.69	491.51
611.84	395.55
612.00	383.85
612.15	351.08
612.31	360.44
612.46	472.79
612.62	421.30
612.77	414.27
612.92	458.74
613.08	440.02
613.23	423.64
613.39	435.34
613.54	433.00
613.69	374.49
613.85	433.00
614.00	428.32
614.15	411.93
614.31	416.62
614.46	430.66
614.62	355.76
614.77	397.89
614.92	358.10
615.08	463.43
615.23	409.59
615.38	428.32
615.54	437.68
615.69	433.00
615.84	449.38
616.00	437.68
616.15	444.70
616.30	414.27
616.46	475.13
616.61	348.74
616.76	400.23
616.92	376.83
617.07	395.55
617.22	423.64
617.37	402.57
617.53	428.32
617.68	388.53
617.83	393.21
617.99	440.02
618.14	454.06
618.29	458.74
618.45	430.66
618.60	404.91
618.75	381.51
618.90	435.34
619.06	449.38
619.21	484.49
619.36	451.72
619.51	425.98
619.67	433.00
619.82	402.57
619.97	407.25
620.12	381.51
620.28	397.89
620.43	449.38
620.58	414.27
620.73	358.10
620.89	400.23
621.04	365.12
621.19	486.83
621.34	430.66
621.49	461.09
621.65	395.55
621.80	355.76
621.95	435.34
622.10	416.62
622.25	407.25
622.41	362.78
622.56	381.51
622.71	435.34
622.86	454.06
623.01	437.68
623.16	416.62
623.32	433.00
623.47	444.70
623.62	433.00
623.77	374.49
623.92	425.98
624.07	397.89
624.23	461.09
624.38	327.68
624.53	365.12
624.68	383.85
624.83	489.17
624.98	477.47
625.13	468.11
625.29	428.32
625.44	472.79
625.59	421.30
625.74	416.62
625.89	367.46
626.04	402.57
626.19	376.83
626.34	404.91
626.49	372.15
626.65	379.17
626.80	416.62
626.95	454.06
627.10	407.25
627.25	397.89
627.40	418.96
627.55	437.68
627.70	447.04
627.85	355.76
628.00	388.53
628.15	376.83
628.30	463.43
628.45	388.53
628.60	395.55
628.76	395.55
628.91	430.66
629.06	447.04
629.21	437.68
629.36	493.85
629.51	414.27
629.66	447.04
629.81	395.55
629.96	416.62
630.11	425.98
630.26	437.68
630.41	414.27
630.56	372.15
630.71	456.40
630.86	367.46
631.01	388.53
631.16	423.64
631.31	456.40
631.46	369.80
631.61	376.83
631.76	369.80
631.91	409.59
632.06	440.02
632.21	416.62
632.36	416.62
632.51	400.23
632.66	416.62
632.81	341.72
632.96	484.49
633.10	465.77
633.25	463.43
633.40	428.32
633.55	416.62
633.70	456.40
633.85	461.09
634.00	421.30
634.15	381.51
634.30	400.23
634.45	365.12
634.60	388.53
634.75	383.85
634.90	395.55
635.05	379.17
635.19	376.83
635.34	411.93
635.49	454.06
635.64	472.79
635.79	425.98
635.94	454.06
636.09	416.62
636.24	482.15
636.39	435.34
636.53	416.62
636.68	451.72
636.83	353.42
636.98	477.47
637.13	411.93
637.28	409.59
637.43	454.06
637.57	386.19
637.72	400.23
637.87	430.66
638.02	411.93
638.17	418.96
638.32	376.83
638.46	433.00
638.61	458.74
638.76	400.23
638.91	475.13
639.06	400.23
639.20	500.87
639.35	407.25
639.50	407.25
639.65	489.17
639.80	440.02
639.94	444.70
640.09	395.55
640.24	402.57
640.39	285.55
640.54	440.02
640.68	353.42
640.83	444.70
640.98	411.93
641.13	409.59
641.27	393.21
641.42	421.30
641.57	470.45
641.72	449.38
641.86	423.64
642.01	421.30
642.16	435.34
642.31	421.30
642.45	341.72
642.60	409.59
642.75	425.98
642.90	407.25
643.04	468.11
643.19	498.53
643.34	454.06
643.48	393.21
643.63	386.19
643.78	447.04
643.93	456.40
644.07	451.72
644.22	404.91
644.37	311.29
644.51	517.26
644.66	451.72
644.81	449.38
644.95	470.45
645.10	376.83
645.25	395.55
645.39	437.68
645.54	386.19
645.69	477.47
645.83	416.62
645.98	486.83
646.13	395.55
646.27	393.21
646.42	458.74
646.57	435.34
646.71	475.13
646.86	418.96
647.00	458.74
647.15	475.13
647.30	388.53
647.44	437.68
647.59	402.57
647.74	379.17
647.88	400.23
648.03	411.93
648.17	456.40
648.32	430.66
648.47	416.62
648.61	468.11
648.76	393.21
648.90	390.87
649.05	325.33
649.20	397.89
649.34	404.91
649.49	383.85
649.63	409.59
649.78	463.43
649.92	388.53
650.07	447.04
650.21	362.78
650.36	482.15
650.51	402.57
650.65	353.42
650.80	386.19
650.94	444.70
651.09	386.19
651.23	369.80
651.38	435.34
651.52	365.12
651.67	397.89
651.81	358.10
651.96	390.87
652.10	447.04
652.25	374.49
652.39	390.87
652.54	433.00
652.68	449.38
652.83	456.40
652.97	388.53
653.12	442.36
653.26	407.25
653.41	482.15
653.55	458.74
653.70	411.93
653.84	484.49
653.99	418.96
654.13	397.89
654.27	397.89
654.42	351.08
654.56	449.38
654.71	433.00
654.85	433.00
655.00	430.66
655.14	383.85
655.29	433.00
655.43	428.32
655.57	395.55
655.72	407.25
655.86	435.34
656.01	425.98
656.15	379.17
656.30	423.64
656.44	407.25
656.58	440.02
656.73	437.68
656.87	337.04
657.01	381.51
657.16	379.17
657.30	435.34
657.45	458.74
657.59	435.34
657.73	369.80
657.88	418.96
658.02	468.11
658.16	430.66
658.31	472.79
658.45	430.66
658.60	404.91
658.74	437.68
658.88	433.00
659.03	393.21
659.17	524.28
659.31	416.62
659.46	388.53
659.60	430.66
659.74	440.02
659.89	425.98
660.03	425.98
660.17	465.77
660.32	440.02
660.46	475.13
660.60	414.27
660.74	409.59
660.89	416.62
661.03	442.36
661.17	383.85
661.32	414.27
661.46	397.89
661.60	447.04
661.74	376.83
661.89	477.47
662.03	383.85
662.17	393.21
662.31	390.87
662.46	395.55
662.60	428.32
662.74	360.44
662.88	465.77
663.03	451.72
663.17	411.93
663.31	390.87
663.45	404.91
663.60	435.34
663.74	395.55
663.88	442.36
664.02	423.64
664.17	435.34
664.31	437.68
664.45	395.55
664.59	409.59
664.73	416.62
664.88	456.40
665.02	440.02
665.16	442.36
665.30	402.57
665.44	433.00
665.59	493.85
665.73	447.04
665.87	421.30
666.01	440.02
666.15	486.83
666.29	388.53
666.44	472.79
666.58	482.15
666.72	367.46
666.86	402.57
667.00	423.64
667.14	367.46
667.28	447.04
667.43	430.66
667.57	351.08
667.71	550.03
667.85	397.89
667.99	397.89
668.13	374.49
668.27	430.66
668.41	400.23
668.56	437.68
668.70	512.58
668.84	411.93
668.98	379.17
669.12	395.55
669.26	423.64
669.40	430.66
669.54	433.00
669.68	472.79
669.82	404.91
669.96	402.57
670.10	367.46
670.25	421.30
670.39	442.36
670.53	423.64
670.67	397.89
670.81	435.34
670.95	411.93
671.09	369.80
671.23	458.74
671.37	449.38
671.51	407.25
671.65	374.49
671.79	423.64
671.93	423.64
672.07	512.58
672.21	386.19
672.35	374.49
672.49	400.23
672.63	365.12
672.77	437.68
672.91	447.04
673.05	456.40
673.19	430.66
673.33	383.85
673.47	503.22
673.61	437.68
673.75	395.55
673.89	397.89
674.03	456.40
674.17	440.02
674.31	418.96
674.45	362.78
674.59	433.00
674.73	421.30
674.87	416.62
675.01	472.79
675.15	437.68
675.29	369.80
675.43	430.66
675.56	451.72
675.70	416.62
675.84	353.42
675.98	416.62
676.12	472.79
676.26	442.36
676.40	341.72
676.54	383.85
676.68	444.70
676.82	444.70
676.96	395.55
677.10	458.74
677.23	397.89
677.37	435.34
677.51	374.49
677.65	493.85
677.79	386.19
677.93	437.68
678.07	430.66
678.21	451.72
678.34	440.02
678.48	409.59
678.62	475.13
678.76	416.62
678.90	430.66
679.04	421.30
679.18	430.66
679.31	421.30
679.45	388.53
679.59	379.17
679.73	383.85
679.87	404.91
680.00	381.51
680.14	440.02
680.28	383.85
680.42	442.36
680.56	519.60
680.70	369.80
680.83	344.06
680.97	402.57
681.11	369.80
681.25	430.66
681.39	435.34
681.52	383.85
681.66	409.59
681.80	493.85
681.94	440.02
682.07	334.70
682.21	358.10
682.35	337.04
682.49	463.43
682.62	433.00
682.76	388.53
682.90	463.43
683.04	374.49
683.17	440.02
683.31	411.93
683.45	425.98
683.59	433.00
683.72	383.85
683.86	451.72
684.00	397.89
684.13	461.09
684.27	421.30
684.41	479.81
684.55	456.40
684.68	376.83
684.82	428.32
684.96	416.62
685.09	390.87
685.23	416.62
685.37	430.66
685.50	404.91
685.64	374.49
685.78	484.49
685.91	433.00
686.05	402.57
686.19	444.70
686.32	411.93
686.46	449.38
686.60	374.49
686.73	486.83
686.87	461.09
687.01	402.57
687.14	409.59
687.28	397.89
687.42	428.32
687.55	383.85
687.69	418.96
687.82	449.38
687.96	479.81
688.10	372.15
688.23	395.55
688.37	472.79
688.50	437.68
688.64	379.17
688.78	360.44
688.91	416.62
689.05	395.55
689.18	365.12
689.32	414.27
689.46	390.87
689.59	430.66
689.73	390.87
689.86	400.23
690.00	390.87
690.13	376.83
690.27	461.09
690.41	346.40
690.54	395.55
690.68	421.30
690.81	409.59
690.95	418.96
691.08	404.91
691.22	407.25
691.35	433.00
691.49	428.32
691.62	428.32
691.76	451.72
691.89	437.68
692.03	440.02
692.16	341.72
692.30	437.68
692.43	400.23
692.57	381.51
692.70	447.04
692.84	491.51
692.97	458.74
693.11	425.98
693.24	379.17
693.38	456.40
693.51	400.23
693.65	400.23
693.78	400.23
693.92	404.91
694.05	421.30
694.19	475.13
694.32	418.96
694.45	369.80
694.59	409.59
694.72	360.44
694.86	404.91
694.99	461.09
695.13	372.15
695.26	470.45
695.39	428.32
695.53	468.11
695.66	418.96
695.80	418.96
695.93	472.79
696.07	376.83
696.20	372.15
696.33	425.98
696.47	339.38
696.60	423.64
696.73	437.68
696.87	388.53
697.00	463.43
697.14	479.81
697.27	463.43
697.40	411.93
697.54	404.91
697.67	376.83
697.80	472.79
697.94	390.87
698.07	479.81
698.21	393.21
698.34	425.98
698.47	423.64
698.61	379.17
698.74	351.08
698.87	416.62
699.01	456.40
699.14	393.21
699.27	386.19
699.40	454.06
699.54	442.36
699.67	437.68
699.80	404.91
699.94	404.91
700.07	409.59
700.20	433.00
700.34	339.38
700.47	379.17
700.60	332.36
700.73	421.30
700.87	428.32
701.00	423.64
701.13	395.55
701.26	369.80
701.40	416.62
701.53	400.23
701.66	381.51
701.79	425.98
701.93	486.83
702.06	447.04
702.19	414.27
702.32	365.12
702.46	383.85
702.59	472.79
702.72	447.04
702.85	442.36
702.99	449.38
703.12	484.49
703.25	447.04
703.38	353.42
703.51	454.06
703.65	362.78
703.78	435.34
703.91	425.98
704.04	454.06
704.17	458.74
704.31	425.98
704.44	421.30
704.57	475.13
704.70	418.96
704.83	367.46
704.96	451.72
705.10	393.21
705.23	383.85
>>>>>End Processed Spectral Data<<<<<
