SpectraSuite Data File
++++++++++++++++++++++++++++++++++++
Date: Fri Oct 25 12:10:53 EDT 2013
User: price-jones
Dark Spectrum Present: No
Reference Spectrum Present: No
Number of Sampled Component Spectra: 1
Spectrometers: USB2+H05261
Integration Time (usec): 100000 (USB2+H05261)
Spectra Averaged: 1 (USB2+H05261)
Boxcar Smoothing: 0 (USB2+H05261)
Correct for Electrical Dark: No (USB2+H05261)
Strobe/Lamp Enabled: No (USB2+H05261)
Correct for Detector Non-linearity: No (USB2+H05261)
Correct for Stray Light: No (USB2+H05261)
Number of Pixels in Processed Spectrum: 2048
>>>>>Begin Processed Spectral Data<<<<<
365.73	283.20
365.92	283.20
366.12	283.20
366.32	250.44
366.52	241.08
366.72	201.29
366.91	231.71
367.11	297.25
367.31	243.42
367.51	222.35
367.70	177.88
367.90	306.61
368.10	327.68
368.30	198.95
368.49	234.05
368.69	234.05
368.89	276.18
369.09	245.76
369.28	290.23
369.48	308.95
369.68	325.33
369.87	304.27
370.07	313.63
370.27	390.87
370.47	304.27
370.66	320.65
370.86	327.68
371.06	411.93
371.25	433.00
371.45	409.59
371.65	379.17
371.84	428.32
372.04	334.70
372.24	374.49
372.44	395.55
372.63	397.89
372.83	425.98
373.03	475.13
373.22	297.25
373.42	395.55
373.62	423.64
373.81	482.15
374.01	395.55
374.21	407.25
374.40	472.79
374.60	482.15
374.79	437.68
374.99	379.17
375.19	402.57
375.38	451.72
375.58	444.70
375.78	411.93
375.97	400.23
376.17	447.04
376.37	393.21
376.56	402.57
376.76	374.49
376.95	409.59
377.15	421.30
377.35	456.40
377.54	348.74
377.74	372.15
377.93	390.87
378.13	402.57
378.33	503.22
378.52	388.53
378.72	402.57
378.91	337.04
379.11	397.89
379.31	416.62
379.50	327.68
379.70	440.02
379.89	381.51
380.09	358.10
380.28	388.53
380.48	428.32
380.68	376.83
380.87	390.87
381.07	416.62
381.26	397.89
381.46	376.83
381.65	376.83
381.85	423.64
382.04	430.66
382.24	442.36
382.43	372.15
382.63	444.70
382.83	313.63
383.02	430.66
383.22	402.57
383.41	430.66
383.61	374.49
383.80	369.80
384.00	393.21
384.19	421.30
384.39	430.66
384.58	475.13
384.78	393.21
384.97	374.49
385.17	454.06
385.36	386.19
385.56	437.68
385.75	369.80
385.95	449.38
386.14	414.27
386.34	360.44
386.53	470.45
386.72	472.79
386.92	414.27
387.11	440.02
387.31	465.77
387.50	390.87
387.70	353.42
387.89	330.02
388.09	390.87
388.28	400.23
388.48	407.25
388.67	386.19
388.86	400.23
389.06	388.53
389.25	430.66
389.45	379.17
389.64	325.33
389.84	407.25
390.03	409.59
390.22	379.17
390.42	407.25
390.61	411.93
390.81	407.25
391.00	374.49
391.19	386.19
391.39	423.64
391.58	388.53
391.78	407.25
391.97	383.85
392.16	423.64
392.36	395.55
392.55	430.66
392.75	402.57
392.94	444.70
393.13	351.08
393.33	407.25
393.52	369.80
393.71	423.64
393.91	409.59
394.10	379.17
394.29	362.78
394.49	360.44
394.68	423.64
394.88	437.68
395.07	442.36
395.26	407.25
395.46	404.91
395.65	425.98
395.84	390.87
396.04	470.45
396.23	484.49
396.42	458.74
396.62	374.49
396.81	416.62
397.00	372.15
397.19	344.06
397.39	451.72
397.58	435.34
397.77	442.36
397.97	425.98
398.16	397.89
398.35	395.55
398.55	437.68
398.74	365.12
398.93	416.62
399.12	397.89
399.32	444.70
399.51	395.55
399.70	400.23
399.90	418.96
400.09	451.72
400.28	416.62
400.47	367.46
400.67	433.00
400.86	449.38
401.05	414.27
401.24	416.62
401.44	442.36
401.63	407.25
401.82	353.42
402.01	372.15
402.21	360.44
402.40	428.32
402.59	479.81
402.78	397.89
402.97	458.74
403.17	404.91
403.36	360.44
403.55	381.51
403.74	402.57
403.93	379.17
404.13	365.12
404.32	437.68
404.51	407.25
404.70	447.04
404.89	360.44
405.09	430.66
405.28	411.93
405.47	456.40
405.66	440.02
405.85	519.60
406.05	383.85
406.24	369.80
406.43	463.43
406.62	421.30
406.81	337.04
407.00	397.89
407.20	425.98
407.39	444.70
407.58	376.83
407.77	404.91
407.96	400.23
408.15	388.53
408.34	465.77
408.54	433.00
408.73	449.38
408.92	449.38
409.11	463.43
409.30	425.98
409.49	440.02
409.68	327.68
409.87	421.30
410.07	362.78
410.26	416.62
410.45	374.49
410.64	418.96
410.83	447.04
411.02	367.46
411.21	461.09
411.40	369.80
411.59	367.46
411.78	428.32
411.98	400.23
412.17	376.83
412.36	388.53
412.55	339.38
412.74	365.12
412.93	414.27
413.12	388.53
413.31	470.45
413.50	444.70
413.69	425.98
413.88	470.45
414.07	430.66
414.26	383.85
414.45	519.60
414.64	369.80
414.83	447.04
415.02	486.83
415.22	376.83
415.41	451.72
415.60	411.93
415.79	447.04
415.98	437.68
416.17	493.85
416.36	325.33
416.55	365.12
416.74	437.68
416.93	449.38
417.12	393.21
417.31	400.23
417.50	418.96
417.69	447.04
417.88	388.53
418.07	334.70
418.26	433.00
418.45	430.66
418.64	454.06
418.83	376.83
419.02	430.66
419.21	393.21
419.39	365.12
419.58	346.40
419.77	435.34
419.96	339.38
420.15	416.62
420.34	498.53
420.53	416.62
420.72	390.87
420.91	433.00
421.10	390.87
421.29	491.51
421.48	484.49
421.67	440.02
421.86	437.68
422.05	393.21
422.24	449.38
422.43	362.78
422.61	402.57
422.80	372.15
422.99	414.27
423.18	400.23
423.37	433.00
423.56	407.25
423.75	402.57
423.94	390.87
424.13	379.17
424.32	423.64
424.50	365.12
424.69	386.19
424.88	479.81
425.07	409.59
425.26	358.10
425.45	393.21
425.64	409.59
425.83	404.91
426.01	451.72
426.20	418.96
426.39	421.30
426.58	437.68
426.77	456.40
426.96	383.85
427.15	381.51
427.33	472.79
427.52	404.91
427.71	409.59
427.90	407.25
428.09	395.55
428.28	402.57
428.46	330.02
428.65	409.59
428.84	362.78
429.03	454.06
429.22	430.66
429.40	339.38
429.59	383.85
429.78	395.55
429.97	425.98
430.16	451.72
430.34	369.80
430.53	414.27
430.72	393.21
430.91	449.38
431.10	351.08
431.28	414.27
431.47	435.34
431.66	386.19
431.85	400.23
432.03	493.85
432.22	514.92
432.41	423.64
432.60	435.34
432.79	311.29
432.97	360.44
433.16	372.15
433.35	402.57
433.54	376.83
433.72	418.96
433.91	428.32
434.10	381.51
434.28	358.10
434.47	381.51
434.66	404.91
434.85	393.21
435.03	402.57
435.22	493.85
435.41	461.09
435.59	451.72
435.78	421.30
435.97	433.00
436.16	400.23
436.34	479.81
436.53	355.76
436.72	395.55
436.90	437.68
437.09	348.74
437.28	372.15
437.46	425.98
437.65	407.25
437.84	416.62
438.02	358.10
438.21	470.45
438.40	388.53
438.58	390.87
438.77	430.66
438.96	404.91
439.14	381.51
439.33	428.32
439.52	367.46
439.70	433.00
439.89	454.06
440.08	400.23
440.26	411.93
440.45	365.12
440.63	393.21
440.82	454.06
441.01	447.04
441.19	400.23
441.38	425.98
441.57	369.80
441.75	332.36
441.94	428.32
442.12	365.12
442.31	355.76
442.50	367.46
442.68	456.40
442.87	351.08
443.05	374.49
443.24	435.34
443.43	393.21
443.61	507.90
443.80	388.53
443.98	444.70
444.17	409.59
444.35	407.25
444.54	433.00
444.73	351.08
444.91	465.77
445.10	442.36
445.28	376.83
445.47	430.66
445.65	362.78
445.84	362.78
446.02	458.74
446.21	414.27
446.39	369.80
446.58	390.87
446.77	381.51
446.95	346.40
447.14	477.47
447.32	416.62
447.51	456.40
447.69	379.17
447.88	402.57
448.06	465.77
448.25	369.80
448.43	395.55
448.62	388.53
448.80	425.98
448.99	465.77
449.17	461.09
449.36	386.19
449.54	395.55
449.73	402.57
449.91	393.21
450.10	355.76
450.28	470.45
450.46	421.30
450.65	365.12
450.83	376.83
451.02	320.65
451.20	383.85
451.39	348.74
451.57	461.09
451.76	376.83
451.94	383.85
452.13	414.27
452.31	397.89
452.49	414.27
452.68	423.64
452.86	402.57
453.05	411.93
453.23	414.27
453.42	411.93
453.60	390.87
453.78	353.42
453.97	435.34
454.15	395.55
454.34	414.27
454.52	374.49
454.70	463.43
454.89	423.64
455.07	381.51
455.26	472.79
455.44	421.30
455.62	311.29
455.81	393.21
455.99	404.91
456.17	414.27
456.36	348.74
456.54	421.30
456.73	442.36
456.91	376.83
457.09	388.53
457.28	428.32
457.46	339.38
457.64	428.32
457.83	409.59
458.01	461.09
458.19	404.91
458.38	425.98
458.56	409.59
458.74	430.66
458.93	463.43
459.11	386.19
459.29	435.34
459.48	465.77
459.66	442.36
459.84	540.66
460.03	430.66
460.21	407.25
460.39	425.98
460.57	421.30
460.76	381.51
460.94	482.15
461.12	386.19
461.31	393.21
461.49	393.21
461.67	358.10
461.85	397.89
462.04	374.49
462.22	779.40
462.40	465.77
462.59	411.93
462.77	421.30
462.95	374.49
463.13	444.70
463.32	395.55
463.50	397.89
463.68	388.53
463.86	425.98
464.05	411.93
464.23	489.17
464.41	451.72
464.59	341.72
464.78	381.51
464.96	449.38
465.14	390.87
465.32	404.91
465.50	437.68
465.69	400.23
465.87	393.21
466.05	416.62
466.23	458.74
466.41	351.08
466.60	433.00
466.78	341.72
466.96	369.80
467.14	430.66
467.32	416.62
467.51	456.40
467.69	444.70
467.87	442.36
468.05	444.70
468.23	484.49
468.41	454.06
468.60	407.25
468.78	400.23
468.96	411.93
469.14	346.40
469.32	414.27
469.50	430.66
469.69	400.23
469.87	461.09
470.05	421.30
470.23	367.46
470.41	386.19
470.59	367.46
470.77	449.38
470.95	468.11
471.14	423.64
471.32	425.98
471.50	409.59
471.68	390.87
471.86	463.43
472.04	339.38
472.22	348.74
472.40	355.76
472.58	404.91
472.77	449.38
472.95	397.89
473.13	428.32
473.31	472.79
473.49	421.30
473.67	444.70
473.85	421.30
474.03	411.93
474.21	390.87
474.39	383.85
474.57	482.15
474.75	404.91
474.93	390.87
475.12	514.92
475.30	451.72
475.48	400.23
475.66	395.55
475.84	421.30
476.02	425.98
476.20	512.58
476.38	447.04
476.56	430.66
476.74	458.74
476.92	327.68
477.10	479.81
477.28	433.00
477.46	374.49
477.64	397.89
477.82	465.77
478.00	386.19
478.18	411.93
478.36	365.12
478.54	400.23
478.72	388.53
478.90	376.83
479.08	425.98
479.26	440.02
479.44	430.66
479.62	386.19
479.80	376.83
479.98	374.49
480.16	386.19
480.34	397.89
480.52	411.93
480.70	390.87
480.88	416.62
481.06	421.30
481.24	367.46
481.41	379.17
481.59	440.02
481.77	423.64
481.95	360.44
482.13	440.02
482.31	372.15
482.49	482.15
482.67	514.92
482.85	423.64
483.03	374.49
483.21	430.66
483.39	433.00
483.57	411.93
483.74	461.09
483.92	472.79
484.10	449.38
484.28	421.30
484.46	514.92
484.64	390.87
484.82	409.59
485.00	421.30
485.18	442.36
485.35	346.40
485.53	437.68
485.71	367.46
485.89	430.66
486.07	433.00
486.25	435.34
486.43	423.64
486.61	444.70
486.78	430.66
486.96	468.11
487.14	388.53
487.32	400.23
487.50	315.97
487.68	395.55
487.85	379.17
488.03	470.45
488.21	440.02
488.39	461.09
488.57	418.96
488.75	353.42
488.92	547.69
489.10	365.12
489.28	484.49
489.46	395.55
489.64	409.59
489.81	416.62
489.99	451.72
490.17	411.93
490.35	475.13
490.53	369.80
490.70	407.25
490.88	433.00
491.06	423.64
491.24	416.62
491.41	400.23
491.59	395.55
491.77	428.32
491.95	468.11
492.13	433.00
492.30	362.78
492.48	425.98
492.66	470.45
492.84	468.11
493.01	447.04
493.19	395.55
493.37	444.70
493.54	430.66
493.72	449.38
493.90	475.13
494.08	479.81
494.25	449.38
494.43	437.68
494.61	348.74
494.79	444.70
494.96	428.32
495.14	402.57
495.32	402.57
495.49	407.25
495.67	451.72
495.85	421.30
496.02	400.23
496.20	344.06
496.38	433.00
496.55	416.62
496.73	381.51
496.91	461.09
497.09	395.55
497.26	393.21
497.44	416.62
497.62	395.55
497.79	414.27
497.97	386.19
498.14	449.38
498.32	418.96
498.50	475.13
498.67	402.57
498.85	461.09
499.03	390.87
499.20	440.02
499.38	421.30
499.56	383.85
499.73	414.27
499.91	484.49
500.08	456.40
500.26	407.25
500.44	435.34
500.61	348.74
500.79	395.55
500.97	416.62
501.14	482.15
501.32	477.47
501.49	402.57
501.67	454.06
501.84	369.80
502.02	397.89
502.20	404.91
502.37	388.53
502.55	451.72
502.72	472.79
502.90	367.46
503.07	376.83
503.25	390.87
503.43	393.21
503.60	402.57
503.78	458.74
503.95	400.23
504.13	451.72
504.30	440.02
504.48	458.74
504.65	458.74
504.83	402.57
505.01	416.62
505.18	425.98
505.36	468.11
505.53	409.59
505.71	334.70
505.88	472.79
506.06	348.74
506.23	454.06
506.41	425.98
506.58	491.51
506.76	404.91
506.93	365.12
507.11	395.55
507.28	353.42
507.46	365.12
507.63	456.40
507.81	397.89
507.98	393.21
508.16	407.25
508.33	390.87
508.50	341.72
508.68	442.36
508.85	442.36
509.03	416.62
509.20	454.06
509.38	428.32
509.55	353.42
509.73	421.30
509.90	451.72
510.08	458.74
510.25	449.38
510.42	433.00
510.60	341.72
510.77	421.30
510.95	444.70
511.12	416.62
511.30	468.11
511.47	423.64
511.64	465.77
511.82	449.38
511.99	456.40
512.17	409.59
512.34	416.62
512.51	407.25
512.69	416.62
512.86	393.21
513.04	397.89
513.21	344.06
513.38	423.64
513.56	386.19
513.73	435.34
513.90	437.68
514.08	416.62
514.25	397.89
514.43	430.66
514.60	440.02
514.77	470.45
514.95	409.59
515.12	404.91
515.29	475.13
515.47	433.00
515.64	456.40
515.81	456.40
515.99	472.79
516.16	416.62
516.33	383.85
516.51	428.32
516.68	379.17
516.85	468.11
517.03	390.87
517.20	428.32
517.37	386.19
517.54	472.79
517.72	430.66
517.89	463.43
518.06	428.32
518.24	409.59
518.41	451.72
518.58	437.68
518.75	360.44
518.93	421.30
519.10	447.04
519.27	393.21
519.45	404.91
519.62	468.11
519.79	423.64
519.96	402.57
520.14	386.19
520.31	447.04
520.48	367.46
520.65	407.25
520.83	484.49
521.00	379.17
521.17	463.43
521.34	421.30
521.52	390.87
521.69	428.32
521.86	374.49
522.03	416.62
522.20	491.51
522.38	496.19
522.55	397.89
522.72	409.59
522.89	421.30
523.07	418.96
523.24	390.87
523.41	447.04
523.58	411.93
523.75	447.04
523.92	428.32
524.10	362.78
524.27	489.17
524.44	414.27
524.61	461.09
524.78	440.02
524.96	447.04
525.13	393.21
525.30	491.51
525.47	449.38
525.64	367.46
525.81	486.83
525.98	461.09
526.16	379.17
526.33	404.91
526.50	383.85
526.67	379.17
526.84	383.85
527.01	430.66
527.18	449.38
527.36	381.51
527.53	395.55
527.70	477.47
527.87	418.96
528.04	461.09
528.21	416.62
528.38	418.96
528.55	447.04
528.72	425.98
528.89	435.34
529.07	341.72
529.24	425.98
529.41	390.87
529.58	400.23
529.75	465.77
529.92	358.10
530.09	351.08
530.26	428.32
530.43	339.38
530.60	407.25
530.77	360.44
530.94	416.62
531.11	393.21
531.28	379.17
531.46	383.85
531.63	376.83
531.80	435.34
531.97	468.11
532.14	451.72
532.31	425.98
532.48	393.21
532.65	454.06
532.82	395.55
532.99	395.55
533.16	442.36
533.33	493.85
533.50	451.72
533.67	416.62
533.84	454.06
534.01	397.89
534.18	479.81
534.35	362.78
534.52	414.27
534.69	421.30
534.86	465.77
535.03	454.06
535.20	374.49
535.37	411.93
535.54	411.93
535.71	407.25
535.88	372.15
536.05	414.27
536.22	393.21
536.38	428.32
536.55	465.77
536.72	458.74
536.89	365.12
537.06	454.06
537.23	428.32
537.40	421.30
537.57	400.23
537.74	479.81
537.91	414.27
538.08	444.70
538.25	418.96
538.42	379.17
538.59	416.62
538.75	404.91
538.92	362.78
539.09	454.06
539.26	404.91
539.43	461.09
539.60	437.68
539.77	381.51
539.94	500.87
540.11	418.96
540.28	491.51
540.44	472.79
540.61	414.27
540.78	423.64
540.95	360.44
541.12	428.32
541.29	386.19
541.46	458.74
541.62	461.09
541.79	461.09
541.96	458.74
542.13	442.36
542.30	386.19
542.47	402.57
542.63	421.30
542.80	458.74
542.97	360.44
543.14	369.80
543.31	428.32
543.48	414.27
543.64	425.98
543.81	447.04
543.98	395.55
544.15	456.40
544.32	440.02
544.48	416.62
544.65	430.66
544.82	351.08
544.99	428.32
545.16	402.57
545.32	397.89
545.49	444.70
545.66	433.00
545.83	423.64
546.00	367.46
546.16	428.32
546.33	416.62
546.50	407.25
546.67	421.30
546.83	402.57
547.00	477.47
547.17	447.04
547.34	393.21
547.50	451.72
547.67	423.64
547.84	393.21
548.00	444.70
548.17	437.68
548.34	395.55
548.51	409.59
548.67	454.06
548.84	416.62
549.01	477.47
549.18	372.15
549.34	355.76
549.51	454.06
549.68	433.00
549.84	479.81
550.01	421.30
550.18	442.36
550.34	461.09
550.51	442.36
550.68	440.02
550.84	393.21
551.01	400.23
551.18	409.59
551.34	440.02
551.51	456.40
551.68	458.74
551.84	393.21
552.01	418.96
552.18	433.00
552.34	449.38
552.51	409.59
552.68	400.23
552.84	367.46
553.01	423.64
553.18	421.30
553.34	416.62
553.51	489.17
553.67	414.27
553.84	383.85
554.01	425.98
554.17	416.62
554.34	311.29
554.51	393.21
554.67	411.93
554.84	416.62
555.00	400.23
555.17	404.91
555.33	397.89
555.50	461.09
555.67	430.66
555.83	428.32
556.00	430.66
556.16	519.60
556.33	458.74
556.50	472.79
556.66	454.06
556.83	463.43
556.99	374.49
557.16	404.91
557.32	397.89
557.49	433.00
557.65	428.32
557.82	421.30
557.98	306.61
558.15	454.06
558.32	447.04
558.48	442.36
558.65	407.25
558.81	416.62
558.98	390.87
559.14	404.91
559.31	411.93
559.47	433.00
559.64	341.72
559.80	418.96
559.97	376.83
560.13	395.55
560.30	468.11
560.46	376.83
560.63	547.69
560.79	449.38
560.96	489.17
561.12	386.19
561.29	458.74
561.45	374.49
561.61	491.51
561.78	397.89
561.94	372.15
562.11	360.44
562.27	416.62
562.44	447.04
562.60	346.40
562.77	376.83
562.93	472.79
563.10	447.04
563.26	379.17
563.42	425.98
563.59	440.02
563.75	418.96
563.92	416.62
564.08	418.96
564.24	477.47
564.41	468.11
564.57	423.64
564.74	465.77
564.90	493.85
565.07	479.81
565.23	444.70
565.39	418.96
565.56	435.34
565.72	369.80
565.88	369.80
566.05	418.96
566.21	465.77
566.38	435.34
566.54	468.11
566.70	404.91
566.87	369.80
567.03	341.72
567.19	482.15
567.36	421.30
567.52	397.89
567.68	440.02
567.85	411.93
568.01	395.55
568.17	414.27
568.34	397.89
568.50	465.77
568.66	414.27
568.83	423.64
568.99	397.89
569.15	442.36
569.32	407.25
569.48	444.70
569.64	407.25
569.81	472.79
569.97	442.36
570.13	423.64
570.30	456.40
570.46	383.85
570.62	465.77
570.78	414.27
570.95	386.19
571.11	411.93
571.27	507.90
571.43	442.36
571.60	397.89
571.76	437.68
571.92	428.32
572.09	514.92
572.25	388.53
572.41	484.49
572.57	388.53
572.74	451.72
572.90	428.32
573.06	358.10
573.22	458.74
573.38	454.06
573.55	435.34
573.71	472.79
573.87	344.06
574.03	505.56
574.20	496.19
574.36	463.43
574.52	430.66
574.68	447.04
574.84	470.45
575.01	461.09
575.17	465.77
575.33	358.10
575.49	425.98
575.65	458.74
575.82	355.76
575.98	440.02
576.14	411.93
576.30	437.68
576.46	435.34
576.62	390.87
576.79	421.30
576.95	489.17
577.11	433.00
577.27	416.62
577.43	498.53
577.59	423.64
577.75	461.09
577.92	409.59
578.08	470.45
578.24	393.21
578.40	437.68
578.56	447.04
578.72	386.19
578.88	407.25
579.04	395.55
579.21	381.51
579.37	381.51
579.53	430.66
579.69	383.85
579.85	369.80
580.01	428.32
580.17	367.46
580.33	465.77
580.49	348.74
580.65	447.04
580.82	369.80
580.98	465.77
581.14	425.98
581.30	423.64
581.46	421.30
581.62	379.17
581.78	428.32
581.94	425.98
582.10	433.00
582.26	353.42
582.42	383.85
582.58	388.53
582.74	355.76
582.90	386.19
583.06	447.04
583.22	360.44
583.38	351.08
583.54	430.66
583.70	442.36
583.86	484.49
584.02	472.79
584.18	414.27
584.34	430.66
584.50	418.96
584.66	444.70
584.82	458.74
584.98	477.47
585.14	379.17
585.30	418.96
585.46	454.06
585.62	411.93
585.78	416.62
585.94	416.62
586.10	402.57
586.26	407.25
586.42	458.74
586.58	444.70
586.74	362.78
586.90	433.00
587.06	400.23
587.22	411.93
587.38	397.89
587.54	444.70
587.70	421.30
587.86	388.53
588.02	407.25
588.18	390.87
588.34	428.32
588.49	418.96
588.65	442.36
588.81	416.62
588.97	411.93
589.13	421.30
589.29	374.49
589.45	367.46
589.61	423.64
589.77	435.34
589.93	437.68
590.08	397.89
590.24	465.77
590.40	416.62
590.56	454.06
590.72	475.13
590.88	388.53
591.04	400.23
591.20	430.66
591.35	435.34
591.51	418.96
591.67	428.32
591.83	423.64
591.99	463.43
592.15	447.04
592.31	475.13
592.46	404.91
592.62	470.45
592.78	355.76
592.94	400.23
593.10	400.23
593.26	365.12
593.41	465.77
593.57	411.93
593.73	458.74
593.89	475.13
594.05	418.96
594.20	402.57
594.36	374.49
594.52	404.91
594.68	414.27
594.84	386.19
594.99	510.24
595.15	418.96
595.31	397.89
595.47	514.92
595.62	454.06
595.78	442.36
595.94	409.59
596.10	362.78
596.25	388.53
596.41	402.57
596.57	456.40
596.73	447.04
596.88	423.64
597.04	372.15
597.20	360.44
597.36	451.72
597.51	337.04
597.67	507.90
597.83	313.63
597.99	404.91
598.14	332.36
598.30	404.91
598.46	496.19
598.61	402.57
598.77	393.21
598.93	465.77
599.09	416.62
599.24	437.68
599.40	440.02
599.56	404.91
599.71	454.06
599.87	491.51
600.03	402.57
600.18	433.00
600.34	381.51
600.50	407.25
600.65	353.42
600.81	451.72
600.97	369.80
601.12	376.83
601.28	482.15
601.44	472.79
601.59	479.81
601.75	421.30
601.91	374.49
602.06	447.04
602.22	393.21
602.37	451.72
602.53	468.11
602.69	451.72
602.84	440.02
603.00	414.27
603.16	458.74
603.31	430.66
603.47	437.68
603.62	388.53
603.78	400.23
603.94	454.06
604.09	451.72
604.25	470.45
604.40	433.00
604.56	346.40
604.71	381.51
604.87	430.66
605.03	369.80
605.18	468.11
605.34	416.62
605.49	461.09
605.65	400.23
605.80	428.32
605.96	397.89
606.12	444.70
606.27	447.04
606.43	421.30
606.58	374.49
606.74	369.80
606.89	444.70
607.05	444.70
607.20	381.51
607.36	430.66
607.51	456.40
607.67	433.00
607.82	433.00
607.98	437.68
608.13	440.02
608.29	393.21
608.44	383.85
608.60	400.23
608.75	440.02
608.91	418.96
609.06	433.00
609.22	397.89
609.37	381.51
609.53	381.51
609.68	362.78
609.84	388.53
609.99	435.34
610.15	341.72
610.30	383.85
610.46	475.13
610.61	397.89
610.76	409.59
610.92	468.11
611.07	463.43
611.23	470.45
611.38	472.79
611.54	360.44
611.69	360.44
611.84	365.12
612.00	435.34
612.15	393.21
612.31	496.19
612.46	374.49
612.62	393.21
612.77	390.87
612.92	425.98
613.08	496.19
613.23	458.74
613.39	409.59
613.54	388.53
613.69	400.23
613.85	381.51
614.00	409.59
614.15	362.78
614.31	430.66
614.46	442.36
614.62	379.17
614.77	428.32
614.92	475.13
615.08	409.59
615.23	411.93
615.38	411.93
615.54	463.43
615.69	442.36
615.84	397.89
616.00	402.57
616.15	383.85
616.30	433.00
616.46	437.68
616.61	376.83
616.76	421.30
616.92	458.74
617.07	374.49
617.22	404.91
617.37	374.49
617.53	418.96
617.68	442.36
617.83	428.32
617.99	468.11
618.14	458.74
618.29	404.91
618.45	397.89
618.60	402.57
618.75	390.87
618.90	372.15
619.06	437.68
619.21	468.11
619.36	444.70
619.51	421.30
619.67	351.08
619.82	372.15
619.97	332.36
620.12	428.32
620.28	416.62
620.43	397.89
620.58	477.47
620.73	358.10
620.89	437.68
621.04	388.53
621.19	421.30
621.34	397.89
621.49	390.87
621.65	430.66
621.80	458.74
621.95	454.06
622.10	421.30
622.25	337.04
622.41	440.02
622.56	386.19
622.71	421.30
622.86	454.06
623.01	411.93
623.16	418.96
623.32	372.15
623.47	423.64
623.62	418.96
623.77	463.43
623.92	294.91
624.07	388.53
624.23	355.76
624.38	428.32
624.53	461.09
624.68	421.30
624.83	524.28
624.98	393.21
625.13	400.23
625.29	444.70
625.44	360.44
625.59	465.77
625.74	437.68
625.89	390.87
626.04	383.85
626.19	381.51
626.34	421.30
626.49	449.38
626.65	397.89
626.80	421.30
626.95	475.13
627.10	454.06
627.25	433.00
627.40	402.57
627.55	414.27
627.70	390.87
627.85	425.98
628.00	362.78
628.15	390.87
628.30	454.06
628.45	390.87
628.60	390.87
628.76	414.27
628.91	484.49
629.06	470.45
629.21	402.57
629.36	393.21
629.51	458.74
629.66	383.85
629.81	414.27
629.96	430.66
630.11	402.57
630.26	418.96
630.41	430.66
630.56	390.87
630.71	351.08
630.86	358.10
631.01	423.64
631.16	414.27
631.31	528.96
631.46	468.11
631.61	416.62
631.76	414.27
631.91	416.62
632.06	425.98
632.21	496.19
632.36	400.23
632.51	365.12
632.66	372.15
632.81	395.55
632.96	416.62
633.10	393.21
633.25	430.66
633.40	447.04
633.55	390.87
633.70	449.38
633.85	327.68
634.00	435.34
634.15	383.85
634.30	411.93
634.45	435.34
634.60	479.81
634.75	402.57
634.90	390.87
635.05	374.49
635.19	374.49
635.34	376.83
635.49	355.76
635.64	390.87
635.79	414.27
635.94	393.21
636.09	447.04
636.24	433.00
636.39	407.25
636.53	386.19
636.68	383.85
636.83	416.62
636.98	442.36
637.13	430.66
637.28	372.15
637.43	442.36
637.57	393.21
637.72	369.80
637.87	348.74
638.02	425.98
638.17	463.43
638.32	435.34
638.46	435.34
638.61	458.74
638.76	393.21
638.91	376.83
639.06	376.83
639.20	407.25
639.35	430.66
639.50	395.55
639.65	414.27
639.80	374.49
639.94	449.38
640.09	435.34
640.24	404.91
640.39	395.55
640.54	376.83
640.68	374.49
640.83	348.74
640.98	423.64
641.13	395.55
641.27	397.89
641.42	379.17
641.57	444.70
641.72	390.87
641.86	397.89
642.01	395.55
642.16	435.34
642.31	376.83
642.45	414.27
642.60	428.32
642.75	458.74
642.90	449.38
643.04	409.59
643.19	369.80
643.34	442.36
643.48	386.19
643.63	393.21
643.78	379.17
643.93	472.79
644.07	411.93
644.22	435.34
644.37	407.25
644.51	404.91
644.66	369.80
644.81	402.57
644.95	444.70
645.10	339.38
645.25	390.87
645.39	435.34
645.54	411.93
645.69	491.51
645.83	454.06
645.98	528.96
646.13	475.13
646.27	477.47
646.42	454.06
646.57	374.49
646.71	454.06
646.86	379.17
647.00	421.30
647.15	421.30
647.30	374.49
647.44	348.74
647.59	421.30
647.74	374.49
647.88	440.02
648.03	386.19
648.17	479.81
648.32	379.17
648.47	393.21
648.61	477.47
648.76	437.68
648.90	428.32
649.05	388.53
649.20	416.62
649.34	386.19
649.49	395.55
649.63	465.77
649.78	416.62
649.92	470.45
650.07	491.51
650.21	409.59
650.36	376.83
650.51	449.38
650.65	475.13
650.80	428.32
650.94	428.32
651.09	374.49
651.23	418.96
651.38	313.63
651.52	416.62
651.67	390.87
651.81	465.77
651.96	463.43
652.10	430.66
652.25	444.70
652.39	418.96
652.54	423.64
652.68	482.15
652.83	393.21
652.97	472.79
653.12	472.79
653.26	444.70
653.41	421.30
653.55	423.64
653.70	393.21
653.84	383.85
653.99	351.08
654.13	383.85
654.27	365.12
654.42	423.64
654.56	479.81
654.71	444.70
654.85	435.34
655.00	421.30
655.14	409.59
655.29	409.59
655.43	447.04
655.57	430.66
655.72	416.62
655.86	472.79
656.01	416.62
656.15	486.83
656.30	444.70
656.44	372.15
656.58	383.85
656.73	395.55
656.87	430.66
657.01	414.27
657.16	400.23
657.30	386.19
657.45	470.45
657.59	437.68
657.73	379.17
657.88	447.04
658.02	353.42
658.16	416.62
658.31	458.74
658.45	458.74
658.60	393.21
658.74	421.30
658.88	400.23
659.03	465.77
659.17	367.46
659.31	416.62
659.46	402.57
659.60	397.89
659.74	451.72
659.89	351.08
660.03	435.34
660.17	416.62
660.32	416.62
660.46	416.62
660.60	463.43
660.74	428.32
660.89	388.53
661.03	435.34
661.17	376.83
661.32	475.13
661.46	409.59
661.60	444.70
661.74	444.70
661.89	390.87
662.03	360.44
662.17	395.55
662.31	458.74
662.46	425.98
662.60	463.43
662.74	416.62
662.88	407.25
663.03	362.78
663.17	397.89
663.31	425.98
663.45	440.02
663.60	383.85
663.74	379.17
663.88	334.70
664.02	383.85
664.17	390.87
664.31	428.32
664.45	367.46
664.59	454.06
664.73	428.32
664.88	496.19
665.02	425.98
665.16	351.08
665.30	442.36
665.44	407.25
665.59	433.00
665.73	463.43
665.87	379.17
666.01	477.47
666.15	374.49
666.29	402.57
666.44	423.64
666.58	435.34
666.72	505.56
666.86	440.02
667.00	425.98
667.14	402.57
667.28	397.89
667.43	461.09
667.57	400.23
667.71	442.36
667.85	428.32
667.99	360.44
668.13	433.00
668.27	351.08
668.41	475.13
668.56	425.98
668.70	383.85
668.84	301.93
668.98	386.19
669.12	395.55
669.26	440.02
669.40	435.34
669.54	409.59
669.68	433.00
669.82	423.64
669.96	409.59
670.10	477.47
670.25	449.38
670.39	397.89
670.53	435.34
670.67	360.44
670.81	442.36
670.95	461.09
671.09	388.53
671.23	465.77
671.37	416.62
671.51	435.34
671.65	437.68
671.79	433.00
671.93	458.74
672.07	411.93
672.21	470.45
672.35	348.74
672.49	440.02
672.63	456.40
672.77	416.62
672.91	416.62
673.05	416.62
673.19	386.19
673.33	339.38
673.47	421.30
673.61	341.72
673.75	414.27
673.89	418.96
674.03	334.70
674.17	458.74
674.31	397.89
674.45	409.59
674.59	388.53
674.73	458.74
674.87	440.02
675.01	470.45
675.15	451.72
675.29	482.15
675.43	503.22
675.56	421.30
675.70	411.93
675.84	395.55
675.98	404.91
676.12	362.78
676.26	418.96
676.40	400.23
676.54	428.32
676.68	367.46
676.82	407.25
676.96	367.46
677.10	393.21
677.23	440.02
677.37	407.25
677.51	386.19
677.65	468.11
677.79	435.34
677.93	402.57
678.07	379.17
678.21	400.23
678.34	444.70
678.48	376.83
678.62	383.85
678.76	493.85
678.90	404.91
679.04	337.04
679.18	351.08
679.31	407.25
679.45	409.59
679.59	444.70
679.73	437.68
679.87	421.30
680.00	456.40
680.14	440.02
680.28	447.04
680.42	425.98
680.56	411.93
680.70	369.80
680.83	479.81
680.97	381.51
681.11	376.83
681.25	418.96
681.39	461.09
681.52	433.00
681.66	379.17
681.80	456.40
681.94	454.06
682.07	379.17
682.21	454.06
682.35	411.93
682.49	383.85
682.62	395.55
682.76	430.66
682.90	322.99
683.04	400.23
683.17	444.70
683.31	386.19
683.45	318.31
683.59	484.49
683.72	409.59
683.86	444.70
684.00	411.93
684.13	423.64
684.27	407.25
684.41	437.68
684.55	444.70
684.68	496.19
684.82	386.19
684.96	484.49
685.09	423.64
685.23	390.87
685.37	437.68
685.50	437.68
685.64	451.72
685.78	416.62
685.91	376.83
686.05	437.68
686.19	418.96
686.32	433.00
686.46	482.15
686.60	351.08
686.73	435.34
686.87	444.70
687.01	433.00
687.14	425.98
687.28	451.72
687.42	418.96
687.55	461.09
687.69	475.13
687.82	383.85
687.96	416.62
688.10	540.66
688.23	451.72
688.37	449.38
688.50	404.91
688.64	423.64
688.78	430.66
688.91	411.93
689.05	337.04
689.18	456.40
689.32	435.34
689.46	409.59
689.59	437.68
689.73	409.59
689.86	397.89
690.00	390.87
690.13	451.72
690.27	409.59
690.41	442.36
690.54	381.51
690.68	428.32
690.81	451.72
690.95	491.51
691.08	433.00
691.22	348.74
691.35	482.15
691.49	372.15
691.62	402.57
691.76	435.34
691.89	454.06
692.03	407.25
692.16	348.74
692.30	437.68
692.43	435.34
692.57	454.06
692.70	381.51
692.84	411.93
692.97	374.49
693.11	341.72
693.24	411.93
693.38	409.59
693.51	503.22
693.65	435.34
693.78	423.64
693.92	374.49
694.05	397.89
694.19	444.70
694.32	458.74
694.45	390.87
694.59	449.38
694.72	332.36
694.86	404.91
694.99	418.96
695.13	383.85
695.26	451.72
695.39	423.64
695.53	451.72
695.66	470.45
695.80	437.68
695.93	454.06
696.07	418.96
696.20	388.53
696.33	379.17
696.47	358.10
696.60	376.83
696.73	372.15
696.87	379.17
697.00	514.92
697.14	451.72
697.27	449.38
697.40	475.13
697.54	407.25
697.67	428.32
697.80	433.00
697.94	367.46
698.07	435.34
698.21	444.70
698.34	486.83
698.47	463.43
698.61	428.32
698.74	421.30
698.87	423.64
699.01	409.59
699.14	442.36
699.27	458.74
699.40	489.17
699.54	390.87
699.67	353.42
699.80	372.15
699.94	428.32
700.07	489.17
700.20	376.83
700.34	418.96
700.47	442.36
700.60	418.96
700.73	456.40
700.87	428.32
701.00	468.11
701.13	362.78
701.26	425.98
701.40	416.62
701.53	430.66
701.66	414.27
701.79	409.59
701.93	400.23
702.06	468.11
702.19	458.74
702.32	454.06
702.46	365.12
702.59	463.43
702.72	425.98
702.85	442.36
702.99	372.15
703.12	400.23
703.25	428.32
703.38	409.59
703.51	407.25
703.65	348.74
703.78	393.21
703.91	411.93
704.04	358.10
704.17	440.02
704.31	388.53
704.44	400.23
704.57	472.79
704.70	447.04
704.83	409.59
704.96	421.30
705.10	472.79
705.23	327.68
>>>>>End Processed Spectral Data<<<<<
