SpectraSuite Data File
++++++++++++++++++++++++++++++++++++
Date: Fri Oct 25 12:10:57 EDT 2013
User: price-jones
Dark Spectrum Present: No
Reference Spectrum Present: No
Number of Sampled Component Spectra: 1
Spectrometers: USB2+H05261
Integration Time (usec): 100000 (USB2+H05261)
Spectra Averaged: 1 (USB2+H05261)
Boxcar Smoothing: 0 (USB2+H05261)
Correct for Electrical Dark: No (USB2+H05261)
Strobe/Lamp Enabled: No (USB2+H05261)
Correct for Detector Non-linearity: No (USB2+H05261)
Correct for Stray Light: No (USB2+H05261)
Number of Pixels in Processed Spectrum: 2048
>>>>>Begin Processed Spectral Data<<<<<
365.73	369.80
365.92	369.80
366.12	369.80
366.32	234.05
366.52	210.65
366.72	238.73
366.91	229.37
367.11	262.14
367.31	191.92
367.51	215.33
367.70	252.78
367.90	341.72
368.10	189.58
368.30	311.29
368.49	203.63
368.69	236.39
368.89	236.39
369.09	210.65
369.28	252.78
369.48	220.01
369.68	287.89
369.87	367.46
370.07	301.93
370.27	276.18
370.47	276.18
370.66	388.53
370.86	395.55
371.06	358.10
371.25	433.00
371.45	341.72
371.65	386.19
371.84	407.25
372.04	407.25
372.24	381.51
372.44	365.12
372.63	400.23
372.83	383.85
373.03	433.00
373.22	461.09
373.42	407.25
373.62	397.89
373.81	374.49
374.01	454.06
374.21	435.34
374.40	470.45
374.60	479.81
374.79	456.40
374.99	407.25
375.19	372.15
375.38	407.25
375.58	433.00
375.78	414.27
375.97	430.66
376.17	456.40
376.37	411.93
376.56	388.53
376.76	383.85
376.95	388.53
377.15	414.27
377.35	397.89
377.54	390.87
377.74	447.04
377.93	451.72
378.13	454.06
378.33	442.36
378.52	444.70
378.72	430.66
378.91	414.27
379.11	379.17
379.31	416.62
379.50	409.59
379.70	402.57
379.89	451.72
380.09	393.21
380.28	393.21
380.48	404.91
380.68	390.87
380.87	472.79
381.07	383.85
381.26	423.64
381.46	374.49
381.65	465.77
381.85	400.23
382.04	386.19
382.24	376.83
382.43	402.57
382.63	381.51
382.83	351.08
383.02	489.17
383.22	428.32
383.41	325.33
383.61	386.19
383.80	407.25
384.00	451.72
384.19	407.25
384.39	355.76
384.58	437.68
384.78	425.98
384.97	423.64
385.17	423.64
385.36	393.21
385.56	418.96
385.75	383.85
385.95	430.66
386.14	451.72
386.34	418.96
386.53	463.43
386.72	416.62
386.92	442.36
387.11	414.27
387.31	454.06
387.50	322.99
387.70	379.17
387.89	437.68
388.09	402.57
388.28	325.33
388.48	393.21
388.67	418.96
388.86	397.89
389.06	351.08
389.25	381.51
389.45	435.34
389.64	379.17
389.84	379.17
390.03	418.96
390.22	411.93
390.42	360.44
390.61	400.23
390.81	397.89
391.00	393.21
391.19	447.04
391.39	400.23
391.58	358.10
391.78	372.15
391.97	407.25
392.16	463.43
392.36	447.04
392.55	397.89
392.75	386.19
392.94	430.66
393.13	393.21
393.33	437.68
393.52	454.06
393.71	407.25
393.91	423.64
394.10	454.06
394.29	369.80
394.49	397.89
394.68	423.64
394.88	449.38
395.07	442.36
395.26	440.02
395.46	386.19
395.65	428.32
395.84	435.34
396.04	465.77
396.23	442.36
396.42	411.93
396.62	404.91
396.81	458.74
397.00	388.53
397.19	425.98
397.39	423.64
397.58	496.19
397.77	344.06
397.97	381.51
398.16	451.72
398.35	411.93
398.55	400.23
398.74	411.93
398.93	435.34
399.12	390.87
399.32	430.66
399.51	404.91
399.70	489.17
399.90	397.89
400.09	372.15
400.28	470.45
400.47	365.12
400.67	334.70
400.86	430.66
401.05	414.27
401.24	379.17
401.44	383.85
401.63	437.68
401.82	376.83
402.01	425.98
402.21	425.98
402.40	369.80
402.59	456.40
402.78	461.09
402.97	365.12
403.17	411.93
403.36	428.32
403.55	362.78
403.74	425.98
403.93	376.83
404.13	461.09
404.32	414.27
404.51	435.34
404.70	374.49
404.89	355.76
405.09	454.06
405.28	449.38
405.47	337.04
405.66	421.30
405.85	379.17
406.05	400.23
406.24	386.19
406.43	383.85
406.62	428.32
406.81	411.93
407.00	386.19
407.20	386.19
407.39	425.98
407.58	451.72
407.77	414.27
407.96	400.23
408.15	423.64
408.34	421.30
408.54	395.55
408.73	397.89
408.92	397.89
409.11	407.25
409.30	414.27
409.49	437.68
409.68	365.12
409.87	393.21
410.07	400.23
410.26	411.93
410.45	386.19
410.64	447.04
410.83	407.25
411.02	449.38
411.21	444.70
411.40	381.51
411.59	393.21
411.78	428.32
411.98	416.62
412.17	346.40
412.36	428.32
412.55	360.44
412.74	332.36
412.93	428.32
413.12	456.40
413.31	458.74
413.50	416.62
413.69	386.19
413.88	418.96
414.07	437.68
414.26	416.62
414.45	308.95
414.64	374.49
414.83	423.64
415.02	451.72
415.22	456.40
415.41	397.89
415.60	456.40
415.79	395.55
415.98	463.43
416.17	423.64
416.36	458.74
416.55	447.04
416.74	444.70
416.93	498.53
417.12	475.13
417.31	374.49
417.50	407.25
417.69	440.02
417.88	332.36
418.07	395.55
418.26	383.85
418.45	383.85
418.64	390.87
418.83	341.72
419.02	395.55
419.21	407.25
419.39	414.27
419.58	411.93
419.77	358.10
419.96	416.62
420.15	484.49
420.34	411.93
420.53	386.19
420.72	341.72
420.91	433.00
421.10	367.46
421.29	360.44
421.48	395.55
421.67	510.24
421.86	379.17
422.05	346.40
422.24	365.12
422.43	428.32
422.61	374.49
422.80	407.25
422.99	409.59
423.18	402.57
423.37	409.59
423.56	444.70
423.75	390.87
423.94	395.55
424.13	379.17
424.32	393.21
424.50	337.04
424.69	423.64
424.88	372.15
425.07	390.87
425.26	435.34
425.45	395.55
425.64	355.76
425.83	407.25
426.01	397.89
426.20	440.02
426.39	416.62
426.58	369.80
426.77	388.53
426.96	400.23
427.15	299.59
427.33	461.09
427.52	374.49
427.71	397.89
427.90	416.62
428.09	379.17
428.28	409.59
428.46	367.46
428.65	418.96
428.84	414.27
429.03	423.64
429.22	369.80
429.40	388.53
429.59	374.49
429.78	444.70
429.97	409.59
430.16	360.44
430.34	444.70
430.53	416.62
430.72	374.49
430.91	447.04
431.10	433.00
431.28	428.32
431.47	374.49
431.66	414.27
431.85	395.55
432.03	433.00
432.22	484.49
432.41	409.59
432.60	477.47
432.79	414.27
432.97	414.27
433.16	404.91
433.35	395.55
433.54	425.98
433.72	428.32
433.91	463.43
434.10	358.10
434.28	402.57
434.47	358.10
434.66	435.34
434.85	430.66
435.03	433.00
435.22	454.06
435.41	477.47
435.59	395.55
435.78	353.42
435.97	404.91
436.16	395.55
436.34	456.40
436.53	376.83
436.72	458.74
436.90	458.74
437.09	454.06
437.28	493.85
437.46	400.23
437.65	402.57
437.84	367.46
438.02	374.49
438.21	444.70
438.40	423.64
438.58	404.91
438.77	334.70
438.96	404.91
439.14	423.64
439.33	381.51
439.52	365.12
439.70	428.32
439.89	414.27
440.08	458.74
440.26	454.06
440.45	496.19
440.63	369.80
440.82	376.83
441.01	341.72
441.19	416.62
441.38	393.21
441.57	433.00
441.75	484.49
441.94	395.55
442.12	409.59
442.31	430.66
442.50	351.08
442.68	435.34
442.87	362.78
443.05	491.51
443.24	416.62
443.43	367.46
443.61	418.96
443.80	407.25
443.98	423.64
444.17	456.40
444.35	423.64
444.54	388.53
444.73	388.53
444.91	468.11
445.10	348.74
445.28	376.83
445.47	388.53
445.65	409.59
445.84	341.72
446.02	428.32
446.21	416.62
446.39	393.21
446.58	454.06
446.77	395.55
446.95	430.66
447.14	430.66
447.32	479.81
447.51	355.76
447.69	433.00
447.88	447.04
448.06	510.24
448.25	435.34
448.43	372.15
448.62	404.91
448.80	433.00
448.99	374.49
449.17	397.89
449.36	411.93
449.54	428.32
449.73	402.57
449.91	463.43
450.10	332.36
450.28	414.27
450.46	407.25
450.65	416.62
450.83	348.74
451.02	440.02
451.20	451.72
451.39	383.85
451.57	376.83
451.76	369.80
451.94	484.49
452.13	472.79
452.31	395.55
452.49	489.17
452.68	418.96
452.86	472.79
453.05	416.62
453.23	425.98
453.42	381.51
453.60	404.91
453.78	334.70
453.97	390.87
454.15	383.85
454.34	376.83
454.52	437.68
454.70	451.72
454.89	402.57
455.07	393.21
455.26	414.27
455.44	454.06
455.62	411.93
455.81	367.46
455.99	388.53
456.17	313.63
456.36	407.25
456.54	451.72
456.73	337.04
456.91	447.04
457.09	411.93
457.28	500.87
457.46	360.44
457.64	463.43
457.83	423.64
458.01	393.21
458.19	404.91
458.38	425.98
458.56	397.89
458.74	437.68
458.93	470.45
459.11	383.85
459.29	322.99
459.48	320.65
459.66	402.57
459.84	468.11
460.03	465.77
460.21	365.12
460.39	397.89
460.57	456.40
460.76	418.96
460.94	418.96
461.12	430.66
461.31	411.93
461.49	430.66
461.67	400.23
461.85	402.57
462.04	404.91
462.22	706.84
462.40	409.59
462.59	416.62
462.77	339.38
462.95	390.87
463.13	294.91
463.32	383.85
463.50	458.74
463.68	397.89
463.86	428.32
464.05	411.93
464.23	449.38
464.41	383.85
464.59	390.87
464.78	344.06
464.96	322.99
465.14	383.85
465.32	327.68
465.50	381.51
465.69	421.30
465.87	397.89
466.05	383.85
466.23	397.89
466.41	407.25
466.60	414.27
466.78	458.74
466.96	428.32
467.14	451.72
467.32	379.17
467.51	475.13
467.69	461.09
467.87	435.34
468.05	362.78
468.23	456.40
468.41	456.40
468.60	435.34
468.78	468.11
468.96	489.17
469.14	402.57
469.32	393.21
469.50	433.00
469.69	440.02
469.87	397.89
470.05	421.30
470.23	404.91
470.41	418.96
470.59	435.34
470.77	449.38
470.95	456.40
471.14	428.32
471.32	435.34
471.50	367.46
471.68	388.53
471.86	463.43
472.04	402.57
472.22	339.38
472.40	393.21
472.58	383.85
472.77	276.18
472.95	421.30
473.13	404.91
473.31	395.55
473.49	325.33
473.67	416.62
473.85	456.40
474.03	330.02
474.21	355.76
474.39	425.98
474.57	442.36
474.75	409.59
474.93	351.08
475.12	440.02
475.30	437.68
475.48	397.89
475.66	451.72
475.84	430.66
476.02	358.10
476.20	414.27
476.38	355.76
476.56	407.25
476.74	475.13
476.92	414.27
477.10	395.55
477.28	468.11
477.46	447.04
477.64	479.81
477.82	341.72
478.00	437.68
478.18	430.66
478.36	423.64
478.54	430.66
478.72	393.21
478.90	407.25
479.08	414.27
479.26	383.85
479.44	402.57
479.62	437.68
479.80	440.02
479.98	393.21
480.16	379.17
480.34	409.59
480.52	484.49
480.70	400.23
480.88	369.80
481.06	383.85
481.24	372.15
481.41	355.76
481.59	442.36
481.77	388.53
481.95	414.27
482.13	489.17
482.31	411.93
482.49	416.62
482.67	442.36
482.85	484.49
483.03	397.89
483.21	470.45
483.39	463.43
483.57	425.98
483.74	454.06
483.92	498.53
484.10	433.00
484.28	451.72
484.46	393.21
484.64	313.63
484.82	400.23
485.00	484.49
485.18	402.57
485.35	449.38
485.53	341.72
485.71	358.10
485.89	365.12
486.07	346.40
486.25	435.34
486.43	416.62
486.61	390.87
486.78	468.11
486.96	346.40
487.14	388.53
487.32	416.62
487.50	341.72
487.68	428.32
487.85	372.15
488.03	395.55
488.21	423.64
488.39	404.91
488.57	355.76
488.75	444.70
488.92	500.87
489.10	341.72
489.28	374.49
489.46	383.85
489.64	400.23
489.81	397.89
489.99	428.32
490.17	376.83
490.35	407.25
490.53	346.40
490.70	393.21
490.88	344.06
491.06	442.36
491.24	472.79
491.41	486.83
491.59	442.36
491.77	411.93
491.95	376.83
492.13	425.98
492.30	381.51
492.48	388.53
492.66	409.59
492.84	362.78
493.01	458.74
493.19	376.83
493.37	411.93
493.54	374.49
493.72	454.06
493.90	355.76
494.08	444.70
494.25	456.40
494.43	475.13
494.61	402.57
494.79	395.55
494.96	397.89
495.14	404.91
495.32	395.55
495.49	386.19
495.67	484.49
495.85	451.72
496.02	411.93
496.20	449.38
496.38	411.93
496.55	435.34
496.73	404.91
496.91	372.15
497.09	395.55
497.26	397.89
497.44	388.53
497.62	348.74
497.79	414.27
497.97	353.42
498.14	369.80
498.32	444.70
498.50	437.68
498.67	388.53
498.85	470.45
499.03	346.40
499.20	383.85
499.38	437.68
499.56	348.74
499.73	454.06
499.91	393.21
500.08	388.53
500.26	456.40
500.44	472.79
500.61	484.49
500.79	379.17
500.97	425.98
501.14	428.32
501.32	447.04
501.49	489.17
501.67	369.80
501.84	470.45
502.02	421.30
502.20	444.70
502.37	456.40
502.55	435.34
502.72	437.68
502.90	330.02
503.07	374.49
503.25	402.57
503.43	411.93
503.60	369.80
503.78	461.09
503.95	421.30
504.13	383.85
504.30	395.55
504.48	444.70
504.65	381.51
504.83	461.09
505.01	332.36
505.18	402.57
505.36	421.30
505.53	397.89
505.71	430.66
505.88	454.06
506.06	414.27
506.23	444.70
506.41	484.49
506.58	409.59
506.76	407.25
506.93	337.04
507.11	402.57
507.28	407.25
507.46	393.21
507.63	447.04
507.81	381.51
507.98	416.62
508.16	411.93
508.33	341.72
508.50	451.72
508.68	414.27
508.85	372.15
509.03	339.38
509.20	418.96
509.38	465.77
509.55	388.53
509.73	402.57
509.90	430.66
510.08	395.55
510.25	430.66
510.42	442.36
510.60	381.51
510.77	423.64
510.95	451.72
511.12	425.98
511.30	444.70
511.47	430.66
511.64	409.59
511.82	400.23
511.99	367.46
512.17	374.49
512.34	472.79
512.51	409.59
512.69	447.04
512.86	440.02
513.04	365.12
513.21	372.15
513.38	386.19
513.56	477.47
513.73	468.11
513.90	379.17
514.08	447.04
514.25	444.70
514.43	409.59
514.60	390.87
514.77	451.72
514.95	447.04
515.12	367.46
515.29	430.66
515.47	379.17
515.64	372.15
515.81	351.08
515.99	388.53
516.16	486.83
516.33	421.30
516.51	451.72
516.68	390.87
516.85	411.93
517.03	386.19
517.20	428.32
517.37	472.79
517.54	416.62
517.72	416.62
517.89	458.74
518.06	404.91
518.24	461.09
518.41	402.57
518.58	409.59
518.75	379.17
518.93	409.59
519.10	425.98
519.27	358.10
519.45	416.62
519.62	383.85
519.79	423.64
519.96	320.65
520.14	409.59
520.31	409.59
520.48	353.42
520.65	369.80
520.83	451.72
521.00	395.55
521.17	407.25
521.34	414.27
521.52	423.64
521.69	348.74
521.86	355.76
522.03	416.62
522.20	423.64
522.38	433.00
522.55	463.43
522.72	409.59
522.89	477.47
523.07	475.13
523.24	397.89
523.41	381.51
523.58	433.00
523.75	418.96
523.92	418.96
524.10	428.32
524.27	416.62
524.44	409.59
524.61	409.59
524.78	414.27
524.96	383.85
525.13	418.96
525.30	472.79
525.47	451.72
525.64	454.06
525.81	479.81
525.98	421.30
526.16	418.96
526.33	390.87
526.50	461.09
526.67	390.87
526.84	395.55
527.01	337.04
527.18	332.36
527.36	400.23
527.53	435.34
527.70	477.47
527.87	348.74
528.04	493.85
528.21	386.19
528.38	409.59
528.55	425.98
528.72	451.72
528.89	454.06
529.07	388.53
529.24	433.00
529.41	409.59
529.58	463.43
529.75	461.09
529.92	451.72
530.09	437.68
530.26	449.38
530.43	440.02
530.60	409.59
530.77	383.85
530.94	421.30
531.11	402.57
531.28	461.09
531.46	388.53
531.63	379.17
531.80	358.10
531.97	489.17
532.14	409.59
532.31	447.04
532.48	442.36
532.65	421.30
532.82	437.68
532.99	414.27
533.16	451.72
533.33	423.64
533.50	428.32
533.67	440.02
533.84	458.74
534.01	433.00
534.18	425.98
534.35	418.96
534.52	393.21
534.69	379.17
534.86	393.21
535.03	362.78
535.20	402.57
535.37	414.27
535.54	407.25
535.71	428.32
535.88	440.02
536.05	449.38
536.22	435.34
536.38	435.34
536.55	402.57
536.72	299.59
536.89	365.12
537.06	308.95
537.23	468.11
537.40	358.10
537.57	383.85
537.74	463.43
537.91	411.93
538.08	447.04
538.25	386.19
538.42	461.09
538.59	416.62
538.75	454.06
538.92	404.91
539.09	395.55
539.26	440.02
539.43	404.91
539.60	456.40
539.77	421.30
539.94	402.57
540.11	440.02
540.28	444.70
540.44	491.51
540.61	433.00
540.78	477.47
540.95	433.00
541.12	430.66
541.29	381.51
541.46	447.04
541.62	376.83
541.79	451.72
541.96	418.96
542.13	430.66
542.30	374.49
542.47	468.11
542.63	407.25
542.80	414.27
542.97	458.74
543.14	409.59
543.31	444.70
543.48	379.17
543.64	433.00
543.81	404.91
543.98	390.87
544.15	388.53
544.32	381.51
544.48	402.57
544.65	383.85
544.82	507.90
544.99	411.93
545.16	430.66
545.32	437.68
545.49	372.15
545.66	421.30
545.83	407.25
546.00	379.17
546.16	397.89
546.33	353.42
546.50	465.77
546.67	409.59
546.83	369.80
547.00	437.68
547.17	428.32
547.34	388.53
547.50	402.57
547.67	369.80
547.84	423.64
548.00	444.70
548.17	372.15
548.34	402.57
548.51	451.72
548.67	355.76
548.84	388.53
549.01	325.33
549.18	468.11
549.34	447.04
549.51	362.78
549.68	482.15
549.84	433.00
550.01	423.64
550.18	411.93
550.34	465.77
550.51	463.43
550.68	468.11
550.84	428.32
551.01	367.46
551.18	425.98
551.34	416.62
551.51	444.70
551.68	421.30
551.84	507.90
552.01	440.02
552.18	397.89
552.34	395.55
552.51	435.34
552.68	475.13
552.84	358.10
553.01	421.30
553.18	449.38
553.34	383.85
553.51	407.25
553.67	400.23
553.84	444.70
554.01	414.27
554.17	402.57
554.34	344.06
554.51	425.98
554.67	383.85
554.84	386.19
555.00	416.62
555.17	421.30
555.33	409.59
555.50	454.06
555.67	414.27
555.83	489.17
556.00	400.23
556.16	524.28
556.33	470.45
556.50	367.46
556.66	402.57
556.83	322.99
556.99	360.44
557.16	409.59
557.32	411.93
557.49	381.51
557.65	421.30
557.82	365.12
557.98	395.55
558.15	451.72
558.32	451.72
558.48	437.68
558.65	411.93
558.81	351.08
558.98	334.70
559.14	519.60
559.31	489.17
559.47	421.30
559.64	498.53
559.80	337.04
559.97	430.66
560.13	402.57
560.30	418.96
560.46	402.57
560.63	407.25
560.79	468.11
560.96	423.64
561.12	407.25
561.29	379.17
561.45	435.34
561.61	440.02
561.78	500.87
561.94	454.06
562.11	414.27
562.27	440.02
562.44	397.89
562.60	379.17
562.77	369.80
562.93	430.66
563.10	430.66
563.26	409.59
563.42	458.74
563.59	346.40
563.75	353.42
563.92	425.98
564.08	416.62
564.24	477.47
564.41	444.70
564.57	330.02
564.74	500.87
564.90	407.25
565.07	411.93
565.23	393.21
565.39	428.32
565.56	456.40
565.72	470.45
565.88	425.98
566.05	393.21
566.21	477.47
566.38	496.19
566.54	374.49
566.70	397.89
566.87	454.06
567.03	423.64
567.19	397.89
567.36	414.27
567.52	374.49
567.68	454.06
567.85	465.77
568.01	428.32
568.17	388.53
568.34	447.04
568.50	395.55
568.66	454.06
568.83	418.96
568.99	390.87
569.15	440.02
569.32	414.27
569.48	423.64
569.64	397.89
569.81	454.06
569.97	454.06
570.13	475.13
570.30	482.15
570.46	400.23
570.62	428.32
570.78	486.83
570.95	430.66
571.11	435.34
571.27	470.45
571.43	376.83
571.60	376.83
571.76	479.81
571.92	390.87
572.09	468.11
572.25	456.40
572.41	430.66
572.57	404.91
572.74	437.68
572.90	383.85
573.06	418.96
573.22	386.19
573.38	365.12
573.55	409.59
573.71	423.64
573.87	484.49
574.03	470.45
574.20	397.89
574.36	346.40
574.52	341.72
574.68	451.72
574.84	369.80
575.01	358.10
575.17	402.57
575.33	404.91
575.49	496.19
575.65	430.66
575.82	463.43
575.98	505.56
576.14	390.87
576.30	381.51
576.46	454.06
576.62	402.57
576.79	388.53
576.95	477.47
577.11	400.23
577.27	388.53
577.43	430.66
577.59	486.83
577.75	388.53
577.92	381.51
578.08	411.93
578.24	402.57
578.40	454.06
578.56	421.30
578.72	404.91
578.88	397.89
579.04	372.15
579.21	416.62
579.37	337.04
579.53	477.47
579.69	477.47
579.85	477.47
580.01	470.45
580.17	456.40
580.33	425.98
580.49	362.78
580.65	404.91
580.82	395.55
580.98	458.74
581.14	425.98
581.30	400.23
581.46	451.72
581.62	440.02
581.78	421.30
581.94	416.62
582.10	372.15
582.26	404.91
582.42	418.96
582.58	339.38
582.74	372.15
582.90	418.96
583.06	531.30
583.22	337.04
583.38	374.49
583.54	365.12
583.70	493.85
583.86	402.57
584.02	447.04
584.18	491.51
584.34	423.64
584.50	423.64
584.66	442.36
584.82	395.55
584.98	376.83
585.14	369.80
585.30	472.79
585.46	397.89
585.62	468.11
585.78	404.91
585.94	451.72
586.10	449.38
586.26	407.25
586.42	442.36
586.58	414.27
586.74	449.38
586.90	442.36
587.06	400.23
587.22	360.44
587.38	435.34
587.54	435.34
587.70	428.32
587.86	421.30
588.02	416.62
588.18	423.64
588.34	458.74
588.49	433.00
588.65	418.96
588.81	444.70
588.97	425.98
589.13	414.27
589.29	421.30
589.45	468.11
589.61	435.34
589.77	437.68
589.93	456.40
590.08	433.00
590.24	376.83
590.40	433.00
590.56	430.66
590.72	381.51
590.88	393.21
591.04	395.55
591.20	451.72
591.35	447.04
591.51	421.30
591.67	414.27
591.83	444.70
591.99	428.32
592.15	489.17
592.31	475.13
592.46	311.29
592.62	477.47
592.78	365.12
592.94	407.25
593.10	407.25
593.26	400.23
593.41	468.11
593.57	369.80
593.73	437.68
593.89	456.40
594.05	348.74
594.20	463.43
594.36	484.49
594.52	447.04
594.68	458.74
594.84	355.76
594.99	411.93
595.15	517.26
595.31	418.96
595.47	456.40
595.62	348.74
595.78	402.57
595.94	447.04
596.10	465.77
596.25	414.27
596.41	447.04
596.57	402.57
596.73	409.59
596.88	395.55
597.04	421.30
597.20	390.87
597.36	421.30
597.51	416.62
597.67	393.21
597.83	456.40
597.99	489.17
598.14	369.80
598.30	442.36
598.46	395.55
598.61	369.80
598.77	341.72
598.93	395.55
599.09	402.57
599.24	433.00
599.40	463.43
599.56	411.93
599.71	433.00
599.87	437.68
600.03	409.59
600.18	411.93
600.34	421.30
600.50	397.89
600.65	386.19
600.81	393.21
600.97	428.32
601.12	414.27
601.28	428.32
601.44	367.46
601.59	376.83
601.75	470.45
601.91	404.91
602.06	372.15
602.22	512.58
602.37	433.00
602.53	353.42
602.69	500.87
602.84	402.57
603.00	437.68
603.16	472.79
603.31	428.32
603.47	388.53
603.62	362.78
603.78	327.68
603.94	355.76
604.09	447.04
604.25	414.27
604.40	341.72
604.56	407.25
604.71	346.40
604.87	379.17
605.03	402.57
605.18	491.51
605.34	402.57
605.49	447.04
605.65	433.00
605.80	376.83
605.96	440.02
606.12	418.96
606.27	430.66
606.43	365.12
606.58	472.79
606.74	423.64
606.89	458.74
607.05	458.74
607.20	451.72
607.36	418.96
607.51	383.85
607.67	369.80
607.82	341.72
607.98	397.89
608.13	456.40
608.29	414.27
608.44	393.21
608.60	411.93
608.75	365.12
608.91	430.66
609.06	451.72
609.22	447.04
609.37	423.64
609.53	325.33
609.68	358.10
609.84	397.89
609.99	390.87
610.15	388.53
610.30	458.74
610.46	421.30
610.61	367.46
610.76	372.15
610.92	404.91
611.07	386.19
611.23	437.68
611.38	423.64
611.54	416.62
611.69	348.74
611.84	414.27
612.00	367.46
612.15	367.46
612.31	437.68
612.46	465.77
612.62	397.89
612.77	411.93
612.92	461.09
613.08	376.83
613.23	407.25
613.39	386.19
613.54	416.62
613.69	402.57
613.85	414.27
614.00	416.62
614.15	414.27
614.31	379.17
614.46	393.21
614.62	393.21
614.77	416.62
614.92	395.55
615.08	383.85
615.23	423.64
615.38	395.55
615.54	362.78
615.69	444.70
615.84	465.77
616.00	337.04
616.15	433.00
616.30	440.02
616.46	428.32
616.61	386.19
616.76	418.96
616.92	362.78
617.07	470.45
617.22	395.55
617.37	456.40
617.53	407.25
617.68	360.44
617.83	369.80
617.99	411.93
618.14	477.47
618.29	519.60
618.45	418.96
618.60	402.57
618.75	421.30
618.90	423.64
619.06	411.93
619.21	383.85
619.36	407.25
619.51	447.04
619.67	372.15
619.82	447.04
619.97	437.68
620.12	430.66
620.28	376.83
620.43	458.74
620.58	383.85
620.73	451.72
620.89	435.34
621.04	414.27
621.19	454.06
621.34	451.72
621.49	348.74
621.65	456.40
621.80	322.99
621.95	411.93
622.10	421.30
622.25	416.62
622.41	409.59
622.56	367.46
622.71	468.11
622.86	421.30
623.01	465.77
623.16	486.83
623.32	463.43
623.47	404.91
623.62	390.87
623.77	376.83
623.92	411.93
624.07	435.34
624.23	407.25
624.38	421.30
624.53	482.15
624.68	461.09
624.83	372.15
624.98	477.47
625.13	428.32
625.29	416.62
625.44	397.89
625.59	402.57
625.74	402.57
625.89	472.79
626.04	402.57
626.19	397.89
626.34	390.87
626.49	423.64
626.65	374.49
626.80	411.93
626.95	360.44
627.10	397.89
627.25	447.04
627.40	465.77
627.55	433.00
627.70	428.32
627.85	379.17
628.00	388.53
628.15	362.78
628.30	407.25
628.45	402.57
628.60	402.57
628.76	414.27
628.91	348.74
629.06	470.45
629.21	402.57
629.36	451.72
629.51	390.87
629.66	383.85
629.81	456.40
629.96	449.38
630.11	416.62
630.26	376.83
630.41	428.32
630.56	463.43
630.71	397.89
630.86	416.62
631.01	449.38
631.16	358.10
631.31	416.62
631.46	449.38
631.61	423.64
631.76	381.51
631.91	393.21
632.06	463.43
632.21	423.64
632.36	411.93
632.51	367.46
632.66	374.49
632.81	423.64
632.96	372.15
633.10	444.70
633.25	393.21
633.40	372.15
633.55	463.43
633.70	383.85
633.85	388.53
634.00	414.27
634.15	360.44
634.30	315.97
634.45	428.32
634.60	454.06
634.75	372.15
634.90	484.49
635.05	369.80
635.19	351.08
635.34	409.59
635.49	383.85
635.64	421.30
635.79	489.17
635.94	425.98
636.09	444.70
636.24	435.34
636.39	430.66
636.53	491.51
636.68	341.72
636.83	393.21
636.98	484.49
637.13	407.25
637.28	395.55
637.43	435.34
637.57	463.43
637.72	433.00
637.87	437.68
638.02	404.91
638.17	411.93
638.32	430.66
638.46	409.59
638.61	493.85
638.76	383.85
638.91	430.66
639.06	461.09
639.20	477.47
639.35	367.46
639.50	376.83
639.65	489.17
639.80	425.98
639.94	491.51
640.09	470.45
640.24	456.40
640.39	374.49
640.54	395.55
640.68	390.87
640.83	374.49
640.98	430.66
641.13	344.06
641.27	376.83
641.42	461.09
641.57	479.81
641.72	414.27
641.86	433.00
642.01	482.15
642.16	411.93
642.31	428.32
642.45	397.89
642.60	428.32
642.75	374.49
642.90	428.32
643.04	390.87
643.19	423.64
643.34	346.40
643.48	414.27
643.63	395.55
643.78	451.72
643.93	486.83
644.07	433.00
644.22	475.13
644.37	388.53
644.51	374.49
644.66	433.00
644.81	381.51
644.95	472.79
645.10	416.62
645.25	346.40
645.39	472.79
645.54	423.64
645.69	402.57
645.83	383.85
645.98	456.40
646.13	454.06
646.27	470.45
646.42	386.19
646.57	451.72
646.71	383.85
646.86	416.62
647.00	395.55
647.15	449.38
647.30	425.98
647.44	362.78
647.59	433.00
647.74	521.94
647.88	433.00
648.03	402.57
648.17	421.30
648.32	421.30
648.47	421.30
648.61	393.21
648.76	428.32
648.90	407.25
649.05	404.91
649.20	393.21
649.34	397.89
649.49	451.72
649.63	400.23
649.78	421.30
649.92	470.45
650.07	421.30
650.21	423.64
650.36	388.53
650.51	381.51
650.65	454.06
650.80	374.49
650.94	402.57
651.09	437.68
651.23	393.21
651.38	461.09
651.52	458.74
651.67	374.49
651.81	397.89
651.96	355.76
652.10	428.32
652.25	425.98
652.39	346.40
652.54	454.06
652.68	465.77
652.83	372.15
652.97	358.10
653.12	444.70
653.26	416.62
653.41	425.98
653.55	369.80
653.70	402.57
653.84	381.51
653.99	449.38
654.13	346.40
654.27	390.87
654.42	421.30
654.56	421.30
654.71	451.72
654.85	454.06
655.00	381.51
655.14	409.59
655.29	463.43
655.43	407.25
655.57	351.08
655.72	428.32
655.86	397.89
656.01	386.19
656.15	454.06
656.30	421.30
656.44	409.59
656.58	388.53
656.73	433.00
656.87	440.02
657.01	332.36
657.16	444.70
657.30	430.66
657.45	393.21
657.59	411.93
657.73	374.49
657.88	463.43
658.02	421.30
658.16	390.87
658.31	383.85
658.45	404.91
658.60	442.36
658.74	433.00
658.88	362.78
659.03	397.89
659.17	461.09
659.31	440.02
659.46	409.59
659.60	425.98
659.74	421.30
659.89	379.17
660.03	402.57
660.17	421.30
660.32	433.00
660.46	435.34
660.60	388.53
660.74	428.32
660.89	388.53
661.03	407.25
661.17	402.57
661.32	442.36
661.46	404.91
661.60	461.09
661.74	409.59
661.89	397.89
662.03	440.02
662.17	388.53
662.31	435.34
662.46	465.77
662.60	374.49
662.74	447.04
662.88	449.38
663.03	348.74
663.17	362.78
663.31	402.57
663.45	440.02
663.60	407.25
663.74	397.89
663.88	308.95
664.02	332.36
664.17	397.89
664.31	425.98
664.45	437.68
664.59	456.40
664.73	437.68
664.88	444.70
665.02	393.21
665.16	407.25
665.30	465.77
665.44	411.93
665.59	407.25
665.73	444.70
665.87	404.91
666.01	442.36
666.15	479.81
666.29	416.62
666.44	491.51
666.58	383.85
666.72	433.00
666.86	386.19
667.00	449.38
667.14	454.06
667.28	458.74
667.43	416.62
667.57	374.49
667.71	402.57
667.85	472.79
667.99	468.11
668.13	397.89
668.27	510.24
668.41	386.19
668.56	428.32
668.70	510.24
668.84	484.49
668.98	463.43
669.12	418.96
669.26	416.62
669.40	442.36
669.54	458.74
669.68	416.62
669.82	367.46
669.96	411.93
670.10	437.68
670.25	409.59
670.39	383.85
670.53	358.10
670.67	397.89
670.81	388.53
670.95	395.55
671.09	440.02
671.23	404.91
671.37	514.92
671.51	428.32
671.65	400.23
671.79	390.87
671.93	461.09
672.07	390.87
672.21	423.64
672.35	440.02
672.49	411.93
672.63	418.96
672.77	418.96
672.91	411.93
673.05	411.93
673.19	465.77
673.33	402.57
673.47	482.15
673.61	409.59
673.75	503.22
673.89	400.23
674.03	318.31
674.17	461.09
674.31	395.55
674.45	423.64
674.59	449.38
674.73	414.27
674.87	465.77
675.01	379.17
675.15	465.77
675.29	393.21
675.43	339.38
675.56	451.72
675.70	447.04
675.84	367.46
675.98	423.64
676.12	388.53
676.26	425.98
676.40	395.55
676.54	372.15
676.68	346.40
676.82	393.21
676.96	421.30
677.10	477.47
677.23	461.09
677.37	348.74
677.51	458.74
677.65	472.79
677.79	435.34
677.93	390.87
678.07	402.57
678.21	404.91
678.34	376.83
678.48	416.62
678.62	402.57
678.76	355.76
678.90	341.72
679.04	402.57
679.18	463.43
679.31	430.66
679.45	346.40
679.59	367.46
679.73	376.83
679.87	374.49
680.00	414.27
680.14	374.49
680.28	414.27
680.42	411.93
680.56	344.06
680.70	428.32
680.83	400.23
680.97	383.85
681.11	477.47
681.25	390.87
681.39	440.02
681.52	451.72
681.66	505.56
681.80	390.87
681.94	435.34
682.07	454.06
682.21	379.17
682.35	411.93
682.49	454.06
682.62	449.38
682.76	402.57
682.90	402.57
683.04	425.98
683.17	435.34
683.31	397.89
683.45	416.62
683.59	477.47
683.72	465.77
683.86	383.85
684.00	390.87
684.13	475.13
684.27	451.72
684.41	414.27
684.55	414.27
684.68	381.51
684.82	409.59
684.96	397.89
685.09	386.19
685.23	409.59
685.37	390.87
685.50	489.17
685.64	400.23
685.78	362.78
685.91	416.62
686.05	318.31
686.19	440.02
686.32	428.32
686.46	386.19
686.60	381.51
686.73	395.55
686.87	402.57
687.01	442.36
687.14	353.42
687.28	414.27
687.42	482.15
687.55	400.23
687.69	386.19
687.82	390.87
687.96	451.72
688.10	465.77
688.23	428.32
688.37	430.66
688.50	339.38
688.64	479.81
688.78	440.02
688.91	376.83
689.05	390.87
689.18	409.59
689.32	451.72
689.46	421.30
689.59	430.66
689.73	407.25
689.86	351.08
690.00	461.09
690.13	393.21
690.27	430.66
690.41	454.06
690.54	437.68
690.68	458.74
690.81	369.80
690.95	437.68
691.08	402.57
691.22	397.89
691.35	367.46
691.49	348.74
691.62	367.46
691.76	374.49
691.89	407.25
692.03	395.55
692.16	425.98
692.30	440.02
692.43	411.93
692.57	383.85
692.70	486.83
692.84	334.70
692.97	362.78
693.11	379.17
693.24	477.47
693.38	409.59
693.51	433.00
693.65	442.36
693.78	379.17
693.92	390.87
694.05	416.62
694.19	430.66
694.32	433.00
694.45	414.27
694.59	379.17
694.72	416.62
694.86	402.57
694.99	444.70
695.13	442.36
695.26	402.57
695.39	404.91
695.53	433.00
695.66	397.89
695.80	482.15
695.93	456.40
696.07	444.70
696.20	444.70
696.33	414.27
696.47	428.32
696.60	360.44
696.73	411.93
696.87	367.46
697.00	475.13
697.14	395.55
697.27	444.70
697.40	470.45
697.54	433.00
697.67	372.15
697.80	477.47
697.94	477.47
698.07	365.12
698.21	456.40
698.34	390.87
698.47	388.53
698.61	402.57
698.74	447.04
698.87	409.59
699.01	479.81
699.14	365.12
699.27	362.78
699.40	444.70
699.54	411.93
699.67	400.23
699.80	418.96
699.94	465.77
700.07	409.59
700.20	386.19
700.34	500.87
700.47	416.62
700.60	456.40
700.73	463.43
700.87	465.77
701.00	374.49
701.13	430.66
701.26	374.49
701.40	423.64
701.53	355.76
701.66	444.70
701.79	454.06
701.93	362.78
702.06	332.36
702.19	407.25
702.32	442.36
702.46	430.66
702.59	442.36
702.72	456.40
702.85	430.66
702.99	411.93
703.12	414.27
703.25	465.77
703.38	442.36
703.51	449.38
703.65	390.87
703.78	383.85
703.91	414.27
704.04	404.91
704.17	388.53
704.31	430.66
704.44	393.21
704.57	404.91
704.70	430.66
704.83	440.02
704.96	416.62
705.10	407.25
705.23	402.57
>>>>>End Processed Spectral Data<<<<<
