SpectraSuite Data File
++++++++++++++++++++++++++++++++++++
Date: Fri Oct 25 12:11:15 EDT 2013
User: price-jones
Dark Spectrum Present: No
Reference Spectrum Present: No
Number of Sampled Component Spectra: 1
Spectrometers: USB2+H05261
Integration Time (usec): 100000 (USB2+H05261)
Spectra Averaged: 1 (USB2+H05261)
Boxcar Smoothing: 0 (USB2+H05261)
Correct for Electrical Dark: No (USB2+H05261)
Strobe/Lamp Enabled: No (USB2+H05261)
Correct for Detector Non-linearity: No (USB2+H05261)
Correct for Stray Light: No (USB2+H05261)
Number of Pixels in Processed Spectrum: 2048
>>>>>Begin Processed Spectral Data<<<<<
365.73	358.10
365.92	358.10
366.12	358.10
366.32	248.10
366.52	308.95
366.72	290.23
366.91	212.99
367.11	236.39
367.31	189.58
367.51	285.55
367.70	273.84
367.90	203.63
368.10	175.54
368.30	238.73
368.49	276.18
368.69	262.14
368.89	222.35
369.09	276.18
369.28	315.97
369.48	234.05
369.68	250.44
369.87	344.06
370.07	252.78
370.27	248.10
370.47	313.63
370.66	297.25
370.86	393.21
371.06	395.55
371.25	374.49
371.45	397.89
371.65	395.55
371.84	376.83
372.04	400.23
372.24	390.87
372.44	428.32
372.63	437.68
372.83	440.02
373.03	388.53
373.22	430.66
373.42	404.91
373.62	416.62
373.81	428.32
374.01	472.79
374.21	433.00
374.40	444.70
374.60	414.27
374.79	416.62
374.99	472.79
375.19	409.59
375.38	430.66
375.58	470.45
375.78	465.77
375.97	461.09
376.17	451.72
376.37	430.66
376.56	430.66
376.76	404.91
376.95	402.57
377.15	402.57
377.35	442.36
377.54	362.78
377.74	379.17
377.93	390.87
378.13	470.45
378.33	479.81
378.52	395.55
378.72	451.72
378.91	447.04
379.11	470.45
379.31	395.55
379.50	397.89
379.70	367.46
379.89	461.09
380.09	421.30
380.28	418.96
380.48	421.30
380.68	454.06
380.87	395.55
381.07	372.15
381.26	444.70
381.46	447.04
381.65	461.09
381.85	390.87
382.04	395.55
382.24	437.68
382.43	397.89
382.63	425.98
382.83	374.49
383.02	407.25
383.22	409.59
383.41	351.08
383.61	402.57
383.80	435.34
384.00	461.09
384.19	337.04
384.39	465.77
384.58	393.21
384.78	416.62
384.97	395.55
385.17	381.51
385.36	428.32
385.56	404.91
385.75	414.27
385.95	407.25
386.14	374.49
386.34	404.91
386.53	444.70
386.72	339.38
386.92	402.57
387.11	411.93
387.31	414.27
387.50	344.06
387.70	454.06
387.89	428.32
388.09	362.78
388.28	358.10
388.48	407.25
388.67	482.15
388.86	358.10
389.06	369.80
389.25	416.62
389.45	400.23
389.64	449.38
389.84	411.93
390.03	437.68
390.22	428.32
390.42	376.83
390.61	390.87
390.81	402.57
391.00	390.87
391.19	470.45
391.39	402.57
391.58	440.02
391.78	388.53
391.97	421.30
392.16	437.68
392.36	416.62
392.55	433.00
392.75	486.83
392.94	414.27
393.13	376.83
393.33	447.04
393.52	416.62
393.71	425.98
393.91	493.85
394.10	402.57
394.29	376.83
394.49	383.85
394.68	465.77
394.88	451.72
395.07	456.40
395.26	411.93
395.46	404.91
395.65	430.66
395.84	372.15
396.04	491.51
396.23	456.40
396.42	411.93
396.62	353.42
396.81	341.72
397.00	449.38
397.19	437.68
397.39	390.87
397.58	383.85
397.77	379.17
397.97	400.23
398.16	486.83
398.35	346.40
398.55	454.06
398.74	376.83
398.93	376.83
399.12	531.30
399.32	428.32
399.51	386.19
399.70	475.13
399.90	369.80
400.09	416.62
400.28	369.80
400.47	400.23
400.67	470.45
400.86	381.51
401.05	402.57
401.24	379.17
401.44	437.68
401.63	454.06
401.82	461.09
402.01	337.04
402.21	409.59
402.40	477.47
402.59	428.32
402.78	360.44
402.97	365.12
403.17	369.80
403.36	440.02
403.55	393.21
403.74	390.87
403.93	470.45
404.13	365.12
404.32	346.40
404.51	372.15
404.70	421.30
404.89	402.57
405.09	475.13
405.28	454.06
405.47	395.55
405.66	433.00
405.85	435.34
406.05	388.53
406.24	358.10
406.43	402.57
406.62	447.04
406.81	444.70
407.00	416.62
407.20	404.91
407.39	463.43
407.58	390.87
407.77	435.34
407.96	390.87
408.15	404.91
408.34	435.34
408.54	449.38
408.73	390.87
408.92	400.23
409.11	313.63
409.30	463.43
409.49	379.17
409.68	465.77
409.87	423.64
410.07	393.21
410.26	355.76
410.45	470.45
410.64	376.83
410.83	411.93
411.02	421.30
411.21	425.98
411.40	433.00
411.59	477.47
411.78	465.77
411.98	433.00
412.17	409.59
412.36	365.12
412.55	428.32
412.74	348.74
412.93	416.62
413.12	390.87
413.31	386.19
413.50	440.02
413.69	379.17
413.88	428.32
414.07	407.25
414.26	409.59
414.45	390.87
414.64	418.96
414.83	409.59
415.02	451.72
415.22	437.68
415.41	463.43
415.60	416.62
415.79	376.83
415.98	400.23
416.17	418.96
416.36	369.80
416.55	369.80
416.74	423.64
416.93	425.98
417.12	390.87
417.31	411.93
417.50	397.89
417.69	475.13
417.88	416.62
418.07	414.27
418.26	416.62
418.45	411.93
418.64	437.68
418.83	430.66
419.02	381.51
419.21	472.79
419.39	397.89
419.58	344.06
419.77	465.77
419.96	386.19
420.15	414.27
420.34	449.38
420.53	447.04
420.72	362.78
420.91	416.62
421.10	362.78
421.29	475.13
421.48	486.83
421.67	454.06
421.86	367.46
422.05	442.36
422.24	461.09
422.43	386.19
422.61	435.34
422.80	330.02
422.99	407.25
423.18	400.23
423.37	505.56
423.56	447.04
423.75	383.85
423.94	381.51
424.13	421.30
424.32	397.89
424.50	404.91
424.69	444.70
424.88	472.79
425.07	388.53
425.26	414.27
425.45	472.79
425.64	390.87
425.83	414.27
426.01	414.27
426.20	414.27
426.39	379.17
426.58	430.66
426.77	442.36
426.96	465.77
427.15	437.68
427.33	376.83
427.52	454.06
427.71	388.53
427.90	442.36
428.09	383.85
428.28	454.06
428.46	465.77
428.65	449.38
428.84	414.27
429.03	444.70
429.22	400.23
429.40	435.34
429.59	409.59
429.78	416.62
429.97	463.43
430.16	369.80
430.34	418.96
430.53	386.19
430.72	435.34
430.91	449.38
431.10	416.62
431.28	430.66
431.47	386.19
431.66	388.53
431.85	322.99
432.03	449.38
432.22	482.15
432.41	386.19
432.60	433.00
432.79	388.53
432.97	341.72
433.16	451.72
433.35	383.85
433.54	402.57
433.72	404.91
433.91	407.25
434.10	341.72
434.28	379.17
434.47	355.76
434.66	376.83
434.85	423.64
435.03	444.70
435.22	444.70
435.41	397.89
435.59	444.70
435.78	327.68
435.97	421.30
436.16	447.04
436.34	437.68
436.53	397.89
436.72	435.34
436.90	346.40
437.09	440.02
437.28	447.04
437.46	430.66
437.65	369.80
437.84	395.55
438.02	374.49
438.21	461.09
438.40	421.30
438.58	386.19
438.77	425.98
438.96	407.25
439.14	435.34
439.33	444.70
439.52	423.64
439.70	400.23
439.89	454.06
440.08	388.53
440.26	369.80
440.45	390.87
440.63	390.87
440.82	433.00
441.01	444.70
441.19	360.44
441.38	437.68
441.57	320.65
441.75	390.87
441.94	407.25
442.12	421.30
442.31	390.87
442.50	437.68
442.68	475.13
442.87	433.00
443.05	475.13
443.24	425.98
443.43	482.15
443.61	493.85
443.80	418.96
443.98	355.76
444.17	388.53
444.35	411.93
444.54	454.06
444.73	374.49
444.91	383.85
445.10	433.00
445.28	423.64
445.47	421.30
445.65	421.30
445.84	414.27
446.02	482.15
446.21	365.12
446.39	367.46
446.58	526.62
446.77	461.09
446.95	390.87
447.14	397.89
447.32	493.85
447.51	402.57
447.69	435.34
447.88	421.30
448.06	479.81
448.25	388.53
448.43	383.85
448.62	451.72
448.80	461.09
448.99	404.91
449.17	407.25
449.36	376.83
449.54	451.72
449.73	407.25
449.91	421.30
450.10	416.62
450.28	533.64
450.46	428.32
450.65	409.59
450.83	447.04
451.02	358.10
451.20	367.46
451.39	376.83
451.57	472.79
451.76	397.89
451.94	409.59
452.13	451.72
452.31	402.57
452.49	461.09
452.68	369.80
452.86	433.00
453.05	400.23
453.23	411.93
453.42	458.74
453.60	454.06
453.78	470.45
453.97	311.29
454.15	397.89
454.34	388.53
454.52	388.53
454.70	463.43
454.89	461.09
455.07	409.59
455.26	395.55
455.44	425.98
455.62	496.19
455.81	440.02
455.99	334.70
456.17	379.17
456.36	344.06
456.54	365.12
456.73	407.25
456.91	390.87
457.09	421.30
457.28	428.32
457.46	379.17
457.64	414.27
457.83	395.55
458.01	428.32
458.19	379.17
458.38	332.36
458.56	395.55
458.74	365.12
458.93	451.72
459.11	393.21
459.29	425.98
459.48	416.62
459.66	421.30
459.84	400.23
460.03	461.09
460.21	409.59
460.39	421.30
460.57	437.68
460.76	437.68
460.94	458.74
461.12	482.15
461.31	418.96
461.49	421.30
461.67	411.93
461.85	470.45
462.04	393.21
462.22	758.33
462.40	407.25
462.59	416.62
462.77	437.68
462.95	444.70
463.13	416.62
463.32	390.87
463.50	433.00
463.68	444.70
463.86	344.06
464.05	451.72
464.23	451.72
464.41	411.93
464.59	418.96
464.78	418.96
464.96	397.89
465.14	400.23
465.32	470.45
465.50	428.32
465.69	479.81
465.87	388.53
466.05	423.64
466.23	416.62
466.41	425.98
466.60	409.59
466.78	381.51
466.96	433.00
467.14	395.55
467.32	386.19
467.51	407.25
467.69	395.55
467.87	421.30
468.05	374.49
468.23	379.17
468.41	395.55
468.60	402.57
468.78	418.96
468.96	416.62
469.14	386.19
469.32	383.85
469.50	484.49
469.69	393.21
469.87	411.93
470.05	428.32
470.23	397.89
470.41	407.25
470.59	454.06
470.77	470.45
470.95	463.43
471.14	454.06
471.32	379.17
471.50	414.27
471.68	418.96
471.86	383.85
472.04	386.19
472.22	437.68
472.40	393.21
472.58	447.04
472.77	425.98
472.95	374.49
473.13	479.81
473.31	472.79
473.49	397.89
473.67	416.62
473.85	414.27
474.03	442.36
474.21	395.55
474.39	428.32
474.57	442.36
474.75	381.51
474.93	444.70
475.12	428.32
475.30	468.11
475.48	423.64
475.66	341.72
475.84	449.38
476.02	435.34
476.20	461.09
476.38	514.92
476.56	428.32
476.74	376.83
476.92	334.70
477.10	322.99
477.28	374.49
477.46	383.85
477.64	435.34
477.82	477.47
478.00	444.70
478.18	423.64
478.36	379.17
478.54	337.04
478.72	362.78
478.90	383.85
479.08	383.85
479.26	456.40
479.44	330.02
479.62	411.93
479.80	468.11
479.98	383.85
480.16	440.02
480.34	440.02
480.52	442.36
480.70	388.53
480.88	465.77
481.06	339.38
481.24	409.59
481.41	339.38
481.59	341.72
481.77	362.78
481.95	428.32
482.13	435.34
482.31	421.30
482.49	444.70
482.67	423.64
482.85	404.91
483.03	374.49
483.21	374.49
483.39	362.78
483.57	414.27
483.74	470.45
483.92	444.70
484.10	421.30
484.28	512.58
484.46	510.24
484.64	411.93
484.82	407.25
485.00	451.72
485.18	416.62
485.35	484.49
485.53	395.55
485.71	374.49
485.89	414.27
486.07	416.62
486.25	491.51
486.43	358.10
486.61	482.15
486.78	461.09
486.96	386.19
487.14	369.80
487.32	386.19
487.50	430.66
487.68	383.85
487.85	475.13
488.03	442.36
488.21	425.98
488.39	423.64
488.57	465.77
488.75	444.70
488.92	486.83
489.10	479.81
489.28	447.04
489.46	381.51
489.64	416.62
489.81	418.96
489.99	383.85
490.17	414.27
490.35	484.49
490.53	425.98
490.70	390.87
490.88	365.12
491.06	507.90
491.24	397.89
491.41	416.62
491.59	423.64
491.77	409.59
491.95	447.04
492.13	358.10
492.30	425.98
492.48	376.83
492.66	411.93
492.84	421.30
493.01	461.09
493.19	442.36
493.37	407.25
493.54	407.25
493.72	402.57
493.90	442.36
494.08	414.27
494.25	430.66
494.43	430.66
494.61	433.00
494.79	444.70
494.96	409.59
495.14	428.32
495.32	383.85
495.49	393.21
495.67	437.68
495.85	348.74
496.02	402.57
496.20	461.09
496.38	409.59
496.55	379.17
496.73	397.89
496.91	425.98
497.09	386.19
497.26	395.55
497.44	435.34
497.62	374.49
497.79	381.51
497.97	365.12
498.14	437.68
498.32	400.23
498.50	465.77
498.67	369.80
498.85	402.57
499.03	447.04
499.20	437.68
499.38	404.91
499.56	365.12
499.73	454.06
499.91	353.42
500.08	404.91
500.26	451.72
500.44	348.74
500.61	369.80
500.79	400.23
500.97	435.34
501.14	454.06
501.32	477.47
501.49	416.62
501.67	491.51
501.84	395.55
502.02	365.12
502.20	404.91
502.37	409.59
502.55	465.77
502.72	479.81
502.90	442.36
503.07	379.17
503.25	498.53
503.43	440.02
503.60	416.62
503.78	423.64
503.95	362.78
504.13	379.17
504.30	444.70
504.48	442.36
504.65	435.34
504.83	360.44
505.01	430.66
505.18	421.30
505.36	421.30
505.53	402.57
505.71	444.70
505.88	409.59
506.06	423.64
506.23	444.70
506.41	383.85
506.58	397.89
506.76	355.76
506.93	390.87
507.11	411.93
507.28	393.21
507.46	327.68
507.63	393.21
507.81	435.34
507.98	451.72
508.16	386.19
508.33	440.02
508.50	428.32
508.68	388.53
508.85	421.30
509.03	411.93
509.20	437.68
509.38	444.70
509.55	449.38
509.73	433.00
509.90	430.66
510.08	407.25
510.25	475.13
510.42	353.42
510.60	388.53
510.77	388.53
510.95	512.58
511.12	409.59
511.30	447.04
511.47	402.57
511.64	489.17
511.82	367.46
511.99	355.76
512.17	484.49
512.34	433.00
512.51	423.64
512.69	372.15
512.86	421.30
513.04	423.64
513.21	421.30
513.38	486.83
513.56	437.68
513.73	360.44
513.90	337.04
514.08	351.08
514.25	433.00
514.43	365.12
514.60	414.27
514.77	402.57
514.95	433.00
515.12	470.45
515.29	454.06
515.47	451.72
515.64	456.40
515.81	395.55
515.99	435.34
516.16	411.93
516.33	477.47
516.51	437.68
516.68	372.15
516.85	475.13
517.03	472.79
517.20	465.77
517.37	383.85
517.54	454.06
517.72	433.00
517.89	461.09
518.06	447.04
518.24	477.47
518.41	456.40
518.58	409.59
518.75	409.59
518.93	433.00
519.10	393.21
519.27	379.17
519.45	444.70
519.62	376.83
519.79	507.90
519.96	360.44
520.14	369.80
520.31	390.87
520.48	428.32
520.65	435.34
520.83	418.96
521.00	463.43
521.17	463.43
521.34	423.64
521.52	381.51
521.69	402.57
521.86	433.00
522.03	397.89
522.20	454.06
522.38	507.90
522.55	414.27
522.72	395.55
522.89	411.93
523.07	463.43
523.24	353.42
523.41	442.36
523.58	428.32
523.75	421.30
523.92	425.98
524.10	437.68
524.27	400.23
524.44	442.36
524.61	388.53
524.78	381.51
524.96	451.72
525.13	440.02
525.30	482.15
525.47	503.22
525.64	421.30
525.81	437.68
525.98	407.25
526.16	393.21
526.33	339.38
526.50	425.98
526.67	414.27
526.84	351.08
527.01	322.99
527.18	454.06
527.36	418.96
527.53	416.62
527.70	475.13
527.87	409.59
528.04	484.49
528.21	381.51
528.38	435.34
528.55	458.74
528.72	437.68
528.89	444.70
529.07	440.02
529.24	421.30
529.41	402.57
529.58	435.34
529.75	393.21
529.92	425.98
530.09	362.78
530.26	337.04
530.43	407.25
530.60	421.30
530.77	463.43
530.94	456.40
531.11	470.45
531.28	461.09
531.46	428.32
531.63	444.70
531.80	393.21
531.97	374.49
532.14	416.62
532.31	400.23
532.48	407.25
532.65	390.87
532.82	395.55
532.99	395.55
533.16	458.74
533.33	381.51
533.50	362.78
533.67	449.38
533.84	407.25
534.01	407.25
534.18	418.96
534.35	423.64
534.52	433.00
534.69	447.04
534.86	461.09
535.03	435.34
535.20	407.25
535.37	498.53
535.54	411.93
535.71	440.02
535.88	498.53
536.05	423.64
536.22	461.09
536.38	360.44
536.55	458.74
536.72	428.32
536.89	433.00
537.06	348.74
537.23	411.93
537.40	381.51
537.57	430.66
537.74	465.77
537.91	409.59
538.08	395.55
538.25	437.68
538.42	440.02
538.59	418.96
538.75	456.40
538.92	421.30
539.09	358.10
539.26	400.23
539.43	465.77
539.60	421.30
539.77	351.08
539.94	470.45
540.11	374.49
540.28	475.13
540.44	468.11
540.61	397.89
540.78	461.09
540.95	428.32
541.12	442.36
541.29	376.83
541.46	414.27
541.62	402.57
541.79	461.09
541.96	388.53
542.13	409.59
542.30	423.64
542.47	461.09
542.63	465.77
542.80	407.25
542.97	458.74
543.14	458.74
543.31	379.17
543.48	395.55
543.64	390.87
543.81	416.62
543.98	400.23
544.15	430.66
544.32	465.77
544.48	447.04
544.65	416.62
544.82	379.17
544.99	428.32
545.16	365.12
545.32	433.00
545.49	535.98
545.66	393.21
545.83	479.81
546.00	397.89
546.16	442.36
546.33	411.93
546.50	425.98
546.67	465.77
546.83	402.57
547.00	435.34
547.17	416.62
547.34	367.46
547.50	369.80
547.67	372.15
547.84	402.57
548.00	440.02
548.17	365.12
548.34	496.19
548.51	376.83
548.67	486.83
548.84	414.27
549.01	486.83
549.18	465.77
549.34	482.15
549.51	381.51
549.68	374.49
549.84	437.68
550.01	437.68
550.18	409.59
550.34	517.26
550.51	430.66
550.68	468.11
550.84	372.15
551.01	444.70
551.18	430.66
551.34	482.15
551.51	479.81
551.68	465.77
551.84	379.17
552.01	414.27
552.18	463.43
552.34	482.15
552.51	393.21
552.68	402.57
552.84	451.72
553.01	433.00
553.18	428.32
553.34	407.25
553.51	472.79
553.67	425.98
553.84	510.24
554.01	425.98
554.17	456.40
554.34	444.70
554.51	421.30
554.67	444.70
554.84	430.66
555.00	433.00
555.17	428.32
555.33	376.83
555.50	447.04
555.67	416.62
555.83	428.32
556.00	430.66
556.16	543.00
556.33	491.51
556.50	358.10
556.66	500.87
556.83	411.93
556.99	390.87
557.16	390.87
557.32	496.19
557.49	447.04
557.65	449.38
557.82	374.49
557.98	402.57
558.15	423.64
558.32	433.00
558.48	416.62
558.65	470.45
558.81	435.34
558.98	411.93
559.14	425.98
559.31	458.74
559.47	449.38
559.64	428.32
559.80	475.13
559.97	402.57
560.13	393.21
560.30	440.02
560.46	414.27
560.63	395.55
560.79	411.93
560.96	402.57
561.12	444.70
561.29	463.43
561.45	425.98
561.61	505.56
561.78	519.60
561.94	461.09
562.11	435.34
562.27	379.17
562.44	397.89
562.60	397.89
562.77	390.87
562.93	367.46
563.10	402.57
563.26	381.51
563.42	437.68
563.59	430.66
563.75	451.72
563.92	477.47
564.08	451.72
564.24	440.02
564.41	496.19
564.57	390.87
564.74	430.66
564.90	458.74
565.07	475.13
565.23	454.06
565.39	404.91
565.56	416.62
565.72	423.64
565.88	390.87
566.05	449.38
566.21	351.08
566.38	407.25
566.54	449.38
566.70	360.44
566.87	397.89
567.03	444.70
567.19	440.02
567.36	369.80
567.52	425.98
567.68	423.64
567.85	479.81
568.01	367.46
568.17	393.21
568.34	353.42
568.50	440.02
568.66	437.68
568.83	454.06
568.99	444.70
569.15	458.74
569.32	390.87
569.48	437.68
569.64	411.93
569.81	461.09
569.97	442.36
570.13	365.12
570.30	379.17
570.46	397.89
570.62	411.93
570.78	407.25
570.95	418.96
571.11	430.66
571.27	475.13
571.43	507.90
571.60	461.09
571.76	456.40
571.92	470.45
572.09	351.08
572.25	416.62
572.41	454.06
572.57	449.38
572.74	521.94
572.90	421.30
573.06	421.30
573.22	505.56
573.38	491.51
573.55	416.62
573.71	447.04
573.87	475.13
574.03	433.00
574.20	416.62
574.36	379.17
574.52	425.98
574.68	454.06
574.84	411.93
575.01	348.74
575.17	418.96
575.33	425.98
575.49	381.51
575.65	500.87
575.82	470.45
575.98	482.15
576.14	428.32
576.30	351.08
576.46	400.23
576.62	397.89
576.79	435.34
576.95	475.13
577.11	379.17
577.27	475.13
577.43	407.25
577.59	496.19
577.75	435.34
577.92	418.96
578.08	379.17
578.24	425.98
578.40	386.19
578.56	423.64
578.72	421.30
578.88	461.09
579.04	470.45
579.21	442.36
579.37	372.15
579.53	351.08
579.69	369.80
579.85	418.96
580.01	435.34
580.17	444.70
580.33	404.91
580.49	433.00
580.65	383.85
580.82	379.17
580.98	433.00
581.14	449.38
581.30	496.19
581.46	400.23
581.62	444.70
581.78	404.91
581.94	381.51
582.10	369.80
582.26	379.17
582.42	430.66
582.58	358.10
582.74	421.30
582.90	451.72
583.06	484.49
583.22	500.87
583.38	400.23
583.54	430.66
583.70	503.22
583.86	435.34
584.02	390.87
584.18	468.11
584.34	365.12
584.50	428.32
584.66	397.89
584.82	409.59
584.98	400.23
585.14	430.66
585.30	381.51
585.46	365.12
585.62	402.57
585.78	425.98
585.94	433.00
586.10	348.74
586.26	468.11
586.42	386.19
586.58	409.59
586.74	414.27
586.90	367.46
587.06	409.59
587.22	449.38
587.38	449.38
587.54	395.55
587.70	367.46
587.86	442.36
588.02	330.02
588.18	372.15
588.34	444.70
588.49	334.70
588.65	383.85
588.81	383.85
588.97	430.66
589.13	451.72
589.29	365.12
589.45	538.32
589.61	402.57
589.77	395.55
589.93	411.93
590.08	404.91
590.24	383.85
590.40	402.57
590.56	451.72
590.72	482.15
590.88	442.36
591.04	416.62
591.20	353.42
591.35	402.57
591.51	411.93
591.67	437.68
591.83	390.87
591.99	447.04
592.15	454.06
592.31	475.13
592.46	390.87
592.62	461.09
592.78	428.32
592.94	407.25
593.10	421.30
593.26	372.15
593.41	433.00
593.57	390.87
593.73	414.27
593.89	388.53
594.05	386.19
594.20	393.21
594.36	421.30
594.52	400.23
594.68	470.45
594.84	416.62
594.99	433.00
595.15	461.09
595.31	421.30
595.47	440.02
595.62	397.89
595.78	491.51
595.94	477.47
596.10	358.10
596.25	407.25
596.41	479.81
596.57	390.87
596.73	510.24
596.88	339.38
597.04	468.11
597.20	421.30
597.36	456.40
597.51	465.77
597.67	346.40
597.83	449.38
597.99	491.51
598.14	433.00
598.30	454.06
598.46	524.28
598.61	402.57
598.77	416.62
598.93	418.96
599.09	397.89
599.24	433.00
599.40	409.59
599.56	428.32
599.71	416.62
599.87	475.13
600.03	425.98
600.18	416.62
600.34	454.06
600.50	442.36
600.65	416.62
600.81	468.11
600.97	388.53
601.12	428.32
601.28	465.77
601.44	430.66
601.59	381.51
601.75	383.85
601.91	353.42
602.06	454.06
602.22	416.62
602.37	393.21
602.53	348.74
602.69	461.09
602.84	442.36
603.00	332.36
603.16	498.53
603.31	475.13
603.47	367.46
603.62	428.32
603.78	430.66
603.94	404.91
604.09	463.43
604.25	425.98
604.40	435.34
604.56	435.34
604.71	437.68
604.87	465.77
605.03	409.59
605.18	404.91
605.34	435.34
605.49	416.62
605.65	433.00
605.80	330.02
605.96	285.55
606.12	458.74
606.27	435.34
606.43	428.32
606.58	407.25
606.74	461.09
606.89	437.68
607.05	444.70
607.20	409.59
607.36	393.21
607.51	433.00
607.67	397.89
607.82	402.57
607.98	423.64
608.13	423.64
608.29	428.32
608.44	449.38
608.60	374.49
608.75	456.40
608.91	484.49
609.06	472.79
609.22	442.36
609.37	402.57
609.53	435.34
609.68	402.57
609.84	430.66
609.99	407.25
610.15	383.85
610.30	381.51
610.46	416.62
610.61	440.02
610.76	393.21
610.92	456.40
611.07	379.17
611.23	477.47
611.38	498.53
611.54	454.06
611.69	433.00
611.84	411.93
612.00	395.55
612.15	409.59
612.31	444.70
612.46	447.04
612.62	411.93
612.77	472.79
612.92	409.59
613.08	435.34
613.23	381.51
613.39	414.27
613.54	465.77
613.69	407.25
613.85	351.08
614.00	374.49
614.15	379.17
614.31	491.51
614.46	461.09
614.62	397.89
614.77	454.06
614.92	367.46
615.08	484.49
615.23	463.43
615.38	374.49
615.54	479.81
615.69	395.55
615.84	393.21
616.00	411.93
616.15	393.21
616.30	430.66
616.46	393.21
616.61	383.85
616.76	414.27
616.92	435.34
617.07	416.62
617.22	423.64
617.37	425.98
617.53	428.32
617.68	294.91
617.83	411.93
617.99	428.32
618.14	482.15
618.29	440.02
618.45	416.62
618.60	454.06
618.75	294.91
618.90	351.08
619.06	383.85
619.21	421.30
619.36	390.87
619.51	430.66
619.67	397.89
619.82	421.30
619.97	404.91
620.12	421.30
620.28	388.53
620.43	454.06
620.58	402.57
620.73	435.34
620.89	454.06
621.04	463.43
621.19	498.53
621.34	414.27
621.49	435.34
621.65	423.64
621.80	463.43
621.95	456.40
622.10	425.98
622.25	435.34
622.41	428.32
622.56	461.09
622.71	472.79
622.86	402.57
623.01	395.55
623.16	444.70
623.32	425.98
623.47	489.17
623.62	402.57
623.77	477.47
623.92	454.06
624.07	470.45
624.23	484.49
624.38	486.83
624.53	423.64
624.68	407.25
624.83	458.74
624.98	418.96
625.13	393.21
625.29	435.34
625.44	458.74
625.59	428.32
625.74	418.96
625.89	472.79
626.04	447.04
626.19	433.00
626.34	440.02
626.49	468.11
626.65	390.87
626.80	400.23
626.95	437.68
627.10	418.96
627.25	360.44
627.40	393.21
627.55	447.04
627.70	442.36
627.85	369.80
628.00	411.93
628.15	447.04
628.30	367.46
628.45	489.17
628.60	362.78
628.76	367.46
628.91	416.62
629.06	404.91
629.21	383.85
629.36	475.13
629.51	386.19
629.66	454.06
629.81	430.66
629.96	468.11
630.11	409.59
630.26	409.59
630.41	425.98
630.56	437.68
630.71	425.98
630.86	411.93
631.01	407.25
631.16	400.23
631.31	367.46
631.46	463.43
631.61	433.00
631.76	484.49
631.91	400.23
632.06	397.89
632.21	451.72
632.36	409.59
632.51	425.98
632.66	475.13
632.81	425.98
632.96	355.76
633.10	379.17
633.25	486.83
633.40	379.17
633.55	428.32
633.70	416.62
633.85	430.66
634.00	465.77
634.15	461.09
634.30	430.66
634.45	393.21
634.60	386.19
634.75	423.64
634.90	395.55
635.05	362.78
635.19	411.93
635.34	402.57
635.49	461.09
635.64	379.17
635.79	414.27
635.94	414.27
636.09	465.77
636.24	449.38
636.39	454.06
636.53	454.06
636.68	479.81
636.83	404.91
636.98	503.22
637.13	407.25
637.28	475.13
637.43	411.93
637.57	428.32
637.72	433.00
637.87	475.13
638.02	404.91
638.17	376.83
638.32	435.34
638.46	425.98
638.61	484.49
638.76	365.12
638.91	400.23
639.06	435.34
639.20	435.34
639.35	458.74
639.50	421.30
639.65	425.98
639.80	358.10
639.94	365.12
640.09	472.79
640.24	454.06
640.39	454.06
640.54	409.59
640.68	414.27
640.83	414.27
640.98	463.43
641.13	489.17
641.27	430.66
641.42	435.34
641.57	463.43
641.72	456.40
641.86	409.59
642.01	418.96
642.16	447.04
642.31	381.51
642.45	376.83
642.60	418.96
642.75	393.21
642.90	435.34
643.04	369.80
643.19	318.31
643.34	423.64
643.48	367.46
643.63	496.19
643.78	423.64
643.93	475.13
644.07	468.11
644.22	407.25
644.37	339.38
644.51	454.06
644.66	461.09
644.81	447.04
644.95	407.25
645.10	407.25
645.25	479.81
645.39	482.15
645.54	428.32
645.69	451.72
645.83	421.30
645.98	533.64
646.13	425.98
646.27	454.06
646.42	430.66
646.57	418.96
646.71	348.74
646.86	416.62
647.00	360.44
647.15	435.34
647.30	369.80
647.44	414.27
647.59	397.89
647.74	404.91
647.88	472.79
648.03	479.81
648.17	428.32
648.32	376.83
648.47	484.49
648.61	421.30
648.76	411.93
648.90	433.00
649.05	421.30
649.20	311.29
649.34	463.43
649.49	414.27
649.63	332.36
649.78	402.57
649.92	404.91
650.07	381.51
650.21	383.85
650.36	409.59
650.51	414.27
650.65	411.93
650.80	411.93
650.94	500.87
651.09	411.93
651.23	395.55
651.38	400.23
651.52	390.87
651.67	433.00
651.81	475.13
651.96	461.09
652.10	482.15
652.25	381.51
652.39	482.15
652.54	400.23
652.68	395.55
652.83	437.68
652.97	449.38
653.12	482.15
653.26	444.70
653.41	411.93
653.55	416.62
653.70	463.43
653.84	486.83
653.99	409.59
654.13	517.26
654.27	491.51
654.42	393.21
654.56	444.70
654.71	435.34
654.85	379.17
655.00	444.70
655.14	353.42
655.29	374.49
655.43	430.66
655.57	433.00
655.72	423.64
655.86	404.91
656.01	423.64
656.15	418.96
656.30	444.70
656.44	372.15
656.58	456.40
656.73	479.81
656.87	367.46
657.01	397.89
657.16	407.25
657.30	418.96
657.45	519.60
657.59	416.62
657.73	468.11
657.88	451.72
658.02	543.00
658.16	409.59
658.31	463.43
658.45	360.44
658.60	390.87
658.74	433.00
658.88	367.46
659.03	355.76
659.17	442.36
659.31	367.46
659.46	470.45
659.60	449.38
659.74	493.85
659.89	477.47
660.03	430.66
660.17	482.15
660.32	475.13
660.46	440.02
660.60	444.70
660.74	496.19
660.89	472.79
661.03	353.42
661.17	454.06
661.32	379.17
661.46	393.21
661.60	409.59
661.74	451.72
661.89	400.23
662.03	393.21
662.17	390.87
662.31	409.59
662.46	367.46
662.60	346.40
662.74	379.17
662.88	477.47
663.03	440.02
663.17	414.27
663.31	447.04
663.45	435.34
663.60	402.57
663.74	454.06
663.88	365.12
664.02	421.30
664.17	365.12
664.31	346.40
664.45	447.04
664.59	386.19
664.73	465.77
664.88	416.62
665.02	376.83
665.16	397.89
665.30	435.34
665.44	435.34
665.59	376.83
665.73	395.55
665.87	454.06
666.01	449.38
666.15	430.66
666.29	390.87
666.44	440.02
666.58	421.30
666.72	332.36
666.86	346.40
667.00	423.64
667.14	379.17
667.28	418.96
667.43	397.89
667.57	507.90
667.71	365.12
667.85	374.49
667.99	416.62
668.13	475.13
668.27	414.27
668.41	351.08
668.56	437.68
668.70	498.53
668.84	416.62
668.98	388.53
669.12	376.83
669.26	407.25
669.40	454.06
669.54	458.74
669.68	456.40
669.82	435.34
669.96	409.59
670.10	458.74
670.25	477.47
670.39	386.19
670.53	397.89
670.67	402.57
670.81	430.66
670.95	409.59
671.09	330.02
671.23	421.30
671.37	440.02
671.51	346.40
671.65	435.34
671.79	423.64
671.93	409.59
672.07	479.81
672.21	461.09
672.35	383.85
672.49	461.09
672.63	369.80
672.77	435.34
672.91	437.68
673.05	449.38
673.19	339.38
673.33	409.59
673.47	442.36
673.61	465.77
673.75	400.23
673.89	447.04
674.03	418.96
674.17	449.38
674.31	493.85
674.45	416.62
674.59	407.25
674.73	423.64
674.87	435.34
675.01	454.06
675.15	475.13
675.29	437.68
675.43	444.70
675.56	468.11
675.70	496.19
675.84	411.93
675.98	458.74
676.12	440.02
676.26	402.57
676.40	386.19
676.54	440.02
676.68	388.53
676.82	404.91
676.96	418.96
677.10	397.89
677.23	404.91
677.37	390.87
677.51	418.96
677.65	454.06
677.79	393.21
677.93	416.62
678.07	437.68
678.21	409.59
678.34	404.91
678.48	397.89
678.62	402.57
678.76	360.44
678.90	397.89
679.04	376.83
679.18	367.46
679.31	367.46
679.45	400.23
679.59	430.66
679.73	435.34
679.87	423.64
680.00	381.51
680.14	421.30
680.28	386.19
680.42	463.43
680.56	425.98
680.70	416.62
680.83	360.44
680.97	428.32
681.11	425.98
681.25	447.04
681.39	461.09
681.52	470.45
681.66	437.68
681.80	379.17
681.94	395.55
682.07	407.25
682.21	479.81
682.35	440.02
682.49	355.76
682.62	379.17
682.76	433.00
682.90	454.06
683.04	433.00
683.17	500.87
683.31	369.80
683.45	372.15
683.59	404.91
683.72	435.34
683.86	409.59
684.00	407.25
684.13	353.42
684.27	449.38
684.41	395.55
684.55	374.49
684.68	416.62
684.82	433.00
684.96	428.32
685.09	397.89
685.23	444.70
685.37	423.64
685.50	437.68
685.64	414.27
685.78	400.23
685.91	500.87
686.05	393.21
686.19	386.19
686.32	407.25
686.46	353.42
686.60	458.74
686.73	437.68
686.87	451.72
687.01	404.91
687.14	388.53
687.28	379.17
687.42	369.80
687.55	395.55
687.69	390.87
687.82	407.25
687.96	411.93
688.10	374.49
688.23	315.97
688.37	440.02
688.50	376.83
688.64	414.27
688.78	393.21
688.91	463.43
689.05	414.27
689.18	395.55
689.32	433.00
689.46	440.02
689.59	463.43
689.73	461.09
689.86	414.27
690.00	421.30
690.13	397.89
690.27	423.64
690.41	414.27
690.54	404.91
690.68	416.62
690.81	374.49
690.95	362.78
691.08	430.66
691.22	477.47
691.35	411.93
691.49	416.62
691.62	400.23
691.76	402.57
691.89	374.49
692.03	416.62
692.16	421.30
692.30	360.44
692.43	430.66
692.57	428.32
692.70	461.09
692.84	454.06
692.97	418.96
693.11	402.57
693.24	376.83
693.38	362.78
693.51	393.21
693.65	402.57
693.78	437.68
693.92	369.80
694.05	486.83
694.19	437.68
694.32	421.30
694.45	390.87
694.59	475.13
694.72	479.81
694.86	395.55
694.99	411.93
695.13	330.02
695.26	423.64
695.39	435.34
695.53	404.91
695.66	430.66
695.80	461.09
695.93	444.70
696.07	421.30
696.20	402.57
696.33	418.96
696.47	376.83
696.60	388.53
696.73	411.93
696.87	367.46
697.00	500.87
697.14	414.27
697.27	407.25
697.40	444.70
697.54	400.23
697.67	409.59
697.80	435.34
697.94	404.91
698.07	433.00
698.21	383.85
698.34	381.51
698.47	400.23
698.61	381.51
698.74	367.46
698.87	404.91
699.01	470.45
699.14	458.74
699.27	437.68
699.40	500.87
699.54	386.19
699.67	386.19
699.80	407.25
699.94	341.72
700.07	528.96
700.20	411.93
700.34	418.96
700.47	379.17
700.60	463.43
700.73	442.36
700.87	461.09
701.00	428.32
701.13	358.10
701.26	397.89
701.40	341.72
701.53	397.89
701.66	428.32
701.79	388.53
701.93	451.72
702.06	393.21
702.19	400.23
702.32	433.00
702.46	477.47
702.59	407.25
702.72	346.40
702.85	430.66
702.99	447.04
703.12	440.02
703.25	433.00
703.38	411.93
703.51	463.43
703.65	407.25
703.78	416.62
703.91	449.38
704.04	425.98
704.17	449.38
704.31	372.15
704.44	407.25
704.57	447.04
704.70	468.11
704.83	404.91
704.96	376.83
705.10	433.00
705.23	435.34
>>>>>End Processed Spectral Data<<<<<
