SpectraSuite Data File
++++++++++++++++++++++++++++++++++++
Date: Fri Oct 25 12:10:43 EDT 2013
User: price-jones
Dark Spectrum Present: No
Reference Spectrum Present: No
Number of Sampled Component Spectra: 1
Spectrometers: USB2+H05261
Integration Time (usec): 100000 (USB2+H05261)
Spectra Averaged: 1 (USB2+H05261)
Boxcar Smoothing: 0 (USB2+H05261)
Correct for Electrical Dark: No (USB2+H05261)
Strobe/Lamp Enabled: No (USB2+H05261)
Correct for Detector Non-linearity: No (USB2+H05261)
Correct for Stray Light: No (USB2+H05261)
Number of Pixels in Processed Spectrum: 2048
>>>>>Begin Processed Spectral Data<<<<<
365.73	301.93
365.92	301.93
366.12	301.93
366.32	168.52
366.52	220.01
366.72	262.14
366.91	203.63
367.11	252.78
367.31	212.99
367.51	234.05
367.70	250.44
367.90	189.58
368.10	311.29
368.30	234.05
368.49	266.82
368.69	273.84
368.89	271.50
369.09	301.93
369.28	341.72
369.48	285.55
369.68	248.10
369.87	290.23
370.07	220.01
370.27	355.76
370.47	327.68
370.66	269.16
370.86	425.98
371.06	383.85
371.25	386.19
371.45	376.83
371.65	409.59
371.84	409.59
372.04	351.08
372.24	353.42
372.44	430.66
372.63	369.80
372.83	414.27
373.03	390.87
373.22	355.76
373.42	400.23
373.62	365.12
373.81	418.96
374.01	451.72
374.21	458.74
374.40	407.25
374.60	374.49
374.79	402.57
374.99	435.34
375.19	409.59
375.38	381.51
375.58	360.44
375.78	449.38
375.97	461.09
376.17	404.91
376.37	418.96
376.56	367.46
376.76	355.76
376.95	423.64
377.15	407.25
377.35	407.25
377.54	428.32
377.74	423.64
377.93	393.21
378.13	437.68
378.33	472.79
378.52	402.57
378.72	454.06
378.91	423.64
379.11	395.55
379.31	407.25
379.50	416.62
379.70	414.27
379.89	411.93
380.09	442.36
380.28	360.44
380.48	379.17
380.68	362.78
380.87	388.53
381.07	365.12
381.26	486.83
381.46	379.17
381.65	409.59
381.85	353.42
382.04	383.85
382.24	404.91
382.43	379.17
382.63	395.55
382.83	358.10
383.02	430.66
383.22	423.64
383.41	407.25
383.61	365.12
383.80	383.85
384.00	334.70
384.19	383.85
384.39	376.83
384.58	367.46
384.78	414.27
384.97	407.25
385.17	442.36
385.36	397.89
385.56	402.57
385.75	407.25
385.95	402.57
386.14	393.21
386.34	395.55
386.53	383.85
386.72	404.91
386.92	358.10
387.11	423.64
387.31	442.36
387.50	395.55
387.70	421.30
387.89	425.98
388.09	383.85
388.28	435.34
388.48	355.76
388.67	421.30
388.86	414.27
389.06	411.93
389.25	458.74
389.45	416.62
389.64	423.64
389.84	334.70
390.03	386.19
390.22	400.23
390.42	358.10
390.61	433.00
390.81	454.06
391.00	449.38
391.19	428.32
391.39	393.21
391.58	449.38
391.78	362.78
391.97	383.85
392.16	451.72
392.36	402.57
392.55	379.17
392.75	425.98
392.94	402.57
393.13	421.30
393.33	362.78
393.52	379.17
393.71	395.55
393.91	442.36
394.10	449.38
394.29	421.30
394.49	418.96
394.68	440.02
394.88	416.62
395.07	383.85
395.26	454.06
395.46	397.89
395.65	414.27
395.84	355.76
396.04	454.06
396.23	435.34
396.42	418.96
396.62	470.45
396.81	388.53
397.00	386.19
397.19	367.46
397.39	421.30
397.58	402.57
397.77	440.02
397.97	402.57
398.16	458.74
398.35	404.91
398.55	390.87
398.74	330.02
398.93	407.25
399.12	477.47
399.32	463.43
399.51	444.70
399.70	418.96
399.90	360.44
400.09	355.76
400.28	379.17
400.47	418.96
400.67	482.15
400.86	458.74
401.05	423.64
401.24	362.78
401.44	346.40
401.63	458.74
401.82	414.27
402.01	327.68
402.21	374.49
402.40	365.12
402.59	381.51
402.78	397.89
402.97	440.02
403.17	421.30
403.36	414.27
403.55	416.62
403.74	421.30
403.93	423.64
404.13	421.30
404.32	374.49
404.51	449.38
404.70	400.23
404.89	458.74
405.09	444.70
405.28	414.27
405.47	379.17
405.66	433.00
405.85	465.77
406.05	320.65
406.24	362.78
406.43	397.89
406.62	369.80
406.81	449.38
407.00	468.11
407.20	449.38
407.39	428.32
407.58	411.93
407.77	353.42
407.96	428.32
408.15	383.85
408.34	500.87
408.54	411.93
408.73	402.57
408.92	367.46
409.11	425.98
409.30	430.66
409.49	411.93
409.68	367.46
409.87	341.72
410.07	402.57
410.26	390.87
410.45	339.38
410.64	428.32
410.83	390.87
411.02	470.45
411.21	369.80
411.40	390.87
411.59	367.46
411.78	435.34
411.98	423.64
412.17	388.53
412.36	346.40
412.55	355.76
412.74	390.87
412.93	397.89
413.12	411.93
413.31	404.91
413.50	390.87
413.69	425.98
413.88	472.79
414.07	463.43
414.26	428.32
414.45	451.72
414.64	442.36
414.83	456.40
415.02	444.70
415.22	433.00
415.41	449.38
415.60	414.27
415.79	386.19
415.98	449.38
416.17	372.15
416.36	381.51
416.55	421.30
416.74	390.87
416.93	447.04
417.12	409.59
417.31	468.11
417.50	423.64
417.69	397.89
417.88	388.53
418.07	334.70
418.26	400.23
418.45	449.38
418.64	395.55
418.83	358.10
419.02	416.62
419.21	367.46
419.39	388.53
419.58	358.10
419.77	418.96
419.96	444.70
420.15	430.66
420.34	433.00
420.53	444.70
420.72	454.06
420.91	388.53
421.10	411.93
421.29	376.83
421.48	430.66
421.67	461.09
421.86	376.83
422.05	362.78
422.24	365.12
422.43	425.98
422.61	409.59
422.80	425.98
422.99	367.46
423.18	341.72
423.37	444.70
423.56	442.36
423.75	482.15
423.94	428.32
424.13	388.53
424.32	362.78
424.50	456.40
424.69	444.70
424.88	423.64
425.07	414.27
425.26	489.17
425.45	411.93
425.64	447.04
425.83	416.62
426.01	470.45
426.20	360.44
426.39	397.89
426.58	404.91
426.77	461.09
426.96	437.68
427.15	430.66
427.33	461.09
427.52	435.34
427.71	416.62
427.90	395.55
428.09	430.66
428.28	367.46
428.46	416.62
428.65	388.53
428.84	381.51
429.03	414.27
429.22	514.92
429.40	444.70
429.59	360.44
429.78	430.66
429.97	386.19
430.16	372.15
430.34	397.89
430.53	416.62
430.72	381.51
430.91	451.72
431.10	369.80
431.28	416.62
431.47	437.68
431.66	435.34
431.85	341.72
432.03	407.25
432.22	423.64
432.41	454.06
432.60	440.02
432.79	435.34
432.97	423.64
433.16	400.23
433.35	367.46
433.54	397.89
433.72	484.49
433.91	430.66
434.10	425.98
434.28	414.27
434.47	428.32
434.66	477.47
434.85	435.34
435.03	372.15
435.22	475.13
435.41	468.11
435.59	465.77
435.78	390.87
435.97	393.21
436.16	444.70
436.34	395.55
436.53	409.59
436.72	397.89
436.90	449.38
437.09	435.34
437.28	383.85
437.46	428.32
437.65	437.68
437.84	423.64
438.02	402.57
438.21	472.79
438.40	421.30
438.58	358.10
438.77	365.12
438.96	407.25
439.14	400.23
439.33	418.96
439.52	376.83
439.70	409.59
439.89	437.68
440.08	379.17
440.26	465.77
440.45	470.45
440.63	397.89
440.82	421.30
441.01	456.40
441.19	414.27
441.38	472.79
441.57	411.93
441.75	433.00
441.94	430.66
442.12	409.59
442.31	444.70
442.50	458.74
442.68	416.62
442.87	428.32
443.05	355.76
443.24	440.02
443.43	442.36
443.61	416.62
443.80	496.19
443.98	442.36
444.17	402.57
444.35	376.83
444.54	425.98
444.73	416.62
444.91	442.36
445.10	360.44
445.28	383.85
445.47	365.12
445.65	451.72
445.84	407.25
446.02	500.87
446.21	456.40
446.39	442.36
446.58	416.62
446.77	362.78
446.95	423.64
447.14	475.13
447.32	433.00
447.51	423.64
447.69	428.32
447.88	416.62
448.06	477.47
448.25	397.89
448.43	430.66
448.62	435.34
448.80	498.53
448.99	404.91
449.17	351.08
449.36	360.44
449.54	430.66
449.73	437.68
449.91	409.59
450.10	390.87
450.28	472.79
450.46	451.72
450.65	416.62
450.83	425.98
451.02	395.55
451.20	416.62
451.39	397.89
451.57	454.06
451.76	402.57
451.94	386.19
452.13	376.83
452.31	472.79
452.49	414.27
452.68	386.19
452.86	425.98
453.05	444.70
453.23	395.55
453.42	440.02
453.60	454.06
453.78	428.32
453.97	428.32
454.15	407.25
454.34	376.83
454.52	486.83
454.70	454.06
454.89	437.68
455.07	425.98
455.26	423.64
455.44	451.72
455.62	437.68
455.81	447.04
455.99	388.53
456.17	411.93
456.36	449.38
456.54	437.68
456.73	374.49
456.91	369.80
457.09	393.21
457.28	442.36
457.46	390.87
457.64	397.89
457.83	397.89
458.01	430.66
458.19	423.64
458.38	454.06
458.56	390.87
458.74	449.38
458.93	386.19
459.11	390.87
459.29	318.31
459.48	428.32
459.66	435.34
459.84	383.85
460.03	475.13
460.21	416.62
460.39	421.30
460.57	390.87
460.76	435.34
460.94	437.68
461.12	416.62
461.31	456.40
461.49	409.59
461.67	407.25
461.85	404.91
462.04	320.65
462.22	730.25
462.40	449.38
462.59	465.77
462.77	388.53
462.95	421.30
463.13	454.06
463.32	444.70
463.50	341.72
463.68	365.12
463.86	444.70
464.05	400.23
464.23	454.06
464.41	451.72
464.59	379.17
464.78	414.27
464.96	337.04
465.14	456.40
465.32	327.68
465.50	428.32
465.69	454.06
465.87	433.00
466.05	400.23
466.23	421.30
466.41	332.36
466.60	390.87
466.78	388.53
466.96	512.58
467.14	477.47
467.32	409.59
467.51	421.30
467.69	416.62
467.87	465.77
468.05	414.27
468.23	425.98
468.41	409.59
468.60	386.19
468.78	407.25
468.96	444.70
469.14	383.85
469.32	402.57
469.50	482.15
469.69	404.91
469.87	383.85
470.05	404.91
470.23	400.23
470.41	372.15
470.59	397.89
470.77	454.06
470.95	400.23
471.14	430.66
471.32	442.36
471.50	510.24
471.68	421.30
471.86	493.85
472.04	369.80
472.22	381.51
472.40	461.09
472.58	390.87
472.77	360.44
472.95	315.97
473.13	442.36
473.31	390.87
473.49	374.49
473.67	449.38
473.85	407.25
474.03	416.62
474.21	402.57
474.39	463.43
474.57	440.02
474.75	418.96
474.93	433.00
475.12	334.70
475.30	418.96
475.48	447.04
475.66	395.55
475.84	444.70
476.02	425.98
476.20	456.40
476.38	376.83
476.56	442.36
476.74	437.68
476.92	376.83
477.10	421.30
477.28	390.87
477.46	418.96
477.64	407.25
477.82	388.53
478.00	393.21
478.18	433.00
478.36	428.32
478.54	433.00
478.72	496.19
478.90	397.89
479.08	376.83
479.26	421.30
479.44	388.53
479.62	409.59
479.80	388.53
479.98	383.85
480.16	470.45
480.34	414.27
480.52	430.66
480.70	461.09
480.88	369.80
481.06	458.74
481.24	440.02
481.41	407.25
481.59	372.15
481.77	414.27
481.95	409.59
482.13	458.74
482.31	358.10
482.49	414.27
482.67	379.17
482.85	402.57
483.03	411.93
483.21	386.19
483.39	379.17
483.57	493.85
483.74	540.66
483.92	425.98
484.10	421.30
484.28	430.66
484.46	454.06
484.64	400.23
484.82	351.08
485.00	442.36
485.18	411.93
485.35	414.27
485.53	404.91
485.71	528.96
485.89	379.17
486.07	447.04
486.25	461.09
486.43	374.49
486.61	402.57
486.78	402.57
486.96	425.98
487.14	404.91
487.32	430.66
487.50	440.02
487.68	379.17
487.85	353.42
488.03	433.00
488.21	360.44
488.39	430.66
488.57	470.45
488.75	442.36
488.92	550.03
489.10	435.34
489.28	440.02
489.46	372.15
489.64	402.57
489.81	479.81
489.99	444.70
490.17	407.25
490.35	430.66
490.53	461.09
490.70	369.80
490.88	372.15
491.06	393.21
491.24	372.15
491.41	512.58
491.59	369.80
491.77	362.78
491.95	440.02
492.13	367.46
492.30	362.78
492.48	379.17
492.66	411.93
492.84	393.21
493.01	402.57
493.19	449.38
493.37	503.22
493.54	456.40
493.72	367.46
493.90	421.30
494.08	454.06
494.25	505.56
494.43	411.93
494.61	407.25
494.79	440.02
494.96	374.49
495.14	414.27
495.32	472.79
495.49	440.02
495.67	421.30
495.85	407.25
496.02	477.47
496.20	463.43
496.38	423.64
496.55	383.85
496.73	440.02
496.91	358.10
497.09	409.59
497.26	381.51
497.44	376.83
497.62	428.32
497.79	444.70
497.97	447.04
498.14	482.15
498.32	376.83
498.50	470.45
498.67	458.74
498.85	318.31
499.03	421.30
499.20	451.72
499.38	369.80
499.56	425.98
499.73	437.68
499.91	379.17
500.08	456.40
500.26	416.62
500.44	416.62
500.61	397.89
500.79	428.32
500.97	416.62
501.14	437.68
501.32	334.70
501.49	454.06
501.67	486.83
501.84	416.62
502.02	454.06
502.20	433.00
502.37	507.90
502.55	395.55
502.72	407.25
502.90	395.55
503.07	486.83
503.25	397.89
503.43	425.98
503.60	479.81
503.78	465.77
503.95	411.93
504.13	397.89
504.30	416.62
504.48	409.59
504.65	451.72
504.83	397.89
505.01	388.53
505.18	407.25
505.36	390.87
505.53	437.68
505.71	444.70
505.88	425.98
506.06	414.27
506.23	404.91
506.41	507.90
506.58	425.98
506.76	449.38
506.93	416.62
507.11	416.62
507.28	383.85
507.46	386.19
507.63	416.62
507.81	435.34
507.98	379.17
508.16	383.85
508.33	433.00
508.50	407.25
508.68	393.21
508.85	414.27
509.03	437.68
509.20	433.00
509.38	409.59
509.55	440.02
509.73	365.12
509.90	430.66
510.08	390.87
510.25	358.10
510.42	444.70
510.60	400.23
510.77	407.25
510.95	554.71
511.12	393.21
511.30	475.13
511.47	358.10
511.64	489.17
511.82	425.98
511.99	458.74
512.17	411.93
512.34	390.87
512.51	423.64
512.69	437.68
512.86	428.32
513.04	444.70
513.21	430.66
513.38	472.79
513.56	407.25
513.73	393.21
513.90	435.34
514.08	435.34
514.25	416.62
514.43	468.11
514.60	416.62
514.77	433.00
514.95	428.32
515.12	390.87
515.29	348.74
515.47	414.27
515.64	390.87
515.81	433.00
515.99	402.57
516.16	400.23
516.33	388.53
516.51	355.76
516.68	353.42
516.85	374.49
517.03	435.34
517.20	451.72
517.37	425.98
517.54	430.66
517.72	468.11
517.89	418.96
518.06	404.91
518.24	454.06
518.41	430.66
518.58	428.32
518.75	463.43
518.93	468.11
519.10	409.59
519.27	379.17
519.45	423.64
519.62	440.02
519.79	393.21
519.96	418.96
520.14	418.96
520.31	514.92
520.48	390.87
520.65	397.89
520.83	442.36
521.00	458.74
521.17	437.68
521.34	472.79
521.52	421.30
521.69	489.17
521.86	433.00
522.03	451.72
522.20	482.15
522.38	355.76
522.55	444.70
522.72	334.70
522.89	393.21
523.07	472.79
523.24	458.74
523.41	425.98
523.58	440.02
523.75	388.53
523.92	404.91
524.10	486.83
524.27	423.64
524.44	344.06
524.61	409.59
524.78	369.80
524.96	470.45
525.13	388.53
525.30	418.96
525.47	435.34
525.64	416.62
525.81	402.57
525.98	395.55
526.16	482.15
526.33	423.64
526.50	369.80
526.67	369.80
526.84	381.51
527.01	458.74
527.18	472.79
527.36	365.12
527.53	435.34
527.70	456.40
527.87	411.93
528.04	461.09
528.21	409.59
528.38	461.09
528.55	463.43
528.72	365.12
528.89	496.19
529.07	454.06
529.24	433.00
529.41	376.83
529.58	458.74
529.75	393.21
529.92	416.62
530.09	465.77
530.26	503.22
530.43	404.91
530.60	425.98
530.77	447.04
530.94	400.23
531.11	458.74
531.28	381.51
531.46	390.87
531.63	454.06
531.80	423.64
531.97	369.80
532.14	362.78
532.31	407.25
532.48	430.66
532.65	442.36
532.82	437.68
532.99	381.51
533.16	381.51
533.33	393.21
533.50	376.83
533.67	440.02
533.84	486.83
534.01	484.49
534.18	465.77
534.35	465.77
534.52	404.91
534.69	421.30
534.86	433.00
535.03	425.98
535.20	409.59
535.37	346.40
535.54	400.23
535.71	477.47
535.88	444.70
536.05	425.98
536.22	393.21
536.38	435.34
536.55	346.40
536.72	444.70
536.89	409.59
537.06	395.55
537.23	379.17
537.40	395.55
537.57	454.06
537.74	519.60
537.91	418.96
538.08	416.62
538.25	421.30
538.42	383.85
538.59	418.96
538.75	397.89
538.92	388.53
539.09	397.89
539.26	423.64
539.43	468.11
539.60	510.24
539.77	437.68
539.94	442.36
540.11	440.02
540.28	451.72
540.44	407.25
540.61	402.57
540.78	404.91
540.95	451.72
541.12	449.38
541.29	496.19
541.46	500.87
541.62	437.68
541.79	341.72
541.96	451.72
542.13	461.09
542.30	379.17
542.47	355.76
542.63	468.11
542.80	395.55
542.97	472.79
543.14	381.51
543.31	416.62
543.48	416.62
543.64	414.27
543.81	449.38
543.98	397.89
544.15	402.57
544.32	449.38
544.48	430.66
544.65	442.36
544.82	379.17
544.99	400.23
545.16	463.43
545.32	421.30
545.49	437.68
545.66	437.68
545.83	383.85
546.00	400.23
546.16	416.62
546.33	330.02
546.50	381.51
546.67	444.70
546.83	322.99
547.00	397.89
547.17	423.64
547.34	346.40
547.50	358.10
547.67	428.32
547.84	379.17
548.00	409.59
548.17	395.55
548.34	395.55
548.51	465.77
548.67	428.32
548.84	400.23
549.01	463.43
549.18	379.17
549.34	402.57
549.51	322.99
549.68	435.34
549.84	454.06
550.01	404.91
550.18	491.51
550.34	543.00
550.51	409.59
550.68	442.36
550.84	430.66
551.01	458.74
551.18	442.36
551.34	393.21
551.51	388.53
551.68	416.62
551.84	379.17
552.01	397.89
552.18	397.89
552.34	358.10
552.51	433.00
552.68	440.02
552.84	395.55
553.01	425.98
553.18	477.47
553.34	393.21
553.51	344.06
553.67	461.09
553.84	507.90
554.01	428.32
554.17	449.38
554.34	470.45
554.51	407.25
554.67	414.27
554.84	430.66
555.00	418.96
555.17	404.91
555.33	400.23
555.50	416.62
555.67	437.68
555.83	334.70
556.00	390.87
556.16	538.32
556.33	451.72
556.50	407.25
556.66	428.32
556.83	437.68
556.99	442.36
557.16	393.21
557.32	388.53
557.49	404.91
557.65	393.21
557.82	435.34
557.98	430.66
558.15	421.30
558.32	337.04
558.48	407.25
558.65	449.38
558.81	454.06
558.98	458.74
559.14	489.17
559.31	416.62
559.47	440.02
559.64	528.96
559.80	433.00
559.97	463.43
560.13	454.06
560.30	337.04
560.46	456.40
560.63	365.12
560.79	430.66
560.96	383.85
561.12	372.15
561.29	416.62
561.45	440.02
561.61	433.00
561.78	470.45
561.94	390.87
562.11	472.79
562.27	484.49
562.44	369.80
562.60	435.34
562.77	456.40
562.93	397.89
563.10	444.70
563.26	390.87
563.42	414.27
563.59	400.23
563.75	409.59
563.92	489.17
564.08	440.02
564.24	433.00
564.41	416.62
564.57	418.96
564.74	376.83
564.90	430.66
565.07	418.96
565.23	346.40
565.39	423.64
565.56	440.02
565.72	404.91
565.88	388.53
566.05	409.59
566.21	444.70
566.38	430.66
566.54	447.04
566.70	461.09
566.87	397.89
567.03	411.93
567.19	411.93
567.36	414.27
567.52	388.53
567.68	482.15
567.85	379.17
568.01	423.64
568.17	414.27
568.34	421.30
568.50	496.19
568.66	479.81
568.83	500.87
568.99	421.30
569.15	433.00
569.32	447.04
569.48	341.72
569.64	416.62
569.81	418.96
569.97	433.00
570.13	411.93
570.30	353.42
570.46	411.93
570.62	437.68
570.78	437.68
570.95	428.32
571.11	470.45
571.27	411.93
571.43	437.68
571.60	423.64
571.76	418.96
571.92	430.66
572.09	402.57
572.25	411.93
572.41	430.66
572.57	444.70
572.74	456.40
572.90	461.09
573.06	397.89
573.22	397.89
573.38	397.89
573.55	411.93
573.71	409.59
573.87	414.27
574.03	381.51
574.20	337.04
574.36	472.79
574.52	463.43
574.68	344.06
574.84	379.17
575.01	440.02
575.17	475.13
575.33	421.30
575.49	355.76
575.65	447.04
575.82	444.70
575.98	390.87
576.14	379.17
576.30	454.06
576.46	372.15
576.62	418.96
576.79	423.64
576.95	498.53
577.11	435.34
577.27	430.66
577.43	437.68
577.59	456.40
577.75	442.36
577.92	358.10
578.08	339.38
578.24	393.21
578.40	421.30
578.56	400.23
578.72	435.34
578.88	409.59
579.04	423.64
579.21	367.46
579.37	383.85
579.53	388.53
579.69	524.28
579.85	454.06
580.01	489.17
580.17	451.72
580.33	414.27
580.49	372.15
580.65	386.19
580.82	451.72
580.98	402.57
581.14	442.36
581.30	404.91
581.46	428.32
581.62	411.93
581.78	390.87
581.94	437.68
582.10	468.11
582.26	425.98
582.42	376.83
582.58	397.89
582.74	428.32
582.90	416.62
583.06	421.30
583.22	395.55
583.38	430.66
583.54	330.02
583.70	458.74
583.86	428.32
584.02	374.49
584.18	451.72
584.34	451.72
584.50	421.30
584.66	409.59
584.82	486.83
584.98	475.13
585.14	454.06
585.30	444.70
585.46	393.21
585.62	362.78
585.78	470.45
585.94	383.85
586.10	416.62
586.26	451.72
586.42	479.81
586.58	367.46
586.74	362.78
586.90	404.91
587.06	383.85
587.22	379.17
587.38	390.87
587.54	379.17
587.70	409.59
587.86	430.66
588.02	374.49
588.18	458.74
588.34	416.62
588.49	390.87
588.65	409.59
588.81	411.93
588.97	414.27
589.13	383.85
589.29	428.32
589.45	491.51
589.61	409.59
589.77	388.53
589.93	393.21
590.08	383.85
590.24	376.83
590.40	409.59
590.56	463.43
590.72	468.11
590.88	355.76
591.04	465.77
591.20	468.11
591.35	397.89
591.51	428.32
591.67	425.98
591.83	430.66
591.99	456.40
592.15	433.00
592.31	381.51
592.46	414.27
592.62	456.40
592.78	414.27
592.94	423.64
593.10	463.43
593.26	379.17
593.41	397.89
593.57	475.13
593.73	475.13
593.89	451.72
594.05	435.34
594.20	409.59
594.36	465.77
594.52	367.46
594.68	428.32
594.84	440.02
594.99	383.85
595.15	390.87
595.31	423.64
595.47	423.64
595.62	397.89
595.78	440.02
595.94	358.10
596.10	465.77
596.25	365.12
596.41	465.77
596.57	379.17
596.73	381.51
596.88	425.98
597.04	390.87
597.20	433.00
597.36	503.22
597.51	390.87
597.67	351.08
597.83	353.42
597.99	484.49
598.14	510.24
598.30	479.81
598.46	360.44
598.61	407.25
598.77	437.68
598.93	411.93
599.09	454.06
599.24	435.34
599.40	414.27
599.56	433.00
599.71	402.57
599.87	458.74
600.03	442.36
600.18	458.74
600.34	440.02
600.50	400.23
600.65	400.23
600.81	463.43
600.97	388.53
601.12	388.53
601.28	440.02
601.44	472.79
601.59	411.93
601.75	374.49
601.91	447.04
602.06	442.36
602.22	477.47
602.37	465.77
602.53	414.27
602.69	423.64
602.84	437.68
603.00	411.93
603.16	393.21
603.31	465.77
603.47	348.74
603.62	381.51
603.78	416.62
603.94	425.98
604.09	444.70
604.25	418.96
604.40	456.40
604.56	376.83
604.71	416.62
604.87	393.21
605.03	400.23
605.18	421.30
605.34	461.09
605.49	451.72
605.65	407.25
605.80	400.23
605.96	416.62
606.12	414.27
606.27	447.04
606.43	428.32
606.58	437.68
606.74	416.62
606.89	421.30
607.05	425.98
607.20	397.89
607.36	388.53
607.51	503.22
607.67	372.15
607.82	447.04
607.98	411.93
608.13	365.12
608.29	332.36
608.44	479.81
608.60	379.17
608.75	484.49
608.91	468.11
609.06	454.06
609.22	468.11
609.37	393.21
609.53	428.32
609.68	435.34
609.84	444.70
609.99	425.98
610.15	482.15
610.30	404.91
610.46	472.79
610.61	479.81
610.76	484.49
610.92	430.66
611.07	409.59
611.23	454.06
611.38	393.21
611.54	430.66
611.69	397.89
611.84	428.32
612.00	472.79
612.15	477.47
612.31	435.34
612.46	433.00
612.62	409.59
612.77	404.91
612.92	435.34
613.08	475.13
613.23	461.09
613.39	404.91
613.54	397.89
613.69	418.96
613.85	376.83
614.00	449.38
614.15	411.93
614.31	379.17
614.46	433.00
614.62	409.59
614.77	416.62
614.92	388.53
615.08	454.06
615.23	409.59
615.38	411.93
615.54	313.63
615.69	447.04
615.84	435.34
616.00	397.89
616.15	423.64
616.30	372.15
616.46	435.34
616.61	411.93
616.76	425.98
616.92	400.23
617.07	365.12
617.22	414.27
617.37	414.27
617.53	447.04
617.68	404.91
617.83	454.06
617.99	425.98
618.14	458.74
618.29	489.17
618.45	404.91
618.60	440.02
618.75	435.34
618.90	325.33
619.06	402.57
619.21	444.70
619.36	498.53
619.51	442.36
619.67	500.87
619.82	423.64
619.97	390.87
620.12	400.23
620.28	458.74
620.43	437.68
620.58	433.00
620.73	411.93
620.89	411.93
621.04	507.90
621.19	479.81
621.34	475.13
621.49	442.36
621.65	411.93
621.80	425.98
621.95	437.68
622.10	402.57
622.25	461.09
622.41	353.42
622.56	400.23
622.71	468.11
622.86	428.32
623.01	376.83
623.16	430.66
623.32	383.85
623.47	374.49
623.62	468.11
623.77	461.09
623.92	433.00
624.07	416.62
624.23	433.00
624.38	418.96
624.53	355.76
624.68	414.27
624.83	458.74
624.98	442.36
625.13	365.12
625.29	454.06
625.44	395.55
625.59	379.17
625.74	430.66
625.89	458.74
626.04	362.78
626.19	402.57
626.34	451.72
626.49	395.55
626.65	404.91
626.80	430.66
626.95	454.06
627.10	442.36
627.25	425.98
627.40	411.93
627.55	407.25
627.70	365.12
627.85	437.68
628.00	390.87
628.15	381.51
628.30	479.81
628.45	440.02
628.60	404.91
628.76	358.10
628.91	402.57
629.06	479.81
629.21	381.51
629.36	540.66
629.51	430.66
629.66	477.47
629.81	407.25
629.96	397.89
630.11	442.36
630.26	447.04
630.41	451.72
630.56	337.04
630.71	454.06
630.86	421.30
631.01	393.21
631.16	425.98
631.31	489.17
631.46	440.02
631.61	409.59
631.76	440.02
631.91	367.46
632.06	411.93
632.21	440.02
632.36	395.55
632.51	458.74
632.66	365.12
632.81	395.55
632.96	386.19
633.10	430.66
633.25	442.36
633.40	322.99
633.55	458.74
633.70	425.98
633.85	383.85
634.00	416.62
634.15	376.83
634.30	367.46
634.45	421.30
634.60	393.21
634.75	374.49
634.90	416.62
635.05	411.93
635.19	381.51
635.34	437.68
635.49	486.83
635.64	444.70
635.79	444.70
635.94	430.66
636.09	430.66
636.24	414.27
636.39	404.91
636.53	428.32
636.68	376.83
636.83	416.62
636.98	379.17
637.13	456.40
637.28	414.27
637.43	416.62
637.57	414.27
637.72	393.21
637.87	435.34
638.02	451.72
638.17	435.34
638.32	472.79
638.46	465.77
638.61	447.04
638.76	416.62
638.91	435.34
639.06	341.72
639.20	414.27
639.35	489.17
639.50	365.12
639.65	449.38
639.80	416.62
639.94	475.13
640.09	395.55
640.24	482.15
640.39	367.46
640.54	423.64
640.68	407.25
640.83	423.64
640.98	425.98
641.13	376.83
641.27	435.34
641.42	330.02
641.57	409.59
641.72	404.91
641.86	416.62
642.01	423.64
642.16	435.34
642.31	423.64
642.45	416.62
642.60	465.77
642.75	440.02
642.90	435.34
643.04	402.57
643.19	351.08
643.34	397.89
643.48	430.66
643.63	430.66
643.78	390.87
643.93	461.09
644.07	463.43
644.22	416.62
644.37	362.78
644.51	437.68
644.66	409.59
644.81	374.49
644.95	402.57
645.10	449.38
645.25	400.23
645.39	463.43
645.54	411.93
645.69	376.83
645.83	400.23
645.98	458.74
646.13	397.89
646.27	404.91
646.42	400.23
646.57	395.55
646.71	433.00
646.86	461.09
647.00	468.11
647.15	407.25
647.30	327.68
647.44	372.15
647.59	416.62
647.74	397.89
647.88	414.27
648.03	411.93
648.17	409.59
648.32	458.74
648.47	454.06
648.61	428.32
648.76	435.34
648.90	402.57
649.05	365.12
649.20	325.33
649.34	381.51
649.49	477.47
649.63	472.79
649.78	477.47
649.92	468.11
650.07	397.89
650.21	454.06
650.36	425.98
650.51	461.09
650.65	433.00
650.80	437.68
650.94	498.53
651.09	437.68
651.23	367.46
651.38	397.89
651.52	458.74
651.67	449.38
651.81	407.25
651.96	449.38
652.10	470.45
652.25	362.78
652.39	435.34
652.54	402.57
652.68	435.34
652.83	414.27
652.97	414.27
653.12	449.38
653.26	374.49
653.41	477.47
653.55	423.64
653.70	374.49
653.84	458.74
653.99	442.36
654.13	390.87
654.27	409.59
654.42	470.45
654.56	404.91
654.71	421.30
654.85	395.55
655.00	451.72
655.14	454.06
655.29	425.98
655.43	493.85
655.57	418.96
655.72	372.15
655.86	507.90
656.01	433.00
656.15	355.76
656.30	454.06
656.44	418.96
656.58	559.39
656.73	428.32
656.87	355.76
657.01	395.55
657.16	365.12
657.30	421.30
657.45	458.74
657.59	482.15
657.73	379.17
657.88	463.43
658.02	475.13
658.16	449.38
658.31	400.23
658.45	416.62
658.60	428.32
658.74	344.06
658.88	402.57
659.03	435.34
659.17	376.83
659.31	353.42
659.46	393.21
659.60	447.04
659.74	442.36
659.89	435.34
660.03	435.34
660.17	463.43
660.32	465.77
660.46	468.11
660.60	430.66
660.74	458.74
660.89	397.89
661.03	330.02
661.17	470.45
661.32	458.74
661.46	447.04
661.60	430.66
661.74	390.87
661.89	423.64
662.03	409.59
662.17	372.15
662.31	395.55
662.46	386.19
662.60	449.38
662.74	400.23
662.88	386.19
663.03	409.59
663.17	383.85
663.31	449.38
663.45	404.91
663.60	430.66
663.74	430.66
663.88	355.76
664.02	425.98
664.17	444.70
664.31	416.62
664.45	442.36
664.59	421.30
664.73	447.04
664.88	468.11
665.02	423.64
665.16	402.57
665.30	440.02
665.44	423.64
665.59	475.13
665.73	449.38
665.87	458.74
666.01	390.87
666.15	397.89
666.29	400.23
666.44	493.85
666.58	444.70
666.72	425.98
666.86	395.55
667.00	409.59
667.14	416.62
667.28	440.02
667.43	449.38
667.57	475.13
667.71	421.30
667.85	433.00
667.99	390.87
668.13	435.34
668.27	456.40
668.41	423.64
668.56	423.64
668.70	442.36
668.84	425.98
668.98	454.06
669.12	437.68
669.26	447.04
669.40	435.34
669.54	456.40
669.68	397.89
669.82	435.34
669.96	468.11
670.10	435.34
670.25	381.51
670.39	447.04
670.53	388.53
670.67	479.81
670.81	348.74
670.95	430.66
671.09	355.76
671.23	489.17
671.37	442.36
671.51	402.57
671.65	435.34
671.79	381.51
671.93	454.06
672.07	421.30
672.21	507.90
672.35	451.72
672.49	489.17
672.63	524.28
672.77	433.00
672.91	435.34
673.05	395.55
673.19	409.59
673.33	451.72
673.47	440.02
673.61	435.34
673.75	383.85
673.89	428.32
674.03	411.93
674.17	433.00
674.31	437.68
674.45	428.32
674.59	376.83
674.73	388.53
674.87	437.68
675.01	472.79
675.15	444.70
675.29	496.19
675.43	458.74
675.56	550.03
675.70	458.74
675.84	404.91
675.98	400.23
676.12	454.06
676.26	416.62
676.40	423.64
676.54	365.12
676.68	409.59
676.82	425.98
676.96	414.27
677.10	416.62
677.23	383.85
677.37	404.91
677.51	390.87
677.65	493.85
677.79	433.00
677.93	425.98
678.07	346.40
678.21	383.85
678.34	449.38
678.48	374.49
678.62	381.51
678.76	376.83
678.90	449.38
679.04	461.09
679.18	440.02
679.31	395.55
679.45	372.15
679.59	390.87
679.73	454.06
679.87	442.36
680.00	463.43
680.14	437.68
680.28	440.02
680.42	414.27
680.56	524.28
680.70	416.62
680.83	437.68
680.97	355.76
681.11	425.98
681.25	428.32
681.39	386.19
681.52	404.91
681.66	416.62
681.80	421.30
681.94	423.64
682.07	430.66
682.21	421.30
682.35	414.27
682.49	444.70
682.62	470.45
682.76	353.42
682.90	416.62
683.04	454.06
683.17	428.32
683.31	442.36
683.45	404.91
683.59	423.64
683.72	390.87
683.86	433.00
684.00	451.72
684.13	456.40
684.27	463.43
684.41	423.64
684.55	454.06
684.68	383.85
684.82	351.08
684.96	397.89
685.09	400.23
685.23	400.23
685.37	430.66
685.50	428.32
685.64	477.47
685.78	400.23
685.91	381.51
686.05	479.81
686.19	454.06
686.32	351.08
686.46	425.98
686.60	433.00
686.73	538.32
686.87	430.66
687.01	407.25
687.14	311.29
687.28	383.85
687.42	409.59
687.55	374.49
687.69	468.11
687.82	444.70
687.96	365.12
688.10	397.89
688.23	421.30
688.37	423.64
688.50	425.98
688.64	486.83
688.78	365.12
688.91	383.85
689.05	395.55
689.18	395.55
689.32	397.89
689.46	379.17
689.59	418.96
689.73	477.47
689.86	444.70
690.00	414.27
690.13	393.21
690.27	423.64
690.41	390.87
690.54	409.59
690.68	341.72
690.81	428.32
690.95	365.12
691.08	437.68
691.22	362.78
691.35	337.04
691.49	416.62
691.62	355.76
691.76	402.57
691.89	411.93
692.03	411.93
692.16	407.25
692.30	435.34
692.43	372.15
692.57	358.10
692.70	393.21
692.84	491.51
692.97	395.55
693.11	400.23
693.24	393.21
693.38	433.00
693.51	332.36
693.65	397.89
693.78	372.15
693.92	390.87
694.05	381.51
694.19	358.10
694.32	411.93
694.45	411.93
694.59	388.53
694.72	376.83
694.86	393.21
694.99	423.64
695.13	393.21
695.26	374.49
695.39	404.91
695.53	411.93
695.66	374.49
695.80	365.12
695.93	428.32
696.07	362.78
696.20	456.40
696.33	407.25
696.47	411.93
696.60	472.79
696.73	393.21
696.87	437.68
697.00	425.98
697.14	428.32
697.27	465.77
697.40	465.77
697.54	369.80
697.67	397.89
697.80	498.53
697.94	421.30
698.07	440.02
698.21	468.11
698.34	409.59
698.47	409.59
698.61	360.44
698.74	435.34
698.87	404.91
699.01	344.06
699.14	381.51
699.27	470.45
699.40	428.32
699.54	447.04
699.67	442.36
699.80	400.23
699.94	381.51
700.07	325.33
700.20	407.25
700.34	435.34
700.47	367.46
700.60	404.91
700.73	402.57
700.87	477.47
701.00	421.30
701.13	440.02
701.26	397.89
701.40	386.19
701.53	407.25
701.66	386.19
701.79	437.68
701.93	414.27
702.06	442.36
702.19	402.57
702.32	456.40
702.46	351.08
702.59	393.21
702.72	379.17
702.85	458.74
702.99	425.98
703.12	430.66
703.25	454.06
703.38	423.64
703.51	442.36
703.65	411.93
703.78	416.62
703.91	430.66
704.04	409.59
704.17	409.59
704.31	344.06
704.44	383.85
704.57	428.32
704.70	374.49
704.83	358.10
704.96	477.47
705.10	425.98
705.23	458.74
>>>>>End Processed Spectral Data<<<<<
