SpectraSuite Data File
++++++++++++++++++++++++++++++++++++
Date: Fri Oct 25 12:10:12 EDT 2013
User: price-jones
Dark Spectrum Present: No
Reference Spectrum Present: No
Number of Sampled Component Spectra: 1
Spectrometers: USB2+H05261
Integration Time (usec): 100000 (USB2+H05261)
Spectra Averaged: 1 (USB2+H05261)
Boxcar Smoothing: 0 (USB2+H05261)
Correct for Electrical Dark: No (USB2+H05261)
Strobe/Lamp Enabled: No (USB2+H05261)
Correct for Detector Non-linearity: No (USB2+H05261)
Correct for Stray Light: No (USB2+H05261)
Number of Pixels in Processed Spectrum: 2048
>>>>>Begin Processed Spectral Data<<<<<
365.73	367.46
365.92	367.46
366.12	367.46
366.32	187.24
366.52	177.88
366.72	241.08
366.91	208.31
367.11	159.16
367.31	234.05
367.51	280.86
367.70	262.14
367.90	306.61
368.10	182.56
368.30	255.12
368.49	220.01
368.69	292.57
368.89	215.33
369.09	241.08
369.28	278.52
369.48	276.18
369.68	290.23
369.87	334.70
370.07	351.08
370.27	304.27
370.47	360.44
370.66	395.55
370.86	390.87
371.06	320.65
371.25	358.10
371.45	402.57
371.65	358.10
371.84	425.98
372.04	365.12
372.24	355.76
372.44	454.06
372.63	430.66
372.83	425.98
373.03	388.53
373.22	369.80
373.42	374.49
373.62	421.30
373.81	449.38
374.01	374.49
374.21	404.91
374.40	421.30
374.60	449.38
374.79	381.51
374.99	397.89
375.19	348.74
375.38	440.02
375.58	425.98
375.78	435.34
375.97	435.34
376.17	461.09
376.37	440.02
376.56	437.68
376.76	400.23
376.95	397.89
377.15	449.38
377.35	407.25
377.54	437.68
377.74	414.27
377.93	440.02
378.13	402.57
378.33	442.36
378.52	472.79
378.72	437.68
378.91	421.30
379.11	421.30
379.31	374.49
379.50	353.42
379.70	449.38
379.89	393.21
380.09	428.32
380.28	313.63
380.48	334.70
380.68	376.83
380.87	456.40
381.07	390.87
381.26	416.62
381.46	418.96
381.65	411.93
381.85	435.34
382.04	423.64
382.24	407.25
382.43	395.55
382.63	372.15
382.83	367.46
383.02	383.85
383.22	351.08
383.41	425.98
383.61	400.23
383.80	463.43
384.00	409.59
384.19	348.74
384.39	346.40
384.58	388.53
384.78	451.72
384.97	395.55
385.17	402.57
385.36	411.93
385.56	376.83
385.75	397.89
385.95	428.32
386.14	461.09
386.34	435.34
386.53	404.91
386.72	449.38
386.92	435.34
387.11	390.87
387.31	407.25
387.50	355.76
387.70	421.30
387.89	383.85
388.09	386.19
388.28	374.49
388.48	423.64
388.67	400.23
388.86	440.02
389.06	447.04
389.25	367.46
389.45	341.72
389.64	414.27
389.84	372.15
390.03	409.59
390.22	437.68
390.42	411.93
390.61	339.38
390.81	414.27
391.00	393.21
391.19	451.72
391.39	423.64
391.58	388.53
391.78	468.11
391.97	386.19
392.16	449.38
392.36	421.30
392.55	400.23
392.75	470.45
392.94	393.21
393.13	421.30
393.33	486.83
393.52	376.83
393.71	393.21
393.91	355.76
394.10	386.19
394.29	311.29
394.49	416.62
394.68	397.89
394.88	365.12
395.07	369.80
395.26	449.38
395.46	386.19
395.65	440.02
395.84	454.06
396.04	421.30
396.23	414.27
396.42	365.12
396.62	465.77
396.81	409.59
397.00	423.64
397.19	411.93
397.39	468.11
397.58	425.98
397.77	468.11
397.97	435.34
398.16	409.59
398.35	407.25
398.55	404.91
398.74	414.27
398.93	421.30
399.12	332.36
399.32	386.19
399.51	444.70
399.70	425.98
399.90	423.64
400.09	397.89
400.28	435.34
400.47	386.19
400.67	376.83
400.86	383.85
401.05	468.11
401.24	421.30
401.44	470.45
401.63	367.46
401.82	493.85
402.01	390.87
402.21	414.27
402.40	367.46
402.59	388.53
402.78	390.87
402.97	411.93
403.17	379.17
403.36	447.04
403.55	486.83
403.74	425.98
403.93	374.49
404.13	437.68
404.32	339.38
404.51	435.34
404.70	447.04
404.89	337.04
405.09	493.85
405.28	440.02
405.47	404.91
405.66	337.04
405.85	449.38
406.05	449.38
406.24	449.38
406.43	472.79
406.62	437.68
406.81	456.40
407.00	395.55
407.20	402.57
407.39	428.32
407.58	440.02
407.77	477.47
407.96	430.66
408.15	442.36
408.34	435.34
408.54	463.43
408.73	442.36
408.92	407.25
409.11	414.27
409.30	505.56
409.49	360.44
409.68	379.17
409.87	393.21
410.07	379.17
410.26	435.34
410.45	362.78
410.64	346.40
410.83	397.89
411.02	430.66
411.21	404.91
411.40	416.62
411.59	360.44
411.78	341.72
411.98	353.42
412.17	372.15
412.36	414.27
412.55	468.11
412.74	388.53
412.93	456.40
413.12	414.27
413.31	421.30
413.50	379.17
413.69	383.85
413.88	489.17
414.07	461.09
414.26	475.13
414.45	379.17
414.64	404.91
414.83	444.70
415.02	440.02
415.22	383.85
415.41	393.21
415.60	390.87
415.79	337.04
415.98	386.19
416.17	465.77
416.36	358.10
416.55	404.91
416.74	369.80
416.93	376.83
417.12	397.89
417.31	442.36
417.50	470.45
417.69	517.26
417.88	423.64
418.07	379.17
418.26	400.23
418.45	332.36
418.64	397.89
418.83	407.25
419.02	358.10
419.21	416.62
419.39	454.06
419.58	395.55
419.77	407.25
419.96	334.70
420.15	533.64
420.34	325.33
420.53	461.09
420.72	397.89
420.91	355.76
421.10	404.91
421.29	421.30
421.48	409.59
421.67	362.78
421.86	383.85
422.05	451.72
422.24	433.00
422.43	468.11
422.61	449.38
422.80	376.83
422.99	430.66
423.18	365.12
423.37	456.40
423.56	379.17
423.75	409.59
423.94	404.91
424.13	386.19
424.32	346.40
424.50	400.23
424.69	440.02
424.88	416.62
425.07	383.85
425.26	470.45
425.45	437.68
425.64	365.12
425.83	393.21
426.01	407.25
426.20	381.51
426.39	491.51
426.58	470.45
426.77	451.72
426.96	449.38
427.15	390.87
427.33	402.57
427.52	418.96
427.71	402.57
427.90	451.72
428.09	388.53
428.28	395.55
428.46	437.68
428.65	421.30
428.84	461.09
429.03	440.02
429.22	414.27
429.40	447.04
429.59	411.93
429.78	421.30
429.97	414.27
430.16	383.85
430.34	423.64
430.53	393.21
430.72	440.02
430.91	465.77
431.10	372.15
431.28	418.96
431.47	430.66
431.66	421.30
431.85	423.64
432.03	386.19
432.22	388.53
432.41	451.72
432.60	423.64
432.79	407.25
432.97	423.64
433.16	440.02
433.35	388.53
433.54	423.64
433.72	433.00
433.91	355.76
434.10	365.12
434.28	388.53
434.47	472.79
434.66	379.17
434.85	423.64
435.03	414.27
435.22	465.77
435.41	423.64
435.59	376.83
435.78	430.66
435.97	365.12
436.16	372.15
436.34	390.87
436.53	451.72
436.72	397.89
436.90	404.91
437.09	374.49
437.28	423.64
437.46	362.78
437.65	400.23
437.84	416.62
438.02	393.21
438.21	435.34
438.40	414.27
438.58	449.38
438.77	402.57
438.96	458.74
439.14	411.93
439.33	470.45
439.52	386.19
439.70	397.89
439.89	442.36
440.08	435.34
440.26	447.04
440.45	456.40
440.63	376.83
440.82	383.85
441.01	423.64
441.19	409.59
441.38	402.57
441.57	423.64
441.75	456.40
441.94	411.93
442.12	365.12
442.31	409.59
442.50	376.83
442.68	411.93
442.87	311.29
443.05	388.53
443.24	374.49
443.43	472.79
443.61	435.34
443.80	397.89
443.98	367.46
444.17	397.89
444.35	386.19
444.54	425.98
444.73	449.38
444.91	442.36
445.10	440.02
445.28	397.89
445.47	355.76
445.65	456.40
445.84	386.19
446.02	379.17
446.21	423.64
446.39	456.40
446.58	404.91
446.77	416.62
446.95	411.93
447.14	435.34
447.32	435.34
447.51	407.25
447.69	367.46
447.88	442.36
448.06	423.64
448.25	423.64
448.43	358.10
448.62	348.74
448.80	430.66
448.99	372.15
449.17	458.74
449.36	430.66
449.54	388.53
449.73	353.42
449.91	421.30
450.10	421.30
450.28	526.62
450.46	411.93
450.65	407.25
450.83	388.53
451.02	449.38
451.20	395.55
451.39	430.66
451.57	472.79
451.76	374.49
451.94	388.53
452.13	430.66
452.31	421.30
452.49	451.72
452.68	402.57
452.86	465.77
453.05	409.59
453.23	430.66
453.42	423.64
453.60	358.10
453.78	416.62
453.97	414.27
454.15	449.38
454.34	369.80
454.52	369.80
454.70	430.66
454.89	414.27
455.07	402.57
455.26	353.42
455.44	451.72
455.62	475.13
455.81	383.85
455.99	442.36
456.17	451.72
456.36	421.30
456.54	400.23
456.73	411.93
456.91	362.78
457.09	351.08
457.28	414.27
457.46	360.44
457.64	379.17
457.83	433.00
458.01	402.57
458.19	444.70
458.38	423.64
458.56	414.27
458.74	383.85
458.93	437.68
459.11	400.23
459.29	402.57
459.48	407.25
459.66	365.12
459.84	411.93
460.03	484.49
460.21	461.09
460.39	402.57
460.57	411.93
460.76	339.38
460.94	416.62
461.12	381.51
461.31	437.68
461.49	442.36
461.67	416.62
461.85	425.98
462.04	421.30
462.22	823.87
462.40	449.38
462.59	430.66
462.77	414.27
462.95	407.25
463.13	393.21
463.32	442.36
463.50	355.76
463.68	491.51
463.86	418.96
464.05	437.68
464.23	407.25
464.41	365.12
464.59	449.38
464.78	400.23
464.96	479.81
465.14	416.62
465.32	379.17
465.50	418.96
465.69	407.25
465.87	341.72
466.05	465.77
466.23	376.83
466.41	404.91
466.60	440.02
466.78	379.17
466.96	407.25
467.14	423.64
467.32	409.59
467.51	477.47
467.69	351.08
467.87	442.36
468.05	376.83
468.23	425.98
468.41	369.80
468.60	369.80
468.78	379.17
468.96	374.49
469.14	390.87
469.32	388.53
469.50	444.70
469.69	484.49
469.87	395.55
470.05	388.53
470.23	362.78
470.41	393.21
470.59	447.04
470.77	442.36
470.95	430.66
471.14	421.30
471.32	442.36
471.50	402.57
471.68	388.53
471.86	465.77
472.04	297.25
472.22	418.96
472.40	447.04
472.58	390.87
472.77	430.66
472.95	416.62
473.13	505.56
473.31	407.25
473.49	418.96
473.67	365.12
473.85	486.83
474.03	390.87
474.21	379.17
474.39	451.72
474.57	418.96
474.75	423.64
474.93	533.64
475.12	433.00
475.30	451.72
475.48	402.57
475.66	465.77
475.84	358.10
476.02	348.74
476.20	407.25
476.38	407.25
476.56	435.34
476.74	442.36
476.92	454.06
477.10	421.30
477.28	383.85
477.46	416.62
477.64	393.21
477.82	390.87
478.00	468.11
478.18	447.04
478.36	454.06
478.54	407.25
478.72	414.27
478.90	428.32
479.08	369.80
479.26	428.32
479.44	386.19
479.62	397.89
479.80	421.30
479.98	395.55
480.16	402.57
480.34	409.59
480.52	500.87
480.70	451.72
480.88	351.08
481.06	390.87
481.24	397.89
481.41	365.12
481.59	430.66
481.77	482.15
481.95	404.91
482.13	477.47
482.31	339.38
482.49	447.04
482.67	468.11
482.85	428.32
483.03	353.42
483.21	423.64
483.39	388.53
483.57	421.30
483.74	482.15
483.92	400.23
484.10	407.25
484.28	404.91
484.46	404.91
484.64	433.00
484.82	386.19
485.00	407.25
485.18	383.85
485.35	475.13
485.53	332.36
485.71	402.57
485.89	372.15
486.07	381.51
486.25	472.79
486.43	454.06
486.61	425.98
486.78	351.08
486.96	435.34
487.14	447.04
487.32	444.70
487.50	440.02
487.68	440.02
487.85	423.64
488.03	418.96
488.21	409.59
488.39	435.34
488.57	437.68
488.75	444.70
488.92	440.02
489.10	360.44
489.28	430.66
489.46	341.72
489.64	449.38
489.81	423.64
489.99	482.15
490.17	360.44
490.35	454.06
490.53	484.49
490.70	409.59
490.88	369.80
491.06	376.83
491.24	393.21
491.41	465.77
491.59	451.72
491.77	435.34
491.95	458.74
492.13	400.23
492.30	456.40
492.48	442.36
492.66	428.32
492.84	414.27
493.01	374.49
493.19	454.06
493.37	447.04
493.54	379.17
493.72	388.53
493.90	416.62
494.08	407.25
494.25	454.06
494.43	428.32
494.61	376.83
494.79	369.80
494.96	416.62
495.14	451.72
495.32	381.51
495.49	428.32
495.67	479.81
495.85	407.25
496.02	400.23
496.20	491.51
496.38	470.45
496.55	379.17
496.73	418.96
496.91	390.87
497.09	404.91
497.26	348.74
497.44	386.19
497.62	400.23
497.79	372.15
497.97	435.34
498.14	402.57
498.32	395.55
498.50	351.08
498.67	390.87
498.85	454.06
499.03	365.12
499.20	374.49
499.38	386.19
499.56	409.59
499.73	376.83
499.91	454.06
500.08	400.23
500.26	449.38
500.44	437.68
500.61	470.45
500.79	372.15
500.97	477.47
501.14	437.68
501.32	348.74
501.49	402.57
501.67	470.45
501.84	465.77
502.02	416.62
502.20	500.87
502.37	437.68
502.55	344.06
502.72	430.66
502.90	491.51
503.07	437.68
503.25	388.53
503.43	334.70
503.60	409.59
503.78	433.00
503.95	414.27
504.13	400.23
504.30	414.27
504.48	447.04
504.65	463.43
504.83	440.02
505.01	393.21
505.18	505.56
505.36	456.40
505.53	376.83
505.71	440.02
505.88	440.02
506.06	433.00
506.23	475.13
506.41	425.98
506.58	425.98
506.76	437.68
506.93	458.74
507.11	465.77
507.28	435.34
507.46	372.15
507.63	484.49
507.81	393.21
507.98	388.53
508.16	397.89
508.33	475.13
508.50	367.46
508.68	353.42
508.85	397.89
509.03	400.23
509.20	372.15
509.38	365.12
509.55	374.49
509.73	449.38
509.90	463.43
510.08	390.87
510.25	468.11
510.42	353.42
510.60	461.09
510.77	390.87
510.95	491.51
511.12	442.36
511.30	454.06
511.47	475.13
511.64	358.10
511.82	411.93
511.99	402.57
512.17	386.19
512.34	376.83
512.51	430.66
512.69	491.51
512.86	470.45
513.04	425.98
513.21	484.49
513.38	451.72
513.56	374.49
513.73	390.87
513.90	407.25
514.08	437.68
514.25	409.59
514.43	334.70
514.60	369.80
514.77	376.83
514.95	484.49
515.12	397.89
515.29	451.72
515.47	409.59
515.64	428.32
515.81	379.17
515.99	451.72
516.16	381.51
516.33	442.36
516.51	414.27
516.68	428.32
516.85	411.93
517.03	404.91
517.20	435.34
517.37	449.38
517.54	442.36
517.72	320.65
517.89	400.23
518.06	482.15
518.24	512.58
518.41	390.87
518.58	416.62
518.75	440.02
518.93	374.49
519.10	409.59
519.27	447.04
519.45	379.17
519.62	435.34
519.79	402.57
519.96	442.36
520.14	423.64
520.31	418.96
520.48	430.66
520.65	461.09
520.83	437.68
521.00	390.87
521.17	388.53
521.34	421.30
521.52	425.98
521.69	435.34
521.86	414.27
522.03	447.04
522.20	440.02
522.38	421.30
522.55	421.30
522.72	390.87
522.89	461.09
523.07	463.43
523.24	400.23
523.41	430.66
523.58	365.12
523.75	414.27
523.92	425.98
524.10	402.57
524.27	482.15
524.44	454.06
524.61	456.40
524.78	468.11
524.96	456.40
525.13	395.55
525.30	449.38
525.47	402.57
525.64	390.87
525.81	416.62
525.98	449.38
526.16	475.13
526.33	327.68
526.50	346.40
526.67	440.02
526.84	454.06
527.01	421.30
527.18	393.21
527.36	400.23
527.53	404.91
527.70	346.40
527.87	400.23
528.04	407.25
528.21	365.12
528.38	421.30
528.55	430.66
528.72	407.25
528.89	463.43
529.07	381.51
529.24	411.93
529.41	493.85
529.58	418.96
529.75	475.13
529.92	402.57
530.09	440.02
530.26	433.00
530.43	430.66
530.60	479.81
530.77	449.38
530.94	362.78
531.11	482.15
531.28	313.63
531.46	337.04
531.63	447.04
531.80	433.00
531.97	428.32
532.14	442.36
532.31	407.25
532.48	484.49
532.65	397.89
532.82	421.30
532.99	351.08
533.16	430.66
533.33	416.62
533.50	484.49
533.67	369.80
533.84	404.91
534.01	458.74
534.18	496.19
534.35	414.27
534.52	449.38
534.69	404.91
534.86	374.49
535.03	449.38
535.20	402.57
535.37	414.27
535.54	430.66
535.71	409.59
535.88	451.72
536.05	423.64
536.22	393.21
536.38	430.66
536.55	475.13
536.72	433.00
536.89	468.11
537.06	458.74
537.23	372.15
537.40	383.85
537.57	365.12
537.74	463.43
537.91	444.70
538.08	421.30
538.25	451.72
538.42	486.83
538.59	411.93
538.75	376.83
538.92	444.70
539.09	411.93
539.26	383.85
539.43	421.30
539.60	435.34
539.77	442.36
539.94	423.64
540.11	451.72
540.28	374.49
540.44	430.66
540.61	430.66
540.78	414.27
540.95	388.53
541.12	411.93
541.29	489.17
541.46	423.64
541.62	416.62
541.79	470.45
541.96	318.31
542.13	390.87
542.30	386.19
542.47	472.79
542.63	404.91
542.80	433.00
542.97	421.30
543.14	372.15
543.31	395.55
543.48	383.85
543.64	461.09
543.81	482.15
543.98	367.46
544.15	411.93
544.32	400.23
544.48	468.11
544.65	411.93
544.82	308.95
544.99	437.68
545.16	484.49
545.32	475.13
545.49	447.04
545.66	351.08
545.83	332.36
546.00	423.64
546.16	418.96
546.33	421.30
546.50	447.04
546.67	360.44
546.83	421.30
547.00	414.27
547.17	421.30
547.34	425.98
547.50	425.98
547.67	479.81
547.84	388.53
548.00	418.96
548.17	386.19
548.34	411.93
548.51	468.11
548.67	383.85
548.84	390.87
549.01	430.66
549.18	458.74
549.34	437.68
549.51	468.11
549.68	358.10
549.84	468.11
550.01	418.96
550.18	500.87
550.34	418.96
550.51	433.00
550.68	503.22
550.84	449.38
551.01	428.32
551.18	418.96
551.34	416.62
551.51	416.62
551.68	442.36
551.84	423.64
552.01	435.34
552.18	477.47
552.34	433.00
552.51	442.36
552.68	440.02
552.84	447.04
553.01	365.12
553.18	507.90
553.34	442.36
553.51	423.64
553.67	409.59
553.84	463.43
554.01	425.98
554.17	423.64
554.34	407.25
554.51	372.15
554.67	425.98
554.84	451.72
555.00	421.30
555.17	496.19
555.33	479.81
555.50	393.21
555.67	428.32
555.83	393.21
556.00	442.36
556.16	538.32
556.33	425.98
556.50	407.25
556.66	475.13
556.83	402.57
556.99	416.62
557.16	400.23
557.32	407.25
557.49	330.02
557.65	393.21
557.82	477.47
557.98	393.21
558.15	365.12
558.32	468.11
558.48	411.93
558.65	376.83
558.81	376.83
558.98	449.38
559.14	454.06
559.31	397.89
559.47	423.64
559.64	355.76
559.80	470.45
559.97	386.19
560.13	404.91
560.30	390.87
560.46	414.27
560.63	367.46
560.79	416.62
560.96	407.25
561.12	418.96
561.29	479.81
561.45	416.62
561.61	372.15
561.78	484.49
561.94	374.49
562.11	346.40
562.27	430.66
562.44	395.55
562.60	444.70
562.77	337.04
562.93	433.00
563.10	418.96
563.26	505.56
563.42	505.56
563.59	374.49
563.75	367.46
563.92	430.66
564.08	423.64
564.24	407.25
564.41	447.04
564.57	451.72
564.74	442.36
564.90	451.72
565.07	454.06
565.23	411.93
565.39	440.02
565.56	454.06
565.72	418.96
565.88	463.43
566.05	390.87
566.21	397.89
566.38	456.40
566.54	477.47
566.70	400.23
566.87	388.53
567.03	404.91
567.19	376.83
567.36	444.70
567.52	449.38
567.68	402.57
567.85	414.27
568.01	367.46
568.17	465.77
568.34	442.36
568.50	514.92
568.66	393.21
568.83	468.11
568.99	421.30
569.15	456.40
569.32	411.93
569.48	428.32
569.64	362.78
569.81	409.59
569.97	404.91
570.13	418.96
570.30	379.17
570.46	428.32
570.62	433.00
570.78	423.64
570.95	409.59
571.11	418.96
571.27	461.09
571.43	458.74
571.60	472.79
571.76	449.38
571.92	388.53
572.09	421.30
572.25	456.40
572.41	397.89
572.57	390.87
572.74	440.02
572.90	472.79
573.06	390.87
573.22	397.89
573.38	400.23
573.55	449.38
573.71	407.25
573.87	500.87
574.03	351.08
574.20	379.17
574.36	407.25
574.52	402.57
574.68	407.25
574.84	423.64
575.01	461.09
575.17	379.17
575.33	435.34
575.49	442.36
575.65	425.98
575.82	428.32
575.98	414.27
576.14	407.25
576.30	409.59
576.46	468.11
576.62	414.27
576.79	428.32
576.95	491.51
577.11	393.21
577.27	463.43
577.43	463.43
577.59	423.64
577.75	339.38
577.92	437.68
578.08	421.30
578.24	416.62
578.40	463.43
578.56	409.59
578.72	369.80
578.88	423.64
579.04	418.96
579.21	451.72
579.37	344.06
579.53	400.23
579.69	425.98
579.85	397.89
580.01	376.83
580.17	423.64
580.33	388.53
580.49	482.15
580.65	425.98
580.82	456.40
580.98	428.32
581.14	418.96
581.30	421.30
581.46	425.98
581.62	477.47
581.78	411.93
581.94	397.89
582.10	435.34
582.26	386.19
582.42	442.36
582.58	435.34
582.74	395.55
582.90	393.21
583.06	465.77
583.22	393.21
583.38	433.00
583.54	365.12
583.70	447.04
583.86	369.80
584.02	379.17
584.18	486.83
584.34	358.10
584.50	393.21
584.66	482.15
584.82	414.27
584.98	362.78
585.14	449.38
585.30	458.74
585.46	477.47
585.62	433.00
585.78	383.85
585.94	428.32
586.10	367.46
586.26	444.70
586.42	430.66
586.58	435.34
586.74	416.62
586.90	414.27
587.06	355.76
587.22	430.66
587.38	411.93
587.54	400.23
587.70	454.06
587.86	425.98
588.02	367.46
588.18	454.06
588.34	430.66
588.49	397.89
588.65	435.34
588.81	447.04
588.97	411.93
589.13	428.32
589.29	411.93
589.45	442.36
589.61	395.55
589.77	430.66
589.93	458.74
590.08	440.02
590.24	454.06
590.40	440.02
590.56	437.68
590.72	428.32
590.88	418.96
591.04	449.38
591.20	393.21
591.35	458.74
591.51	388.53
591.67	454.06
591.83	433.00
591.99	444.70
592.15	435.34
592.31	444.70
592.46	470.45
592.62	461.09
592.78	449.38
592.94	372.15
593.10	369.80
593.26	397.89
593.41	395.55
593.57	379.17
593.73	404.91
593.89	402.57
594.05	383.85
594.20	454.06
594.36	433.00
594.52	449.38
594.68	365.12
594.84	463.43
594.99	447.04
595.15	379.17
595.31	463.43
595.47	400.23
595.62	484.49
595.78	456.40
595.94	465.77
596.10	456.40
596.25	470.45
596.41	458.74
596.57	330.02
596.73	421.30
596.88	383.85
597.04	390.87
597.20	339.38
597.36	435.34
597.51	496.19
597.67	365.12
597.83	451.72
597.99	388.53
598.14	442.36
598.30	528.96
598.46	381.51
598.61	461.09
598.77	407.25
598.93	449.38
599.09	430.66
599.24	416.62
599.40	430.66
599.56	404.91
599.71	437.68
599.87	397.89
600.03	440.02
600.18	418.96
600.34	447.04
600.50	414.27
600.65	393.21
600.81	470.45
600.97	475.13
601.12	414.27
601.28	458.74
601.44	395.55
601.59	383.85
601.75	484.49
601.91	421.30
602.06	430.66
602.22	528.96
602.37	456.40
602.53	400.23
602.69	397.89
602.84	381.51
603.00	388.53
603.16	402.57
603.31	421.30
603.47	451.72
603.62	418.96
603.78	418.96
603.94	425.98
604.09	348.74
604.25	428.32
604.40	433.00
604.56	353.42
604.71	367.46
604.87	376.83
605.03	358.10
605.18	428.32
605.34	440.02
605.49	456.40
605.65	414.27
605.80	423.64
605.96	367.46
606.12	397.89
606.27	437.68
606.43	388.53
606.58	463.43
606.74	449.38
606.89	531.30
607.05	458.74
607.20	472.79
607.36	372.15
607.51	407.25
607.67	404.91
607.82	388.53
607.98	425.98
608.13	414.27
608.29	404.91
608.44	500.87
608.60	437.68
608.75	465.77
608.91	393.21
609.06	421.30
609.22	407.25
609.37	374.49
609.53	418.96
609.68	365.12
609.84	365.12
609.99	353.42
610.15	358.10
610.30	414.27
610.46	482.15
610.61	402.57
610.76	376.83
610.92	404.91
611.07	407.25
611.23	355.76
611.38	386.19
611.54	444.70
611.69	407.25
611.84	358.10
612.00	475.13
612.15	437.68
612.31	425.98
612.46	374.49
612.62	407.25
612.77	433.00
612.92	458.74
613.08	416.62
613.23	386.19
613.39	428.32
613.54	454.06
613.69	376.83
613.85	393.21
614.00	386.19
614.15	393.21
614.31	402.57
614.46	451.72
614.62	421.30
614.77	402.57
614.92	418.96
615.08	390.87
615.23	433.00
615.38	402.57
615.54	400.23
615.69	461.09
615.84	444.70
616.00	468.11
616.15	414.27
616.30	407.25
616.46	423.64
616.61	397.89
616.76	463.43
616.92	369.80
617.07	447.04
617.22	360.44
617.37	440.02
617.53	372.15
617.68	411.93
617.83	409.59
617.99	444.70
618.14	407.25
618.29	409.59
618.45	435.34
618.60	444.70
618.75	388.53
618.90	414.27
619.06	475.13
619.21	444.70
619.36	458.74
619.51	416.62
619.67	416.62
619.82	463.43
619.97	414.27
620.12	402.57
620.28	400.23
620.43	383.85
620.58	402.57
620.73	393.21
620.89	395.55
621.04	444.70
621.19	358.10
621.34	404.91
621.49	437.68
621.65	397.89
621.80	372.15
621.95	463.43
622.10	421.30
622.25	379.17
622.41	409.59
622.56	416.62
622.71	444.70
622.86	416.62
623.01	365.12
623.16	430.66
623.32	395.55
623.47	540.66
623.62	395.55
623.77	442.36
623.92	376.83
624.07	407.25
624.23	421.30
624.38	386.19
624.53	430.66
624.68	491.51
624.83	519.60
624.98	461.09
625.13	454.06
625.29	421.30
625.44	381.51
625.59	425.98
625.74	388.53
625.89	344.06
626.04	337.04
626.19	451.72
626.34	465.77
626.49	430.66
626.65	365.12
626.80	444.70
626.95	454.06
627.10	395.55
627.25	468.11
627.40	374.49
627.55	395.55
627.70	393.21
627.85	372.15
628.00	411.93
628.15	376.83
628.30	376.83
628.45	369.80
628.60	325.33
628.76	397.89
628.91	379.17
629.06	397.89
629.21	395.55
629.36	407.25
629.51	437.68
629.66	395.55
629.81	423.64
629.96	465.77
630.11	407.25
630.26	395.55
630.41	411.93
630.56	449.38
630.71	425.98
630.86	428.32
631.01	337.04
631.16	407.25
631.31	421.30
631.46	423.64
631.61	402.57
631.76	470.45
631.91	458.74
632.06	416.62
632.21	456.40
632.36	433.00
632.51	444.70
632.66	430.66
632.81	428.32
632.96	402.57
633.10	470.45
633.25	470.45
633.40	463.43
633.55	409.59
633.70	416.62
633.85	458.74
634.00	365.12
634.15	423.64
634.30	411.93
634.45	418.96
634.60	423.64
634.75	386.19
634.90	428.32
635.05	442.36
635.19	376.83
635.34	355.76
635.49	353.42
635.64	411.93
635.79	383.85
635.94	505.56
636.09	414.27
636.24	461.09
636.39	444.70
636.53	411.93
636.68	454.06
636.83	388.53
636.98	425.98
637.13	465.77
637.28	421.30
637.43	402.57
637.57	451.72
637.72	435.34
637.87	423.64
638.02	416.62
638.17	386.19
638.32	437.68
638.46	381.51
638.61	463.43
638.76	372.15
638.91	411.93
639.06	407.25
639.20	442.36
639.35	454.06
639.50	440.02
639.65	428.32
639.80	482.15
639.94	334.70
640.09	425.98
640.24	423.64
640.39	423.64
640.54	416.62
640.68	440.02
640.83	425.98
640.98	489.17
641.13	414.27
641.27	404.91
641.42	400.23
641.57	423.64
641.72	442.36
641.86	507.90
642.01	454.06
642.16	463.43
642.31	404.91
642.45	477.47
642.60	425.98
642.75	428.32
642.90	409.59
643.04	407.25
643.19	461.09
643.34	379.17
643.48	351.08
643.63	433.00
643.78	430.66
643.93	491.51
644.07	440.02
644.22	437.68
644.37	334.70
644.51	493.85
644.66	463.43
644.81	397.89
644.95	479.81
645.10	449.38
645.25	409.59
645.39	414.27
645.54	339.38
645.69	470.45
645.83	393.21
645.98	362.78
646.13	409.59
646.27	390.87
646.42	423.64
646.57	437.68
646.71	374.49
646.86	440.02
647.00	451.72
647.15	435.34
647.30	437.68
647.44	463.43
647.59	353.42
647.74	367.46
647.88	395.55
648.03	402.57
648.17	395.55
648.32	421.30
648.47	416.62
648.61	411.93
648.76	416.62
648.90	381.51
649.05	440.02
649.20	367.46
649.34	423.64
649.49	388.53
649.63	447.04
649.78	468.11
649.92	433.00
650.07	418.96
650.21	409.59
650.36	468.11
650.51	447.04
650.65	423.64
650.80	351.08
650.94	444.70
651.09	344.06
651.23	465.77
651.38	393.21
651.52	449.38
651.67	493.85
651.81	393.21
651.96	414.27
652.10	430.66
652.25	390.87
652.39	327.68
652.54	491.51
652.68	454.06
652.83	430.66
652.97	409.59
653.12	470.45
653.26	369.80
653.41	395.55
653.55	449.38
653.70	374.49
653.84	381.51
653.99	437.68
654.13	390.87
654.27	379.17
654.42	320.65
654.56	418.96
654.71	390.87
654.85	348.74
655.00	423.64
655.14	444.70
655.29	440.02
655.43	400.23
655.57	552.37
655.72	407.25
655.86	486.83
656.01	468.11
656.15	458.74
656.30	486.83
656.44	447.04
656.58	381.51
656.73	409.59
656.87	428.32
657.01	351.08
657.16	465.77
657.30	409.59
657.45	463.43
657.59	425.98
657.73	400.23
657.88	454.06
658.02	496.19
658.16	489.17
658.31	421.30
658.45	472.79
658.60	425.98
658.74	430.66
658.88	367.46
659.03	393.21
659.17	383.85
659.31	456.40
659.46	435.34
659.60	400.23
659.74	400.23
659.89	423.64
660.03	437.68
660.17	379.17
660.32	425.98
660.46	390.87
660.60	376.83
660.74	390.87
660.89	411.93
661.03	388.53
661.17	444.70
661.32	416.62
661.46	372.15
661.60	341.72
661.74	493.85
661.89	430.66
662.03	379.17
662.17	461.09
662.31	461.09
662.46	369.80
662.60	461.09
662.74	433.00
662.88	414.27
663.03	463.43
663.17	393.21
663.31	440.02
663.45	360.44
663.60	404.91
663.74	388.53
663.88	447.04
664.02	435.34
664.17	411.93
664.31	390.87
664.45	454.06
664.59	367.46
664.73	454.06
664.88	475.13
665.02	421.30
665.16	386.19
665.30	390.87
665.44	421.30
665.59	411.93
665.73	465.77
665.87	437.68
666.01	465.77
666.15	454.06
666.29	404.91
666.44	409.59
666.58	475.13
666.72	444.70
666.86	400.23
667.00	430.66
667.14	454.06
667.28	414.27
667.43	411.93
667.57	435.34
667.71	440.02
667.85	402.57
667.99	411.93
668.13	435.34
668.27	433.00
668.41	409.59
668.56	367.46
668.70	435.34
668.84	362.78
668.98	404.91
669.12	395.55
669.26	425.98
669.40	465.77
669.54	470.45
669.68	411.93
669.82	433.00
669.96	395.55
670.10	430.66
670.25	395.55
670.39	390.87
670.53	397.89
670.67	358.10
670.81	325.33
670.95	414.27
671.09	444.70
671.23	470.45
671.37	416.62
671.51	447.04
671.65	395.55
671.79	358.10
671.93	414.27
672.07	433.00
672.21	369.80
672.35	388.53
672.49	440.02
672.63	379.17
672.77	423.64
672.91	411.93
673.05	353.42
673.19	461.09
673.33	425.98
673.47	425.98
673.61	421.30
673.75	386.19
673.89	442.36
674.03	332.36
674.17	416.62
674.31	430.66
674.45	442.36
674.59	409.59
674.73	388.53
674.87	449.38
675.01	404.91
675.15	416.62
675.29	472.79
675.43	397.89
675.56	486.83
675.70	482.15
675.84	423.64
675.98	386.19
676.12	400.23
676.26	414.27
676.40	367.46
676.54	337.04
676.68	362.78
676.82	442.36
676.96	346.40
677.10	486.83
677.23	463.43
677.37	395.55
677.51	381.51
677.65	477.47
677.79	395.55
677.93	447.04
678.07	393.21
678.21	430.66
678.34	397.89
678.48	423.64
678.62	430.66
678.76	465.77
678.90	475.13
679.04	437.68
679.18	346.40
679.31	374.49
679.45	416.62
679.59	411.93
679.73	505.56
679.87	400.23
680.00	402.57
680.14	355.76
680.28	475.13
680.42	397.89
680.56	402.57
680.70	451.72
680.83	437.68
680.97	425.98
681.11	397.89
681.25	470.45
681.39	397.89
681.52	383.85
681.66	442.36
681.80	409.59
681.94	353.42
682.07	437.68
682.21	421.30
682.35	358.10
682.49	433.00
682.62	388.53
682.76	458.74
682.90	428.32
683.04	449.38
683.17	388.53
683.31	395.55
683.45	358.10
683.59	409.59
683.72	414.27
683.86	407.25
684.00	425.98
684.13	451.72
684.27	400.23
684.41	475.13
684.55	376.83
684.68	440.02
684.82	367.46
684.96	365.12
685.09	409.59
685.23	374.49
685.37	348.74
685.50	404.91
685.64	430.66
685.78	397.89
685.91	404.91
686.05	468.11
686.19	393.21
686.32	437.68
686.46	472.79
686.60	402.57
686.73	440.02
686.87	437.68
687.01	355.76
687.14	390.87
687.28	351.08
687.42	421.30
687.55	365.12
687.69	472.79
687.82	444.70
687.96	402.57
688.10	468.11
688.23	346.40
688.37	390.87
688.50	447.04
688.64	409.59
688.78	444.70
688.91	367.46
689.05	411.93
689.18	411.93
689.32	411.93
689.46	454.06
689.59	444.70
689.73	402.57
689.86	351.08
690.00	393.21
690.13	388.53
690.27	393.21
690.41	472.79
690.54	489.17
690.68	372.15
690.81	517.26
690.95	425.98
691.08	400.23
691.22	423.64
691.35	454.06
691.49	365.12
691.62	404.91
691.76	383.85
691.89	423.64
692.03	351.08
692.16	322.99
692.30	407.25
692.43	358.10
692.57	362.78
692.70	390.87
692.84	411.93
692.97	423.64
693.11	458.74
693.24	400.23
693.38	365.12
693.51	461.09
693.65	435.34
693.78	402.57
693.92	428.32
694.05	437.68
694.19	444.70
694.32	360.44
694.45	425.98
694.59	402.57
694.72	374.49
694.86	407.25
694.99	454.06
695.13	447.04
695.26	475.13
695.39	341.72
695.53	435.34
695.66	428.32
695.80	386.19
695.93	318.31
696.07	386.19
696.20	440.02
696.33	353.42
696.47	416.62
696.60	440.02
696.73	437.68
696.87	360.44
697.00	435.34
697.14	404.91
697.27	351.08
697.40	416.62
697.54	442.36
697.67	414.27
697.80	341.72
697.94	362.78
698.07	369.80
698.21	433.00
698.34	421.30
698.47	395.55
698.61	404.91
698.74	430.66
698.87	425.98
699.01	484.49
699.14	407.25
699.27	416.62
699.40	484.49
699.54	388.53
699.67	332.36
699.80	437.68
699.94	437.68
700.07	379.17
700.20	414.27
700.34	334.70
700.47	407.25
700.60	442.36
700.73	367.46
700.87	470.45
701.00	477.47
701.13	358.10
701.26	351.08
701.40	451.72
701.53	351.08
701.66	397.89
701.79	418.96
701.93	421.30
702.06	447.04
702.19	402.57
702.32	463.43
702.46	344.06
702.59	397.89
702.72	381.51
702.85	416.62
702.99	390.87
703.12	334.70
703.25	409.59
703.38	468.11
703.51	339.38
703.65	414.27
703.78	421.30
703.91	486.83
704.04	430.66
704.17	404.91
704.31	447.04
704.44	440.02
704.57	423.64
704.70	407.25
704.83	327.68
704.96	351.08
705.10	383.85
705.23	454.06
>>>>>End Processed Spectral Data<<<<<
