SpectraSuite Data File
++++++++++++++++++++++++++++++++++++
Date: Fri Oct 25 12:11:15 EDT 2013
User: price-jones
Dark Spectrum Present: No
Reference Spectrum Present: No
Number of Sampled Component Spectra: 1
Spectrometers: USB2+H05261
Integration Time (usec): 100000 (USB2+H05261)
Spectra Averaged: 1 (USB2+H05261)
Boxcar Smoothing: 0 (USB2+H05261)
Correct for Electrical Dark: No (USB2+H05261)
Strobe/Lamp Enabled: No (USB2+H05261)
Correct for Detector Non-linearity: No (USB2+H05261)
Correct for Stray Light: No (USB2+H05261)
Number of Pixels in Processed Spectrum: 2048
>>>>>Begin Processed Spectral Data<<<<<
365.73	414.27
365.92	414.27
366.12	414.27
366.32	332.36
366.52	257.46
366.72	360.44
366.91	318.31
367.11	285.55
367.31	196.60
367.51	269.16
367.70	280.86
367.90	231.71
368.10	322.99
368.30	276.18
368.49	283.20
368.69	243.42
368.89	257.46
369.09	283.20
369.28	259.80
369.48	292.57
369.68	271.50
369.87	273.84
370.07	278.52
370.27	315.97
370.47	402.57
370.66	344.06
370.86	337.04
371.06	449.38
371.25	435.34
371.45	411.93
371.65	383.85
371.84	369.80
372.04	393.21
372.24	358.10
372.44	416.62
372.63	414.27
372.83	411.93
373.03	442.36
373.22	425.98
373.42	444.70
373.62	470.45
373.81	421.30
374.01	458.74
374.21	372.15
374.40	379.17
374.60	428.32
374.79	447.04
374.99	374.49
375.19	430.66
375.38	402.57
375.58	458.74
375.78	433.00
375.97	414.27
376.17	489.17
376.37	458.74
376.56	374.49
376.76	416.62
376.95	442.36
377.15	447.04
377.35	428.32
377.54	458.74
377.74	400.23
377.93	374.49
378.13	365.12
378.33	463.43
378.52	465.77
378.72	390.87
378.91	414.27
379.11	393.21
379.31	376.83
379.50	425.98
379.70	407.25
379.89	433.00
380.09	386.19
380.28	318.31
380.48	374.49
380.68	360.44
380.87	367.46
381.07	400.23
381.26	397.89
381.46	414.27
381.65	435.34
381.85	435.34
382.04	470.45
382.24	395.55
382.43	355.76
382.63	407.25
382.83	437.68
383.02	353.42
383.22	463.43
383.41	388.53
383.61	365.12
383.80	433.00
384.00	395.55
384.19	472.79
384.39	404.91
384.58	425.98
384.78	409.59
384.97	337.04
385.17	369.80
385.36	404.91
385.56	390.87
385.75	397.89
385.95	383.85
386.14	372.15
386.34	355.76
386.53	437.68
386.72	423.64
386.92	381.51
387.11	486.83
387.31	379.17
387.50	355.76
387.70	369.80
387.89	482.15
388.09	369.80
388.28	442.36
388.48	402.57
388.67	404.91
388.86	374.49
389.06	372.15
389.25	414.27
389.45	386.19
389.64	311.29
389.84	435.34
390.03	430.66
390.22	386.19
390.42	414.27
390.61	320.65
390.81	395.55
391.00	346.40
391.19	367.46
391.39	337.04
391.58	386.19
391.78	414.27
391.97	383.85
392.16	381.51
392.36	482.15
392.55	456.40
392.75	411.93
392.94	402.57
393.13	416.62
393.33	414.27
393.52	423.64
393.71	477.47
393.91	449.38
394.10	355.76
394.29	461.09
394.49	470.45
394.68	346.40
394.88	435.34
395.07	418.96
395.26	362.78
395.46	449.38
395.65	353.42
395.84	449.38
396.04	521.94
396.23	407.25
396.42	404.91
396.62	491.51
396.81	561.73
397.00	435.34
397.19	402.57
397.39	365.12
397.58	430.66
397.77	369.80
397.97	327.68
398.16	425.98
398.35	339.38
398.55	407.25
398.74	433.00
398.93	404.91
399.12	358.10
399.32	430.66
399.51	409.59
399.70	423.64
399.90	428.32
400.09	348.74
400.28	444.70
400.47	421.30
400.67	472.79
400.86	397.89
401.05	402.57
401.24	402.57
401.44	379.17
401.63	390.87
401.82	379.17
402.01	454.06
402.21	491.51
402.40	416.62
402.59	404.91
402.78	418.96
402.97	444.70
403.17	386.19
403.36	414.27
403.55	440.02
403.74	470.45
403.93	430.66
404.13	416.62
404.32	311.29
404.51	468.11
404.70	407.25
404.89	388.53
405.09	449.38
405.28	440.02
405.47	468.11
405.66	435.34
405.85	383.85
406.05	430.66
406.24	390.87
406.43	484.49
406.62	379.17
406.81	388.53
407.00	372.15
407.20	374.49
407.39	372.15
407.58	404.91
407.77	491.51
407.96	444.70
408.15	409.59
408.34	428.32
408.54	374.49
408.73	421.30
408.92	388.53
409.11	374.49
409.30	463.43
409.49	386.19
409.68	395.55
409.87	393.21
410.07	393.21
410.26	498.53
410.45	468.11
410.64	456.40
410.83	430.66
411.02	456.40
411.21	472.79
411.40	362.78
411.59	447.04
411.78	341.72
411.98	428.32
412.17	372.15
412.36	367.46
412.55	367.46
412.74	376.83
412.93	442.36
413.12	418.96
413.31	388.53
413.50	402.57
413.69	411.93
413.88	409.59
414.07	355.76
414.26	374.49
414.45	369.80
414.64	437.68
414.83	355.76
415.02	402.57
415.22	404.91
415.41	411.93
415.60	381.51
415.79	428.32
415.98	402.57
416.17	402.57
416.36	449.38
416.55	421.30
416.74	411.93
416.93	414.27
417.12	358.10
417.31	346.40
417.50	365.12
417.69	461.09
417.88	440.02
418.07	393.21
418.26	369.80
418.45	383.85
418.64	491.51
418.83	482.15
419.02	402.57
419.21	409.59
419.39	353.42
419.58	433.00
419.77	442.36
419.96	369.80
420.15	402.57
420.34	402.57
420.53	421.30
420.72	372.15
420.91	423.64
421.10	484.49
421.29	376.83
421.48	351.08
421.67	414.27
421.86	437.68
422.05	498.53
422.24	440.02
422.43	428.32
422.61	400.23
422.80	414.27
422.99	416.62
423.18	444.70
423.37	400.23
423.56	402.57
423.75	433.00
423.94	425.98
424.13	383.85
424.32	475.13
424.50	437.68
424.69	465.77
424.88	444.70
425.07	346.40
425.26	444.70
425.45	456.40
425.64	379.17
425.83	355.76
426.01	458.74
426.20	465.77
426.39	435.34
426.58	390.87
426.77	444.70
426.96	404.91
427.15	425.98
427.33	381.51
427.52	376.83
427.71	418.96
427.90	437.68
428.09	437.68
428.28	393.21
428.46	407.25
428.65	379.17
428.84	379.17
429.03	418.96
429.22	454.06
429.40	388.53
429.59	374.49
429.78	414.27
429.97	376.83
430.16	381.51
430.34	465.77
430.53	411.93
430.72	433.00
430.91	428.32
431.10	435.34
431.28	472.79
431.47	376.83
431.66	402.57
431.85	402.57
432.03	362.78
432.22	407.25
432.41	404.91
432.60	435.34
432.79	416.62
432.97	400.23
433.16	416.62
433.35	397.89
433.54	388.53
433.72	351.08
433.91	484.49
434.10	390.87
434.28	428.32
434.47	414.27
434.66	425.98
434.85	393.21
435.03	449.38
435.22	414.27
435.41	465.77
435.59	468.11
435.78	418.96
435.97	463.43
436.16	414.27
436.34	428.32
436.53	376.83
436.72	458.74
436.90	351.08
437.09	421.30
437.28	395.55
437.46	433.00
437.65	372.15
437.84	423.64
438.02	388.53
438.21	435.34
438.40	334.70
438.58	372.15
438.77	456.40
438.96	374.49
439.14	458.74
439.33	400.23
439.52	397.89
439.70	383.85
439.89	416.62
440.08	430.66
440.26	437.68
440.45	390.87
440.63	400.23
440.82	442.36
441.01	409.59
441.19	407.25
441.38	425.98
441.57	386.19
441.75	433.00
441.94	393.21
442.12	484.49
442.31	404.91
442.50	433.00
442.68	407.25
442.87	465.77
443.05	435.34
443.24	374.49
443.43	486.83
443.61	360.44
443.80	407.25
443.98	320.65
444.17	421.30
444.35	470.45
444.54	433.00
444.73	393.21
444.91	514.92
445.10	393.21
445.28	428.32
445.47	458.74
445.65	322.99
445.84	425.98
446.02	433.00
446.21	418.96
446.39	376.83
446.58	430.66
446.77	367.46
446.95	482.15
447.14	435.34
447.32	388.53
447.51	418.96
447.69	470.45
447.88	381.51
448.06	400.23
448.25	404.91
448.43	388.53
448.62	404.91
448.80	475.13
448.99	369.80
449.17	334.70
449.36	442.36
449.54	416.62
449.73	381.51
449.91	402.57
450.10	444.70
450.28	393.21
450.46	421.30
450.65	472.79
450.83	461.09
451.02	407.25
451.20	409.59
451.39	365.12
451.57	390.87
451.76	465.77
451.94	421.30
452.13	442.36
452.31	463.43
452.49	447.04
452.68	430.66
452.86	484.49
453.05	341.72
453.23	423.64
453.42	435.34
453.60	372.15
453.78	444.70
453.97	381.51
454.15	421.30
454.34	362.78
454.52	411.93
454.70	376.83
454.89	486.83
455.07	463.43
455.26	442.36
455.44	435.34
455.62	458.74
455.81	369.80
455.99	416.62
456.17	454.06
456.36	362.78
456.54	346.40
456.73	414.27
456.91	376.83
457.09	414.27
457.28	355.76
457.46	463.43
457.64	435.34
457.83	388.53
458.01	414.27
458.19	449.38
458.38	407.25
458.56	430.66
458.74	365.12
458.93	360.44
459.11	503.22
459.29	433.00
459.48	390.87
459.66	538.32
459.84	486.83
460.03	468.11
460.21	414.27
460.39	468.11
460.57	440.02
460.76	437.68
460.94	402.57
461.12	430.66
461.31	442.36
461.49	433.00
461.67	407.25
461.85	444.70
462.04	313.63
462.22	765.36
462.40	489.17
462.59	437.68
462.77	433.00
462.95	449.38
463.13	421.30
463.32	449.38
463.50	425.98
463.68	388.53
463.86	402.57
464.05	400.23
464.23	451.72
464.41	442.36
464.59	411.93
464.78	400.23
464.96	369.80
465.14	376.83
465.32	393.21
465.50	418.96
465.69	433.00
465.87	449.38
466.05	416.62
466.23	470.45
466.41	393.21
466.60	437.68
466.78	435.34
466.96	437.68
467.14	449.38
467.32	461.09
467.51	414.27
467.69	397.89
467.87	386.19
468.05	421.30
468.23	472.79
468.41	447.04
468.60	404.91
468.78	414.27
468.96	360.44
469.14	383.85
469.32	454.06
469.50	423.64
469.69	440.02
469.87	411.93
470.05	435.34
470.23	458.74
470.41	411.93
470.59	428.32
470.77	418.96
470.95	397.89
471.14	442.36
471.32	381.51
471.50	423.64
471.68	393.21
471.86	325.33
472.04	353.42
472.22	376.83
472.40	407.25
472.58	353.42
472.77	433.00
472.95	437.68
473.13	472.79
473.31	442.36
473.49	397.89
473.67	358.10
473.85	449.38
474.03	418.96
474.21	397.89
474.39	498.53
474.57	435.34
474.75	374.49
474.93	447.04
475.12	318.31
475.30	425.98
475.48	381.51
475.66	379.17
475.84	437.68
476.02	414.27
476.20	358.10
476.38	433.00
476.56	437.68
476.74	461.09
476.92	395.55
477.10	376.83
477.28	416.62
477.46	430.66
477.64	447.04
477.82	461.09
478.00	425.98
478.18	449.38
478.36	447.04
478.54	440.02
478.72	468.11
478.90	463.43
479.08	409.59
479.26	425.98
479.44	402.57
479.62	456.40
479.80	402.57
479.98	386.19
480.16	297.25
480.34	451.72
480.52	458.74
480.70	430.66
480.88	355.76
481.06	440.02
481.24	414.27
481.41	383.85
481.59	444.70
481.77	393.21
481.95	416.62
482.13	496.19
482.31	374.49
482.49	411.93
482.67	437.68
482.85	500.87
483.03	402.57
483.21	402.57
483.39	376.83
483.57	468.11
483.74	423.64
483.92	379.17
484.10	341.72
484.28	414.27
484.46	423.64
484.64	423.64
484.82	475.13
485.00	442.36
485.18	330.02
485.35	351.08
485.53	458.74
485.71	418.96
485.89	463.43
486.07	461.09
486.25	512.58
486.43	442.36
486.61	447.04
486.78	449.38
486.96	411.93
487.14	355.76
487.32	374.49
487.50	374.49
487.68	425.98
487.85	369.80
488.03	444.70
488.21	423.64
488.39	402.57
488.57	486.83
488.75	423.64
488.92	475.13
489.10	472.79
489.28	493.85
489.46	369.80
489.64	428.32
489.81	390.87
489.99	447.04
490.17	482.15
490.35	430.66
490.53	407.25
490.70	332.36
490.88	437.68
491.06	402.57
491.24	374.49
491.41	468.11
491.59	451.72
491.77	388.53
491.95	418.96
492.13	339.38
492.30	402.57
492.48	381.51
492.66	407.25
492.84	395.55
493.01	421.30
493.19	318.31
493.37	468.11
493.54	369.80
493.72	444.70
493.90	358.10
494.08	311.29
494.25	383.85
494.43	393.21
494.61	341.72
494.79	334.70
494.96	414.27
495.14	468.11
495.32	435.34
495.49	414.27
495.67	388.53
495.85	425.98
496.02	458.74
496.20	425.98
496.38	470.45
496.55	430.66
496.73	423.64
496.91	404.91
497.09	442.36
497.26	423.64
497.44	454.06
497.62	397.89
497.79	421.30
497.97	395.55
498.14	477.47
498.32	407.25
498.50	465.77
498.67	381.51
498.85	484.49
499.03	486.83
499.20	386.19
499.38	402.57
499.56	425.98
499.73	418.96
499.91	454.06
500.08	425.98
500.26	395.55
500.44	365.12
500.61	468.11
500.79	482.15
500.97	430.66
501.14	489.17
501.32	376.83
501.49	463.43
501.67	416.62
501.84	435.34
502.02	440.02
502.20	423.64
502.37	449.38
502.55	409.59
502.72	442.36
502.90	407.25
503.07	418.96
503.25	407.25
503.43	390.87
503.60	435.34
503.78	444.70
503.95	447.04
504.13	388.53
504.30	421.30
504.48	421.30
504.65	484.49
504.83	388.53
505.01	451.72
505.18	456.40
505.36	451.72
505.53	454.06
505.71	407.25
505.88	435.34
506.06	390.87
506.23	430.66
506.41	414.27
506.58	395.55
506.76	496.19
506.93	395.55
507.11	411.93
507.28	327.68
507.46	456.40
507.63	428.32
507.81	423.64
507.98	425.98
508.16	374.49
508.33	327.68
508.50	430.66
508.68	447.04
508.85	409.59
509.03	430.66
509.20	372.15
509.38	407.25
509.55	566.41
509.73	444.70
509.90	512.58
510.08	358.10
510.25	397.89
510.42	400.23
510.60	416.62
510.77	381.51
510.95	416.62
511.12	411.93
511.30	388.53
511.47	437.68
511.64	468.11
511.82	433.00
511.99	433.00
512.17	397.89
512.34	423.64
512.51	416.62
512.69	404.91
512.86	397.89
513.04	411.93
513.21	369.80
513.38	414.27
513.56	456.40
513.73	458.74
513.90	379.17
514.08	442.36
514.25	421.30
514.43	402.57
514.60	409.59
514.77	397.89
514.95	372.15
515.12	390.87
515.29	402.57
515.47	358.10
515.64	414.27
515.81	386.19
515.99	463.43
516.16	416.62
516.33	484.49
516.51	519.60
516.68	369.80
516.85	407.25
517.03	407.25
517.20	423.64
517.37	430.66
517.54	440.02
517.72	423.64
517.89	416.62
518.06	390.87
518.24	428.32
518.41	463.43
518.58	418.96
518.75	372.15
518.93	456.40
519.10	414.27
519.27	365.12
519.45	362.78
519.62	425.98
519.79	477.47
519.96	376.83
520.14	451.72
520.31	484.49
520.48	458.74
520.65	461.09
520.83	418.96
521.00	442.36
521.17	416.62
521.34	409.59
521.52	362.78
521.69	395.55
521.86	409.59
522.03	416.62
522.20	400.23
522.38	376.83
522.55	397.89
522.72	325.33
522.89	491.51
523.07	383.85
523.24	479.81
523.41	383.85
523.58	447.04
523.75	411.93
523.92	362.78
524.10	425.98
524.27	451.72
524.44	423.64
524.61	402.57
524.78	407.25
524.96	379.17
525.13	407.25
525.30	433.00
525.47	423.64
525.64	351.08
525.81	486.83
525.98	397.89
526.16	374.49
526.33	454.06
526.50	393.21
526.67	383.85
526.84	463.43
527.01	411.93
527.18	454.06
527.36	411.93
527.53	376.83
527.70	416.62
527.87	409.59
528.04	468.11
528.21	397.89
528.38	447.04
528.55	430.66
528.72	463.43
528.89	444.70
529.07	456.40
529.24	400.23
529.41	440.02
529.58	444.70
529.75	379.17
529.92	493.85
530.09	416.62
530.26	395.55
530.43	418.96
530.60	468.11
530.77	395.55
530.94	416.62
531.11	470.45
531.28	411.93
531.46	383.85
531.63	414.27
531.80	468.11
531.97	463.43
532.14	433.00
532.31	416.62
532.48	332.36
532.65	433.00
532.82	425.98
532.99	414.27
533.16	388.53
533.33	430.66
533.50	496.19
533.67	414.27
533.84	447.04
534.01	358.10
534.18	423.64
534.35	353.42
534.52	425.98
534.69	402.57
534.86	393.21
535.03	423.64
535.20	386.19
535.37	418.96
535.54	475.13
535.71	395.55
535.88	440.02
536.05	416.62
536.22	376.83
536.38	402.57
536.55	355.76
536.72	496.19
536.89	374.49
537.06	437.68
537.23	433.00
537.40	465.77
537.57	360.44
537.74	447.04
537.91	421.30
538.08	344.06
538.25	465.77
538.42	355.76
538.59	428.32
538.75	428.32
538.92	414.27
539.09	456.40
539.26	472.79
539.43	416.62
539.60	407.25
539.77	400.23
539.94	505.56
540.11	449.38
540.28	458.74
540.44	421.30
540.61	421.30
540.78	435.34
540.95	409.59
541.12	496.19
541.29	440.02
541.46	465.77
541.62	458.74
541.79	449.38
541.96	358.10
542.13	456.40
542.30	334.70
542.47	400.23
542.63	386.19
542.80	400.23
542.97	404.91
543.14	461.09
543.31	416.62
543.48	404.91
543.64	372.15
543.81	372.15
543.98	330.02
544.15	463.43
544.32	411.93
544.48	425.98
544.65	418.96
544.82	461.09
544.99	414.27
545.16	430.66
545.32	411.93
545.49	388.53
545.66	367.46
545.83	435.34
546.00	393.21
546.16	463.43
546.33	407.25
546.50	418.96
546.67	433.00
546.83	402.57
547.00	444.70
547.17	454.06
547.34	360.44
547.50	416.62
547.67	358.10
547.84	369.80
548.00	433.00
548.17	365.12
548.34	332.36
548.51	475.13
548.67	414.27
548.84	402.57
549.01	311.29
549.18	395.55
549.34	395.55
549.51	440.02
549.68	365.12
549.84	411.93
550.01	388.53
550.18	538.32
550.34	475.13
550.51	449.38
550.68	433.00
550.84	400.23
551.01	433.00
551.18	407.25
551.34	423.64
551.51	376.83
551.68	418.96
551.84	442.36
552.01	421.30
552.18	430.66
552.34	367.46
552.51	428.32
552.68	337.04
552.84	465.77
553.01	376.83
553.18	381.51
553.34	330.02
553.51	397.89
553.67	423.64
553.84	468.11
554.01	468.11
554.17	425.98
554.34	369.80
554.51	470.45
554.67	425.98
554.84	491.51
555.00	437.68
555.17	409.59
555.33	372.15
555.50	479.81
555.67	447.04
555.83	411.93
556.00	344.06
556.16	526.62
556.33	463.43
556.50	449.38
556.66	395.55
556.83	381.51
556.99	404.91
557.16	402.57
557.32	402.57
557.49	458.74
557.65	444.70
557.82	409.59
557.98	346.40
558.15	430.66
558.32	411.93
558.48	484.49
558.65	365.12
558.81	404.91
558.98	454.06
559.14	407.25
559.31	425.98
559.47	423.64
559.64	414.27
559.80	423.64
559.97	400.23
560.13	400.23
560.30	409.59
560.46	409.59
560.63	337.04
560.79	404.91
560.96	411.93
561.12	379.17
561.29	479.81
561.45	360.44
561.61	465.77
561.78	456.40
561.94	416.62
562.11	458.74
562.27	390.87
562.44	374.49
562.60	433.00
562.77	407.25
562.93	470.45
563.10	430.66
563.26	402.57
563.42	437.68
563.59	362.78
563.75	311.29
563.92	484.49
564.08	425.98
564.24	383.85
564.41	428.32
564.57	409.59
564.74	414.27
564.90	454.06
565.07	484.49
565.23	430.66
565.39	421.30
565.56	461.09
565.72	496.19
565.88	400.23
566.05	383.85
566.21	428.32
566.38	407.25
566.54	407.25
566.70	465.77
566.87	425.98
567.03	397.89
567.19	414.27
567.36	358.10
567.52	425.98
567.68	360.44
567.85	411.93
568.01	442.36
568.17	404.91
568.34	393.21
568.50	407.25
568.66	386.19
568.83	451.72
568.99	411.93
569.15	447.04
569.32	421.30
569.48	458.74
569.64	353.42
569.81	435.34
569.97	409.59
570.13	496.19
570.30	433.00
570.46	463.43
570.62	414.27
570.78	451.72
570.95	414.27
571.11	425.98
571.27	475.13
571.43	454.06
571.60	425.98
571.76	372.15
571.92	479.81
572.09	400.23
572.25	486.83
572.41	421.30
572.57	409.59
572.74	517.26
572.90	376.83
573.06	421.30
573.22	456.40
573.38	468.11
573.55	409.59
573.71	421.30
573.87	461.09
574.03	388.53
574.20	411.93
574.36	400.23
574.52	376.83
574.68	456.40
574.84	372.15
575.01	479.81
575.17	437.68
575.33	379.17
575.49	407.25
575.65	454.06
575.82	327.68
575.98	512.58
576.14	461.09
576.30	428.32
576.46	353.42
576.62	414.27
576.79	425.98
576.95	458.74
577.11	404.91
577.27	402.57
577.43	395.55
577.59	393.21
577.75	447.04
577.92	423.64
578.08	381.51
578.24	512.58
578.40	428.32
578.56	489.17
578.72	397.89
578.88	423.64
579.04	477.47
579.21	430.66
579.37	379.17
579.53	346.40
579.69	423.64
579.85	400.23
580.01	397.89
580.17	468.11
580.33	493.85
580.49	477.47
580.65	404.91
580.82	376.83
580.98	381.51
581.14	421.30
581.30	442.36
581.46	404.91
581.62	433.00
581.78	430.66
581.94	421.30
582.10	353.42
582.26	386.19
582.42	423.64
582.58	435.34
582.74	390.87
582.90	425.98
583.06	421.30
583.22	421.30
583.38	402.57
583.54	491.51
583.70	386.19
583.86	411.93
584.02	454.06
584.18	447.04
584.34	372.15
584.50	433.00
584.66	383.85
584.82	470.45
584.98	440.02
585.14	376.83
585.30	433.00
585.46	463.43
585.62	456.40
585.78	440.02
585.94	470.45
586.10	465.77
586.26	351.08
586.42	433.00
586.58	365.12
586.74	353.42
586.90	482.15
587.06	418.96
587.22	407.25
587.38	388.53
587.54	372.15
587.70	397.89
587.86	404.91
588.02	433.00
588.18	428.32
588.34	472.79
588.49	454.06
588.65	484.49
588.81	425.98
588.97	416.62
589.13	442.36
589.29	383.85
589.45	414.27
589.61	418.96
589.77	463.43
589.93	409.59
590.08	411.93
590.24	451.72
590.40	440.02
590.56	421.30
590.72	425.98
590.88	409.59
591.04	435.34
591.20	456.40
591.35	411.93
591.51	477.47
591.67	423.64
591.83	477.47
591.99	404.91
592.15	423.64
592.31	484.49
592.46	440.02
592.62	451.72
592.78	393.21
592.94	430.66
593.10	341.72
593.26	386.19
593.41	414.27
593.57	353.42
593.73	461.09
593.89	447.04
594.05	397.89
594.20	418.96
594.36	386.19
594.52	344.06
594.68	421.30
594.84	458.74
594.99	456.40
595.15	458.74
595.31	461.09
595.47	486.83
595.62	379.17
595.78	505.56
595.94	369.80
596.10	451.72
596.25	423.64
596.41	425.98
596.57	414.27
596.73	477.47
596.88	437.68
597.04	344.06
597.20	486.83
597.36	397.89
597.51	454.06
597.67	437.68
597.83	418.96
597.99	498.53
598.14	388.53
598.30	372.15
598.46	395.55
598.61	440.02
598.77	365.12
598.93	461.09
599.09	360.44
599.24	421.30
599.40	451.72
599.56	454.06
599.71	358.10
599.87	435.34
600.03	428.32
600.18	428.32
600.34	496.19
600.50	437.68
600.65	451.72
600.81	482.15
600.97	390.87
601.12	454.06
601.28	437.68
601.44	444.70
601.59	433.00
601.75	411.93
601.91	416.62
602.06	407.25
602.22	468.11
602.37	444.70
602.53	458.74
602.69	414.27
602.84	395.55
603.00	339.38
603.16	447.04
603.31	423.64
603.47	461.09
603.62	402.57
603.78	444.70
603.94	468.11
604.09	414.27
604.25	407.25
604.40	395.55
604.56	447.04
604.71	442.36
604.87	407.25
605.03	411.93
605.18	365.12
605.34	472.79
605.49	421.30
605.65	411.93
605.80	353.42
605.96	482.15
606.12	425.98
606.27	402.57
606.43	390.87
606.58	404.91
606.74	442.36
606.89	372.15
607.05	423.64
607.20	395.55
607.36	510.24
607.51	411.93
607.67	442.36
607.82	447.04
607.98	423.64
608.13	454.06
608.29	468.11
608.44	503.22
608.60	449.38
608.75	442.36
608.91	465.77
609.06	444.70
609.22	346.40
609.37	421.30
609.53	430.66
609.68	397.89
609.84	507.90
609.99	486.83
610.15	447.04
610.30	414.27
610.46	468.11
610.61	449.38
610.76	421.30
610.92	414.27
611.07	454.06
611.23	461.09
611.38	442.36
611.54	381.51
611.69	383.85
611.84	461.09
612.00	358.10
612.15	423.64
612.31	440.02
612.46	407.25
612.62	386.19
612.77	416.62
612.92	411.93
613.08	430.66
613.23	442.36
613.39	416.62
613.54	372.15
613.69	430.66
613.85	369.80
614.00	395.55
614.15	461.09
614.31	411.93
614.46	358.10
614.62	425.98
614.77	414.27
614.92	379.17
615.08	395.55
615.23	437.68
615.38	383.85
615.54	397.89
615.69	409.59
615.84	395.55
616.00	423.64
616.15	414.27
616.30	442.36
616.46	395.55
616.61	397.89
616.76	374.49
616.92	402.57
617.07	388.53
617.22	397.89
617.37	397.89
617.53	400.23
617.68	468.11
617.83	386.19
617.99	514.92
618.14	451.72
618.29	447.04
618.45	367.46
618.60	486.83
618.75	451.72
618.90	447.04
619.06	402.57
619.21	517.26
619.36	421.30
619.51	437.68
619.67	397.89
619.82	372.15
619.97	397.89
620.12	449.38
620.28	465.77
620.43	430.66
620.58	411.93
620.73	386.19
620.89	421.30
621.04	409.59
621.19	360.44
621.34	433.00
621.49	383.85
621.65	428.32
621.80	365.12
621.95	418.96
622.10	437.68
622.25	390.87
622.41	416.62
622.56	374.49
622.71	428.32
622.86	449.38
623.01	374.49
623.16	388.53
623.32	409.59
623.47	395.55
623.62	409.59
623.77	489.17
623.92	463.43
624.07	418.96
624.23	440.02
624.38	418.96
624.53	435.34
624.68	418.96
624.83	388.53
624.98	393.21
625.13	337.04
625.29	393.21
625.44	353.42
625.59	423.64
625.74	388.53
625.89	421.30
626.04	355.76
626.19	402.57
626.34	416.62
626.49	425.98
626.65	421.30
626.80	442.36
626.95	397.89
627.10	447.04
627.25	447.04
627.40	397.89
627.55	440.02
627.70	418.96
627.85	369.80
628.00	470.45
628.15	337.04
628.30	454.06
628.45	351.08
628.60	383.85
628.76	456.40
628.91	404.91
629.06	411.93
629.21	416.62
629.36	404.91
629.51	428.32
629.66	435.34
629.81	484.49
629.96	353.42
630.11	388.53
630.26	430.66
630.41	351.08
630.56	428.32
630.71	468.11
630.86	372.15
631.01	404.91
631.16	433.00
631.31	496.19
631.46	397.89
631.61	433.00
631.76	461.09
631.91	397.89
632.06	433.00
632.21	433.00
632.36	435.34
632.51	348.74
632.66	383.85
632.81	440.02
632.96	470.45
633.10	355.76
633.25	411.93
633.40	477.47
633.55	407.25
633.70	461.09
633.85	355.76
634.00	475.13
634.15	397.89
634.30	381.51
634.45	442.36
634.60	477.47
634.75	454.06
634.90	470.45
635.05	458.74
635.19	355.76
635.34	404.91
635.49	433.00
635.64	383.85
635.79	437.68
635.94	339.38
636.09	465.77
636.24	437.68
636.39	440.02
636.53	407.25
636.68	388.53
636.83	414.27
636.98	510.24
637.13	454.06
637.28	376.83
637.43	505.56
637.57	458.74
637.72	418.96
637.87	402.57
638.02	390.87
638.17	374.49
638.32	451.72
638.46	369.80
638.61	458.74
638.76	374.49
638.91	407.25
639.06	414.27
639.20	442.36
639.35	416.62
639.50	388.53
639.65	421.30
639.80	482.15
639.94	430.66
640.09	435.34
640.24	521.94
640.39	388.53
640.54	503.22
640.68	416.62
640.83	463.43
640.98	421.30
641.13	430.66
641.27	425.98
641.42	400.23
641.57	458.74
641.72	461.09
641.86	372.15
642.01	402.57
642.16	390.87
642.31	393.21
642.45	386.19
642.60	437.68
642.75	365.12
642.90	456.40
643.04	421.30
643.19	395.55
643.34	409.59
643.48	388.53
643.63	486.83
643.78	395.55
643.93	407.25
644.07	505.56
644.22	416.62
644.37	369.80
644.51	367.46
644.66	449.38
644.81	411.93
644.95	425.98
645.10	400.23
645.25	458.74
645.39	451.72
645.54	454.06
645.69	447.04
645.83	409.59
645.98	491.51
646.13	390.87
646.27	411.93
646.42	367.46
646.57	381.51
646.71	383.85
646.86	442.36
647.00	430.66
647.15	409.59
647.30	390.87
647.44	393.21
647.59	374.49
647.74	397.89
647.88	416.62
648.03	402.57
648.17	493.85
648.32	344.06
648.47	390.87
648.61	381.51
648.76	468.11
648.90	414.27
649.05	458.74
649.20	390.87
649.34	461.09
649.49	440.02
649.63	451.72
649.78	475.13
649.92	416.62
650.07	379.17
650.21	451.72
650.36	430.66
650.51	423.64
650.65	465.77
650.80	379.17
650.94	416.62
651.09	440.02
651.23	388.53
651.38	409.59
651.52	397.89
651.67	393.21
651.81	451.72
651.96	411.93
652.10	472.79
652.25	472.79
652.39	407.25
652.54	423.64
652.68	454.06
652.83	475.13
652.97	437.68
653.12	440.02
653.26	376.83
653.41	353.42
653.55	425.98
653.70	435.34
653.84	386.19
653.99	423.64
654.13	383.85
654.27	418.96
654.42	435.34
654.56	465.77
654.71	409.59
654.85	351.08
655.00	393.21
655.14	372.15
655.29	437.68
655.43	411.93
655.57	449.38
655.72	444.70
655.86	369.80
656.01	442.36
656.15	444.70
656.30	444.70
656.44	425.98
656.58	425.98
656.73	423.64
656.87	409.59
657.01	390.87
657.16	454.06
657.30	477.47
657.45	409.59
657.59	482.15
657.73	404.91
657.88	444.70
658.02	468.11
658.16	472.79
658.31	294.91
658.45	383.85
658.60	421.30
658.74	421.30
658.88	442.36
659.03	383.85
659.17	444.70
659.31	444.70
659.46	423.64
659.60	435.34
659.74	411.93
659.89	463.43
660.03	379.17
660.17	362.78
660.32	337.04
660.46	444.70
660.60	440.02
660.74	414.27
660.89	388.53
661.03	437.68
661.17	367.46
661.32	407.25
661.46	414.27
661.60	425.98
661.74	451.72
661.89	475.13
662.03	346.40
662.17	411.93
662.31	397.89
662.46	454.06
662.60	425.98
662.74	477.47
662.88	486.83
663.03	411.93
663.17	395.55
663.31	416.62
663.45	416.62
663.60	437.68
663.74	468.11
663.88	442.36
664.02	400.23
664.17	362.78
664.31	348.74
664.45	358.10
664.59	416.62
664.73	379.17
664.88	411.93
665.02	388.53
665.16	428.32
665.30	440.02
665.44	456.40
665.59	402.57
665.73	367.46
665.87	402.57
666.01	451.72
666.15	444.70
666.29	381.51
666.44	456.40
666.58	421.30
666.72	505.56
666.86	339.38
667.00	442.36
667.14	423.64
667.28	475.13
667.43	355.76
667.57	489.17
667.71	458.74
667.85	454.06
667.99	407.25
668.13	362.78
668.27	435.34
668.41	449.38
668.56	425.98
668.70	447.04
668.84	416.62
668.98	428.32
669.12	397.89
669.26	440.02
669.40	416.62
669.54	437.68
669.68	533.64
669.82	376.83
669.96	381.51
670.10	423.64
670.25	409.59
670.39	447.04
670.53	393.21
670.67	409.59
670.81	376.83
670.95	517.26
671.09	390.87
671.23	507.90
671.37	444.70
671.51	451.72
671.65	423.64
671.79	433.00
671.93	418.96
672.07	514.92
672.21	425.98
672.35	437.68
672.49	414.27
672.63	493.85
672.77	418.96
672.91	358.10
673.05	465.77
673.19	365.12
673.33	486.83
673.47	482.15
673.61	430.66
673.75	411.93
673.89	404.91
674.03	430.66
674.17	435.34
674.31	397.89
674.45	414.27
674.59	428.32
674.73	456.40
674.87	444.70
675.01	489.17
675.15	402.57
675.29	414.27
675.43	454.06
675.56	404.91
675.70	421.30
675.84	477.47
675.98	435.34
676.12	423.64
676.26	449.38
676.40	341.72
676.54	437.68
676.68	430.66
676.82	447.04
676.96	390.87
677.10	435.34
677.23	393.21
677.37	433.00
677.51	409.59
677.65	461.09
677.79	428.32
677.93	402.57
678.07	397.89
678.21	418.96
678.34	367.46
678.48	451.72
678.62	402.57
678.76	388.53
678.90	404.91
679.04	484.49
679.18	344.06
679.31	351.08
679.45	416.62
679.59	437.68
679.73	423.64
679.87	351.08
680.00	442.36
680.14	393.21
680.28	411.93
680.42	388.53
680.56	360.44
680.70	411.93
680.83	475.13
680.97	479.81
681.11	390.87
681.25	477.47
681.39	428.32
681.52	458.74
681.66	447.04
681.80	479.81
681.94	386.19
682.07	383.85
682.21	435.34
682.35	372.15
682.49	411.93
682.62	472.79
682.76	315.97
682.90	388.53
683.04	425.98
683.17	367.46
683.31	423.64
683.45	395.55
683.59	411.93
683.72	465.77
683.86	404.91
684.00	390.87
684.13	430.66
684.27	463.43
684.41	393.21
684.55	365.12
684.68	397.89
684.82	418.96
684.96	365.12
685.09	397.89
685.23	428.32
685.37	437.68
685.50	510.24
685.64	421.30
685.78	386.19
685.91	411.93
686.05	468.11
686.19	407.25
686.32	397.89
686.46	386.19
686.60	379.17
686.73	433.00
686.87	402.57
687.01	388.53
687.14	339.38
687.28	327.68
687.42	348.74
687.55	517.26
687.69	463.43
687.82	414.27
687.96	440.02
688.10	454.06
688.23	388.53
688.37	435.34
688.50	390.87
688.64	355.76
688.78	451.72
688.91	414.27
689.05	482.15
689.18	369.80
689.32	425.98
689.46	461.09
689.59	332.36
689.73	428.32
689.86	423.64
690.00	390.87
690.13	404.91
690.27	411.93
690.41	390.87
690.54	393.21
690.68	470.45
690.81	447.04
690.95	395.55
691.08	477.47
691.22	428.32
691.35	341.72
691.49	379.17
691.62	416.62
691.76	376.83
691.89	423.64
692.03	369.80
692.16	390.87
692.30	322.99
692.43	395.55
692.57	374.49
692.70	418.96
692.84	390.87
692.97	346.40
693.11	411.93
693.24	355.76
693.38	447.04
693.51	393.21
693.65	414.27
693.78	428.32
693.92	407.25
694.05	404.91
694.19	425.98
694.32	390.87
694.45	346.40
694.59	369.80
694.72	437.68
694.86	435.34
694.99	372.15
695.13	430.66
695.26	416.62
695.39	397.89
695.53	468.11
695.66	437.68
695.80	472.79
695.93	425.98
696.07	491.51
696.20	404.91
696.33	376.83
696.47	437.68
696.60	395.55
696.73	435.34
696.87	425.98
697.00	472.79
697.14	407.25
697.27	404.91
697.40	524.28
697.54	451.72
697.67	442.36
697.80	388.53
697.94	369.80
698.07	339.38
698.21	376.83
698.34	428.32
698.47	489.17
698.61	411.93
698.74	362.78
698.87	493.85
699.01	372.15
699.14	404.91
699.27	425.98
699.40	514.92
699.54	351.08
699.67	369.80
699.80	425.98
699.94	428.32
700.07	390.87
700.20	407.25
700.34	421.30
700.47	409.59
700.60	418.96
700.73	428.32
700.87	489.17
701.00	407.25
701.13	388.53
701.26	454.06
701.40	390.87
701.53	421.30
701.66	376.83
701.79	423.64
701.93	416.62
702.06	479.81
702.19	388.53
702.32	456.40
702.46	351.08
702.59	346.40
702.72	351.08
702.85	393.21
702.99	435.34
703.12	428.32
703.25	388.53
703.38	451.72
703.51	395.55
703.65	395.55
703.78	435.34
703.91	482.15
704.04	341.72
704.17	421.30
704.31	365.12
704.44	383.85
704.57	390.87
704.70	428.32
704.83	458.74
704.96	477.47
705.10	404.91
705.23	444.70
>>>>>End Processed Spectral Data<<<<<
