SpectraSuite Data File
++++++++++++++++++++++++++++++++++++
Date: Fri Oct 25 12:10:18 EDT 2013
User: price-jones
Dark Spectrum Present: No
Reference Spectrum Present: No
Number of Sampled Component Spectra: 1
Spectrometers: USB2+H05261
Integration Time (usec): 100000 (USB2+H05261)
Spectra Averaged: 1 (USB2+H05261)
Boxcar Smoothing: 0 (USB2+H05261)
Correct for Electrical Dark: No (USB2+H05261)
Strobe/Lamp Enabled: No (USB2+H05261)
Correct for Detector Non-linearity: No (USB2+H05261)
Correct for Stray Light: No (USB2+H05261)
Number of Pixels in Processed Spectrum: 2048
>>>>>Begin Processed Spectral Data<<<<<
365.73	304.27
365.92	304.27
366.12	304.27
366.32	330.02
366.52	301.93
366.72	283.20
366.91	257.46
367.11	191.92
367.31	229.37
367.51	208.31
367.70	304.27
367.90	198.95
368.10	276.18
368.30	236.39
368.49	236.39
368.69	245.76
368.89	264.48
369.09	259.80
369.28	276.18
369.48	182.56
369.68	365.12
369.87	348.74
370.07	353.42
370.27	339.38
370.47	402.57
370.66	332.36
370.86	308.95
371.06	355.76
371.25	365.12
371.45	348.74
371.65	397.89
371.84	346.40
372.04	355.76
372.24	395.55
372.44	388.53
372.63	447.04
372.83	435.34
373.03	493.85
373.22	400.23
373.42	395.55
373.62	447.04
373.81	435.34
374.01	386.19
374.21	442.36
374.40	414.27
374.60	423.64
374.79	454.06
374.99	465.77
375.19	425.98
375.38	395.55
375.58	365.12
375.78	428.32
375.97	461.09
376.17	479.81
376.37	454.06
376.56	400.23
376.76	376.83
376.95	372.15
377.15	407.25
377.35	463.43
377.54	404.91
377.74	388.53
377.93	435.34
378.13	468.11
378.33	454.06
378.52	404.91
378.72	348.74
378.91	430.66
379.11	320.65
379.31	374.49
379.50	369.80
379.70	407.25
379.89	411.93
380.09	416.62
380.28	407.25
380.48	400.23
380.68	369.80
380.87	360.44
381.07	376.83
381.26	416.62
381.46	395.55
381.65	465.77
381.85	337.04
382.04	440.02
382.24	461.09
382.43	470.45
382.63	404.91
382.83	358.10
383.02	362.78
383.22	430.66
383.41	444.70
383.61	433.00
383.80	444.70
384.00	437.68
384.19	418.96
384.39	374.49
384.58	411.93
384.78	425.98
384.97	397.89
385.17	407.25
385.36	376.83
385.56	449.38
385.75	334.70
385.95	372.15
386.14	493.85
386.34	449.38
386.53	348.74
386.72	386.19
386.92	449.38
387.11	437.68
387.31	362.78
387.50	395.55
387.70	362.78
387.89	435.34
388.09	376.83
388.28	409.59
388.48	383.85
388.67	456.40
388.86	341.72
389.06	414.27
389.25	386.19
389.45	433.00
389.64	367.46
389.84	428.32
390.03	360.44
390.22	322.99
390.42	376.83
390.61	411.93
390.81	407.25
391.00	428.32
391.19	383.85
391.39	468.11
391.58	402.57
391.78	383.85
391.97	437.68
392.16	430.66
392.36	418.96
392.55	381.51
392.75	411.93
392.94	358.10
393.13	458.74
393.33	372.15
393.52	397.89
393.71	433.00
393.91	383.85
394.10	407.25
394.29	402.57
394.49	344.06
394.68	433.00
394.88	465.77
395.07	505.56
395.26	414.27
395.46	374.49
395.65	390.87
395.84	433.00
396.04	475.13
396.23	393.21
396.42	372.15
396.62	454.06
396.81	440.02
397.00	409.59
397.19	376.83
397.39	447.04
397.58	393.21
397.77	395.55
397.97	397.89
398.16	430.66
398.35	374.49
398.55	433.00
398.74	390.87
398.93	430.66
399.12	400.23
399.32	395.55
399.51	435.34
399.70	433.00
399.90	411.93
400.09	484.49
400.28	409.59
400.47	411.93
400.67	423.64
400.86	433.00
401.05	407.25
401.24	397.89
401.44	416.62
401.63	397.89
401.82	447.04
402.01	404.91
402.21	397.89
402.40	479.81
402.59	390.87
402.78	407.25
402.97	304.27
403.17	425.98
403.36	444.70
403.55	418.96
403.74	435.34
403.93	433.00
404.13	418.96
404.32	393.21
404.51	437.68
404.70	409.59
404.89	430.66
405.09	454.06
405.28	348.74
405.47	337.04
405.66	397.89
405.85	365.12
406.05	416.62
406.24	428.32
406.43	421.30
406.62	330.02
406.81	447.04
407.00	411.93
407.20	365.12
407.39	416.62
407.58	339.38
407.77	447.04
407.96	386.19
408.15	388.53
408.34	449.38
408.54	423.64
408.73	379.17
408.92	313.63
409.11	341.72
409.30	433.00
409.49	409.59
409.68	428.32
409.87	458.74
410.07	400.23
410.26	416.62
410.45	454.06
410.64	381.51
410.83	435.34
411.02	376.83
411.21	416.62
411.40	397.89
411.59	393.21
411.78	390.87
411.98	383.85
412.17	395.55
412.36	353.42
412.55	365.12
412.74	428.32
412.93	418.96
413.12	440.02
413.31	442.36
413.50	365.12
413.69	456.40
413.88	454.06
414.07	423.64
414.26	395.55
414.45	376.83
414.64	402.57
414.83	397.89
415.02	463.43
415.22	428.32
415.41	407.25
415.60	402.57
415.79	437.68
415.98	411.93
416.17	402.57
416.36	447.04
416.55	411.93
416.74	440.02
416.93	390.87
417.12	397.89
417.31	353.42
417.50	400.23
417.69	440.02
417.88	404.91
418.07	416.62
418.26	381.51
418.45	390.87
418.64	440.02
418.83	369.80
419.02	418.96
419.21	383.85
419.39	381.51
419.58	430.66
419.77	414.27
419.96	376.83
420.15	465.77
420.34	458.74
420.53	414.27
420.72	440.02
420.91	418.96
421.10	442.36
421.29	404.91
421.48	451.72
421.67	447.04
421.86	383.85
422.05	376.83
422.24	372.15
422.43	454.06
422.61	360.44
422.80	440.02
422.99	447.04
423.18	348.74
423.37	395.55
423.56	409.59
423.75	351.08
423.94	440.02
424.13	402.57
424.32	374.49
424.50	353.42
424.69	428.32
424.88	482.15
425.07	449.38
425.26	395.55
425.45	430.66
425.64	367.46
425.83	449.38
426.01	486.83
426.20	400.23
426.39	374.49
426.58	369.80
426.77	458.74
426.96	365.12
427.15	421.30
427.33	433.00
427.52	355.76
427.71	418.96
427.90	468.11
428.09	397.89
428.28	409.59
428.46	500.87
428.65	421.30
428.84	376.83
429.03	393.21
429.22	379.17
429.40	358.10
429.59	379.17
429.78	428.32
429.97	374.49
430.16	454.06
430.34	475.13
430.53	355.76
430.72	360.44
430.91	437.68
431.10	414.27
431.28	454.06
431.47	374.49
431.66	414.27
431.85	433.00
432.03	414.27
432.22	416.62
432.41	402.57
432.60	411.93
432.79	414.27
432.97	374.49
433.16	397.89
433.35	411.93
433.54	430.66
433.72	416.62
433.91	411.93
434.10	365.12
434.28	409.59
434.47	386.19
434.66	428.32
434.85	409.59
435.03	447.04
435.22	397.89
435.41	512.58
435.59	339.38
435.78	351.08
435.97	418.96
436.16	489.17
436.34	407.25
436.53	479.81
436.72	421.30
436.90	440.02
437.09	423.64
437.28	404.91
437.46	414.27
437.65	449.38
437.84	433.00
438.02	433.00
438.21	395.55
438.40	332.36
438.58	369.80
438.77	458.74
438.96	409.59
439.14	402.57
439.33	440.02
439.52	404.91
439.70	386.19
439.89	440.02
440.08	425.98
440.26	461.09
440.45	440.02
440.63	407.25
440.82	468.11
441.01	479.81
441.19	430.66
441.38	430.66
441.57	395.55
441.75	470.45
441.94	470.45
442.12	465.77
442.31	358.10
442.50	430.66
442.68	416.62
442.87	320.65
443.05	470.45
443.24	381.51
443.43	369.80
443.61	447.04
443.80	430.66
443.98	367.46
444.17	484.49
444.35	428.32
444.54	407.25
444.73	491.51
444.91	463.43
445.10	353.42
445.28	372.15
445.47	437.68
445.65	425.98
445.84	390.87
446.02	458.74
446.21	362.78
446.39	369.80
446.58	447.04
446.77	454.06
446.95	425.98
447.14	390.87
447.32	418.96
447.51	404.91
447.69	330.02
447.88	369.80
448.06	360.44
448.25	428.32
448.43	358.10
448.62	388.53
448.80	402.57
448.99	456.40
449.17	395.55
449.36	470.45
449.54	365.12
449.73	425.98
449.91	440.02
450.10	400.23
450.28	379.17
450.46	414.27
450.65	430.66
450.83	386.19
451.02	402.57
451.20	348.74
451.39	369.80
451.57	463.43
451.76	390.87
451.94	407.25
452.13	475.13
452.31	395.55
452.49	365.12
452.68	353.42
452.86	386.19
453.05	433.00
453.23	425.98
453.42	430.66
453.60	404.91
453.78	435.34
453.97	447.04
454.15	376.83
454.34	402.57
454.52	407.25
454.70	425.98
454.89	437.68
455.07	447.04
455.26	440.02
455.44	397.89
455.62	383.85
455.81	463.43
455.99	388.53
456.17	472.79
456.36	383.85
456.54	430.66
456.73	355.76
456.91	430.66
457.09	402.57
457.28	498.53
457.46	505.56
457.64	386.19
457.83	402.57
458.01	397.89
458.19	482.15
458.38	451.72
458.56	442.36
458.74	428.32
458.93	416.62
459.11	416.62
459.29	430.66
459.48	444.70
459.66	454.06
459.84	367.46
460.03	507.90
460.21	407.25
460.39	440.02
460.57	461.09
460.76	418.96
460.94	430.66
461.12	482.15
461.31	423.64
461.49	484.49
461.67	346.40
461.85	430.66
462.04	409.59
462.22	753.65
462.40	489.17
462.59	386.19
462.77	397.89
462.95	458.74
463.13	372.15
463.32	397.89
463.50	444.70
463.68	465.77
463.86	400.23
464.05	393.21
464.23	407.25
464.41	393.21
464.59	428.32
464.78	365.12
464.96	388.53
465.14	512.58
465.32	409.59
465.50	381.51
465.69	458.74
465.87	416.62
466.05	409.59
466.23	390.87
466.41	456.40
466.60	416.62
466.78	404.91
466.96	442.36
467.14	461.09
467.32	423.64
467.51	461.09
467.69	388.53
467.87	402.57
468.05	456.40
468.23	421.30
468.41	416.62
468.60	369.80
468.78	418.96
468.96	400.23
469.14	416.62
469.32	411.93
469.50	463.43
469.69	435.34
469.87	390.87
470.05	491.51
470.23	468.11
470.41	372.15
470.59	325.33
470.77	372.15
470.95	386.19
471.14	351.08
471.32	454.06
471.50	463.43
471.68	421.30
471.86	444.70
472.04	383.85
472.22	428.32
472.40	461.09
472.58	381.51
472.77	430.66
472.95	451.72
473.13	479.81
473.31	449.38
473.49	344.06
473.67	402.57
473.85	440.02
474.03	505.56
474.21	482.15
474.39	425.98
474.57	454.06
474.75	367.46
474.93	409.59
475.12	435.34
475.30	395.55
475.48	407.25
475.66	400.23
475.84	355.76
476.02	355.76
476.20	461.09
476.38	330.02
476.56	475.13
476.74	416.62
476.92	454.06
477.10	393.21
477.28	423.64
477.46	381.51
477.64	372.15
477.82	437.68
478.00	390.87
478.18	386.19
478.36	390.87
478.54	425.98
478.72	423.64
478.90	374.49
479.08	390.87
479.26	388.53
479.44	428.32
479.62	393.21
479.80	456.40
479.98	407.25
480.16	435.34
480.34	437.68
480.52	449.38
480.70	454.06
480.88	383.85
481.06	435.34
481.24	442.36
481.41	442.36
481.59	402.57
481.77	379.17
481.95	400.23
482.13	411.93
482.31	386.19
482.49	379.17
482.67	482.15
482.85	381.51
483.03	428.32
483.21	430.66
483.39	372.15
483.57	395.55
483.74	465.77
483.92	425.98
484.10	468.11
484.28	461.09
484.46	482.15
484.64	344.06
484.82	397.89
485.00	360.44
485.18	449.38
485.35	416.62
485.53	297.25
485.71	449.38
485.89	351.08
486.07	369.80
486.25	461.09
486.43	430.66
486.61	407.25
486.78	411.93
486.96	404.91
487.14	402.57
487.32	442.36
487.50	423.64
487.68	437.68
487.85	372.15
488.03	353.42
488.21	397.89
488.39	425.98
488.57	514.92
488.75	402.57
488.92	500.87
489.10	461.09
489.28	456.40
489.46	447.04
489.64	393.21
489.81	451.72
489.99	409.59
490.17	362.78
490.35	482.15
490.53	465.77
490.70	421.30
490.88	456.40
491.06	404.91
491.24	447.04
491.41	451.72
491.59	425.98
491.77	369.80
491.95	416.62
492.13	416.62
492.30	409.59
492.48	437.68
492.66	428.32
492.84	430.66
493.01	409.59
493.19	411.93
493.37	465.77
493.54	407.25
493.72	465.77
493.90	409.59
494.08	425.98
494.25	468.11
494.43	500.87
494.61	390.87
494.79	393.21
494.96	472.79
495.14	395.55
495.32	400.23
495.49	437.68
495.67	351.08
495.85	402.57
496.02	451.72
496.20	468.11
496.38	411.93
496.55	402.57
496.73	447.04
496.91	444.70
497.09	393.21
497.26	496.19
497.44	444.70
497.62	402.57
497.79	430.66
497.97	381.51
498.14	383.85
498.32	447.04
498.50	442.36
498.67	404.91
498.85	477.47
499.03	367.46
499.20	433.00
499.38	437.68
499.56	423.64
499.73	475.13
499.91	442.36
500.08	414.27
500.26	383.85
500.44	437.68
500.61	388.53
500.79	390.87
500.97	449.38
501.14	491.51
501.32	461.09
501.49	458.74
501.67	355.76
501.84	414.27
502.02	433.00
502.20	402.57
502.37	449.38
502.55	442.36
502.72	416.62
502.90	395.55
503.07	468.11
503.25	414.27
503.43	358.10
503.60	454.06
503.78	475.13
503.95	355.76
504.13	404.91
504.30	414.27
504.48	433.00
504.65	435.34
504.83	440.02
505.01	369.80
505.18	393.21
505.36	402.57
505.53	442.36
505.71	358.10
505.88	341.72
506.06	390.87
506.23	404.91
506.41	367.46
506.58	404.91
506.76	428.32
506.93	381.51
507.11	411.93
507.28	390.87
507.46	374.49
507.63	465.77
507.81	409.59
507.98	404.91
508.16	386.19
508.33	379.17
508.50	421.30
508.68	468.11
508.85	442.36
509.03	346.40
509.20	447.04
509.38	435.34
509.55	390.87
509.73	500.87
509.90	463.43
510.08	418.96
510.25	517.26
510.42	397.89
510.60	449.38
510.77	435.34
510.95	414.27
511.12	397.89
511.30	444.70
511.47	407.25
511.64	344.06
511.82	341.72
511.99	418.96
512.17	437.68
512.34	425.98
512.51	327.68
512.69	433.00
512.86	430.66
513.04	409.59
513.21	430.66
513.38	456.40
513.56	367.46
513.73	461.09
513.90	397.89
514.08	393.21
514.25	491.51
514.43	414.27
514.60	409.59
514.77	449.38
514.95	440.02
515.12	337.04
515.29	442.36
515.47	362.78
515.64	369.80
515.81	463.43
515.99	374.49
516.16	449.38
516.33	514.92
516.51	339.38
516.68	409.59
516.85	348.74
517.03	369.80
517.20	409.59
517.37	437.68
517.54	402.57
517.72	428.32
517.89	339.38
518.06	360.44
518.24	433.00
518.41	397.89
518.58	386.19
518.75	372.15
518.93	353.42
519.10	430.66
519.27	468.11
519.45	451.72
519.62	294.91
519.79	393.21
519.96	433.00
520.14	402.57
520.31	400.23
520.48	369.80
520.65	395.55
520.83	395.55
521.00	430.66
521.17	404.91
521.34	386.19
521.52	411.93
521.69	414.27
521.86	428.32
522.03	451.72
522.20	423.64
522.38	400.23
522.55	393.21
522.72	449.38
522.89	348.74
523.07	472.79
523.24	447.04
523.41	442.36
523.58	418.96
523.75	440.02
523.92	444.70
524.10	463.43
524.27	386.19
524.44	489.17
524.61	428.32
524.78	437.68
524.96	367.46
525.13	442.36
525.30	447.04
525.47	468.11
525.64	407.25
525.81	416.62
525.98	507.90
526.16	376.83
526.33	379.17
526.50	400.23
526.67	365.12
526.84	358.10
527.01	461.09
527.18	381.51
527.36	390.87
527.53	397.89
527.70	369.80
527.87	381.51
528.04	425.98
528.21	402.57
528.38	409.59
528.55	442.36
528.72	442.36
528.89	358.10
529.07	395.55
529.24	465.77
529.41	425.98
529.58	381.51
529.75	390.87
529.92	390.87
530.09	444.70
530.26	362.78
530.43	339.38
530.60	418.96
530.77	435.34
530.94	472.79
531.11	418.96
531.28	397.89
531.46	351.08
531.63	409.59
531.80	411.93
531.97	442.36
532.14	454.06
532.31	372.15
532.48	360.44
532.65	433.00
532.82	472.79
532.99	470.45
533.16	477.47
533.33	472.79
533.50	353.42
533.67	320.65
533.84	461.09
534.01	411.93
534.18	435.34
534.35	423.64
534.52	435.34
534.69	433.00
534.86	409.59
535.03	381.51
535.20	390.87
535.37	388.53
535.54	493.85
535.71	425.98
535.88	433.00
536.05	423.64
536.22	486.83
536.38	379.17
536.55	472.79
536.72	465.77
536.89	421.30
537.06	397.89
537.23	383.85
537.40	463.43
537.57	447.04
537.74	503.22
537.91	482.15
538.08	435.34
538.25	451.72
538.42	435.34
538.59	461.09
538.75	407.25
538.92	322.99
539.09	402.57
539.26	386.19
539.43	414.27
539.60	402.57
539.77	493.85
539.94	353.42
540.11	411.93
540.28	404.91
540.44	404.91
540.61	428.32
540.78	344.06
540.95	397.89
541.12	505.56
541.29	402.57
541.46	447.04
541.62	498.53
541.79	428.32
541.96	332.36
542.13	435.34
542.30	442.36
542.47	447.04
542.63	411.93
542.80	465.77
542.97	400.23
543.14	458.74
543.31	390.87
543.48	369.80
543.64	376.83
543.81	337.04
543.98	393.21
544.15	440.02
544.32	381.51
544.48	390.87
544.65	425.98
544.82	461.09
544.99	440.02
545.16	381.51
545.32	397.89
545.49	500.87
545.66	440.02
545.83	379.17
546.00	404.91
546.16	334.70
546.33	433.00
546.50	468.11
546.67	430.66
546.83	421.30
547.00	468.11
547.17	339.38
547.34	337.04
547.50	355.76
547.67	444.70
547.84	409.59
548.00	428.32
548.17	418.96
548.34	369.80
548.51	489.17
548.67	421.30
548.84	440.02
549.01	355.76
549.18	454.06
549.34	400.23
549.51	341.72
549.68	346.40
549.84	444.70
550.01	454.06
550.18	493.85
550.34	461.09
550.51	397.89
550.68	397.89
550.84	411.93
551.01	416.62
551.18	437.68
551.34	362.78
551.51	395.55
551.68	435.34
551.84	386.19
552.01	381.51
552.18	369.80
552.34	414.27
552.51	421.30
552.68	454.06
552.84	400.23
553.01	407.25
553.18	496.19
553.34	437.68
553.51	421.30
553.67	325.33
553.84	397.89
554.01	421.30
554.17	479.81
554.34	407.25
554.51	442.36
554.67	456.40
554.84	390.87
555.00	461.09
555.17	381.51
555.33	404.91
555.50	423.64
555.67	440.02
555.83	430.66
556.00	418.96
556.16	554.71
556.33	402.57
556.50	369.80
556.66	414.27
556.83	367.46
556.99	376.83
557.16	470.45
557.32	411.93
557.49	416.62
557.65	435.34
557.82	379.17
557.98	379.17
558.15	418.96
558.32	463.43
558.48	456.40
558.65	458.74
558.81	348.74
558.98	444.70
559.14	461.09
559.31	311.29
559.47	458.74
559.64	397.89
559.80	404.91
559.97	472.79
560.13	388.53
560.30	409.59
560.46	355.76
560.63	390.87
560.79	395.55
560.96	463.43
561.12	428.32
561.29	484.49
561.45	414.27
561.61	437.68
561.78	458.74
561.94	461.09
562.11	395.55
562.27	421.30
562.44	440.02
562.60	409.59
562.77	409.59
562.93	428.32
563.10	491.51
563.26	472.79
563.42	367.46
563.59	468.11
563.75	400.23
563.92	433.00
564.08	395.55
564.24	486.83
564.41	425.98
564.57	383.85
564.74	376.83
564.90	374.49
565.07	416.62
565.23	498.53
565.39	440.02
565.56	440.02
565.72	402.57
565.88	425.98
566.05	360.44
566.21	442.36
566.38	458.74
566.54	423.64
566.70	425.98
566.87	479.81
567.03	411.93
567.19	440.02
567.36	360.44
567.52	425.98
567.68	393.21
567.85	397.89
568.01	489.17
568.17	397.89
568.34	383.85
568.50	437.68
568.66	486.83
568.83	475.13
568.99	428.32
569.15	437.68
569.32	407.25
569.48	393.21
569.64	435.34
569.81	409.59
569.97	395.55
570.13	404.91
570.30	416.62
570.46	416.62
570.62	397.89
570.78	407.25
570.95	308.95
571.11	369.80
571.27	386.19
571.43	428.32
571.60	423.64
571.76	386.19
571.92	411.93
572.09	472.79
572.25	397.89
572.41	360.44
572.57	358.10
572.74	414.27
572.90	461.09
573.06	372.15
573.22	358.10
573.38	379.17
573.55	433.00
573.71	465.77
573.87	372.15
574.03	430.66
574.20	393.21
574.36	395.55
574.52	388.53
574.68	409.59
574.84	500.87
575.01	454.06
575.17	390.87
575.33	416.62
575.49	397.89
575.65	388.53
575.82	430.66
575.98	461.09
576.14	404.91
576.30	458.74
576.46	423.64
576.62	409.59
576.79	489.17
576.95	521.94
577.11	402.57
577.27	411.93
577.43	451.72
577.59	416.62
577.75	365.12
577.92	465.77
578.08	416.62
578.24	369.80
578.40	510.24
578.56	507.90
578.72	465.77
578.88	470.45
579.04	421.30
579.21	456.40
579.37	456.40
579.53	418.96
579.69	437.68
579.85	381.51
580.01	433.00
580.17	369.80
580.33	416.62
580.49	372.15
580.65	379.17
580.82	440.02
580.98	442.36
581.14	404.91
581.30	451.72
581.46	440.02
581.62	428.32
581.78	395.55
581.94	397.89
582.10	440.02
582.26	451.72
582.42	440.02
582.58	397.89
582.74	346.40
582.90	451.72
583.06	425.98
583.22	451.72
583.38	475.13
583.54	404.91
583.70	435.34
583.86	346.40
584.02	395.55
584.18	472.79
584.34	325.33
584.50	451.72
584.66	411.93
584.82	337.04
584.98	402.57
585.14	409.59
585.30	482.15
585.46	477.47
585.62	367.46
585.78	400.23
585.94	524.28
586.10	404.91
586.26	435.34
586.42	493.85
586.58	479.81
586.74	386.19
586.90	444.70
587.06	425.98
587.22	442.36
587.38	418.96
587.54	423.64
587.70	454.06
587.86	442.36
588.02	468.11
588.18	435.34
588.34	369.80
588.49	409.59
588.65	404.91
588.81	430.66
588.97	367.46
589.13	341.72
589.29	510.24
589.45	430.66
589.61	383.85
589.77	425.98
589.93	409.59
590.08	383.85
590.24	433.00
590.40	341.72
590.56	369.80
590.72	454.06
590.88	442.36
591.04	425.98
591.20	451.72
591.35	437.68
591.51	463.43
591.67	372.15
591.83	353.42
591.99	400.23
592.15	435.34
592.31	365.12
592.46	386.19
592.62	390.87
592.78	369.80
592.94	486.83
593.10	425.98
593.26	365.12
593.41	451.72
593.57	442.36
593.73	468.11
593.89	449.38
594.05	423.64
594.20	393.21
594.36	376.83
594.52	400.23
594.68	411.93
594.84	402.57
594.99	404.91
595.15	430.66
595.31	411.93
595.47	486.83
595.62	454.06
595.78	421.30
595.94	433.00
596.10	374.49
596.25	358.10
596.41	435.34
596.57	372.15
596.73	449.38
596.88	416.62
597.04	390.87
597.20	402.57
597.36	390.87
597.51	440.02
597.67	433.00
597.83	393.21
597.99	430.66
598.14	411.93
598.30	486.83
598.46	388.53
598.61	484.49
598.77	421.30
598.93	472.79
599.09	479.81
599.24	454.06
599.40	407.25
599.56	449.38
599.71	440.02
599.87	414.27
600.03	404.91
600.18	400.23
600.34	383.85
600.50	374.49
600.65	397.89
600.81	425.98
600.97	400.23
601.12	397.89
601.28	454.06
601.44	423.64
601.59	407.25
601.75	411.93
601.91	437.68
602.06	404.91
602.22	437.68
602.37	433.00
602.53	428.32
602.69	409.59
602.84	463.43
603.00	447.04
603.16	472.79
603.31	360.44
603.47	421.30
603.62	416.62
603.78	425.98
603.94	395.55
604.09	381.51
604.25	430.66
604.40	395.55
604.56	437.68
604.71	327.68
604.87	411.93
605.03	388.53
605.18	393.21
605.34	463.43
605.49	418.96
605.65	454.06
605.80	351.08
605.96	414.27
606.12	362.78
606.27	435.34
606.43	454.06
606.58	433.00
606.74	479.81
606.89	390.87
607.05	400.23
607.20	447.04
607.36	447.04
607.51	404.91
607.67	423.64
607.82	367.46
607.98	458.74
608.13	383.85
608.29	386.19
608.44	365.12
608.60	440.02
608.75	444.70
608.91	456.40
609.06	418.96
609.22	339.38
609.37	372.15
609.53	435.34
609.68	344.06
609.84	430.66
609.99	376.83
610.15	315.97
610.30	437.68
610.46	461.09
610.61	463.43
610.76	397.89
610.92	416.62
611.07	421.30
611.23	482.15
611.38	505.56
611.54	358.10
611.69	409.59
611.84	379.17
612.00	461.09
612.15	393.21
612.31	479.81
612.46	416.62
612.62	409.59
612.77	404.91
612.92	454.06
613.08	395.55
613.23	440.02
613.39	372.15
613.54	393.21
613.69	411.93
613.85	360.44
614.00	395.55
614.15	440.02
614.31	468.11
614.46	458.74
614.62	393.21
614.77	442.36
614.92	425.98
615.08	308.95
615.23	430.66
615.38	416.62
615.54	437.68
615.69	428.32
615.84	475.13
616.00	407.25
616.15	386.19
616.30	388.53
616.46	411.93
616.61	430.66
616.76	414.27
616.92	425.98
617.07	463.43
617.22	409.59
617.37	458.74
617.53	421.30
617.68	397.89
617.83	411.93
617.99	451.72
618.14	421.30
618.29	489.17
618.45	428.32
618.60	451.72
618.75	437.68
618.90	369.80
619.06	332.36
619.21	479.81
619.36	411.93
619.51	463.43
619.67	454.06
619.82	369.80
619.97	437.68
620.12	442.36
620.28	346.40
620.43	374.49
620.58	372.15
620.73	395.55
620.89	425.98
621.04	393.21
621.19	409.59
621.34	456.40
621.49	407.25
621.65	411.93
621.80	409.59
621.95	409.59
622.10	444.70
622.25	393.21
622.41	472.79
622.56	390.87
622.71	395.55
622.86	416.62
623.01	346.40
623.16	425.98
623.32	355.76
623.47	440.02
623.62	421.30
623.77	341.72
623.92	318.31
624.07	440.02
624.23	423.64
624.38	433.00
624.53	433.00
624.68	444.70
624.83	437.68
624.98	423.64
625.13	428.32
625.29	442.36
625.44	463.43
625.59	355.76
625.74	386.19
625.89	454.06
626.04	372.15
626.19	388.53
626.34	465.77
626.49	449.38
626.65	397.89
626.80	437.68
626.95	456.40
627.10	379.17
627.25	383.85
627.40	404.91
627.55	428.32
627.70	433.00
627.85	510.24
628.00	358.10
628.15	388.53
628.30	416.62
628.45	369.80
628.60	444.70
628.76	437.68
628.91	435.34
629.06	418.96
629.21	348.74
629.36	372.15
629.51	374.49
629.66	479.81
629.81	491.51
629.96	425.98
630.11	409.59
630.26	344.06
630.41	437.68
630.56	390.87
630.71	376.83
630.86	416.62
631.01	395.55
631.16	346.40
631.31	477.47
631.46	355.76
631.61	442.36
631.76	411.93
631.91	444.70
632.06	477.47
632.21	451.72
632.36	388.53
632.51	386.19
632.66	451.72
632.81	451.72
632.96	390.87
633.10	435.34
633.25	449.38
633.40	447.04
633.55	503.22
633.70	428.32
633.85	425.98
634.00	374.49
634.15	449.38
634.30	376.83
634.45	430.66
634.60	367.46
634.75	360.44
634.90	360.44
635.05	411.93
635.19	404.91
635.34	397.89
635.49	407.25
635.64	435.34
635.79	465.77
635.94	503.22
636.09	367.46
636.24	402.57
636.39	461.09
636.53	397.89
636.68	430.66
636.83	407.25
636.98	423.64
637.13	430.66
637.28	479.81
637.43	521.94
637.57	430.66
637.72	472.79
637.87	491.51
638.02	430.66
638.17	383.85
638.32	437.68
638.46	433.00
638.61	458.74
638.76	421.30
638.91	397.89
639.06	337.04
639.20	404.91
639.35	383.85
639.50	383.85
639.65	418.96
639.80	404.91
639.94	461.09
640.09	414.27
640.24	400.23
640.39	430.66
640.54	400.23
640.68	423.64
640.83	491.51
640.98	379.17
641.13	379.17
641.27	367.46
641.42	423.64
641.57	475.13
641.72	393.21
641.86	449.38
642.01	393.21
642.16	442.36
642.31	468.11
642.45	433.00
642.60	475.13
642.75	365.12
642.90	442.36
643.04	418.96
643.19	416.62
643.34	376.83
643.48	444.70
643.63	430.66
643.78	486.83
643.93	489.17
644.07	458.74
644.22	346.40
644.37	463.43
644.51	458.74
644.66	400.23
644.81	381.51
644.95	374.49
645.10	334.70
645.25	451.72
645.39	465.77
645.54	482.15
645.69	414.27
645.83	374.49
645.98	418.96
646.13	393.21
646.27	493.85
646.42	374.49
646.57	449.38
646.71	414.27
646.86	355.76
647.00	381.51
647.15	416.62
647.30	355.76
647.44	372.15
647.59	449.38
647.74	362.78
647.88	451.72
648.03	388.53
648.17	468.11
648.32	444.70
648.47	470.45
648.61	379.17
648.76	430.66
648.90	341.72
649.05	383.85
649.20	351.08
649.34	425.98
649.49	351.08
649.63	442.36
649.78	475.13
649.92	430.66
650.07	397.89
650.21	507.90
650.36	404.91
650.51	418.96
650.65	482.15
650.80	454.06
650.94	400.23
651.09	411.93
651.23	423.64
651.38	433.00
651.52	402.57
651.67	404.91
651.81	433.00
651.96	456.40
652.10	421.30
652.25	400.23
652.39	479.81
652.54	472.79
652.68	411.93
652.83	430.66
652.97	390.87
653.12	430.66
653.26	400.23
653.41	461.09
653.55	404.91
653.70	344.06
653.84	416.62
653.99	414.27
654.13	404.91
654.27	442.36
654.42	372.15
654.56	351.08
654.71	463.43
654.85	418.96
655.00	311.29
655.14	414.27
655.29	369.80
655.43	339.38
655.57	433.00
655.72	433.00
655.86	468.11
656.01	440.02
656.15	442.36
656.30	489.17
656.44	388.53
656.58	425.98
656.73	397.89
656.87	409.59
657.01	423.64
657.16	386.19
657.30	444.70
657.45	414.27
657.59	456.40
657.73	418.96
657.88	393.21
658.02	484.49
658.16	454.06
658.31	498.53
658.45	402.57
658.60	379.17
658.74	369.80
658.88	425.98
659.03	344.06
659.17	409.59
659.31	395.55
659.46	386.19
659.60	407.25
659.74	458.74
659.89	416.62
660.03	374.49
660.17	479.81
660.32	386.19
660.46	440.02
660.60	409.59
660.74	449.38
660.89	407.25
661.03	355.76
661.17	482.15
661.32	500.87
661.46	437.68
661.60	454.06
661.74	458.74
661.89	489.17
662.03	416.62
662.17	423.64
662.31	355.76
662.46	388.53
662.60	388.53
662.74	447.04
662.88	369.80
663.03	414.27
663.17	447.04
663.31	416.62
663.45	418.96
663.60	479.81
663.74	383.85
663.88	425.98
664.02	409.59
664.17	409.59
664.31	400.23
664.45	372.15
664.59	463.43
664.73	454.06
664.88	425.98
665.02	404.91
665.16	393.21
665.30	423.64
665.44	444.70
665.59	395.55
665.73	409.59
665.87	383.85
666.01	425.98
666.15	447.04
666.29	393.21
666.44	475.13
666.58	390.87
666.72	362.78
666.86	416.62
667.00	454.06
667.14	430.66
667.28	507.90
667.43	353.42
667.57	388.53
667.71	393.21
667.85	390.87
667.99	400.23
668.13	388.53
668.27	409.59
668.41	430.66
668.56	456.40
668.70	435.34
668.84	423.64
668.98	381.51
669.12	407.25
669.26	409.59
669.40	428.32
669.54	418.96
669.68	383.85
669.82	358.10
669.96	400.23
670.10	337.04
670.25	374.49
670.39	409.59
670.53	435.34
670.67	430.66
670.81	358.10
670.95	416.62
671.09	472.79
671.23	386.19
671.37	425.98
671.51	472.79
671.65	423.64
671.79	397.89
671.93	409.59
672.07	430.66
672.21	390.87
672.35	428.32
672.49	423.64
672.63	383.85
672.77	383.85
672.91	418.96
673.05	442.36
673.19	346.40
673.33	402.57
673.47	386.19
673.61	437.68
673.75	390.87
673.89	425.98
674.03	447.04
674.17	479.81
674.31	447.04
674.45	404.91
674.59	386.19
674.73	409.59
674.87	360.44
675.01	425.98
675.15	449.38
675.29	456.40
675.43	376.83
675.56	470.45
675.70	425.98
675.84	383.85
675.98	510.24
676.12	456.40
676.26	411.93
676.40	383.85
676.54	390.87
676.68	430.66
676.82	379.17
676.96	437.68
677.10	411.93
677.23	442.36
677.37	433.00
677.51	414.27
677.65	477.47
677.79	484.49
677.93	409.59
678.07	362.78
678.21	433.00
678.34	351.08
678.48	451.72
678.62	423.64
678.76	379.17
678.90	411.93
679.04	428.32
679.18	386.19
679.31	400.23
679.45	416.62
679.59	423.64
679.73	465.77
679.87	346.40
680.00	318.31
680.14	505.56
680.28	393.21
680.42	475.13
680.56	435.34
680.70	409.59
680.83	442.36
680.97	421.30
681.11	421.30
681.25	465.77
681.39	379.17
681.52	397.89
681.66	381.51
681.80	449.38
681.94	421.30
682.07	381.51
682.21	442.36
682.35	475.13
682.49	365.12
682.62	437.68
682.76	346.40
682.90	437.68
683.04	383.85
683.17	496.19
683.31	367.46
683.45	461.09
683.59	351.08
683.72	451.72
683.86	418.96
684.00	402.57
684.13	386.19
684.27	442.36
684.41	416.62
684.55	449.38
684.68	411.93
684.82	393.21
684.96	421.30
685.09	475.13
685.23	437.68
685.37	477.47
685.50	454.06
685.64	411.93
685.78	390.87
685.91	414.27
686.05	479.81
686.19	442.36
686.32	386.19
686.46	362.78
686.60	442.36
686.73	486.83
686.87	428.32
687.01	383.85
687.14	374.49
687.28	404.91
687.42	330.02
687.55	397.89
687.69	449.38
687.82	437.68
687.96	456.40
688.10	411.93
688.23	418.96
688.37	388.53
688.50	418.96
688.64	430.66
688.78	402.57
688.91	393.21
689.05	402.57
689.18	322.99
689.32	407.25
689.46	442.36
689.59	468.11
689.73	421.30
689.86	456.40
690.00	404.91
690.13	379.17
690.27	400.23
690.41	395.55
690.54	353.42
690.68	425.98
690.81	416.62
690.95	372.15
691.08	437.68
691.22	437.68
691.35	379.17
691.49	369.80
691.62	447.04
691.76	395.55
691.89	444.70
692.03	428.32
692.16	388.53
692.30	402.57
692.43	416.62
692.57	393.21
692.70	390.87
692.84	386.19
692.97	414.27
693.11	358.10
693.24	402.57
693.38	489.17
693.51	365.12
693.65	411.93
693.78	400.23
693.92	437.68
694.05	433.00
694.19	334.70
694.32	404.91
694.45	416.62
694.59	388.53
694.72	437.68
694.86	411.93
694.99	437.68
695.13	367.46
695.26	507.90
695.39	358.10
695.53	437.68
695.66	437.68
695.80	437.68
695.93	435.34
696.07	437.68
696.20	397.89
696.33	397.89
696.47	449.38
696.60	442.36
696.73	393.21
696.87	388.53
697.00	451.72
697.14	435.34
697.27	381.51
697.40	465.77
697.54	444.70
697.67	402.57
697.80	425.98
697.94	435.34
698.07	351.08
698.21	381.51
698.34	435.34
698.47	416.62
698.61	341.72
698.74	414.27
698.87	400.23
699.01	407.25
699.14	369.80
699.27	386.19
699.40	444.70
699.54	449.38
699.67	374.49
699.80	337.04
699.94	421.30
700.07	402.57
700.20	400.23
700.34	374.49
700.47	472.79
700.60	418.96
700.73	414.27
700.87	458.74
701.00	482.15
701.13	433.00
701.26	395.55
701.40	414.27
701.53	437.68
701.66	463.43
701.79	374.49
701.93	355.76
702.06	484.49
702.19	423.64
702.32	451.72
702.46	461.09
702.59	388.53
702.72	376.83
702.85	407.25
702.99	463.43
703.12	393.21
703.25	362.78
703.38	444.70
703.51	465.77
703.65	334.70
703.78	421.30
703.91	428.32
704.04	451.72
704.17	414.27
704.31	400.23
704.44	365.12
704.57	409.59
704.70	346.40
704.83	409.59
704.96	404.91
705.10	409.59
705.23	402.57
>>>>>End Processed Spectral Data<<<<<
