SpectraSuite Data File
++++++++++++++++++++++++++++++++++++
Date: Fri Oct 25 12:11:05 EDT 2013
User: price-jones
Dark Spectrum Present: No
Reference Spectrum Present: No
Number of Sampled Component Spectra: 1
Spectrometers: USB2+H05261
Integration Time (usec): 100000 (USB2+H05261)
Spectra Averaged: 1 (USB2+H05261)
Boxcar Smoothing: 0 (USB2+H05261)
Correct for Electrical Dark: No (USB2+H05261)
Strobe/Lamp Enabled: No (USB2+H05261)
Correct for Detector Non-linearity: No (USB2+H05261)
Correct for Stray Light: No (USB2+H05261)
Number of Pixels in Processed Spectrum: 2048
>>>>>Begin Processed Spectral Data<<<<<
365.73	388.53
365.92	388.53
366.12	388.53
366.32	308.95
366.52	276.18
366.72	252.78
366.91	177.88
367.11	243.42
367.31	191.92
367.51	252.78
367.70	175.54
367.90	257.46
368.10	266.82
368.30	201.29
368.49	264.48
368.69	234.05
368.89	273.84
369.09	163.84
369.28	318.31
369.48	278.52
369.68	337.04
369.87	266.82
370.07	229.37
370.27	332.36
370.47	304.27
370.66	369.80
370.86	358.10
371.06	430.66
371.25	395.55
371.45	397.89
371.65	379.17
371.84	348.74
372.04	313.63
372.24	372.15
372.44	402.57
372.63	372.15
372.83	362.78
373.03	393.21
373.22	360.44
373.42	411.93
373.62	421.30
373.81	376.83
374.01	461.09
374.21	339.38
374.40	395.55
374.60	390.87
374.79	334.70
374.99	470.45
375.19	437.68
375.38	348.74
375.58	423.64
375.78	433.00
375.97	479.81
376.17	421.30
376.37	421.30
376.56	402.57
376.76	407.25
376.95	404.91
377.15	454.06
377.35	402.57
377.54	402.57
377.74	402.57
377.93	416.62
378.13	390.87
378.33	402.57
378.52	442.36
378.72	334.70
378.91	407.25
379.11	395.55
379.31	430.66
379.50	362.78
379.70	358.10
379.89	421.30
380.09	397.89
380.28	374.49
380.48	379.17
380.68	383.85
380.87	454.06
381.07	418.96
381.26	458.74
381.46	351.08
381.65	430.66
381.85	468.11
382.04	374.49
382.24	353.42
382.43	390.87
382.63	421.30
382.83	468.11
383.02	447.04
383.22	407.25
383.41	433.00
383.61	418.96
383.80	468.11
384.00	367.46
384.19	390.87
384.39	437.68
384.58	376.83
384.78	386.19
384.97	437.68
385.17	348.74
385.36	440.02
385.56	374.49
385.75	386.19
385.95	395.55
386.14	428.32
386.34	409.59
386.53	447.04
386.72	390.87
386.92	402.57
387.11	397.89
387.31	397.89
387.50	374.49
387.70	442.36
387.89	454.06
388.09	407.25
388.28	372.15
388.48	381.51
388.67	407.25
388.86	360.44
389.06	372.15
389.25	369.80
389.45	383.85
389.64	468.11
389.84	428.32
390.03	400.23
390.22	440.02
390.42	442.36
390.61	358.10
390.81	428.32
391.00	388.53
391.19	425.98
391.39	362.78
391.58	351.08
391.78	414.27
391.97	470.45
392.16	337.04
392.36	416.62
392.55	463.43
392.75	376.83
392.94	407.25
393.13	435.34
393.33	393.21
393.52	386.19
393.71	430.66
393.91	458.74
394.10	390.87
394.29	365.12
394.49	440.02
394.68	379.17
394.88	416.62
395.07	449.38
395.26	327.68
395.46	454.06
395.65	463.43
395.84	355.76
396.04	454.06
396.23	484.49
396.42	367.46
396.62	440.02
396.81	437.68
397.00	428.32
397.19	447.04
397.39	470.45
397.58	423.64
397.77	468.11
397.97	472.79
398.16	327.68
398.35	395.55
398.55	397.89
398.74	388.53
398.93	416.62
399.12	367.46
399.32	416.62
399.51	407.25
399.70	447.04
399.90	430.66
400.09	421.30
400.28	341.72
400.47	386.19
400.67	308.95
400.86	407.25
401.05	451.72
401.24	397.89
401.44	421.30
401.63	437.68
401.82	355.76
402.01	395.55
402.21	358.10
402.40	442.36
402.59	379.17
402.78	418.96
402.97	383.85
403.17	456.40
403.36	470.45
403.55	365.12
403.74	358.10
403.93	400.23
404.13	421.30
404.32	418.96
404.51	388.53
404.70	404.91
404.89	400.23
405.09	369.80
405.28	444.70
405.47	388.53
405.66	411.93
405.85	409.59
406.05	423.64
406.24	404.91
406.43	341.72
406.62	393.21
406.81	421.30
407.00	430.66
407.20	447.04
407.39	440.02
407.58	416.62
407.77	353.42
407.96	425.98
408.15	484.49
408.34	418.96
408.54	465.77
408.73	411.93
408.92	348.74
409.11	411.93
409.30	402.57
409.49	430.66
409.68	351.08
409.87	465.77
410.07	411.93
410.26	369.80
410.45	393.21
410.64	341.72
410.83	465.77
411.02	341.72
411.21	454.06
411.40	435.34
411.59	344.06
411.78	440.02
411.98	411.93
412.17	444.70
412.36	360.44
412.55	381.51
412.74	425.98
412.93	498.53
413.12	437.68
413.31	491.51
413.50	423.64
413.69	435.34
413.88	442.36
414.07	334.70
414.26	411.93
414.45	456.40
414.64	493.85
414.83	395.55
415.02	416.62
415.22	468.11
415.41	470.45
415.60	468.11
415.79	465.77
415.98	430.66
416.17	433.00
416.36	367.46
416.55	390.87
416.74	416.62
416.93	353.42
417.12	330.02
417.31	313.63
417.50	397.89
417.69	435.34
417.88	465.77
418.07	421.30
418.26	339.38
418.45	416.62
418.64	395.55
418.83	388.53
419.02	388.53
419.21	402.57
419.39	423.64
419.58	390.87
419.77	341.72
419.96	486.83
420.15	449.38
420.34	367.46
420.53	388.53
420.72	428.32
420.91	390.87
421.10	416.62
421.29	341.72
421.48	395.55
421.67	418.96
421.86	423.64
422.05	440.02
422.24	400.23
422.43	390.87
422.61	407.25
422.80	355.76
422.99	351.08
423.18	353.42
423.37	463.43
423.56	428.32
423.75	416.62
423.94	407.25
424.13	411.93
424.32	423.64
424.50	468.11
424.69	458.74
424.88	456.40
425.07	414.27
425.26	440.02
425.45	472.79
425.64	461.09
425.83	437.68
426.01	374.49
426.20	409.59
426.39	418.96
426.58	388.53
426.77	414.27
426.96	414.27
427.15	428.32
427.33	437.68
427.52	397.89
427.71	393.21
427.90	402.57
428.09	348.74
428.28	362.78
428.46	468.11
428.65	404.91
428.84	402.57
429.03	472.79
429.22	414.27
429.40	360.44
429.59	440.02
429.78	409.59
429.97	390.87
430.16	484.49
430.34	381.51
430.53	423.64
430.72	407.25
430.91	383.85
431.10	402.57
431.28	430.66
431.47	404.91
431.66	372.15
431.85	369.80
432.03	383.85
432.22	451.72
432.41	390.87
432.60	470.45
432.79	393.21
432.97	386.19
433.16	425.98
433.35	456.40
433.54	362.78
433.72	407.25
433.91	430.66
434.10	388.53
434.28	388.53
434.47	454.06
434.66	376.83
434.85	454.06
435.03	418.96
435.22	444.70
435.41	400.23
435.59	404.91
435.78	470.45
435.97	379.17
436.16	447.04
436.34	470.45
436.53	470.45
436.72	489.17
436.90	491.51
437.09	461.09
437.28	402.57
437.46	402.57
437.65	390.87
437.84	489.17
438.02	393.21
438.21	430.66
438.40	423.64
438.58	428.32
438.77	433.00
438.96	369.80
439.14	306.61
439.33	414.27
439.52	374.49
439.70	404.91
439.89	442.36
440.08	421.30
440.26	472.79
440.45	475.13
440.63	376.83
440.82	510.24
441.01	416.62
441.19	390.87
441.38	425.98
441.57	416.62
441.75	400.23
441.94	461.09
442.12	475.13
442.31	360.44
442.50	320.65
442.68	433.00
442.87	400.23
443.05	393.21
443.24	374.49
443.43	423.64
443.61	430.66
443.80	486.83
443.98	430.66
444.17	428.32
444.35	367.46
444.54	369.80
444.73	435.34
444.91	461.09
445.10	400.23
445.28	440.02
445.47	470.45
445.65	458.74
445.84	411.93
446.02	337.04
446.21	425.98
446.39	369.80
446.58	402.57
446.77	376.83
446.95	421.30
447.14	440.02
447.32	407.25
447.51	355.76
447.69	404.91
447.88	330.02
448.06	437.68
448.25	451.72
448.43	418.96
448.62	393.21
448.80	425.98
448.99	451.72
449.17	425.98
449.36	444.70
449.54	465.77
449.73	400.23
449.91	458.74
450.10	395.55
450.28	470.45
450.46	425.98
450.65	404.91
450.83	430.66
451.02	423.64
451.20	421.30
451.39	404.91
451.57	402.57
451.76	397.89
451.94	397.89
452.13	379.17
452.31	409.59
452.49	465.77
452.68	402.57
452.86	421.30
453.05	491.51
453.23	433.00
453.42	372.15
453.60	416.62
453.78	493.85
453.97	416.62
454.15	388.53
454.34	423.64
454.52	369.80
454.70	423.64
454.89	435.34
455.07	358.10
455.26	454.06
455.44	388.53
455.62	379.17
455.81	344.06
455.99	430.66
456.17	444.70
456.36	404.91
456.54	334.70
456.73	411.93
456.91	407.25
457.09	440.02
457.28	451.72
457.46	374.49
457.64	465.77
457.83	477.47
458.01	393.21
458.19	411.93
458.38	440.02
458.56	468.11
458.74	449.38
458.93	430.66
459.11	430.66
459.29	458.74
459.48	458.74
459.66	407.25
459.84	451.72
460.03	479.81
460.21	393.21
460.39	423.64
460.57	458.74
460.76	325.33
460.94	395.55
461.12	402.57
461.31	465.77
461.49	407.25
461.67	435.34
461.85	437.68
462.04	447.04
462.22	816.85
462.40	437.68
462.59	416.62
462.77	454.06
462.95	435.34
463.13	374.49
463.32	428.32
463.50	475.13
463.68	451.72
463.86	404.91
464.05	402.57
464.23	416.62
464.41	447.04
464.59	409.59
464.78	421.30
464.96	421.30
465.14	358.10
465.32	472.79
465.50	461.09
465.69	416.62
465.87	421.30
466.05	393.21
466.23	411.93
466.41	440.02
466.60	407.25
466.78	402.57
466.96	442.36
467.14	411.93
467.32	397.89
467.51	454.06
467.69	395.55
467.87	407.25
468.05	365.12
468.23	400.23
468.41	425.98
468.60	442.36
468.78	390.87
468.96	393.21
469.14	526.62
469.32	442.36
469.50	442.36
469.69	456.40
469.87	318.31
470.05	444.70
470.23	423.64
470.41	393.21
470.59	421.30
470.77	416.62
470.95	437.68
471.14	454.06
471.32	449.38
471.50	451.72
471.68	479.81
471.86	402.57
472.04	383.85
472.22	383.85
472.40	404.91
472.58	386.19
472.77	372.15
472.95	463.43
473.13	383.85
473.31	493.85
473.49	454.06
473.67	423.64
473.85	472.79
474.03	477.47
474.21	444.70
474.39	425.98
474.57	418.96
474.75	407.25
474.93	390.87
475.12	437.68
475.30	358.10
475.48	409.59
475.66	421.30
475.84	440.02
476.02	365.12
476.20	514.92
476.38	472.79
476.56	451.72
476.74	458.74
476.92	425.98
477.10	383.85
477.28	461.09
477.46	484.49
477.64	503.22
477.82	454.06
478.00	416.62
478.18	386.19
478.36	379.17
478.54	374.49
478.72	409.59
478.90	400.23
479.08	442.36
479.26	402.57
479.44	372.15
479.62	379.17
479.80	442.36
479.98	421.30
480.16	372.15
480.34	425.98
480.52	402.57
480.70	440.02
480.88	325.33
481.06	374.49
481.24	400.23
481.41	383.85
481.59	477.47
481.77	411.93
481.95	435.34
482.13	454.06
482.31	388.53
482.49	372.15
482.67	411.93
482.85	465.77
483.03	486.83
483.21	407.25
483.39	409.59
483.57	411.93
483.74	482.15
483.92	447.04
484.10	440.02
484.28	416.62
484.46	479.81
484.64	482.15
484.82	402.57
485.00	458.74
485.18	400.23
485.35	407.25
485.53	381.51
485.71	444.70
485.89	358.10
486.07	433.00
486.25	472.79
486.43	383.85
486.61	390.87
486.78	449.38
486.96	376.83
487.14	393.21
487.32	400.23
487.50	390.87
487.68	395.55
487.85	425.98
488.03	390.87
488.21	442.36
488.39	454.06
488.57	423.64
488.75	386.19
488.92	521.94
489.10	367.46
489.28	362.78
489.46	390.87
489.64	440.02
489.81	433.00
489.99	421.30
490.17	421.30
490.35	444.70
490.53	449.38
490.70	444.70
490.88	397.89
491.06	395.55
491.24	409.59
491.41	411.93
491.59	454.06
491.77	348.74
491.95	379.17
492.13	433.00
492.30	390.87
492.48	397.89
492.66	381.51
492.84	362.78
493.01	379.17
493.19	386.19
493.37	550.03
493.54	463.43
493.72	470.45
493.90	470.45
494.08	386.19
494.25	383.85
494.43	407.25
494.61	425.98
494.79	470.45
494.96	337.04
495.14	465.77
495.32	437.68
495.49	425.98
495.67	491.51
495.85	397.89
496.02	386.19
496.20	386.19
496.38	404.91
496.55	472.79
496.73	440.02
496.91	411.93
497.09	395.55
497.26	393.21
497.44	423.64
497.62	337.04
497.79	414.27
497.97	341.72
498.14	393.21
498.32	451.72
498.50	444.70
498.67	491.51
498.85	367.46
499.03	414.27
499.20	372.15
499.38	393.21
499.56	454.06
499.73	433.00
499.91	418.96
500.08	360.44
500.26	416.62
500.44	358.10
500.61	388.53
500.79	372.15
500.97	409.59
501.14	407.25
501.32	442.36
501.49	447.04
501.67	362.78
501.84	440.02
502.02	395.55
502.20	444.70
502.37	402.57
502.55	444.70
502.72	465.77
502.90	414.27
503.07	395.55
503.25	500.87
503.43	433.00
503.60	397.89
503.78	381.51
503.95	367.46
504.13	425.98
504.30	449.38
504.48	472.79
504.65	425.98
504.83	486.83
505.01	447.04
505.18	444.70
505.36	442.36
505.53	397.89
505.71	355.76
505.88	360.44
506.06	421.30
506.23	489.17
506.41	435.34
506.58	433.00
506.76	393.21
506.93	388.53
507.11	449.38
507.28	358.10
507.46	407.25
507.63	416.62
507.81	428.32
507.98	456.40
508.16	447.04
508.33	407.25
508.50	416.62
508.68	414.27
508.85	442.36
509.03	435.34
509.20	430.66
509.38	437.68
509.55	428.32
509.73	458.74
509.90	442.36
510.08	365.12
510.25	409.59
510.42	386.19
510.60	423.64
510.77	444.70
510.95	369.80
511.12	447.04
511.30	461.09
511.47	423.64
511.64	433.00
511.82	367.46
511.99	440.02
512.17	393.21
512.34	444.70
512.51	383.85
512.69	416.62
512.86	449.38
513.04	374.49
513.21	482.15
513.38	376.83
513.56	388.53
513.73	376.83
513.90	395.55
514.08	437.68
514.25	433.00
514.43	365.12
514.60	430.66
514.77	458.74
514.95	355.76
515.12	383.85
515.29	440.02
515.47	423.64
515.64	430.66
515.81	409.59
515.99	369.80
516.16	449.38
516.33	393.21
516.51	386.19
516.68	416.62
516.85	418.96
517.03	486.83
517.20	393.21
517.37	496.19
517.54	404.91
517.72	447.04
517.89	395.55
518.06	409.59
518.24	519.60
518.41	519.60
518.58	418.96
518.75	493.85
518.93	411.93
519.10	421.30
519.27	440.02
519.45	402.57
519.62	379.17
519.79	414.27
519.96	360.44
520.14	444.70
520.31	454.06
520.48	442.36
520.65	447.04
520.83	430.66
521.00	442.36
521.17	372.15
521.34	376.83
521.52	425.98
521.69	418.96
521.86	390.87
522.03	386.19
522.20	409.59
522.38	416.62
522.55	425.98
522.72	442.36
522.89	411.93
523.07	470.45
523.24	411.93
523.41	372.15
523.58	484.49
523.75	489.17
523.92	510.24
524.10	388.53
524.27	423.64
524.44	444.70
524.61	407.25
524.78	465.77
524.96	395.55
525.13	435.34
525.30	418.96
525.47	416.62
525.64	454.06
525.81	470.45
525.98	430.66
526.16	409.59
526.33	435.34
526.50	482.15
526.67	447.04
526.84	414.27
527.01	390.87
527.18	388.53
527.36	402.57
527.53	404.91
527.70	393.21
527.87	440.02
528.04	468.11
528.21	440.02
528.38	449.38
528.55	402.57
528.72	428.32
528.89	458.74
529.07	428.32
529.24	355.76
529.41	521.94
529.58	397.89
529.75	372.15
529.92	468.11
530.09	456.40
530.26	479.81
530.43	463.43
530.60	390.87
530.77	407.25
530.94	477.47
531.11	437.68
531.28	404.91
531.46	400.23
531.63	472.79
531.80	390.87
531.97	423.64
532.14	421.30
532.31	423.64
532.48	372.15
532.65	409.59
532.82	400.23
532.99	376.83
533.16	477.47
533.33	442.36
533.50	489.17
533.67	344.06
533.84	479.81
534.01	463.43
534.18	386.19
534.35	482.15
534.52	421.30
534.69	409.59
534.86	463.43
535.03	510.24
535.20	430.66
535.37	414.27
535.54	465.77
535.71	416.62
535.88	402.57
536.05	458.74
536.22	372.15
536.38	472.79
536.55	365.12
536.72	496.19
536.89	409.59
537.06	433.00
537.23	418.96
537.40	477.47
537.57	376.83
537.74	388.53
537.91	395.55
538.08	458.74
538.25	421.30
538.42	414.27
538.59	433.00
538.75	421.30
538.92	451.72
539.09	409.59
539.26	433.00
539.43	397.89
539.60	414.27
539.77	472.79
539.94	435.34
540.11	437.68
540.28	407.25
540.44	482.15
540.61	437.68
540.78	442.36
540.95	472.79
541.12	407.25
541.29	442.36
541.46	449.38
541.62	418.96
541.79	433.00
541.96	383.85
542.13	407.25
542.30	379.17
542.47	397.89
542.63	463.43
542.80	433.00
542.97	433.00
543.14	386.19
543.31	465.77
543.48	379.17
543.64	418.96
543.81	390.87
543.98	362.78
544.15	454.06
544.32	468.11
544.48	458.74
544.65	423.64
544.82	407.25
544.99	421.30
545.16	456.40
545.32	435.34
545.49	423.64
545.66	461.09
545.83	365.12
546.00	362.78
546.16	351.08
546.33	351.08
546.50	393.21
546.67	489.17
546.83	454.06
547.00	411.93
547.17	374.49
547.34	433.00
547.50	386.19
547.67	407.25
547.84	423.64
548.00	404.91
548.17	353.42
548.34	388.53
548.51	379.17
548.67	461.09
548.84	421.30
549.01	353.42
549.18	397.89
549.34	421.30
549.51	425.98
549.68	489.17
549.84	388.53
550.01	425.98
550.18	533.64
550.34	496.19
550.51	423.64
550.68	430.66
550.84	395.55
551.01	447.04
551.18	386.19
551.34	414.27
551.51	451.72
551.68	374.49
551.84	470.45
552.01	437.68
552.18	362.78
552.34	400.23
552.51	402.57
552.68	423.64
552.84	346.40
553.01	388.53
553.18	442.36
553.34	456.40
553.51	395.55
553.67	376.83
553.84	409.59
554.01	430.66
554.17	465.77
554.34	409.59
554.51	386.19
554.67	451.72
554.84	425.98
555.00	454.06
555.17	428.32
555.33	482.15
555.50	400.23
555.67	407.25
555.83	362.78
556.00	418.96
556.16	580.45
556.33	470.45
556.50	491.51
556.66	383.85
556.83	411.93
556.99	425.98
557.16	468.11
557.32	418.96
557.49	433.00
557.65	411.93
557.82	435.34
557.98	433.00
558.15	379.17
558.32	383.85
558.48	407.25
558.65	465.77
558.81	458.74
558.98	379.17
559.14	327.68
559.31	421.30
559.47	369.80
559.64	449.38
559.80	409.59
559.97	423.64
560.13	425.98
560.30	285.55
560.46	458.74
560.63	395.55
560.79	437.68
560.96	475.13
561.12	461.09
561.29	365.12
561.45	369.80
561.61	433.00
561.78	416.62
561.94	435.34
562.11	409.59
562.27	425.98
562.44	411.93
562.60	503.22
562.77	440.02
562.93	482.15
563.10	435.34
563.26	423.64
563.42	454.06
563.59	423.64
563.75	482.15
563.92	486.83
564.08	461.09
564.24	416.62
564.41	475.13
564.57	411.93
564.74	433.00
564.90	346.40
565.07	421.30
565.23	423.64
565.39	395.55
565.56	456.40
565.72	325.33
565.88	463.43
566.05	404.91
566.21	393.21
566.38	379.17
566.54	400.23
566.70	393.21
566.87	379.17
567.03	372.15
567.19	465.77
567.36	414.27
567.52	311.29
567.68	428.32
567.85	430.66
568.01	395.55
568.17	360.44
568.34	449.38
568.50	393.21
568.66	393.21
568.83	397.89
568.99	416.62
569.15	416.62
569.32	454.06
569.48	468.11
569.64	379.17
569.81	362.78
569.97	425.98
570.13	451.72
570.30	423.64
570.46	421.30
570.62	433.00
570.78	393.21
570.95	430.66
571.11	379.17
571.27	470.45
571.43	393.21
571.60	425.98
571.76	400.23
571.92	362.78
572.09	433.00
572.25	390.87
572.41	435.34
572.57	414.27
572.74	512.58
572.90	493.85
573.06	397.89
573.22	313.63
573.38	454.06
573.55	400.23
573.71	402.57
573.87	482.15
574.03	395.55
574.20	402.57
574.36	430.66
574.52	397.89
574.68	320.65
574.84	437.68
575.01	421.30
575.17	409.59
575.33	449.38
575.49	383.85
575.65	416.62
575.82	386.19
575.98	503.22
576.14	451.72
576.30	369.80
576.46	449.38
576.62	440.02
576.79	386.19
576.95	444.70
577.11	489.17
577.27	411.93
577.43	407.25
577.59	456.40
577.75	444.70
577.92	433.00
578.08	381.51
578.24	325.33
578.40	451.72
578.56	414.27
578.72	425.98
578.88	451.72
579.04	376.83
579.21	414.27
579.37	409.59
579.53	367.46
579.69	390.87
579.85	430.66
580.01	414.27
580.17	430.66
580.33	421.30
580.49	372.15
580.65	383.85
580.82	425.98
580.98	386.19
581.14	468.11
581.30	458.74
581.46	421.30
581.62	444.70
581.78	400.23
581.94	411.93
582.10	428.32
582.26	400.23
582.42	390.87
582.58	423.64
582.74	395.55
582.90	430.66
583.06	421.30
583.22	421.30
583.38	341.72
583.54	344.06
583.70	444.70
583.86	435.34
584.02	442.36
584.18	447.04
584.34	440.02
584.50	353.42
584.66	355.76
584.82	393.21
584.98	444.70
585.14	414.27
585.30	402.57
585.46	404.91
585.62	451.72
585.78	418.96
585.94	395.55
586.10	442.36
586.26	414.27
586.42	449.38
586.58	404.91
586.74	456.40
586.90	463.43
587.06	404.91
587.22	395.55
587.38	362.78
587.54	437.68
587.70	407.25
587.86	355.76
588.02	383.85
588.18	447.04
588.34	465.77
588.49	425.98
588.65	383.85
588.81	397.89
588.97	430.66
589.13	423.64
589.29	421.30
589.45	433.00
589.61	482.15
589.77	454.06
589.93	433.00
590.08	482.15
590.24	407.25
590.40	444.70
590.56	416.62
590.72	386.19
590.88	376.83
591.04	372.15
591.20	425.98
591.35	493.85
591.51	491.51
591.67	407.25
591.83	507.90
591.99	470.45
592.15	479.81
592.31	472.79
592.46	388.53
592.62	428.32
592.78	400.23
592.94	402.57
593.10	416.62
593.26	330.02
593.41	418.96
593.57	411.93
593.73	383.85
593.89	397.89
594.05	430.66
594.20	451.72
594.36	486.83
594.52	435.34
594.68	414.27
594.84	327.68
594.99	395.55
595.15	386.19
595.31	416.62
595.47	425.98
595.62	435.34
595.78	390.87
595.94	435.34
596.10	428.32
596.25	421.30
596.41	362.78
596.57	386.19
596.73	458.74
596.88	362.78
597.04	414.27
597.20	425.98
597.36	379.17
597.51	388.53
597.67	407.25
597.83	433.00
597.99	348.74
598.14	423.64
598.30	447.04
598.46	409.59
598.61	444.70
598.77	437.68
598.93	393.21
599.09	313.63
599.24	330.02
599.40	425.98
599.56	381.51
599.71	428.32
599.87	465.77
600.03	435.34
600.18	411.93
600.34	421.30
600.50	337.04
600.65	470.45
600.81	449.38
600.97	372.15
601.12	409.59
601.28	498.53
601.44	454.06
601.59	423.64
601.75	397.89
601.91	461.09
602.06	402.57
602.22	482.15
602.37	355.76
602.53	404.91
602.69	430.66
602.84	411.93
603.00	383.85
603.16	442.36
603.31	477.47
603.47	418.96
603.62	362.78
603.78	365.12
603.94	425.98
604.09	430.66
604.25	418.96
604.40	397.89
604.56	461.09
604.71	456.40
604.87	414.27
605.03	381.51
605.18	414.27
605.34	395.55
605.49	362.78
605.65	414.27
605.80	437.68
605.96	383.85
606.12	435.34
606.27	400.23
606.43	411.93
606.58	428.32
606.74	421.30
606.89	407.25
607.05	451.72
607.20	374.49
607.36	425.98
607.51	468.11
607.67	461.09
607.82	372.15
607.98	449.38
608.13	437.68
608.29	402.57
608.44	428.32
608.60	461.09
608.75	440.02
608.91	442.36
609.06	428.32
609.22	503.22
609.37	395.55
609.53	365.12
609.68	472.79
609.84	470.45
609.99	358.10
610.15	393.21
610.30	461.09
610.46	414.27
610.61	353.42
610.76	425.98
610.92	383.85
611.07	430.66
611.23	454.06
611.38	404.91
611.54	447.04
611.69	400.23
611.84	369.80
612.00	454.06
612.15	470.45
612.31	376.83
612.46	479.81
612.62	374.49
612.77	414.27
612.92	351.08
613.08	470.45
613.23	388.53
613.39	353.42
613.54	402.57
613.69	484.49
613.85	409.59
614.00	376.83
614.15	355.76
614.31	484.49
614.46	489.17
614.62	433.00
614.77	393.21
614.92	444.70
615.08	409.59
615.23	372.15
615.38	418.96
615.54	435.34
615.69	418.96
615.84	390.87
616.00	472.79
616.15	423.64
616.30	451.72
616.46	447.04
616.61	369.80
616.76	414.27
616.92	477.47
617.07	454.06
617.22	418.96
617.37	411.93
617.53	409.59
617.68	437.68
617.83	400.23
617.99	470.45
618.14	451.72
618.29	451.72
618.45	505.56
618.60	411.93
618.75	376.83
618.90	379.17
619.06	425.98
619.21	395.55
619.36	491.51
619.51	409.59
619.67	442.36
619.82	411.93
619.97	395.55
620.12	411.93
620.28	423.64
620.43	437.68
620.58	461.09
620.73	447.04
620.89	425.98
621.04	393.21
621.19	493.85
621.34	470.45
621.49	358.10
621.65	407.25
621.80	423.64
621.95	318.31
622.10	409.59
622.25	400.23
622.41	409.59
622.56	435.34
622.71	414.27
622.86	512.58
623.01	437.68
623.16	423.64
623.32	421.30
623.47	397.89
623.62	393.21
623.77	360.44
623.92	397.89
624.07	332.36
624.23	456.40
624.38	411.93
624.53	454.06
624.68	400.23
624.83	470.45
624.98	489.17
625.13	435.34
625.29	337.04
625.44	400.23
625.59	390.87
625.74	477.47
625.89	435.34
626.04	372.15
626.19	393.21
626.34	388.53
626.49	409.59
626.65	442.36
626.80	362.78
626.95	430.66
627.10	423.64
627.25	381.51
627.40	423.64
627.55	355.76
627.70	381.51
627.85	435.34
628.00	458.74
628.15	435.34
628.30	411.93
628.45	365.12
628.60	390.87
628.76	395.55
628.91	411.93
629.06	440.02
629.21	493.85
629.36	437.68
629.51	362.78
629.66	472.79
629.81	400.23
629.96	435.34
630.11	428.32
630.26	524.28
630.41	430.66
630.56	358.10
630.71	400.23
630.86	435.34
631.01	411.93
631.16	402.57
631.31	423.64
631.46	491.51
631.61	341.72
631.76	393.21
631.91	486.83
632.06	404.91
632.21	393.21
632.36	451.72
632.51	435.34
632.66	330.02
632.81	414.27
632.96	404.91
633.10	437.68
633.25	454.06
633.40	430.66
633.55	379.17
633.70	388.53
633.85	423.64
634.00	444.70
634.15	386.19
634.30	400.23
634.45	468.11
634.60	383.85
634.75	444.70
634.90	409.59
635.05	374.49
635.19	444.70
635.34	454.06
635.49	465.77
635.64	379.17
635.79	383.85
635.94	374.49
636.09	482.15
636.24	468.11
636.39	465.77
636.53	437.68
636.68	486.83
636.83	407.25
636.98	458.74
637.13	435.34
637.28	393.21
637.43	411.93
637.57	418.96
637.72	423.64
637.87	411.93
638.02	449.38
638.17	421.30
638.32	423.64
638.46	418.96
638.61	451.72
638.76	442.36
638.91	435.34
639.06	428.32
639.20	458.74
639.35	437.68
639.50	369.80
639.65	404.91
639.80	360.44
639.94	381.51
640.09	358.10
640.24	454.06
640.39	449.38
640.54	423.64
640.68	404.91
640.83	486.83
640.98	428.32
641.13	369.80
641.27	430.66
641.42	337.04
641.57	484.49
641.72	425.98
641.86	402.57
642.01	360.44
642.16	517.26
642.31	358.10
642.45	393.21
642.60	395.55
642.75	409.59
642.90	376.83
643.04	407.25
643.19	425.98
643.34	365.12
643.48	430.66
643.63	414.27
643.78	468.11
643.93	456.40
644.07	454.06
644.22	496.19
644.37	465.77
644.51	437.68
644.66	433.00
644.81	409.59
644.95	491.51
645.10	433.00
645.25	374.49
645.39	477.47
645.54	425.98
645.69	479.81
645.83	440.02
645.98	477.47
646.13	355.76
646.27	400.23
646.42	430.66
646.57	437.68
646.71	411.93
646.86	365.12
647.00	435.34
647.15	390.87
647.30	379.17
647.44	386.19
647.59	477.47
647.74	404.91
647.88	367.46
648.03	358.10
648.17	358.10
648.32	425.98
648.47	414.27
648.61	444.70
648.76	379.17
648.90	369.80
649.05	482.15
649.20	374.49
649.34	353.42
649.49	386.19
649.63	416.62
649.78	465.77
649.92	330.02
650.07	440.02
650.21	346.40
650.36	435.34
650.51	365.12
650.65	477.47
650.80	449.38
650.94	454.06
651.09	463.43
651.23	388.53
651.38	395.55
651.52	376.83
651.67	395.55
651.81	409.59
651.96	430.66
652.10	458.74
652.25	416.62
652.39	428.32
652.54	369.80
652.68	433.00
652.83	369.80
652.97	430.66
653.12	440.02
653.26	367.46
653.41	435.34
653.55	416.62
653.70	430.66
653.84	362.78
653.99	430.66
654.13	440.02
654.27	447.04
654.42	360.44
654.56	388.53
654.71	423.64
654.85	428.32
655.00	454.06
655.14	440.02
655.29	383.85
655.43	388.53
655.57	379.17
655.72	365.12
655.86	463.43
656.01	475.13
656.15	425.98
656.30	433.00
656.44	390.87
656.58	418.96
656.73	383.85
656.87	414.27
657.01	395.55
657.16	437.68
657.30	423.64
657.45	407.25
657.59	437.68
657.73	383.85
657.88	430.66
658.02	512.58
658.16	486.83
658.31	411.93
658.45	449.38
658.60	430.66
658.74	442.36
658.88	381.51
659.03	395.55
659.17	449.38
659.31	395.55
659.46	440.02
659.60	444.70
659.74	416.62
659.89	400.23
660.03	442.36
660.17	418.96
660.32	409.59
660.46	325.33
660.60	461.09
660.74	416.62
660.89	411.93
661.03	430.66
661.17	458.74
661.32	451.72
661.46	444.70
661.60	425.98
661.74	461.09
661.89	416.62
662.03	425.98
662.17	437.68
662.31	414.27
662.46	379.17
662.60	454.06
662.74	386.19
662.88	395.55
663.03	433.00
663.17	395.55
663.31	395.55
663.45	367.46
663.60	421.30
663.74	491.51
663.88	414.27
664.02	390.87
664.17	416.62
664.31	411.93
664.45	407.25
664.59	414.27
664.73	440.02
664.88	484.49
665.02	400.23
665.16	425.98
665.30	496.19
665.44	411.93
665.59	484.49
665.73	388.53
665.87	409.59
666.01	400.23
666.15	390.87
666.29	346.40
666.44	421.30
666.58	505.56
666.72	374.49
666.86	362.78
667.00	463.43
667.14	442.36
667.28	395.55
667.43	458.74
667.57	475.13
667.71	500.87
667.85	402.57
667.99	435.34
668.13	461.09
668.27	421.30
668.41	421.30
668.56	456.40
668.70	428.32
668.84	430.66
668.98	433.00
669.12	468.11
669.26	437.68
669.40	430.66
669.54	430.66
669.68	397.89
669.82	407.25
669.96	404.91
670.10	482.15
670.25	416.62
670.39	433.00
670.53	397.89
670.67	407.25
670.81	383.85
670.95	390.87
671.09	383.85
671.23	489.17
671.37	423.64
671.51	458.74
671.65	465.77
671.79	442.36
671.93	416.62
672.07	465.77
672.21	449.38
672.35	449.38
672.49	411.93
672.63	369.80
672.77	428.32
672.91	442.36
673.05	390.87
673.19	447.04
673.33	444.70
673.47	449.38
673.61	430.66
673.75	404.91
673.89	414.27
674.03	440.02
674.17	447.04
674.31	386.19
674.45	418.96
674.59	472.79
674.73	423.64
674.87	458.74
675.01	428.32
675.15	383.85
675.29	369.80
675.43	407.25
675.56	430.66
675.70	458.74
675.84	489.17
675.98	400.23
676.12	383.85
676.26	449.38
676.40	386.19
676.54	414.27
676.68	435.34
676.82	400.23
676.96	418.96
677.10	374.49
677.23	402.57
677.37	447.04
677.51	390.87
677.65	425.98
677.79	395.55
677.93	468.11
678.07	451.72
678.21	421.30
678.34	339.38
678.48	367.46
678.62	372.15
678.76	409.59
678.90	374.49
679.04	379.17
679.18	416.62
679.31	383.85
679.45	395.55
679.59	484.49
679.73	503.22
679.87	381.51
680.00	512.58
680.14	479.81
680.28	489.17
680.42	414.27
680.56	444.70
680.70	411.93
680.83	393.21
680.97	416.62
681.11	404.91
681.25	428.32
681.39	442.36
681.52	409.59
681.66	388.53
681.80	472.79
681.94	444.70
682.07	423.64
682.21	468.11
682.35	472.79
682.49	430.66
682.62	409.59
682.76	428.32
682.90	423.64
683.04	444.70
683.17	308.95
683.31	461.09
683.45	421.30
683.59	430.66
683.72	433.00
683.86	407.25
684.00	442.36
684.13	414.27
684.27	390.87
684.41	489.17
684.55	423.64
684.68	360.44
684.82	430.66
684.96	404.91
685.09	423.64
685.23	402.57
685.37	428.32
685.50	381.51
685.64	472.79
685.78	451.72
685.91	388.53
686.05	428.32
686.19	425.98
686.32	386.19
686.46	454.06
686.60	388.53
686.73	517.26
686.87	440.02
687.01	407.25
687.14	458.74
687.28	440.02
687.42	400.23
687.55	369.80
687.69	507.90
687.82	423.64
687.96	367.46
688.10	491.51
688.23	421.30
688.37	423.64
688.50	369.80
688.64	430.66
688.78	386.19
688.91	372.15
689.05	468.11
689.18	407.25
689.32	348.74
689.46	395.55
689.59	463.43
689.73	355.76
689.86	482.15
690.00	418.96
690.13	461.09
690.27	423.64
690.41	425.98
690.54	395.55
690.68	393.21
690.81	397.89
690.95	423.64
691.08	437.68
691.22	475.13
691.35	418.96
691.49	299.59
691.62	416.62
691.76	383.85
691.89	397.89
692.03	379.17
692.16	407.25
692.30	404.91
692.43	418.96
692.57	468.11
692.70	341.72
692.84	395.55
692.97	388.53
693.11	376.83
693.24	461.09
693.38	435.34
693.51	355.76
693.65	390.87
693.78	372.15
693.92	407.25
694.05	395.55
694.19	440.02
694.32	381.51
694.45	477.47
694.59	418.96
694.72	374.49
694.86	393.21
694.99	372.15
695.13	325.33
695.26	418.96
695.39	353.42
695.53	472.79
695.66	388.53
695.80	475.13
695.93	463.43
696.07	395.55
696.20	463.43
696.33	425.98
696.47	386.19
696.60	388.53
696.73	440.02
696.87	468.11
697.00	442.36
697.14	470.45
697.27	430.66
697.40	479.81
697.54	461.09
697.67	463.43
697.80	393.21
697.94	517.26
698.07	383.85
698.21	409.59
698.34	444.70
698.47	369.80
698.61	355.76
698.74	351.08
698.87	407.25
699.01	451.72
699.14	351.08
699.27	463.43
699.40	489.17
699.54	376.83
699.67	386.19
699.80	383.85
699.94	435.34
700.07	367.46
700.20	313.63
700.34	425.98
700.47	407.25
700.60	461.09
700.73	442.36
700.87	386.19
701.00	346.40
701.13	414.27
701.26	425.98
701.40	383.85
701.53	402.57
701.66	381.51
701.79	390.87
701.93	362.78
702.06	404.91
702.19	484.49
702.32	416.62
702.46	402.57
702.59	407.25
702.72	376.83
702.85	425.98
702.99	348.74
703.12	421.30
703.25	376.83
703.38	383.85
703.51	381.51
703.65	390.87
703.78	379.17
703.91	383.85
704.04	437.68
704.17	376.83
704.31	395.55
704.44	386.19
704.57	374.49
704.70	379.17
704.83	369.80
704.96	449.38
705.10	367.46
705.23	414.27
>>>>>End Processed Spectral Data<<<<<
