SpectraSuite Data File
++++++++++++++++++++++++++++++++++++
Date: Fri Oct 25 12:11:10 EDT 2013
User: price-jones
Dark Spectrum Present: No
Reference Spectrum Present: No
Number of Sampled Component Spectra: 1
Spectrometers: USB2+H05261
Integration Time (usec): 100000 (USB2+H05261)
Spectra Averaged: 1 (USB2+H05261)
Boxcar Smoothing: 0 (USB2+H05261)
Correct for Electrical Dark: No (USB2+H05261)
Strobe/Lamp Enabled: No (USB2+H05261)
Correct for Detector Non-linearity: No (USB2+H05261)
Correct for Stray Light: No (USB2+H05261)
Number of Pixels in Processed Spectrum: 2048
>>>>>Begin Processed Spectral Data<<<<<
365.73	339.38
365.92	339.38
366.12	339.38
366.32	280.86
366.52	229.37
366.72	224.69
366.91	222.35
367.11	173.20
367.31	205.97
367.51	238.73
367.70	203.63
367.90	269.16
368.10	276.18
368.30	287.89
368.49	238.73
368.69	241.08
368.89	308.95
369.09	313.63
369.28	259.80
369.48	304.27
369.68	344.06
369.87	339.38
370.07	297.25
370.27	327.68
370.47	325.33
370.66	330.02
370.86	383.85
371.06	369.80
371.25	395.55
371.45	388.53
371.65	437.68
371.84	365.12
372.04	374.49
372.24	425.98
372.44	470.45
372.63	458.74
372.83	362.78
373.03	388.53
373.22	447.04
373.42	484.49
373.62	423.64
373.81	407.25
374.01	388.53
374.21	463.43
374.40	418.96
374.60	479.81
374.79	421.30
374.99	409.59
375.19	367.46
375.38	404.91
375.58	362.78
375.78	458.74
375.97	454.06
376.17	491.51
376.37	390.87
376.56	386.19
376.76	374.49
376.95	386.19
377.15	428.32
377.35	451.72
377.54	425.98
377.74	418.96
377.93	442.36
378.13	428.32
378.33	437.68
378.52	418.96
378.72	390.87
378.91	372.15
379.11	470.45
379.31	388.53
379.50	395.55
379.70	442.36
379.89	435.34
380.09	402.57
380.28	482.15
380.48	479.81
380.68	339.38
380.87	360.44
381.07	395.55
381.26	512.58
381.46	411.93
381.65	393.21
381.85	346.40
382.04	404.91
382.24	423.64
382.43	395.55
382.63	414.27
382.83	440.02
383.02	397.89
383.22	386.19
383.41	409.59
383.61	484.49
383.80	379.17
384.00	440.02
384.19	376.83
384.39	409.59
384.58	456.40
384.78	376.83
384.97	360.44
385.17	435.34
385.36	374.49
385.56	433.00
385.75	355.76
385.95	498.53
386.14	477.47
386.34	409.59
386.53	428.32
386.72	418.96
386.92	430.66
387.11	437.68
387.31	416.62
387.50	355.76
387.70	344.06
387.89	344.06
388.09	365.12
388.28	414.27
388.48	369.80
388.67	386.19
388.86	397.89
389.06	360.44
389.25	402.57
389.45	447.04
389.64	358.10
389.84	479.81
390.03	416.62
390.22	433.00
390.42	409.59
390.61	416.62
390.81	397.89
391.00	430.66
391.19	374.49
391.39	393.21
391.58	409.59
391.78	477.47
391.97	433.00
392.16	451.72
392.36	376.83
392.55	472.79
392.75	339.38
392.94	458.74
393.13	444.70
393.33	358.10
393.52	383.85
393.71	454.06
393.91	456.40
394.10	447.04
394.29	355.76
394.49	322.99
394.68	404.91
394.88	444.70
395.07	379.17
395.26	433.00
395.46	472.79
395.65	489.17
395.84	447.04
396.04	465.77
396.23	461.09
396.42	465.77
396.62	418.96
396.81	348.74
397.00	360.44
397.19	447.04
397.39	465.77
397.58	444.70
397.77	458.74
397.97	372.15
398.16	470.45
398.35	418.96
398.55	390.87
398.74	383.85
398.93	454.06
399.12	386.19
399.32	388.53
399.51	365.12
399.70	346.40
399.90	369.80
400.09	416.62
400.28	414.27
400.47	421.30
400.67	423.64
400.86	402.57
401.05	397.89
401.24	482.15
401.44	386.19
401.63	447.04
401.82	322.99
402.01	348.74
402.21	360.44
402.40	367.46
402.59	461.09
402.78	437.68
402.97	430.66
403.17	421.30
403.36	444.70
403.55	416.62
403.74	381.51
403.93	421.30
404.13	416.62
404.32	386.19
404.51	447.04
404.70	390.87
404.89	423.64
405.09	400.23
405.28	435.34
405.47	404.91
405.66	440.02
405.85	428.32
406.05	484.49
406.24	423.64
406.43	463.43
406.62	423.64
406.81	454.06
407.00	362.78
407.20	353.42
407.39	362.78
407.58	376.83
407.77	397.89
407.96	407.25
408.15	395.55
408.34	383.85
408.54	463.43
408.73	465.77
408.92	433.00
409.11	393.21
409.30	498.53
409.49	440.02
409.68	447.04
409.87	425.98
410.07	444.70
410.26	409.59
410.45	444.70
410.64	433.00
410.83	423.64
411.02	332.36
411.21	456.40
411.40	395.55
411.59	404.91
411.78	301.93
411.98	407.25
412.17	393.21
412.36	444.70
412.55	374.49
412.74	425.98
412.93	447.04
413.12	348.74
413.31	416.62
413.50	407.25
413.69	306.61
413.88	451.72
414.07	423.64
414.26	449.38
414.45	372.15
414.64	458.74
414.83	489.17
415.02	360.44
415.22	442.36
415.41	381.51
415.60	346.40
415.79	404.91
415.98	472.79
416.17	393.21
416.36	360.44
416.55	456.40
416.74	400.23
416.93	428.32
417.12	428.32
417.31	430.66
417.50	444.70
417.69	430.66
417.88	423.64
418.07	358.10
418.26	344.06
418.45	369.80
418.64	411.93
418.83	404.91
419.02	421.30
419.21	379.17
419.39	367.46
419.58	400.23
419.77	423.64
419.96	332.36
420.15	440.02
420.34	372.15
420.53	440.02
420.72	393.21
420.91	418.96
421.10	477.47
421.29	416.62
421.48	491.51
421.67	489.17
421.86	379.17
422.05	458.74
422.24	374.49
422.43	444.70
422.61	372.15
422.80	444.70
422.99	423.64
423.18	383.85
423.37	458.74
423.56	470.45
423.75	477.47
423.94	444.70
424.13	402.57
424.32	383.85
424.50	440.02
424.69	425.98
424.88	463.43
425.07	374.49
425.26	346.40
425.45	402.57
425.64	407.25
425.83	430.66
426.01	402.57
426.20	437.68
426.39	444.70
426.58	379.17
426.77	416.62
426.96	379.17
427.15	369.80
427.33	360.44
427.52	430.66
427.71	442.36
427.90	369.80
428.09	341.72
428.28	372.15
428.46	353.42
428.65	421.30
428.84	484.49
429.03	353.42
429.22	369.80
429.40	416.62
429.59	416.62
429.78	395.55
429.97	461.09
430.16	402.57
430.34	491.51
430.53	477.47
430.72	376.83
430.91	472.79
431.10	428.32
431.28	372.15
431.47	444.70
431.66	414.27
431.85	449.38
432.03	477.47
432.22	512.58
432.41	397.89
432.60	407.25
432.79	334.70
432.97	404.91
433.16	470.45
433.35	381.51
433.54	374.49
433.72	397.89
433.91	489.17
434.10	421.30
434.28	416.62
434.47	409.59
434.66	484.49
434.85	440.02
435.03	395.55
435.22	489.17
435.41	388.53
435.59	388.53
435.78	376.83
435.97	442.36
436.16	468.11
436.34	414.27
436.53	409.59
436.72	397.89
436.90	470.45
437.09	472.79
437.28	367.46
437.46	458.74
437.65	409.59
437.84	428.32
438.02	388.53
438.21	404.91
438.40	416.62
438.58	421.30
438.77	388.53
438.96	402.57
439.14	414.27
439.33	437.68
439.52	414.27
439.70	423.64
439.89	414.27
440.08	440.02
440.26	400.23
440.45	418.96
440.63	388.53
440.82	407.25
441.01	315.97
441.19	449.38
441.38	388.53
441.57	430.66
441.75	491.51
441.94	374.49
442.12	402.57
442.31	372.15
442.50	437.68
442.68	376.83
442.87	425.98
443.05	386.19
443.24	383.85
443.43	355.76
443.61	402.57
443.80	390.87
443.98	397.89
444.17	374.49
444.35	404.91
444.54	365.12
444.73	383.85
444.91	437.68
445.10	437.68
445.28	402.57
445.47	418.96
445.65	447.04
445.84	404.91
446.02	381.51
446.21	428.32
446.39	393.21
446.58	390.87
446.77	423.64
446.95	351.08
447.14	465.77
447.32	463.43
447.51	418.96
447.69	421.30
447.88	440.02
448.06	416.62
448.25	435.34
448.43	409.59
448.62	395.55
448.80	428.32
448.99	411.93
449.17	374.49
449.36	442.36
449.54	404.91
449.73	416.62
449.91	351.08
450.10	444.70
450.28	451.72
450.46	433.00
450.65	390.87
450.83	435.34
451.02	390.87
451.20	365.12
451.39	437.68
451.57	416.62
451.76	423.64
451.94	414.27
452.13	447.04
452.31	407.25
452.49	461.09
452.68	325.33
452.86	440.02
453.05	433.00
453.23	393.21
453.42	383.85
453.60	397.89
453.78	407.25
453.97	355.76
454.15	430.66
454.34	407.25
454.52	437.68
454.70	442.36
454.89	414.27
455.07	407.25
455.26	430.66
455.44	479.81
455.62	306.61
455.81	407.25
455.99	414.27
456.17	414.27
456.36	379.17
456.54	390.87
456.73	395.55
456.91	379.17
457.09	395.55
457.28	400.23
457.46	477.47
457.64	402.57
457.83	372.15
458.01	360.44
458.19	454.06
458.38	437.68
458.56	447.04
458.74	388.53
458.93	416.62
459.11	435.34
459.29	320.65
459.48	416.62
459.66	447.04
459.84	444.70
460.03	510.24
460.21	430.66
460.39	402.57
460.57	475.13
460.76	388.53
460.94	409.59
461.12	423.64
461.31	500.87
461.49	365.12
461.67	444.70
461.85	409.59
462.04	472.79
462.22	765.36
462.40	430.66
462.59	388.53
462.77	388.53
462.95	409.59
463.13	400.23
463.32	353.42
463.50	337.04
463.68	428.32
463.86	372.15
464.05	435.34
464.23	477.47
464.41	526.62
464.59	423.64
464.78	402.57
464.96	404.91
465.14	440.02
465.32	428.32
465.50	477.47
465.69	526.62
465.87	379.17
466.05	386.19
466.23	372.15
466.41	479.81
466.60	484.49
466.78	442.36
466.96	458.74
467.14	379.17
467.32	400.23
467.51	447.04
467.69	407.25
467.87	374.49
468.05	402.57
468.23	498.53
468.41	325.33
468.60	411.93
468.78	411.93
468.96	447.04
469.14	496.19
469.32	393.21
469.50	430.66
469.69	456.40
469.87	402.57
470.05	400.23
470.23	376.83
470.41	388.53
470.59	397.89
470.77	414.27
470.95	435.34
471.14	503.22
471.32	428.32
471.50	454.06
471.68	409.59
471.86	381.51
472.04	409.59
472.22	381.51
472.40	393.21
472.58	379.17
472.77	423.64
472.95	430.66
473.13	365.12
473.31	395.55
473.49	386.19
473.67	440.02
473.85	388.53
474.03	510.24
474.21	411.93
474.39	461.09
474.57	447.04
474.75	383.85
474.93	451.72
475.12	390.87
475.30	447.04
475.48	414.27
475.66	372.15
475.84	381.51
476.02	416.62
476.20	367.46
476.38	376.83
476.56	449.38
476.74	463.43
476.92	409.59
477.10	433.00
477.28	393.21
477.46	386.19
477.64	414.27
477.82	470.45
478.00	407.25
478.18	423.64
478.36	461.09
478.54	416.62
478.72	404.91
478.90	465.77
479.08	402.57
479.26	386.19
479.44	362.78
479.62	388.53
479.80	393.21
479.98	416.62
480.16	411.93
480.34	407.25
480.52	397.89
480.70	407.25
480.88	418.96
481.06	390.87
481.24	372.15
481.41	393.21
481.59	386.19
481.77	353.42
481.95	414.27
482.13	482.15
482.31	341.72
482.49	414.27
482.67	442.36
482.85	407.25
483.03	383.85
483.21	395.55
483.39	409.59
483.57	407.25
483.74	402.57
483.92	381.51
484.10	416.62
484.28	435.34
484.46	435.34
484.64	447.04
484.82	451.72
485.00	414.27
485.18	442.36
485.35	330.02
485.53	428.32
485.71	484.49
485.89	318.31
486.07	346.40
486.25	442.36
486.43	355.76
486.61	456.40
486.78	369.80
486.96	433.00
487.14	411.93
487.32	388.53
487.50	442.36
487.68	493.85
487.85	428.32
488.03	454.06
488.21	395.55
488.39	360.44
488.57	397.89
488.75	386.19
488.92	519.60
489.10	388.53
489.28	486.83
489.46	447.04
489.64	423.64
489.81	433.00
489.99	433.00
490.17	456.40
490.35	482.15
490.53	294.91
490.70	346.40
490.88	409.59
491.06	484.49
491.24	423.64
491.41	435.34
491.59	472.79
491.77	470.45
491.95	330.02
492.13	425.98
492.30	416.62
492.48	383.85
492.66	458.74
492.84	414.27
493.01	444.70
493.19	425.98
493.37	456.40
493.54	449.38
493.72	390.87
493.90	454.06
494.08	486.83
494.25	468.11
494.43	416.62
494.61	463.43
494.79	418.96
494.96	379.17
495.14	477.47
495.32	390.87
495.49	486.83
495.67	435.34
495.85	447.04
496.02	442.36
496.20	421.30
496.38	437.68
496.55	437.68
496.73	444.70
496.91	402.57
497.09	383.85
497.26	463.43
497.44	367.46
497.62	379.17
497.79	411.93
497.97	397.89
498.14	425.98
498.32	437.68
498.50	456.40
498.67	421.30
498.85	397.89
499.03	402.57
499.20	456.40
499.38	390.87
499.56	341.72
499.73	491.51
499.91	447.04
500.08	390.87
500.26	418.96
500.44	416.62
500.61	386.19
500.79	339.38
500.97	404.91
501.14	491.51
501.32	433.00
501.49	383.85
501.67	428.32
501.84	449.38
502.02	416.62
502.20	381.51
502.37	437.68
502.55	348.74
502.72	397.89
502.90	397.89
503.07	388.53
503.25	461.09
503.43	425.98
503.60	416.62
503.78	386.19
503.95	423.64
504.13	308.95
504.30	423.64
504.48	365.12
504.65	451.72
504.83	411.93
505.01	334.70
505.18	400.23
505.36	433.00
505.53	461.09
505.71	379.17
505.88	435.34
506.06	425.98
506.23	451.72
506.41	402.57
506.58	428.32
506.76	444.70
506.93	402.57
507.11	390.87
507.28	411.93
507.46	409.59
507.63	428.32
507.81	404.91
507.98	358.10
508.16	433.00
508.33	400.23
508.50	376.83
508.68	421.30
508.85	381.51
509.03	376.83
509.20	315.97
509.38	409.59
509.55	425.98
509.73	402.57
509.90	330.02
510.08	393.21
510.25	411.93
510.42	423.64
510.60	461.09
510.77	395.55
510.95	451.72
511.12	372.15
511.30	430.66
511.47	489.17
511.64	444.70
511.82	402.57
511.99	390.87
512.17	435.34
512.34	449.38
512.51	454.06
512.69	383.85
512.86	449.38
513.04	372.15
513.21	465.77
513.38	409.59
513.56	400.23
513.73	369.80
513.90	397.89
514.08	440.02
514.25	442.36
514.43	447.04
514.60	404.91
514.77	402.57
514.95	334.70
515.12	379.17
515.29	414.27
515.47	440.02
515.64	409.59
515.81	451.72
515.99	482.15
516.16	449.38
516.33	358.10
516.51	482.15
516.68	437.68
516.85	477.47
517.03	414.27
517.20	447.04
517.37	430.66
517.54	411.93
517.72	395.55
517.89	365.12
518.06	393.21
518.24	505.56
518.41	388.53
518.58	358.10
518.75	395.55
518.93	440.02
519.10	362.78
519.27	442.36
519.45	472.79
519.62	425.98
519.79	477.47
519.96	395.55
520.14	437.68
520.31	409.59
520.48	388.53
520.65	423.64
520.83	381.51
521.00	414.27
521.17	489.17
521.34	458.74
521.52	390.87
521.69	416.62
521.86	442.36
522.03	320.65
522.20	428.32
522.38	402.57
522.55	374.49
522.72	444.70
522.89	416.62
523.07	475.13
523.24	397.89
523.41	440.02
523.58	437.68
523.75	411.93
523.92	411.93
524.10	449.38
524.27	376.83
524.44	409.59
524.61	465.77
524.78	400.23
524.96	402.57
525.13	465.77
525.30	414.27
525.47	390.87
525.64	402.57
525.81	395.55
525.98	425.98
526.16	444.70
526.33	365.12
526.50	425.98
526.67	421.30
526.84	381.51
527.01	388.53
527.18	416.62
527.36	447.04
527.53	358.10
527.70	348.74
527.87	353.42
528.04	379.17
528.21	510.24
528.38	447.04
528.55	400.23
528.72	496.19
528.89	444.70
529.07	463.43
529.24	388.53
529.41	475.13
529.58	395.55
529.75	390.87
529.92	416.62
530.09	351.08
530.26	484.49
530.43	404.91
530.60	376.83
530.77	301.93
530.94	367.46
531.11	430.66
531.28	327.68
531.46	416.62
531.63	435.34
531.80	395.55
531.97	416.62
532.14	416.62
532.31	451.72
532.48	418.96
532.65	418.96
532.82	383.85
532.99	409.59
533.16	348.74
533.33	440.02
533.50	372.15
533.67	477.47
533.84	395.55
534.01	404.91
534.18	428.32
534.35	447.04
534.52	423.64
534.69	496.19
534.86	376.83
535.03	337.04
535.20	374.49
535.37	421.30
535.54	414.27
535.71	456.40
535.88	414.27
536.05	397.89
536.22	411.93
536.38	376.83
536.55	379.17
536.72	498.53
536.89	468.11
537.06	442.36
537.23	409.59
537.40	383.85
537.57	416.62
537.74	442.36
537.91	428.32
538.08	416.62
538.25	447.04
538.42	369.80
538.59	409.59
538.75	454.06
538.92	447.04
539.09	433.00
539.26	393.21
539.43	418.96
539.60	400.23
539.77	386.19
539.94	353.42
540.11	334.70
540.28	379.17
540.44	433.00
540.61	353.42
540.78	346.40
540.95	423.64
541.12	503.22
541.29	430.66
541.46	451.72
541.62	440.02
541.79	421.30
541.96	414.27
542.13	440.02
542.30	411.93
542.47	461.09
542.63	374.49
542.80	435.34
542.97	454.06
543.14	367.46
543.31	428.32
543.48	421.30
543.64	374.49
543.81	393.21
543.98	437.68
544.15	402.57
544.32	454.06
544.48	435.34
544.65	365.12
544.82	428.32
544.99	458.74
545.16	463.43
545.32	404.91
545.49	430.66
545.66	456.40
545.83	421.30
546.00	372.15
546.16	451.72
546.33	397.89
546.50	360.44
546.67	418.96
546.83	484.49
547.00	393.21
547.17	407.25
547.34	355.76
547.50	484.49
547.67	470.45
547.84	351.08
548.00	491.51
548.17	428.32
548.34	383.85
548.51	407.25
548.67	407.25
548.84	423.64
549.01	409.59
549.18	390.87
549.34	393.21
549.51	400.23
549.68	393.21
549.84	442.36
550.01	404.91
550.18	442.36
550.34	421.30
550.51	390.87
550.68	433.00
550.84	472.79
551.01	355.76
551.18	430.66
551.34	430.66
551.51	498.53
551.68	421.30
551.84	430.66
552.01	404.91
552.18	369.80
552.34	458.74
552.51	358.10
552.68	400.23
552.84	440.02
553.01	484.49
553.18	472.79
553.34	433.00
553.51	440.02
553.67	486.83
553.84	421.30
554.01	437.68
554.17	449.38
554.34	341.72
554.51	402.57
554.67	468.11
554.84	421.30
555.00	477.47
555.17	397.89
555.33	421.30
555.50	482.15
555.67	404.91
555.83	402.57
556.00	390.87
556.16	578.11
556.33	479.81
556.50	386.19
556.66	407.25
556.83	444.70
556.99	435.34
557.16	416.62
557.32	423.64
557.49	404.91
557.65	404.91
557.82	407.25
557.98	447.04
558.15	414.27
558.32	355.76
558.48	395.55
558.65	395.55
558.81	442.36
558.98	339.38
559.14	442.36
559.31	360.44
559.47	510.24
559.64	362.78
559.80	472.79
559.97	416.62
560.13	376.83
560.30	416.62
560.46	367.46
560.63	409.59
560.79	418.96
560.96	437.68
561.12	390.87
561.29	430.66
561.45	388.53
561.61	372.15
561.78	444.70
561.94	365.12
562.11	418.96
562.27	402.57
562.44	369.80
562.60	409.59
562.77	337.04
562.93	447.04
563.10	388.53
563.26	372.15
563.42	411.93
563.59	418.96
563.75	423.64
563.92	433.00
564.08	386.19
564.24	414.27
564.41	458.74
564.57	353.42
564.74	393.21
564.90	484.49
565.07	437.68
565.23	423.64
565.39	458.74
565.56	430.66
565.72	479.81
565.88	437.68
566.05	369.80
566.21	355.76
566.38	468.11
566.54	465.77
566.70	454.06
566.87	433.00
567.03	463.43
567.19	440.02
567.36	423.64
567.52	379.17
567.68	538.32
567.85	461.09
568.01	362.78
568.17	404.91
568.34	447.04
568.50	491.51
568.66	430.66
568.83	475.13
568.99	484.49
569.15	430.66
569.32	409.59
569.48	423.64
569.64	409.59
569.81	404.91
569.97	451.72
570.13	388.53
570.30	414.27
570.46	442.36
570.62	393.21
570.78	414.27
570.95	454.06
571.11	458.74
571.27	449.38
571.43	435.34
571.60	379.17
571.76	393.21
571.92	390.87
572.09	393.21
572.25	372.15
572.41	444.70
572.57	423.64
572.74	433.00
572.90	423.64
573.06	397.89
573.22	437.68
573.38	498.53
573.55	421.30
573.71	479.81
573.87	416.62
574.03	430.66
574.20	435.34
574.36	433.00
574.52	372.15
574.68	386.19
574.84	423.64
575.01	425.98
575.17	435.34
575.33	383.85
575.49	421.30
575.65	407.25
575.82	407.25
575.98	425.98
576.14	451.72
576.30	463.43
576.46	416.62
576.62	437.68
576.79	397.89
576.95	451.72
577.11	456.40
577.27	341.72
577.43	411.93
577.59	465.77
577.75	421.30
577.92	444.70
578.08	421.30
578.24	395.55
578.40	517.26
578.56	409.59
578.72	482.15
578.88	402.57
579.04	423.64
579.21	395.55
579.37	393.21
579.53	435.34
579.69	416.62
579.85	397.89
580.01	388.53
580.17	414.27
580.33	381.51
580.49	395.55
580.65	468.11
580.82	465.77
580.98	367.46
581.14	435.34
581.30	423.64
581.46	423.64
581.62	451.72
581.78	383.85
581.94	418.96
582.10	365.12
582.26	393.21
582.42	383.85
582.58	381.51
582.74	451.72
582.90	395.55
583.06	428.32
583.22	491.51
583.38	442.36
583.54	372.15
583.70	409.59
583.86	454.06
584.02	465.77
584.18	463.43
584.34	451.72
584.50	421.30
584.66	428.32
584.82	402.57
584.98	388.53
585.14	395.55
585.30	458.74
585.46	454.06
585.62	437.68
585.78	418.96
585.94	454.06
586.10	447.04
586.26	397.89
586.42	416.62
586.58	409.59
586.74	461.09
586.90	421.30
587.06	423.64
587.22	444.70
587.38	440.02
587.54	491.51
587.70	430.66
587.86	358.10
588.02	369.80
588.18	470.45
588.34	451.72
588.49	388.53
588.65	451.72
588.81	437.68
588.97	414.27
589.13	376.83
589.29	386.19
589.45	416.62
589.61	344.06
589.77	456.40
589.93	397.89
590.08	397.89
590.24	407.25
590.40	423.64
590.56	449.38
590.72	421.30
590.88	447.04
591.04	484.49
591.20	327.68
591.35	418.96
591.51	526.62
591.67	344.06
591.83	425.98
591.99	348.74
592.15	386.19
592.31	447.04
592.46	388.53
592.62	479.81
592.78	351.08
592.94	416.62
593.10	423.64
593.26	442.36
593.41	435.34
593.57	416.62
593.73	442.36
593.89	416.62
594.05	402.57
594.20	341.72
594.36	362.78
594.52	367.46
594.68	409.59
594.84	393.21
594.99	458.74
595.15	454.06
595.31	444.70
595.47	491.51
595.62	322.99
595.78	451.72
595.94	418.96
596.10	465.77
596.25	505.56
596.41	449.38
596.57	353.42
596.73	425.98
596.88	435.34
597.04	315.97
597.20	423.64
597.36	454.06
597.51	388.53
597.67	381.51
597.83	428.32
597.99	425.98
598.14	400.23
598.30	512.58
598.46	454.06
598.61	456.40
598.77	381.51
598.93	402.57
599.09	428.32
599.24	393.21
599.40	498.53
599.56	449.38
599.71	365.12
599.87	383.85
600.03	449.38
600.18	456.40
600.34	498.53
600.50	465.77
600.65	393.21
600.81	407.25
600.97	367.46
601.12	416.62
601.28	461.09
601.44	358.10
601.59	346.40
601.75	423.64
601.91	418.96
602.06	402.57
602.22	482.15
602.37	388.53
602.53	423.64
602.69	430.66
602.84	477.47
603.00	379.17
603.16	395.55
603.31	365.12
603.47	491.51
603.62	372.15
603.78	442.36
603.94	430.66
604.09	367.46
604.25	421.30
604.40	409.59
604.56	379.17
604.71	425.98
604.87	379.17
605.03	470.45
605.18	390.87
605.34	416.62
605.49	404.91
605.65	386.19
605.80	388.53
605.96	451.72
606.12	440.02
606.27	440.02
606.43	311.29
606.58	456.40
606.74	367.46
606.89	449.38
607.05	489.17
607.20	404.91
607.36	423.64
607.51	381.51
607.67	421.30
607.82	416.62
607.98	451.72
608.13	433.00
608.29	444.70
608.44	454.06
608.60	365.12
608.75	433.00
608.91	435.34
609.06	418.96
609.22	416.62
609.37	449.38
609.53	409.59
609.68	390.87
609.84	397.89
609.99	416.62
610.15	437.68
610.30	388.53
610.46	421.30
610.61	458.74
610.76	362.78
610.92	442.36
611.07	500.87
611.23	444.70
611.38	482.15
611.54	444.70
611.69	395.55
611.84	388.53
612.00	451.72
612.15	475.13
612.31	386.19
612.46	379.17
612.62	409.59
612.77	400.23
612.92	491.51
613.08	507.90
613.23	414.27
613.39	458.74
613.54	465.77
613.69	451.72
613.85	351.08
614.00	353.42
614.15	468.11
614.31	390.87
614.46	449.38
614.62	383.85
614.77	456.40
614.92	358.10
615.08	414.27
615.23	451.72
615.38	442.36
615.54	388.53
615.69	299.59
615.84	416.62
616.00	472.79
616.15	418.96
616.30	465.77
616.46	425.98
616.61	451.72
616.76	404.91
616.92	449.38
617.07	449.38
617.22	395.55
617.37	475.13
617.53	444.70
617.68	416.62
617.83	402.57
617.99	470.45
618.14	407.25
618.29	454.06
618.45	435.34
618.60	393.21
618.75	425.98
618.90	397.89
619.06	393.21
619.21	423.64
619.36	477.47
619.51	376.83
619.67	442.36
619.82	442.36
619.97	418.96
620.12	463.43
620.28	388.53
620.43	402.57
620.58	390.87
620.73	386.19
620.89	440.02
621.04	489.17
621.19	430.66
621.34	437.68
621.49	402.57
621.65	390.87
621.80	362.78
621.95	423.64
622.10	351.08
622.25	503.22
622.41	355.76
622.56	346.40
622.71	369.80
622.86	547.69
623.01	444.70
623.16	433.00
623.32	367.46
623.47	465.77
623.62	456.40
623.77	404.91
623.92	468.11
624.07	395.55
624.23	437.68
624.38	397.89
624.53	407.25
624.68	456.40
624.83	402.57
624.98	393.21
625.13	374.49
625.29	383.85
625.44	372.15
625.59	423.64
625.74	404.91
625.89	433.00
626.04	400.23
626.19	425.98
626.34	493.85
626.49	477.47
626.65	407.25
626.80	402.57
626.95	468.11
627.10	425.98
627.25	468.11
627.40	493.85
627.55	393.21
627.70	365.12
627.85	486.83
628.00	402.57
628.15	428.32
628.30	500.87
628.45	414.27
628.60	393.21
628.76	421.30
628.91	355.76
629.06	454.06
629.21	402.57
629.36	428.32
629.51	376.83
629.66	404.91
629.81	381.51
629.96	444.70
630.11	402.57
630.26	477.47
630.41	461.09
630.56	418.96
630.71	411.93
630.86	409.59
631.01	402.57
631.16	374.49
631.31	472.79
631.46	463.43
631.61	383.85
631.76	367.46
631.91	409.59
632.06	428.32
632.21	397.89
632.36	395.55
632.51	397.89
632.66	503.22
632.81	416.62
632.96	416.62
633.10	472.79
633.25	486.83
633.40	510.24
633.55	301.93
633.70	430.66
633.85	416.62
634.00	437.68
634.15	397.89
634.30	395.55
634.45	360.44
634.60	435.34
634.75	369.80
634.90	365.12
635.05	484.49
635.19	416.62
635.34	461.09
635.49	421.30
635.64	435.34
635.79	463.43
635.94	393.21
636.09	416.62
636.24	409.59
636.39	369.80
636.53	395.55
636.68	463.43
636.83	409.59
636.98	465.77
637.13	421.30
637.28	400.23
637.43	416.62
637.57	411.93
637.72	362.78
637.87	430.66
638.02	411.93
638.17	369.80
638.32	409.59
638.46	393.21
638.61	407.25
638.76	379.17
638.91	433.00
639.06	430.66
639.20	510.24
639.35	402.57
639.50	425.98
639.65	461.09
639.80	418.96
639.94	407.25
640.09	482.15
640.24	517.26
640.39	388.53
640.54	397.89
640.68	444.70
640.83	390.87
640.98	449.38
641.13	470.45
641.27	435.34
641.42	440.02
641.57	440.02
641.72	447.04
641.86	374.49
642.01	372.15
642.16	400.23
642.31	374.49
642.45	461.09
642.60	449.38
642.75	383.85
642.90	545.34
643.04	358.10
643.19	418.96
643.34	477.47
643.48	400.23
643.63	454.06
643.78	440.02
643.93	458.74
644.07	418.96
644.22	418.96
644.37	442.36
644.51	402.57
644.66	484.49
644.81	404.91
644.95	372.15
645.10	447.04
645.25	409.59
645.39	444.70
645.54	395.55
645.69	440.02
645.83	381.51
645.98	315.97
646.13	468.11
646.27	390.87
646.42	404.91
646.57	498.53
646.71	442.36
646.86	383.85
647.00	383.85
647.15	458.74
647.30	414.27
647.44	435.34
647.59	276.18
647.74	430.66
647.88	423.64
648.03	414.27
648.17	402.57
648.32	397.89
648.47	414.27
648.61	430.66
648.76	447.04
648.90	351.08
649.05	423.64
649.20	416.62
649.34	341.72
649.49	416.62
649.63	400.23
649.78	416.62
649.92	376.83
650.07	358.10
650.21	339.38
650.36	449.38
650.51	400.23
650.65	435.34
650.80	386.19
650.94	430.66
651.09	421.30
651.23	402.57
651.38	360.44
651.52	430.66
651.67	456.40
651.81	428.32
651.96	390.87
652.10	442.36
652.25	433.00
652.39	461.09
652.54	465.77
652.68	440.02
652.83	388.53
652.97	461.09
653.12	442.36
653.26	411.93
653.41	400.23
653.55	390.87
653.70	386.19
653.84	421.30
653.99	365.12
654.13	346.40
654.27	416.62
654.42	447.04
654.56	381.51
654.71	379.17
654.85	348.74
655.00	395.55
655.14	358.10
655.29	433.00
655.43	411.93
655.57	428.32
655.72	355.76
655.86	414.27
656.01	461.09
656.15	428.32
656.30	428.32
656.44	402.57
656.58	421.30
656.73	381.51
656.87	400.23
657.01	428.32
657.16	341.72
657.30	393.21
657.45	365.12
657.59	468.11
657.73	458.74
657.88	442.36
658.02	535.98
658.16	503.22
658.31	402.57
658.45	428.32
658.60	386.19
658.74	407.25
658.88	416.62
659.03	414.27
659.17	367.46
659.31	414.27
659.46	437.68
659.60	418.96
659.74	407.25
659.89	397.89
660.03	390.87
660.17	428.32
660.32	362.78
660.46	362.78
660.60	489.17
660.74	411.93
660.89	379.17
661.03	461.09
661.17	437.68
661.32	493.85
661.46	393.21
661.60	372.15
661.74	383.85
661.89	423.64
662.03	421.30
662.17	437.68
662.31	447.04
662.46	339.38
662.60	418.96
662.74	425.98
662.88	402.57
663.03	456.40
663.17	372.15
663.31	451.72
663.45	393.21
663.60	402.57
663.74	423.64
663.88	407.25
664.02	416.62
664.17	409.59
664.31	374.49
664.45	468.11
664.59	376.83
664.73	393.21
664.88	435.34
665.02	402.57
665.16	407.25
665.30	442.36
665.44	491.51
665.59	430.66
665.73	465.77
665.87	348.74
666.01	454.06
666.15	390.87
666.29	397.89
666.44	435.34
666.58	402.57
666.72	400.23
666.86	346.40
667.00	386.19
667.14	421.30
667.28	416.62
667.43	355.76
667.57	393.21
667.71	475.13
667.85	458.74
667.99	442.36
668.13	390.87
668.27	505.56
668.41	365.12
668.56	423.64
668.70	433.00
668.84	475.13
668.98	510.24
669.12	395.55
669.26	440.02
669.40	463.43
669.54	451.72
669.68	479.81
669.82	407.25
669.96	425.98
670.10	414.27
670.25	503.22
670.39	461.09
670.53	425.98
670.67	465.77
670.81	393.21
670.95	411.93
671.09	400.23
671.23	428.32
671.37	428.32
671.51	451.72
671.65	416.62
671.79	447.04
671.93	388.53
672.07	414.27
672.21	449.38
672.35	423.64
672.49	498.53
672.63	425.98
672.77	423.64
672.91	409.59
673.05	418.96
673.19	381.51
673.33	463.43
673.47	454.06
673.61	423.64
673.75	433.00
673.89	404.91
674.03	458.74
674.17	416.62
674.31	430.66
674.45	416.62
674.59	479.81
674.73	498.53
674.87	360.44
675.01	444.70
675.15	423.64
675.29	404.91
675.43	376.83
675.56	409.59
675.70	369.80
675.84	421.30
675.98	451.72
676.12	372.15
676.26	376.83
676.40	409.59
676.54	358.10
676.68	440.02
676.82	447.04
676.96	463.43
677.10	428.32
677.23	425.98
677.37	428.32
677.51	404.91
677.65	435.34
677.79	411.93
677.93	418.96
678.07	346.40
678.21	397.89
678.34	430.66
678.48	369.80
678.62	416.62
678.76	355.76
678.90	475.13
679.04	430.66
679.18	421.30
679.31	339.38
679.45	393.21
679.59	383.85
679.73	479.81
679.87	414.27
680.00	379.17
680.14	423.64
680.28	362.78
680.42	390.87
680.56	351.08
680.70	383.85
680.83	374.49
680.97	428.32
681.11	428.32
681.25	486.83
681.39	418.96
681.52	416.62
681.66	400.23
681.80	397.89
681.94	414.27
682.07	404.91
682.21	402.57
682.35	386.19
682.49	458.74
682.62	449.38
682.76	390.87
682.90	475.13
683.04	465.77
683.17	386.19
683.31	442.36
683.45	477.47
683.59	440.02
683.72	482.15
683.86	484.49
684.00	447.04
684.13	468.11
684.27	430.66
684.41	468.11
684.55	423.64
684.68	369.80
684.82	433.00
684.96	449.38
685.09	428.32
685.23	383.85
685.37	379.17
685.50	425.98
685.64	404.91
685.78	407.25
685.91	402.57
686.05	433.00
686.19	348.74
686.32	435.34
686.46	411.93
686.60	433.00
686.73	482.15
686.87	409.59
687.01	386.19
687.14	458.74
687.28	423.64
687.42	430.66
687.55	414.27
687.69	414.27
687.82	451.72
687.96	442.36
688.10	472.79
688.23	437.68
688.37	578.11
688.50	449.38
688.64	376.83
688.78	425.98
688.91	447.04
689.05	437.68
689.18	351.08
689.32	374.49
689.46	421.30
689.59	416.62
689.73	458.74
689.86	428.32
690.00	404.91
690.13	461.09
690.27	381.51
690.41	491.51
690.54	376.83
690.68	351.08
690.81	404.91
690.95	479.81
691.08	444.70
691.22	353.42
691.35	395.55
691.49	386.19
691.62	402.57
691.76	435.34
691.89	451.72
692.03	355.76
692.16	381.51
692.30	468.11
692.43	346.40
692.57	430.66
692.70	409.59
692.84	414.27
692.97	416.62
693.11	423.64
693.24	367.46
693.38	430.66
693.51	402.57
693.65	379.17
693.78	315.97
693.92	395.55
694.05	465.77
694.19	367.46
694.32	461.09
694.45	447.04
694.59	376.83
694.72	411.93
694.86	383.85
694.99	407.25
695.13	393.21
695.26	397.89
695.39	447.04
695.53	440.02
695.66	393.21
695.80	395.55
695.93	358.10
696.07	383.85
696.20	402.57
696.33	465.77
696.47	437.68
696.60	327.68
696.73	475.13
696.87	397.89
697.00	505.56
697.14	416.62
697.27	365.12
697.40	425.98
697.54	458.74
697.67	444.70
697.80	428.32
697.94	442.36
698.07	437.68
698.21	404.91
698.34	421.30
698.47	313.63
698.61	353.42
698.74	421.30
698.87	428.32
699.01	425.98
699.14	400.23
699.27	440.02
699.40	465.77
699.54	430.66
699.67	442.36
699.80	404.91
699.94	430.66
700.07	409.59
700.20	404.91
700.34	365.12
700.47	430.66
700.60	430.66
700.73	423.64
700.87	447.04
701.00	379.17
701.13	444.70
701.26	383.85
701.40	418.96
701.53	437.68
701.66	423.64
701.79	372.15
701.93	388.53
702.06	449.38
702.19	416.62
702.32	409.59
702.46	393.21
702.59	411.93
702.72	327.68
702.85	395.55
702.99	383.85
703.12	344.06
703.25	355.76
703.38	367.46
703.51	461.09
703.65	376.83
703.78	423.64
703.91	440.02
704.04	404.91
704.17	395.55
704.31	430.66
704.44	423.64
704.57	416.62
704.70	451.72
704.83	379.17
704.96	458.74
705.10	451.72
705.23	374.49
>>>>>End Processed Spectral Data<<<<<
