SpectraSuite Data File
++++++++++++++++++++++++++++++++++++
Date: Fri Oct 25 12:11:07 EDT 2013
User: price-jones
Dark Spectrum Present: No
Reference Spectrum Present: No
Number of Sampled Component Spectra: 1
Spectrometers: USB2+H05261
Integration Time (usec): 100000 (USB2+H05261)
Spectra Averaged: 1 (USB2+H05261)
Boxcar Smoothing: 0 (USB2+H05261)
Correct for Electrical Dark: No (USB2+H05261)
Strobe/Lamp Enabled: No (USB2+H05261)
Correct for Detector Non-linearity: No (USB2+H05261)
Correct for Stray Light: No (USB2+H05261)
Number of Pixels in Processed Spectrum: 2048
>>>>>Begin Processed Spectral Data<<<<<
365.73	344.06
365.92	344.06
366.12	344.06
366.32	304.27
366.52	187.24
366.72	283.20
366.91	294.91
367.11	208.31
367.31	203.63
367.51	250.44
367.70	255.12
367.90	250.44
368.10	166.18
368.30	182.56
368.49	287.89
368.69	229.37
368.89	273.84
369.09	215.33
369.28	262.14
369.48	299.59
369.68	212.99
369.87	313.63
370.07	236.39
370.27	280.86
370.47	290.23
370.66	395.55
370.86	362.78
371.06	386.19
371.25	346.40
371.45	428.32
371.65	414.27
371.84	421.30
372.04	386.19
372.24	376.83
372.44	418.96
372.63	388.53
372.83	341.72
373.03	486.83
373.22	435.34
373.42	409.59
373.62	374.49
373.81	456.40
374.01	449.38
374.21	404.91
374.40	360.44
374.60	379.17
374.79	458.74
374.99	388.53
375.19	428.32
375.38	435.34
375.58	414.27
375.78	390.87
375.97	416.62
376.17	395.55
376.37	414.27
376.56	437.68
376.76	376.83
376.95	414.27
377.15	402.57
377.35	386.19
377.54	339.38
377.74	393.21
377.93	355.76
378.13	374.49
378.33	451.72
378.52	430.66
378.72	421.30
378.91	435.34
379.11	334.70
379.31	414.27
379.50	372.15
379.70	411.93
379.89	461.09
380.09	430.66
380.28	411.93
380.48	383.85
380.68	475.13
380.87	372.15
381.07	388.53
381.26	418.96
381.46	374.49
381.65	411.93
381.85	353.42
382.04	379.17
382.24	379.17
382.43	402.57
382.63	440.02
382.83	463.43
383.02	418.96
383.22	425.98
383.41	381.51
383.61	421.30
383.80	444.70
384.00	418.96
384.19	414.27
384.39	395.55
384.58	442.36
384.78	404.91
384.97	465.77
385.17	479.81
385.36	428.32
385.56	428.32
385.75	414.27
385.95	400.23
386.14	421.30
386.34	409.59
386.53	402.57
386.72	447.04
386.92	479.81
387.11	435.34
387.31	440.02
387.50	341.72
387.70	395.55
387.89	423.64
388.09	395.55
388.28	372.15
388.48	418.96
388.67	512.58
388.86	365.12
389.06	388.53
389.25	423.64
389.45	407.25
389.64	454.06
389.84	470.45
390.03	423.64
390.22	430.66
390.42	442.36
390.61	393.21
390.81	386.19
391.00	395.55
391.19	458.74
391.39	411.93
391.58	421.30
391.78	430.66
391.97	440.02
392.16	454.06
392.36	433.00
392.55	388.53
392.75	423.64
392.94	435.34
393.13	400.23
393.33	388.53
393.52	318.31
393.71	428.32
393.91	465.77
394.10	418.96
394.29	334.70
394.49	379.17
394.68	421.30
394.88	468.11
395.07	393.21
395.26	435.34
395.46	386.19
395.65	376.83
395.84	365.12
396.04	472.79
396.23	407.25
396.42	297.25
396.62	402.57
396.81	369.80
397.00	341.72
397.19	393.21
397.39	346.40
397.58	477.47
397.77	381.51
397.97	351.08
398.16	346.40
398.35	337.04
398.55	402.57
398.74	437.68
398.93	475.13
399.12	388.53
399.32	437.68
399.51	355.76
399.70	444.70
399.90	372.15
400.09	381.51
400.28	437.68
400.47	404.91
400.67	402.57
400.86	409.59
401.05	423.64
401.24	433.00
401.44	414.27
401.63	456.40
401.82	360.44
402.01	393.21
402.21	442.36
402.40	440.02
402.59	390.87
402.78	423.64
402.97	388.53
403.17	362.78
403.36	376.83
403.55	433.00
403.74	437.68
403.93	395.55
404.13	360.44
404.32	414.27
404.51	421.30
404.70	479.81
404.89	386.19
405.09	472.79
405.28	372.15
405.47	416.62
405.66	418.96
405.85	421.30
406.05	397.89
406.24	374.49
406.43	386.19
406.62	458.74
406.81	433.00
407.00	414.27
407.20	351.08
407.39	358.10
407.58	365.12
407.77	428.32
407.96	388.53
408.15	440.02
408.34	440.02
408.54	475.13
408.73	430.66
408.92	416.62
409.11	400.23
409.30	468.11
409.49	358.10
409.68	444.70
409.87	407.25
410.07	423.64
410.26	411.93
410.45	369.80
410.64	423.64
410.83	451.72
411.02	407.25
411.21	353.42
411.40	428.32
411.59	440.02
411.78	360.44
411.98	472.79
412.17	433.00
412.36	454.06
412.55	425.98
412.74	435.34
412.93	507.90
413.12	348.74
413.31	395.55
413.50	482.15
413.69	353.42
413.88	421.30
414.07	358.10
414.26	376.83
414.45	344.06
414.64	409.59
414.83	367.46
415.02	351.08
415.22	374.49
415.41	376.83
415.60	440.02
415.79	358.10
415.98	411.93
416.17	440.02
416.36	421.30
416.55	409.59
416.74	360.44
416.93	442.36
417.12	463.43
417.31	299.59
417.50	418.96
417.69	461.09
417.88	475.13
418.07	454.06
418.26	433.00
418.45	418.96
418.64	468.11
418.83	393.21
419.02	395.55
419.21	374.49
419.39	367.46
419.58	479.81
419.77	379.17
419.96	414.27
420.15	381.51
420.34	379.17
420.53	414.27
420.72	381.51
420.91	344.06
421.10	358.10
421.29	376.83
421.48	341.72
421.67	428.32
421.86	421.30
422.05	440.02
422.24	416.62
422.43	395.55
422.61	390.87
422.80	416.62
422.99	442.36
423.18	388.53
423.37	447.04
423.56	327.68
423.75	451.72
423.94	411.93
424.13	397.89
424.32	437.68
424.50	437.68
424.69	440.02
424.88	435.34
425.07	477.47
425.26	428.32
425.45	500.87
425.64	416.62
425.83	470.45
426.01	425.98
426.20	435.34
426.39	407.25
426.58	376.83
426.77	395.55
426.96	393.21
427.15	409.59
427.33	383.85
427.52	379.17
427.71	376.83
427.90	423.64
428.09	376.83
428.28	454.06
428.46	418.96
428.65	437.68
428.84	421.30
429.03	451.72
429.22	421.30
429.40	360.44
429.59	414.27
429.78	477.47
429.97	404.91
430.16	418.96
430.34	337.04
430.53	425.98
430.72	402.57
430.91	374.49
431.10	400.23
431.28	442.36
431.47	425.98
431.66	444.70
431.85	493.85
432.03	433.00
432.22	454.06
432.41	400.23
432.60	400.23
432.79	313.63
432.97	440.02
433.16	435.34
433.35	475.13
433.54	425.98
433.72	376.83
433.91	428.32
434.10	390.87
434.28	421.30
434.47	332.36
434.66	400.23
434.85	362.78
435.03	433.00
435.22	468.11
435.41	447.04
435.59	433.00
435.78	404.91
435.97	358.10
436.16	409.59
436.34	404.91
436.53	447.04
436.72	414.27
436.90	451.72
437.09	442.36
437.28	397.89
437.46	442.36
437.65	414.27
437.84	397.89
438.02	421.30
438.21	402.57
438.40	379.17
438.58	397.89
438.77	496.19
438.96	402.57
439.14	341.72
439.33	411.93
439.52	397.89
439.70	449.38
439.89	461.09
440.08	430.66
440.26	435.34
440.45	461.09
440.63	381.51
440.82	477.47
441.01	397.89
441.19	433.00
441.38	484.49
441.57	463.43
441.75	477.47
441.94	423.64
442.12	388.53
442.31	313.63
442.50	341.72
442.68	421.30
442.87	346.40
443.05	386.19
443.24	421.30
443.43	334.70
443.61	425.98
443.80	421.30
443.98	402.57
444.17	423.64
444.35	411.93
444.54	463.43
444.73	428.32
444.91	486.83
445.10	381.51
445.28	421.30
445.47	381.51
445.65	425.98
445.84	433.00
446.02	402.57
446.21	458.74
446.39	435.34
446.58	416.62
446.77	390.87
446.95	381.51
447.14	372.15
447.32	479.81
447.51	433.00
447.69	390.87
447.88	468.11
448.06	435.34
448.25	409.59
448.43	409.59
448.62	386.19
448.80	423.64
448.99	386.19
449.17	395.55
449.36	393.21
449.54	449.38
449.73	395.55
449.91	470.45
450.10	376.83
450.28	482.15
450.46	463.43
450.65	456.40
450.83	440.02
451.02	444.70
451.20	491.51
451.39	411.93
451.57	461.09
451.76	454.06
451.94	440.02
452.13	479.81
452.31	461.09
452.49	411.93
452.68	365.12
452.86	411.93
453.05	489.17
453.23	428.32
453.42	423.64
453.60	395.55
453.78	421.30
453.97	437.68
454.15	383.85
454.34	402.57
454.52	386.19
454.70	498.53
454.89	444.70
455.07	461.09
455.26	355.76
455.44	409.59
455.62	339.38
455.81	440.02
455.99	400.23
456.17	402.57
456.36	365.12
456.54	416.62
456.73	489.17
456.91	395.55
457.09	395.55
457.28	395.55
457.46	444.70
457.64	447.04
457.83	397.89
458.01	442.36
458.19	355.76
458.38	416.62
458.56	484.49
458.74	404.91
458.93	411.93
459.11	299.59
459.29	372.15
459.48	421.30
459.66	491.51
459.84	395.55
460.03	503.22
460.21	442.36
460.39	444.70
460.57	468.11
460.76	435.34
460.94	407.25
461.12	400.23
461.31	447.04
461.49	386.19
461.67	341.72
461.85	435.34
462.04	304.27
462.22	833.23
462.40	395.55
462.59	451.72
462.77	456.40
462.95	409.59
463.13	468.11
463.32	365.12
463.50	437.68
463.68	444.70
463.86	465.77
464.05	395.55
464.23	461.09
464.41	456.40
464.59	379.17
464.78	360.44
464.96	433.00
465.14	353.42
465.32	346.40
465.50	346.40
465.69	369.80
465.87	409.59
466.05	512.58
466.23	278.52
466.41	355.76
466.60	355.76
466.78	416.62
466.96	395.55
467.14	348.74
467.32	463.43
467.51	449.38
467.69	383.85
467.87	369.80
468.05	376.83
468.23	458.74
468.41	463.43
468.60	421.30
468.78	365.12
468.96	346.40
469.14	418.96
469.32	390.87
469.50	493.85
469.69	423.64
469.87	449.38
470.05	404.91
470.23	447.04
470.41	430.66
470.59	416.62
470.77	383.85
470.95	374.49
471.14	482.15
471.32	498.53
471.50	479.81
471.68	454.06
471.86	407.25
472.04	418.96
472.22	430.66
472.40	447.04
472.58	423.64
472.77	369.80
472.95	461.09
473.13	447.04
473.31	414.27
473.49	383.85
473.67	402.57
473.85	479.81
474.03	451.72
474.21	465.77
474.39	449.38
474.57	407.25
474.75	409.59
474.93	423.64
475.12	472.79
475.30	409.59
475.48	395.55
475.66	451.72
475.84	341.72
476.02	372.15
476.20	372.15
476.38	397.89
476.56	449.38
476.74	470.45
476.92	365.12
477.10	414.27
477.28	423.64
477.46	386.19
477.64	414.27
477.82	395.55
478.00	428.32
478.18	425.98
478.36	402.57
478.54	491.51
478.72	390.87
478.90	433.00
479.08	449.38
479.26	444.70
479.44	416.62
479.62	456.40
479.80	379.17
479.98	390.87
480.16	418.96
480.34	353.42
480.52	390.87
480.70	402.57
480.88	381.51
481.06	353.42
481.24	400.23
481.41	369.80
481.59	449.38
481.77	449.38
481.95	365.12
482.13	402.57
482.31	449.38
482.49	433.00
482.67	386.19
482.85	306.61
483.03	416.62
483.21	458.74
483.39	395.55
483.57	421.30
483.74	421.30
483.92	442.36
484.10	416.62
484.28	456.40
484.46	500.87
484.64	433.00
484.82	418.96
485.00	407.25
485.18	454.06
485.35	386.19
485.53	430.66
485.71	463.43
485.89	348.74
486.07	386.19
486.25	425.98
486.43	376.83
486.61	367.46
486.78	428.32
486.96	444.70
487.14	454.06
487.32	372.15
487.50	442.36
487.68	430.66
487.85	409.59
488.03	404.91
488.21	458.74
488.39	367.46
488.57	433.00
488.75	423.64
488.92	507.90
489.10	463.43
489.28	449.38
489.46	386.19
489.64	400.23
489.81	393.21
489.99	402.57
490.17	395.55
490.35	369.80
490.53	428.32
490.70	376.83
490.88	414.27
491.06	409.59
491.24	425.98
491.41	505.56
491.59	404.91
491.77	367.46
491.95	428.32
492.13	496.19
492.30	442.36
492.48	341.72
492.66	367.46
492.84	383.85
493.01	425.98
493.19	404.91
493.37	500.87
493.54	393.21
493.72	402.57
493.90	440.02
494.08	428.32
494.25	411.93
494.43	407.25
494.61	397.89
494.79	451.72
494.96	447.04
495.14	472.79
495.32	376.83
495.49	404.91
495.67	442.36
495.85	372.15
496.02	351.08
496.20	418.96
496.38	444.70
496.55	395.55
496.73	400.23
496.91	379.17
497.09	418.96
497.26	351.08
497.44	411.93
497.62	421.30
497.79	433.00
497.97	372.15
498.14	449.38
498.32	379.17
498.50	440.02
498.67	397.89
498.85	463.43
499.03	346.40
499.20	395.55
499.38	388.53
499.56	386.19
499.73	500.87
499.91	416.62
500.08	423.64
500.26	430.66
500.44	414.27
500.61	416.62
500.79	400.23
500.97	430.66
501.14	435.34
501.32	393.21
501.49	404.91
501.67	425.98
501.84	402.57
502.02	372.15
502.20	440.02
502.37	418.96
502.55	414.27
502.72	348.74
502.90	482.15
503.07	437.68
503.25	505.56
503.43	447.04
503.60	423.64
503.78	442.36
503.95	407.25
504.13	383.85
504.30	461.09
504.48	416.62
504.65	475.13
504.83	365.12
505.01	390.87
505.18	442.36
505.36	430.66
505.53	425.98
505.71	374.49
505.88	444.70
506.06	372.15
506.23	435.34
506.41	397.89
506.58	435.34
506.76	447.04
506.93	411.93
507.11	407.25
507.28	430.66
507.46	379.17
507.63	414.27
507.81	449.38
507.98	409.59
508.16	472.79
508.33	393.21
508.50	390.87
508.68	435.34
508.85	421.30
509.03	376.83
509.20	397.89
509.38	400.23
509.55	447.04
509.73	461.09
509.90	395.55
510.08	416.62
510.25	397.89
510.42	449.38
510.60	423.64
510.77	418.96
510.95	437.68
511.12	456.40
511.30	477.47
511.47	421.30
511.64	423.64
511.82	358.10
511.99	425.98
512.17	463.43
512.34	451.72
512.51	416.62
512.69	428.32
512.86	421.30
513.04	407.25
513.21	444.70
513.38	411.93
513.56	402.57
513.73	444.70
513.90	409.59
514.08	458.74
514.25	514.92
514.43	440.02
514.60	418.96
514.77	379.17
514.95	470.45
515.12	407.25
515.29	489.17
515.47	383.85
515.64	381.51
515.81	365.12
515.99	444.70
516.16	369.80
516.33	418.96
516.51	425.98
516.68	372.15
516.85	381.51
517.03	388.53
517.20	414.27
517.37	444.70
517.54	416.62
517.72	435.34
517.89	428.32
518.06	404.91
518.24	477.47
518.41	386.19
518.58	379.17
518.75	376.83
518.93	440.02
519.10	454.06
519.27	372.15
519.45	287.89
519.62	423.64
519.79	440.02
519.96	402.57
520.14	461.09
520.31	447.04
520.48	367.46
520.65	407.25
520.83	421.30
521.00	519.60
521.17	475.13
521.34	433.00
521.52	416.62
521.69	456.40
521.86	395.55
522.03	395.55
522.20	437.68
522.38	416.62
522.55	428.32
522.72	430.66
522.89	404.91
523.07	454.06
523.24	472.79
523.41	454.06
523.58	500.87
523.75	416.62
523.92	409.59
524.10	468.11
524.27	407.25
524.44	421.30
524.61	440.02
524.78	395.55
524.96	416.62
525.13	411.93
525.30	428.32
525.47	477.47
525.64	337.04
525.81	369.80
525.98	388.53
526.16	390.87
526.33	433.00
526.50	418.96
526.67	442.36
526.84	376.83
527.01	390.87
527.18	463.43
527.36	374.49
527.53	444.70
527.70	454.06
527.87	409.59
528.04	468.11
528.21	414.27
528.38	423.64
528.55	491.51
528.72	409.59
528.89	503.22
529.07	351.08
529.24	390.87
529.41	456.40
529.58	440.02
529.75	418.96
529.92	451.72
530.09	416.62
530.26	402.57
530.43	416.62
530.60	425.98
530.77	397.89
530.94	421.30
531.11	425.98
531.28	425.98
531.46	360.44
531.63	470.45
531.80	395.55
531.97	393.21
532.14	444.70
532.31	393.21
532.48	418.96
532.65	435.34
532.82	454.06
532.99	468.11
533.16	365.12
533.33	498.53
533.50	407.25
533.67	428.32
533.84	451.72
534.01	395.55
534.18	409.59
534.35	409.59
534.52	444.70
534.69	402.57
534.86	456.40
535.03	411.93
535.20	454.06
535.37	397.89
535.54	454.06
535.71	440.02
535.88	507.90
536.05	395.55
536.22	428.32
536.38	486.83
536.55	304.27
536.72	437.68
536.89	393.21
537.06	414.27
537.23	393.21
537.40	386.19
537.57	454.06
537.74	493.85
537.91	383.85
538.08	416.62
538.25	440.02
538.42	442.36
538.59	421.30
538.75	393.21
538.92	393.21
539.09	416.62
539.26	367.46
539.43	423.64
539.60	390.87
539.77	437.68
539.94	456.40
540.11	402.57
540.28	482.15
540.44	451.72
540.61	397.89
540.78	400.23
540.95	414.27
541.12	414.27
541.29	379.17
541.46	437.68
541.62	381.51
541.79	400.23
541.96	407.25
542.13	472.79
542.30	416.62
542.47	500.87
542.63	388.53
542.80	414.27
542.97	463.43
543.14	421.30
543.31	400.23
543.48	449.38
543.64	407.25
543.81	425.98
543.98	400.23
544.15	353.42
544.32	444.70
544.48	404.91
544.65	376.83
544.82	362.78
544.99	416.62
545.16	433.00
545.32	433.00
545.49	449.38
545.66	404.91
545.83	339.38
546.00	376.83
546.16	379.17
546.33	414.27
546.50	355.76
546.67	393.21
546.83	418.96
547.00	465.77
547.17	362.78
547.34	416.62
547.50	395.55
547.67	404.91
547.84	400.23
548.00	451.72
548.17	493.85
548.34	421.30
548.51	409.59
548.67	379.17
548.84	414.27
549.01	442.36
549.18	423.64
549.34	409.59
549.51	374.49
549.68	374.49
549.84	416.62
550.01	393.21
550.18	447.04
550.34	547.69
550.51	395.55
550.68	482.15
550.84	463.43
551.01	393.21
551.18	433.00
551.34	491.51
551.51	388.53
551.68	400.23
551.84	475.13
552.01	374.49
552.18	437.68
552.34	437.68
552.51	334.70
552.68	409.59
552.84	425.98
553.01	477.47
553.18	465.77
553.34	461.09
553.51	430.66
553.67	447.04
553.84	418.96
554.01	454.06
554.17	416.62
554.34	390.87
554.51	500.87
554.67	435.34
554.84	482.15
555.00	411.93
555.17	402.57
555.33	430.66
555.50	433.00
555.67	472.79
555.83	423.64
556.00	411.93
556.16	535.98
556.33	472.79
556.50	393.21
556.66	397.89
556.83	355.76
556.99	404.91
557.16	348.74
557.32	409.59
557.49	404.91
557.65	416.62
557.82	423.64
557.98	374.49
558.15	458.74
558.32	421.30
558.48	456.40
558.65	402.57
558.81	454.06
558.98	440.02
559.14	374.49
559.31	397.89
559.47	407.25
559.64	451.72
559.80	461.09
559.97	383.85
560.13	418.96
560.30	425.98
560.46	339.38
560.63	491.51
560.79	491.51
560.96	416.62
561.12	428.32
561.29	367.46
561.45	388.53
561.61	411.93
561.78	475.13
561.94	388.53
562.11	355.76
562.27	449.38
562.44	374.49
562.60	393.21
562.77	362.78
562.93	528.96
563.10	411.93
563.26	409.59
563.42	425.98
563.59	456.40
563.75	390.87
563.92	423.64
564.08	383.85
564.24	456.40
564.41	374.49
564.57	421.30
564.74	423.64
564.90	379.17
565.07	425.98
565.23	421.30
565.39	362.78
565.56	404.91
565.72	454.06
565.88	379.17
566.05	395.55
566.21	355.76
566.38	451.72
566.54	381.51
566.70	421.30
566.87	388.53
567.03	409.59
567.19	402.57
567.36	425.98
567.52	430.66
567.68	393.21
567.85	454.06
568.01	430.66
568.17	444.70
568.34	435.34
568.50	435.34
568.66	447.04
568.83	470.45
568.99	407.25
569.15	447.04
569.32	444.70
569.48	456.40
569.64	393.21
569.81	355.76
569.97	402.57
570.13	477.47
570.30	411.93
570.46	388.53
570.62	451.72
570.78	500.87
570.95	379.17
571.11	517.26
571.27	433.00
571.43	400.23
571.60	411.93
571.76	409.59
571.92	468.11
572.09	376.83
572.25	365.12
572.41	395.55
572.57	407.25
572.74	454.06
572.90	491.51
573.06	348.74
573.22	470.45
573.38	472.79
573.55	442.36
573.71	477.47
573.87	440.02
574.03	425.98
574.20	407.25
574.36	521.94
574.52	421.30
574.68	437.68
574.84	402.57
575.01	421.30
575.17	454.06
575.33	383.85
575.49	337.04
575.65	367.46
575.82	407.25
575.98	425.98
576.14	451.72
576.30	428.32
576.46	351.08
576.62	442.36
576.79	400.23
576.95	388.53
577.11	397.89
577.27	367.46
577.43	456.40
577.59	435.34
577.75	423.64
577.92	430.66
578.08	433.00
578.24	365.12
578.40	421.30
578.56	414.27
578.72	388.53
578.88	425.98
579.04	402.57
579.21	437.68
579.37	374.49
579.53	440.02
579.69	395.55
579.85	414.27
580.01	458.74
580.17	451.72
580.33	379.17
580.49	400.23
580.65	486.83
580.82	468.11
580.98	440.02
581.14	461.09
581.30	411.93
581.46	437.68
581.62	404.91
581.78	369.80
581.94	409.59
582.10	395.55
582.26	418.96
582.42	411.93
582.58	465.77
582.74	477.47
582.90	416.62
583.06	393.21
583.22	409.59
583.38	416.62
583.54	414.27
583.70	440.02
583.86	404.91
584.02	430.66
584.18	456.40
584.34	437.68
584.50	397.89
584.66	421.30
584.82	423.64
584.98	362.78
585.14	418.96
585.30	519.60
585.46	430.66
585.62	402.57
585.78	465.77
585.94	425.98
586.10	353.42
586.26	369.80
586.42	463.43
586.58	402.57
586.74	400.23
586.90	451.72
587.06	444.70
587.22	475.13
587.38	409.59
587.54	376.83
587.70	493.85
587.86	437.68
588.02	381.51
588.18	430.66
588.34	423.64
588.49	327.68
588.65	442.36
588.81	451.72
588.97	407.25
589.13	362.78
589.29	500.87
589.45	475.13
589.61	472.79
589.77	454.06
589.93	383.85
590.08	454.06
590.24	423.64
590.40	486.83
590.56	470.45
590.72	397.89
590.88	346.40
591.04	365.12
591.20	407.25
591.35	496.19
591.51	388.53
591.67	383.85
591.83	437.68
591.99	454.06
592.15	381.51
592.31	339.38
592.46	421.30
592.62	472.79
592.78	423.64
592.94	322.99
593.10	414.27
593.26	397.89
593.41	442.36
593.57	402.57
593.73	376.83
593.89	353.42
594.05	381.51
594.20	418.96
594.36	479.81
594.52	475.13
594.68	388.53
594.84	402.57
594.99	507.90
595.15	500.87
595.31	418.96
595.47	468.11
595.62	379.17
595.78	404.91
595.94	423.64
596.10	425.98
596.25	407.25
596.41	411.93
596.57	435.34
596.73	418.96
596.88	416.62
597.04	458.74
597.20	472.79
597.36	425.98
597.51	386.19
597.67	470.45
597.83	470.45
597.99	404.91
598.14	449.38
598.30	458.74
598.46	447.04
598.61	451.72
598.77	383.85
598.93	463.43
599.09	414.27
599.24	475.13
599.40	465.77
599.56	440.02
599.71	465.77
599.87	360.44
600.03	470.45
600.18	447.04
600.34	393.21
600.50	402.57
600.65	344.06
600.81	409.59
600.97	404.91
601.12	472.79
601.28	451.72
601.44	400.23
601.59	383.85
601.75	411.93
601.91	386.19
602.06	435.34
602.22	484.49
602.37	416.62
602.53	430.66
602.69	390.87
602.84	365.12
603.00	433.00
603.16	418.96
603.31	407.25
603.47	372.15
603.62	376.83
603.78	428.32
603.94	404.91
604.09	386.19
604.25	458.74
604.40	437.68
604.56	470.45
604.71	477.47
604.87	386.19
605.03	416.62
605.18	407.25
605.34	433.00
605.49	472.79
605.65	433.00
605.80	409.59
605.96	477.47
606.12	418.96
606.27	449.38
606.43	442.36
606.58	435.34
606.74	430.66
606.89	395.55
607.05	381.51
607.20	444.70
607.36	407.25
607.51	369.80
607.67	435.34
607.82	402.57
607.98	440.02
608.13	440.02
608.29	456.40
608.44	383.85
608.60	465.77
608.75	486.83
608.91	416.62
609.06	465.77
609.22	458.74
609.37	400.23
609.53	348.74
609.68	402.57
609.84	407.25
609.99	393.21
610.15	442.36
610.30	409.59
610.46	435.34
610.61	395.55
610.76	390.87
610.92	463.43
611.07	407.25
611.23	465.77
611.38	470.45
611.54	451.72
611.69	407.25
611.84	332.36
612.00	388.53
612.15	428.32
612.31	409.59
612.46	416.62
612.62	407.25
612.77	423.64
612.92	444.70
613.08	475.13
613.23	454.06
613.39	411.93
613.54	463.43
613.69	381.51
613.85	400.23
614.00	409.59
614.15	414.27
614.31	395.55
614.46	400.23
614.62	365.12
614.77	416.62
614.92	430.66
615.08	430.66
615.23	393.21
615.38	451.72
615.54	344.06
615.69	358.10
615.84	442.36
616.00	458.74
616.15	402.57
616.30	440.02
616.46	430.66
616.61	440.02
616.76	414.27
616.92	397.89
617.07	421.30
617.22	395.55
617.37	435.34
617.53	437.68
617.68	430.66
617.83	425.98
617.99	486.83
618.14	428.32
618.29	447.04
618.45	475.13
618.60	435.34
618.75	395.55
618.90	393.21
619.06	414.27
619.21	484.49
619.36	451.72
619.51	402.57
619.67	517.26
619.82	344.06
619.97	465.77
620.12	425.98
620.28	411.93
620.43	395.55
620.58	402.57
620.73	393.21
620.89	423.64
621.04	444.70
621.19	451.72
621.34	402.57
621.49	390.87
621.65	397.89
621.80	388.53
621.95	379.17
622.10	360.44
622.25	482.15
622.41	404.91
622.56	470.45
622.71	472.79
622.86	411.93
623.01	402.57
623.16	416.62
623.32	447.04
623.47	468.11
623.62	374.49
623.77	379.17
623.92	442.36
624.07	425.98
624.23	433.00
624.38	365.12
624.53	365.12
624.68	447.04
624.83	454.06
624.98	451.72
625.13	510.24
625.29	393.21
625.44	442.36
625.59	440.02
625.74	386.19
625.89	355.76
626.04	407.25
626.19	393.21
626.34	397.89
626.49	330.02
626.65	416.62
626.80	369.80
626.95	409.59
627.10	465.77
627.25	397.89
627.40	383.85
627.55	397.89
627.70	458.74
627.85	404.91
628.00	425.98
628.15	458.74
628.30	400.23
628.45	402.57
628.60	337.04
628.76	386.19
628.91	376.83
629.06	348.74
629.21	421.30
629.36	428.32
629.51	486.83
629.66	428.32
629.81	411.93
629.96	447.04
630.11	456.40
630.26	423.64
630.41	372.15
630.56	402.57
630.71	358.10
630.86	353.42
631.01	344.06
631.16	390.87
631.31	468.11
631.46	404.91
631.61	379.17
631.76	498.53
631.91	400.23
632.06	463.43
632.21	400.23
632.36	367.46
632.51	379.17
632.66	325.33
632.81	421.30
632.96	447.04
633.10	477.47
633.25	433.00
633.40	425.98
633.55	402.57
633.70	425.98
633.85	395.55
634.00	425.98
634.15	386.19
634.30	440.02
634.45	421.30
634.60	461.09
634.75	341.72
634.90	348.74
635.05	470.45
635.19	454.06
635.34	360.44
635.49	482.15
635.64	463.43
635.79	433.00
635.94	437.68
636.09	425.98
636.24	444.70
636.39	468.11
636.53	411.93
636.68	400.23
636.83	402.57
636.98	402.57
637.13	397.89
637.28	451.72
637.43	435.34
637.57	409.59
637.72	491.51
637.87	416.62
638.02	397.89
638.17	332.36
638.32	425.98
638.46	433.00
638.61	437.68
638.76	428.32
638.91	379.17
639.06	430.66
639.20	440.02
639.35	454.06
639.50	456.40
639.65	411.93
639.80	428.32
639.94	388.53
640.09	484.49
640.24	458.74
640.39	475.13
640.54	393.21
640.68	428.32
640.83	444.70
640.98	421.30
641.13	440.02
641.27	383.85
641.42	381.51
641.57	395.55
641.72	477.47
641.86	393.21
642.01	421.30
642.16	503.22
642.31	470.45
642.45	402.57
642.60	337.04
642.75	402.57
642.90	435.34
643.04	407.25
643.19	308.95
643.34	330.02
643.48	514.92
643.63	400.23
643.78	369.80
643.93	440.02
644.07	454.06
644.22	414.27
644.37	365.12
644.51	435.34
644.66	435.34
644.81	386.19
644.95	458.74
645.10	379.17
645.25	369.80
645.39	416.62
645.54	404.91
645.69	465.77
645.83	383.85
645.98	423.64
646.13	400.23
646.27	461.09
646.42	409.59
646.57	440.02
646.71	379.17
646.86	325.33
647.00	442.36
647.15	496.19
647.30	407.25
647.44	379.17
647.59	425.98
647.74	388.53
647.88	423.64
648.03	353.42
648.17	458.74
648.32	386.19
648.47	435.34
648.61	416.62
648.76	402.57
648.90	428.32
649.05	472.79
649.20	339.38
649.34	454.06
649.49	496.19
649.63	386.19
649.78	468.11
649.92	344.06
650.07	388.53
650.21	472.79
650.36	393.21
650.51	395.55
650.65	454.06
650.80	407.25
650.94	442.36
651.09	442.36
651.23	407.25
651.38	393.21
651.52	442.36
651.67	397.89
651.81	496.19
651.96	442.36
652.10	482.15
652.25	362.78
652.39	449.38
652.54	433.00
652.68	365.12
652.83	393.21
652.97	407.25
653.12	362.78
653.26	374.49
653.41	442.36
653.55	381.51
653.70	440.02
653.84	421.30
653.99	425.98
654.13	454.06
654.27	433.00
654.42	388.53
654.56	411.93
654.71	463.43
654.85	433.00
655.00	395.55
655.14	418.96
655.29	402.57
655.43	365.12
655.57	430.66
655.72	456.40
655.86	416.62
656.01	395.55
656.15	447.04
656.30	489.17
656.44	475.13
656.58	425.98
656.73	416.62
656.87	393.21
657.01	428.32
657.16	461.09
657.30	421.30
657.45	454.06
657.59	449.38
657.73	386.19
657.88	472.79
658.02	421.30
658.16	454.06
658.31	395.55
658.45	362.78
658.60	355.76
658.74	393.21
658.88	362.78
659.03	390.87
659.17	379.17
659.31	360.44
659.46	369.80
659.60	414.27
659.74	402.57
659.89	456.40
660.03	451.72
660.17	449.38
660.32	454.06
660.46	428.32
660.60	482.15
660.74	425.98
660.89	449.38
661.03	367.46
661.17	477.47
661.32	379.17
661.46	433.00
661.60	407.25
661.74	435.34
661.89	456.40
662.03	423.64
662.17	313.63
662.31	411.93
662.46	341.72
662.60	428.32
662.74	425.98
662.88	435.34
663.03	425.98
663.17	400.23
663.31	404.91
663.45	400.23
663.60	463.43
663.74	376.83
663.88	440.02
664.02	390.87
664.17	393.21
664.31	418.96
664.45	383.85
664.59	458.74
664.73	411.93
664.88	479.81
665.02	367.46
665.16	390.87
665.30	435.34
665.44	388.53
665.59	526.62
665.73	411.93
665.87	367.46
666.01	423.64
666.15	447.04
666.29	454.06
666.44	442.36
666.58	498.53
666.72	421.30
666.86	444.70
667.00	437.68
667.14	411.93
667.28	442.36
667.43	510.24
667.57	393.21
667.71	440.02
667.85	458.74
667.99	374.49
668.13	484.49
668.27	428.32
668.41	430.66
668.56	447.04
668.70	435.34
668.84	423.64
668.98	456.40
669.12	381.51
669.26	365.12
669.40	451.72
669.54	423.64
669.68	442.36
669.82	407.25
669.96	381.51
670.10	369.80
670.25	400.23
670.39	449.38
670.53	362.78
670.67	482.15
670.81	416.62
670.95	372.15
671.09	365.12
671.23	402.57
671.37	465.77
671.51	374.49
671.65	425.98
671.79	381.51
671.93	404.91
672.07	423.64
672.21	433.00
672.35	421.30
672.49	362.78
672.63	379.17
672.77	404.91
672.91	388.53
673.05	395.55
673.19	451.72
673.33	390.87
673.47	395.55
673.61	365.12
673.75	383.85
673.89	409.59
674.03	442.36
674.17	404.91
674.31	423.64
674.45	360.44
674.59	407.25
674.73	435.34
674.87	449.38
675.01	421.30
675.15	407.25
675.29	409.59
675.43	470.45
675.56	444.70
675.70	433.00
675.84	416.62
675.98	421.30
676.12	346.40
676.26	423.64
676.40	374.49
676.54	409.59
676.68	397.89
676.82	489.17
676.96	404.91
677.10	437.68
677.23	383.85
677.37	376.83
677.51	397.89
677.65	491.51
677.79	444.70
677.93	425.98
678.07	505.56
678.21	367.46
678.34	381.51
678.48	421.30
678.62	395.55
678.76	409.59
678.90	297.25
679.04	383.85
679.18	479.81
679.31	374.49
679.45	358.10
679.59	468.11
679.73	414.27
679.87	507.90
680.00	372.15
680.14	451.72
680.28	418.96
680.42	421.30
680.56	362.78
680.70	425.98
680.83	390.87
680.97	440.02
681.11	407.25
681.25	440.02
681.39	400.23
681.52	355.76
681.66	440.02
681.80	374.49
681.94	376.83
682.07	367.46
682.21	465.77
682.35	397.89
682.49	374.49
682.62	437.68
682.76	386.19
682.90	491.51
683.04	463.43
683.17	449.38
683.31	386.19
683.45	423.64
683.59	428.32
683.72	477.47
683.86	517.26
684.00	353.42
684.13	451.72
684.27	411.93
684.41	365.12
684.55	379.17
684.68	379.17
684.82	372.15
684.96	449.38
685.09	418.96
685.23	376.83
685.37	416.62
685.50	435.34
685.64	477.47
685.78	423.64
685.91	418.96
686.05	472.79
686.19	404.91
686.32	367.46
686.46	435.34
686.60	407.25
686.73	454.06
686.87	421.30
687.01	404.91
687.14	409.59
687.28	353.42
687.42	395.55
687.55	283.20
687.69	414.27
687.82	409.59
687.96	470.45
688.10	421.30
688.23	372.15
688.37	458.74
688.50	404.91
688.64	404.91
688.78	428.32
688.91	372.15
689.05	418.96
689.18	416.62
689.32	418.96
689.46	421.30
689.59	407.25
689.73	393.21
689.86	395.55
690.00	428.32
690.13	369.80
690.27	507.90
690.41	386.19
690.54	421.30
690.68	402.57
690.81	374.49
690.95	463.43
691.08	437.68
691.22	386.19
691.35	402.57
691.49	393.21
691.62	440.02
691.76	390.87
691.89	433.00
692.03	386.19
692.16	379.17
692.30	407.25
692.43	421.30
692.57	400.23
692.70	430.66
692.84	407.25
692.97	379.17
693.11	444.70
693.24	367.46
693.38	407.25
693.51	400.23
693.65	465.77
693.78	456.40
693.92	322.99
694.05	383.85
694.19	430.66
694.32	386.19
694.45	372.15
694.59	404.91
694.72	463.43
694.86	430.66
694.99	425.98
695.13	425.98
695.26	428.32
695.39	372.15
695.53	440.02
695.66	435.34
695.80	444.70
695.93	411.93
696.07	367.46
696.20	404.91
696.33	404.91
696.47	435.34
696.60	395.55
696.73	475.13
696.87	421.30
697.00	435.34
697.14	442.36
697.27	444.70
697.40	397.89
697.54	397.89
697.67	479.81
697.80	362.78
697.94	418.96
698.07	376.83
698.21	395.55
698.34	451.72
698.47	449.38
698.61	404.91
698.74	388.53
698.87	440.02
699.01	358.10
699.14	447.04
699.27	425.98
699.40	538.32
699.54	411.93
699.67	463.43
699.80	425.98
699.94	440.02
700.07	428.32
700.20	477.47
700.34	444.70
700.47	362.78
700.60	416.62
700.73	395.55
700.87	400.23
701.00	355.76
701.13	416.62
701.26	360.44
701.40	416.62
701.53	444.70
701.66	372.15
701.79	397.89
701.93	440.02
702.06	475.13
702.19	449.38
702.32	470.45
702.46	421.30
702.59	465.77
702.72	423.64
702.85	395.55
702.99	430.66
703.12	393.21
703.25	416.62
703.38	402.57
703.51	400.23
703.65	353.42
703.78	437.68
703.91	437.68
704.04	454.06
704.17	390.87
704.31	407.25
704.44	416.62
704.57	386.19
704.70	402.57
704.83	395.55
704.96	358.10
705.10	407.25
705.23	365.12
>>>>>End Processed Spectral Data<<<<<
