SpectraSuite Data File
++++++++++++++++++++++++++++++++++++
Date: Fri Oct 25 12:11:20 EDT 2013
User: price-jones
Dark Spectrum Present: No
Reference Spectrum Present: No
Number of Sampled Component Spectra: 1
Spectrometers: USB2+H05261
Integration Time (usec): 100000 (USB2+H05261)
Spectra Averaged: 1 (USB2+H05261)
Boxcar Smoothing: 0 (USB2+H05261)
Correct for Electrical Dark: No (USB2+H05261)
Strobe/Lamp Enabled: No (USB2+H05261)
Correct for Detector Non-linearity: No (USB2+H05261)
Correct for Stray Light: No (USB2+H05261)
Number of Pixels in Processed Spectrum: 2048
>>>>>Begin Processed Spectral Data<<<<<
365.73	339.38
365.92	339.38
366.12	339.38
366.32	276.18
366.52	315.97
366.72	191.92
366.91	287.89
367.11	285.55
367.31	159.16
367.51	227.03
367.70	266.82
367.90	290.23
368.10	215.33
368.30	205.97
368.49	191.92
368.69	315.97
368.89	322.99
369.09	217.67
369.28	311.29
369.48	194.26
369.68	306.61
369.87	322.99
370.07	245.76
370.27	320.65
370.47	390.87
370.66	334.70
370.86	369.80
371.06	360.44
371.25	418.96
371.45	407.25
371.65	337.04
371.84	367.46
372.04	351.08
372.24	418.96
372.44	475.13
372.63	407.25
372.83	404.91
373.03	447.04
373.22	372.15
373.42	416.62
373.62	451.72
373.81	355.76
374.01	402.57
374.21	440.02
374.40	416.62
374.60	456.40
374.79	397.89
374.99	386.19
375.19	360.44
375.38	414.27
375.58	390.87
375.78	400.23
375.97	353.42
376.17	461.09
376.37	383.85
376.56	376.83
376.76	400.23
376.95	393.21
377.15	430.66
377.35	468.11
377.54	414.27
377.74	344.06
377.93	463.43
378.13	409.59
378.33	498.53
378.52	386.19
378.72	395.55
378.91	383.85
379.11	411.93
379.31	411.93
379.50	475.13
379.70	379.17
379.89	379.17
380.09	433.00
380.28	421.30
380.48	411.93
380.68	322.99
380.87	404.91
381.07	435.34
381.26	393.21
381.46	421.30
381.65	383.85
381.85	421.30
382.04	381.51
382.24	430.66
382.43	430.66
382.63	411.93
382.83	421.30
383.02	447.04
383.22	423.64
383.41	423.64
383.61	430.66
383.80	388.53
384.00	374.49
384.19	376.83
384.39	479.81
384.58	400.23
384.78	388.53
384.97	397.89
385.17	458.74
385.36	376.83
385.56	414.27
385.75	407.25
385.95	390.87
386.14	407.25
386.34	440.02
386.53	440.02
386.72	376.83
386.92	409.59
387.11	444.70
387.31	372.15
387.50	355.76
387.70	299.59
387.89	337.04
388.09	393.21
388.28	428.32
388.48	404.91
388.67	440.02
388.86	411.93
389.06	411.93
389.25	416.62
389.45	428.32
389.64	369.80
389.84	442.36
390.03	411.93
390.22	470.45
390.42	362.78
390.61	355.76
390.81	362.78
391.00	376.83
391.19	421.30
391.39	409.59
391.58	379.17
391.78	407.25
391.97	430.66
392.16	465.77
392.36	430.66
392.55	472.79
392.75	498.53
392.94	407.25
393.13	451.72
393.33	435.34
393.52	444.70
393.71	458.74
393.91	407.25
394.10	423.64
394.29	416.62
394.49	390.87
394.68	437.68
394.88	388.53
395.07	440.02
395.26	409.59
395.46	465.77
395.65	468.11
395.84	414.27
396.04	414.27
396.23	407.25
396.42	360.44
396.62	388.53
396.81	430.66
397.00	493.85
397.19	402.57
397.39	367.46
397.58	489.17
397.77	360.44
397.97	372.15
398.16	425.98
398.35	470.45
398.55	416.62
398.74	383.85
398.93	421.30
399.12	421.30
399.32	372.15
399.51	416.62
399.70	411.93
399.90	435.34
400.09	409.59
400.28	430.66
400.47	386.19
400.67	425.98
400.86	358.10
401.05	341.72
401.24	414.27
401.44	428.32
401.63	433.00
401.82	383.85
402.01	411.93
402.21	383.85
402.40	428.32
402.59	383.85
402.78	376.83
402.97	348.74
403.17	397.89
403.36	421.30
403.55	486.83
403.74	376.83
403.93	428.32
404.13	407.25
404.32	369.80
404.51	355.76
404.70	484.49
404.89	454.06
405.09	433.00
405.28	425.98
405.47	330.02
405.66	372.15
405.85	374.49
406.05	397.89
406.24	372.15
406.43	360.44
406.62	388.53
406.81	482.15
407.00	416.62
407.20	402.57
407.39	416.62
407.58	395.55
407.77	376.83
407.96	503.22
408.15	454.06
408.34	365.12
408.54	383.85
408.73	430.66
408.92	421.30
409.11	444.70
409.30	404.91
409.49	372.15
409.68	402.57
409.87	360.44
410.07	404.91
410.26	411.93
410.45	369.80
410.64	437.68
410.83	379.17
411.02	351.08
411.21	395.55
411.40	456.40
411.59	425.98
411.78	416.62
411.98	437.68
412.17	423.64
412.36	395.55
412.55	348.74
412.74	404.91
412.93	437.68
413.12	458.74
413.31	381.51
413.50	414.27
413.69	365.12
413.88	367.46
414.07	362.78
414.26	381.51
414.45	423.64
414.64	479.81
414.83	372.15
415.02	388.53
415.22	386.19
415.41	437.68
415.60	428.32
415.79	442.36
415.98	397.89
416.17	390.87
416.36	416.62
416.55	409.59
416.74	360.44
416.93	454.06
417.12	435.34
417.31	433.00
417.50	477.47
417.69	449.38
417.88	421.30
418.07	376.83
418.26	416.62
418.45	416.62
418.64	437.68
418.83	414.27
419.02	425.98
419.21	369.80
419.39	437.68
419.58	421.30
419.77	463.43
419.96	428.32
420.15	449.38
420.34	416.62
420.53	428.32
420.72	381.51
420.91	409.59
421.10	369.80
421.29	369.80
421.48	416.62
421.67	393.21
421.86	351.08
422.05	498.53
422.24	409.59
422.43	404.91
422.61	400.23
422.80	433.00
422.99	416.62
423.18	334.70
423.37	404.91
423.56	367.46
423.75	402.57
423.94	411.93
424.13	383.85
424.32	416.62
424.50	402.57
424.69	365.12
424.88	414.27
425.07	433.00
425.26	379.17
425.45	418.96
425.64	418.96
425.83	430.66
426.01	449.38
426.20	442.36
426.39	341.72
426.58	397.89
426.77	454.06
426.96	416.62
427.15	454.06
427.33	409.59
427.52	407.25
427.71	365.12
427.90	397.89
428.09	423.64
428.28	411.93
428.46	421.30
428.65	381.51
428.84	411.93
429.03	458.74
429.22	353.42
429.40	407.25
429.59	381.51
429.78	365.12
429.97	416.62
430.16	386.19
430.34	393.21
430.53	404.91
430.72	374.49
430.91	360.44
431.10	381.51
431.28	395.55
431.47	369.80
431.66	376.83
431.85	479.81
432.03	395.55
432.22	430.66
432.41	407.25
432.60	425.98
432.79	425.98
432.97	411.93
433.16	416.62
433.35	468.11
433.54	463.43
433.72	425.98
433.91	386.19
434.10	416.62
434.28	379.17
434.47	386.19
434.66	416.62
434.85	425.98
435.03	411.93
435.22	425.98
435.41	414.27
435.59	383.85
435.78	421.30
435.97	358.10
436.16	369.80
436.34	433.00
436.53	428.32
436.72	411.93
436.90	444.70
437.09	428.32
437.28	332.36
437.46	425.98
437.65	409.59
437.84	440.02
438.02	409.59
438.21	458.74
438.40	397.89
438.58	404.91
438.77	365.12
438.96	388.53
439.14	428.32
439.33	444.70
439.52	411.93
439.70	402.57
439.89	367.46
440.08	416.62
440.26	397.89
440.45	351.08
440.63	369.80
440.82	390.87
441.01	414.27
441.19	440.02
441.38	430.66
441.57	425.98
441.75	411.93
441.94	456.40
442.12	465.77
442.31	374.49
442.50	430.66
442.68	428.32
442.87	416.62
443.05	418.96
443.24	442.36
443.43	428.32
443.61	423.64
443.80	418.96
443.98	315.97
444.17	411.93
444.35	400.23
444.54	433.00
444.73	458.74
444.91	461.09
445.10	411.93
445.28	418.96
445.47	379.17
445.65	402.57
445.84	418.96
446.02	461.09
446.21	353.42
446.39	383.85
446.58	397.89
446.77	341.72
446.95	440.02
447.14	390.87
447.32	444.70
447.51	346.40
447.69	390.87
447.88	348.74
448.06	407.25
448.25	440.02
448.43	404.91
448.62	390.87
448.80	376.83
448.99	414.27
449.17	454.06
449.36	461.09
449.54	414.27
449.73	423.64
449.91	362.78
450.10	353.42
450.28	442.36
450.46	383.85
450.65	393.21
450.83	409.59
451.02	430.66
451.20	519.60
451.39	425.98
451.57	372.15
451.76	402.57
451.94	449.38
452.13	346.40
452.31	421.30
452.49	353.42
452.68	456.40
452.86	423.64
453.05	482.15
453.23	367.46
453.42	444.70
453.60	418.96
453.78	404.91
453.97	416.62
454.15	390.87
454.34	379.17
454.52	386.19
454.70	416.62
454.89	351.08
455.07	421.30
455.26	337.04
455.44	454.06
455.62	400.23
455.81	390.87
455.99	372.15
456.17	383.85
456.36	500.87
456.54	390.87
456.73	381.51
456.91	360.44
457.09	367.46
457.28	451.72
457.46	425.98
457.64	400.23
457.83	425.98
458.01	416.62
458.19	444.70
458.38	376.83
458.56	409.59
458.74	388.53
458.93	383.85
459.11	425.98
459.29	355.76
459.48	383.85
459.66	505.56
459.84	414.27
460.03	482.15
460.21	447.04
460.39	379.17
460.57	421.30
460.76	496.19
460.94	402.57
461.12	386.19
461.31	407.25
461.49	395.55
461.67	388.53
461.85	390.87
462.04	458.74
462.22	770.04
462.40	376.83
462.59	437.68
462.77	360.44
462.95	430.66
463.13	454.06
463.32	472.79
463.50	402.57
463.68	362.78
463.86	454.06
464.05	374.49
464.23	404.91
464.41	374.49
464.59	433.00
464.78	418.96
464.96	393.21
465.14	421.30
465.32	430.66
465.50	411.93
465.69	418.96
465.87	360.44
466.05	383.85
466.23	330.02
466.41	470.45
466.60	369.80
466.78	458.74
466.96	435.34
467.14	435.34
467.32	423.64
467.51	440.02
467.69	374.49
467.87	421.30
468.05	358.10
468.23	390.87
468.41	386.19
468.60	369.80
468.78	400.23
468.96	421.30
469.14	416.62
469.32	393.21
469.50	411.93
469.69	362.78
469.87	447.04
470.05	437.68
470.23	430.66
470.41	496.19
470.59	407.25
470.77	402.57
470.95	421.30
471.14	430.66
471.32	407.25
471.50	393.21
471.68	498.53
471.86	379.17
472.04	395.55
472.22	416.62
472.40	358.10
472.58	372.15
472.77	425.98
472.95	437.68
473.13	423.64
473.31	484.49
473.49	411.93
473.67	381.51
473.85	376.83
474.03	362.78
474.21	475.13
474.39	449.38
474.57	547.69
474.75	484.49
474.93	397.89
475.12	362.78
475.30	393.21
475.48	379.17
475.66	414.27
475.84	395.55
476.02	402.57
476.20	393.21
476.38	428.32
476.56	400.23
476.74	400.23
476.92	369.80
477.10	486.83
477.28	470.45
477.46	451.72
477.64	393.21
477.82	440.02
478.00	479.81
478.18	477.47
478.36	423.64
478.54	369.80
478.72	404.91
478.90	372.15
479.08	433.00
479.26	430.66
479.44	386.19
479.62	381.51
479.80	318.31
479.98	447.04
480.16	435.34
480.34	447.04
480.52	390.87
480.70	351.08
480.88	395.55
481.06	414.27
481.24	425.98
481.41	440.02
481.59	435.34
481.77	447.04
481.95	447.04
482.13	500.87
482.31	421.30
482.49	442.36
482.67	472.79
482.85	421.30
483.03	423.64
483.21	437.68
483.39	423.64
483.57	402.57
483.74	472.79
483.92	421.30
484.10	395.55
484.28	407.25
484.46	521.94
484.64	376.83
484.82	423.64
485.00	440.02
485.18	458.74
485.35	402.57
485.53	381.51
485.71	411.93
485.89	388.53
486.07	332.36
486.25	451.72
486.43	423.64
486.61	416.62
486.78	360.44
486.96	423.64
487.14	369.80
487.32	425.98
487.50	423.64
487.68	465.77
487.85	395.55
488.03	416.62
488.21	411.93
488.39	404.91
488.57	479.81
488.75	388.53
488.92	550.03
489.10	390.87
489.28	444.70
489.46	407.25
489.64	423.64
489.81	409.59
489.99	449.38
490.17	318.31
490.35	376.83
490.53	416.62
490.70	390.87
490.88	430.66
491.06	367.46
491.24	418.96
491.41	414.27
491.59	451.72
491.77	404.91
491.95	351.08
492.13	430.66
492.30	526.62
492.48	447.04
492.66	437.68
492.84	411.93
493.01	379.17
493.19	369.80
493.37	433.00
493.54	423.64
493.72	463.43
493.90	463.43
494.08	325.33
494.25	433.00
494.43	430.66
494.61	388.53
494.79	397.89
494.96	365.12
495.14	414.27
495.32	388.53
495.49	428.32
495.67	416.62
495.85	463.43
496.02	402.57
496.20	425.98
496.38	358.10
496.55	472.79
496.73	421.30
496.91	386.19
497.09	454.06
497.26	397.89
497.44	449.38
497.62	409.59
497.79	397.89
497.97	440.02
498.14	456.40
498.32	416.62
498.50	433.00
498.67	463.43
498.85	421.30
499.03	423.64
499.20	362.78
499.38	379.17
499.56	367.46
499.73	440.02
499.91	390.87
500.08	409.59
500.26	381.51
500.44	407.25
500.61	440.02
500.79	428.32
500.97	435.34
501.14	411.93
501.32	428.32
501.49	423.64
501.67	416.62
501.84	423.64
502.02	411.93
502.20	358.10
502.37	482.15
502.55	376.83
502.72	397.89
502.90	411.93
503.07	479.81
503.25	456.40
503.43	428.32
503.60	456.40
503.78	425.98
503.95	451.72
504.13	400.23
504.30	447.04
504.48	423.64
504.65	388.53
504.83	388.53
505.01	437.68
505.18	393.21
505.36	381.51
505.53	484.49
505.71	341.72
505.88	404.91
506.06	440.02
506.23	440.02
506.41	358.10
506.58	437.68
506.76	421.30
506.93	397.89
507.11	458.74
507.28	386.19
507.46	418.96
507.63	411.93
507.81	416.62
507.98	393.21
508.16	454.06
508.33	437.68
508.50	423.64
508.68	414.27
508.85	388.53
509.03	449.38
509.20	386.19
509.38	409.59
509.55	404.91
509.73	454.06
509.90	388.53
510.08	365.12
510.25	404.91
510.42	353.42
510.60	369.80
510.77	428.32
510.95	479.81
511.12	409.59
511.30	400.23
511.47	407.25
511.64	404.91
511.82	430.66
511.99	397.89
512.17	390.87
512.34	397.89
512.51	395.55
512.69	437.68
512.86	444.70
513.04	437.68
513.21	425.98
513.38	376.83
513.56	414.27
513.73	393.21
513.90	386.19
514.08	421.30
514.25	402.57
514.43	423.64
514.60	437.68
514.77	355.76
514.95	428.32
515.12	386.19
515.29	437.68
515.47	358.10
515.64	435.34
515.81	344.06
515.99	465.77
516.16	400.23
516.33	442.36
516.51	360.44
516.68	411.93
516.85	372.15
517.03	435.34
517.20	358.10
517.37	425.98
517.54	414.27
517.72	379.17
517.89	435.34
518.06	512.58
518.24	468.11
518.41	433.00
518.58	496.19
518.75	421.30
518.93	414.27
519.10	421.30
519.27	416.62
519.45	379.17
519.62	341.72
519.79	428.32
519.96	425.98
520.14	425.98
520.31	388.53
520.48	414.27
520.65	388.53
520.83	423.64
521.00	433.00
521.17	433.00
521.34	428.32
521.52	428.32
521.69	479.81
521.86	458.74
522.03	395.55
522.20	454.06
522.38	355.76
522.55	383.85
522.72	447.04
522.89	395.55
523.07	416.62
523.24	461.09
523.41	489.17
523.58	430.66
523.75	395.55
523.92	402.57
524.10	381.51
524.27	395.55
524.44	423.64
524.61	414.27
524.78	372.15
524.96	456.40
525.13	393.21
525.30	437.68
525.47	416.62
525.64	444.70
525.81	404.91
525.98	468.11
526.16	409.59
526.33	330.02
526.50	421.30
526.67	386.19
526.84	437.68
527.01	402.57
527.18	477.47
527.36	468.11
527.53	365.12
527.70	402.57
527.87	423.64
528.04	442.36
528.21	358.10
528.38	435.34
528.55	393.21
528.72	500.87
528.89	451.72
529.07	381.51
529.24	461.09
529.41	468.11
529.58	437.68
529.75	451.72
529.92	397.89
530.09	421.30
530.26	435.34
530.43	437.68
530.60	444.70
530.77	402.57
530.94	440.02
531.11	461.09
531.28	400.23
531.46	393.21
531.63	456.40
531.80	491.51
531.97	393.21
532.14	425.98
532.31	423.64
532.48	430.66
532.65	355.76
532.82	409.59
532.99	402.57
533.16	418.96
533.33	386.19
533.50	407.25
533.67	393.21
533.84	449.38
534.01	456.40
534.18	395.55
534.35	397.89
534.52	416.62
534.69	395.55
534.86	463.43
535.03	407.25
535.20	421.30
535.37	425.98
535.54	465.77
535.71	411.93
535.88	360.44
536.05	362.78
536.22	454.06
536.38	425.98
536.55	418.96
536.72	355.76
536.89	395.55
537.06	409.59
537.23	437.68
537.40	402.57
537.57	372.15
537.74	414.27
537.91	421.30
538.08	435.34
538.25	421.30
538.42	358.10
538.59	433.00
538.75	383.85
538.92	461.09
539.09	402.57
539.26	437.68
539.43	433.00
539.60	423.64
539.77	496.19
539.94	411.93
540.11	381.51
540.28	463.43
540.44	463.43
540.61	355.76
540.78	355.76
540.95	425.98
541.12	407.25
541.29	388.53
541.46	407.25
541.62	390.87
541.79	482.15
541.96	379.17
542.13	386.19
542.30	388.53
542.47	477.47
542.63	442.36
542.80	386.19
542.97	456.40
543.14	425.98
543.31	383.85
543.48	383.85
543.64	451.72
543.81	444.70
543.98	433.00
544.15	421.30
544.32	498.53
544.48	360.44
544.65	383.85
544.82	421.30
544.99	428.32
545.16	470.45
545.32	442.36
545.49	372.15
545.66	428.32
545.83	407.25
546.00	407.25
546.16	402.57
546.33	430.66
546.50	435.34
546.67	395.55
546.83	409.59
547.00	425.98
547.17	414.27
547.34	418.96
547.50	400.23
547.67	374.49
547.84	393.21
548.00	390.87
548.17	397.89
548.34	379.17
548.51	449.38
548.67	463.43
548.84	418.96
549.01	397.89
549.18	407.25
549.34	425.98
549.51	447.04
549.68	442.36
549.84	437.68
550.01	372.15
550.18	465.77
550.34	435.34
550.51	411.93
550.68	514.92
550.84	393.21
551.01	367.46
551.18	423.64
551.34	397.89
551.51	407.25
551.68	454.06
551.84	428.32
552.01	465.77
552.18	440.02
552.34	456.40
552.51	400.23
552.68	472.79
552.84	355.76
553.01	360.44
553.18	404.91
553.34	454.06
553.51	409.59
553.67	390.87
553.84	470.45
554.01	386.19
554.17	376.83
554.34	479.81
554.51	447.04
554.67	489.17
554.84	484.49
555.00	402.57
555.17	362.78
555.33	425.98
555.50	447.04
555.67	362.78
555.83	468.11
556.00	458.74
556.16	538.32
556.33	444.70
556.50	369.80
556.66	390.87
556.83	393.21
556.99	475.13
557.16	489.17
557.32	388.53
557.49	416.62
557.65	447.04
557.82	425.98
557.98	365.12
558.15	421.30
558.32	400.23
558.48	327.68
558.65	461.09
558.81	400.23
558.98	311.29
559.14	449.38
559.31	421.30
559.47	444.70
559.64	433.00
559.80	458.74
559.97	416.62
560.13	479.81
560.30	404.91
560.46	365.12
560.63	409.59
560.79	437.68
560.96	402.57
561.12	407.25
561.29	418.96
561.45	454.06
561.61	386.19
561.78	468.11
561.94	470.45
562.11	409.59
562.27	395.55
562.44	362.78
562.60	482.15
562.77	461.09
562.93	575.77
563.10	442.36
563.26	423.64
563.42	486.83
563.59	402.57
563.75	433.00
563.92	374.49
564.08	440.02
564.24	465.77
564.41	440.02
564.57	376.83
564.74	458.74
564.90	365.12
565.07	444.70
565.23	482.15
565.39	421.30
565.56	386.19
565.72	437.68
565.88	400.23
566.05	430.66
566.21	433.00
566.38	390.87
566.54	393.21
566.70	451.72
566.87	428.32
567.03	465.77
567.19	526.62
567.36	447.04
567.52	358.10
567.68	411.93
567.85	418.96
568.01	402.57
568.17	409.59
568.34	379.17
568.50	386.19
568.66	404.91
568.83	463.43
568.99	442.36
569.15	418.96
569.32	444.70
569.48	482.15
569.64	404.91
569.81	451.72
569.97	418.96
570.13	402.57
570.30	395.55
570.46	376.83
570.62	458.74
570.78	461.09
570.95	409.59
571.11	442.36
571.27	454.06
571.43	421.30
571.60	430.66
571.76	381.51
571.92	421.30
572.09	388.53
572.25	496.19
572.41	444.70
572.57	376.83
572.74	360.44
572.90	447.04
573.06	418.96
573.22	386.19
573.38	407.25
573.55	491.51
573.71	447.04
573.87	411.93
574.03	458.74
574.20	444.70
574.36	442.36
574.52	344.06
574.68	397.89
574.84	393.21
575.01	376.83
575.17	407.25
575.33	297.25
575.49	395.55
575.65	360.44
575.82	442.36
575.98	379.17
576.14	421.30
576.30	440.02
576.46	409.59
576.62	418.96
576.79	402.57
576.95	435.34
577.11	482.15
577.27	477.47
577.43	433.00
577.59	463.43
577.75	416.62
577.92	367.46
578.08	414.27
578.24	362.78
578.40	395.55
578.56	458.74
578.72	503.22
578.88	442.36
579.04	468.11
579.21	444.70
579.37	423.64
579.53	400.23
579.69	383.85
579.85	416.62
580.01	454.06
580.17	409.59
580.33	451.72
580.49	435.34
580.65	425.98
580.82	379.17
580.98	425.98
581.14	463.43
581.30	402.57
581.46	395.55
581.62	428.32
581.78	358.10
581.94	409.59
582.10	400.23
582.26	442.36
582.42	409.59
582.58	397.89
582.74	442.36
582.90	433.00
583.06	416.62
583.22	411.93
583.38	433.00
583.54	463.43
583.70	411.93
583.86	362.78
584.02	400.23
584.18	484.49
584.34	313.63
584.50	397.89
584.66	416.62
584.82	407.25
584.98	444.70
585.14	468.11
585.30	512.58
585.46	341.72
585.62	456.40
585.78	402.57
585.94	339.38
586.10	374.49
586.26	393.21
586.42	435.34
586.58	418.96
586.74	421.30
586.90	449.38
587.06	440.02
587.22	390.87
587.38	425.98
587.54	456.40
587.70	386.19
587.86	449.38
588.02	388.53
588.18	475.13
588.34	416.62
588.49	418.96
588.65	388.53
588.81	376.83
588.97	379.17
589.13	393.21
589.29	367.46
589.45	482.15
589.61	425.98
589.77	395.55
589.93	451.72
590.08	456.40
590.24	395.55
590.40	465.77
590.56	397.89
590.72	442.36
590.88	418.96
591.04	433.00
591.20	447.04
591.35	484.49
591.51	407.25
591.67	414.27
591.83	421.30
591.99	451.72
592.15	416.62
592.31	430.66
592.46	428.32
592.62	442.36
592.78	355.76
592.94	341.72
593.10	358.10
593.26	418.96
593.41	381.51
593.57	400.23
593.73	404.91
593.89	421.30
594.05	435.34
594.20	409.59
594.36	451.72
594.52	355.76
594.68	442.36
594.84	418.96
594.99	535.98
595.15	437.68
595.31	428.32
595.47	416.62
595.62	414.27
595.78	397.89
595.94	447.04
596.10	451.72
596.25	449.38
596.41	484.49
596.57	390.87
596.73	402.57
596.88	379.17
597.04	404.91
597.20	414.27
597.36	540.66
597.51	428.32
597.67	355.76
597.83	393.21
597.99	463.43
598.14	388.53
598.30	414.27
598.46	365.12
598.61	470.45
598.77	440.02
598.93	472.79
599.09	355.76
599.24	409.59
599.40	465.77
599.56	433.00
599.71	449.38
599.87	383.85
600.03	437.68
600.18	402.57
600.34	461.09
600.50	428.32
600.65	362.78
600.81	362.78
600.97	461.09
601.12	358.10
601.28	470.45
601.44	440.02
601.59	365.12
601.75	489.17
601.91	456.40
602.06	400.23
602.22	472.79
602.37	451.72
602.53	477.47
602.69	472.79
602.84	327.68
603.00	407.25
603.16	372.15
603.31	381.51
603.47	451.72
603.62	353.42
603.78	327.68
603.94	458.74
604.09	437.68
604.25	458.74
604.40	395.55
604.56	433.00
604.71	416.62
604.87	407.25
605.03	386.19
605.18	433.00
605.34	463.43
605.49	454.06
605.65	367.46
605.80	386.19
605.96	475.13
606.12	447.04
606.27	475.13
606.43	430.66
606.58	447.04
606.74	521.94
606.89	397.89
607.05	400.23
607.20	433.00
607.36	458.74
607.51	353.42
607.67	463.43
607.82	430.66
607.98	463.43
608.13	461.09
608.29	423.64
608.44	503.22
608.60	414.27
608.75	411.93
608.91	454.06
609.06	400.23
609.22	395.55
609.37	397.89
609.53	341.72
609.68	411.93
609.84	344.06
609.99	437.68
610.15	430.66
610.30	500.87
610.46	425.98
610.61	444.70
610.76	437.68
610.92	397.89
611.07	423.64
611.23	475.13
611.38	514.92
611.54	433.00
611.69	454.06
611.84	418.96
612.00	388.53
612.15	395.55
612.31	461.09
612.46	423.64
612.62	404.91
612.77	463.43
612.92	397.89
613.08	447.04
613.23	421.30
613.39	454.06
613.54	407.25
613.69	479.81
613.85	449.38
614.00	458.74
614.15	318.31
614.31	449.38
614.46	482.15
614.62	362.78
614.77	411.93
614.92	393.21
615.08	456.40
615.23	447.04
615.38	440.02
615.54	421.30
615.69	381.51
615.84	337.04
616.00	468.11
616.15	388.53
616.30	346.40
616.46	423.64
616.61	425.98
616.76	430.66
616.92	456.40
617.07	444.70
617.22	386.19
617.37	390.87
617.53	435.34
617.68	390.87
617.83	374.49
617.99	416.62
618.14	433.00
618.29	456.40
618.45	430.66
618.60	456.40
618.75	416.62
618.90	388.53
619.06	484.49
619.21	402.57
619.36	407.25
619.51	402.57
619.67	379.17
619.82	411.93
619.97	447.04
620.12	472.79
620.28	435.34
620.43	425.98
620.58	435.34
620.73	400.23
620.89	416.62
621.04	477.47
621.19	376.83
621.34	393.21
621.49	411.93
621.65	400.23
621.80	433.00
621.95	425.98
622.10	393.21
622.25	379.17
622.41	454.06
622.56	372.15
622.71	367.46
622.86	440.02
623.01	390.87
623.16	435.34
623.32	418.96
623.47	430.66
623.62	397.89
623.77	416.62
623.92	425.98
624.07	402.57
624.23	456.40
624.38	491.51
624.53	425.98
624.68	376.83
624.83	440.02
624.98	395.55
625.13	393.21
625.29	390.87
625.44	479.81
625.59	416.62
625.74	461.09
625.89	388.53
626.04	416.62
626.19	388.53
626.34	355.76
626.49	376.83
626.65	383.85
626.80	365.12
626.95	390.87
627.10	334.70
627.25	369.80
627.40	451.72
627.55	470.45
627.70	369.80
627.85	423.64
628.00	442.36
628.15	416.62
628.30	393.21
628.45	465.77
628.60	407.25
628.76	442.36
628.91	402.57
629.06	407.25
629.21	388.53
629.36	411.93
629.51	395.55
629.66	486.83
629.81	409.59
629.96	421.30
630.11	421.30
630.26	425.98
630.41	393.21
630.56	461.09
630.71	433.00
630.86	416.62
631.01	470.45
631.16	440.02
631.31	470.45
631.46	451.72
631.61	493.85
631.76	388.53
631.91	337.04
632.06	468.11
632.21	468.11
632.36	421.30
632.51	397.89
632.66	374.49
632.81	409.59
632.96	447.04
633.10	411.93
633.25	503.22
633.40	463.43
633.55	367.46
633.70	376.83
633.85	411.93
634.00	402.57
634.15	381.51
634.30	344.06
634.45	428.32
634.60	402.57
634.75	379.17
634.90	491.51
635.05	365.12
635.19	383.85
635.34	388.53
635.49	409.59
635.64	402.57
635.79	454.06
635.94	458.74
636.09	433.00
636.24	454.06
636.39	386.19
636.53	447.04
636.68	395.55
636.83	390.87
636.98	390.87
637.13	428.32
637.28	428.32
637.43	428.32
637.57	386.19
637.72	442.36
637.87	433.00
638.02	421.30
638.17	344.06
638.32	433.00
638.46	376.83
638.61	454.06
638.76	360.44
638.91	369.80
639.06	383.85
639.20	458.74
639.35	430.66
639.50	355.76
639.65	463.43
639.80	390.87
639.94	400.23
640.09	444.70
640.24	374.49
640.39	451.72
640.54	374.49
640.68	416.62
640.83	411.93
640.98	505.56
641.13	451.72
641.27	428.32
641.42	440.02
641.57	482.15
641.72	407.25
641.86	400.23
642.01	390.87
642.16	456.40
642.31	456.40
642.45	376.83
642.60	463.43
642.75	386.19
642.90	444.70
643.04	498.53
643.19	346.40
643.34	386.19
643.48	400.23
643.63	397.89
643.78	421.30
643.93	479.81
644.07	390.87
644.22	465.77
644.37	337.04
644.51	390.87
644.66	449.38
644.81	421.30
644.95	402.57
645.10	393.21
645.25	430.66
645.39	358.10
645.54	404.91
645.69	449.38
645.83	477.47
645.98	463.43
646.13	442.36
646.27	433.00
646.42	355.76
646.57	402.57
646.71	454.06
646.86	374.49
647.00	416.62
647.15	421.30
647.30	411.93
647.44	430.66
647.59	360.44
647.74	395.55
647.88	330.02
648.03	433.00
648.17	447.04
648.32	381.51
648.47	423.64
648.61	404.91
648.76	423.64
648.90	468.11
649.05	442.36
649.20	362.78
649.34	358.10
649.49	397.89
649.63	430.66
649.78	449.38
649.92	423.64
650.07	491.51
650.21	461.09
650.36	454.06
650.51	374.49
650.65	517.26
650.80	442.36
650.94	421.30
651.09	351.08
651.23	437.68
651.38	444.70
651.52	390.87
651.67	369.80
651.81	456.40
651.96	444.70
652.10	383.85
652.25	365.12
652.39	393.21
652.54	409.59
652.68	463.43
652.83	442.36
652.97	397.89
653.12	381.51
653.26	404.91
653.41	409.59
653.55	451.72
653.70	402.57
653.84	442.36
653.99	482.15
654.13	400.23
654.27	287.89
654.42	360.44
654.56	395.55
654.71	442.36
654.85	379.17
655.00	404.91
655.14	416.62
655.29	416.62
655.43	393.21
655.57	390.87
655.72	388.53
655.86	416.62
656.01	477.47
656.15	428.32
656.30	447.04
656.44	404.91
656.58	386.19
656.73	435.34
656.87	444.70
657.01	367.46
657.16	416.62
657.30	477.47
657.45	512.58
657.59	442.36
657.73	465.77
657.88	482.15
658.02	440.02
658.16	435.34
658.31	451.72
658.45	428.32
658.60	346.40
658.74	400.23
658.88	421.30
659.03	372.15
659.17	393.21
659.31	430.66
659.46	386.19
659.60	381.51
659.74	442.36
659.89	425.98
660.03	440.02
660.17	465.77
660.32	440.02
660.46	447.04
660.60	437.68
660.74	416.62
660.89	388.53
661.03	402.57
661.17	400.23
661.32	461.09
661.46	362.78
661.60	374.49
661.74	376.83
661.89	400.23
662.03	379.17
662.17	367.46
662.31	416.62
662.46	400.23
662.60	444.70
662.74	433.00
662.88	393.21
663.03	388.53
663.17	386.19
663.31	358.10
663.45	433.00
663.60	388.53
663.74	423.64
663.88	332.36
664.02	433.00
664.17	465.77
664.31	421.30
664.45	407.25
664.59	327.68
664.73	388.53
664.88	388.53
665.02	421.30
665.16	416.62
665.30	435.34
665.44	360.44
665.59	458.74
665.73	465.77
665.87	411.93
666.01	451.72
666.15	330.02
666.29	400.23
666.44	458.74
666.58	437.68
666.72	369.80
666.86	400.23
667.00	433.00
667.14	428.32
667.28	423.64
667.43	418.96
667.57	423.64
667.71	388.53
667.85	465.77
667.99	404.91
668.13	407.25
668.27	442.36
668.41	395.55
668.56	461.09
668.70	341.72
668.84	407.25
668.98	463.43
669.12	442.36
669.26	496.19
669.40	503.22
669.54	397.89
669.68	404.91
669.82	416.62
669.96	458.74
670.10	421.30
670.25	409.59
670.39	402.57
670.53	451.72
670.67	440.02
670.81	447.04
670.95	444.70
671.09	360.44
671.23	498.53
671.37	430.66
671.51	465.77
671.65	484.49
671.79	479.81
671.93	360.44
672.07	367.46
672.21	444.70
672.35	482.15
672.49	463.43
672.63	547.69
672.77	461.09
672.91	440.02
673.05	456.40
673.19	461.09
673.33	409.59
673.47	505.56
673.61	383.85
673.75	395.55
673.89	454.06
674.03	442.36
674.17	416.62
674.31	409.59
674.45	418.96
674.59	440.02
674.73	423.64
674.87	381.51
675.01	404.91
675.15	390.87
675.29	461.09
675.43	449.38
675.56	421.30
675.70	472.79
675.84	351.08
675.98	505.56
676.12	418.96
676.26	458.74
676.40	435.34
676.54	479.81
676.68	402.57
676.82	458.74
676.96	423.64
677.10	437.68
677.23	414.27
677.37	447.04
677.51	374.49
677.65	409.59
677.79	409.59
677.93	397.89
678.07	383.85
678.21	416.62
678.34	341.72
678.48	395.55
678.62	386.19
678.76	381.51
678.90	388.53
679.04	421.30
679.18	346.40
679.31	374.49
679.45	425.98
679.59	444.70
679.73	411.93
679.87	320.65
680.00	372.15
680.14	444.70
680.28	463.43
680.42	414.27
680.56	449.38
680.70	369.80
680.83	463.43
680.97	421.30
681.11	423.64
681.25	430.66
681.39	442.36
681.52	437.68
681.66	433.00
681.80	418.96
681.94	365.12
682.07	447.04
682.21	500.87
682.35	416.62
682.49	416.62
682.62	440.02
682.76	379.17
682.90	353.42
683.04	442.36
683.17	430.66
683.31	421.30
683.45	430.66
683.59	362.78
683.72	451.72
683.86	381.51
684.00	489.17
684.13	411.93
684.27	407.25
684.41	503.22
684.55	433.00
684.68	395.55
684.82	449.38
684.96	346.40
685.09	388.53
685.23	397.89
685.37	379.17
685.50	465.77
685.64	435.34
685.78	404.91
685.91	418.96
686.05	409.59
686.19	409.59
686.32	374.49
686.46	388.53
686.60	416.62
686.73	510.24
686.87	458.74
687.01	386.19
687.14	423.64
687.28	468.11
687.42	430.66
687.55	374.49
687.69	496.19
687.82	411.93
687.96	472.79
688.10	381.51
688.23	348.74
688.37	414.27
688.50	360.44
688.64	423.64
688.78	416.62
688.91	428.32
689.05	421.30
689.18	400.23
689.32	461.09
689.46	400.23
689.59	493.85
689.73	418.96
689.86	442.36
690.00	437.68
690.13	390.87
690.27	425.98
690.41	411.93
690.54	390.87
690.68	383.85
690.81	447.04
690.95	381.51
691.08	430.66
691.22	400.23
691.35	395.55
691.49	376.83
691.62	421.30
691.76	414.27
691.89	407.25
692.03	348.74
692.16	386.19
692.30	444.70
692.43	355.76
692.57	414.27
692.70	362.78
692.84	447.04
692.97	386.19
693.11	393.21
693.24	339.38
693.38	381.51
693.51	435.34
693.65	393.21
693.78	454.06
693.92	372.15
694.05	402.57
694.19	416.62
694.32	360.44
694.45	362.78
694.59	388.53
694.72	411.93
694.86	468.11
694.99	477.47
695.13	442.36
695.26	510.24
695.39	416.62
695.53	507.90
695.66	435.34
695.80	358.10
695.93	421.30
696.07	390.87
696.20	430.66
696.33	383.85
696.47	376.83
696.60	395.55
696.73	409.59
696.87	411.93
697.00	440.02
697.14	402.57
697.27	437.68
697.40	414.27
697.54	418.96
697.67	425.98
697.80	407.25
697.94	386.19
698.07	423.64
698.21	442.36
698.34	414.27
698.47	435.34
698.61	440.02
698.74	449.38
698.87	538.32
699.01	433.00
699.14	388.53
699.27	458.74
699.40	475.13
699.54	390.87
699.67	456.40
699.80	397.89
699.94	358.10
700.07	397.89
700.20	402.57
700.34	404.91
700.47	409.59
700.60	470.45
700.73	365.12
700.87	409.59
701.00	407.25
701.13	433.00
701.26	440.02
701.40	351.08
701.53	411.93
701.66	510.24
701.79	458.74
701.93	428.32
702.06	463.43
702.19	388.53
702.32	404.91
702.46	468.11
702.59	451.72
702.72	414.27
702.85	362.78
702.99	458.74
703.12	477.47
703.25	425.98
703.38	484.49
703.51	493.85
703.65	372.15
703.78	428.32
703.91	430.66
704.04	386.19
704.17	407.25
704.31	447.04
704.44	404.91
704.57	468.11
704.70	388.53
704.83	388.53
704.96	407.25
705.10	339.38
705.23	379.17
>>>>>End Processed Spectral Data<<<<<
