SpectraSuite Data File
++++++++++++++++++++++++++++++++++++
Date: Fri Oct 25 12:10:50 EDT 2013
User: price-jones
Dark Spectrum Present: No
Reference Spectrum Present: No
Number of Sampled Component Spectra: 1
Spectrometers: USB2+H05261
Integration Time (usec): 100000 (USB2+H05261)
Spectra Averaged: 1 (USB2+H05261)
Boxcar Smoothing: 0 (USB2+H05261)
Correct for Electrical Dark: No (USB2+H05261)
Strobe/Lamp Enabled: No (USB2+H05261)
Correct for Detector Non-linearity: No (USB2+H05261)
Correct for Stray Light: No (USB2+H05261)
Number of Pixels in Processed Spectrum: 2048
>>>>>Begin Processed Spectral Data<<<<<
365.73	341.72
365.92	341.72
366.12	341.72
366.32	229.37
366.52	220.01
366.72	241.08
366.91	215.33
367.11	250.44
367.31	241.08
367.51	203.63
367.70	147.45
367.90	276.18
368.10	147.45
368.30	257.46
368.49	234.05
368.69	245.76
368.89	205.97
369.09	339.38
369.28	245.76
369.48	290.23
369.68	231.71
369.87	287.89
370.07	327.68
370.27	388.53
370.47	299.59
370.66	367.46
370.86	318.31
371.06	372.15
371.25	440.02
371.45	367.46
371.65	421.30
371.84	337.04
372.04	393.21
372.24	386.19
372.44	425.98
372.63	411.93
372.83	393.21
373.03	322.99
373.22	327.68
373.42	470.45
373.62	381.51
373.81	346.40
374.01	400.23
374.21	409.59
374.40	463.43
374.60	414.27
374.79	444.70
374.99	503.22
375.19	428.32
375.38	472.79
375.58	465.77
375.78	463.43
375.97	447.04
376.17	449.38
376.37	404.91
376.56	444.70
376.76	353.42
376.95	409.59
377.15	456.40
377.35	465.77
377.54	325.33
377.74	409.59
377.93	348.74
378.13	425.98
378.33	367.46
378.52	400.23
378.72	411.93
378.91	458.74
379.11	355.76
379.31	400.23
379.50	428.32
379.70	407.25
379.89	374.49
380.09	402.57
380.28	449.38
380.48	372.15
380.68	348.74
380.87	362.78
381.07	362.78
381.26	468.11
381.46	374.49
381.65	334.70
381.85	381.51
382.04	341.72
382.24	351.08
382.43	451.72
382.63	346.40
382.83	369.80
383.02	381.51
383.22	428.32
383.41	322.99
383.61	360.44
383.80	400.23
384.00	461.09
384.19	421.30
384.39	402.57
384.58	365.12
384.78	393.21
384.97	388.53
385.17	353.42
385.36	341.72
385.56	395.55
385.75	430.66
385.95	395.55
386.14	418.96
386.34	451.72
386.53	440.02
386.72	409.59
386.92	407.25
387.11	388.53
387.31	358.10
387.50	383.85
387.70	325.33
387.89	395.55
388.09	360.44
388.28	402.57
388.48	407.25
388.67	383.85
388.86	344.06
389.06	411.93
389.25	365.12
389.45	421.30
389.64	388.53
389.84	444.70
390.03	344.06
390.22	388.53
390.42	386.19
390.61	379.17
390.81	425.98
391.00	360.44
391.19	477.47
391.39	395.55
391.58	425.98
391.78	416.62
391.97	411.93
392.16	381.51
392.36	444.70
392.55	472.79
392.75	400.23
392.94	425.98
393.13	393.21
393.33	383.85
393.52	388.53
393.71	402.57
393.91	379.17
394.10	440.02
394.29	423.64
394.49	344.06
394.68	479.81
394.88	423.64
395.07	348.74
395.26	409.59
395.46	451.72
395.65	451.72
395.84	409.59
396.04	416.62
396.23	409.59
396.42	379.17
396.62	433.00
396.81	407.25
397.00	449.38
397.19	411.93
397.39	315.97
397.58	416.62
397.77	351.08
397.97	362.78
398.16	409.59
398.35	437.68
398.55	332.36
398.74	367.46
398.93	479.81
399.12	414.27
399.32	346.40
399.51	386.19
399.70	353.42
399.90	447.04
400.09	376.83
400.28	433.00
400.47	393.21
400.67	337.04
400.86	397.89
401.05	437.68
401.24	381.51
401.44	407.25
401.63	463.43
401.82	433.00
402.01	327.68
402.21	379.17
402.40	397.89
402.59	390.87
402.78	411.93
402.97	372.15
403.17	362.78
403.36	395.55
403.55	475.13
403.74	372.15
403.93	402.57
404.13	374.49
404.32	409.59
404.51	400.23
404.70	437.68
404.89	383.85
405.09	395.55
405.28	337.04
405.47	402.57
405.66	414.27
405.85	320.65
406.05	411.93
406.24	447.04
406.43	447.04
406.62	351.08
406.81	402.57
407.00	393.21
407.20	397.89
407.39	425.98
407.58	437.68
407.77	386.19
407.96	383.85
408.15	435.34
408.34	465.77
408.54	327.68
408.73	475.13
408.92	423.64
409.11	411.93
409.30	404.91
409.49	348.74
409.68	339.38
409.87	365.12
410.07	428.32
410.26	369.80
410.45	372.15
410.64	360.44
410.83	461.09
411.02	397.89
411.21	372.15
411.40	383.85
411.59	428.32
411.78	397.89
411.98	379.17
412.17	430.66
412.36	379.17
412.55	379.17
412.74	365.12
412.93	447.04
413.12	404.91
413.31	430.66
413.50	402.57
413.69	442.36
413.88	421.30
414.07	430.66
414.26	393.21
414.45	393.21
414.64	442.36
414.83	386.19
415.02	351.08
415.22	365.12
415.41	435.34
415.60	493.85
415.79	461.09
415.98	442.36
416.17	407.25
416.36	376.83
416.55	393.21
416.74	456.40
416.93	381.51
417.12	440.02
417.31	433.00
417.50	360.44
417.69	423.64
417.88	386.19
418.07	362.78
418.26	458.74
418.45	442.36
418.64	475.13
418.83	430.66
419.02	400.23
419.21	351.08
419.39	461.09
419.58	397.89
419.77	365.12
419.96	404.91
420.15	444.70
420.34	454.06
420.53	423.64
420.72	440.02
420.91	411.93
421.10	456.40
421.29	409.59
421.48	428.32
421.67	404.91
421.86	341.72
422.05	414.27
422.24	388.53
422.43	418.96
422.61	409.59
422.80	421.30
422.99	388.53
423.18	409.59
423.37	414.27
423.56	454.06
423.75	435.34
423.94	411.93
424.13	339.38
424.32	454.06
424.50	383.85
424.69	451.72
424.88	496.19
425.07	372.15
425.26	365.12
425.45	409.59
425.64	414.27
425.83	407.25
426.01	440.02
426.20	388.53
426.39	416.62
426.58	407.25
426.77	437.68
426.96	428.32
427.15	468.11
427.33	416.62
427.52	416.62
427.71	423.64
427.90	376.83
428.09	346.40
428.28	402.57
428.46	395.55
428.65	404.91
428.84	428.32
429.03	447.04
429.22	517.26
429.40	355.76
429.59	381.51
429.78	409.59
429.97	395.55
430.16	444.70
430.34	407.25
430.53	416.62
430.72	395.55
430.91	451.72
431.10	404.91
431.28	440.02
431.47	404.91
431.66	353.42
431.85	388.53
432.03	414.27
432.22	418.96
432.41	435.34
432.60	437.68
432.79	362.78
432.97	379.17
433.16	463.43
433.35	393.21
433.54	468.11
433.72	468.11
433.91	447.04
434.10	451.72
434.28	465.77
434.47	428.32
434.66	428.32
434.85	367.46
435.03	397.89
435.22	390.87
435.41	416.62
435.59	433.00
435.78	491.51
435.97	444.70
436.16	470.45
436.34	397.89
436.53	418.96
436.72	444.70
436.90	393.21
437.09	451.72
437.28	435.34
437.46	353.42
437.65	437.68
437.84	388.53
438.02	421.30
438.21	381.51
438.40	381.51
438.58	444.70
438.77	440.02
438.96	440.02
439.14	353.42
439.33	395.55
439.52	435.34
439.70	484.49
439.89	407.25
440.08	411.93
440.26	358.10
440.45	430.66
440.63	456.40
440.82	430.66
441.01	414.27
441.19	437.68
441.38	372.15
441.57	376.83
441.75	414.27
441.94	318.31
442.12	393.21
442.31	374.49
442.50	409.59
442.68	402.57
442.87	407.25
443.05	395.55
443.24	411.93
443.43	449.38
443.61	449.38
443.80	407.25
443.98	437.68
444.17	409.59
444.35	395.55
444.54	388.53
444.73	367.46
444.91	444.70
445.10	346.40
445.28	397.89
445.47	425.98
445.65	379.17
445.84	362.78
446.02	344.06
446.21	472.79
446.39	430.66
446.58	381.51
446.77	386.19
446.95	376.83
447.14	468.11
447.32	397.89
447.51	369.80
447.69	409.59
447.88	397.89
448.06	465.77
448.25	414.27
448.43	428.32
448.62	367.46
448.80	425.98
448.99	411.93
449.17	395.55
449.36	411.93
449.54	451.72
449.73	477.47
449.91	472.79
450.10	451.72
450.28	451.72
450.46	409.59
450.65	404.91
450.83	465.77
451.02	381.51
451.20	374.49
451.39	397.89
451.57	362.78
451.76	390.87
451.94	442.36
452.13	411.93
452.31	449.38
452.49	430.66
452.68	395.55
452.86	447.04
453.05	437.68
453.23	369.80
453.42	402.57
453.60	404.91
453.78	404.91
453.97	409.59
454.15	388.53
454.34	437.68
454.52	379.17
454.70	479.81
454.89	440.02
455.07	374.49
455.26	313.63
455.44	416.62
455.62	442.36
455.81	472.79
455.99	395.55
456.17	442.36
456.36	365.12
456.54	397.89
456.73	393.21
456.91	395.55
457.09	461.09
457.28	482.15
457.46	416.62
457.64	407.25
457.83	386.19
458.01	425.98
458.19	390.87
458.38	290.23
458.56	456.40
458.74	374.49
458.93	411.93
459.11	414.27
459.29	430.66
459.48	498.53
459.66	433.00
459.84	517.26
460.03	463.43
460.21	388.53
460.39	437.68
460.57	444.70
460.76	425.98
460.94	402.57
461.12	440.02
461.31	367.46
461.49	393.21
461.67	372.15
461.85	372.15
462.04	411.93
462.22	758.33
462.40	355.76
462.59	510.24
462.77	421.30
462.95	470.45
463.13	386.19
463.32	362.78
463.50	444.70
463.68	390.87
463.86	404.91
464.05	402.57
464.23	454.06
464.41	367.46
464.59	365.12
464.78	346.40
464.96	386.19
465.14	430.66
465.32	468.11
465.50	372.15
465.69	409.59
465.87	409.59
466.05	430.66
466.23	440.02
466.41	400.23
466.60	437.68
466.78	402.57
466.96	447.04
467.14	421.30
467.32	407.25
467.51	418.96
467.69	339.38
467.87	414.27
468.05	430.66
468.23	386.19
468.41	390.87
468.60	456.40
468.78	397.89
468.96	418.96
469.14	395.55
469.32	411.93
469.50	362.78
469.69	463.43
469.87	470.45
470.05	386.19
470.23	437.68
470.41	388.53
470.59	386.19
470.77	348.74
470.95	454.06
471.14	407.25
471.32	447.04
471.50	510.24
471.68	447.04
471.86	449.38
472.04	381.51
472.22	449.38
472.40	402.57
472.58	334.70
472.77	367.46
472.95	383.85
473.13	463.43
473.31	411.93
473.49	386.19
473.67	397.89
473.85	411.93
474.03	435.34
474.21	456.40
474.39	451.72
474.57	367.46
474.75	411.93
474.93	458.74
475.12	451.72
475.30	489.17
475.48	397.89
475.66	449.38
475.84	507.90
476.02	449.38
476.20	463.43
476.38	402.57
476.56	404.91
476.74	397.89
476.92	374.49
477.10	425.98
477.28	365.12
477.46	404.91
477.64	327.68
477.82	407.25
478.00	414.27
478.18	449.38
478.36	428.32
478.54	351.08
478.72	358.10
478.90	367.46
479.08	390.87
479.26	355.76
479.44	402.57
479.62	374.49
479.80	425.98
479.98	484.49
480.16	454.06
480.34	440.02
480.52	395.55
480.70	421.30
480.88	437.68
481.06	400.23
481.24	381.51
481.41	400.23
481.59	395.55
481.77	393.21
481.95	402.57
482.13	400.23
482.31	444.70
482.49	383.85
482.67	325.33
482.85	456.40
483.03	486.83
483.21	409.59
483.39	400.23
483.57	369.80
483.74	463.43
483.92	425.98
484.10	337.04
484.28	449.38
484.46	507.90
484.64	477.47
484.82	484.49
485.00	430.66
485.18	400.23
485.35	355.76
485.53	421.30
485.71	454.06
485.89	407.25
486.07	411.93
486.25	517.26
486.43	367.46
486.61	369.80
486.78	456.40
486.96	381.51
487.14	454.06
487.32	379.17
487.50	334.70
487.68	365.12
487.85	383.85
488.03	372.15
488.21	449.38
488.39	423.64
488.57	449.38
488.75	421.30
488.92	514.92
489.10	437.68
489.28	430.66
489.46	411.93
489.64	402.57
489.81	383.85
489.99	484.49
490.17	395.55
490.35	423.64
490.53	477.47
490.70	393.21
490.88	425.98
491.06	470.45
491.24	425.98
491.41	444.70
491.59	442.36
491.77	416.62
491.95	374.49
492.13	390.87
492.30	369.80
492.48	425.98
492.66	358.10
492.84	440.02
493.01	409.59
493.19	344.06
493.37	430.66
493.54	348.74
493.72	428.32
493.90	351.08
494.08	362.78
494.25	395.55
494.43	430.66
494.61	430.66
494.79	395.55
494.96	414.27
495.14	447.04
495.32	400.23
495.49	486.83
495.67	411.93
495.85	337.04
496.02	437.68
496.20	409.59
496.38	409.59
496.55	444.70
496.73	447.04
496.91	435.34
497.09	376.83
497.26	414.27
497.44	348.74
497.62	444.70
497.79	442.36
497.97	449.38
498.14	454.06
498.32	449.38
498.50	428.32
498.67	423.64
498.85	388.53
499.03	376.83
499.20	493.85
499.38	341.72
499.56	444.70
499.73	454.06
499.91	383.85
500.08	402.57
500.26	418.96
500.44	411.93
500.61	395.55
500.79	472.79
500.97	500.87
501.14	475.13
501.32	390.87
501.49	402.57
501.67	397.89
501.84	400.23
502.02	421.30
502.20	433.00
502.37	416.62
502.55	425.98
502.72	311.29
502.90	437.68
503.07	404.91
503.25	418.96
503.43	388.53
503.60	430.66
503.78	369.80
503.95	400.23
504.13	451.72
504.30	418.96
504.48	482.15
504.65	425.98
504.83	454.06
505.01	390.87
505.18	430.66
505.36	463.43
505.53	454.06
505.71	367.46
505.88	409.59
506.06	482.15
506.23	379.17
506.41	374.49
506.58	423.64
506.76	390.87
506.93	386.19
507.11	430.66
507.28	400.23
507.46	395.55
507.63	423.64
507.81	365.12
507.98	421.30
508.16	444.70
508.33	402.57
508.50	440.02
508.68	397.89
508.85	360.44
509.03	463.43
509.20	400.23
509.38	423.64
509.55	442.36
509.73	379.17
509.90	482.15
510.08	416.62
510.25	425.98
510.42	451.72
510.60	353.42
510.77	491.51
510.95	416.62
511.12	360.44
511.30	397.89
511.47	381.51
511.64	423.64
511.82	379.17
511.99	411.93
512.17	437.68
512.34	344.06
512.51	383.85
512.69	418.96
512.86	442.36
513.04	463.43
513.21	360.44
513.38	442.36
513.56	418.96
513.73	400.23
513.90	451.72
514.08	416.62
514.25	393.21
514.43	433.00
514.60	318.31
514.77	430.66
514.95	393.21
515.12	390.87
515.29	421.30
515.47	451.72
515.64	400.23
515.81	423.64
515.99	465.77
516.16	437.68
516.33	433.00
516.51	397.89
516.68	482.15
516.85	411.93
517.03	435.34
517.20	388.53
517.37	374.49
517.54	390.87
517.72	397.89
517.89	383.85
518.06	423.64
518.24	428.32
518.41	425.98
518.58	435.34
518.75	421.30
518.93	470.45
519.10	421.30
519.27	444.70
519.45	365.12
519.62	423.64
519.79	418.96
519.96	313.63
520.14	435.34
520.31	393.21
520.48	337.04
520.65	393.21
520.83	444.70
521.00	411.93
521.17	383.85
521.34	383.85
521.52	411.93
521.69	411.93
521.86	454.06
522.03	430.66
522.20	458.74
522.38	404.91
522.55	414.27
522.72	381.51
522.89	376.83
523.07	414.27
523.24	416.62
523.41	482.15
523.58	440.02
523.75	425.98
523.92	395.55
524.10	430.66
524.27	351.08
524.44	433.00
524.61	442.36
524.78	409.59
524.96	458.74
525.13	447.04
525.30	430.66
525.47	454.06
525.64	423.64
525.81	428.32
525.98	428.32
526.16	435.34
526.33	430.66
526.50	440.02
526.67	388.53
526.84	442.36
527.01	418.96
527.18	470.45
527.36	409.59
527.53	395.55
527.70	388.53
527.87	421.30
528.04	374.49
528.21	437.68
528.38	409.59
528.55	407.25
528.72	395.55
528.89	416.62
529.07	393.21
529.24	402.57
529.41	472.79
529.58	397.89
529.75	393.21
529.92	491.51
530.09	423.64
530.26	414.27
530.43	433.00
530.60	369.80
530.77	414.27
530.94	435.34
531.11	369.80
531.28	409.59
531.46	386.19
531.63	451.72
531.80	374.49
531.97	400.23
532.14	404.91
532.31	421.30
532.48	362.78
532.65	383.85
532.82	365.12
532.99	454.06
533.16	346.40
533.33	472.79
533.50	470.45
533.67	337.04
533.84	440.02
534.01	397.89
534.18	393.21
534.35	411.93
534.52	381.51
534.69	442.36
534.86	372.15
535.03	346.40
535.20	470.45
535.37	421.30
535.54	442.36
535.71	451.72
535.88	421.30
536.05	421.30
536.22	388.53
536.38	414.27
536.55	400.23
536.72	440.02
536.89	409.59
537.06	444.70
537.23	435.34
537.40	425.98
537.57	367.46
537.74	402.57
537.91	393.21
538.08	393.21
538.25	411.93
538.42	442.36
538.59	447.04
538.75	472.79
538.92	386.19
539.09	440.02
539.26	400.23
539.43	428.32
539.60	348.74
539.77	416.62
539.94	376.83
540.11	430.66
540.28	477.47
540.44	440.02
540.61	402.57
540.78	421.30
540.95	411.93
541.12	498.53
541.29	428.32
541.46	454.06
541.62	390.87
541.79	433.00
541.96	388.53
542.13	416.62
542.30	416.62
542.47	423.64
542.63	456.40
542.80	461.09
542.97	409.59
543.14	390.87
543.31	395.55
543.48	472.79
543.64	372.15
543.81	388.53
543.98	344.06
544.15	433.00
544.32	458.74
544.48	360.44
544.65	393.21
544.82	395.55
544.99	409.59
545.16	458.74
545.32	383.85
545.49	386.19
545.66	379.17
545.83	376.83
546.00	402.57
546.16	475.13
546.33	444.70
546.50	421.30
546.67	386.19
546.83	411.93
547.00	393.21
547.17	402.57
547.34	393.21
547.50	379.17
547.67	451.72
547.84	442.36
548.00	440.02
548.17	372.15
548.34	393.21
548.51	507.90
548.67	454.06
548.84	442.36
549.01	344.06
549.18	463.43
549.34	456.40
549.51	425.98
549.68	428.32
549.84	409.59
550.01	411.93
550.18	491.51
550.34	456.40
550.51	435.34
550.68	472.79
550.84	409.59
551.01	339.38
551.18	416.62
551.34	395.55
551.51	402.57
551.68	430.66
551.84	428.32
552.01	421.30
552.18	402.57
552.34	395.55
552.51	428.32
552.68	379.17
552.84	404.91
553.01	456.40
553.18	461.09
553.34	496.19
553.51	390.87
553.67	435.34
553.84	421.30
554.01	451.72
554.17	351.08
554.34	442.36
554.51	470.45
554.67	505.56
554.84	416.62
555.00	379.17
555.17	383.85
555.33	393.21
555.50	407.25
555.67	393.21
555.83	421.30
556.00	414.27
556.16	498.53
556.33	465.77
556.50	442.36
556.66	498.53
556.83	418.96
556.99	402.57
557.16	451.72
557.32	397.89
557.49	475.13
557.65	365.12
557.82	416.62
557.98	327.68
558.15	379.17
558.32	379.17
558.48	369.80
558.65	479.81
558.81	430.66
558.98	390.87
559.14	372.15
559.31	376.83
559.47	409.59
559.64	374.49
559.80	362.78
559.97	472.79
560.13	407.25
560.30	388.53
560.46	386.19
560.63	416.62
560.79	383.85
560.96	428.32
561.12	355.76
561.29	390.87
561.45	411.93
561.61	463.43
561.78	461.09
561.94	414.27
562.11	456.40
562.27	386.19
562.44	416.62
562.60	440.02
562.77	440.02
562.93	440.02
563.10	449.38
563.26	440.02
563.42	407.25
563.59	409.59
563.75	411.93
563.92	458.74
564.08	414.27
564.24	437.68
564.41	498.53
564.57	400.23
564.74	484.49
564.90	428.32
565.07	409.59
565.23	418.96
565.39	442.36
565.56	503.22
565.72	430.66
565.88	358.10
566.05	456.40
566.21	423.64
566.38	404.91
566.54	344.06
566.70	402.57
566.87	414.27
567.03	435.34
567.19	409.59
567.36	416.62
567.52	383.85
567.68	372.15
567.85	376.83
568.01	395.55
568.17	351.08
568.34	407.25
568.50	484.49
568.66	416.62
568.83	451.72
568.99	463.43
569.15	397.89
569.32	386.19
569.48	402.57
569.64	381.51
569.81	369.80
569.97	428.32
570.13	435.34
570.30	355.76
570.46	447.04
570.62	346.40
570.78	365.12
570.95	348.74
571.11	400.23
571.27	360.44
571.43	358.10
571.60	425.98
571.76	402.57
571.92	414.27
572.09	428.32
572.25	430.66
572.41	465.77
572.57	348.74
572.74	383.85
572.90	454.06
573.06	372.15
573.22	430.66
573.38	440.02
573.55	458.74
573.71	416.62
573.87	423.64
574.03	360.44
574.20	435.34
574.36	484.49
574.52	409.59
574.68	332.36
574.84	358.10
575.01	397.89
575.17	386.19
575.33	367.46
575.49	414.27
575.65	472.79
575.82	437.68
575.98	409.59
576.14	374.49
576.30	433.00
576.46	374.49
576.62	395.55
576.79	397.89
576.95	421.30
577.11	374.49
577.27	425.98
577.43	421.30
577.59	489.17
577.75	444.70
577.92	411.93
578.08	411.93
578.24	376.83
578.40	421.30
578.56	463.43
578.72	414.27
578.88	444.70
579.04	425.98
579.21	353.42
579.37	449.38
579.53	479.81
579.69	369.80
579.85	418.96
580.01	400.23
580.17	416.62
580.33	374.49
580.49	332.36
580.65	451.72
580.82	433.00
580.98	381.51
581.14	400.23
581.30	449.38
581.46	383.85
581.62	374.49
581.78	376.83
581.94	458.74
582.10	365.12
582.26	416.62
582.42	418.96
582.58	449.38
582.74	386.19
582.90	421.30
583.06	407.25
583.22	430.66
583.38	421.30
583.54	379.17
583.70	477.47
583.86	381.51
584.02	409.59
584.18	355.76
584.34	404.91
584.50	367.46
584.66	395.55
584.82	463.43
584.98	435.34
585.14	456.40
585.30	496.19
585.46	449.38
585.62	376.83
585.78	414.27
585.94	428.32
586.10	411.93
586.26	386.19
586.42	430.66
586.58	383.85
586.74	404.91
586.90	362.78
587.06	402.57
587.22	383.85
587.38	395.55
587.54	442.36
587.70	411.93
587.86	414.27
588.02	418.96
588.18	407.25
588.34	477.47
588.49	379.17
588.65	355.76
588.81	449.38
588.97	423.64
589.13	423.64
589.29	418.96
589.45	447.04
589.61	425.98
589.77	475.13
589.93	498.53
590.08	428.32
590.24	430.66
590.40	416.62
590.56	411.93
590.72	393.21
590.88	390.87
591.04	428.32
591.20	433.00
591.35	430.66
591.51	400.23
591.67	411.93
591.83	440.02
591.99	451.72
592.15	442.36
592.31	447.04
592.46	421.30
592.62	428.32
592.78	390.87
592.94	421.30
593.10	414.27
593.26	404.91
593.41	393.21
593.57	423.64
593.73	411.93
593.89	400.23
594.05	454.06
594.20	423.64
594.36	468.11
594.52	383.85
594.68	388.53
594.84	393.21
594.99	475.13
595.15	444.70
595.31	423.64
595.47	454.06
595.62	444.70
595.78	463.43
595.94	435.34
596.10	423.64
596.25	386.19
596.41	407.25
596.57	402.57
596.73	414.27
596.88	386.19
597.04	433.00
597.20	407.25
597.36	395.55
597.51	421.30
597.67	437.68
597.83	468.11
597.99	400.23
598.14	489.17
598.30	440.02
598.46	402.57
598.61	463.43
598.77	383.85
598.93	339.38
599.09	430.66
599.24	449.38
599.40	411.93
599.56	468.11
599.71	440.02
599.87	362.78
600.03	477.47
600.18	442.36
600.34	402.57
600.50	402.57
600.65	418.96
600.81	421.30
600.97	390.87
601.12	416.62
601.28	519.60
601.44	437.68
601.59	482.15
601.75	381.51
601.91	374.49
602.06	447.04
602.22	493.85
602.37	447.04
602.53	444.70
602.69	404.91
602.84	402.57
603.00	341.72
603.16	362.78
603.31	454.06
603.47	395.55
603.62	440.02
603.78	435.34
603.94	397.89
604.09	397.89
604.25	433.00
604.40	456.40
604.56	489.17
604.71	411.93
604.87	346.40
605.03	402.57
605.18	411.93
605.34	360.44
605.49	425.98
605.65	411.93
605.80	397.89
605.96	489.17
606.12	535.98
606.27	379.17
606.43	400.23
606.58	386.19
606.74	451.72
606.89	334.70
607.05	425.98
607.20	365.12
607.36	484.49
607.51	500.87
607.67	418.96
607.82	390.87
607.98	362.78
608.13	472.79
608.29	369.80
608.44	421.30
608.60	381.51
608.75	484.49
608.91	428.32
609.06	402.57
609.22	433.00
609.37	444.70
609.53	383.85
609.68	407.25
609.84	433.00
609.99	407.25
610.15	367.46
610.30	369.80
610.46	440.02
610.61	430.66
610.76	402.57
610.92	397.89
611.07	362.78
611.23	435.34
611.38	423.64
611.54	367.46
611.69	379.17
611.84	327.68
612.00	388.53
612.15	465.77
612.31	386.19
612.46	423.64
612.62	472.79
612.77	447.04
612.92	442.36
613.08	461.09
613.23	381.51
613.39	479.81
613.54	402.57
613.69	330.02
613.85	402.57
614.00	395.55
614.15	472.79
614.31	400.23
614.46	468.11
614.62	351.08
614.77	381.51
614.92	416.62
615.08	362.78
615.23	397.89
615.38	458.74
615.54	390.87
615.69	411.93
615.84	472.79
616.00	416.62
616.15	461.09
616.30	433.00
616.46	423.64
616.61	358.10
616.76	423.64
616.92	376.83
617.07	388.53
617.22	411.93
617.37	458.74
617.53	404.91
617.68	402.57
617.83	463.43
617.99	465.77
618.14	442.36
618.29	451.72
618.45	374.49
618.60	440.02
618.75	369.80
618.90	376.83
619.06	397.89
619.21	430.66
619.36	456.40
619.51	458.74
619.67	407.25
619.82	360.44
619.97	411.93
620.12	409.59
620.28	414.27
620.43	404.91
620.58	404.91
620.73	388.53
620.89	409.59
621.04	482.15
621.19	379.17
621.34	418.96
621.49	376.83
621.65	395.55
621.80	437.68
621.95	458.74
622.10	404.91
622.25	367.46
622.41	416.62
622.56	395.55
622.71	456.40
622.86	449.38
623.01	409.59
623.16	451.72
623.32	414.27
623.47	454.06
623.62	372.15
623.77	458.74
623.92	395.55
624.07	489.17
624.23	447.04
624.38	383.85
624.53	433.00
624.68	409.59
624.83	454.06
624.98	414.27
625.13	437.68
625.29	353.42
625.44	416.62
625.59	454.06
625.74	400.23
625.89	402.57
626.04	365.12
626.19	440.02
626.34	383.85
626.49	407.25
626.65	428.32
626.80	461.09
626.95	379.17
627.10	418.96
627.25	409.59
627.40	449.38
627.55	390.87
627.70	465.77
627.85	435.34
628.00	411.93
628.15	397.89
628.30	503.22
628.45	447.04
628.60	479.81
628.76	388.53
628.91	348.74
629.06	423.64
629.21	304.27
629.36	421.30
629.51	395.55
629.66	470.45
629.81	430.66
629.96	355.76
630.11	409.59
630.26	491.51
630.41	388.53
630.56	395.55
630.71	355.76
630.86	400.23
631.01	374.49
631.16	454.06
631.31	461.09
631.46	433.00
631.61	477.47
631.76	355.76
631.91	423.64
632.06	433.00
632.21	468.11
632.36	449.38
632.51	397.89
632.66	440.02
632.81	348.74
632.96	486.83
633.10	449.38
633.25	388.53
633.40	470.45
633.55	404.91
633.70	404.91
633.85	416.62
634.00	367.46
634.15	395.55
634.30	470.45
634.45	458.74
634.60	435.34
634.75	425.98
634.90	409.59
635.05	344.06
635.19	470.45
635.34	423.64
635.49	505.56
635.64	433.00
635.79	400.23
635.94	313.63
636.09	395.55
636.24	433.00
636.39	379.17
636.53	411.93
636.68	383.85
636.83	365.12
636.98	386.19
637.13	390.87
637.28	411.93
637.43	414.27
637.57	414.27
637.72	442.36
637.87	411.93
638.02	337.04
638.17	477.47
638.32	397.89
638.46	346.40
638.61	416.62
638.76	411.93
638.91	325.33
639.06	393.21
639.20	411.93
639.35	418.96
639.50	479.81
639.65	416.62
639.80	344.06
639.94	482.15
640.09	486.83
640.24	449.38
640.39	407.25
640.54	461.09
640.68	433.00
640.83	372.15
640.98	428.32
641.13	393.21
641.27	388.53
641.42	355.76
641.57	463.43
641.72	365.12
641.86	367.46
642.01	470.45
642.16	456.40
642.31	444.70
642.45	458.74
642.60	404.91
642.75	409.59
642.90	400.23
643.04	386.19
643.19	402.57
643.34	402.57
643.48	451.72
643.63	444.70
643.78	414.27
643.93	435.34
644.07	409.59
644.22	383.85
644.37	367.46
644.51	421.30
644.66	390.87
644.81	416.62
644.95	447.04
645.10	437.68
645.25	447.04
645.39	454.06
645.54	416.62
645.69	477.47
645.83	416.62
645.98	444.70
646.13	440.02
646.27	400.23
646.42	383.85
646.57	433.00
646.71	390.87
646.86	414.27
647.00	381.51
647.15	425.98
647.30	456.40
647.44	393.21
647.59	416.62
647.74	353.42
647.88	433.00
648.03	383.85
648.17	393.21
648.32	393.21
648.47	411.93
648.61	442.36
648.76	348.74
648.90	393.21
649.05	404.91
649.20	409.59
649.34	341.72
649.49	428.32
649.63	465.77
649.78	339.38
649.92	421.30
650.07	433.00
650.21	447.04
650.36	383.85
650.51	407.25
650.65	468.11
650.80	479.81
650.94	472.79
651.09	379.17
651.23	479.81
651.38	404.91
651.52	372.15
651.67	440.02
651.81	416.62
651.96	416.62
652.10	472.79
652.25	444.70
652.39	425.98
652.54	444.70
652.68	411.93
652.83	435.34
652.97	414.27
653.12	463.43
653.26	423.64
653.41	372.15
653.55	458.74
653.70	411.93
653.84	463.43
653.99	376.83
654.13	393.21
654.27	383.85
654.42	388.53
654.56	433.00
654.71	475.13
654.85	369.80
655.00	425.98
655.14	416.62
655.29	416.62
655.43	433.00
655.57	423.64
655.72	383.85
655.86	430.66
656.01	433.00
656.15	428.32
656.30	430.66
656.44	461.09
656.58	346.40
656.73	433.00
656.87	418.96
657.01	430.66
657.16	428.32
657.30	468.11
657.45	423.64
657.59	407.25
657.73	416.62
657.88	463.43
658.02	468.11
658.16	400.23
658.31	332.36
658.45	365.12
658.60	360.44
658.74	395.55
658.88	442.36
659.03	386.19
659.17	372.15
659.31	320.65
659.46	409.59
659.60	416.62
659.74	379.17
659.89	379.17
660.03	393.21
660.17	428.32
660.32	416.62
660.46	435.34
660.60	379.17
660.74	447.04
660.89	372.15
661.03	414.27
661.17	390.87
661.32	437.68
661.46	400.23
661.60	414.27
661.74	393.21
661.89	395.55
662.03	491.51
662.17	402.57
662.31	404.91
662.46	404.91
662.60	421.30
662.74	353.42
662.88	395.55
663.03	404.91
663.17	367.46
663.31	374.49
663.45	397.89
663.60	430.66
663.74	372.15
663.88	425.98
664.02	475.13
664.17	444.70
664.31	491.51
664.45	407.25
664.59	437.68
664.73	381.51
664.88	390.87
665.02	334.70
665.16	365.12
665.30	365.12
665.44	381.51
665.59	435.34
665.73	395.55
665.87	416.62
666.01	365.12
666.15	379.17
666.29	341.72
666.44	376.83
666.58	400.23
666.72	358.10
666.86	519.60
667.00	440.02
667.14	414.27
667.28	388.53
667.43	409.59
667.57	348.74
667.71	411.93
667.85	437.68
667.99	505.56
668.13	416.62
668.27	493.85
668.41	510.24
668.56	411.93
668.70	465.77
668.84	430.66
668.98	430.66
669.12	390.87
669.26	407.25
669.40	437.68
669.54	411.93
669.68	362.78
669.82	440.02
669.96	358.10
670.10	367.46
670.25	444.70
670.39	404.91
670.53	400.23
670.67	447.04
670.81	430.66
670.95	458.74
671.09	435.34
671.23	390.87
671.37	360.44
671.51	362.78
671.65	390.87
671.79	449.38
671.93	435.34
672.07	447.04
672.21	416.62
672.35	325.33
672.49	395.55
672.63	447.04
672.77	428.32
672.91	367.46
673.05	414.27
673.19	425.98
673.33	407.25
673.47	351.08
673.61	404.91
673.75	444.70
673.89	418.96
674.03	486.83
674.17	425.98
674.31	472.79
674.45	397.89
674.59	381.51
674.73	337.04
674.87	395.55
675.01	376.83
675.15	369.80
675.29	362.78
675.43	465.77
675.56	461.09
675.70	465.77
675.84	411.93
675.98	437.68
676.12	465.77
676.26	402.57
676.40	369.80
676.54	376.83
676.68	454.06
676.82	379.17
676.96	456.40
677.10	374.49
677.23	440.02
677.37	449.38
677.51	470.45
677.65	430.66
677.79	388.53
677.93	425.98
678.07	383.85
678.21	444.70
678.34	433.00
678.48	430.66
678.62	428.32
678.76	367.46
678.90	411.93
679.04	418.96
679.18	365.12
679.31	369.80
679.45	449.38
679.59	482.15
679.73	423.64
679.87	435.34
680.00	421.30
680.14	433.00
680.28	418.96
680.42	416.62
680.56	362.78
680.70	449.38
680.83	404.91
680.97	397.89
681.11	395.55
681.25	472.79
681.39	411.93
681.52	365.12
681.66	451.72
681.80	397.89
681.94	437.68
682.07	416.62
682.21	393.21
682.35	409.59
682.49	451.72
682.62	449.38
682.76	409.59
682.90	444.70
683.04	344.06
683.17	388.53
683.31	409.59
683.45	433.00
683.59	477.47
683.72	414.27
683.86	400.23
684.00	400.23
684.13	423.64
684.27	383.85
684.41	517.26
684.55	433.00
684.68	416.62
684.82	470.45
684.96	353.42
685.09	365.12
685.23	458.74
685.37	402.57
685.50	383.85
685.64	381.51
685.78	407.25
685.91	421.30
686.05	449.38
686.19	381.51
686.32	472.79
686.46	470.45
686.60	397.89
686.73	477.47
686.87	447.04
687.01	433.00
687.14	409.59
687.28	390.87
687.42	498.53
687.55	397.89
687.69	454.06
687.82	369.80
687.96	444.70
688.10	433.00
688.23	374.49
688.37	379.17
688.50	404.91
688.64	402.57
688.78	442.36
688.91	402.57
689.05	372.15
689.18	334.70
689.32	376.83
689.46	425.98
689.59	475.13
689.73	421.30
689.86	421.30
690.00	395.55
690.13	404.91
690.27	365.12
690.41	456.40
690.54	475.13
690.68	425.98
690.81	435.34
690.95	482.15
691.08	390.87
691.22	409.59
691.35	365.12
691.49	362.78
691.62	428.32
691.76	404.91
691.89	433.00
692.03	435.34
692.16	400.23
692.30	470.45
692.43	468.11
692.57	393.21
692.70	437.68
692.84	433.00
692.97	491.51
693.11	409.59
693.24	402.57
693.38	428.32
693.51	423.64
693.65	470.45
693.78	428.32
693.92	454.06
694.05	465.77
694.19	397.89
694.32	430.66
694.45	461.09
694.59	390.87
694.72	386.19
694.86	447.04
694.99	484.49
695.13	400.23
695.26	381.51
695.39	414.27
695.53	433.00
695.66	447.04
695.80	437.68
695.93	404.91
696.07	381.51
696.20	425.98
696.33	409.59
696.47	341.72
696.60	423.64
696.73	379.17
696.87	388.53
697.00	402.57
697.14	418.96
697.27	402.57
697.40	414.27
697.54	407.25
697.67	390.87
697.80	437.68
697.94	461.09
698.07	475.13
698.21	397.89
698.34	372.15
698.47	451.72
698.61	416.62
698.74	409.59
698.87	414.27
699.01	449.38
699.14	423.64
699.27	414.27
699.40	430.66
699.54	362.78
699.67	400.23
699.80	442.36
699.94	358.10
700.07	418.96
700.20	437.68
700.34	456.40
700.47	390.87
700.60	397.89
700.73	430.66
700.87	482.15
701.00	456.40
701.13	390.87
701.26	402.57
701.40	402.57
701.53	407.25
701.66	442.36
701.79	456.40
701.93	395.55
702.06	463.43
702.19	409.59
702.32	486.83
702.46	332.36
702.59	325.33
702.72	374.49
702.85	374.49
702.99	388.53
703.12	423.64
703.25	418.96
703.38	433.00
703.51	421.30
703.65	451.72
703.78	386.19
703.91	437.68
704.04	491.51
704.17	437.68
704.31	423.64
704.44	423.64
704.57	400.23
704.70	430.66
704.83	395.55
704.96	365.12
705.10	428.32
705.23	411.93
>>>>>End Processed Spectral Data<<<<<
