SpectraSuite Data File
++++++++++++++++++++++++++++++++++++
Date: Fri Oct 25 12:11:40 EDT 2013
User: price-jones
Dark Spectrum Present: No
Reference Spectrum Present: No
Number of Sampled Component Spectra: 1
Spectrometers: USB2+H05261
Integration Time (usec): 100000 (USB2+H05261)
Spectra Averaged: 1 (USB2+H05261)
Boxcar Smoothing: 0 (USB2+H05261)
Correct for Electrical Dark: No (USB2+H05261)
Strobe/Lamp Enabled: No (USB2+H05261)
Correct for Detector Non-linearity: No (USB2+H05261)
Correct for Stray Light: No (USB2+H05261)
Number of Pixels in Processed Spectrum: 2048
>>>>>Begin Processed Spectral Data<<<<<
365.73	287.89
365.92	287.89
366.12	287.89
366.32	224.69
366.52	325.33
366.72	250.44
366.91	285.55
367.11	173.20
367.31	227.03
367.51	243.42
367.70	208.31
367.90	215.33
368.10	294.91
368.30	238.73
368.49	168.52
368.69	276.18
368.89	283.20
369.09	215.33
369.28	241.08
369.48	224.69
369.68	311.29
369.87	278.52
370.07	299.59
370.27	308.95
370.47	379.17
370.66	334.70
370.86	285.55
371.06	418.96
371.25	372.15
371.45	299.59
371.65	369.80
371.84	381.51
372.04	376.83
372.24	404.91
372.44	353.42
372.63	374.49
372.83	369.80
373.03	358.10
373.22	367.46
373.42	383.85
373.62	498.53
373.81	423.64
374.01	409.59
374.21	390.87
374.40	381.51
374.60	437.68
374.79	461.09
374.99	428.32
375.19	407.25
375.38	376.83
375.58	423.64
375.78	461.09
375.97	498.53
376.17	433.00
376.37	341.72
376.56	418.96
376.76	458.74
376.95	388.53
377.15	411.93
377.35	449.38
377.54	435.34
377.74	393.21
377.93	433.00
378.13	416.62
378.33	428.32
378.52	440.02
378.72	362.78
378.91	416.62
379.11	421.30
379.31	332.36
379.50	430.66
379.70	461.09
379.89	376.83
380.09	376.83
380.28	425.98
380.48	433.00
380.68	421.30
380.87	395.55
381.07	416.62
381.26	407.25
381.46	491.51
381.65	491.51
381.85	411.93
382.04	374.49
382.24	383.85
382.43	393.21
382.63	423.64
382.83	404.91
383.02	421.30
383.22	379.17
383.41	388.53
383.61	463.43
383.80	397.89
384.00	351.08
384.19	388.53
384.39	400.23
384.58	397.89
384.78	423.64
384.97	437.68
385.17	465.77
385.36	395.55
385.56	430.66
385.75	369.80
385.95	365.12
386.14	369.80
386.34	411.93
386.53	425.98
386.72	416.62
386.92	430.66
387.11	421.30
387.31	348.74
387.50	376.83
387.70	404.91
387.89	344.06
388.09	430.66
388.28	379.17
388.48	388.53
388.67	374.49
388.86	360.44
389.06	409.59
389.25	388.53
389.45	428.32
389.64	414.27
389.84	390.87
390.03	486.83
390.22	388.53
390.42	402.57
390.61	451.72
390.81	421.30
391.00	421.30
391.19	472.79
391.39	390.87
391.58	414.27
391.78	435.34
391.97	435.34
392.16	451.72
392.36	461.09
392.55	409.59
392.75	369.80
392.94	477.47
393.13	369.80
393.33	325.33
393.52	411.93
393.71	416.62
393.91	372.15
394.10	418.96
394.29	355.76
394.49	430.66
394.68	440.02
394.88	416.62
395.07	433.00
395.26	437.68
395.46	416.62
395.65	381.51
395.84	416.62
396.04	498.53
396.23	440.02
396.42	442.36
396.62	463.43
396.81	444.70
397.00	425.98
397.19	451.72
397.39	386.19
397.58	437.68
397.77	397.89
397.97	395.55
398.16	416.62
398.35	465.77
398.55	463.43
398.74	418.96
398.93	451.72
399.12	418.96
399.32	451.72
399.51	299.59
399.70	421.30
399.90	409.59
400.09	395.55
400.28	442.36
400.47	418.96
400.67	425.98
400.86	425.98
401.05	423.64
401.24	416.62
401.44	430.66
401.63	418.96
401.82	308.95
402.01	376.83
402.21	449.38
402.40	479.81
402.59	437.68
402.78	362.78
402.97	390.87
403.17	379.17
403.36	440.02
403.55	355.76
403.74	358.10
403.93	435.34
404.13	421.30
404.32	433.00
404.51	435.34
404.70	416.62
404.89	416.62
405.09	386.19
405.28	433.00
405.47	388.53
405.66	447.04
405.85	437.68
406.05	400.23
406.24	339.38
406.43	425.98
406.62	416.62
406.81	435.34
407.00	433.00
407.20	456.40
407.39	318.31
407.58	388.53
407.77	414.27
407.96	388.53
408.15	402.57
408.34	353.42
408.54	400.23
408.73	372.15
408.92	393.21
409.11	477.47
409.30	400.23
409.49	421.30
409.68	472.79
409.87	379.17
410.07	381.51
410.26	397.89
410.45	402.57
410.64	433.00
410.83	421.30
411.02	397.89
411.21	341.72
411.40	440.02
411.59	386.19
411.78	381.51
411.98	376.83
412.17	404.91
412.36	414.27
412.55	346.40
412.74	442.36
412.93	433.00
413.12	421.30
413.31	409.59
413.50	411.93
413.69	442.36
413.88	447.04
414.07	365.12
414.26	454.06
414.45	386.19
414.64	447.04
414.83	376.83
415.02	433.00
415.22	425.98
415.41	463.43
415.60	327.68
415.79	346.40
415.98	458.74
416.17	407.25
416.36	430.66
416.55	435.34
416.74	425.98
416.93	397.89
417.12	367.46
417.31	447.04
417.50	402.57
417.69	400.23
417.88	449.38
418.07	374.49
418.26	351.08
418.45	383.85
418.64	458.74
418.83	475.13
419.02	425.98
419.21	407.25
419.39	388.53
419.58	383.85
419.77	409.59
419.96	468.11
420.15	397.89
420.34	367.46
420.53	428.32
420.72	447.04
420.91	414.27
421.10	411.93
421.29	430.66
421.48	379.17
421.67	404.91
421.86	400.23
422.05	470.45
422.24	402.57
422.43	493.85
422.61	451.72
422.80	425.98
422.99	468.11
423.18	388.53
423.37	437.68
423.56	407.25
423.75	411.93
423.94	365.12
424.13	383.85
424.32	440.02
424.50	468.11
424.69	491.51
424.88	400.23
425.07	390.87
425.26	451.72
425.45	444.70
425.64	402.57
425.83	358.10
426.01	416.62
426.20	444.70
426.39	442.36
426.58	395.55
426.77	456.40
426.96	458.74
427.15	517.26
427.33	409.59
427.52	404.91
427.71	402.57
427.90	374.49
428.09	416.62
428.28	404.91
428.46	421.30
428.65	496.19
428.84	421.30
429.03	493.85
429.22	411.93
429.40	393.21
429.59	402.57
429.78	388.53
429.97	395.55
430.16	365.12
430.34	402.57
430.53	367.46
430.72	433.00
430.91	435.34
431.10	458.74
431.28	470.45
431.47	414.27
431.66	372.15
431.85	383.85
432.03	442.36
432.22	433.00
432.41	362.78
432.60	362.78
432.79	425.98
432.97	379.17
433.16	423.64
433.35	390.87
433.54	425.98
433.72	444.70
433.91	458.74
434.10	472.79
434.28	400.23
434.47	447.04
434.66	430.66
434.85	507.90
435.03	421.30
435.22	479.81
435.41	458.74
435.59	458.74
435.78	362.78
435.97	440.02
436.16	395.55
436.34	423.64
436.53	372.15
436.72	376.83
436.90	423.64
437.09	393.21
437.28	479.81
437.46	447.04
437.65	517.26
437.84	451.72
438.02	372.15
438.21	458.74
438.40	423.64
438.58	383.85
438.77	456.40
438.96	395.55
439.14	407.25
439.33	388.53
439.52	390.87
439.70	444.70
439.89	428.32
440.08	421.30
440.26	472.79
440.45	437.68
440.63	395.55
440.82	477.47
441.01	402.57
441.19	379.17
441.38	435.34
441.57	400.23
441.75	402.57
441.94	414.27
442.12	348.74
442.31	390.87
442.50	374.49
442.68	449.38
442.87	433.00
443.05	400.23
443.24	372.15
443.43	449.38
443.61	395.55
443.80	367.46
443.98	358.10
444.17	355.76
444.35	425.98
444.54	470.45
444.73	397.89
444.91	454.06
445.10	397.89
445.28	425.98
445.47	440.02
445.65	388.53
445.84	367.46
446.02	449.38
446.21	425.98
446.39	461.09
446.58	428.32
446.77	365.12
446.95	367.46
447.14	425.98
447.32	486.83
447.51	400.23
447.69	320.65
447.88	374.49
448.06	423.64
448.25	386.19
448.43	407.25
448.62	379.17
448.80	407.25
448.99	435.34
449.17	486.83
449.36	416.62
449.54	418.96
449.73	376.83
449.91	397.89
450.10	456.40
450.28	505.56
450.46	393.21
450.65	442.36
450.83	411.93
451.02	444.70
451.20	456.40
451.39	397.89
451.57	374.49
451.76	407.25
451.94	472.79
452.13	489.17
452.31	512.58
452.49	393.21
452.68	383.85
452.86	376.83
453.05	444.70
453.23	463.43
453.42	365.12
453.60	456.40
453.78	465.77
453.97	355.76
454.15	435.34
454.34	393.21
454.52	447.04
454.70	489.17
454.89	463.43
455.07	421.30
455.26	451.72
455.44	395.55
455.62	489.17
455.81	416.62
455.99	358.10
456.17	358.10
456.36	395.55
456.54	395.55
456.73	425.98
456.91	390.87
457.09	386.19
457.28	442.36
457.46	458.74
457.64	517.26
457.83	425.98
458.01	395.55
458.19	449.38
458.38	433.00
458.56	400.23
458.74	400.23
458.93	341.72
459.11	435.34
459.29	451.72
459.48	463.43
459.66	463.43
459.84	489.17
460.03	496.19
460.21	416.62
460.39	411.93
460.57	491.51
460.76	374.49
460.94	482.15
461.12	486.83
461.31	454.06
461.49	428.32
461.67	383.85
461.85	402.57
462.04	430.66
462.22	805.14
462.40	486.83
462.59	442.36
462.77	369.80
462.95	353.42
463.13	369.80
463.32	470.45
463.50	425.98
463.68	407.25
463.86	372.15
464.05	442.36
464.23	404.91
464.41	433.00
464.59	346.40
464.78	397.89
464.96	440.02
465.14	372.15
465.32	407.25
465.50	507.90
465.69	484.49
465.87	383.85
466.05	482.15
466.23	416.62
466.41	393.21
466.60	475.13
466.78	344.06
466.96	421.30
467.14	418.96
467.32	400.23
467.51	461.09
467.69	423.64
467.87	465.77
468.05	393.21
468.23	425.98
468.41	411.93
468.60	407.25
468.78	447.04
468.96	414.27
469.14	482.15
469.32	386.19
469.50	418.96
469.69	444.70
469.87	337.04
470.05	400.23
470.23	463.43
470.41	416.62
470.59	433.00
470.77	425.98
470.95	362.78
471.14	458.74
471.32	393.21
471.50	428.32
471.68	472.79
471.86	383.85
472.04	376.83
472.22	402.57
472.40	475.13
472.58	395.55
472.77	397.89
472.95	423.64
473.13	447.04
473.31	414.27
473.49	376.83
473.67	400.23
473.85	454.06
474.03	369.80
474.21	402.57
474.39	454.06
474.57	528.96
474.75	449.38
474.93	358.10
475.12	355.76
475.30	346.40
475.48	482.15
475.66	433.00
475.84	414.27
476.02	388.53
476.20	458.74
476.38	433.00
476.56	449.38
476.74	440.02
476.92	367.46
477.10	381.51
477.28	400.23
477.46	442.36
477.64	409.59
477.82	379.17
478.00	491.51
478.18	390.87
478.36	433.00
478.54	475.13
478.72	472.79
478.90	421.30
479.08	411.93
479.26	425.98
479.44	409.59
479.62	421.30
479.80	414.27
479.98	416.62
480.16	393.21
480.34	407.25
480.52	386.19
480.70	437.68
480.88	458.74
481.06	388.53
481.24	365.12
481.41	456.40
481.59	416.62
481.77	421.30
481.95	397.89
482.13	430.66
482.31	381.51
482.49	442.36
482.67	414.27
482.85	425.98
483.03	428.32
483.21	402.57
483.39	423.64
483.57	423.64
483.74	451.72
483.92	451.72
484.10	449.38
484.28	472.79
484.46	433.00
484.64	383.85
484.82	465.77
485.00	465.77
485.18	402.57
485.35	407.25
485.53	421.30
485.71	484.49
485.89	390.87
486.07	425.98
486.25	484.49
486.43	337.04
486.61	472.79
486.78	449.38
486.96	390.87
487.14	369.80
487.32	423.64
487.50	421.30
487.68	451.72
487.85	409.59
488.03	322.99
488.21	444.70
488.39	383.85
488.57	400.23
488.75	472.79
488.92	409.59
489.10	463.43
489.28	433.00
489.46	369.80
489.64	367.46
489.81	381.51
489.99	489.17
490.17	423.64
490.35	454.06
490.53	365.12
490.70	386.19
490.88	379.17
491.06	346.40
491.24	381.51
491.41	449.38
491.59	468.11
491.77	442.36
491.95	379.17
492.13	404.91
492.30	367.46
492.48	440.02
492.66	358.10
492.84	386.19
493.01	407.25
493.19	355.76
493.37	451.72
493.54	390.87
493.72	402.57
493.90	421.30
494.08	325.33
494.25	397.89
494.43	383.85
494.61	365.12
494.79	374.49
494.96	463.43
495.14	423.64
495.32	428.32
495.49	472.79
495.67	411.93
495.85	458.74
496.02	456.40
496.20	433.00
496.38	435.34
496.55	390.87
496.73	381.51
496.91	440.02
497.09	477.47
497.26	418.96
497.44	379.17
497.62	475.13
497.79	404.91
497.97	360.44
498.14	447.04
498.32	397.89
498.50	397.89
498.67	388.53
498.85	393.21
499.03	437.68
499.20	397.89
499.38	397.89
499.56	390.87
499.73	470.45
499.91	456.40
500.08	369.80
500.26	463.43
500.44	397.89
500.61	416.62
500.79	435.34
500.97	465.77
501.14	423.64
501.32	447.04
501.49	383.85
501.67	421.30
501.84	486.83
502.02	390.87
502.20	458.74
502.37	416.62
502.55	402.57
502.72	400.23
502.90	397.89
503.07	477.47
503.25	428.32
503.43	390.87
503.60	358.10
503.78	430.66
503.95	435.34
504.13	386.19
504.30	442.36
504.48	496.19
504.65	409.59
504.83	433.00
505.01	358.10
505.18	442.36
505.36	433.00
505.53	362.78
505.71	400.23
505.88	400.23
506.06	404.91
506.23	393.21
506.41	435.34
506.58	395.55
506.76	339.38
506.93	433.00
507.11	444.70
507.28	379.17
507.46	442.36
507.63	421.30
507.81	428.32
507.98	397.89
508.16	372.15
508.33	418.96
508.50	444.70
508.68	400.23
508.85	458.74
509.03	416.62
509.20	433.00
509.38	484.49
509.55	440.02
509.73	451.72
509.90	411.93
510.08	355.76
510.25	449.38
510.42	402.57
510.60	416.62
510.77	395.55
510.95	411.93
511.12	404.91
511.30	479.81
511.47	411.93
511.64	418.96
511.82	337.04
511.99	418.96
512.17	381.51
512.34	395.55
512.51	386.19
512.69	334.70
512.86	416.62
513.04	407.25
513.21	503.22
513.38	468.11
513.56	461.09
513.73	402.57
513.90	463.43
514.08	400.23
514.25	496.19
514.43	437.68
514.60	428.32
514.77	393.21
514.95	325.33
515.12	393.21
515.29	433.00
515.47	468.11
515.64	365.12
515.81	430.66
515.99	418.96
516.16	374.49
516.33	437.68
516.51	456.40
516.68	393.21
516.85	383.85
517.03	470.45
517.20	437.68
517.37	418.96
517.54	449.38
517.72	346.40
517.89	421.30
518.06	411.93
518.24	421.30
518.41	449.38
518.58	437.68
518.75	421.30
518.93	372.15
519.10	397.89
519.27	383.85
519.45	397.89
519.62	383.85
519.79	482.15
519.96	414.27
520.14	454.06
520.31	388.53
520.48	430.66
520.65	505.56
520.83	407.25
521.00	496.19
521.17	447.04
521.34	355.76
521.52	390.87
521.69	430.66
521.86	449.38
522.03	423.64
522.20	489.17
522.38	458.74
522.55	365.12
522.72	416.62
522.89	425.98
523.07	545.34
523.24	320.65
523.41	418.96
523.58	372.15
523.75	451.72
523.92	365.12
524.10	449.38
524.27	330.02
524.44	416.62
524.61	428.32
524.78	407.25
524.96	411.93
525.13	489.17
525.30	437.68
525.47	463.43
525.64	437.68
525.81	435.34
525.98	383.85
526.16	367.46
526.33	313.63
526.50	428.32
526.67	369.80
526.84	421.30
527.01	402.57
527.18	379.17
527.36	440.02
527.53	404.91
527.70	418.96
527.87	440.02
528.04	437.68
528.21	414.27
528.38	423.64
528.55	472.79
528.72	416.62
528.89	428.32
529.07	372.15
529.24	435.34
529.41	423.64
529.58	421.30
529.75	358.10
529.92	437.68
530.09	421.30
530.26	447.04
530.43	332.36
530.60	440.02
530.77	428.32
530.94	383.85
531.11	372.15
531.28	440.02
531.46	421.30
531.63	416.62
531.80	430.66
531.97	461.09
532.14	395.55
532.31	400.23
532.48	428.32
532.65	416.62
532.82	397.89
532.99	454.06
533.16	428.32
533.33	458.74
533.50	346.40
533.67	383.85
533.84	372.15
534.01	402.57
534.18	416.62
534.35	416.62
534.52	435.34
534.69	470.45
534.86	402.57
535.03	418.96
535.20	400.23
535.37	393.21
535.54	461.09
535.71	465.77
535.88	416.62
536.05	355.76
536.22	416.62
536.38	351.08
536.55	454.06
536.72	456.40
536.89	416.62
537.06	400.23
537.23	395.55
537.40	433.00
537.57	423.64
537.74	379.17
537.91	325.33
538.08	451.72
538.25	435.34
538.42	414.27
538.59	512.58
538.75	479.81
538.92	337.04
539.09	393.21
539.26	402.57
539.43	477.47
539.60	472.79
539.77	430.66
539.94	397.89
540.11	465.77
540.28	393.21
540.44	414.27
540.61	400.23
540.78	430.66
540.95	348.74
541.12	416.62
541.29	444.70
541.46	386.19
541.62	489.17
541.79	353.42
541.96	418.96
542.13	360.44
542.30	421.30
542.47	447.04
542.63	418.96
542.80	479.81
542.97	447.04
543.14	484.49
543.31	477.47
543.48	400.23
543.64	477.47
543.81	451.72
543.98	411.93
544.15	430.66
544.32	486.83
544.48	418.96
544.65	402.57
544.82	383.85
544.99	458.74
545.16	472.79
545.32	379.17
545.49	425.98
545.66	411.93
545.83	409.59
546.00	451.72
546.16	416.62
546.33	339.38
546.50	463.43
546.67	461.09
546.83	388.53
547.00	440.02
547.17	376.83
547.34	402.57
547.50	489.17
547.67	397.89
547.84	404.91
548.00	374.49
548.17	437.68
548.34	435.34
548.51	409.59
548.67	409.59
548.84	411.93
549.01	393.21
549.18	425.98
549.34	425.98
549.51	416.62
549.68	376.83
549.84	381.51
550.01	351.08
550.18	479.81
550.34	442.36
550.51	430.66
550.68	477.47
550.84	425.98
551.01	402.57
551.18	440.02
551.34	381.51
551.51	418.96
551.68	320.65
551.84	433.00
552.01	440.02
552.18	397.89
552.34	390.87
552.51	386.19
552.68	449.38
552.84	355.76
553.01	430.66
553.18	435.34
553.34	409.59
553.51	407.25
553.67	416.62
553.84	409.59
554.01	489.17
554.17	442.36
554.34	407.25
554.51	416.62
554.67	477.47
554.84	463.43
555.00	430.66
555.17	498.53
555.33	430.66
555.50	409.59
555.67	376.83
555.83	418.96
556.00	327.68
556.16	582.79
556.33	458.74
556.50	435.34
556.66	362.78
556.83	369.80
556.99	381.51
557.16	402.57
557.32	472.79
557.49	437.68
557.65	383.85
557.82	402.57
557.98	320.65
558.15	355.76
558.32	418.96
558.48	360.44
558.65	430.66
558.81	475.13
558.98	458.74
559.14	451.72
559.31	411.93
559.47	505.56
559.64	465.77
559.80	435.34
559.97	411.93
560.13	447.04
560.30	407.25
560.46	470.45
560.63	423.64
560.79	421.30
560.96	425.98
561.12	428.32
561.29	397.89
561.45	418.96
561.61	437.68
561.78	500.87
561.94	348.74
562.11	442.36
562.27	425.98
562.44	393.21
562.60	383.85
562.77	322.99
562.93	482.15
563.10	461.09
563.26	414.27
563.42	365.12
563.59	433.00
563.75	407.25
563.92	437.68
564.08	395.55
564.24	458.74
564.41	433.00
564.57	390.87
564.74	411.93
564.90	479.81
565.07	442.36
565.23	362.78
565.39	430.66
565.56	365.12
565.72	402.57
565.88	381.51
566.05	435.34
566.21	416.62
566.38	395.55
566.54	430.66
566.70	379.17
566.87	440.02
567.03	416.62
567.19	400.23
567.36	421.30
567.52	458.74
567.68	395.55
567.85	472.79
568.01	454.06
568.17	381.51
568.34	395.55
568.50	465.77
568.66	414.27
568.83	454.06
568.99	409.59
569.15	489.17
569.32	355.76
569.48	428.32
569.64	454.06
569.81	414.27
569.97	397.89
570.13	402.57
570.30	428.32
570.46	433.00
570.62	437.68
570.78	395.55
570.95	430.66
571.11	475.13
571.27	482.15
571.43	341.72
571.60	418.96
571.76	421.30
571.92	386.19
572.09	402.57
572.25	390.87
572.41	418.96
572.57	428.32
572.74	486.83
572.90	418.96
573.06	393.21
573.22	393.21
573.38	498.53
573.55	472.79
573.71	367.46
573.87	400.23
574.03	388.53
574.20	334.70
574.36	425.98
574.52	393.21
574.68	358.10
574.84	372.15
575.01	414.27
575.17	458.74
575.33	332.36
575.49	437.68
575.65	451.72
575.82	393.21
575.98	400.23
576.14	463.43
576.30	409.59
576.46	414.27
576.62	372.15
576.79	433.00
576.95	493.85
577.11	484.49
577.27	479.81
577.43	379.17
577.59	416.62
577.75	425.98
577.92	463.43
578.08	437.68
578.24	372.15
578.40	430.66
578.56	451.72
578.72	447.04
578.88	386.19
579.04	395.55
579.21	423.64
579.37	374.49
579.53	491.51
579.69	435.34
579.85	418.96
580.01	414.27
580.17	374.49
580.33	397.89
580.49	440.02
580.65	425.98
580.82	395.55
580.98	447.04
581.14	484.49
581.30	526.62
581.46	435.34
581.62	402.57
581.78	442.36
581.94	454.06
582.10	437.68
582.26	414.27
582.42	376.83
582.58	383.85
582.74	397.89
582.90	400.23
583.06	379.17
583.22	418.96
583.38	414.27
583.54	383.85
583.70	472.79
583.86	416.62
584.02	362.78
584.18	463.43
584.34	383.85
584.50	330.02
584.66	425.98
584.82	425.98
584.98	428.32
585.14	484.49
585.30	449.38
585.46	458.74
585.62	461.09
585.78	423.64
585.94	379.17
586.10	454.06
586.26	428.32
586.42	414.27
586.58	430.66
586.74	421.30
586.90	444.70
587.06	339.38
587.22	397.89
587.38	353.42
587.54	447.04
587.70	376.83
587.86	386.19
588.02	418.96
588.18	402.57
588.34	404.91
588.49	416.62
588.65	404.91
588.81	383.85
588.97	425.98
589.13	472.79
589.29	411.93
589.45	437.68
589.61	435.34
589.77	437.68
589.93	386.19
590.08	409.59
590.24	395.55
590.40	374.49
590.56	463.43
590.72	505.56
590.88	416.62
591.04	444.70
591.20	423.64
591.35	423.64
591.51	411.93
591.67	472.79
591.83	397.89
591.99	479.81
592.15	428.32
592.31	425.98
592.46	381.51
592.62	456.40
592.78	362.78
592.94	348.74
593.10	423.64
593.26	470.45
593.41	402.57
593.57	454.06
593.73	428.32
593.89	390.87
594.05	402.57
594.20	458.74
594.36	440.02
594.52	442.36
594.68	418.96
594.84	411.93
594.99	440.02
595.15	421.30
595.31	503.22
595.47	465.77
595.62	463.43
595.78	428.32
595.94	440.02
596.10	444.70
596.25	404.91
596.41	507.90
596.57	458.74
596.73	428.32
596.88	395.55
597.04	397.89
597.20	344.06
597.36	451.72
597.51	465.77
597.67	421.30
597.83	425.98
597.99	386.19
598.14	400.23
598.30	435.34
598.46	423.64
598.61	447.04
598.77	379.17
598.93	470.45
599.09	435.34
599.24	435.34
599.40	458.74
599.56	414.27
599.71	414.27
599.87	454.06
600.03	376.83
600.18	430.66
600.34	440.02
600.50	379.17
600.65	409.59
600.81	519.60
600.97	416.62
601.12	416.62
601.28	444.70
601.44	442.36
601.59	456.40
601.75	440.02
601.91	489.17
602.06	409.59
602.22	397.89
602.37	463.43
602.53	430.66
602.69	402.57
602.84	416.62
603.00	428.32
603.16	374.49
603.31	463.43
603.47	372.15
603.62	433.00
603.78	454.06
603.94	505.56
604.09	418.96
604.25	404.91
604.40	421.30
604.56	454.06
604.71	383.85
604.87	444.70
605.03	409.59
605.18	404.91
605.34	386.19
605.49	418.96
605.65	472.79
605.80	351.08
605.96	416.62
606.12	414.27
606.27	358.10
606.43	404.91
606.58	414.27
606.74	397.89
606.89	458.74
607.05	409.59
607.20	421.30
607.36	341.72
607.51	437.68
607.67	393.21
607.82	484.49
607.98	397.89
608.13	519.60
608.29	489.17
608.44	348.74
608.60	461.09
608.75	390.87
608.91	421.30
609.06	440.02
609.22	491.51
609.37	428.32
609.53	449.38
609.68	435.34
609.84	407.25
609.99	388.53
610.15	421.30
610.30	458.74
610.46	447.04
610.61	461.09
610.76	374.49
610.92	379.17
611.07	360.44
611.23	496.19
611.38	468.11
611.54	360.44
611.69	430.66
611.84	449.38
612.00	416.62
612.15	451.72
612.31	425.98
612.46	409.59
612.62	374.49
612.77	423.64
612.92	362.78
613.08	447.04
613.23	374.49
613.39	381.51
613.54	367.46
613.69	393.21
613.85	376.83
614.00	425.98
614.15	407.25
614.31	327.68
614.46	435.34
614.62	402.57
614.77	430.66
614.92	402.57
615.08	379.17
615.23	433.00
615.38	430.66
615.54	423.64
615.69	353.42
615.84	404.91
616.00	418.96
616.15	416.62
616.30	365.12
616.46	369.80
616.61	367.46
616.76	442.36
616.92	482.15
617.07	416.62
617.22	468.11
617.37	395.55
617.53	484.49
617.68	409.59
617.83	334.70
617.99	369.80
618.14	479.81
618.29	421.30
618.45	423.64
618.60	355.76
618.75	461.09
618.90	353.42
619.06	428.32
619.21	447.04
619.36	421.30
619.51	423.64
619.67	411.93
619.82	428.32
619.97	346.40
620.12	428.32
620.28	430.66
620.43	444.70
620.58	437.68
620.73	397.89
620.89	475.13
621.04	489.17
621.19	409.59
621.34	390.87
621.49	390.87
621.65	444.70
621.80	440.02
621.95	465.77
622.10	479.81
622.25	369.80
622.41	407.25
622.56	404.91
622.71	470.45
622.86	409.59
623.01	395.55
623.16	435.34
623.32	402.57
623.47	402.57
623.62	393.21
623.77	437.68
623.92	379.17
624.07	496.19
624.23	379.17
624.38	505.56
624.53	353.42
624.68	386.19
624.83	491.51
624.98	416.62
625.13	451.72
625.29	395.55
625.44	440.02
625.59	404.91
625.74	383.85
625.89	386.19
626.04	440.02
626.19	451.72
626.34	491.51
626.49	416.62
626.65	407.25
626.80	395.55
626.95	458.74
627.10	393.21
627.25	407.25
627.40	416.62
627.55	397.89
627.70	449.38
627.85	416.62
628.00	379.17
628.15	423.64
628.30	463.43
628.45	463.43
628.60	418.96
628.76	393.21
628.91	430.66
629.06	367.46
629.21	372.15
629.36	425.98
629.51	348.74
629.66	416.62
629.81	425.98
629.96	393.21
630.11	397.89
630.26	500.87
630.41	421.30
630.56	437.68
630.71	484.49
630.86	404.91
631.01	369.80
631.16	388.53
631.31	395.55
631.46	442.36
631.61	423.64
631.76	449.38
631.91	393.21
632.06	423.64
632.21	463.43
632.36	404.91
632.51	395.55
632.66	376.83
632.81	353.42
632.96	470.45
633.10	393.21
633.25	458.74
633.40	463.43
633.55	449.38
633.70	393.21
633.85	379.17
634.00	395.55
634.15	351.08
634.30	435.34
634.45	407.25
634.60	390.87
634.75	425.98
634.90	451.72
635.05	395.55
635.19	433.00
635.34	388.53
635.49	390.87
635.64	414.27
635.79	395.55
635.94	404.91
636.09	437.68
636.24	454.06
636.39	465.77
636.53	416.62
636.68	418.96
636.83	351.08
636.98	430.66
637.13	402.57
637.28	428.32
637.43	512.58
637.57	407.25
637.72	395.55
637.87	428.32
638.02	383.85
638.17	411.93
638.32	414.27
638.46	388.53
638.61	444.70
638.76	395.55
638.91	374.49
639.06	447.04
639.20	346.40
639.35	442.36
639.50	355.76
639.65	374.49
639.80	358.10
639.94	365.12
640.09	416.62
640.24	416.62
640.39	444.70
640.54	451.72
640.68	390.87
640.83	470.45
640.98	404.91
641.13	409.59
641.27	381.51
641.42	407.25
641.57	458.74
641.72	395.55
641.86	449.38
642.01	442.36
642.16	433.00
642.31	362.78
642.45	381.51
642.60	433.00
642.75	397.89
642.90	390.87
643.04	379.17
643.19	430.66
643.34	435.34
643.48	477.47
643.63	442.36
643.78	435.34
643.93	461.09
644.07	369.80
644.22	397.89
644.37	444.70
644.51	386.19
644.66	451.72
644.81	428.32
644.95	463.43
645.10	374.49
645.25	315.97
645.39	447.04
645.54	395.55
645.69	484.49
645.83	341.72
645.98	505.56
646.13	404.91
646.27	433.00
646.42	456.40
646.57	379.17
646.71	425.98
646.86	442.36
647.00	330.02
647.15	454.06
647.30	383.85
647.44	402.57
647.59	404.91
647.74	383.85
647.88	390.87
648.03	416.62
648.17	421.30
648.32	411.93
648.47	383.85
648.61	411.93
648.76	320.65
648.90	353.42
649.05	449.38
649.20	421.30
649.34	411.93
649.49	447.04
649.63	374.49
649.78	437.68
649.92	425.98
650.07	447.04
650.21	411.93
650.36	479.81
650.51	428.32
650.65	433.00
650.80	472.79
650.94	353.42
651.09	407.25
651.23	369.80
651.38	367.46
651.52	428.32
651.67	435.34
651.81	442.36
651.96	404.91
652.10	402.57
652.25	423.64
652.39	458.74
652.54	418.96
652.68	437.68
652.83	428.32
652.97	482.15
653.12	472.79
653.26	393.21
653.41	372.15
653.55	395.55
653.70	484.49
653.84	449.38
653.99	468.11
654.13	425.98
654.27	372.15
654.42	428.32
654.56	486.83
654.71	414.27
654.85	421.30
655.00	421.30
655.14	470.45
655.29	484.49
655.43	435.34
655.57	330.02
655.72	414.27
655.86	388.53
656.01	461.09
656.15	468.11
656.30	463.43
656.44	465.77
656.58	428.32
656.73	430.66
656.87	451.72
657.01	416.62
657.16	411.93
657.30	362.78
657.45	433.00
657.59	395.55
657.73	379.17
657.88	423.64
658.02	425.98
658.16	383.85
658.31	381.51
658.45	360.44
658.60	409.59
658.74	440.02
658.88	315.97
659.03	402.57
659.17	418.96
659.31	421.30
659.46	437.68
659.60	477.47
659.74	437.68
659.89	430.66
660.03	437.68
660.17	491.51
660.32	376.83
660.46	428.32
660.60	444.70
660.74	465.77
660.89	421.30
661.03	346.40
661.17	374.49
661.32	362.78
661.46	421.30
661.60	393.21
661.74	388.53
661.89	458.74
662.03	463.43
662.17	409.59
662.31	381.51
662.46	386.19
662.60	395.55
662.74	376.83
662.88	454.06
663.03	344.06
663.17	425.98
663.31	433.00
663.45	461.09
663.60	341.72
663.74	423.64
663.88	395.55
664.02	388.53
664.17	360.44
664.31	433.00
664.45	444.70
664.59	458.74
664.73	414.27
664.88	447.04
665.02	447.04
665.16	433.00
665.30	468.11
665.44	433.00
665.59	428.32
665.73	456.40
665.87	435.34
666.01	400.23
666.15	404.91
666.29	416.62
666.44	498.53
666.58	435.34
666.72	393.21
666.86	451.72
667.00	437.68
667.14	404.91
667.28	390.87
667.43	402.57
667.57	430.66
667.71	444.70
667.85	416.62
667.99	451.72
668.13	418.96
668.27	423.64
668.41	367.46
668.56	433.00
668.70	458.74
668.84	440.02
668.98	465.77
669.12	470.45
669.26	416.62
669.40	404.91
669.54	376.83
669.68	440.02
669.82	353.42
669.96	437.68
670.10	346.40
670.25	423.64
670.39	400.23
670.53	425.98
670.67	404.91
670.81	402.57
670.95	414.27
671.09	395.55
671.23	458.74
671.37	435.34
671.51	482.15
671.65	421.30
671.79	372.15
671.93	400.23
672.07	465.77
672.21	400.23
672.35	444.70
672.49	379.17
672.63	421.30
672.77	433.00
672.91	433.00
673.05	449.38
673.19	456.40
673.33	355.76
673.47	475.13
673.61	454.06
673.75	409.59
673.89	447.04
674.03	517.26
674.17	428.32
674.31	461.09
674.45	402.57
674.59	383.85
674.73	400.23
674.87	458.74
675.01	423.64
675.15	414.27
675.29	447.04
675.43	421.30
675.56	451.72
675.70	465.77
675.84	456.40
675.98	430.66
676.12	425.98
676.26	411.93
676.40	411.93
676.54	346.40
676.68	482.15
676.82	390.87
676.96	388.53
677.10	376.83
677.23	369.80
677.37	386.19
677.51	458.74
677.65	498.53
677.79	379.17
677.93	475.13
678.07	433.00
678.21	383.85
678.34	444.70
678.48	393.21
678.62	299.59
678.76	418.96
678.90	402.57
679.04	381.51
679.18	374.49
679.31	402.57
679.45	454.06
679.59	470.45
679.73	372.15
679.87	393.21
680.00	395.55
680.14	409.59
680.28	421.30
680.42	451.72
680.56	461.09
680.70	435.34
680.83	337.04
680.97	369.80
681.11	395.55
681.25	430.66
681.39	409.59
681.52	414.27
681.66	421.30
681.80	435.34
681.94	355.76
682.07	435.34
682.21	430.66
682.35	437.68
682.49	360.44
682.62	425.98
682.76	355.76
682.90	414.27
683.04	472.79
683.17	489.17
683.31	433.00
683.45	456.40
683.59	468.11
683.72	433.00
683.86	402.57
684.00	360.44
684.13	437.68
684.27	402.57
684.41	447.04
684.55	402.57
684.68	358.10
684.82	402.57
684.96	435.34
685.09	400.23
685.23	383.85
685.37	404.91
685.50	472.79
685.64	519.60
685.78	409.59
685.91	418.96
686.05	430.66
686.19	449.38
686.32	381.51
686.46	383.85
686.60	416.62
686.73	411.93
686.87	456.40
687.01	400.23
687.14	444.70
687.28	379.17
687.42	428.32
687.55	407.25
687.69	414.27
687.82	435.34
687.96	449.38
688.10	383.85
688.23	440.02
688.37	440.02
688.50	430.66
688.64	430.66
688.78	388.53
688.91	430.66
689.05	416.62
689.18	404.91
689.32	437.68
689.46	411.93
689.59	491.51
689.73	477.47
689.86	458.74
690.00	402.57
690.13	451.72
690.27	458.74
690.41	388.53
690.54	404.91
690.68	404.91
690.81	433.00
690.95	407.25
691.08	411.93
691.22	376.83
691.35	369.80
691.49	423.64
691.62	454.06
691.76	386.19
691.89	444.70
692.03	388.53
692.16	388.53
692.30	372.15
692.43	397.89
692.57	332.36
692.70	280.86
692.84	444.70
692.97	404.91
693.11	461.09
693.24	430.66
693.38	383.85
693.51	360.44
693.65	465.77
693.78	400.23
693.92	400.23
694.05	437.68
694.19	409.59
694.32	395.55
694.45	388.53
694.59	365.12
694.72	367.46
694.86	435.34
694.99	437.68
695.13	461.09
695.26	358.10
695.39	369.80
695.53	388.53
695.66	395.55
695.80	475.13
695.93	409.59
696.07	404.91
696.20	360.44
696.33	348.74
696.47	416.62
696.60	383.85
696.73	386.19
696.87	454.06
697.00	491.51
697.14	395.55
697.27	442.36
697.40	458.74
697.54	337.04
697.67	472.79
697.80	414.27
697.94	423.64
698.07	346.40
698.21	372.15
698.34	414.27
698.47	379.17
698.61	447.04
698.74	341.72
698.87	458.74
699.01	346.40
699.14	409.59
699.27	374.49
699.40	505.56
699.54	400.23
699.67	372.15
699.80	435.34
699.94	442.36
700.07	362.78
700.20	348.74
700.34	355.76
700.47	421.30
700.60	433.00
700.73	449.38
700.87	418.96
701.00	383.85
701.13	418.96
701.26	367.46
701.40	421.30
701.53	414.27
701.66	374.49
701.79	444.70
701.93	397.89
702.06	423.64
702.19	447.04
702.32	435.34
702.46	433.00
702.59	425.98
702.72	397.89
702.85	458.74
702.99	402.57
703.12	418.96
703.25	418.96
703.38	407.25
703.51	442.36
703.65	390.87
703.78	451.72
703.91	451.72
704.04	444.70
704.17	400.23
704.31	397.89
704.44	416.62
704.57	402.57
704.70	456.40
704.83	414.27
704.96	442.36
705.10	433.00
705.23	414.27
>>>>>End Processed Spectral Data<<<<<
