SpectraSuite Data File
++++++++++++++++++++++++++++++++++++
Date: Fri Oct 25 12:10:35 EDT 2013
User: price-jones
Dark Spectrum Present: No
Reference Spectrum Present: No
Number of Sampled Component Spectra: 1
Spectrometers: USB2+H05261
Integration Time (usec): 100000 (USB2+H05261)
Spectra Averaged: 1 (USB2+H05261)
Boxcar Smoothing: 0 (USB2+H05261)
Correct for Electrical Dark: No (USB2+H05261)
Strobe/Lamp Enabled: No (USB2+H05261)
Correct for Detector Non-linearity: No (USB2+H05261)
Correct for Stray Light: No (USB2+H05261)
Number of Pixels in Processed Spectrum: 2048
>>>>>Begin Processed Spectral Data<<<<<
365.73	322.99
365.92	322.99
366.12	322.99
366.32	222.35
366.52	243.42
366.72	297.25
366.91	257.46
367.11	208.31
367.31	248.10
367.51	241.08
367.70	280.86
367.90	264.48
368.10	259.80
368.30	208.31
368.49	297.25
368.69	208.31
368.89	196.60
369.09	227.03
369.28	266.82
369.48	266.82
369.68	259.80
369.87	308.95
370.07	369.80
370.27	318.31
370.47	294.91
370.66	341.72
370.86	299.59
371.06	409.59
371.25	346.40
371.45	409.59
371.65	374.49
371.84	423.64
372.04	395.55
372.24	369.80
372.44	322.99
372.63	418.96
372.83	447.04
373.03	440.02
373.22	355.76
373.42	393.21
373.62	423.64
373.81	379.17
374.01	440.02
374.21	407.25
374.40	433.00
374.60	414.27
374.79	351.08
374.99	367.46
375.19	433.00
375.38	430.66
375.58	430.66
375.78	409.59
375.97	456.40
376.17	330.02
376.37	379.17
376.56	395.55
376.76	454.06
376.95	433.00
377.15	454.06
377.35	414.27
377.54	461.09
377.74	376.83
377.93	393.21
378.13	395.55
378.33	444.70
378.52	418.96
378.72	379.17
378.91	451.72
379.11	437.68
379.31	463.43
379.50	379.17
379.70	423.64
379.89	362.78
380.09	400.23
380.28	454.06
380.48	383.85
380.68	444.70
380.87	475.13
381.07	362.78
381.26	416.62
381.46	376.83
381.65	381.51
381.85	402.57
382.04	379.17
382.24	418.96
382.43	360.44
382.63	428.32
382.83	404.91
383.02	447.04
383.22	451.72
383.41	407.25
383.61	440.02
383.80	402.57
384.00	374.49
384.19	388.53
384.39	416.62
384.58	362.78
384.78	428.32
384.97	416.62
385.17	440.02
385.36	444.70
385.56	344.06
385.75	423.64
385.95	374.49
386.14	339.38
386.34	404.91
386.53	510.24
386.72	386.19
386.92	383.85
387.11	454.06
387.31	346.40
387.50	393.21
387.70	390.87
387.89	397.89
388.09	376.83
388.28	416.62
388.48	440.02
388.67	416.62
388.86	440.02
389.06	388.53
389.25	383.85
389.45	428.32
389.64	444.70
389.84	381.51
390.03	449.38
390.22	418.96
390.42	404.91
390.61	388.53
390.81	395.55
391.00	346.40
391.19	489.17
391.39	400.23
391.58	461.09
391.78	365.12
391.97	440.02
392.16	402.57
392.36	489.17
392.55	428.32
392.75	423.64
392.94	435.34
393.13	411.93
393.33	400.23
393.52	421.30
393.71	482.15
393.91	344.06
394.10	440.02
394.29	379.17
394.49	381.51
394.68	395.55
394.88	397.89
395.07	409.59
395.26	465.77
395.46	390.87
395.65	397.89
395.84	409.59
396.04	430.66
396.23	386.19
396.42	322.99
396.62	440.02
396.81	421.30
397.00	425.98
397.19	440.02
397.39	411.93
397.58	442.36
397.77	362.78
397.97	376.83
398.16	418.96
398.35	381.51
398.55	313.63
398.74	456.40
398.93	451.72
399.12	411.93
399.32	447.04
399.51	428.32
399.70	491.51
399.90	404.91
400.09	379.17
400.28	376.83
400.47	346.40
400.67	414.27
400.86	339.38
401.05	353.42
401.24	383.85
401.44	407.25
401.63	395.55
401.82	344.06
402.01	353.42
402.21	423.64
402.40	402.57
402.59	428.32
402.78	372.15
402.97	447.04
403.17	442.36
403.36	449.38
403.55	360.44
403.74	414.27
403.93	442.36
404.13	397.89
404.32	409.59
404.51	418.96
404.70	489.17
404.89	379.17
405.09	496.19
405.28	414.27
405.47	367.46
405.66	386.19
405.85	388.53
406.05	411.93
406.24	411.93
406.43	465.77
406.62	383.85
406.81	411.93
407.00	461.09
407.20	395.55
407.39	449.38
407.58	465.77
407.77	428.32
407.96	369.80
408.15	414.27
408.34	388.53
408.54	414.27
408.73	381.51
408.92	400.23
409.11	423.64
409.30	470.45
409.49	407.25
409.68	416.62
409.87	428.32
410.07	407.25
410.26	365.12
410.45	339.38
410.64	468.11
410.83	430.66
411.02	449.38
411.21	365.12
411.40	435.34
411.59	379.17
411.78	407.25
411.98	358.10
412.17	444.70
412.36	360.44
412.55	421.30
412.74	421.30
412.93	414.27
413.12	372.15
413.31	376.83
413.50	430.66
413.69	397.89
413.88	390.87
414.07	402.57
414.26	407.25
414.45	435.34
414.64	454.06
414.83	402.57
415.02	400.23
415.22	489.17
415.41	376.83
415.60	414.27
415.79	404.91
415.98	444.70
416.17	411.93
416.36	390.87
416.55	435.34
416.74	463.43
416.93	418.96
417.12	365.12
417.31	383.85
417.50	402.57
417.69	421.30
417.88	404.91
418.07	397.89
418.26	414.27
418.45	437.68
418.64	437.68
418.83	386.19
419.02	498.53
419.21	383.85
419.39	472.79
419.58	358.10
419.77	402.57
419.96	456.40
420.15	456.40
420.34	388.53
420.53	390.87
420.72	402.57
420.91	475.13
421.10	383.85
421.29	381.51
421.48	449.38
421.67	447.04
421.86	411.93
422.05	430.66
422.24	440.02
422.43	435.34
422.61	327.68
422.80	407.25
422.99	369.80
423.18	374.49
423.37	484.49
423.56	400.23
423.75	444.70
423.94	393.21
424.13	465.77
424.32	376.83
424.50	386.19
424.69	346.40
424.88	475.13
425.07	425.98
425.26	402.57
425.45	428.32
425.64	430.66
425.83	320.65
426.01	325.33
426.20	416.62
426.39	414.27
426.58	477.47
426.77	404.91
426.96	416.62
427.15	381.51
427.33	400.23
427.52	461.09
427.71	409.59
427.90	386.19
428.09	362.78
428.28	351.08
428.46	428.32
428.65	372.15
428.84	428.32
429.03	372.15
429.22	374.49
429.40	430.66
429.59	355.76
429.78	444.70
429.97	425.98
430.16	440.02
430.34	388.53
430.53	334.70
430.72	407.25
430.91	416.62
431.10	418.96
431.28	390.87
431.47	433.00
431.66	433.00
431.85	390.87
432.03	433.00
432.22	484.49
432.41	351.08
432.60	489.17
432.79	353.42
432.97	433.00
433.16	430.66
433.35	362.78
433.54	416.62
433.72	416.62
433.91	414.27
434.10	400.23
434.28	454.06
434.47	428.32
434.66	442.36
434.85	365.12
435.03	407.25
435.22	482.15
435.41	461.09
435.59	444.70
435.78	416.62
435.97	425.98
436.16	475.13
436.34	428.32
436.53	430.66
436.72	416.62
436.90	512.58
437.09	423.64
437.28	411.93
437.46	397.89
437.65	435.34
437.84	449.38
438.02	500.87
438.21	416.62
438.40	425.98
438.58	435.34
438.77	388.53
438.96	346.40
439.14	409.59
439.33	353.42
439.52	421.30
439.70	381.51
439.89	390.87
440.08	334.70
440.26	339.38
440.45	374.49
440.63	472.79
440.82	458.74
441.01	409.59
441.19	418.96
441.38	440.02
441.57	479.81
441.75	458.74
441.94	411.93
442.12	454.06
442.31	369.80
442.50	418.96
442.68	418.96
442.87	472.79
443.05	372.15
443.24	440.02
443.43	423.64
443.61	470.45
443.80	400.23
443.98	351.08
444.17	393.21
444.35	433.00
444.54	386.19
444.73	402.57
444.91	468.11
445.10	477.47
445.28	442.36
445.47	507.90
445.65	463.43
445.84	388.53
446.02	418.96
446.21	395.55
446.39	407.25
446.58	456.40
446.77	407.25
446.95	393.21
447.14	433.00
447.32	458.74
447.51	465.77
447.69	428.32
447.88	346.40
448.06	517.26
448.25	421.30
448.43	421.30
448.62	393.21
448.80	468.11
448.99	402.57
449.17	411.93
449.36	344.06
449.54	374.49
449.73	503.22
449.91	407.25
450.10	451.72
450.28	449.38
450.46	397.89
450.65	477.47
450.83	456.40
451.02	437.68
451.20	372.15
451.39	451.72
451.57	355.76
451.76	372.15
451.94	435.34
452.13	447.04
452.31	486.83
452.49	454.06
452.68	397.89
452.86	402.57
453.05	461.09
453.23	379.17
453.42	351.08
453.60	355.76
453.78	449.38
453.97	409.59
454.15	393.21
454.34	489.17
454.52	393.21
454.70	440.02
454.89	381.51
455.07	402.57
455.26	407.25
455.44	440.02
455.62	418.96
455.81	386.19
455.99	355.76
456.17	428.32
456.36	313.63
456.54	465.77
456.73	418.96
456.91	447.04
457.09	411.93
457.28	418.96
457.46	386.19
457.64	423.64
457.83	482.15
458.01	369.80
458.19	430.66
458.38	388.53
458.56	433.00
458.74	418.96
458.93	393.21
459.11	341.72
459.29	381.51
459.48	470.45
459.66	456.40
459.84	517.26
460.03	489.17
460.21	493.85
460.39	430.66
460.57	372.15
460.76	414.27
460.94	355.76
461.12	407.25
461.31	365.12
461.49	351.08
461.67	447.04
461.85	388.53
462.04	423.64
462.22	781.74
462.40	383.85
462.59	425.98
462.77	428.32
462.95	409.59
463.13	416.62
463.32	465.77
463.50	411.93
463.68	493.85
463.86	493.85
464.05	463.43
464.23	418.96
464.41	414.27
464.59	402.57
464.78	395.55
464.96	435.34
465.14	461.09
465.32	425.98
465.50	358.10
465.69	468.11
465.87	442.36
466.05	416.62
466.23	442.36
466.41	393.21
466.60	425.98
466.78	421.30
466.96	428.32
467.14	482.15
467.32	400.23
467.51	449.38
467.69	416.62
467.87	461.09
468.05	500.87
468.23	402.57
468.41	444.70
468.60	418.96
468.78	409.59
468.96	486.83
469.14	442.36
469.32	409.59
469.50	376.83
469.69	435.34
469.87	379.17
470.05	437.68
470.23	421.30
470.41	393.21
470.59	407.25
470.77	411.93
470.95	477.47
471.14	463.43
471.32	444.70
471.50	472.79
471.68	463.43
471.86	437.68
472.04	493.85
472.22	400.23
472.40	407.25
472.58	454.06
472.77	386.19
472.95	404.91
473.13	486.83
473.31	477.47
473.49	442.36
473.67	409.59
473.85	435.34
474.03	451.72
474.21	447.04
474.39	479.81
474.57	456.40
474.75	428.32
474.93	393.21
475.12	409.59
475.30	461.09
475.48	500.87
475.66	454.06
475.84	416.62
476.02	428.32
476.20	332.36
476.38	365.12
476.56	440.02
476.74	353.42
476.92	451.72
477.10	393.21
477.28	379.17
477.46	458.74
477.64	423.64
477.82	393.21
478.00	454.06
478.18	447.04
478.36	411.93
478.54	437.68
478.72	374.49
478.90	461.09
479.08	517.26
479.26	428.32
479.44	425.98
479.62	423.64
479.80	400.23
479.98	414.27
480.16	451.72
480.34	409.59
480.52	418.96
480.70	386.19
480.88	383.85
481.06	489.17
481.24	404.91
481.41	339.38
481.59	379.17
481.77	425.98
481.95	411.93
482.13	498.53
482.31	393.21
482.49	407.25
482.67	571.09
482.85	435.34
483.03	395.55
483.21	404.91
483.39	348.74
483.57	411.93
483.74	456.40
483.92	379.17
484.10	472.79
484.28	369.80
484.46	472.79
484.64	367.46
484.82	407.25
485.00	402.57
485.18	482.15
485.35	437.68
485.53	376.83
485.71	425.98
485.89	447.04
486.07	444.70
486.25	416.62
486.43	374.49
486.61	465.77
486.78	463.43
486.96	351.08
487.14	435.34
487.32	433.00
487.50	390.87
487.68	374.49
487.85	386.19
488.03	402.57
488.21	400.23
488.39	348.74
488.57	447.04
488.75	423.64
488.92	425.98
489.10	423.64
489.28	416.62
489.46	423.64
489.64	400.23
489.81	430.66
489.99	454.06
490.17	437.68
490.35	428.32
490.53	395.55
490.70	411.93
490.88	428.32
491.06	425.98
491.24	402.57
491.41	344.06
491.59	388.53
491.77	395.55
491.95	383.85
492.13	428.32
492.30	421.30
492.48	449.38
492.66	447.04
492.84	351.08
493.01	454.06
493.19	418.96
493.37	411.93
493.54	407.25
493.72	379.17
493.90	470.45
494.08	409.59
494.25	325.33
494.43	451.72
494.61	423.64
494.79	346.40
494.96	416.62
495.14	351.08
495.32	330.02
495.49	374.49
495.67	404.91
495.85	388.53
496.02	334.70
496.20	402.57
496.38	430.66
496.55	470.45
496.73	444.70
496.91	388.53
497.09	376.83
497.26	390.87
497.44	393.21
497.62	425.98
497.79	425.98
497.97	388.53
498.14	472.79
498.32	393.21
498.50	367.46
498.67	367.46
498.85	498.53
499.03	414.27
499.20	353.42
499.38	449.38
499.56	442.36
499.73	440.02
499.91	404.91
500.08	372.15
500.26	489.17
500.44	397.89
500.61	500.87
500.79	374.49
500.97	416.62
501.14	430.66
501.32	397.89
501.49	393.21
501.67	386.19
501.84	411.93
502.02	435.34
502.20	430.66
502.37	355.76
502.55	383.85
502.72	358.10
502.90	400.23
503.07	402.57
503.25	381.51
503.43	416.62
503.60	449.38
503.78	402.57
503.95	437.68
504.13	475.13
504.30	409.59
504.48	458.74
504.65	442.36
504.83	456.40
505.01	404.91
505.18	425.98
505.36	367.46
505.53	353.42
505.71	437.68
505.88	421.30
506.06	416.62
506.23	416.62
506.41	418.96
506.58	404.91
506.76	416.62
506.93	447.04
507.11	484.49
507.28	423.64
507.46	402.57
507.63	463.43
507.81	456.40
507.98	440.02
508.16	379.17
508.33	435.34
508.50	470.45
508.68	407.25
508.85	411.93
509.03	358.10
509.20	458.74
509.38	416.62
509.55	383.85
509.73	442.36
509.90	451.72
510.08	423.64
510.25	418.96
510.42	416.62
510.60	381.51
510.77	458.74
510.95	411.93
511.12	475.13
511.30	442.36
511.47	437.68
511.64	393.21
511.82	449.38
511.99	360.44
512.17	470.45
512.34	386.19
512.51	425.98
512.69	367.46
512.86	444.70
513.04	372.15
513.21	512.58
513.38	433.00
513.56	372.15
513.73	355.76
513.90	379.17
514.08	451.72
514.25	463.43
514.43	407.25
514.60	440.02
514.77	430.66
514.95	428.32
515.12	458.74
515.29	362.78
515.47	409.59
515.64	404.91
515.81	367.46
515.99	444.70
516.16	409.59
516.33	393.21
516.51	390.87
516.68	383.85
516.85	444.70
517.03	435.34
517.20	372.15
517.37	409.59
517.54	418.96
517.72	404.91
517.89	416.62
518.06	397.89
518.24	470.45
518.41	425.98
518.58	437.68
518.75	409.59
518.93	458.74
519.10	416.62
519.27	418.96
519.45	437.68
519.62	402.57
519.79	390.87
519.96	407.25
520.14	458.74
520.31	451.72
520.48	388.53
520.65	449.38
520.83	454.06
521.00	428.32
521.17	435.34
521.34	414.27
521.52	367.46
521.69	411.93
521.86	393.21
522.03	500.87
522.20	454.06
522.38	440.02
522.55	479.81
522.72	442.36
522.89	435.34
523.07	498.53
523.24	486.83
523.41	381.51
523.58	414.27
523.75	358.10
523.92	430.66
524.10	409.59
524.27	458.74
524.44	407.25
524.61	468.11
524.78	348.74
524.96	416.62
525.13	479.81
525.30	425.98
525.47	456.40
525.64	390.87
525.81	435.34
525.98	365.12
526.16	404.91
526.33	397.89
526.50	358.10
526.67	409.59
526.84	390.87
527.01	418.96
527.18	435.34
527.36	449.38
527.53	374.49
527.70	411.93
527.87	297.25
528.04	421.30
528.21	402.57
528.38	395.55
528.55	472.79
528.72	442.36
528.89	404.91
529.07	393.21
529.24	477.47
529.41	383.85
529.58	379.17
529.75	414.27
529.92	463.43
530.09	449.38
530.26	416.62
530.43	444.70
530.60	423.64
530.77	393.21
530.94	315.97
531.11	428.32
531.28	407.25
531.46	404.91
531.63	407.25
531.80	402.57
531.97	344.06
532.14	421.30
532.31	402.57
532.48	428.32
532.65	496.19
532.82	379.17
532.99	449.38
533.16	416.62
533.33	376.83
533.50	362.78
533.67	388.53
533.84	428.32
534.01	365.12
534.18	360.44
534.35	404.91
534.52	449.38
534.69	423.64
534.86	390.87
535.03	425.98
535.20	379.17
535.37	404.91
535.54	360.44
535.71	437.68
535.88	440.02
536.05	435.34
536.22	369.80
536.38	423.64
536.55	411.93
536.72	407.25
536.89	425.98
537.06	435.34
537.23	463.43
537.40	444.70
537.57	381.51
537.74	456.40
537.91	440.02
538.08	463.43
538.25	411.93
538.42	397.89
538.59	437.68
538.75	433.00
538.92	416.62
539.09	395.55
539.26	437.68
539.43	428.32
539.60	393.21
539.77	463.43
539.94	440.02
540.11	376.83
540.28	395.55
540.44	411.93
540.61	421.30
540.78	433.00
540.95	388.53
541.12	435.34
541.29	383.85
541.46	491.51
541.62	456.40
541.79	444.70
541.96	442.36
542.13	374.49
542.30	442.36
542.47	425.98
542.63	409.59
542.80	407.25
542.97	435.34
543.14	402.57
543.31	472.79
543.48	404.91
543.64	461.09
543.81	388.53
543.98	348.74
544.15	447.04
544.32	428.32
544.48	423.64
544.65	433.00
544.82	416.62
544.99	454.06
545.16	489.17
545.32	381.51
545.49	428.32
545.66	433.00
545.83	376.83
546.00	348.74
546.16	414.27
546.33	407.25
546.50	425.98
546.67	447.04
546.83	430.66
547.00	456.40
547.17	365.12
547.34	386.19
547.50	425.98
547.67	444.70
547.84	383.85
548.00	418.96
548.17	372.15
548.34	353.42
548.51	437.68
548.67	388.53
548.84	409.59
549.01	447.04
549.18	440.02
549.34	442.36
549.51	414.27
549.68	381.51
549.84	360.44
550.01	407.25
550.18	505.56
550.34	456.40
550.51	334.70
550.68	423.64
550.84	407.25
551.01	372.15
551.18	407.25
551.34	454.06
551.51	468.11
551.68	383.85
551.84	414.27
552.01	470.45
552.18	418.96
552.34	421.30
552.51	465.77
552.68	418.96
552.84	500.87
553.01	341.72
553.18	454.06
553.34	451.72
553.51	367.46
553.67	404.91
553.84	472.79
554.01	440.02
554.17	456.40
554.34	411.93
554.51	402.57
554.67	409.59
554.84	486.83
555.00	423.64
555.17	404.91
555.33	423.64
555.50	414.27
555.67	423.64
555.83	372.15
556.00	479.81
556.16	566.41
556.33	442.36
556.50	351.08
556.66	351.08
556.83	421.30
556.99	449.38
557.16	456.40
557.32	339.38
557.49	339.38
557.65	374.49
557.82	449.38
557.98	400.23
558.15	395.55
558.32	430.66
558.48	395.55
558.65	404.91
558.81	435.34
558.98	381.51
559.14	416.62
559.31	498.53
559.47	477.47
559.64	381.51
559.80	463.43
559.97	402.57
560.13	388.53
560.30	346.40
560.46	358.10
560.63	468.11
560.79	355.76
560.96	465.77
561.12	397.89
561.29	440.02
561.45	414.27
561.61	411.93
561.78	484.49
561.94	468.11
562.11	425.98
562.27	379.17
562.44	409.59
562.60	461.09
562.77	435.34
562.93	496.19
563.10	440.02
563.26	531.30
563.42	461.09
563.59	423.64
563.75	358.10
563.92	491.51
564.08	440.02
564.24	512.58
564.41	524.28
564.57	355.76
564.74	395.55
564.90	470.45
565.07	379.17
565.23	416.62
565.39	435.34
565.56	507.90
565.72	393.21
565.88	402.57
566.05	435.34
566.21	458.74
566.38	447.04
566.54	388.53
566.70	440.02
566.87	472.79
567.03	479.81
567.19	461.09
567.36	376.83
567.52	540.66
567.68	390.87
567.85	383.85
568.01	332.36
568.17	381.51
568.34	437.68
568.50	437.68
568.66	468.11
568.83	468.11
568.99	470.45
569.15	388.53
569.32	402.57
569.48	367.46
569.64	358.10
569.81	437.68
569.97	404.91
570.13	397.89
570.30	386.19
570.46	416.62
570.62	416.62
570.78	470.45
570.95	498.53
571.11	428.32
571.27	449.38
571.43	423.64
571.60	393.21
571.76	404.91
571.92	409.59
572.09	461.09
572.25	407.25
572.41	437.68
572.57	379.17
572.74	360.44
572.90	493.85
573.06	416.62
573.22	437.68
573.38	400.23
573.55	440.02
573.71	358.10
573.87	440.02
574.03	461.09
574.20	386.19
574.36	468.11
574.52	376.83
574.68	447.04
574.84	468.11
575.01	416.62
575.17	442.36
575.33	423.64
575.49	353.42
575.65	444.70
575.82	381.51
575.98	386.19
576.14	440.02
576.30	351.08
576.46	437.68
576.62	369.80
576.79	437.68
576.95	447.04
577.11	400.23
577.27	421.30
577.43	400.23
577.59	463.43
577.75	435.34
577.92	435.34
578.08	383.85
578.24	411.93
578.40	475.13
578.56	475.13
578.72	507.90
578.88	428.32
579.04	451.72
579.21	423.64
579.37	402.57
579.53	351.08
579.69	435.34
579.85	479.81
580.01	409.59
580.17	397.89
580.33	372.15
580.49	454.06
580.65	414.27
580.82	428.32
580.98	351.08
581.14	367.46
581.30	484.49
581.46	390.87
581.62	435.34
581.78	440.02
581.94	507.90
582.10	348.74
582.26	395.55
582.42	355.76
582.58	503.22
582.74	395.55
582.90	360.44
583.06	456.40
583.22	397.89
583.38	346.40
583.54	435.34
583.70	437.68
583.86	517.26
584.02	393.21
584.18	468.11
584.34	433.00
584.50	414.27
584.66	454.06
584.82	416.62
584.98	395.55
585.14	435.34
585.30	437.68
585.46	332.36
585.62	411.93
585.78	461.09
585.94	458.74
586.10	479.81
586.26	416.62
586.42	430.66
586.58	430.66
586.74	465.77
586.90	381.51
587.06	402.57
587.22	353.42
587.38	435.34
587.54	411.93
587.70	433.00
587.86	491.51
588.02	489.17
588.18	435.34
588.34	386.19
588.49	411.93
588.65	369.80
588.81	421.30
588.97	463.43
589.13	402.57
589.29	458.74
589.45	381.51
589.61	428.32
589.77	479.81
589.93	404.91
590.08	390.87
590.24	367.46
590.40	355.76
590.56	390.87
590.72	390.87
590.88	355.76
591.04	379.17
591.20	365.12
591.35	475.13
591.51	444.70
591.67	435.34
591.83	458.74
591.99	414.27
592.15	475.13
592.31	409.59
592.46	430.66
592.62	451.72
592.78	411.93
592.94	451.72
593.10	449.38
593.26	379.17
593.41	470.45
593.57	484.49
593.73	379.17
593.89	423.64
594.05	416.62
594.20	414.27
594.36	367.46
594.52	449.38
594.68	402.57
594.84	447.04
594.99	416.62
595.15	402.57
595.31	430.66
595.47	458.74
595.62	458.74
595.78	381.51
595.94	428.32
596.10	430.66
596.25	442.36
596.41	482.15
596.57	383.85
596.73	369.80
596.88	388.53
597.04	454.06
597.20	383.85
597.36	376.83
597.51	404.91
597.67	421.30
597.83	383.85
597.99	444.70
598.14	339.38
598.30	407.25
598.46	400.23
598.61	367.46
598.77	381.51
598.93	498.53
599.09	337.04
599.24	435.34
599.40	435.34
599.56	390.87
599.71	500.87
599.87	428.32
600.03	388.53
600.18	491.51
600.34	496.19
600.50	379.17
600.65	393.21
600.81	437.68
600.97	416.62
601.12	409.59
601.28	451.72
601.44	402.57
601.59	355.76
601.75	369.80
601.91	472.79
602.06	451.72
602.22	437.68
602.37	390.87
602.53	477.47
602.69	416.62
602.84	447.04
603.00	421.30
603.16	449.38
603.31	397.89
603.47	404.91
603.62	397.89
603.78	402.57
603.94	423.64
604.09	435.34
604.25	468.11
604.40	463.43
604.56	486.83
604.71	430.66
604.87	353.42
605.03	437.68
605.18	374.49
605.34	402.57
605.49	381.51
605.65	440.02
605.80	358.10
605.96	409.59
606.12	433.00
606.27	397.89
606.43	395.55
606.58	454.06
606.74	411.93
606.89	407.25
607.05	388.53
607.20	402.57
607.36	454.06
607.51	372.15
607.67	421.30
607.82	411.93
607.98	444.70
608.13	386.19
608.29	423.64
608.44	411.93
608.60	428.32
608.75	393.21
608.91	468.11
609.06	437.68
609.22	395.55
609.37	395.55
609.53	451.72
609.68	425.98
609.84	390.87
609.99	423.64
610.15	393.21
610.30	418.96
610.46	400.23
610.61	472.79
610.76	423.64
610.92	407.25
611.07	409.59
611.23	411.93
611.38	458.74
611.54	407.25
611.69	400.23
611.84	381.51
612.00	362.78
612.15	372.15
612.31	435.34
612.46	390.87
612.62	379.17
612.77	442.36
612.92	435.34
613.08	435.34
613.23	489.17
613.39	390.87
613.54	383.85
613.69	407.25
613.85	404.91
614.00	491.51
614.15	390.87
614.31	461.09
614.46	484.49
614.62	383.85
614.77	524.28
614.92	409.59
615.08	418.96
615.23	353.42
615.38	463.43
615.54	435.34
615.69	416.62
615.84	330.02
616.00	461.09
616.15	362.78
616.30	376.83
616.46	330.02
616.61	430.66
616.76	372.15
616.92	411.93
617.07	379.17
617.22	395.55
617.37	423.64
617.53	444.70
617.68	442.36
617.83	418.96
617.99	428.32
618.14	444.70
618.29	440.02
618.45	491.51
618.60	372.15
618.75	390.87
618.90	402.57
619.06	418.96
619.21	486.83
619.36	435.34
619.51	461.09
619.67	397.89
619.82	451.72
619.97	430.66
620.12	437.68
620.28	421.30
620.43	416.62
620.58	369.80
620.73	423.64
620.89	440.02
621.04	470.45
621.19	475.13
621.34	379.17
621.49	458.74
621.65	423.64
621.80	440.02
621.95	404.91
622.10	454.06
622.25	433.00
622.41	411.93
622.56	454.06
622.71	465.77
622.86	386.19
623.01	491.51
623.16	407.25
623.32	430.66
623.47	463.43
623.62	404.91
623.77	479.81
623.92	423.64
624.07	386.19
624.23	367.46
624.38	479.81
624.53	390.87
624.68	451.72
624.83	423.64
624.98	416.62
625.13	390.87
625.29	404.91
625.44	430.66
625.59	360.44
625.74	447.04
625.89	411.93
626.04	404.91
626.19	463.43
626.34	416.62
626.49	458.74
626.65	416.62
626.80	454.06
626.95	433.00
627.10	437.68
627.25	430.66
627.40	414.27
627.55	414.27
627.70	388.53
627.85	414.27
628.00	461.09
628.15	334.70
628.30	465.77
628.45	369.80
628.60	362.78
628.76	421.30
628.91	397.89
629.06	409.59
629.21	423.64
629.36	428.32
629.51	409.59
629.66	386.19
629.81	440.02
629.96	386.19
630.11	451.72
630.26	510.24
630.41	416.62
630.56	451.72
630.71	344.06
630.86	416.62
631.01	386.19
631.16	409.59
631.31	458.74
631.46	386.19
631.61	397.89
631.76	454.06
631.91	461.09
632.06	454.06
632.21	383.85
632.36	498.53
632.51	353.42
632.66	372.15
632.81	493.85
632.96	470.45
633.10	472.79
633.25	545.34
633.40	440.02
633.55	468.11
633.70	337.04
633.85	365.12
634.00	360.44
634.15	381.51
634.30	437.68
634.45	437.68
634.60	351.08
634.75	362.78
634.90	435.34
635.05	397.89
635.19	400.23
635.34	374.49
635.49	372.15
635.64	393.21
635.79	353.42
635.94	404.91
636.09	447.04
636.24	440.02
636.39	379.17
636.53	472.79
636.68	362.78
636.83	437.68
636.98	411.93
637.13	435.34
637.28	435.34
637.43	454.06
637.57	374.49
637.72	372.15
637.87	423.64
638.02	421.30
638.17	367.46
638.32	456.40
638.46	397.89
638.61	404.91
638.76	397.89
638.91	430.66
639.06	421.30
639.20	470.45
639.35	477.47
639.50	407.25
639.65	418.96
639.80	435.34
639.94	423.64
640.09	449.38
640.24	489.17
640.39	416.62
640.54	428.32
640.68	547.69
640.83	447.04
640.98	348.74
641.13	423.64
641.27	435.34
641.42	379.17
641.57	451.72
641.72	449.38
641.86	440.02
642.01	463.43
642.16	358.10
642.31	444.70
642.45	463.43
642.60	404.91
642.75	372.15
642.90	461.09
643.04	440.02
643.19	423.64
643.34	440.02
643.48	440.02
643.63	430.66
643.78	463.43
643.93	430.66
644.07	393.21
644.22	440.02
644.37	376.83
644.51	477.47
644.66	421.30
644.81	358.10
644.95	456.40
645.10	402.57
645.25	493.85
645.39	468.11
645.54	367.46
645.69	444.70
645.83	374.49
645.98	414.27
646.13	423.64
646.27	409.59
646.42	496.19
646.57	435.34
646.71	449.38
646.86	491.51
647.00	386.19
647.15	461.09
647.30	386.19
647.44	386.19
647.59	365.12
647.74	353.42
647.88	440.02
648.03	395.55
648.17	435.34
648.32	404.91
648.47	367.46
648.61	376.83
648.76	388.53
648.90	386.19
649.05	400.23
649.20	407.25
649.34	381.51
649.49	367.46
649.63	475.13
649.78	454.06
649.92	376.83
650.07	430.66
650.21	395.55
650.36	470.45
650.51	353.42
650.65	440.02
650.80	433.00
650.94	379.17
651.09	379.17
651.23	372.15
651.38	369.80
651.52	435.34
651.67	397.89
651.81	379.17
651.96	458.74
652.10	395.55
652.25	416.62
652.39	423.64
652.54	493.85
652.68	425.98
652.83	444.70
652.97	411.93
653.12	470.45
653.26	386.19
653.41	407.25
653.55	414.27
653.70	369.80
653.84	430.66
653.99	353.42
654.13	423.64
654.27	414.27
654.42	418.96
654.56	402.57
654.71	444.70
654.85	369.80
655.00	383.85
655.14	416.62
655.29	454.06
655.43	400.23
655.57	409.59
655.72	346.40
655.86	454.06
656.01	425.98
656.15	430.66
656.30	395.55
656.44	404.91
656.58	440.02
656.73	409.59
656.87	458.74
657.01	341.72
657.16	472.79
657.30	433.00
657.45	475.13
657.59	351.08
657.73	461.09
657.88	395.55
658.02	468.11
658.16	383.85
658.31	496.19
658.45	379.17
658.60	449.38
658.74	379.17
658.88	409.59
659.03	369.80
659.17	362.78
659.31	414.27
659.46	430.66
659.60	430.66
659.74	486.83
659.89	449.38
660.03	416.62
660.17	404.91
660.32	440.02
660.46	456.40
660.60	447.04
660.74	489.17
660.89	433.00
661.03	376.83
661.17	369.80
661.32	388.53
661.46	388.53
661.60	435.34
661.74	454.06
661.89	484.49
662.03	390.87
662.17	447.04
662.31	423.64
662.46	512.58
662.60	409.59
662.74	379.17
662.88	344.06
663.03	430.66
663.17	348.74
663.31	414.27
663.45	416.62
663.60	428.32
663.74	430.66
663.88	348.74
664.02	442.36
664.17	372.15
664.31	397.89
664.45	430.66
664.59	489.17
664.73	416.62
664.88	433.00
665.02	409.59
665.16	337.04
665.30	414.27
665.44	411.93
665.59	475.13
665.73	407.25
665.87	407.25
666.01	489.17
666.15	353.42
666.29	418.96
666.44	414.27
666.58	484.49
666.72	416.62
666.86	348.74
667.00	486.83
667.14	458.74
667.28	414.27
667.43	486.83
667.57	444.70
667.71	409.59
667.85	400.23
667.99	411.93
668.13	500.87
668.27	421.30
668.41	463.43
668.56	358.10
668.70	456.40
668.84	409.59
668.98	505.56
669.12	397.89
669.26	386.19
669.40	400.23
669.54	421.30
669.68	442.36
669.82	428.32
669.96	397.89
670.10	369.80
670.25	449.38
670.39	475.13
670.53	362.78
670.67	418.96
670.81	332.36
670.95	372.15
671.09	407.25
671.23	421.30
671.37	418.96
671.51	461.09
671.65	456.40
671.79	482.15
671.93	449.38
672.07	482.15
672.21	414.27
672.35	409.59
672.49	472.79
672.63	449.38
672.77	388.53
672.91	444.70
673.05	507.90
673.19	395.55
673.33	337.04
673.47	463.43
673.61	400.23
673.75	395.55
673.89	402.57
674.03	437.68
674.17	411.93
674.31	376.83
674.45	449.38
674.59	423.64
674.73	418.96
674.87	337.04
675.01	407.25
675.15	463.43
675.29	416.62
675.43	428.32
675.56	528.96
675.70	449.38
675.84	433.00
675.98	390.87
676.12	435.34
676.26	458.74
676.40	395.55
676.54	451.72
676.68	440.02
676.82	447.04
676.96	437.68
677.10	404.91
677.23	365.12
677.37	369.80
677.51	407.25
677.65	503.22
677.79	374.49
677.93	346.40
678.07	444.70
678.21	430.66
678.34	416.62
678.48	428.32
678.62	414.27
678.76	353.42
678.90	332.36
679.04	458.74
679.18	433.00
679.31	400.23
679.45	388.53
679.59	440.02
679.73	423.64
679.87	444.70
680.00	388.53
680.14	433.00
680.28	400.23
680.42	374.49
680.56	416.62
680.70	456.40
680.83	360.44
680.97	404.91
681.11	386.19
681.25	418.96
681.39	440.02
681.52	418.96
681.66	395.55
681.80	496.19
681.94	451.72
682.07	489.17
682.21	395.55
682.35	358.10
682.49	383.85
682.62	365.12
682.76	372.15
682.90	442.36
683.04	341.72
683.17	433.00
683.31	435.34
683.45	404.91
683.59	440.02
683.72	454.06
683.86	465.77
684.00	395.55
684.13	435.34
684.27	322.99
684.41	400.23
684.55	404.91
684.68	388.53
684.82	393.21
684.96	430.66
685.09	461.09
685.23	437.68
685.37	425.98
685.50	407.25
685.64	395.55
685.78	393.21
685.91	491.51
686.05	428.32
686.19	395.55
686.32	365.12
686.46	383.85
686.60	409.59
686.73	517.26
686.87	505.56
687.01	421.30
687.14	395.55
687.28	416.62
687.42	383.85
687.55	400.23
687.69	400.23
687.82	332.36
687.96	435.34
688.10	491.51
688.23	337.04
688.37	386.19
688.50	383.85
688.64	376.83
688.78	411.93
688.91	367.46
689.05	416.62
689.18	313.63
689.32	435.34
689.46	463.43
689.59	393.21
689.73	411.93
689.86	418.96
690.00	479.81
690.13	407.25
690.27	407.25
690.41	437.68
690.54	456.40
690.68	449.38
690.81	416.62
690.95	416.62
691.08	454.06
691.22	367.46
691.35	447.04
691.49	404.91
691.62	447.04
691.76	386.19
691.89	449.38
692.03	386.19
692.16	411.93
692.30	463.43
692.43	395.55
692.57	489.17
692.70	425.98
692.84	404.91
692.97	491.51
693.11	421.30
693.24	388.53
693.38	402.57
693.51	470.45
693.65	369.80
693.78	346.40
693.92	421.30
694.05	421.30
694.19	374.49
694.32	353.42
694.45	407.25
694.59	393.21
694.72	351.08
694.86	362.78
694.99	454.06
695.13	437.68
695.26	386.19
695.39	381.51
695.53	414.27
695.66	381.51
695.80	409.59
695.93	456.40
696.07	423.64
696.20	411.93
696.33	404.91
696.47	402.57
696.60	430.66
696.73	440.02
696.87	437.68
697.00	421.30
697.14	418.96
697.27	470.45
697.40	423.64
697.54	353.42
697.67	510.24
697.80	421.30
697.94	379.17
698.07	416.62
698.21	374.49
698.34	442.36
698.47	379.17
698.61	348.74
698.74	346.40
698.87	437.68
699.01	411.93
699.14	386.19
699.27	489.17
699.40	514.92
699.54	353.42
699.67	379.17
699.80	423.64
699.94	322.99
700.07	339.38
700.20	372.15
700.34	337.04
700.47	393.21
700.60	351.08
700.73	421.30
700.87	475.13
701.00	400.23
701.13	435.34
701.26	393.21
701.40	454.06
701.53	477.47
701.66	348.74
701.79	334.70
701.93	428.32
702.06	461.09
702.19	454.06
702.32	411.93
702.46	421.30
702.59	484.49
702.72	423.64
702.85	440.02
702.99	442.36
703.12	414.27
703.25	325.33
703.38	390.87
703.51	461.09
703.65	472.79
703.78	416.62
703.91	367.46
704.04	397.89
704.17	390.87
704.31	451.72
704.44	381.51
704.57	372.15
704.70	486.83
704.83	332.36
704.96	428.32
705.10	372.15
705.23	390.87
>>>>>End Processed Spectral Data<<<<<
