SpectraSuite Data File
++++++++++++++++++++++++++++++++++++
Date: Fri Oct 25 12:10:17 EDT 2013
User: price-jones
Dark Spectrum Present: No
Reference Spectrum Present: No
Number of Sampled Component Spectra: 1
Spectrometers: USB2+H05261
Integration Time (usec): 100000 (USB2+H05261)
Spectra Averaged: 1 (USB2+H05261)
Boxcar Smoothing: 0 (USB2+H05261)
Correct for Electrical Dark: No (USB2+H05261)
Strobe/Lamp Enabled: No (USB2+H05261)
Correct for Detector Non-linearity: No (USB2+H05261)
Correct for Stray Light: No (USB2+H05261)
Number of Pixels in Processed Spectrum: 2048
>>>>>Begin Processed Spectral Data<<<<<
365.73	369.80
365.92	369.80
366.12	369.80
366.32	241.08
366.52	238.73
366.72	266.82
366.91	259.80
367.11	222.35
367.31	245.76
367.51	208.31
367.70	229.37
367.90	227.03
368.10	257.46
368.30	264.48
368.49	266.82
368.69	297.25
368.89	245.76
369.09	278.52
369.28	315.97
369.48	243.42
369.68	287.89
369.87	311.29
370.07	283.20
370.27	348.74
370.47	339.38
370.66	332.36
370.86	311.29
371.06	372.15
371.25	437.68
371.45	355.76
371.65	402.57
371.84	339.38
372.04	344.06
372.24	315.97
372.44	400.23
372.63	374.49
372.83	358.10
373.03	421.30
373.22	367.46
373.42	341.72
373.62	367.46
373.81	407.25
374.01	374.49
374.21	400.23
374.40	454.06
374.60	425.98
374.79	461.09
374.99	409.59
375.19	433.00
375.38	400.23
375.58	404.91
375.78	369.80
375.97	409.59
376.17	416.62
376.37	418.96
376.56	369.80
376.76	409.59
376.95	393.21
377.15	372.15
377.35	348.74
377.54	414.27
377.74	411.93
377.93	351.08
378.13	372.15
378.33	374.49
378.52	404.91
378.72	444.70
378.91	386.19
379.11	332.36
379.31	407.25
379.50	332.36
379.70	374.49
379.89	400.23
380.09	395.55
380.28	416.62
380.48	390.87
380.68	458.74
380.87	283.20
381.07	360.44
381.26	400.23
381.46	390.87
381.65	411.93
381.85	390.87
382.04	416.62
382.24	428.32
382.43	362.78
382.63	421.30
382.83	360.44
383.02	402.57
383.22	390.87
383.41	339.38
383.61	411.93
383.80	379.17
384.00	409.59
384.19	372.15
384.39	423.64
384.58	437.68
384.78	447.04
384.97	524.28
385.17	360.44
385.36	360.44
385.56	414.27
385.75	388.53
385.95	416.62
386.14	372.15
386.34	351.08
386.53	411.93
386.72	454.06
386.92	447.04
387.11	421.30
387.31	461.09
387.50	411.93
387.70	379.17
387.89	472.79
388.09	360.44
388.28	386.19
388.48	360.44
388.67	475.13
388.86	360.44
389.06	407.25
389.25	440.02
389.45	430.66
389.64	372.15
389.84	449.38
390.03	372.15
390.22	390.87
390.42	423.64
390.61	376.83
390.81	332.36
391.00	416.62
391.19	423.64
391.39	418.96
391.58	369.80
391.78	376.83
391.97	433.00
392.16	353.42
392.36	421.30
392.55	425.98
392.75	440.02
392.94	325.33
393.13	437.68
393.33	353.42
393.52	416.62
393.71	433.00
393.91	386.19
394.10	351.08
394.29	397.89
394.49	393.21
394.68	449.38
394.88	463.43
395.07	418.96
395.26	435.34
395.46	372.15
395.65	360.44
395.84	404.91
396.04	486.83
396.23	360.44
396.42	360.44
396.62	402.57
396.81	425.98
397.00	433.00
397.19	423.64
397.39	475.13
397.58	484.49
397.77	365.12
397.97	397.89
398.16	400.23
398.35	430.66
398.55	369.80
398.74	353.42
398.93	404.91
399.12	339.38
399.32	437.68
399.51	379.17
399.70	388.53
399.90	451.72
400.09	362.78
400.28	454.06
400.47	416.62
400.67	395.55
400.86	433.00
401.05	433.00
401.24	400.23
401.44	330.02
401.63	393.21
401.82	386.19
402.01	379.17
402.21	418.96
402.40	397.89
402.59	428.32
402.78	435.34
402.97	393.21
403.17	430.66
403.36	456.40
403.55	388.53
403.74	397.89
403.93	414.27
404.13	486.83
404.32	393.21
404.51	416.62
404.70	425.98
404.89	397.89
405.09	383.85
405.28	360.44
405.47	376.83
405.66	425.98
405.85	477.47
406.05	388.53
406.24	374.49
406.43	404.91
406.62	383.85
406.81	496.19
407.00	442.36
407.20	374.49
407.39	376.83
407.58	388.53
407.77	395.55
407.96	414.27
408.15	444.70
408.34	486.83
408.54	468.11
408.73	444.70
408.92	397.89
409.11	468.11
409.30	416.62
409.49	365.12
409.68	358.10
409.87	461.09
410.07	447.04
410.26	397.89
410.45	339.38
410.64	386.19
410.83	435.34
411.02	435.34
411.21	458.74
411.40	440.02
411.59	341.72
411.78	388.53
411.98	437.68
412.17	449.38
412.36	444.70
412.55	409.59
412.74	449.38
412.93	456.40
413.12	360.44
413.31	458.74
413.50	479.81
413.69	369.80
413.88	465.77
414.07	470.45
414.26	407.25
414.45	447.04
414.64	463.43
414.83	421.30
415.02	482.15
415.22	421.30
415.41	496.19
415.60	351.08
415.79	475.13
415.98	383.85
416.17	407.25
416.36	421.30
416.55	332.36
416.74	395.55
416.93	442.36
417.12	390.87
417.31	418.96
417.50	393.21
417.69	477.47
417.88	381.51
418.07	299.59
418.26	348.74
418.45	433.00
418.64	447.04
418.83	486.83
419.02	437.68
419.21	395.55
419.39	454.06
419.58	386.19
419.77	451.72
419.96	386.19
420.15	538.32
420.34	397.89
420.53	381.51
420.72	430.66
420.91	372.15
421.10	425.98
421.29	367.46
421.48	416.62
421.67	454.06
421.86	435.34
422.05	407.25
422.24	348.74
422.43	390.87
422.61	395.55
422.80	393.21
422.99	397.89
423.18	444.70
423.37	447.04
423.56	482.15
423.75	414.27
423.94	416.62
424.13	435.34
424.32	435.34
424.50	374.49
424.69	463.43
424.88	440.02
425.07	351.08
425.26	447.04
425.45	407.25
425.64	423.64
425.83	421.30
426.01	447.04
426.20	379.17
426.39	416.62
426.58	388.53
426.77	358.10
426.96	421.30
427.15	500.87
427.33	409.59
427.52	393.21
427.71	386.19
427.90	381.51
428.09	393.21
428.28	388.53
428.46	454.06
428.65	475.13
428.84	339.38
429.03	411.93
429.22	449.38
429.40	397.89
429.59	330.02
429.78	404.91
429.97	421.30
430.16	388.53
430.34	404.91
430.53	442.36
430.72	369.80
430.91	400.23
431.10	444.70
431.28	421.30
431.47	484.49
431.66	404.91
431.85	468.11
432.03	374.49
432.22	402.57
432.41	365.12
432.60	447.04
432.79	376.83
432.97	421.30
433.16	407.25
433.35	407.25
433.54	362.78
433.72	428.32
433.91	414.27
434.10	397.89
434.28	440.02
434.47	463.43
434.66	461.09
434.85	421.30
435.03	407.25
435.22	463.43
435.41	430.66
435.59	489.17
435.78	390.87
435.97	374.49
436.16	442.36
436.34	442.36
436.53	348.74
436.72	437.68
436.90	418.96
437.09	390.87
437.28	416.62
437.46	437.68
437.65	411.93
437.84	425.98
438.02	365.12
438.21	355.76
438.40	409.59
438.58	351.08
438.77	416.62
438.96	355.76
439.14	482.15
439.33	393.21
439.52	388.53
439.70	346.40
439.89	404.91
440.08	393.21
440.26	416.62
440.45	423.64
440.63	416.62
440.82	397.89
441.01	425.98
441.19	400.23
441.38	423.64
441.57	437.68
441.75	465.77
441.94	437.68
442.12	456.40
442.31	407.25
442.50	381.51
442.68	421.30
442.87	386.19
443.05	404.91
443.24	409.59
443.43	379.17
443.61	440.02
443.80	437.68
443.98	355.76
444.17	348.74
444.35	407.25
444.54	402.57
444.73	362.78
444.91	437.68
445.10	330.02
445.28	390.87
445.47	416.62
445.65	355.76
445.84	470.45
446.02	353.42
446.21	421.30
446.39	421.30
446.58	416.62
446.77	402.57
446.95	397.89
447.14	498.53
447.32	454.06
447.51	418.96
447.69	386.19
447.88	435.34
448.06	463.43
448.25	437.68
448.43	442.36
448.62	418.96
448.80	395.55
448.99	337.04
449.17	430.66
449.36	447.04
449.54	444.70
449.73	369.80
449.91	416.62
450.10	355.76
450.28	472.79
450.46	423.64
450.65	475.13
450.83	374.49
451.02	379.17
451.20	379.17
451.39	351.08
451.57	358.10
451.76	418.96
451.94	383.85
452.13	393.21
452.31	400.23
452.49	411.93
452.68	390.87
452.86	435.34
453.05	437.68
453.23	386.19
453.42	313.63
453.60	418.96
453.78	463.43
453.97	365.12
454.15	379.17
454.34	365.12
454.52	400.23
454.70	463.43
454.89	414.27
455.07	414.27
455.26	421.30
455.44	451.72
455.62	411.93
455.81	470.45
455.99	386.19
456.17	472.79
456.36	430.66
456.54	360.44
456.73	407.25
456.91	430.66
457.09	451.72
457.28	348.74
457.46	397.89
457.64	454.06
457.83	376.83
458.01	360.44
458.19	390.87
458.38	407.25
458.56	510.24
458.74	395.55
458.93	402.57
459.11	383.85
459.29	386.19
459.48	332.36
459.66	423.64
459.84	449.38
460.03	411.93
460.21	409.59
460.39	325.33
460.57	397.89
460.76	360.44
460.94	334.70
461.12	461.09
461.31	442.36
461.49	437.68
461.67	348.74
461.85	372.15
462.04	358.10
462.22	727.91
462.40	437.68
462.59	402.57
462.77	465.77
462.95	425.98
463.13	381.51
463.32	442.36
463.50	437.68
463.68	435.34
463.86	404.91
464.05	458.74
464.23	418.96
464.41	407.25
464.59	390.87
464.78	395.55
464.96	395.55
465.14	418.96
465.32	407.25
465.50	440.02
465.69	416.62
465.87	421.30
466.05	477.47
466.23	395.55
466.41	414.27
466.60	411.93
466.78	430.66
466.96	416.62
467.14	442.36
467.32	437.68
467.51	444.70
467.69	430.66
467.87	425.98
468.05	437.68
468.23	372.15
468.41	430.66
468.60	337.04
468.78	358.10
468.96	442.36
469.14	381.51
469.32	416.62
469.50	395.55
469.69	365.12
469.87	414.27
470.05	418.96
470.23	433.00
470.41	418.96
470.59	369.80
470.77	341.72
470.95	404.91
471.14	435.34
471.32	386.19
471.50	374.49
471.68	465.77
471.86	454.06
472.04	400.23
472.22	372.15
472.40	531.30
472.58	407.25
472.77	472.79
472.95	418.96
473.13	437.68
473.31	374.49
473.49	327.68
473.67	425.98
473.85	402.57
474.03	393.21
474.21	454.06
474.39	418.96
474.57	428.32
474.75	386.19
474.93	416.62
475.12	393.21
475.30	365.12
475.48	456.40
475.66	409.59
475.84	418.96
476.02	402.57
476.20	475.13
476.38	472.79
476.56	468.11
476.74	407.25
476.92	376.83
477.10	442.36
477.28	365.12
477.46	470.45
477.64	491.51
477.82	381.51
478.00	428.32
478.18	465.77
478.36	353.42
478.54	388.53
478.72	404.91
478.90	386.19
479.08	402.57
479.26	430.66
479.44	339.38
479.62	360.44
479.80	402.57
479.98	390.87
480.16	372.15
480.34	454.06
480.52	388.53
480.70	383.85
480.88	400.23
481.06	400.23
481.24	341.72
481.41	437.68
481.59	418.96
481.77	428.32
481.95	414.27
482.13	423.64
482.31	365.12
482.49	428.32
482.67	451.72
482.85	376.83
483.03	374.49
483.21	362.78
483.39	493.85
483.57	449.38
483.74	458.74
483.92	376.83
484.10	418.96
484.28	437.68
484.46	458.74
484.64	423.64
484.82	369.80
485.00	421.30
485.18	407.25
485.35	407.25
485.53	379.17
485.71	447.04
485.89	411.93
486.07	353.42
486.25	383.85
486.43	447.04
486.61	411.93
486.78	390.87
486.96	344.06
487.14	346.40
487.32	416.62
487.50	433.00
487.68	454.06
487.85	449.38
488.03	433.00
488.21	500.87
488.39	397.89
488.57	318.31
488.75	428.32
488.92	456.40
489.10	468.11
489.28	400.23
489.46	334.70
489.64	411.93
489.81	402.57
489.99	402.57
490.17	414.27
490.35	388.53
490.53	486.83
490.70	456.40
490.88	393.21
491.06	470.45
491.24	444.70
491.41	456.40
491.59	430.66
491.77	355.76
491.95	416.62
492.13	353.42
492.30	440.02
492.48	365.12
492.66	379.17
492.84	437.68
493.01	475.13
493.19	362.78
493.37	500.87
493.54	395.55
493.72	358.10
493.90	425.98
494.08	451.72
494.25	433.00
494.43	402.57
494.61	362.78
494.79	444.70
494.96	454.06
495.14	440.02
495.32	416.62
495.49	444.70
495.67	423.64
495.85	367.46
496.02	365.12
496.20	447.04
496.38	444.70
496.55	428.32
496.73	435.34
496.91	402.57
497.09	482.15
497.26	407.25
497.44	388.53
497.62	444.70
497.79	383.85
497.97	376.83
498.14	383.85
498.32	393.21
498.50	390.87
498.67	416.62
498.85	390.87
499.03	390.87
499.20	430.66
499.38	376.83
499.56	430.66
499.73	491.51
499.91	440.02
500.08	461.09
500.26	395.55
500.44	416.62
500.61	449.38
500.79	437.68
500.97	407.25
501.14	372.15
501.32	400.23
501.49	393.21
501.67	428.32
501.84	468.11
502.02	397.89
502.20	463.43
502.37	376.83
502.55	418.96
502.72	479.81
502.90	430.66
503.07	402.57
503.25	402.57
503.43	348.74
503.60	386.19
503.78	390.87
503.95	400.23
504.13	346.40
504.30	465.77
504.48	425.98
504.65	372.15
504.83	416.62
505.01	390.87
505.18	386.19
505.36	414.27
505.53	404.91
505.71	390.87
505.88	402.57
506.06	411.93
506.23	365.12
506.41	425.98
506.58	449.38
506.76	449.38
506.93	442.36
507.11	447.04
507.28	421.30
507.46	404.91
507.63	440.02
507.81	418.96
507.98	386.19
508.16	372.15
508.33	393.21
508.50	451.72
508.68	444.70
508.85	470.45
509.03	421.30
509.20	395.55
509.38	418.96
509.55	470.45
509.73	386.19
509.90	379.17
510.08	468.11
510.25	454.06
510.42	367.46
510.60	402.57
510.77	425.98
510.95	454.06
511.12	404.91
511.30	402.57
511.47	402.57
511.64	367.46
511.82	421.30
511.99	407.25
512.17	383.85
512.34	468.11
512.51	425.98
512.69	379.17
512.86	437.68
513.04	428.32
513.21	456.40
513.38	393.21
513.56	486.83
513.73	409.59
513.90	425.98
514.08	404.91
514.25	416.62
514.43	433.00
514.60	409.59
514.77	407.25
514.95	489.17
515.12	440.02
515.29	416.62
515.47	461.09
515.64	461.09
515.81	437.68
515.99	416.62
516.16	456.40
516.33	458.74
516.51	379.17
516.68	451.72
516.85	416.62
517.03	393.21
517.20	409.59
517.37	353.42
517.54	376.83
517.72	414.27
517.89	346.40
518.06	465.77
518.24	512.58
518.41	468.11
518.58	421.30
518.75	390.87
518.93	425.98
519.10	421.30
519.27	407.25
519.45	430.66
519.62	447.04
519.79	451.72
519.96	337.04
520.14	409.59
520.31	472.79
520.48	393.21
520.65	374.49
520.83	433.00
521.00	416.62
521.17	425.98
521.34	327.68
521.52	395.55
521.69	390.87
521.86	440.02
522.03	416.62
522.20	472.79
522.38	407.25
522.55	348.74
522.72	362.78
522.89	390.87
523.07	390.87
523.24	423.64
523.41	458.74
523.58	425.98
523.75	393.21
523.92	451.72
524.10	430.66
524.27	414.27
524.44	442.36
524.61	475.13
524.78	360.44
524.96	500.87
525.13	461.09
525.30	449.38
525.47	430.66
525.64	395.55
525.81	433.00
525.98	404.91
526.16	414.27
526.33	414.27
526.50	379.17
526.67	400.23
526.84	444.70
527.01	407.25
527.18	456.40
527.36	416.62
527.53	376.83
527.70	468.11
527.87	351.08
528.04	418.96
528.21	365.12
528.38	416.62
528.55	390.87
528.72	428.32
528.89	428.32
529.07	444.70
529.24	393.21
529.41	451.72
529.58	411.93
529.75	395.55
529.92	440.02
530.09	489.17
530.26	395.55
530.43	435.34
530.60	374.49
530.77	334.70
530.94	409.59
531.11	425.98
531.28	500.87
531.46	468.11
531.63	402.57
531.80	404.91
531.97	400.23
532.14	482.15
532.31	395.55
532.48	477.47
532.65	444.70
532.82	423.64
532.99	451.72
533.16	437.68
533.33	428.32
533.50	390.87
533.67	388.53
533.84	437.68
534.01	381.51
534.18	447.04
534.35	416.62
534.52	425.98
534.69	433.00
534.86	444.70
535.03	435.34
535.20	442.36
535.37	337.04
535.54	430.66
535.71	433.00
535.88	437.68
536.05	386.19
536.22	491.51
536.38	397.89
536.55	418.96
536.72	456.40
536.89	367.46
537.06	358.10
537.23	447.04
537.40	407.25
537.57	407.25
537.74	404.91
537.91	468.11
538.08	390.87
538.25	367.46
538.42	393.21
538.59	390.87
538.75	430.66
538.92	407.25
539.09	353.42
539.26	404.91
539.43	379.17
539.60	362.78
539.77	470.45
539.94	472.79
540.11	440.02
540.28	423.64
540.44	456.40
540.61	369.80
540.78	435.34
540.95	395.55
541.12	451.72
541.29	404.91
541.46	423.64
541.62	388.53
541.79	407.25
541.96	470.45
542.13	404.91
542.30	358.10
542.47	376.83
542.63	430.66
542.80	369.80
542.97	404.91
543.14	383.85
543.31	411.93
543.48	381.51
543.64	423.64
543.81	409.59
543.98	433.00
544.15	411.93
544.32	414.27
544.48	421.30
544.65	444.70
544.82	440.02
544.99	416.62
545.16	484.49
545.32	407.25
545.49	409.59
545.66	425.98
545.83	418.96
546.00	341.72
546.16	381.51
546.33	418.96
546.50	353.42
546.67	470.45
546.83	409.59
547.00	365.12
547.17	379.17
547.34	449.38
547.50	447.04
547.67	360.44
547.84	386.19
548.00	421.30
548.17	386.19
548.34	402.57
548.51	449.38
548.67	393.21
548.84	477.47
549.01	433.00
549.18	346.40
549.34	360.44
549.51	393.21
549.68	416.62
549.84	498.53
550.01	362.78
550.18	465.77
550.34	440.02
550.51	442.36
550.68	416.62
550.84	449.38
551.01	433.00
551.18	444.70
551.34	433.00
551.51	393.21
551.68	402.57
551.84	407.25
552.01	451.72
552.18	414.27
552.34	456.40
552.51	547.69
552.68	451.72
552.84	463.43
553.01	444.70
553.18	402.57
553.34	308.95
553.51	447.04
553.67	430.66
553.84	500.87
554.01	411.93
554.17	425.98
554.34	402.57
554.51	442.36
554.67	425.98
554.84	402.57
555.00	390.87
555.17	365.12
555.33	423.64
555.50	414.27
555.67	433.00
555.83	442.36
556.00	435.34
556.16	559.39
556.33	447.04
556.50	447.04
556.66	400.23
556.83	416.62
556.99	379.17
557.16	437.68
557.32	404.91
557.49	327.68
557.65	308.95
557.82	447.04
557.98	404.91
558.15	411.93
558.32	388.53
558.48	397.89
558.65	407.25
558.81	416.62
558.98	414.27
559.14	409.59
559.31	383.85
559.47	341.72
559.64	421.30
559.80	393.21
559.97	421.30
560.13	358.10
560.30	437.68
560.46	465.77
560.63	393.21
560.79	421.30
560.96	325.33
561.12	395.55
561.29	393.21
561.45	383.85
561.61	423.64
561.78	475.13
561.94	404.91
562.11	440.02
562.27	386.19
562.44	397.89
562.60	358.10
562.77	416.62
562.93	519.60
563.10	402.57
563.26	360.44
563.42	404.91
563.59	465.77
563.75	470.45
563.92	475.13
564.08	456.40
564.24	456.40
564.41	496.19
564.57	418.96
564.74	416.62
564.90	411.93
565.07	463.43
565.23	463.43
565.39	428.32
565.56	402.57
565.72	355.76
565.88	433.00
566.05	372.15
566.21	402.57
566.38	416.62
566.54	365.12
566.70	388.53
566.87	334.70
567.03	491.51
567.19	461.09
567.36	365.12
567.52	430.66
567.68	418.96
567.85	470.45
568.01	500.87
568.17	444.70
568.34	435.34
568.50	428.32
568.66	421.30
568.83	468.11
568.99	395.55
569.15	425.98
569.32	395.55
569.48	456.40
569.64	414.27
569.81	402.57
569.97	334.70
570.13	388.53
570.30	360.44
570.46	383.85
570.62	404.91
570.78	489.17
570.95	430.66
571.11	479.81
571.27	470.45
571.43	299.59
571.60	414.27
571.76	353.42
571.92	442.36
572.09	388.53
572.25	421.30
572.41	374.49
572.57	404.91
572.74	451.72
572.90	418.96
573.06	395.55
573.22	435.34
573.38	414.27
573.55	414.27
573.71	418.96
573.87	409.59
574.03	383.85
574.20	430.66
574.36	402.57
574.52	388.53
574.68	397.89
574.84	512.58
575.01	388.53
575.17	353.42
575.33	449.38
575.49	442.36
575.65	430.66
575.82	442.36
575.98	430.66
576.14	400.23
576.30	421.30
576.46	428.32
576.62	383.85
576.79	435.34
576.95	355.76
577.11	411.93
577.27	407.25
577.43	477.47
577.59	456.40
577.75	400.23
577.92	374.49
578.08	433.00
578.24	402.57
578.40	482.15
578.56	486.83
578.72	475.13
578.88	451.72
579.04	479.81
579.21	400.23
579.37	428.32
579.53	454.06
579.69	404.91
579.85	437.68
580.01	409.59
580.17	425.98
580.33	430.66
580.49	500.87
580.65	425.98
580.82	376.83
580.98	482.15
581.14	386.19
581.30	423.64
581.46	444.70
581.62	475.13
581.78	435.34
581.94	393.21
582.10	440.02
582.26	456.40
582.42	409.59
582.58	379.17
582.74	416.62
582.90	402.57
583.06	451.72
583.22	411.93
583.38	376.83
583.54	444.70
583.70	461.09
583.86	496.19
584.02	444.70
584.18	437.68
584.34	402.57
584.50	374.49
584.66	514.92
584.82	461.09
584.98	423.64
585.14	416.62
585.30	440.02
585.46	458.74
585.62	407.25
585.78	395.55
585.94	379.17
586.10	386.19
586.26	433.00
586.42	512.58
586.58	397.89
586.74	498.53
586.90	472.79
587.06	409.59
587.22	470.45
587.38	477.47
587.54	444.70
587.70	409.59
587.86	449.38
588.02	376.83
588.18	461.09
588.34	402.57
588.49	379.17
588.65	388.53
588.81	397.89
588.97	393.21
589.13	381.51
589.29	381.51
589.45	435.34
589.61	409.59
589.77	458.74
589.93	358.10
590.08	423.64
590.24	454.06
590.40	397.89
590.56	472.79
590.72	470.45
590.88	383.85
591.04	496.19
591.20	358.10
591.35	386.19
591.51	465.77
591.67	463.43
591.83	418.96
591.99	442.36
592.15	372.15
592.31	435.34
592.46	423.64
592.62	437.68
592.78	430.66
592.94	442.36
593.10	374.49
593.26	381.51
593.41	456.40
593.57	337.04
593.73	397.89
593.89	447.04
594.05	334.70
594.20	397.89
594.36	430.66
594.52	414.27
594.68	409.59
594.84	444.70
594.99	477.47
595.15	395.55
595.31	449.38
595.47	461.09
595.62	355.76
595.78	341.72
595.94	369.80
596.10	444.70
596.25	423.64
596.41	437.68
596.57	365.12
596.73	437.68
596.88	381.51
597.04	484.49
597.20	379.17
597.36	421.30
597.51	407.25
597.67	381.51
597.83	428.32
597.99	486.83
598.14	463.43
598.30	486.83
598.46	411.93
598.61	444.70
598.77	372.15
598.93	397.89
599.09	395.55
599.24	433.00
599.40	423.64
599.56	468.11
599.71	444.70
599.87	465.77
600.03	407.25
600.18	379.17
600.34	376.83
600.50	489.17
600.65	430.66
600.81	423.64
600.97	416.62
601.12	400.23
601.28	456.40
601.44	416.62
601.59	435.34
601.75	421.30
601.91	407.25
602.06	411.93
602.22	414.27
602.37	393.21
602.53	383.85
602.69	456.40
602.84	416.62
603.00	383.85
603.16	451.72
603.31	444.70
603.47	425.98
603.62	411.93
603.78	458.74
603.94	397.89
604.09	341.72
604.25	498.53
604.40	409.59
604.56	416.62
604.71	402.57
604.87	421.30
605.03	386.19
605.18	472.79
605.34	423.64
605.49	395.55
605.65	486.83
605.80	425.98
605.96	388.53
606.12	496.19
606.27	407.25
606.43	386.19
606.58	440.02
606.74	393.21
606.89	449.38
607.05	423.64
607.20	386.19
607.36	407.25
607.51	442.36
607.67	414.27
607.82	339.38
607.98	409.59
608.13	472.79
608.29	444.70
608.44	407.25
608.60	374.49
608.75	416.62
608.91	411.93
609.06	510.24
609.22	528.96
609.37	437.68
609.53	458.74
609.68	397.89
609.84	447.04
609.99	325.33
610.15	430.66
610.30	456.40
610.46	376.83
610.61	430.66
610.76	362.78
610.92	414.27
611.07	390.87
611.23	409.59
611.38	435.34
611.54	379.17
611.69	414.27
611.84	444.70
612.00	365.12
612.15	437.68
612.31	458.74
612.46	362.78
612.62	463.43
612.77	463.43
612.92	397.89
613.08	416.62
613.23	458.74
613.39	503.22
613.54	353.42
613.69	397.89
613.85	404.91
614.00	425.98
614.15	397.89
614.31	421.30
614.46	482.15
614.62	433.00
614.77	407.25
614.92	423.64
615.08	409.59
615.23	465.77
615.38	486.83
615.54	463.43
615.69	430.66
615.84	423.64
616.00	304.27
616.15	479.81
616.30	395.55
616.46	444.70
616.61	400.23
616.76	395.55
616.92	421.30
617.07	463.43
617.22	348.74
617.37	414.27
617.53	444.70
617.68	390.87
617.83	437.68
617.99	369.80
618.14	491.51
618.29	411.93
618.45	451.72
618.60	416.62
618.75	388.53
618.90	393.21
619.06	407.25
619.21	402.57
619.36	447.04
619.51	372.15
619.67	409.59
619.82	351.08
619.97	386.19
620.12	362.78
620.28	493.85
620.43	421.30
620.58	475.13
620.73	449.38
620.89	458.74
621.04	461.09
621.19	451.72
621.34	447.04
621.49	372.15
621.65	414.27
621.80	397.89
621.95	430.66
622.10	472.79
622.25	475.13
622.41	409.59
622.56	430.66
622.71	381.51
622.86	468.11
623.01	468.11
623.16	400.23
623.32	358.10
623.47	437.68
623.62	393.21
623.77	414.27
623.92	376.83
624.07	425.98
624.23	395.55
624.38	390.87
624.53	402.57
624.68	418.96
624.83	477.47
624.98	423.64
625.13	400.23
625.29	433.00
625.44	503.22
625.59	416.62
625.74	456.40
625.89	381.51
626.04	376.83
626.19	388.53
626.34	407.25
626.49	421.30
626.65	388.53
626.80	428.32
626.95	428.32
627.10	404.91
627.25	484.49
627.40	465.77
627.55	468.11
627.70	362.78
627.85	418.96
628.00	376.83
628.15	348.74
628.30	425.98
628.45	369.80
628.60	435.34
628.76	395.55
628.91	367.46
629.06	430.66
629.21	437.68
629.36	440.02
629.51	489.17
629.66	463.43
629.81	416.62
629.96	433.00
630.11	416.62
630.26	433.00
630.41	388.53
630.56	468.11
630.71	472.79
630.86	433.00
631.01	397.89
631.16	437.68
631.31	428.32
631.46	437.68
631.61	367.46
631.76	430.66
631.91	454.06
632.06	444.70
632.21	376.83
632.36	449.38
632.51	433.00
632.66	344.06
632.81	423.64
632.96	376.83
633.10	409.59
633.25	447.04
633.40	414.27
633.55	421.30
633.70	383.85
633.85	348.74
634.00	393.21
634.15	365.12
634.30	388.53
634.45	463.43
634.60	414.27
634.75	423.64
634.90	451.72
635.05	414.27
635.19	402.57
635.34	409.59
635.49	489.17
635.64	447.04
635.79	379.17
635.94	451.72
636.09	456.40
636.24	463.43
636.39	496.19
636.53	362.78
636.68	395.55
636.83	440.02
636.98	430.66
637.13	395.55
637.28	362.78
637.43	388.53
637.57	456.40
637.72	411.93
637.87	400.23
638.02	418.96
638.17	372.15
638.32	393.21
638.46	463.43
638.61	461.09
638.76	444.70
638.91	395.55
639.06	444.70
639.20	543.00
639.35	400.23
639.50	367.46
639.65	498.53
639.80	374.49
639.94	489.17
640.09	458.74
640.24	407.25
640.39	425.98
640.54	425.98
640.68	372.15
640.83	433.00
640.98	456.40
641.13	374.49
641.27	409.59
641.42	365.12
641.57	430.66
641.72	416.62
641.86	383.85
642.01	360.44
642.16	397.89
642.31	362.78
642.45	449.38
642.60	442.36
642.75	402.57
642.90	430.66
643.04	465.77
643.19	451.72
643.34	362.78
643.48	348.74
643.63	414.27
643.78	414.27
643.93	404.91
644.07	379.17
644.22	451.72
644.37	374.49
644.51	538.32
644.66	437.68
644.81	430.66
644.95	428.32
645.10	400.23
645.25	421.30
645.39	477.47
645.54	360.44
645.69	500.87
645.83	393.21
645.98	477.47
646.13	395.55
646.27	507.90
646.42	456.40
646.57	376.83
646.71	425.98
646.86	355.76
647.00	381.51
647.15	407.25
647.30	386.19
647.44	388.53
647.59	477.47
647.74	393.21
647.88	454.06
648.03	456.40
648.17	444.70
648.32	435.34
648.47	397.89
648.61	409.59
648.76	390.87
648.90	404.91
649.05	482.15
649.20	421.30
649.34	355.76
649.49	383.85
649.63	423.64
649.78	388.53
649.92	388.53
650.07	381.51
650.21	423.64
650.36	451.72
650.51	374.49
650.65	477.47
650.80	442.36
650.94	376.83
651.09	430.66
651.23	414.27
651.38	404.91
651.52	402.57
651.67	386.19
651.81	383.85
651.96	470.45
652.10	465.77
652.25	414.27
652.39	440.02
652.54	397.89
652.68	428.32
652.83	451.72
652.97	440.02
653.12	400.23
653.26	451.72
653.41	437.68
653.55	433.00
653.70	442.36
653.84	409.59
653.99	421.30
654.13	411.93
654.27	414.27
654.42	458.74
654.56	386.19
654.71	430.66
654.85	376.83
655.00	407.25
655.14	376.83
655.29	458.74
655.43	414.27
655.57	472.79
655.72	404.91
655.86	425.98
656.01	484.49
656.15	411.93
656.30	486.83
656.44	414.27
656.58	327.68
656.73	358.10
656.87	437.68
657.01	454.06
657.16	435.34
657.30	423.64
657.45	454.06
657.59	393.21
657.73	332.36
657.88	376.83
658.02	411.93
658.16	383.85
658.31	458.74
658.45	402.57
658.60	372.15
658.74	449.38
658.88	484.49
659.03	414.27
659.17	386.19
659.31	339.38
659.46	416.62
659.60	395.55
659.74	454.06
659.89	414.27
660.03	433.00
660.17	381.51
660.32	379.17
660.46	409.59
660.60	442.36
660.74	468.11
660.89	421.30
661.03	374.49
661.17	470.45
661.32	430.66
661.46	374.49
661.60	360.44
661.74	442.36
661.89	442.36
662.03	397.89
662.17	418.96
662.31	386.19
662.46	397.89
662.60	388.53
662.74	402.57
662.88	402.57
663.03	353.42
663.17	372.15
663.31	454.06
663.45	402.57
663.60	395.55
663.74	442.36
663.88	358.10
664.02	421.30
664.17	358.10
664.31	425.98
664.45	407.25
664.59	376.83
664.73	444.70
664.88	444.70
665.02	428.32
665.16	465.77
665.30	395.55
665.44	404.91
665.59	425.98
665.73	400.23
665.87	447.04
666.01	463.43
666.15	334.70
666.29	372.15
666.44	407.25
666.58	418.96
666.72	388.53
666.86	437.68
667.00	428.32
667.14	411.93
667.28	421.30
667.43	435.34
667.57	437.68
667.71	409.59
667.85	444.70
667.99	418.96
668.13	397.89
668.27	458.74
668.41	444.70
668.56	374.49
668.70	479.81
668.84	416.62
668.98	430.66
669.12	428.32
669.26	425.98
669.40	461.09
669.54	381.51
669.68	425.98
669.82	411.93
669.96	428.32
670.10	416.62
670.25	458.74
670.39	423.64
670.53	479.81
670.67	461.09
670.81	369.80
670.95	402.57
671.09	402.57
671.23	479.81
671.37	411.93
671.51	451.72
671.65	390.87
671.79	456.40
671.93	400.23
672.07	489.17
672.21	437.68
672.35	421.30
672.49	440.02
672.63	433.00
672.77	367.46
672.91	346.40
673.05	470.45
673.19	491.51
673.33	388.53
673.47	407.25
673.61	348.74
673.75	423.64
673.89	365.12
674.03	358.10
674.17	355.76
674.31	475.13
674.45	367.46
674.59	484.49
674.73	428.32
674.87	442.36
675.01	447.04
675.15	313.63
675.29	407.25
675.43	400.23
675.56	482.15
675.70	449.38
675.84	400.23
675.98	393.21
676.12	437.68
676.26	393.21
676.40	442.36
676.54	386.19
676.68	407.25
676.82	477.47
676.96	411.93
677.10	386.19
677.23	477.47
677.37	477.47
677.51	416.62
677.65	444.70
677.79	390.87
677.93	442.36
678.07	454.06
678.21	341.72
678.34	411.93
678.48	449.38
678.62	468.11
678.76	353.42
678.90	311.29
679.04	418.96
679.18	463.43
679.31	416.62
679.45	332.36
679.59	447.04
679.73	458.74
679.87	376.83
680.00	388.53
680.14	407.25
680.28	383.85
680.42	386.19
680.56	440.02
680.70	341.72
680.83	461.09
680.97	348.74
681.11	393.21
681.25	477.47
681.39	402.57
681.52	449.38
681.66	447.04
681.80	444.70
681.94	430.66
682.07	388.53
682.21	496.19
682.35	437.68
682.49	376.83
682.62	409.59
682.76	358.10
682.90	409.59
683.04	421.30
683.17	337.04
683.31	477.47
683.45	440.02
683.59	411.93
683.72	444.70
683.86	468.11
684.00	400.23
684.13	489.17
684.27	421.30
684.41	414.27
684.55	454.06
684.68	411.93
684.82	344.06
684.96	390.87
685.09	397.89
685.23	388.53
685.37	475.13
685.50	397.89
685.64	444.70
685.78	447.04
685.91	489.17
686.05	423.64
686.19	458.74
686.32	379.17
686.46	395.55
686.60	440.02
686.73	472.79
686.87	463.43
687.01	428.32
687.14	414.27
687.28	428.32
687.42	383.85
687.55	388.53
687.69	355.76
687.82	383.85
687.96	449.38
688.10	458.74
688.23	369.80
688.37	442.36
688.50	397.89
688.64	472.79
688.78	402.57
688.91	444.70
689.05	425.98
689.18	390.87
689.32	381.51
689.46	444.70
689.59	379.17
689.73	411.93
689.86	437.68
690.00	447.04
690.13	414.27
690.27	379.17
690.41	400.23
690.54	421.30
690.68	365.12
690.81	456.40
690.95	376.83
691.08	355.76
691.22	456.40
691.35	425.98
691.49	454.06
691.62	409.59
691.76	376.83
691.89	376.83
692.03	444.70
692.16	421.30
692.30	414.27
692.43	390.87
692.57	372.15
692.70	369.80
692.84	369.80
692.97	461.09
693.11	407.25
693.24	416.62
693.38	437.68
693.51	425.98
693.65	416.62
693.78	428.32
693.92	407.25
694.05	430.66
694.19	440.02
694.32	451.72
694.45	327.68
694.59	437.68
694.72	428.32
694.86	414.27
694.99	447.04
695.13	381.51
695.26	376.83
695.39	418.96
695.53	360.44
695.66	435.34
695.80	463.43
695.93	449.38
696.07	425.98
696.20	365.12
696.33	411.93
696.47	372.15
696.60	369.80
696.73	510.24
696.87	386.19
697.00	486.83
697.14	414.27
697.27	440.02
697.40	517.26
697.54	449.38
697.67	383.85
697.80	449.38
697.94	404.91
698.07	372.15
698.21	374.49
698.34	510.24
698.47	416.62
698.61	400.23
698.74	393.21
698.87	468.11
699.01	381.51
699.14	351.08
699.27	505.56
699.40	514.92
699.54	344.06
699.67	442.36
699.80	397.89
699.94	372.15
700.07	433.00
700.20	444.70
700.34	355.76
700.47	425.98
700.60	379.17
700.73	395.55
700.87	463.43
701.00	428.32
701.13	411.93
701.26	393.21
701.40	465.77
701.53	355.76
701.66	379.17
701.79	421.30
701.93	393.21
702.06	472.79
702.19	447.04
702.32	416.62
702.46	395.55
702.59	400.23
702.72	407.25
702.85	376.83
702.99	444.70
703.12	418.96
703.25	386.19
703.38	421.30
703.51	374.49
703.65	365.12
703.78	379.17
703.91	390.87
704.04	461.09
704.17	449.38
704.31	388.53
704.44	411.93
704.57	348.74
704.70	418.96
704.83	423.64
704.96	465.77
705.10	444.70
705.23	381.51
>>>>>End Processed Spectral Data<<<<<
