SpectraSuite Data File
++++++++++++++++++++++++++++++++++++
Date: Fri Oct 25 12:10:18 EDT 2013
User: price-jones
Dark Spectrum Present: No
Reference Spectrum Present: No
Number of Sampled Component Spectra: 1
Spectrometers: USB2+H05261
Integration Time (usec): 100000 (USB2+H05261)
Spectra Averaged: 1 (USB2+H05261)
Boxcar Smoothing: 0 (USB2+H05261)
Correct for Electrical Dark: No (USB2+H05261)
Strobe/Lamp Enabled: No (USB2+H05261)
Correct for Detector Non-linearity: No (USB2+H05261)
Correct for Stray Light: No (USB2+H05261)
Number of Pixels in Processed Spectrum: 2048
>>>>>Begin Processed Spectral Data<<<<<
365.73	339.38
365.92	339.38
366.12	339.38
366.32	194.26
366.52	250.44
366.72	257.46
366.91	252.78
367.11	252.78
367.31	271.50
367.51	283.20
367.70	229.37
367.90	250.44
368.10	220.01
368.30	266.82
368.49	245.76
368.69	208.31
368.89	177.88
369.09	205.97
369.28	222.35
369.48	283.20
369.68	264.48
369.87	325.33
370.07	280.86
370.27	266.82
370.47	315.97
370.66	388.53
370.86	381.51
371.06	376.83
371.25	379.17
371.45	383.85
371.65	456.40
371.84	374.49
372.04	339.38
372.24	411.93
372.44	346.40
372.63	390.87
372.83	404.91
373.03	430.66
373.22	404.91
373.42	407.25
373.62	407.25
373.81	451.72
374.01	416.62
374.21	395.55
374.40	360.44
374.60	470.45
374.79	514.92
374.99	402.57
375.19	379.17
375.38	433.00
375.58	465.77
375.78	447.04
375.97	486.83
376.17	470.45
376.37	346.40
376.56	442.36
376.76	437.68
376.95	425.98
377.15	463.43
377.35	411.93
377.54	425.98
377.74	337.04
377.93	376.83
378.13	425.98
378.33	521.94
378.52	468.11
378.72	379.17
378.91	449.38
379.11	379.17
379.31	470.45
379.50	367.46
379.70	397.89
379.89	447.04
380.09	428.32
380.28	409.59
380.48	444.70
380.68	440.02
380.87	367.46
381.07	425.98
381.26	486.83
381.46	456.40
381.65	468.11
381.85	353.42
382.04	425.98
382.24	383.85
382.43	388.53
382.63	355.76
382.83	376.83
383.02	407.25
383.22	372.15
383.41	449.38
383.61	376.83
383.80	421.30
384.00	369.80
384.19	440.02
384.39	344.06
384.58	435.34
384.78	468.11
384.97	402.57
385.17	379.17
385.36	390.87
385.56	449.38
385.75	334.70
385.95	358.10
386.14	454.06
386.34	411.93
386.53	463.43
386.72	381.51
386.92	353.42
387.11	393.21
387.31	421.30
387.50	440.02
387.70	325.33
387.89	341.72
388.09	393.21
388.28	376.83
388.48	379.17
388.67	442.36
388.86	397.89
389.06	430.66
389.25	409.59
389.45	388.53
389.64	379.17
389.84	435.34
390.03	505.56
390.22	444.70
390.42	383.85
390.61	374.49
390.81	341.72
391.00	351.08
391.19	393.21
391.39	383.85
391.58	386.19
391.78	390.87
391.97	430.66
392.16	411.93
392.36	456.40
392.55	402.57
392.75	372.15
392.94	388.53
393.13	430.66
393.33	379.17
393.52	381.51
393.71	358.10
393.91	411.93
394.10	440.02
394.29	425.98
394.49	440.02
394.68	425.98
394.88	477.47
395.07	409.59
395.26	365.12
395.46	433.00
395.65	428.32
395.84	442.36
396.04	454.06
396.23	402.57
396.42	433.00
396.62	423.64
396.81	376.83
397.00	454.06
397.19	369.80
397.39	416.62
397.58	444.70
397.77	388.53
397.97	388.53
398.16	407.25
398.35	409.59
398.55	423.64
398.74	383.85
398.93	409.59
399.12	332.36
399.32	351.08
399.51	374.49
399.70	428.32
399.90	372.15
400.09	315.97
400.28	461.09
400.47	395.55
400.67	425.98
400.86	482.15
401.05	348.74
401.24	451.72
401.44	330.02
401.63	365.12
401.82	423.64
402.01	449.38
402.21	477.47
402.40	386.19
402.59	397.89
402.78	425.98
402.97	407.25
403.17	388.53
403.36	388.53
403.55	367.46
403.74	447.04
403.93	367.46
404.13	416.62
404.32	407.25
404.51	451.72
404.70	440.02
404.89	430.66
405.09	440.02
405.28	454.06
405.47	369.80
405.66	379.17
405.85	477.47
406.05	477.47
406.24	486.83
406.43	390.87
406.62	402.57
406.81	414.27
407.00	493.85
407.20	395.55
407.39	397.89
407.58	372.15
407.77	433.00
407.96	402.57
408.15	365.12
408.34	430.66
408.54	414.27
408.73	449.38
408.92	442.36
409.11	416.62
409.30	379.17
409.49	437.68
409.68	458.74
409.87	407.25
410.07	379.17
410.26	437.68
410.45	409.59
410.64	386.19
410.83	397.89
411.02	386.19
411.21	390.87
411.40	423.64
411.59	421.30
411.78	367.46
411.98	444.70
412.17	374.49
412.36	402.57
412.55	369.80
412.74	418.96
412.93	409.59
413.12	425.98
413.31	461.09
413.50	433.00
413.69	454.06
413.88	442.36
414.07	440.02
414.26	351.08
414.45	386.19
414.64	496.19
414.83	444.70
415.02	334.70
415.22	344.06
415.41	409.59
415.60	383.85
415.79	404.91
415.98	409.59
416.17	348.74
416.36	339.38
416.55	397.89
416.74	440.02
416.93	435.34
417.12	332.36
417.31	372.15
417.50	379.17
417.69	524.28
417.88	442.36
418.07	421.30
418.26	416.62
418.45	390.87
418.64	433.00
418.83	395.55
419.02	397.89
419.21	400.23
419.39	423.64
419.58	304.27
419.77	337.04
419.96	341.72
420.15	440.02
420.34	383.85
420.53	456.40
420.72	411.93
420.91	395.55
421.10	468.11
421.29	379.17
421.48	402.57
421.67	393.21
421.86	421.30
422.05	442.36
422.24	418.96
422.43	397.89
422.61	421.30
422.80	411.93
422.99	489.17
423.18	433.00
423.37	421.30
423.56	404.91
423.75	451.72
423.94	322.99
424.13	337.04
424.32	386.19
424.50	376.83
424.69	397.89
424.88	451.72
425.07	423.64
425.26	430.66
425.45	362.78
425.64	428.32
425.83	433.00
426.01	390.87
426.20	395.55
426.39	411.93
426.58	454.06
426.77	418.96
426.96	390.87
427.15	395.55
427.33	395.55
427.52	414.27
427.71	390.87
427.90	393.21
428.09	381.51
428.28	486.83
428.46	397.89
428.65	451.72
428.84	435.34
429.03	435.34
429.22	344.06
429.40	477.47
429.59	390.87
429.78	367.46
429.97	435.34
430.16	444.70
430.34	381.51
430.53	409.59
430.72	437.68
430.91	416.62
431.10	411.93
431.28	468.11
431.47	451.72
431.66	400.23
431.85	447.04
432.03	418.96
432.22	447.04
432.41	447.04
432.60	388.53
432.79	428.32
432.97	367.46
433.16	411.93
433.35	442.36
433.54	367.46
433.72	430.66
433.91	477.47
434.10	414.27
434.28	379.17
434.47	386.19
434.66	369.80
434.85	393.21
435.03	425.98
435.22	470.45
435.41	468.11
435.59	428.32
435.78	404.91
435.97	355.76
436.16	418.96
436.34	447.04
436.53	442.36
436.72	454.06
436.90	475.13
437.09	444.70
437.28	411.93
437.46	458.74
437.65	425.98
437.84	442.36
438.02	414.27
438.21	458.74
438.40	360.44
438.58	346.40
438.77	440.02
438.96	358.10
439.14	395.55
439.33	442.36
439.52	407.25
439.70	489.17
439.89	428.32
440.08	463.43
440.26	362.78
440.45	449.38
440.63	393.21
440.82	440.02
441.01	344.06
441.19	367.46
441.38	411.93
441.57	379.17
441.75	463.43
441.94	463.43
442.12	400.23
442.31	430.66
442.50	360.44
442.68	386.19
442.87	449.38
443.05	418.96
443.24	418.96
443.43	498.53
443.61	491.51
443.80	449.38
443.98	397.89
444.17	407.25
444.35	456.40
444.54	369.80
444.73	355.76
444.91	486.83
445.10	407.25
445.28	444.70
445.47	440.02
445.65	404.91
445.84	400.23
446.02	414.27
446.21	400.23
446.39	463.43
446.58	423.64
446.77	444.70
446.95	383.85
447.14	458.74
447.32	449.38
447.51	449.38
447.69	400.23
447.88	400.23
448.06	477.47
448.25	416.62
448.43	416.62
448.62	388.53
448.80	416.62
448.99	418.96
449.17	393.21
449.36	411.93
449.54	430.66
449.73	425.98
449.91	402.57
450.10	355.76
450.28	409.59
450.46	437.68
450.65	390.87
450.83	411.93
451.02	379.17
451.20	425.98
451.39	442.36
451.57	461.09
451.76	402.57
451.94	437.68
452.13	386.19
452.31	440.02
452.49	454.06
452.68	390.87
452.86	521.94
453.05	404.91
453.23	433.00
453.42	409.59
453.60	437.68
453.78	411.93
453.97	395.55
454.15	381.51
454.34	423.64
454.52	390.87
454.70	423.64
454.89	344.06
455.07	437.68
455.26	404.91
455.44	458.74
455.62	409.59
455.81	383.85
455.99	470.45
456.17	440.02
456.36	374.49
456.54	423.64
456.73	308.95
456.91	348.74
457.09	458.74
457.28	451.72
457.46	390.87
457.64	479.81
457.83	390.87
458.01	423.64
458.19	447.04
458.38	433.00
458.56	500.87
458.74	416.62
458.93	486.83
459.11	449.38
459.29	414.27
459.48	409.59
459.66	416.62
459.84	421.30
460.03	395.55
460.21	379.17
460.39	411.93
460.57	425.98
460.76	486.83
460.94	381.51
461.12	451.72
461.31	463.43
461.49	444.70
461.67	425.98
461.85	411.93
462.04	411.93
462.22	784.08
462.40	442.36
462.59	454.06
462.77	372.15
462.95	463.43
463.13	458.74
463.32	409.59
463.50	458.74
463.68	407.25
463.86	458.74
464.05	397.89
464.23	482.15
464.41	444.70
464.59	418.96
464.78	421.30
464.96	388.53
465.14	423.64
465.32	421.30
465.50	461.09
465.69	379.17
465.87	451.72
466.05	393.21
466.23	449.38
466.41	428.32
466.60	344.06
466.78	325.33
466.96	411.93
467.14	433.00
467.32	468.11
467.51	386.19
467.69	388.53
467.87	395.55
468.05	411.93
468.23	440.02
468.41	468.11
468.60	386.19
468.78	372.15
468.96	400.23
469.14	465.77
469.32	456.40
469.50	416.62
469.69	444.70
469.87	479.81
470.05	458.74
470.23	397.89
470.41	395.55
470.59	407.25
470.77	435.34
470.95	416.62
471.14	414.27
471.32	425.98
471.50	433.00
471.68	409.59
471.86	414.27
472.04	465.77
472.22	411.93
472.40	411.93
472.58	341.72
472.77	421.30
472.95	435.34
473.13	414.27
473.31	449.38
473.49	440.02
473.67	458.74
473.85	440.02
474.03	430.66
474.21	367.46
474.39	475.13
474.57	437.68
474.75	409.59
474.93	416.62
475.12	451.72
475.30	411.93
475.48	386.19
475.66	440.02
475.84	353.42
476.02	456.40
476.20	372.15
476.38	421.30
476.56	458.74
476.74	430.66
476.92	374.49
477.10	402.57
477.28	402.57
477.46	475.13
477.64	393.21
477.82	418.96
478.00	400.23
478.18	425.98
478.36	390.87
478.54	416.62
478.72	355.76
478.90	430.66
479.08	409.59
479.26	409.59
479.44	372.15
479.62	376.83
479.80	388.53
479.98	498.53
480.16	395.55
480.34	376.83
480.52	397.89
480.70	465.77
480.88	388.53
481.06	404.91
481.24	369.80
481.41	421.30
481.59	402.57
481.77	451.72
481.95	451.72
482.13	411.93
482.31	465.77
482.49	393.21
482.67	402.57
482.85	402.57
483.03	458.74
483.21	428.32
483.39	365.12
483.57	404.91
483.74	449.38
483.92	486.83
484.10	369.80
484.28	372.15
484.46	425.98
484.64	428.32
484.82	468.11
485.00	425.98
485.18	407.25
485.35	444.70
485.53	411.93
485.71	433.00
485.89	414.27
486.07	430.66
486.25	442.36
486.43	421.30
486.61	435.34
486.78	365.12
486.96	411.93
487.14	461.09
487.32	416.62
487.50	367.46
487.68	404.91
487.85	393.21
488.03	407.25
488.21	397.89
488.39	418.96
488.57	393.21
488.75	451.72
488.92	514.92
489.10	374.49
489.28	444.70
489.46	365.12
489.64	390.87
489.81	475.13
489.99	397.89
490.17	362.78
490.35	477.47
490.53	447.04
490.70	376.83
490.88	470.45
491.06	402.57
491.24	353.42
491.41	416.62
491.59	433.00
491.77	421.30
491.95	428.32
492.13	358.10
492.30	507.90
492.48	411.93
492.66	456.40
492.84	365.12
493.01	372.15
493.19	407.25
493.37	418.96
493.54	400.23
493.72	353.42
493.90	400.23
494.08	330.02
494.25	489.17
494.43	428.32
494.61	374.49
494.79	435.34
494.96	400.23
495.14	386.19
495.32	400.23
495.49	454.06
495.67	395.55
495.85	390.87
496.02	440.02
496.20	418.96
496.38	433.00
496.55	449.38
496.73	402.57
496.91	414.27
497.09	461.09
497.26	322.99
497.44	404.91
497.62	388.53
497.79	521.94
497.97	447.04
498.14	416.62
498.32	475.13
498.50	447.04
498.67	346.40
498.85	402.57
499.03	379.17
499.20	390.87
499.38	353.42
499.56	397.89
499.73	409.59
499.91	442.36
500.08	411.93
500.26	395.55
500.44	475.13
500.61	421.30
500.79	428.32
500.97	482.15
501.14	414.27
501.32	454.06
501.49	386.19
501.67	433.00
501.84	393.21
502.02	353.42
502.20	479.81
502.37	442.36
502.55	409.59
502.72	393.21
502.90	428.32
503.07	397.89
503.25	411.93
503.43	397.89
503.60	451.72
503.78	407.25
503.95	348.74
504.13	444.70
504.30	374.49
504.48	423.64
504.65	418.96
504.83	423.64
505.01	393.21
505.18	416.62
505.36	383.85
505.53	423.64
505.71	451.72
505.88	444.70
506.06	411.93
506.23	379.17
506.41	367.46
506.58	372.15
506.76	374.49
506.93	416.62
507.11	440.02
507.28	423.64
507.46	404.91
507.63	440.02
507.81	451.72
507.98	395.55
508.16	390.87
508.33	369.80
508.50	437.68
508.68	437.68
508.85	360.44
509.03	393.21
509.20	383.85
509.38	383.85
509.55	435.34
509.73	416.62
509.90	442.36
510.08	372.15
510.25	381.51
510.42	372.15
510.60	407.25
510.77	444.70
510.95	447.04
511.12	360.44
511.30	444.70
511.47	447.04
511.64	381.51
511.82	423.64
511.99	411.93
512.17	397.89
512.34	376.83
512.51	355.76
512.69	397.89
512.86	465.77
513.04	489.17
513.21	374.49
513.38	395.55
513.56	367.46
513.73	404.91
513.90	365.12
514.08	411.93
514.25	433.00
514.43	315.97
514.60	374.49
514.77	402.57
514.95	421.30
515.12	414.27
515.29	353.42
515.47	369.80
515.64	521.94
515.81	393.21
515.99	482.15
516.16	416.62
516.33	475.13
516.51	379.17
516.68	402.57
516.85	484.49
517.03	395.55
517.20	423.64
517.37	421.30
517.54	416.62
517.72	411.93
517.89	341.72
518.06	430.66
518.24	442.36
518.41	472.79
518.58	393.21
518.75	407.25
518.93	442.36
519.10	444.70
519.27	444.70
519.45	404.91
519.62	386.19
519.79	425.98
519.96	475.13
520.14	416.62
520.31	489.17
520.48	395.55
520.65	425.98
520.83	393.21
521.00	369.80
521.17	365.12
521.34	433.00
521.52	437.68
521.69	395.55
521.86	414.27
522.03	440.02
522.20	449.38
522.38	383.85
522.55	407.25
522.72	475.13
522.89	449.38
523.07	447.04
523.24	383.85
523.41	449.38
523.58	400.23
523.75	355.76
523.92	393.21
524.10	407.25
524.27	449.38
524.44	440.02
524.61	512.58
524.78	440.02
524.96	400.23
525.13	376.83
525.30	435.34
525.47	404.91
525.64	386.19
525.81	458.74
525.98	440.02
526.16	435.34
526.33	433.00
526.50	390.87
526.67	458.74
526.84	379.17
527.01	479.81
527.18	397.89
527.36	414.27
527.53	393.21
527.70	409.59
527.87	456.40
528.04	475.13
528.21	325.33
528.38	386.19
528.55	388.53
528.72	404.91
528.89	454.06
529.07	418.96
529.24	346.40
529.41	388.53
529.58	393.21
529.75	433.00
529.92	440.02
530.09	456.40
530.26	458.74
530.43	390.87
530.60	407.25
530.77	369.80
530.94	468.11
531.11	449.38
531.28	383.85
531.46	437.68
531.63	360.44
531.80	400.23
531.97	458.74
532.14	456.40
532.31	388.53
532.48	472.79
532.65	489.17
532.82	397.89
532.99	402.57
533.16	400.23
533.33	423.64
533.50	404.91
533.67	404.91
533.84	402.57
534.01	393.21
534.18	442.36
534.35	447.04
534.52	407.25
534.69	388.53
534.86	404.91
535.03	454.06
535.20	409.59
535.37	388.53
535.54	440.02
535.71	388.53
535.88	430.66
536.05	409.59
536.22	461.09
536.38	449.38
536.55	353.42
536.72	463.43
536.89	458.74
537.06	465.77
537.23	421.30
537.40	463.43
537.57	407.25
537.74	489.17
537.91	454.06
538.08	472.79
538.25	491.51
538.42	437.68
538.59	433.00
538.75	418.96
538.92	416.62
539.09	376.83
539.26	367.46
539.43	479.81
539.60	425.98
539.77	381.51
539.94	440.02
540.11	444.70
540.28	388.53
540.44	435.34
540.61	411.93
540.78	442.36
540.95	383.85
541.12	411.93
541.29	493.85
541.46	402.57
541.62	418.96
541.79	369.80
541.96	421.30
542.13	388.53
542.30	388.53
542.47	421.30
542.63	461.09
542.80	395.55
542.97	463.43
543.14	362.78
543.31	465.77
543.48	376.83
543.64	407.25
543.81	433.00
543.98	388.53
544.15	479.81
544.32	423.64
544.48	365.12
544.65	376.83
544.82	409.59
544.99	358.10
545.16	442.36
545.32	402.57
545.49	358.10
545.66	416.62
545.83	353.42
546.00	386.19
546.16	444.70
546.33	379.17
546.50	418.96
546.67	482.15
546.83	402.57
547.00	465.77
547.17	411.93
547.34	372.15
547.50	402.57
547.67	444.70
547.84	444.70
548.00	393.21
548.17	458.74
548.34	454.06
548.51	383.85
548.67	290.23
548.84	404.91
549.01	360.44
549.18	374.49
549.34	472.79
549.51	397.89
549.68	395.55
549.84	301.93
550.01	430.66
550.18	503.22
550.34	454.06
550.51	486.83
550.68	491.51
550.84	444.70
551.01	393.21
551.18	524.28
551.34	367.46
551.51	369.80
551.68	430.66
551.84	393.21
552.01	416.62
552.18	442.36
552.34	433.00
552.51	400.23
552.68	418.96
552.84	376.83
553.01	351.08
553.18	348.74
553.34	322.99
553.51	435.34
553.67	414.27
553.84	437.68
554.01	379.17
554.17	465.77
554.34	395.55
554.51	341.72
554.67	374.49
554.84	456.40
555.00	470.45
555.17	435.34
555.33	407.25
555.50	418.96
555.67	397.89
555.83	379.17
556.00	437.68
556.16	528.96
556.33	498.53
556.50	376.83
556.66	430.66
556.83	411.93
556.99	402.57
557.16	402.57
557.32	475.13
557.49	348.74
557.65	461.09
557.82	423.64
557.98	418.96
558.15	423.64
558.32	358.10
558.48	435.34
558.65	372.15
558.81	418.96
558.98	393.21
559.14	423.64
559.31	435.34
559.47	400.23
559.64	449.38
559.80	381.51
559.97	411.93
560.13	393.21
560.30	428.32
560.46	425.98
560.63	517.26
560.79	456.40
560.96	503.22
561.12	472.79
561.29	418.96
561.45	418.96
561.61	465.77
561.78	437.68
561.94	451.72
562.11	444.70
562.27	400.23
562.44	388.53
562.60	414.27
562.77	362.78
562.93	423.64
563.10	414.27
563.26	388.53
563.42	470.45
563.59	437.68
563.75	454.06
563.92	421.30
564.08	423.64
564.24	477.47
564.41	416.62
564.57	400.23
564.74	353.42
564.90	491.51
565.07	433.00
565.23	409.59
565.39	390.87
565.56	400.23
565.72	430.66
565.88	386.19
566.05	423.64
566.21	461.09
566.38	402.57
566.54	435.34
566.70	409.59
566.87	456.40
567.03	421.30
567.19	404.91
567.36	489.17
567.52	404.91
567.68	440.02
567.85	390.87
568.01	458.74
568.17	358.10
568.34	372.15
568.50	463.43
568.66	470.45
568.83	517.26
568.99	433.00
569.15	493.85
569.32	421.30
569.48	402.57
569.64	360.44
569.81	360.44
569.97	416.62
570.13	362.78
570.30	395.55
570.46	365.12
570.62	416.62
570.78	442.36
570.95	322.99
571.11	353.42
571.27	491.51
571.43	390.87
571.60	463.43
571.76	367.46
571.92	393.21
572.09	395.55
572.25	428.32
572.41	308.95
572.57	430.66
572.74	456.40
572.90	456.40
573.06	369.80
573.22	484.49
573.38	433.00
573.55	386.19
573.71	486.83
573.87	437.68
574.03	411.93
574.20	393.21
574.36	463.43
574.52	421.30
574.68	339.38
574.84	411.93
575.01	383.85
575.17	428.32
575.33	447.04
575.49	484.49
575.65	468.11
575.82	395.55
575.98	414.27
576.14	454.06
576.30	414.27
576.46	390.87
576.62	346.40
576.79	468.11
576.95	418.96
577.11	397.89
577.27	388.53
577.43	414.27
577.59	341.72
577.75	379.17
577.92	447.04
578.08	402.57
578.24	477.47
578.40	454.06
578.56	489.17
578.72	404.91
578.88	461.09
579.04	463.43
579.21	414.27
579.37	479.81
579.53	451.72
579.69	468.11
579.85	430.66
580.01	440.02
580.17	428.32
580.33	449.38
580.49	440.02
580.65	425.98
580.82	395.55
580.98	404.91
581.14	491.51
581.30	423.64
581.46	358.10
581.62	486.83
581.78	451.72
581.94	409.59
582.10	421.30
582.26	407.25
582.42	381.51
582.58	421.30
582.74	444.70
582.90	418.96
583.06	407.25
583.22	463.43
583.38	404.91
583.54	444.70
583.70	503.22
583.86	416.62
584.02	362.78
584.18	414.27
584.34	376.83
584.50	348.74
584.66	400.23
584.82	374.49
584.98	414.27
585.14	428.32
585.30	353.42
585.46	369.80
585.62	376.83
585.78	458.74
585.94	423.64
586.10	472.79
586.26	388.53
586.42	428.32
586.58	372.15
586.74	428.32
586.90	400.23
587.06	409.59
587.22	421.30
587.38	411.93
587.54	407.25
587.70	423.64
587.86	458.74
588.02	414.27
588.18	397.89
588.34	517.26
588.49	440.02
588.65	423.64
588.81	372.15
588.97	489.17
589.13	489.17
589.29	369.80
589.45	472.79
589.61	397.89
589.77	402.57
589.93	374.49
590.08	388.53
590.24	397.89
590.40	435.34
590.56	409.59
590.72	404.91
590.88	365.12
591.04	322.99
591.20	428.32
591.35	463.43
591.51	390.87
591.67	451.72
591.83	451.72
591.99	390.87
592.15	400.23
592.31	442.36
592.46	430.66
592.62	463.43
592.78	435.34
592.94	414.27
593.10	339.38
593.26	383.85
593.41	435.34
593.57	369.80
593.73	374.49
593.89	362.78
594.05	435.34
594.20	416.62
594.36	404.91
594.52	353.42
594.68	402.57
594.84	451.72
594.99	409.59
595.15	486.83
595.31	402.57
595.47	409.59
595.62	468.11
595.78	425.98
595.94	367.46
596.10	376.83
596.25	402.57
596.41	376.83
596.57	381.51
596.73	376.83
596.88	447.04
597.04	437.68
597.20	421.30
597.36	414.27
597.51	428.32
597.67	411.93
597.83	365.12
597.99	444.70
598.14	386.19
598.30	435.34
598.46	367.46
598.61	510.24
598.77	379.17
598.93	416.62
599.09	461.09
599.24	372.15
599.40	444.70
599.56	381.51
599.71	407.25
599.87	402.57
600.03	362.78
600.18	449.38
600.34	383.85
600.50	414.27
600.65	449.38
600.81	404.91
600.97	423.64
601.12	486.83
601.28	479.81
601.44	514.92
601.59	421.30
601.75	423.64
601.91	414.27
602.06	365.12
602.22	468.11
602.37	430.66
602.53	463.43
602.69	428.32
602.84	348.74
603.00	449.38
603.16	454.06
603.31	447.04
603.47	386.19
603.62	402.57
603.78	440.02
603.94	367.46
604.09	463.43
604.25	414.27
604.40	386.19
604.56	451.72
604.71	425.98
604.87	461.09
605.03	404.91
605.18	358.10
605.34	510.24
605.49	491.51
605.65	395.55
605.80	381.51
605.96	386.19
606.12	379.17
606.27	440.02
606.43	454.06
606.58	486.83
606.74	442.36
606.89	435.34
607.05	465.77
607.20	388.53
607.36	411.93
607.51	397.89
607.67	390.87
607.82	367.46
607.98	390.87
608.13	351.08
608.29	449.38
608.44	447.04
608.60	486.83
608.75	449.38
608.91	440.02
609.06	430.66
609.22	454.06
609.37	393.21
609.53	479.81
609.68	444.70
609.84	433.00
609.99	360.44
610.15	472.79
610.30	416.62
610.46	416.62
610.61	484.49
610.76	437.68
610.92	465.77
611.07	409.59
611.23	440.02
611.38	477.47
611.54	397.89
611.69	430.66
611.84	383.85
612.00	395.55
612.15	414.27
612.31	503.22
612.46	358.10
612.62	433.00
612.77	407.25
612.92	479.81
613.08	400.23
613.23	390.87
613.39	360.44
613.54	339.38
613.69	386.19
613.85	379.17
614.00	418.96
614.15	425.98
614.31	444.70
614.46	475.13
614.62	393.21
614.77	442.36
614.92	358.10
615.08	376.83
615.23	397.89
615.38	409.59
615.54	409.59
615.69	433.00
615.84	381.51
616.00	315.97
616.15	442.36
616.30	348.74
616.46	465.77
616.61	451.72
616.76	411.93
616.92	433.00
617.07	409.59
617.22	411.93
617.37	407.25
617.53	477.47
617.68	372.15
617.83	353.42
617.99	454.06
618.14	374.49
618.29	418.96
618.45	400.23
618.60	395.55
618.75	397.89
618.90	407.25
619.06	404.91
619.21	409.59
619.36	461.09
619.51	465.77
619.67	409.59
619.82	404.91
619.97	454.06
620.12	496.19
620.28	430.66
620.43	407.25
620.58	465.77
620.73	402.57
620.89	404.91
621.04	444.70
621.19	479.81
621.34	346.40
621.49	390.87
621.65	425.98
621.80	353.42
621.95	400.23
622.10	440.02
622.25	358.10
622.41	418.96
622.56	425.98
622.71	456.40
622.86	400.23
623.01	425.98
623.16	458.74
623.32	351.08
623.47	395.55
623.62	381.51
623.77	365.12
623.92	411.93
624.07	428.32
624.23	379.17
624.38	383.85
624.53	430.66
624.68	395.55
624.83	447.04
624.98	411.93
625.13	376.83
625.29	376.83
625.44	383.85
625.59	449.38
625.74	425.98
625.89	393.21
626.04	418.96
626.19	358.10
626.34	348.74
626.49	463.43
626.65	447.04
626.80	353.42
626.95	411.93
627.10	437.68
627.25	425.98
627.40	411.93
627.55	351.08
627.70	428.32
627.85	510.24
628.00	428.32
628.15	411.93
628.30	470.45
628.45	386.19
628.60	402.57
628.76	430.66
628.91	390.87
629.06	400.23
629.21	498.53
629.36	498.53
629.51	463.43
629.66	393.21
629.81	449.38
629.96	500.87
630.11	421.30
630.26	390.87
630.41	388.53
630.56	461.09
630.71	334.70
630.86	416.62
631.01	447.04
631.16	369.80
631.31	435.34
631.46	425.98
631.61	414.27
631.76	416.62
631.91	411.93
632.06	451.72
632.21	433.00
632.36	414.27
632.51	423.64
632.66	376.83
632.81	428.32
632.96	407.25
633.10	428.32
633.25	437.68
633.40	447.04
633.55	433.00
633.70	418.96
633.85	397.89
634.00	334.70
634.15	435.34
634.30	369.80
634.45	437.68
634.60	479.81
634.75	425.98
634.90	341.72
635.05	425.98
635.19	381.51
635.34	402.57
635.49	407.25
635.64	423.64
635.79	388.53
635.94	421.30
636.09	433.00
636.24	400.23
636.39	397.89
636.53	493.85
636.68	400.23
636.83	423.64
636.98	400.23
637.13	409.59
637.28	376.83
637.43	463.43
637.57	400.23
637.72	409.59
637.87	458.74
638.02	435.34
638.17	381.51
638.32	414.27
638.46	353.42
638.61	543.00
638.76	404.91
638.91	425.98
639.06	339.38
639.20	444.70
639.35	390.87
639.50	395.55
639.65	409.59
639.80	425.98
639.94	409.59
640.09	433.00
640.24	500.87
640.39	411.93
640.54	376.83
640.68	472.79
640.83	421.30
640.98	381.51
641.13	374.49
641.27	440.02
641.42	369.80
641.57	496.19
641.72	393.21
641.86	362.78
642.01	414.27
642.16	372.15
642.31	386.19
642.45	468.11
642.60	416.62
642.75	351.08
642.90	423.64
643.04	372.15
643.19	369.80
643.34	376.83
643.48	484.49
643.63	421.30
643.78	400.23
643.93	444.70
644.07	369.80
644.22	379.17
644.37	404.91
644.51	430.66
644.66	400.23
644.81	397.89
644.95	411.93
645.10	400.23
645.25	418.96
645.39	407.25
645.54	383.85
645.69	430.66
645.83	407.25
645.98	451.72
646.13	458.74
646.27	444.70
646.42	393.21
646.57	461.09
646.71	397.89
646.86	383.85
647.00	433.00
647.15	407.25
647.30	402.57
647.44	435.34
647.59	416.62
647.74	421.30
647.88	367.46
648.03	372.15
648.17	500.87
648.32	461.09
648.47	425.98
648.61	397.89
648.76	416.62
648.90	407.25
649.05	372.15
649.20	379.17
649.34	454.06
649.49	435.34
649.63	381.51
649.78	430.66
649.92	411.93
650.07	351.08
650.21	479.81
650.36	409.59
650.51	418.96
650.65	430.66
650.80	404.91
650.94	407.25
651.09	411.93
651.23	400.23
651.38	444.70
651.52	407.25
651.67	376.83
651.81	486.83
651.96	468.11
652.10	409.59
652.25	388.53
652.39	395.55
652.54	444.70
652.68	379.17
652.83	414.27
652.97	386.19
653.12	435.34
653.26	472.79
653.41	416.62
653.55	428.32
653.70	395.55
653.84	355.76
653.99	395.55
654.13	325.33
654.27	414.27
654.42	402.57
654.56	374.49
654.71	442.36
654.85	421.30
655.00	402.57
655.14	425.98
655.29	449.38
655.43	437.68
655.57	416.62
655.72	430.66
655.86	449.38
656.01	444.70
656.15	425.98
656.30	435.34
656.44	353.42
656.58	376.83
656.73	421.30
656.87	397.89
657.01	498.53
657.16	447.04
657.30	416.62
657.45	418.96
657.59	393.21
657.73	404.91
657.88	433.00
658.02	498.53
658.16	414.27
658.31	404.91
658.45	425.98
658.60	400.23
658.74	379.17
658.88	444.70
659.03	390.87
659.17	351.08
659.31	404.91
659.46	484.49
659.60	390.87
659.74	351.08
659.89	425.98
660.03	365.12
660.17	407.25
660.32	425.98
660.46	454.06
660.60	390.87
660.74	411.93
660.89	433.00
661.03	400.23
661.17	421.30
661.32	440.02
661.46	465.77
661.60	444.70
661.74	400.23
661.89	355.76
662.03	470.45
662.17	397.89
662.31	451.72
662.46	425.98
662.60	372.15
662.74	355.76
662.88	414.27
663.03	393.21
663.17	346.40
663.31	376.83
663.45	461.09
663.60	428.32
663.74	386.19
663.88	374.49
664.02	407.25
664.17	411.93
664.31	465.77
664.45	449.38
664.59	367.46
664.73	404.91
664.88	369.80
665.02	421.30
665.16	395.55
665.30	447.04
665.44	449.38
665.59	435.34
665.73	390.87
665.87	353.42
666.01	414.27
666.15	418.96
666.29	428.32
666.44	472.79
666.58	514.92
666.72	381.51
666.86	418.96
667.00	397.89
667.14	407.25
667.28	470.45
667.43	519.60
667.57	528.96
667.71	458.74
667.85	404.91
667.99	444.70
668.13	409.59
668.27	447.04
668.41	440.02
668.56	355.76
668.70	428.32
668.84	442.36
668.98	468.11
669.12	416.62
669.26	451.72
669.40	447.04
669.54	404.91
669.68	442.36
669.82	374.49
669.96	437.68
670.10	491.51
670.25	423.64
670.39	418.96
670.53	414.27
670.67	411.93
670.81	425.98
670.95	411.93
671.09	442.36
671.23	454.06
671.37	461.09
671.51	407.25
671.65	437.68
671.79	367.46
671.93	463.43
672.07	430.66
672.21	327.68
672.35	379.17
672.49	428.32
672.63	362.78
672.77	376.83
672.91	475.13
673.05	388.53
673.19	383.85
673.33	414.27
673.47	451.72
673.61	421.30
673.75	362.78
673.89	386.19
674.03	482.15
674.17	325.33
674.31	409.59
674.45	351.08
674.59	351.08
674.73	430.66
674.87	442.36
675.01	423.64
675.15	416.62
675.29	402.57
675.43	379.17
675.56	360.44
675.70	454.06
675.84	411.93
675.98	409.59
676.12	325.33
676.26	435.34
676.40	418.96
676.54	418.96
676.68	278.52
676.82	433.00
676.96	404.91
677.10	383.85
677.23	409.59
677.37	444.70
677.51	486.83
677.65	461.09
677.79	369.80
677.93	386.19
678.07	397.89
678.21	332.36
678.34	337.04
678.48	337.04
678.62	379.17
678.76	358.10
678.90	433.00
679.04	297.25
679.18	362.78
679.31	386.19
679.45	433.00
679.59	428.32
679.73	411.93
679.87	447.04
680.00	484.49
680.14	397.89
680.28	465.77
680.42	435.34
680.56	472.79
680.70	409.59
680.83	472.79
680.97	407.25
681.11	454.06
681.25	425.98
681.39	388.53
681.52	435.34
681.66	477.47
681.80	416.62
681.94	388.53
682.07	383.85
682.21	400.23
682.35	423.64
682.49	393.21
682.62	430.66
682.76	341.72
682.90	330.02
683.04	386.19
683.17	437.68
683.31	416.62
683.45	402.57
683.59	433.00
683.72	374.49
683.86	411.93
684.00	414.27
684.13	397.89
684.27	411.93
684.41	386.19
684.55	456.40
684.68	425.98
684.82	414.27
684.96	437.68
685.09	404.91
685.23	451.72
685.37	440.02
685.50	421.30
685.64	440.02
685.78	458.74
685.91	454.06
686.05	482.15
686.19	348.74
686.32	451.72
686.46	407.25
686.60	381.51
686.73	402.57
686.87	496.19
687.01	458.74
687.14	355.76
687.28	442.36
687.42	416.62
687.55	339.38
687.69	428.32
687.82	362.78
687.96	395.55
688.10	435.34
688.23	390.87
688.37	404.91
688.50	468.11
688.64	388.53
688.78	407.25
688.91	400.23
689.05	449.38
689.18	402.57
689.32	386.19
689.46	458.74
689.59	428.32
689.73	390.87
689.86	409.59
690.00	374.49
690.13	360.44
690.27	381.51
690.41	379.17
690.54	510.24
690.68	409.59
690.81	437.68
690.95	416.62
691.08	482.15
691.22	369.80
691.35	425.98
691.49	404.91
691.62	390.87
691.76	397.89
691.89	430.66
692.03	418.96
692.16	440.02
692.30	451.72
692.43	430.66
692.57	451.72
692.70	346.40
692.84	404.91
692.97	407.25
693.11	402.57
693.24	437.68
693.38	395.55
693.51	402.57
693.65	458.74
693.78	390.87
693.92	465.77
694.05	383.85
694.19	444.70
694.32	428.32
694.45	433.00
694.59	411.93
694.72	500.87
694.86	472.79
694.99	451.72
695.13	449.38
695.26	444.70
695.39	358.10
695.53	484.49
695.66	358.10
695.80	425.98
695.93	449.38
696.07	433.00
696.20	390.87
696.33	430.66
696.47	423.64
696.60	437.68
696.73	383.85
696.87	437.68
697.00	397.89
697.14	351.08
697.27	395.55
697.40	512.58
697.54	390.87
697.67	374.49
697.80	409.59
697.94	425.98
698.07	395.55
698.21	381.51
698.34	411.93
698.47	393.21
698.61	388.53
698.74	393.21
698.87	346.40
699.01	421.30
699.14	444.70
699.27	447.04
699.40	454.06
699.54	379.17
699.67	348.74
699.80	416.62
699.94	383.85
700.07	400.23
700.20	360.44
700.34	428.32
700.47	379.17
700.60	395.55
700.73	418.96
700.87	433.00
701.00	362.78
701.13	344.06
701.26	390.87
701.40	428.32
701.53	397.89
701.66	341.72
701.79	456.40
701.93	437.68
702.06	517.26
702.19	367.46
702.32	454.06
702.46	437.68
702.59	404.91
702.72	379.17
702.85	428.32
702.99	440.02
703.12	519.60
703.25	421.30
703.38	440.02
703.51	358.10
703.65	463.43
703.78	390.87
703.91	351.08
704.04	470.45
704.17	376.83
704.31	376.83
704.44	428.32
704.57	332.36
704.70	327.68
704.83	414.27
704.96	444.70
705.10	449.38
705.23	360.44
>>>>>End Processed Spectral Data<<<<<
