SpectraSuite Data File
++++++++++++++++++++++++++++++++++++
Date: Fri Oct 25 12:11:10 EDT 2013
User: price-jones
Dark Spectrum Present: No
Reference Spectrum Present: No
Number of Sampled Component Spectra: 1
Spectrometers: USB2+H05261
Integration Time (usec): 100000 (USB2+H05261)
Spectra Averaged: 1 (USB2+H05261)
Boxcar Smoothing: 0 (USB2+H05261)
Correct for Electrical Dark: No (USB2+H05261)
Strobe/Lamp Enabled: No (USB2+H05261)
Correct for Detector Non-linearity: No (USB2+H05261)
Correct for Stray Light: No (USB2+H05261)
Number of Pixels in Processed Spectrum: 2048
>>>>>Begin Processed Spectral Data<<<<<
365.73	353.42
365.92	353.42
366.12	353.42
366.32	334.70
366.52	198.95
366.72	290.23
366.91	234.05
367.11	215.33
367.31	227.03
367.51	236.39
367.70	297.25
367.90	259.80
368.10	252.78
368.30	273.84
368.49	220.01
368.69	231.71
368.89	262.14
369.09	332.36
369.28	222.35
369.48	273.84
369.68	344.06
369.87	285.55
370.07	283.20
370.27	330.02
370.47	337.04
370.66	308.95
370.86	367.46
371.06	374.49
371.25	418.96
371.45	308.95
371.65	372.15
371.84	348.74
372.04	383.85
372.24	369.80
372.44	351.08
372.63	395.55
372.83	386.19
373.03	418.96
373.22	456.40
373.42	388.53
373.62	430.66
373.81	465.77
374.01	362.78
374.21	440.02
374.40	393.21
374.60	468.11
374.79	395.55
374.99	337.04
375.19	433.00
375.38	362.78
375.58	425.98
375.78	430.66
375.97	461.09
376.17	444.70
376.37	383.85
376.56	458.74
376.76	374.49
376.95	433.00
377.15	444.70
377.35	440.02
377.54	381.51
377.74	425.98
377.93	346.40
378.13	346.40
378.33	402.57
378.52	461.09
378.72	421.30
378.91	383.85
379.11	376.83
379.31	430.66
379.50	458.74
379.70	397.89
379.89	433.00
380.09	397.89
380.28	402.57
380.48	411.93
380.68	365.12
380.87	416.62
381.07	416.62
381.26	451.72
381.46	365.12
381.65	433.00
381.85	400.23
382.04	388.53
382.24	346.40
382.43	372.15
382.63	414.27
382.83	440.02
383.02	428.32
383.22	437.68
383.41	423.64
383.61	404.91
383.80	418.96
384.00	435.34
384.19	365.12
384.39	404.91
384.58	437.68
384.78	365.12
384.97	395.55
385.17	383.85
385.36	348.74
385.56	339.38
385.75	404.91
385.95	400.23
386.14	379.17
386.34	374.49
386.53	330.02
386.72	416.62
386.92	421.30
387.11	376.83
387.31	449.38
387.50	318.31
387.70	374.49
387.89	463.43
388.09	496.19
388.28	299.59
388.48	395.55
388.67	435.34
388.86	374.49
389.06	425.98
389.25	388.53
389.45	409.59
389.64	440.02
389.84	447.04
390.03	482.15
390.22	409.59
390.42	414.27
390.61	393.21
390.81	414.27
391.00	407.25
391.19	463.43
391.39	433.00
391.58	444.70
391.78	369.80
391.97	458.74
392.16	421.30
392.36	315.97
392.55	414.27
392.75	444.70
392.94	381.51
393.13	402.57
393.33	440.02
393.52	374.49
393.71	435.34
393.91	337.04
394.10	376.83
394.29	451.72
394.49	365.12
394.68	376.83
394.88	454.06
395.07	430.66
395.26	355.76
395.46	430.66
395.65	447.04
395.84	400.23
396.04	477.47
396.23	397.89
396.42	433.00
396.62	400.23
396.81	388.53
397.00	451.72
397.19	381.51
397.39	388.53
397.58	409.59
397.77	411.93
397.97	376.83
398.16	400.23
398.35	358.10
398.55	374.49
398.74	435.34
398.93	369.80
399.12	383.85
399.32	461.09
399.51	386.19
399.70	454.06
399.90	437.68
400.09	430.66
400.28	397.89
400.47	421.30
400.67	451.72
400.86	400.23
401.05	393.21
401.24	369.80
401.44	423.64
401.63	388.53
401.82	416.62
402.01	400.23
402.21	374.49
402.40	411.93
402.59	423.64
402.78	416.62
402.97	355.76
403.17	374.49
403.36	465.77
403.55	418.96
403.74	421.30
403.93	325.33
404.13	404.91
404.32	386.19
404.51	425.98
404.70	411.93
404.89	409.59
405.09	414.27
405.28	369.80
405.47	360.44
405.66	505.56
405.85	425.98
406.05	444.70
406.24	435.34
406.43	404.91
406.62	414.27
406.81	341.72
407.00	334.70
407.20	409.59
407.39	409.59
407.58	341.72
407.77	353.42
407.96	442.36
408.15	409.59
408.34	430.66
408.54	456.40
408.73	381.51
408.92	402.57
409.11	386.19
409.30	463.43
409.49	416.62
409.68	390.87
409.87	388.53
410.07	367.46
410.26	372.15
410.45	376.83
410.64	346.40
410.83	402.57
411.02	383.85
411.21	423.64
411.40	416.62
411.59	461.09
411.78	393.21
411.98	402.57
412.17	332.36
412.36	425.98
412.55	461.09
412.74	454.06
412.93	437.68
413.12	449.38
413.31	397.89
413.50	475.13
413.69	423.64
413.88	348.74
414.07	365.12
414.26	433.00
414.45	386.19
414.64	393.21
414.83	428.32
415.02	395.55
415.22	442.36
415.41	472.79
415.60	402.57
415.79	472.79
415.98	414.27
416.17	451.72
416.36	449.38
416.55	360.44
416.74	351.08
416.93	418.96
417.12	428.32
417.31	355.76
417.50	407.25
417.69	440.02
417.88	416.62
418.07	458.74
418.26	395.55
418.45	421.30
418.64	465.77
418.83	447.04
419.02	402.57
419.21	428.32
419.39	416.62
419.58	404.91
419.77	414.27
419.96	414.27
420.15	484.49
420.34	454.06
420.53	400.23
420.72	428.32
420.91	407.25
421.10	421.30
421.29	381.51
421.48	425.98
421.67	461.09
421.86	353.42
422.05	451.72
422.24	428.32
422.43	369.80
422.61	400.23
422.80	423.64
422.99	386.19
423.18	437.68
423.37	454.06
423.56	433.00
423.75	463.43
423.94	402.57
424.13	449.38
424.32	402.57
424.50	344.06
424.69	393.21
424.88	414.27
425.07	423.64
425.26	454.06
425.45	374.49
425.64	449.38
425.83	395.55
426.01	372.15
426.20	311.29
426.39	388.53
426.58	400.23
426.77	390.87
426.96	372.15
427.15	388.53
427.33	355.76
427.52	365.12
427.71	402.57
427.90	421.30
428.09	433.00
428.28	411.93
428.46	461.09
428.65	449.38
428.84	425.98
429.03	458.74
429.22	482.15
429.40	376.83
429.59	374.49
429.78	461.09
429.97	414.27
430.16	440.02
430.34	369.80
430.53	365.12
430.72	397.89
430.91	533.64
431.10	402.57
431.28	421.30
431.47	447.04
431.66	393.21
431.85	351.08
432.03	395.55
432.22	458.74
432.41	437.68
432.60	383.85
432.79	414.27
432.97	421.30
433.16	400.23
433.35	458.74
433.54	425.98
433.72	365.12
433.91	442.36
434.10	358.10
434.28	440.02
434.47	388.53
434.66	379.17
434.85	388.53
435.03	360.44
435.22	472.79
435.41	372.15
435.59	423.64
435.78	362.78
435.97	362.78
436.16	386.19
436.34	435.34
436.53	411.93
436.72	454.06
436.90	393.21
437.09	414.27
437.28	437.68
437.46	348.74
437.65	388.53
437.84	421.30
438.02	393.21
438.21	383.85
438.40	409.59
438.58	362.78
438.77	479.81
438.96	437.68
439.14	407.25
439.33	400.23
439.52	386.19
439.70	390.87
439.89	372.15
440.08	404.91
440.26	400.23
440.45	479.81
440.63	407.25
440.82	369.80
441.01	379.17
441.19	409.59
441.38	444.70
441.57	418.96
441.75	451.72
441.94	461.09
442.12	418.96
442.31	404.91
442.50	414.27
442.68	437.68
442.87	393.21
443.05	388.53
443.24	500.87
443.43	440.02
443.61	395.55
443.80	433.00
443.98	418.96
444.17	437.68
444.35	461.09
444.54	318.31
444.73	421.30
444.91	414.27
445.10	402.57
445.28	351.08
445.47	397.89
445.65	400.23
445.84	458.74
446.02	411.93
446.21	461.09
446.39	402.57
446.58	430.66
446.77	407.25
446.95	454.06
447.14	402.57
447.32	353.42
447.51	538.32
447.69	397.89
447.88	451.72
448.06	454.06
448.25	423.64
448.43	365.12
448.62	374.49
448.80	362.78
448.99	435.34
449.17	397.89
449.36	458.74
449.54	444.70
449.73	400.23
449.91	465.77
450.10	437.68
450.28	503.22
450.46	437.68
450.65	451.72
450.83	461.09
451.02	355.76
451.20	393.21
451.39	407.25
451.57	376.83
451.76	381.51
451.94	411.93
452.13	440.02
452.31	435.34
452.49	400.23
452.68	461.09
452.86	472.79
453.05	433.00
453.23	454.06
453.42	299.59
453.60	468.11
453.78	440.02
453.97	425.98
454.15	379.17
454.34	337.04
454.52	330.02
454.70	409.59
454.89	484.49
455.07	414.27
455.26	451.72
455.44	454.06
455.62	374.49
455.81	409.59
455.99	418.96
456.17	482.15
456.36	416.62
456.54	337.04
456.73	437.68
456.91	423.64
457.09	372.15
457.28	411.93
457.46	409.59
457.64	430.66
457.83	404.91
458.01	435.34
458.19	402.57
458.38	379.17
458.56	362.78
458.74	411.93
458.93	376.83
459.11	395.55
459.29	355.76
459.48	440.02
459.66	458.74
459.84	435.34
460.03	407.25
460.21	376.83
460.39	472.79
460.57	409.59
460.76	414.27
460.94	372.15
461.12	423.64
461.31	411.93
461.49	472.79
461.67	369.80
461.85	332.36
462.04	418.96
462.22	748.97
462.40	435.34
462.59	458.74
462.77	400.23
462.95	454.06
463.13	414.27
463.32	440.02
463.50	463.43
463.68	358.10
463.86	454.06
464.05	421.30
464.23	475.13
464.41	400.23
464.59	358.10
464.78	381.51
464.96	390.87
465.14	390.87
465.32	393.21
465.50	360.44
465.69	437.68
465.87	369.80
466.05	465.77
466.23	425.98
466.41	400.23
466.60	461.09
466.78	428.32
466.96	416.62
467.14	433.00
467.32	435.34
467.51	386.19
467.69	416.62
467.87	524.28
468.05	423.64
468.23	440.02
468.41	479.81
468.60	404.91
468.78	374.49
468.96	388.53
469.14	409.59
469.32	386.19
469.50	402.57
469.69	395.55
469.87	397.89
470.05	486.83
470.23	458.74
470.41	463.43
470.59	383.85
470.77	393.21
470.95	423.64
471.14	404.91
471.32	423.64
471.50	461.09
471.68	367.46
471.86	400.23
472.04	386.19
472.22	411.93
472.40	348.74
472.58	400.23
472.77	358.10
472.95	440.02
473.13	416.62
473.31	402.57
473.49	386.19
473.67	400.23
473.85	423.64
474.03	390.87
474.21	437.68
474.39	418.96
474.57	512.58
474.75	390.87
474.93	369.80
475.12	376.83
475.30	393.21
475.48	367.46
475.66	407.25
475.84	421.30
476.02	444.70
476.20	388.53
476.38	451.72
476.56	435.34
476.74	449.38
476.92	472.79
477.10	437.68
477.28	430.66
477.46	543.00
477.64	465.77
477.82	435.34
478.00	386.19
478.18	456.40
478.36	451.72
478.54	416.62
478.72	428.32
478.90	428.32
479.08	409.59
479.26	423.64
479.44	449.38
479.62	337.04
479.80	407.25
479.98	465.77
480.16	430.66
480.34	353.42
480.52	468.11
480.70	369.80
480.88	430.66
481.06	444.70
481.24	435.34
481.41	332.36
481.59	423.64
481.77	500.87
481.95	395.55
482.13	365.12
482.31	458.74
482.49	400.23
482.67	386.19
482.85	397.89
483.03	395.55
483.21	409.59
483.39	461.09
483.57	444.70
483.74	351.08
483.92	456.40
484.10	421.30
484.28	407.25
484.46	456.40
484.64	388.53
484.82	447.04
485.00	395.55
485.18	418.96
485.35	411.93
485.53	458.74
485.71	510.24
485.89	437.68
486.07	374.49
486.25	425.98
486.43	411.93
486.61	360.44
486.78	355.76
486.96	447.04
487.14	334.70
487.32	416.62
487.50	433.00
487.68	381.51
487.85	404.91
488.03	430.66
488.21	442.36
488.39	440.02
488.57	449.38
488.75	395.55
488.92	444.70
489.10	493.85
489.28	416.62
489.46	482.15
489.64	454.06
489.81	346.40
489.99	477.47
490.17	383.85
490.35	437.68
490.53	435.34
490.70	491.51
490.88	477.47
491.06	383.85
491.24	418.96
491.41	456.40
491.59	449.38
491.77	386.19
491.95	388.53
492.13	395.55
492.30	409.59
492.48	421.30
492.66	437.68
492.84	344.06
493.01	423.64
493.19	372.15
493.37	442.36
493.54	418.96
493.72	437.68
493.90	386.19
494.08	404.91
494.25	454.06
494.43	442.36
494.61	388.53
494.79	442.36
494.96	407.25
495.14	470.45
495.32	430.66
495.49	430.66
495.67	447.04
495.85	414.27
496.02	425.98
496.20	435.34
496.38	409.59
496.55	468.11
496.73	355.76
496.91	470.45
497.09	484.49
497.26	402.57
497.44	402.57
497.62	442.36
497.79	449.38
497.97	468.11
498.14	463.43
498.32	442.36
498.50	451.72
498.67	374.49
498.85	440.02
499.03	374.49
499.20	367.46
499.38	348.74
499.56	344.06
499.73	423.64
499.91	395.55
500.08	425.98
500.26	386.19
500.44	404.91
500.61	388.53
500.79	341.72
500.97	395.55
501.14	416.62
501.32	423.64
501.49	383.85
501.67	407.25
501.84	407.25
502.02	386.19
502.20	425.98
502.37	386.19
502.55	390.87
502.72	353.42
502.90	400.23
503.07	388.53
503.25	472.79
503.43	425.98
503.60	360.44
503.78	440.02
503.95	393.21
504.13	379.17
504.30	414.27
504.48	421.30
504.65	458.74
504.83	461.09
505.01	461.09
505.18	395.55
505.36	367.46
505.53	386.19
505.71	496.19
505.88	482.15
506.06	388.53
506.23	393.21
506.41	376.83
506.58	465.77
506.76	440.02
506.93	510.24
507.11	411.93
507.28	421.30
507.46	404.91
507.63	407.25
507.81	407.25
507.98	395.55
508.16	437.68
508.33	442.36
508.50	411.93
508.68	418.96
508.85	451.72
509.03	416.62
509.20	395.55
509.38	475.13
509.55	435.34
509.73	376.83
509.90	428.32
510.08	390.87
510.25	407.25
510.42	386.19
510.60	397.89
510.77	444.70
510.95	416.62
511.12	381.51
511.30	484.49
511.47	393.21
511.64	500.87
511.82	388.53
511.99	423.64
512.17	409.59
512.34	400.23
512.51	423.64
512.69	379.17
512.86	449.38
513.04	418.96
513.21	353.42
513.38	360.44
513.56	465.77
513.73	463.43
513.90	463.43
514.08	372.15
514.25	425.98
514.43	365.12
514.60	468.11
514.77	463.43
514.95	416.62
515.12	388.53
515.29	393.21
515.47	411.93
515.64	395.55
515.81	447.04
515.99	428.32
516.16	404.91
516.33	496.19
516.51	400.23
516.68	433.00
516.85	400.23
517.03	425.98
517.20	465.77
517.37	444.70
517.54	421.30
517.72	355.76
517.89	421.30
518.06	365.12
518.24	381.51
518.41	498.53
518.58	416.62
518.75	402.57
518.93	411.93
519.10	414.27
519.27	404.91
519.45	374.49
519.62	379.17
519.79	430.66
519.96	388.53
520.14	435.34
520.31	479.81
520.48	397.89
520.65	423.64
520.83	418.96
521.00	425.98
521.17	393.21
521.34	421.30
521.52	339.38
521.69	468.11
521.86	414.27
522.03	472.79
522.20	437.68
522.38	435.34
522.55	322.99
522.72	369.80
522.89	353.42
523.07	475.13
523.24	442.36
523.41	381.51
523.58	400.23
523.75	416.62
523.92	362.78
524.10	472.79
524.27	381.51
524.44	395.55
524.61	465.77
524.78	418.96
524.96	458.74
525.13	451.72
525.30	425.98
525.47	414.27
525.64	440.02
525.81	425.98
525.98	440.02
526.16	372.15
526.33	341.72
526.50	411.93
526.67	376.83
526.84	404.91
527.01	386.19
527.18	425.98
527.36	430.66
527.53	486.83
527.70	428.32
527.87	346.40
528.04	465.77
528.21	479.81
528.38	500.87
528.55	456.40
528.72	454.06
528.89	435.34
529.07	388.53
529.24	458.74
529.41	458.74
529.58	407.25
529.75	440.02
529.92	393.21
530.09	353.42
530.26	397.89
530.43	461.09
530.60	491.51
530.77	454.06
530.94	397.89
531.11	475.13
531.28	379.17
531.46	428.32
531.63	425.98
531.80	411.93
531.97	395.55
532.14	437.68
532.31	402.57
532.48	421.30
532.65	433.00
532.82	411.93
532.99	440.02
533.16	475.13
533.33	418.96
533.50	367.46
533.67	416.62
533.84	447.04
534.01	458.74
534.18	397.89
534.35	444.70
534.52	428.32
534.69	430.66
534.86	372.15
535.03	367.46
535.20	451.72
535.37	489.17
535.54	482.15
535.71	416.62
535.88	362.78
536.05	404.91
536.22	454.06
536.38	407.25
536.55	500.87
536.72	425.98
536.89	433.00
537.06	400.23
537.23	435.34
537.40	383.85
537.57	402.57
537.74	440.02
537.91	423.64
538.08	423.64
538.25	411.93
538.42	475.13
538.59	444.70
538.75	388.53
538.92	447.04
539.09	479.81
539.26	369.80
539.43	411.93
539.60	369.80
539.77	390.87
539.94	381.51
540.11	353.42
540.28	400.23
540.44	369.80
540.61	442.36
540.78	418.96
540.95	414.27
541.12	423.64
541.29	395.55
541.46	482.15
541.62	449.38
541.79	414.27
541.96	367.46
542.13	365.12
542.30	444.70
542.47	470.45
542.63	477.47
542.80	435.34
542.97	397.89
543.14	404.91
543.31	423.64
543.48	433.00
543.64	421.30
543.81	353.42
543.98	451.72
544.15	447.04
544.32	447.04
544.48	409.59
544.65	425.98
544.82	395.55
544.99	425.98
545.16	402.57
545.32	407.25
545.49	418.96
545.66	407.25
545.83	358.10
546.00	435.34
546.16	451.72
546.33	418.96
546.50	449.38
546.67	400.23
546.83	472.79
547.00	407.25
547.17	423.64
547.34	468.11
547.50	425.98
547.67	440.02
547.84	379.17
548.00	463.43
548.17	404.91
548.34	456.40
548.51	521.94
548.67	475.13
548.84	404.91
549.01	461.09
549.18	496.19
549.34	447.04
549.51	435.34
549.68	484.49
549.84	376.83
550.01	418.96
550.18	510.24
550.34	559.39
550.51	435.34
550.68	461.09
550.84	386.19
551.01	360.44
551.18	430.66
551.34	425.98
551.51	451.72
551.68	496.19
551.84	418.96
552.01	414.27
552.18	423.64
552.34	411.93
552.51	402.57
552.68	433.00
552.84	458.74
553.01	454.06
553.18	486.83
553.34	388.53
553.51	468.11
553.67	400.23
553.84	435.34
554.01	456.40
554.17	425.98
554.34	489.17
554.51	409.59
554.67	379.17
554.84	414.27
555.00	395.55
555.17	479.81
555.33	388.53
555.50	409.59
555.67	418.96
555.83	395.55
556.00	409.59
556.16	535.98
556.33	430.66
556.50	402.57
556.66	423.64
556.83	393.21
556.99	505.56
557.16	442.36
557.32	423.64
557.49	414.27
557.65	447.04
557.82	397.89
557.98	433.00
558.15	369.80
558.32	381.51
558.48	365.12
558.65	433.00
558.81	402.57
558.98	430.66
559.14	411.93
559.31	390.87
559.47	435.34
559.64	351.08
559.80	465.77
559.97	395.55
560.13	416.62
560.30	493.85
560.46	360.44
560.63	402.57
560.79	416.62
560.96	369.80
561.12	442.36
561.29	425.98
561.45	428.32
561.61	390.87
561.78	468.11
561.94	456.40
562.11	423.64
562.27	372.15
562.44	362.78
562.60	409.59
562.77	423.64
562.93	484.49
563.10	395.55
563.26	383.85
563.42	383.85
563.59	447.04
563.75	400.23
563.92	456.40
564.08	456.40
564.24	355.76
564.41	425.98
564.57	372.15
564.74	449.38
564.90	482.15
565.07	320.65
565.23	409.59
565.39	367.46
565.56	475.13
565.72	395.55
565.88	414.27
566.05	489.17
566.21	376.83
566.38	421.30
566.54	447.04
566.70	416.62
566.87	379.17
567.03	332.36
567.19	400.23
567.36	409.59
567.52	414.27
567.68	470.45
567.85	461.09
568.01	397.89
568.17	367.46
568.34	369.80
568.50	435.34
568.66	369.80
568.83	456.40
568.99	383.85
569.15	442.36
569.32	411.93
569.48	430.66
569.64	374.49
569.81	454.06
569.97	425.98
570.13	409.59
570.30	444.70
570.46	397.89
570.62	407.25
570.78	418.96
570.95	400.23
571.11	360.44
571.27	430.66
571.43	348.74
571.60	421.30
571.76	404.91
571.92	400.23
572.09	411.93
572.25	458.74
572.41	383.85
572.57	402.57
572.74	430.66
572.90	465.77
573.06	461.09
573.22	374.49
573.38	447.04
573.55	409.59
573.71	428.32
573.87	362.78
574.03	533.64
574.20	468.11
574.36	444.70
574.52	437.68
574.68	414.27
574.84	369.80
575.01	351.08
575.17	449.38
575.33	376.83
575.49	322.99
575.65	451.72
575.82	437.68
575.98	414.27
576.14	433.00
576.30	416.62
576.46	461.09
576.62	440.02
576.79	376.83
576.95	458.74
577.11	346.40
577.27	358.10
577.43	442.36
577.59	421.30
577.75	479.81
577.92	376.83
578.08	447.04
578.24	402.57
578.40	421.30
578.56	425.98
578.72	365.12
578.88	395.55
579.04	456.40
579.21	442.36
579.37	437.68
579.53	411.93
579.69	369.80
579.85	437.68
580.01	402.57
580.17	367.46
580.33	465.77
580.49	435.34
580.65	416.62
580.82	451.72
580.98	400.23
581.14	390.87
581.30	411.93
581.46	437.68
581.62	390.87
581.78	421.30
581.94	397.89
582.10	346.40
582.26	374.49
582.42	409.59
582.58	409.59
582.74	449.38
582.90	489.17
583.06	498.53
583.22	428.32
583.38	435.34
583.54	442.36
583.70	421.30
583.86	402.57
584.02	425.98
584.18	409.59
584.34	409.59
584.50	454.06
584.66	388.53
584.82	407.25
584.98	421.30
585.14	397.89
585.30	409.59
585.46	430.66
585.62	393.21
585.78	454.06
585.94	442.36
586.10	409.59
586.26	388.53
586.42	456.40
586.58	416.62
586.74	440.02
586.90	465.77
587.06	421.30
587.22	447.04
587.38	440.02
587.54	395.55
587.70	423.64
587.86	416.62
588.02	404.91
588.18	388.53
588.34	376.83
588.49	330.02
588.65	454.06
588.81	444.70
588.97	374.49
589.13	341.72
589.29	353.42
589.45	416.62
589.61	383.85
589.77	383.85
589.93	367.46
590.08	407.25
590.24	442.36
590.40	479.81
590.56	423.64
590.72	418.96
590.88	447.04
591.04	425.98
591.20	397.89
591.35	416.62
591.51	379.17
591.67	411.93
591.83	475.13
591.99	393.21
592.15	376.83
592.31	421.30
592.46	390.87
592.62	447.04
592.78	414.27
592.94	425.98
593.10	416.62
593.26	423.64
593.41	418.96
593.57	430.66
593.73	332.36
593.89	447.04
594.05	423.64
594.20	463.43
594.36	449.38
594.52	425.98
594.68	444.70
594.84	404.91
594.99	440.02
595.15	435.34
595.31	470.45
595.47	402.57
595.62	512.58
595.78	470.45
595.94	395.55
596.10	451.72
596.25	404.91
596.41	472.79
596.57	372.15
596.73	369.80
596.88	486.83
597.04	425.98
597.20	418.96
597.36	362.78
597.51	425.98
597.67	475.13
597.83	395.55
597.99	416.62
598.14	465.77
598.30	414.27
598.46	360.44
598.61	475.13
598.77	409.59
598.93	416.62
599.09	423.64
599.24	470.45
599.40	503.22
599.56	393.21
599.71	430.66
599.87	400.23
600.03	449.38
600.18	404.91
600.34	451.72
600.50	428.32
600.65	442.36
600.81	451.72
600.97	411.93
601.12	400.23
601.28	458.74
601.44	402.57
601.59	463.43
601.75	386.19
601.91	433.00
602.06	437.68
602.22	442.36
602.37	423.64
602.53	400.23
602.69	451.72
602.84	414.27
603.00	386.19
603.16	451.72
603.31	379.17
603.47	440.02
603.62	344.06
603.78	430.66
603.94	395.55
604.09	383.85
604.25	386.19
604.40	451.72
604.56	416.62
604.71	433.00
604.87	332.36
605.03	397.89
605.18	411.93
605.34	397.89
605.49	379.17
605.65	454.06
605.80	351.08
605.96	428.32
606.12	381.51
606.27	381.51
606.43	386.19
606.58	510.24
606.74	475.13
606.89	400.23
607.05	416.62
607.20	449.38
607.36	390.87
607.51	454.06
607.67	351.08
607.82	440.02
607.98	449.38
608.13	397.89
608.29	383.85
608.44	381.51
608.60	374.49
608.75	472.79
608.91	458.74
609.06	433.00
609.22	367.46
609.37	383.85
609.53	404.91
609.68	388.53
609.84	411.93
609.99	332.36
610.15	369.80
610.30	421.30
610.46	477.47
610.61	444.70
610.76	388.53
610.92	500.87
611.07	458.74
611.23	496.19
611.38	449.38
611.54	433.00
611.69	360.44
611.84	433.00
612.00	397.89
612.15	454.06
612.31	393.21
612.46	404.91
612.62	369.80
612.77	418.96
612.92	484.49
613.08	454.06
613.23	360.44
613.39	353.42
613.54	397.89
613.69	393.21
613.85	409.59
614.00	437.68
614.15	416.62
614.31	400.23
614.46	425.98
614.62	451.72
614.77	379.17
614.92	411.93
615.08	442.36
615.23	428.32
615.38	477.47
615.54	374.49
615.69	425.98
615.84	418.96
616.00	409.59
616.15	397.89
616.30	437.68
616.46	360.44
616.61	421.30
616.76	433.00
616.92	414.27
617.07	386.19
617.22	444.70
617.37	388.53
617.53	411.93
617.68	433.00
617.83	404.91
617.99	430.66
618.14	524.28
618.29	372.15
618.45	416.62
618.60	383.85
618.75	442.36
618.90	393.21
619.06	414.27
619.21	414.27
619.36	472.79
619.51	397.89
619.67	475.13
619.82	390.87
619.97	383.85
620.12	435.34
620.28	435.34
620.43	468.11
620.58	486.83
620.73	463.43
620.89	362.78
621.04	470.45
621.19	428.32
621.34	404.91
621.49	421.30
621.65	383.85
621.80	404.91
621.95	397.89
622.10	423.64
622.25	414.27
622.41	444.70
622.56	369.80
622.71	390.87
622.86	411.93
623.01	376.83
623.16	395.55
623.32	470.45
623.47	418.96
623.62	414.27
623.77	409.59
623.92	414.27
624.07	454.06
624.23	433.00
624.38	383.85
624.53	421.30
624.68	390.87
624.83	521.94
624.98	423.64
625.13	390.87
625.29	449.38
625.44	411.93
625.59	442.36
625.74	374.49
625.89	423.64
626.04	402.57
626.19	393.21
626.34	435.34
626.49	449.38
626.65	402.57
626.80	437.68
626.95	482.15
627.10	407.25
627.25	372.15
627.40	430.66
627.55	416.62
627.70	365.12
627.85	421.30
628.00	395.55
628.15	388.53
628.30	395.55
628.45	390.87
628.60	440.02
628.76	447.04
628.91	440.02
629.06	447.04
629.21	545.34
629.36	538.32
629.51	381.51
629.66	454.06
629.81	402.57
629.96	451.72
630.11	416.62
630.26	395.55
630.41	390.87
630.56	400.23
630.71	416.62
630.86	414.27
631.01	400.23
631.16	442.36
631.31	425.98
631.46	498.53
631.61	461.09
631.76	430.66
631.91	393.21
632.06	409.59
632.21	346.40
632.36	425.98
632.51	470.45
632.66	318.31
632.81	451.72
632.96	465.77
633.10	435.34
633.25	418.96
633.40	421.30
633.55	411.93
633.70	416.62
633.85	430.66
634.00	337.04
634.15	440.02
634.30	454.06
634.45	381.51
634.60	397.89
634.75	376.83
634.90	390.87
635.05	407.25
635.19	393.21
635.34	339.38
635.49	400.23
635.64	409.59
635.79	348.74
635.94	458.74
636.09	444.70
636.24	411.93
636.39	386.19
636.53	390.87
636.68	369.80
636.83	440.02
636.98	430.66
637.13	395.55
637.28	461.09
637.43	498.53
637.57	491.51
637.72	477.47
637.87	355.76
638.02	383.85
638.17	376.83
638.32	383.85
638.46	484.49
638.61	390.87
638.76	463.43
638.91	428.32
639.06	341.72
639.20	411.93
639.35	416.62
639.50	346.40
639.65	454.06
639.80	423.64
639.94	444.70
640.09	400.23
640.24	428.32
640.39	414.27
640.54	404.91
640.68	421.30
640.83	411.93
640.98	430.66
641.13	339.38
641.27	390.87
641.42	451.72
641.57	374.49
641.72	393.21
641.86	379.17
642.01	416.62
642.16	416.62
642.31	393.21
642.45	390.87
642.60	468.11
642.75	386.19
642.90	372.15
643.04	451.72
643.19	491.51
643.34	393.21
643.48	404.91
643.63	409.59
643.78	493.85
643.93	496.19
644.07	395.55
644.22	416.62
644.37	526.62
644.51	449.38
644.66	400.23
644.81	400.23
644.95	386.19
645.10	313.63
645.25	451.72
645.39	468.11
645.54	451.72
645.69	409.59
645.83	414.27
645.98	397.89
646.13	447.04
646.27	477.47
646.42	374.49
646.57	463.43
646.71	404.91
646.86	376.83
647.00	421.30
647.15	458.74
647.30	421.30
647.44	430.66
647.59	433.00
647.74	411.93
647.88	325.33
648.03	433.00
648.17	430.66
648.32	379.17
648.47	489.17
648.61	346.40
648.76	381.51
648.90	461.09
649.05	379.17
649.20	379.17
649.34	395.55
649.49	430.66
649.63	435.34
649.78	416.62
649.92	423.64
650.07	447.04
650.21	433.00
650.36	395.55
650.51	393.21
650.65	519.60
650.80	433.00
650.94	404.91
651.09	416.62
651.23	456.40
651.38	381.51
651.52	388.53
651.67	400.23
651.81	496.19
651.96	437.68
652.10	435.34
652.25	440.02
652.39	395.55
652.54	381.51
652.68	411.93
652.83	388.53
652.97	447.04
653.12	479.81
653.26	458.74
653.41	437.68
653.55	341.72
653.70	358.10
653.84	447.04
653.99	388.53
654.13	346.40
654.27	435.34
654.42	395.55
654.56	449.38
654.71	477.47
654.85	433.00
655.00	395.55
655.14	390.87
655.29	425.98
655.43	376.83
655.57	365.12
655.72	367.46
655.86	472.79
656.01	423.64
656.15	358.10
656.30	437.68
656.44	451.72
656.58	447.04
656.73	472.79
656.87	440.02
657.01	367.46
657.16	381.51
657.30	468.11
657.45	414.27
657.59	430.66
657.73	337.04
657.88	390.87
658.02	458.74
658.16	489.17
658.31	486.83
658.45	404.91
658.60	444.70
658.74	402.57
658.88	411.93
659.03	468.11
659.17	369.80
659.31	407.25
659.46	423.64
659.60	374.49
659.74	351.08
659.89	503.22
660.03	416.62
660.17	479.81
660.32	411.93
660.46	346.40
660.60	388.53
660.74	449.38
660.89	374.49
661.03	374.49
661.17	428.32
661.32	468.11
661.46	430.66
661.60	374.49
661.74	416.62
661.89	440.02
662.03	423.64
662.17	397.89
662.31	421.30
662.46	465.77
662.60	397.89
662.74	465.77
662.88	463.43
663.03	425.98
663.17	425.98
663.31	442.36
663.45	421.30
663.60	358.10
663.74	451.72
663.88	437.68
664.02	397.89
664.17	418.96
664.31	423.64
664.45	393.21
664.59	355.76
664.73	461.09
664.88	400.23
665.02	449.38
665.16	411.93
665.30	470.45
665.44	395.55
665.59	442.36
665.73	395.55
665.87	379.17
666.01	388.53
666.15	376.83
666.29	372.15
666.44	479.81
666.58	449.38
666.72	418.96
666.86	376.83
667.00	390.87
667.14	374.49
667.28	493.85
667.43	365.12
667.57	423.64
667.71	365.12
667.85	421.30
667.99	411.93
668.13	416.62
668.27	449.38
668.41	454.06
668.56	447.04
668.70	390.87
668.84	411.93
668.98	454.06
669.12	407.25
669.26	465.77
669.40	475.13
669.54	463.43
669.68	435.34
669.82	402.57
669.96	395.55
670.10	447.04
670.25	421.30
670.39	407.25
670.53	404.91
670.67	358.10
670.81	383.85
670.95	407.25
671.09	374.49
671.23	444.70
671.37	393.21
671.51	395.55
671.65	510.24
671.79	402.57
671.93	451.72
672.07	444.70
672.21	379.17
672.35	376.83
672.49	442.36
672.63	475.13
672.77	348.74
672.91	402.57
673.05	344.06
673.19	390.87
673.33	447.04
673.47	507.90
673.61	409.59
673.75	444.70
673.89	428.32
674.03	376.83
674.17	421.30
674.31	533.64
674.45	423.64
674.59	374.49
674.73	411.93
674.87	430.66
675.01	465.77
675.15	449.38
675.29	425.98
675.43	430.66
675.56	388.53
675.70	395.55
675.84	414.27
675.98	411.93
676.12	475.13
676.26	470.45
676.40	344.06
676.54	407.25
676.68	451.72
676.82	409.59
676.96	404.91
677.10	486.83
677.23	416.62
677.37	404.91
677.51	465.77
677.65	416.62
677.79	447.04
677.93	341.72
678.07	346.40
678.21	372.15
678.34	353.42
678.48	369.80
678.62	290.23
678.76	395.55
678.90	472.79
679.04	437.68
679.18	383.85
679.31	409.59
679.45	430.66
679.59	390.87
679.73	390.87
679.87	388.53
680.00	355.76
680.14	376.83
680.28	369.80
680.42	416.62
680.56	458.74
680.70	496.19
680.83	442.36
680.97	428.32
681.11	379.17
681.25	395.55
681.39	465.77
681.52	416.62
681.66	411.93
681.80	430.66
681.94	388.53
682.07	386.19
682.21	418.96
682.35	454.06
682.49	456.40
682.62	423.64
682.76	358.10
682.90	411.93
683.04	381.51
683.17	376.83
683.31	440.02
683.45	344.06
683.59	409.59
683.72	397.89
683.86	430.66
684.00	411.93
684.13	407.25
684.27	362.78
684.41	425.98
684.55	425.98
684.68	339.38
684.82	372.15
684.96	437.68
685.09	433.00
685.23	395.55
685.37	388.53
685.50	369.80
685.64	365.12
685.78	397.89
685.91	423.64
686.05	418.96
686.19	311.29
686.32	411.93
686.46	479.81
686.60	379.17
686.73	484.49
686.87	395.55
687.01	358.10
687.14	402.57
687.28	388.53
687.42	475.13
687.55	353.42
687.69	435.34
687.82	411.93
687.96	339.38
688.10	393.21
688.23	411.93
688.37	465.77
688.50	449.38
688.64	433.00
688.78	451.72
688.91	355.76
689.05	367.46
689.18	390.87
689.32	341.72
689.46	442.36
689.59	442.36
689.73	411.93
689.86	379.17
690.00	388.53
690.13	437.68
690.27	402.57
690.41	503.22
690.54	383.85
690.68	379.17
690.81	458.74
690.95	418.96
691.08	456.40
691.22	395.55
691.35	365.12
691.49	423.64
691.62	397.89
691.76	376.83
691.89	484.49
692.03	346.40
692.16	470.45
692.30	409.59
692.43	365.12
692.57	423.64
692.70	376.83
692.84	442.36
692.97	435.34
693.11	383.85
693.24	388.53
693.38	395.55
693.51	388.53
693.65	397.89
693.78	369.80
693.92	468.11
694.05	430.66
694.19	351.08
694.32	472.79
694.45	379.17
694.59	379.17
694.72	358.10
694.86	416.62
694.99	484.49
695.13	383.85
695.26	468.11
695.39	369.80
695.53	407.25
695.66	404.91
695.80	416.62
695.93	407.25
696.07	451.72
696.20	372.15
696.33	339.38
696.47	390.87
696.60	479.81
696.73	393.21
696.87	444.70
697.00	449.38
697.14	425.98
697.27	365.12
697.40	479.81
697.54	430.66
697.67	440.02
697.80	423.64
697.94	416.62
698.07	454.06
698.21	376.83
698.34	367.46
698.47	376.83
698.61	402.57
698.74	383.85
698.87	362.78
699.01	348.74
699.14	355.76
699.27	416.62
699.40	543.00
699.54	437.68
699.67	430.66
699.80	379.17
699.94	407.25
700.07	365.12
700.20	395.55
700.34	421.30
700.47	416.62
700.60	376.83
700.73	365.12
700.87	444.70
701.00	421.30
701.13	421.30
701.26	447.04
701.40	360.44
701.53	404.91
701.66	447.04
701.79	395.55
701.93	440.02
702.06	428.32
702.19	299.59
702.32	428.32
702.46	369.80
702.59	388.53
702.72	404.91
702.85	423.64
702.99	379.17
703.12	388.53
703.25	407.25
703.38	414.27
703.51	470.45
703.65	416.62
703.78	425.98
703.91	416.62
704.04	407.25
704.17	404.91
704.31	390.87
704.44	416.62
704.57	435.34
704.70	465.77
704.83	425.98
704.96	395.55
705.10	456.40
705.23	437.68
>>>>>End Processed Spectral Data<<<<<
