SpectraSuite Data File
++++++++++++++++++++++++++++++++++++
Date: Fri Oct 25 12:10:34 EDT 2013
User: price-jones
Dark Spectrum Present: No
Reference Spectrum Present: No
Number of Sampled Component Spectra: 1
Spectrometers: USB2+H05261
Integration Time (usec): 100000 (USB2+H05261)
Spectra Averaged: 1 (USB2+H05261)
Boxcar Smoothing: 0 (USB2+H05261)
Correct for Electrical Dark: No (USB2+H05261)
Strobe/Lamp Enabled: No (USB2+H05261)
Correct for Detector Non-linearity: No (USB2+H05261)
Correct for Stray Light: No (USB2+H05261)
Number of Pixels in Processed Spectrum: 2048
>>>>>Begin Processed Spectral Data<<<<<
365.73	243.42
365.92	243.42
366.12	243.42
366.32	290.23
366.52	248.10
366.72	217.67
366.91	243.42
367.11	234.05
367.31	250.44
367.51	212.99
367.70	234.05
367.90	222.35
368.10	252.78
368.30	273.84
368.49	245.76
368.69	294.91
368.89	262.14
369.09	241.08
369.28	322.99
369.48	301.93
369.68	285.55
369.87	311.29
370.07	315.97
370.27	339.38
370.47	322.99
370.66	334.70
370.86	320.65
371.06	409.59
371.25	421.30
371.45	407.25
371.65	341.72
371.84	393.21
372.04	355.76
372.24	365.12
372.44	360.44
372.63	435.34
372.83	425.98
373.03	393.21
373.22	411.93
373.42	404.91
373.62	421.30
373.81	355.76
374.01	414.27
374.21	376.83
374.40	454.06
374.60	451.72
374.79	402.57
374.99	428.32
375.19	411.93
375.38	402.57
375.58	395.55
375.78	416.62
375.97	393.21
376.17	411.93
376.37	444.70
376.56	386.19
376.76	386.19
376.95	442.36
377.15	444.70
377.35	409.59
377.54	393.21
377.74	341.72
377.93	421.30
378.13	376.83
378.33	463.43
378.52	346.40
378.72	428.32
378.91	444.70
379.11	332.36
379.31	423.64
379.50	301.93
379.70	330.02
379.89	397.89
380.09	461.09
380.28	369.80
380.48	444.70
380.68	407.25
380.87	440.02
381.07	461.09
381.26	423.64
381.46	404.91
381.65	308.95
381.85	369.80
382.04	435.34
382.24	379.17
382.43	341.72
382.63	421.30
382.83	461.09
383.02	437.68
383.22	414.27
383.41	400.23
383.61	393.21
383.80	442.36
384.00	381.51
384.19	376.83
384.39	407.25
384.58	409.59
384.78	404.91
384.97	388.53
385.17	372.15
385.36	367.46
385.56	418.96
385.75	404.91
385.95	341.72
386.14	400.23
386.34	379.17
386.53	433.00
386.72	416.62
386.92	451.72
387.11	418.96
387.31	465.77
387.50	421.30
387.70	355.76
387.89	379.17
388.09	369.80
388.28	470.45
388.48	383.85
388.67	418.96
388.86	454.06
389.06	407.25
389.25	449.38
389.45	442.36
389.64	418.96
389.84	430.66
390.03	444.70
390.22	318.31
390.42	395.55
390.61	440.02
390.81	334.70
391.00	411.93
391.19	428.32
391.39	411.93
391.58	395.55
391.78	360.44
391.97	407.25
392.16	411.93
392.36	409.59
392.55	435.34
392.75	393.21
392.94	351.08
393.13	442.36
393.33	360.44
393.52	372.15
393.71	465.77
393.91	421.30
394.10	334.70
394.29	362.78
394.49	325.33
394.68	397.89
394.88	397.89
395.07	475.13
395.26	383.85
395.46	376.83
395.65	367.46
395.84	421.30
396.04	407.25
396.23	414.27
396.42	332.36
396.62	379.17
396.81	433.00
397.00	423.64
397.19	386.19
397.39	454.06
397.58	372.15
397.77	304.27
397.97	435.34
398.16	470.45
398.35	397.89
398.55	386.19
398.74	390.87
398.93	418.96
399.12	369.80
399.32	418.96
399.51	414.27
399.70	390.87
399.90	409.59
400.09	444.70
400.28	416.62
400.47	388.53
400.67	472.79
400.86	376.83
401.05	348.74
401.24	447.04
401.44	369.80
401.63	402.57
401.82	306.61
402.01	362.78
402.21	500.87
402.40	393.21
402.59	433.00
402.78	407.25
402.97	372.15
403.17	430.66
403.36	390.87
403.55	449.38
403.74	423.64
403.93	360.44
404.13	402.57
404.32	334.70
404.51	397.89
404.70	369.80
404.89	400.23
405.09	332.36
405.28	330.02
405.47	425.98
405.66	402.57
405.85	451.72
406.05	442.36
406.24	397.89
406.43	404.91
406.62	463.43
406.81	362.78
407.00	447.04
407.20	383.85
407.39	414.27
407.58	388.53
407.77	440.02
407.96	393.21
408.15	395.55
408.34	430.66
408.54	411.93
408.73	425.98
408.92	456.40
409.11	386.19
409.30	416.62
409.49	334.70
409.68	367.46
409.87	374.49
410.07	491.51
410.26	425.98
410.45	351.08
410.64	477.47
410.83	442.36
411.02	344.06
411.21	386.19
411.40	425.98
411.59	444.70
411.78	334.70
411.98	430.66
412.17	416.62
412.36	372.15
412.55	337.04
412.74	390.87
412.93	444.70
413.12	386.19
413.31	409.59
413.50	409.59
413.69	402.57
413.88	456.40
414.07	362.78
414.26	395.55
414.45	369.80
414.64	376.83
414.83	484.49
415.02	463.43
415.22	435.34
415.41	442.36
415.60	301.93
415.79	404.91
415.98	433.00
416.17	416.62
416.36	374.49
416.55	400.23
416.74	400.23
416.93	421.30
417.12	416.62
417.31	360.44
417.50	397.89
417.69	428.32
417.88	440.02
418.07	421.30
418.26	444.70
418.45	381.51
418.64	433.00
418.83	376.83
419.02	390.87
419.21	435.34
419.39	390.87
419.58	440.02
419.77	477.47
419.96	395.55
420.15	428.32
420.34	423.64
420.53	386.19
420.72	475.13
420.91	372.15
421.10	407.25
421.29	383.85
421.48	444.70
421.67	383.85
421.86	360.44
422.05	355.76
422.24	461.09
422.43	458.74
422.61	383.85
422.80	379.17
422.99	468.11
423.18	423.64
423.37	517.26
423.56	440.02
423.75	435.34
423.94	404.91
424.13	414.27
424.32	365.12
424.50	423.64
424.69	390.87
424.88	505.56
425.07	423.64
425.26	383.85
425.45	400.23
425.64	395.55
425.83	414.27
426.01	484.49
426.20	418.96
426.39	440.02
426.58	411.93
426.77	425.98
426.96	411.93
427.15	435.34
427.33	390.87
427.52	423.64
427.71	454.06
427.90	463.43
428.09	449.38
428.28	395.55
428.46	395.55
428.65	400.23
428.84	414.27
429.03	409.59
429.22	437.68
429.40	404.91
429.59	358.10
429.78	365.12
429.97	393.21
430.16	400.23
430.34	428.32
430.53	404.91
430.72	409.59
430.91	461.09
431.10	416.62
431.28	440.02
431.47	418.96
431.66	442.36
431.85	379.17
432.03	353.42
432.22	437.68
432.41	388.53
432.60	416.62
432.79	449.38
432.97	423.64
433.16	369.80
433.35	430.66
433.54	372.15
433.72	421.30
433.91	470.45
434.10	449.38
434.28	425.98
434.47	379.17
434.66	442.36
434.85	400.23
435.03	395.55
435.22	409.59
435.41	447.04
435.59	362.78
435.78	397.89
435.97	428.32
436.16	362.78
436.34	325.33
436.53	414.27
436.72	428.32
436.90	440.02
437.09	425.98
437.28	360.44
437.46	440.02
437.65	360.44
437.84	386.19
438.02	362.78
438.21	444.70
438.40	390.87
438.58	428.32
438.77	416.62
438.96	489.17
439.14	386.19
439.33	475.13
439.52	404.91
439.70	418.96
439.89	402.57
440.08	440.02
440.26	454.06
440.45	397.89
440.63	440.02
440.82	388.53
441.01	362.78
441.19	360.44
441.38	428.32
441.57	442.36
441.75	447.04
441.94	379.17
442.12	374.49
442.31	440.02
442.50	346.40
442.68	418.96
442.87	461.09
443.05	400.23
443.24	411.93
443.43	428.32
443.61	416.62
443.80	379.17
443.98	404.91
444.17	390.87
444.35	397.89
444.54	418.96
444.73	376.83
444.91	423.64
445.10	393.21
445.28	390.87
445.47	444.70
445.65	475.13
445.84	383.85
446.02	437.68
446.21	437.68
446.39	414.27
446.58	449.38
446.77	418.96
446.95	360.44
447.14	372.15
447.32	435.34
447.51	393.21
447.69	365.12
447.88	404.91
448.06	472.79
448.25	421.30
448.43	301.93
448.62	435.34
448.80	393.21
448.99	440.02
449.17	369.80
449.36	348.74
449.54	447.04
449.73	362.78
449.91	447.04
450.10	353.42
450.28	491.51
450.46	458.74
450.65	351.08
450.83	409.59
451.02	360.44
451.20	369.80
451.39	470.45
451.57	447.04
451.76	447.04
451.94	381.51
452.13	449.38
452.31	428.32
452.49	393.21
452.68	386.19
452.86	388.53
453.05	449.38
453.23	393.21
453.42	369.80
453.60	437.68
453.78	447.04
453.97	468.11
454.15	334.70
454.34	390.87
454.52	414.27
454.70	472.79
454.89	388.53
455.07	386.19
455.26	397.89
455.44	456.40
455.62	393.21
455.81	388.53
455.99	411.93
456.17	444.70
456.36	388.53
456.54	365.12
456.73	393.21
456.91	379.17
457.09	407.25
457.28	381.51
457.46	447.04
457.64	447.04
457.83	510.24
458.01	388.53
458.19	447.04
458.38	407.25
458.56	409.59
458.74	390.87
458.93	416.62
459.11	491.51
459.29	379.17
459.48	397.89
459.66	393.21
459.84	395.55
460.03	451.72
460.21	409.59
460.39	435.34
460.57	491.51
460.76	379.17
460.94	451.72
461.12	442.36
461.31	386.19
461.49	395.55
461.67	418.96
461.85	395.55
462.04	369.80
462.22	805.14
462.40	367.46
462.59	402.57
462.77	444.70
462.95	449.38
463.13	472.79
463.32	351.08
463.50	397.89
463.68	423.64
463.86	416.62
464.05	454.06
464.23	416.62
464.41	447.04
464.59	400.23
464.78	421.30
464.96	425.98
465.14	423.64
465.32	369.80
465.50	402.57
465.69	395.55
465.87	442.36
466.05	423.64
466.23	402.57
466.41	339.38
466.60	407.25
466.78	423.64
466.96	468.11
467.14	388.53
467.32	461.09
467.51	353.42
467.69	444.70
467.87	402.57
468.05	435.34
468.23	372.15
468.41	449.38
468.60	402.57
468.78	421.30
468.96	404.91
469.14	461.09
469.32	458.74
469.50	367.46
469.69	400.23
469.87	456.40
470.05	411.93
470.23	433.00
470.41	376.83
470.59	442.36
470.77	386.19
470.95	379.17
471.14	477.47
471.32	421.30
471.50	414.27
471.68	411.93
471.86	367.46
472.04	437.68
472.22	383.85
472.40	360.44
472.58	393.21
472.77	404.91
472.95	397.89
473.13	463.43
473.31	390.87
473.49	433.00
473.67	404.91
473.85	416.62
474.03	393.21
474.21	383.85
474.39	456.40
474.57	475.13
474.75	409.59
474.93	440.02
475.12	390.87
475.30	433.00
475.48	409.59
475.66	414.27
475.84	407.25
476.02	414.27
476.20	482.15
476.38	304.27
476.56	465.77
476.74	456.40
476.92	393.21
477.10	449.38
477.28	456.40
477.46	414.27
477.64	402.57
477.82	381.51
478.00	402.57
478.18	402.57
478.36	372.15
478.54	414.27
478.72	393.21
478.90	402.57
479.08	346.40
479.26	449.38
479.44	404.91
479.62	362.78
479.80	393.21
479.98	463.43
480.16	456.40
480.34	407.25
480.52	355.76
480.70	416.62
480.88	367.46
481.06	449.38
481.24	458.74
481.41	437.68
481.59	390.87
481.77	386.19
481.95	414.27
482.13	404.91
482.31	400.23
482.49	456.40
482.67	479.81
482.85	381.51
483.03	435.34
483.21	395.55
483.39	407.25
483.57	390.87
483.74	484.49
483.92	407.25
484.10	433.00
484.28	402.57
484.46	423.64
484.64	421.30
484.82	404.91
485.00	463.43
485.18	414.27
485.35	386.19
485.53	402.57
485.71	500.87
485.89	409.59
486.07	337.04
486.25	421.30
486.43	390.87
486.61	503.22
486.78	498.53
486.96	334.70
487.14	421.30
487.32	433.00
487.50	397.89
487.68	423.64
487.85	381.51
488.03	390.87
488.21	404.91
488.39	423.64
488.57	444.70
488.75	440.02
488.92	451.72
489.10	484.49
489.28	475.13
489.46	358.10
489.64	393.21
489.81	379.17
489.99	402.57
490.17	444.70
490.35	475.13
490.53	397.89
490.70	472.79
490.88	341.72
491.06	348.74
491.24	435.34
491.41	327.68
491.59	430.66
491.77	461.09
491.95	395.55
492.13	397.89
492.30	458.74
492.48	402.57
492.66	444.70
492.84	479.81
493.01	404.91
493.19	449.38
493.37	409.59
493.54	397.89
493.72	454.06
493.90	355.76
494.08	374.49
494.25	454.06
494.43	402.57
494.61	428.32
494.79	423.64
494.96	440.02
495.14	440.02
495.32	435.34
495.49	428.32
495.67	390.87
495.85	414.27
496.02	367.46
496.20	461.09
496.38	437.68
496.55	409.59
496.73	425.98
496.91	423.64
497.09	402.57
497.26	479.81
497.44	414.27
497.62	435.34
497.79	430.66
497.97	449.38
498.14	360.44
498.32	379.17
498.50	496.19
498.67	374.49
498.85	425.98
499.03	433.00
499.20	433.00
499.38	449.38
499.56	451.72
499.73	437.68
499.91	407.25
500.08	409.59
500.26	418.96
500.44	355.76
500.61	421.30
500.79	404.91
500.97	374.49
501.14	395.55
501.32	435.34
501.49	383.85
501.67	397.89
501.84	381.51
502.02	428.32
502.20	479.81
502.37	440.02
502.55	440.02
502.72	416.62
502.90	372.15
503.07	414.27
503.25	416.62
503.43	334.70
503.60	360.44
503.78	362.78
503.95	414.27
504.13	358.10
504.30	482.15
504.48	409.59
504.65	440.02
504.83	437.68
505.01	341.72
505.18	461.09
505.36	407.25
505.53	423.64
505.71	367.46
505.88	468.11
506.06	355.76
506.23	374.49
506.41	449.38
506.58	425.98
506.76	339.38
506.93	393.21
507.11	404.91
507.28	395.55
507.46	383.85
507.63	423.64
507.81	449.38
507.98	390.87
508.16	428.32
508.33	386.19
508.50	360.44
508.68	407.25
508.85	442.36
509.03	397.89
509.20	372.15
509.38	379.17
509.55	498.53
509.73	498.53
509.90	437.68
510.08	388.53
510.25	416.62
510.42	435.34
510.60	381.51
510.77	463.43
510.95	479.81
511.12	383.85
511.30	404.91
511.47	418.96
511.64	442.36
511.82	311.29
511.99	437.68
512.17	393.21
512.34	379.17
512.51	421.30
512.69	339.38
512.86	442.36
513.04	430.66
513.21	421.30
513.38	444.70
513.56	374.49
513.73	465.77
513.90	409.59
514.08	395.55
514.25	404.91
514.43	461.09
514.60	414.27
514.77	395.55
514.95	440.02
515.12	355.76
515.29	390.87
515.47	379.17
515.64	404.91
515.81	442.36
515.99	456.40
516.16	421.30
516.33	510.24
516.51	418.96
516.68	430.66
516.85	449.38
517.03	381.51
517.20	390.87
517.37	475.13
517.54	425.98
517.72	400.23
517.89	409.59
518.06	379.17
518.24	489.17
518.41	510.24
518.58	414.27
518.75	404.91
518.93	337.04
519.10	374.49
519.27	421.30
519.45	475.13
519.62	374.49
519.79	456.40
519.96	397.89
520.14	433.00
520.31	442.36
520.48	437.68
520.65	341.72
520.83	454.06
521.00	430.66
521.17	416.62
521.34	393.21
521.52	381.51
521.69	470.45
521.86	414.27
522.03	524.28
522.20	409.59
522.38	433.00
522.55	423.64
522.72	465.77
522.89	475.13
523.07	442.36
523.24	395.55
523.41	423.64
523.58	447.04
523.75	407.25
523.92	423.64
524.10	383.85
524.27	386.19
524.44	395.55
524.61	428.32
524.78	411.93
524.96	421.30
525.13	447.04
525.30	374.49
525.47	395.55
525.64	437.68
525.81	482.15
525.98	430.66
526.16	348.74
526.33	411.93
526.50	379.17
526.67	376.83
526.84	407.25
527.01	421.30
527.18	372.15
527.36	482.15
527.53	381.51
527.70	425.98
527.87	404.91
528.04	425.98
528.21	381.51
528.38	461.09
528.55	496.19
528.72	465.77
528.89	461.09
529.07	500.87
529.24	395.55
529.41	465.77
529.58	435.34
529.75	423.64
529.92	404.91
530.09	390.87
530.26	334.70
530.43	355.76
530.60	365.12
530.77	369.80
530.94	423.64
531.11	425.98
531.28	425.98
531.46	400.23
531.63	440.02
531.80	521.94
531.97	416.62
532.14	386.19
532.31	414.27
532.48	372.15
532.65	433.00
532.82	402.57
532.99	493.85
533.16	367.46
533.33	468.11
533.50	409.59
533.67	442.36
533.84	411.93
534.01	407.25
534.18	437.68
534.35	409.59
534.52	400.23
534.69	437.68
534.86	411.93
535.03	365.12
535.20	395.55
535.37	418.96
535.54	404.91
535.71	397.89
535.88	421.30
536.05	407.25
536.22	421.30
536.38	351.08
536.55	416.62
536.72	463.43
536.89	468.11
537.06	425.98
537.23	381.51
537.40	374.49
537.57	374.49
537.74	400.23
537.91	423.64
538.08	407.25
538.25	486.83
538.42	489.17
538.59	376.83
538.75	411.93
538.92	454.06
539.09	379.17
539.26	454.06
539.43	484.49
539.60	374.49
539.77	388.53
539.94	376.83
540.11	397.89
540.28	514.92
540.44	475.13
540.61	465.77
540.78	402.57
540.95	390.87
541.12	463.43
541.29	390.87
541.46	454.06
541.62	386.19
541.79	393.21
541.96	430.66
542.13	409.59
542.30	379.17
542.47	423.64
542.63	402.57
542.80	379.17
542.97	440.02
543.14	423.64
543.31	395.55
543.48	369.80
543.64	404.91
543.81	332.36
543.98	414.27
544.15	449.38
544.32	381.51
544.48	409.59
544.65	437.68
544.82	451.72
544.99	449.38
545.16	440.02
545.32	437.68
545.49	411.93
545.66	444.70
545.83	444.70
546.00	390.87
546.16	430.66
546.33	367.46
546.50	414.27
546.67	379.17
546.83	454.06
547.00	365.12
547.17	395.55
547.34	376.83
547.50	297.25
547.67	416.62
547.84	365.12
548.00	411.93
548.17	409.59
548.34	379.17
548.51	435.34
548.67	435.34
548.84	451.72
549.01	442.36
549.18	393.21
549.34	430.66
549.51	456.40
549.68	433.00
549.84	393.21
550.01	496.19
550.18	491.51
550.34	486.83
550.51	470.45
550.68	433.00
550.84	362.78
551.01	428.32
551.18	397.89
551.34	484.49
551.51	456.40
551.68	402.57
551.84	489.17
552.01	365.12
552.18	475.13
552.34	395.55
552.51	425.98
552.68	425.98
552.84	367.46
553.01	395.55
553.18	423.64
553.34	421.30
553.51	353.42
553.67	437.68
553.84	498.53
554.01	451.72
554.17	435.34
554.34	437.68
554.51	411.93
554.67	489.17
554.84	428.32
555.00	421.30
555.17	447.04
555.33	428.32
555.50	433.00
555.67	397.89
555.83	386.19
556.00	423.64
556.16	582.79
556.33	456.40
556.50	461.09
556.66	414.27
556.83	430.66
556.99	379.17
557.16	390.87
557.32	416.62
557.49	425.98
557.65	463.43
557.82	395.55
557.98	472.79
558.15	454.06
558.32	379.17
558.48	425.98
558.65	379.17
558.81	409.59
558.98	369.80
559.14	433.00
559.31	409.59
559.47	430.66
559.64	416.62
559.80	416.62
559.97	397.89
560.13	430.66
560.30	440.02
560.46	395.55
560.63	430.66
560.79	433.00
560.96	472.79
561.12	479.81
561.29	456.40
561.45	404.91
561.61	451.72
561.78	425.98
561.94	475.13
562.11	512.58
562.27	440.02
562.44	341.72
562.60	465.77
562.77	409.59
562.93	535.98
563.10	433.00
563.26	348.74
563.42	440.02
563.59	444.70
563.75	390.87
563.92	540.66
564.08	400.23
564.24	402.57
564.41	430.66
564.57	425.98
564.74	430.66
564.90	435.34
565.07	425.98
565.23	458.74
565.39	451.72
565.56	472.79
565.72	402.57
565.88	440.02
566.05	379.17
566.21	397.89
566.38	430.66
566.54	421.30
566.70	451.72
566.87	402.57
567.03	369.80
567.19	416.62
567.36	407.25
567.52	358.10
567.68	339.38
567.85	447.04
568.01	409.59
568.17	479.81
568.34	355.76
568.50	491.51
568.66	395.55
568.83	510.24
568.99	430.66
569.15	444.70
569.32	428.32
569.48	348.74
569.64	461.09
569.81	421.30
569.97	348.74
570.13	367.46
570.30	423.64
570.46	395.55
570.62	402.57
570.78	451.72
570.95	383.85
571.11	465.77
571.27	397.89
571.43	369.80
571.60	388.53
571.76	376.83
571.92	442.36
572.09	454.06
572.25	388.53
572.41	367.46
572.57	325.33
572.74	449.38
572.90	456.40
573.06	477.47
573.22	472.79
573.38	425.98
573.55	416.62
573.71	425.98
573.87	423.64
574.03	425.98
574.20	360.44
574.36	437.68
574.52	411.93
574.68	482.15
574.84	475.13
575.01	381.51
575.17	435.34
575.33	442.36
575.49	433.00
575.65	416.62
575.82	411.93
575.98	393.21
576.14	430.66
576.30	395.55
576.46	433.00
576.62	409.59
576.79	421.30
576.95	416.62
577.11	449.38
577.27	461.09
577.43	411.93
577.59	428.32
577.75	402.57
577.92	437.68
578.08	358.10
578.24	390.87
578.40	348.74
578.56	414.27
578.72	484.49
578.88	447.04
579.04	433.00
579.21	388.53
579.37	433.00
579.53	444.70
579.69	393.21
579.85	386.19
580.01	458.74
580.17	468.11
580.33	430.66
580.49	358.10
580.65	435.34
580.82	430.66
580.98	454.06
581.14	346.40
581.30	468.11
581.46	390.87
581.62	533.64
581.78	379.17
581.94	486.83
582.10	386.19
582.26	416.62
582.42	367.46
582.58	423.64
582.74	353.42
582.90	428.32
583.06	400.23
583.22	411.93
583.38	397.89
583.54	442.36
583.70	409.59
583.86	397.89
584.02	451.72
584.18	402.57
584.34	390.87
584.50	430.66
584.66	369.80
584.82	430.66
584.98	411.93
585.14	362.78
585.30	411.93
585.46	402.57
585.62	362.78
585.78	390.87
585.94	430.66
586.10	409.59
586.26	351.08
586.42	423.64
586.58	409.59
586.74	442.36
586.90	376.83
587.06	468.11
587.22	444.70
587.38	376.83
587.54	379.17
587.70	428.32
587.86	454.06
588.02	409.59
588.18	397.89
588.34	468.11
588.49	440.02
588.65	369.80
588.81	369.80
588.97	372.15
589.13	369.80
589.29	430.66
589.45	433.00
589.61	440.02
589.77	514.92
589.93	425.98
590.08	430.66
590.24	339.38
590.40	395.55
590.56	395.55
590.72	386.19
590.88	411.93
591.04	409.59
591.20	440.02
591.35	386.19
591.51	428.32
591.67	381.51
591.83	386.19
591.99	402.57
592.15	411.93
592.31	421.30
592.46	390.87
592.62	484.49
592.78	425.98
592.94	393.21
593.10	451.72
593.26	383.85
593.41	414.27
593.57	386.19
593.73	461.09
593.89	442.36
594.05	402.57
594.20	409.59
594.36	440.02
594.52	390.87
594.68	306.61
594.84	444.70
594.99	447.04
595.15	486.83
595.31	454.06
595.47	449.38
595.62	425.98
595.78	381.51
595.94	407.25
596.10	369.80
596.25	355.76
596.41	409.59
596.57	444.70
596.73	360.44
596.88	407.25
597.04	423.64
597.20	407.25
597.36	425.98
597.51	395.55
597.67	416.62
597.83	463.43
597.99	435.34
598.14	456.40
598.30	425.98
598.46	390.87
598.61	407.25
598.77	456.40
598.93	409.59
599.09	421.30
599.24	390.87
599.40	411.93
599.56	409.59
599.71	416.62
599.87	414.27
600.03	386.19
600.18	423.64
600.34	433.00
600.50	472.79
600.65	372.15
600.81	414.27
600.97	423.64
601.12	397.89
601.28	465.77
601.44	428.32
601.59	372.15
601.75	404.91
601.91	433.00
602.06	428.32
602.22	475.13
602.37	479.81
602.53	416.62
602.69	400.23
602.84	397.89
603.00	444.70
603.16	458.74
603.31	475.13
603.47	421.30
603.62	433.00
603.78	390.87
603.94	334.70
604.09	414.27
604.25	451.72
604.40	447.04
604.56	470.45
604.71	430.66
604.87	402.57
605.03	386.19
605.18	421.30
605.34	402.57
605.49	379.17
605.65	374.49
605.80	374.49
605.96	433.00
606.12	449.38
606.27	442.36
606.43	433.00
606.58	461.09
606.74	461.09
606.89	414.27
607.05	444.70
607.20	362.78
607.36	355.76
607.51	365.12
607.67	390.87
607.82	414.27
607.98	423.64
608.13	465.77
608.29	423.64
608.44	404.91
608.60	451.72
608.75	470.45
608.91	454.06
609.06	451.72
609.22	447.04
609.37	358.10
609.53	386.19
609.68	360.44
609.84	454.06
609.99	463.43
610.15	468.11
610.30	458.74
610.46	395.55
610.61	327.68
610.76	411.93
610.92	482.15
611.07	390.87
611.23	491.51
611.38	425.98
611.54	475.13
611.69	393.21
611.84	477.47
612.00	351.08
612.15	479.81
612.31	447.04
612.46	383.85
612.62	332.36
612.77	461.09
612.92	433.00
613.08	461.09
613.23	454.06
613.39	383.85
613.54	414.27
613.69	423.64
613.85	425.98
614.00	379.17
614.15	472.79
614.31	414.27
614.46	418.96
614.62	465.77
614.77	505.56
614.92	376.83
615.08	379.17
615.23	404.91
615.38	355.76
615.54	332.36
615.69	440.02
615.84	372.15
616.00	386.19
616.15	353.42
616.30	433.00
616.46	437.68
616.61	400.23
616.76	468.11
616.92	358.10
617.07	444.70
617.22	395.55
617.37	418.96
617.53	372.15
617.68	404.91
617.83	358.10
617.99	440.02
618.14	472.79
618.29	374.49
618.45	376.83
618.60	365.12
618.75	386.19
618.90	367.46
619.06	437.68
619.21	510.24
619.36	397.89
619.51	374.49
619.67	386.19
619.82	374.49
619.97	400.23
620.12	463.43
620.28	379.17
620.43	386.19
620.58	425.98
620.73	465.77
620.89	386.19
621.04	344.06
621.19	440.02
621.34	374.49
621.49	414.27
621.65	475.13
621.80	423.64
621.95	430.66
622.10	433.00
622.25	369.80
622.41	374.49
622.56	428.32
622.71	416.62
622.86	454.06
623.01	437.68
623.16	402.57
623.32	386.19
623.47	418.96
623.62	348.74
623.77	430.66
623.92	402.57
624.07	374.49
624.23	425.98
624.38	500.87
624.53	428.32
624.68	414.27
624.83	433.00
624.98	351.08
625.13	402.57
625.29	425.98
625.44	355.76
625.59	463.43
625.74	400.23
625.89	397.89
626.04	414.27
626.19	484.49
626.34	430.66
626.49	411.93
626.65	463.43
626.80	425.98
626.95	411.93
627.10	353.42
627.25	430.66
627.40	430.66
627.55	447.04
627.70	351.08
627.85	433.00
628.00	493.85
628.15	390.87
628.30	407.25
628.45	393.21
628.60	423.64
628.76	496.19
628.91	383.85
629.06	437.68
629.21	416.62
629.36	517.26
629.51	404.91
629.66	400.23
629.81	407.25
629.96	447.04
630.11	367.46
630.26	355.76
630.41	381.51
630.56	402.57
630.71	500.87
630.86	468.11
631.01	456.40
631.16	486.83
631.31	388.53
631.46	379.17
631.61	435.34
631.76	428.32
631.91	423.64
632.06	554.71
632.21	472.79
632.36	447.04
632.51	435.34
632.66	484.49
632.81	505.56
632.96	362.78
633.10	395.55
633.25	442.36
633.40	404.91
633.55	477.47
633.70	425.98
633.85	451.72
634.00	383.85
634.15	304.27
634.30	353.42
634.45	409.59
634.60	416.62
634.75	411.93
634.90	421.30
635.05	444.70
635.19	440.02
635.34	418.96
635.49	465.77
635.64	390.87
635.79	348.74
635.94	376.83
636.09	435.34
636.24	402.57
636.39	388.53
636.53	397.89
636.68	444.70
636.83	423.64
636.98	454.06
637.13	367.46
637.28	360.44
637.43	496.19
637.57	440.02
637.72	442.36
637.87	388.53
638.02	440.02
638.17	337.04
638.32	421.30
638.46	400.23
638.61	442.36
638.76	383.85
638.91	428.32
639.06	369.80
639.20	397.89
639.35	456.40
639.50	414.27
639.65	477.47
639.80	468.11
639.94	400.23
640.09	451.72
640.24	372.15
640.39	388.53
640.54	465.77
640.68	414.27
640.83	421.30
640.98	341.72
641.13	409.59
641.27	440.02
641.42	390.87
641.57	393.21
641.72	404.91
641.86	416.62
642.01	409.59
642.16	472.79
642.31	423.64
642.45	440.02
642.60	437.68
642.75	402.57
642.90	362.78
643.04	414.27
643.19	383.85
643.34	468.11
643.48	423.64
643.63	365.12
643.78	468.11
643.93	475.13
644.07	435.34
644.22	440.02
644.37	416.62
644.51	428.32
644.66	388.53
644.81	433.00
644.95	454.06
645.10	416.62
645.25	358.10
645.39	519.60
645.54	416.62
645.69	425.98
645.83	430.66
645.98	470.45
646.13	482.15
646.27	404.91
646.42	400.23
646.57	423.64
646.71	465.77
646.86	414.27
647.00	465.77
647.15	463.43
647.30	435.34
647.44	393.21
647.59	433.00
647.74	360.44
647.88	404.91
648.03	393.21
648.17	411.93
648.32	444.70
648.47	447.04
648.61	447.04
648.76	390.87
648.90	468.11
649.05	493.85
649.20	395.55
649.34	374.49
649.49	440.02
649.63	388.53
649.78	442.36
649.92	374.49
650.07	381.51
650.21	339.38
650.36	468.11
650.51	397.89
650.65	449.38
650.80	381.51
650.94	428.32
651.09	449.38
651.23	383.85
651.38	372.15
651.52	447.04
651.67	341.72
651.81	407.25
651.96	517.26
652.10	498.53
652.25	421.30
652.39	320.65
652.54	418.96
652.68	404.91
652.83	451.72
652.97	346.40
653.12	461.09
653.26	421.30
653.41	423.64
653.55	449.38
653.70	407.25
653.84	421.30
653.99	362.78
654.13	409.59
654.27	393.21
654.42	442.36
654.56	332.36
654.71	491.51
654.85	414.27
655.00	369.80
655.14	512.58
655.29	440.02
655.43	428.32
655.57	447.04
655.72	397.89
655.86	482.15
656.01	491.51
656.15	435.34
656.30	421.30
656.44	468.11
656.58	369.80
656.73	404.91
656.87	435.34
657.01	397.89
657.16	454.06
657.30	418.96
657.45	418.96
657.59	447.04
657.73	395.55
657.88	409.59
658.02	416.62
658.16	393.21
658.31	421.30
658.45	388.53
658.60	404.91
658.74	374.49
658.88	395.55
659.03	365.12
659.17	390.87
659.31	308.95
659.46	421.30
659.60	421.30
659.74	400.23
659.89	425.98
660.03	416.62
660.17	423.64
660.32	442.36
660.46	425.98
660.60	353.42
660.74	414.27
660.89	423.64
661.03	423.64
661.17	416.62
661.32	404.91
661.46	374.49
661.60	414.27
661.74	430.66
661.89	489.17
662.03	463.43
662.17	458.74
662.31	425.98
662.46	372.15
662.60	386.19
662.74	421.30
662.88	395.55
663.03	334.70
663.17	344.06
663.31	444.70
663.45	395.55
663.60	423.64
663.74	486.83
663.88	322.99
664.02	425.98
664.17	376.83
664.31	411.93
664.45	428.32
664.59	397.89
664.73	393.21
664.88	428.32
665.02	381.51
665.16	383.85
665.30	397.89
665.44	318.31
665.59	353.42
665.73	444.70
665.87	365.12
666.01	383.85
666.15	395.55
666.29	395.55
666.44	440.02
666.58	444.70
666.72	393.21
666.86	423.64
667.00	418.96
667.14	437.68
667.28	425.98
667.43	411.93
667.57	414.27
667.71	388.53
667.85	461.09
667.99	433.00
668.13	437.68
668.27	430.66
668.41	430.66
668.56	393.21
668.70	454.06
668.84	425.98
668.98	423.64
669.12	437.68
669.26	425.98
669.40	386.19
669.54	402.57
669.68	449.38
669.82	409.59
669.96	344.06
670.10	423.64
670.25	470.45
670.39	383.85
670.53	376.83
670.67	407.25
670.81	355.76
670.95	381.51
671.09	425.98
671.23	463.43
671.37	430.66
671.51	367.46
671.65	379.17
671.79	447.04
671.93	402.57
672.07	440.02
672.21	395.55
672.35	409.59
672.49	451.72
672.63	388.53
672.77	461.09
672.91	404.91
673.05	454.06
673.19	451.72
673.33	461.09
673.47	451.72
673.61	433.00
673.75	498.53
673.89	397.89
674.03	386.19
674.17	440.02
674.31	416.62
674.45	498.53
674.59	447.04
674.73	470.45
674.87	423.64
675.01	517.26
675.15	451.72
675.29	465.77
675.43	425.98
675.56	428.32
675.70	430.66
675.84	475.13
675.98	400.23
676.12	393.21
676.26	444.70
676.40	355.76
676.54	372.15
676.68	421.30
676.82	440.02
676.96	416.62
677.10	395.55
677.23	447.04
677.37	414.27
677.51	449.38
677.65	447.04
677.79	407.25
677.93	430.66
678.07	440.02
678.21	362.78
678.34	447.04
678.48	414.27
678.62	414.27
678.76	400.23
678.90	400.23
679.04	472.79
679.18	425.98
679.31	425.98
679.45	411.93
679.59	411.93
679.73	465.77
679.87	362.78
680.00	379.17
680.14	369.80
680.28	355.76
680.42	383.85
680.56	381.51
680.70	348.74
680.83	386.19
680.97	416.62
681.11	393.21
681.25	404.91
681.39	461.09
681.52	407.25
681.66	465.77
681.80	458.74
681.94	383.85
682.07	449.38
682.21	358.10
682.35	301.93
682.49	437.68
682.62	414.27
682.76	423.64
682.90	393.21
683.04	454.06
683.17	456.40
683.31	388.53
683.45	379.17
683.59	477.47
683.72	411.93
683.86	407.25
684.00	411.93
684.13	409.59
684.27	358.10
684.41	433.00
684.55	379.17
684.68	344.06
684.82	374.49
684.96	437.68
685.09	404.91
685.23	381.51
685.37	409.59
685.50	447.04
685.64	400.23
685.78	470.45
685.91	416.62
686.05	423.64
686.19	409.59
686.32	365.12
686.46	367.46
686.60	425.98
686.73	367.46
686.87	374.49
687.01	374.49
687.14	423.64
687.28	407.25
687.42	430.66
687.55	423.64
687.69	428.32
687.82	409.59
687.96	372.15
688.10	393.21
688.23	430.66
688.37	447.04
688.50	348.74
688.64	418.96
688.78	367.46
688.91	500.87
689.05	402.57
689.18	449.38
689.32	470.45
689.46	313.63
689.59	430.66
689.73	456.40
689.86	372.15
690.00	411.93
690.13	402.57
690.27	395.55
690.41	440.02
690.54	353.42
690.68	322.99
690.81	400.23
690.95	348.74
691.08	475.13
691.22	428.32
691.35	381.51
691.49	379.17
691.62	397.89
691.76	381.51
691.89	414.27
692.03	437.68
692.16	407.25
692.30	440.02
692.43	418.96
692.57	414.27
692.70	367.46
692.84	433.00
692.97	374.49
693.11	435.34
693.24	404.91
693.38	430.66
693.51	360.44
693.65	376.83
693.78	358.10
693.92	444.70
694.05	402.57
694.19	383.85
694.32	351.08
694.45	425.98
694.59	421.30
694.72	463.43
694.86	416.62
694.99	451.72
695.13	423.64
695.26	400.23
695.39	365.12
695.53	454.06
695.66	430.66
695.80	397.89
695.93	404.91
696.07	376.83
696.20	404.91
696.33	362.78
696.47	404.91
696.60	393.21
696.73	435.34
696.87	425.98
697.00	486.83
697.14	411.93
697.27	407.25
697.40	514.92
697.54	372.15
697.67	376.83
697.80	416.62
697.94	388.53
698.07	456.40
698.21	458.74
698.34	367.46
698.47	362.78
698.61	390.87
698.74	379.17
698.87	421.30
699.01	393.21
699.14	390.87
699.27	454.06
699.40	482.15
699.54	376.83
699.67	372.15
699.80	397.89
699.94	372.15
700.07	407.25
700.20	393.21
700.34	376.83
700.47	395.55
700.60	390.87
700.73	435.34
700.87	472.79
701.00	376.83
701.13	393.21
701.26	372.15
701.40	454.06
701.53	367.46
701.66	374.49
701.79	381.51
701.93	451.72
702.06	444.70
702.19	428.32
702.32	386.19
702.46	381.51
702.59	442.36
702.72	390.87
702.85	433.00
702.99	454.06
703.12	465.77
703.25	334.70
703.38	397.89
703.51	461.09
703.65	351.08
703.78	425.98
703.91	440.02
704.04	505.56
704.17	451.72
704.31	365.12
704.44	430.66
704.57	411.93
704.70	428.32
704.83	346.40
704.96	421.30
705.10	409.59
705.23	395.55
>>>>>End Processed Spectral Data<<<<<
