SpectraSuite Data File
++++++++++++++++++++++++++++++++++++
Date: Fri Oct 25 12:11:00 EDT 2013
User: price-jones
Dark Spectrum Present: No
Reference Spectrum Present: No
Number of Sampled Component Spectra: 1
Spectrometers: USB2+H05261
Integration Time (usec): 100000 (USB2+H05261)
Spectra Averaged: 1 (USB2+H05261)
Boxcar Smoothing: 0 (USB2+H05261)
Correct for Electrical Dark: No (USB2+H05261)
Strobe/Lamp Enabled: No (USB2+H05261)
Correct for Detector Non-linearity: No (USB2+H05261)
Correct for Stray Light: No (USB2+H05261)
Number of Pixels in Processed Spectrum: 2048
>>>>>Begin Processed Spectral Data<<<<<
365.73	294.91
365.92	294.91
366.12	294.91
366.32	292.57
366.52	229.37
366.72	227.03
366.91	177.88
367.11	210.65
367.31	231.71
367.51	259.80
367.70	255.12
367.90	194.26
368.10	259.80
368.30	191.92
368.49	238.73
368.69	285.55
368.89	250.44
369.09	231.71
369.28	259.80
369.48	238.73
369.68	262.14
369.87	273.84
370.07	262.14
370.27	257.46
370.47	313.63
370.66	325.33
370.86	346.40
371.06	304.27
371.25	435.34
371.45	418.96
371.65	402.57
371.84	374.49
372.04	458.74
372.24	341.72
372.44	433.00
372.63	393.21
372.83	444.70
373.03	376.83
373.22	376.83
373.42	369.80
373.62	330.02
373.81	421.30
374.01	456.40
374.21	470.45
374.40	400.23
374.60	388.53
374.79	407.25
374.99	444.70
375.19	421.30
375.38	461.09
375.58	414.27
375.78	421.30
375.97	470.45
376.17	477.47
376.37	395.55
376.56	411.93
376.76	353.42
376.95	411.93
377.15	386.19
377.35	402.57
377.54	449.38
377.74	341.72
377.93	442.36
378.13	425.98
378.33	447.04
378.52	437.68
378.72	435.34
378.91	393.21
379.11	379.17
379.31	390.87
379.50	416.62
379.70	409.59
379.89	449.38
380.09	449.38
380.28	355.76
380.48	376.83
380.68	388.53
380.87	358.10
381.07	393.21
381.26	376.83
381.46	353.42
381.65	423.64
381.85	425.98
382.04	423.64
382.24	397.89
382.43	486.83
382.63	393.21
382.83	402.57
383.02	442.36
383.22	379.17
383.41	437.68
383.61	433.00
383.80	435.34
384.00	376.83
384.19	414.27
384.39	479.81
384.58	381.51
384.78	433.00
384.97	416.62
385.17	428.32
385.36	404.91
385.56	402.57
385.75	440.02
385.95	374.49
386.14	430.66
386.34	353.42
386.53	390.87
386.72	383.85
386.92	414.27
387.11	402.57
387.31	458.74
387.50	374.49
387.70	353.42
387.89	369.80
388.09	421.30
388.28	383.85
388.48	418.96
388.67	428.32
388.86	332.36
389.06	435.34
389.25	400.23
389.45	404.91
389.64	341.72
389.84	411.93
390.03	433.00
390.22	362.78
390.42	358.10
390.61	348.74
390.81	468.11
391.00	470.45
391.19	489.17
391.39	416.62
391.58	376.83
391.78	428.32
391.97	386.19
392.16	411.93
392.36	402.57
392.55	421.30
392.75	390.87
392.94	393.21
393.13	374.49
393.33	409.59
393.52	435.34
393.71	416.62
393.91	407.25
394.10	477.47
394.29	428.32
394.49	341.72
394.68	362.78
394.88	463.43
395.07	444.70
395.26	489.17
395.46	423.64
395.65	433.00
395.84	414.27
396.04	444.70
396.23	411.93
396.42	351.08
396.62	454.06
396.81	425.98
397.00	411.93
397.19	400.23
397.39	437.68
397.58	535.98
397.77	465.77
397.97	451.72
398.16	386.19
398.35	407.25
398.55	393.21
398.74	369.80
398.93	451.72
399.12	437.68
399.32	360.44
399.51	383.85
399.70	430.66
399.90	341.72
400.09	449.38
400.28	337.04
400.47	388.53
400.67	440.02
400.86	440.02
401.05	362.78
401.24	477.47
401.44	456.40
401.63	376.83
401.82	376.83
402.01	440.02
402.21	447.04
402.40	440.02
402.59	311.29
402.78	369.80
402.97	456.40
403.17	404.91
403.36	444.70
403.55	430.66
403.74	362.78
403.93	470.45
404.13	386.19
404.32	477.47
404.51	465.77
404.70	395.55
404.89	402.57
405.09	454.06
405.28	362.78
405.47	348.74
405.66	435.34
405.85	428.32
406.05	440.02
406.24	355.76
406.43	351.08
406.62	430.66
406.81	414.27
407.00	454.06
407.20	411.93
407.39	388.53
407.58	414.27
407.77	404.91
407.96	498.53
408.15	484.49
408.34	376.83
408.54	437.68
408.73	433.00
408.92	454.06
409.11	376.83
409.30	358.10
409.49	461.09
409.68	372.15
409.87	393.21
410.07	386.19
410.26	400.23
410.45	425.98
410.64	383.85
410.83	435.34
411.02	374.49
411.21	437.68
411.40	428.32
411.59	414.27
411.78	437.68
411.98	425.98
412.17	414.27
412.36	381.51
412.55	397.89
412.74	365.12
412.93	418.96
413.12	411.93
413.31	353.42
413.50	428.32
413.69	442.36
413.88	402.57
414.07	407.25
414.26	468.11
414.45	353.42
414.64	421.30
414.83	411.93
415.02	414.27
415.22	416.62
415.41	435.34
415.60	421.30
415.79	383.85
415.98	465.77
416.17	411.93
416.36	379.17
416.55	383.85
416.74	458.74
416.93	390.87
417.12	423.64
417.31	390.87
417.50	374.49
417.69	418.96
417.88	360.44
418.07	425.98
418.26	348.74
418.45	442.36
418.64	479.81
418.83	365.12
419.02	421.30
419.21	416.62
419.39	358.10
419.58	425.98
419.77	430.66
419.96	404.91
420.15	456.40
420.34	430.66
420.53	440.02
420.72	491.51
420.91	367.46
421.10	416.62
421.29	418.96
421.48	503.22
421.67	388.53
421.86	388.53
422.05	425.98
422.24	425.98
422.43	475.13
422.61	404.91
422.80	393.21
422.99	433.00
423.18	397.89
423.37	383.85
423.56	449.38
423.75	379.17
423.94	390.87
424.13	390.87
424.32	447.04
424.50	395.55
424.69	454.06
424.88	479.81
425.07	397.89
425.26	428.32
425.45	397.89
425.64	360.44
425.83	409.59
426.01	491.51
426.20	442.36
426.39	407.25
426.58	379.17
426.77	362.78
426.96	440.02
427.15	463.43
427.33	437.68
427.52	388.53
427.71	397.89
427.90	444.70
428.09	489.17
428.28	425.98
428.46	428.32
428.65	447.04
428.84	355.76
429.03	503.22
429.22	397.89
429.40	365.12
429.59	428.32
429.78	425.98
429.97	454.06
430.16	423.64
430.34	362.78
430.53	388.53
430.72	411.93
430.91	402.57
431.10	411.93
431.28	407.25
431.47	362.78
431.66	421.30
431.85	360.44
432.03	365.12
432.22	484.49
432.41	339.38
432.60	458.74
432.79	468.11
432.97	395.55
433.16	428.32
433.35	341.72
433.54	390.87
433.72	463.43
433.91	425.98
434.10	411.93
434.28	428.32
434.47	409.59
434.66	388.53
434.85	395.55
435.03	468.11
435.22	374.49
435.41	414.27
435.59	388.53
435.78	395.55
435.97	397.89
436.16	388.53
436.34	437.68
436.53	397.89
436.72	358.10
436.90	458.74
437.09	367.46
437.28	407.25
437.46	388.53
437.65	386.19
437.84	414.27
438.02	411.93
438.21	440.02
438.40	493.85
438.58	346.40
438.77	423.64
438.96	409.59
439.14	374.49
439.33	496.19
439.52	318.31
439.70	430.66
439.89	433.00
440.08	440.02
440.26	411.93
440.45	447.04
440.63	444.70
440.82	430.66
441.01	353.42
441.19	425.98
441.38	358.10
441.57	423.64
441.75	486.83
441.94	404.91
442.12	411.93
442.31	348.74
442.50	447.04
442.68	362.78
442.87	416.62
443.05	400.23
443.24	355.76
443.43	372.15
443.61	475.13
443.80	444.70
443.98	465.77
444.17	372.15
444.35	344.06
444.54	435.34
444.73	360.44
444.91	463.43
445.10	416.62
445.28	383.85
445.47	444.70
445.65	383.85
445.84	400.23
446.02	383.85
446.21	355.76
446.39	454.06
446.58	465.77
446.77	465.77
446.95	442.36
447.14	491.51
447.32	463.43
447.51	423.64
447.69	505.56
447.88	407.25
448.06	423.64
448.25	407.25
448.43	390.87
448.62	393.21
448.80	458.74
448.99	397.89
449.17	430.66
449.36	393.21
449.54	414.27
449.73	388.53
449.91	470.45
450.10	402.57
450.28	475.13
450.46	423.64
450.65	376.83
450.83	507.90
451.02	372.15
451.20	440.02
451.39	386.19
451.57	444.70
451.76	386.19
451.94	418.96
452.13	348.74
452.31	397.89
452.49	397.89
452.68	395.55
452.86	411.93
453.05	442.36
453.23	437.68
453.42	379.17
453.60	465.77
453.78	414.27
453.97	395.55
454.15	409.59
454.34	381.51
454.52	407.25
454.70	421.30
454.89	421.30
455.07	447.04
455.26	423.64
455.44	416.62
455.62	374.49
455.81	402.57
455.99	339.38
456.17	479.81
456.36	437.68
456.54	437.68
456.73	458.74
456.91	400.23
457.09	388.53
457.28	379.17
457.46	365.12
457.64	430.66
457.83	376.83
458.01	425.98
458.19	433.00
458.38	442.36
458.56	416.62
458.74	362.78
458.93	360.44
459.11	344.06
459.29	393.21
459.48	505.56
459.66	430.66
459.84	437.68
460.03	482.15
460.21	482.15
460.39	442.36
460.57	411.93
460.76	442.36
460.94	425.98
461.12	451.72
461.31	463.43
461.49	390.87
461.67	386.19
461.85	320.65
462.04	404.91
462.22	514.92
462.40	433.00
462.59	472.79
462.77	449.38
462.95	421.30
463.13	409.59
463.32	393.21
463.50	449.38
463.68	367.46
463.86	372.15
464.05	458.74
464.23	477.47
464.41	458.74
464.59	386.19
464.78	444.70
464.96	325.33
465.14	442.36
465.32	376.83
465.50	423.64
465.69	440.02
465.87	437.68
466.05	517.26
466.23	404.91
466.41	423.64
466.60	404.91
466.78	447.04
466.96	390.87
467.14	451.72
467.32	341.72
467.51	407.25
467.69	418.96
467.87	362.78
468.05	353.42
468.23	451.72
468.41	362.78
468.60	421.30
468.78	475.13
468.96	472.79
469.14	416.62
469.32	365.12
469.50	402.57
469.69	470.45
469.87	374.49
470.05	479.81
470.23	367.46
470.41	430.66
470.59	400.23
470.77	421.30
470.95	381.51
471.14	512.58
471.32	397.89
471.50	418.96
471.68	411.93
471.86	479.81
472.04	386.19
472.22	444.70
472.40	428.32
472.58	447.04
472.77	404.91
472.95	430.66
473.13	402.57
473.31	416.62
473.49	400.23
473.67	341.72
473.85	447.04
474.03	458.74
474.21	400.23
474.39	442.36
474.57	423.64
474.75	433.00
474.93	447.04
475.12	379.17
475.30	409.59
475.48	409.59
475.66	390.87
475.84	423.64
476.02	376.83
476.20	461.09
476.38	440.02
476.56	397.89
476.74	381.51
476.92	421.30
477.10	477.47
477.28	423.64
477.46	423.64
477.64	430.66
477.82	444.70
478.00	409.59
478.18	475.13
478.36	376.83
478.54	414.27
478.72	397.89
478.90	449.38
479.08	365.12
479.26	451.72
479.44	423.64
479.62	315.97
479.80	409.59
479.98	435.34
480.16	442.36
480.34	449.38
480.52	416.62
480.70	393.21
480.88	372.15
481.06	374.49
481.24	500.87
481.41	451.72
481.59	430.66
481.77	383.85
481.95	400.23
482.13	489.17
482.31	383.85
482.49	430.66
482.67	428.32
482.85	369.80
483.03	332.36
483.21	376.83
483.39	362.78
483.57	358.10
483.74	470.45
483.92	390.87
484.10	421.30
484.28	437.68
484.46	458.74
484.64	404.91
484.82	395.55
485.00	416.62
485.18	468.11
485.35	400.23
485.53	339.38
485.71	442.36
485.89	397.89
486.07	355.76
486.25	437.68
486.43	475.13
486.61	397.89
486.78	428.32
486.96	393.21
487.14	400.23
487.32	372.15
487.50	393.21
487.68	381.51
487.85	348.74
488.03	409.59
488.21	400.23
488.39	386.19
488.57	393.21
488.75	374.49
488.92	479.81
489.10	421.30
489.28	479.81
489.46	400.23
489.64	346.40
489.81	463.43
489.99	411.93
490.17	444.70
490.35	517.26
490.53	421.30
490.70	332.36
490.88	437.68
491.06	379.17
491.24	383.85
491.41	414.27
491.59	418.96
491.77	395.55
491.95	374.49
492.13	454.06
492.30	390.87
492.48	397.89
492.66	322.99
492.84	430.66
493.01	447.04
493.19	397.89
493.37	409.59
493.54	468.11
493.72	435.34
493.90	433.00
494.08	386.19
494.25	433.00
494.43	416.62
494.61	407.25
494.79	367.46
494.96	505.56
495.14	395.55
495.32	386.19
495.49	407.25
495.67	454.06
495.85	416.62
496.02	416.62
496.20	404.91
496.38	411.93
496.55	451.72
496.73	365.12
496.91	437.68
497.09	388.53
497.26	362.78
497.44	456.40
497.62	449.38
497.79	433.00
497.97	418.96
498.14	409.59
498.32	381.51
498.50	404.91
498.67	451.72
498.85	351.08
499.03	416.62
499.20	440.02
499.38	454.06
499.56	430.66
499.73	456.40
499.91	372.15
500.08	402.57
500.26	447.04
500.44	447.04
500.61	421.30
500.79	428.32
500.97	465.77
501.14	400.23
501.32	400.23
501.49	400.23
501.67	440.02
501.84	411.93
502.02	381.51
502.20	428.32
502.37	393.21
502.55	400.23
502.72	395.55
502.90	442.36
503.07	409.59
503.25	351.08
503.43	388.53
503.60	355.76
503.78	395.55
503.95	409.59
504.13	395.55
504.30	397.89
504.48	465.77
504.65	475.13
504.83	402.57
505.01	386.19
505.18	435.34
505.36	395.55
505.53	379.17
505.71	374.49
505.88	475.13
506.06	414.27
506.23	381.51
506.41	437.68
506.58	397.89
506.76	440.02
506.93	388.53
507.11	407.25
507.28	388.53
507.46	381.51
507.63	423.64
507.81	351.08
507.98	437.68
508.16	374.49
508.33	425.98
508.50	376.83
508.68	407.25
508.85	395.55
509.03	425.98
509.20	437.68
509.38	418.96
509.55	409.59
509.73	477.47
509.90	390.87
510.08	404.91
510.25	421.30
510.42	395.55
510.60	423.64
510.77	388.53
510.95	465.77
511.12	411.93
511.30	409.59
511.47	472.79
511.64	425.98
511.82	402.57
511.99	346.40
512.17	381.51
512.34	402.57
512.51	421.30
512.69	423.64
512.86	442.36
513.04	425.98
513.21	386.19
513.38	416.62
513.56	362.78
513.73	465.77
513.90	454.06
514.08	409.59
514.25	367.46
514.43	433.00
514.60	458.74
514.77	423.64
514.95	383.85
515.12	442.36
515.29	440.02
515.47	383.85
515.64	402.57
515.81	400.23
515.99	411.93
516.16	428.32
516.33	409.59
516.51	435.34
516.68	418.96
516.85	411.93
517.03	362.78
517.20	374.49
517.37	498.53
517.54	428.32
517.72	503.22
517.89	447.04
518.06	423.64
518.24	521.94
518.41	442.36
518.58	456.40
518.75	369.80
518.93	489.17
519.10	381.51
519.27	409.59
519.45	388.53
519.62	437.68
519.79	397.89
519.96	376.83
520.14	461.09
520.31	421.30
520.48	400.23
520.65	411.93
520.83	428.32
521.00	440.02
521.17	416.62
521.34	421.30
521.52	409.59
521.69	400.23
521.86	383.85
522.03	383.85
522.20	463.43
522.38	411.93
522.55	400.23
522.72	383.85
522.89	435.34
523.07	402.57
523.24	379.17
523.41	423.64
523.58	407.25
523.75	374.49
523.92	346.40
524.10	386.19
524.27	428.32
524.44	407.25
524.61	437.68
524.78	425.98
524.96	416.62
525.13	386.19
525.30	388.53
525.47	402.57
525.64	451.72
525.81	383.85
525.98	472.79
526.16	437.68
526.33	383.85
526.50	423.64
526.67	409.59
526.84	470.45
527.01	435.34
527.18	409.59
527.36	423.64
527.53	374.49
527.70	458.74
527.87	400.23
528.04	425.98
528.21	409.59
528.38	447.04
528.55	454.06
528.72	390.87
528.89	470.45
529.07	470.45
529.24	437.68
529.41	484.49
529.58	425.98
529.75	440.02
529.92	393.21
530.09	428.32
530.26	451.72
530.43	367.46
530.60	390.87
530.77	369.80
530.94	444.70
531.11	360.44
531.28	430.66
531.46	367.46
531.63	430.66
531.80	414.27
531.97	449.38
532.14	390.87
532.31	418.96
532.48	458.74
532.65	339.38
532.82	421.30
532.99	421.30
533.16	477.47
533.33	416.62
533.50	407.25
533.67	400.23
533.84	430.66
534.01	458.74
534.18	442.36
534.35	400.23
534.52	376.83
534.69	468.11
534.86	411.93
535.03	444.70
535.20	381.51
535.37	418.96
535.54	435.34
535.71	397.89
535.88	437.68
536.05	374.49
536.22	421.30
536.38	435.34
536.55	390.87
536.72	433.00
536.89	484.49
537.06	390.87
537.23	379.17
537.40	388.53
537.57	468.11
537.74	470.45
537.91	491.51
538.08	407.25
538.25	454.06
538.42	433.00
538.59	444.70
538.75	418.96
538.92	327.68
539.09	470.45
539.26	407.25
539.43	449.38
539.60	369.80
539.77	451.72
539.94	409.59
540.11	423.64
540.28	435.34
540.44	454.06
540.61	437.68
540.78	390.87
540.95	334.70
541.12	423.64
541.29	395.55
541.46	411.93
541.62	479.81
541.79	369.80
541.96	397.89
542.13	409.59
542.30	390.87
542.47	444.70
542.63	433.00
542.80	454.06
542.97	449.38
543.14	404.91
543.31	477.47
543.48	400.23
543.64	409.59
543.81	428.32
543.98	369.80
544.15	409.59
544.32	433.00
544.48	440.02
544.65	451.72
544.82	416.62
544.99	397.89
545.16	484.49
545.32	395.55
545.49	435.34
545.66	367.46
545.83	421.30
546.00	351.08
546.16	447.04
546.33	367.46
546.50	346.40
546.67	437.68
546.83	437.68
547.00	430.66
547.17	461.09
547.34	376.83
547.50	477.47
547.67	425.98
547.84	393.21
548.00	517.26
548.17	376.83
548.34	425.98
548.51	386.19
548.67	365.12
548.84	358.10
549.01	447.04
549.18	414.27
549.34	475.13
549.51	463.43
549.68	475.13
549.84	390.87
550.01	468.11
550.18	512.58
550.34	489.17
550.51	395.55
550.68	390.87
550.84	437.68
551.01	367.46
551.18	374.49
551.34	372.15
551.51	409.59
551.68	416.62
551.84	456.40
552.01	437.68
552.18	421.30
552.34	411.93
552.51	440.02
552.68	454.06
552.84	397.89
553.01	454.06
553.18	503.22
553.34	435.34
553.51	414.27
553.67	430.66
553.84	465.77
554.01	491.51
554.17	400.23
554.34	416.62
554.51	447.04
554.67	451.72
554.84	395.55
555.00	418.96
555.17	449.38
555.33	418.96
555.50	479.81
555.67	351.08
555.83	332.36
556.00	402.57
556.16	526.62
556.33	489.17
556.50	376.83
556.66	409.59
556.83	437.68
556.99	428.32
557.16	430.66
557.32	351.08
557.49	365.12
557.65	404.91
557.82	348.74
557.98	404.91
558.15	367.46
558.32	449.38
558.48	463.43
558.65	376.83
558.81	451.72
558.98	440.02
559.14	423.64
559.31	423.64
559.47	463.43
559.64	451.72
559.80	409.59
559.97	383.85
560.13	386.19
560.30	449.38
560.46	430.66
560.63	430.66
560.79	493.85
560.96	416.62
561.12	428.32
561.29	479.81
561.45	390.87
561.61	444.70
561.78	477.47
561.94	411.93
562.11	376.83
562.27	454.06
562.44	367.46
562.60	418.96
562.77	416.62
562.93	454.06
563.10	344.06
563.26	341.72
563.42	454.06
563.59	386.19
563.75	430.66
563.92	407.25
564.08	407.25
564.24	470.45
564.41	416.62
564.57	346.40
564.74	388.53
564.90	414.27
565.07	416.62
565.23	379.17
565.39	388.53
565.56	358.10
565.72	430.66
565.88	393.21
566.05	358.10
566.21	407.25
566.38	421.30
566.54	433.00
566.70	376.83
566.87	360.44
567.03	437.68
567.19	327.68
567.36	397.89
567.52	425.98
567.68	409.59
567.85	374.49
568.01	388.53
568.17	386.19
568.34	372.15
568.50	461.09
568.66	461.09
568.83	475.13
568.99	407.25
569.15	411.93
569.32	407.25
569.48	362.78
569.64	442.36
569.81	500.87
569.97	442.36
570.13	428.32
570.30	418.96
570.46	381.51
570.62	414.27
570.78	418.96
570.95	442.36
571.11	428.32
571.27	376.83
571.43	386.19
571.60	414.27
571.76	365.12
571.92	433.00
572.09	381.51
572.25	411.93
572.41	379.17
572.57	433.00
572.74	390.87
572.90	428.32
573.06	458.74
573.22	444.70
573.38	454.06
573.55	454.06
573.71	365.12
573.87	461.09
574.03	458.74
574.20	372.15
574.36	372.15
574.52	337.04
574.68	397.89
574.84	397.89
575.01	372.15
575.17	421.30
575.33	451.72
575.49	440.02
575.65	475.13
575.82	458.74
575.98	433.00
576.14	386.19
576.30	393.21
576.46	372.15
576.62	458.74
576.79	430.66
576.95	409.59
577.11	376.83
577.27	386.19
577.43	411.93
577.59	463.43
577.75	407.25
577.92	484.49
578.08	404.91
578.24	376.83
578.40	407.25
578.56	500.87
578.72	395.55
578.88	409.59
579.04	440.02
579.21	428.32
579.37	376.83
579.53	358.10
579.69	383.85
579.85	451.72
580.01	491.51
580.17	358.10
580.33	409.59
580.49	425.98
580.65	428.32
580.82	435.34
580.98	402.57
581.14	362.78
581.30	372.15
581.46	435.34
581.62	428.32
581.78	458.74
581.94	433.00
582.10	411.93
582.26	454.06
582.42	369.80
582.58	447.04
582.74	393.21
582.90	444.70
583.06	379.17
583.22	433.00
583.38	374.49
583.54	395.55
583.70	407.25
583.86	400.23
584.02	404.91
584.18	381.51
584.34	400.23
584.50	400.23
584.66	449.38
584.82	442.36
584.98	402.57
585.14	423.64
585.30	430.66
585.46	454.06
585.62	376.83
585.78	423.64
585.94	425.98
586.10	463.43
586.26	421.30
586.42	447.04
586.58	447.04
586.74	447.04
586.90	465.77
587.06	400.23
587.22	479.81
587.38	430.66
587.54	400.23
587.70	416.62
587.86	491.51
588.02	348.74
588.18	407.25
588.34	430.66
588.49	355.76
588.65	428.32
588.81	414.27
588.97	435.34
589.13	409.59
589.29	416.62
589.45	503.22
589.61	526.62
589.77	451.72
589.93	332.36
590.08	418.96
590.24	435.34
590.40	449.38
590.56	463.43
590.72	430.66
590.88	379.17
591.04	454.06
591.20	465.77
591.35	447.04
591.51	395.55
591.67	409.59
591.83	423.64
591.99	393.21
592.15	372.15
592.31	416.62
592.46	421.30
592.62	435.34
592.78	407.25
592.94	449.38
593.10	407.25
593.26	437.68
593.41	444.70
593.57	433.00
593.73	397.89
593.89	402.57
594.05	402.57
594.20	376.83
594.36	444.70
594.52	407.25
594.68	418.96
594.84	416.62
594.99	477.47
595.15	430.66
595.31	400.23
595.47	440.02
595.62	404.91
595.78	447.04
595.94	493.85
596.10	407.25
596.25	407.25
596.41	425.98
596.57	465.77
596.73	433.00
596.88	407.25
597.04	395.55
597.20	402.57
597.36	376.83
597.51	397.89
597.67	393.21
597.83	442.36
597.99	425.98
598.14	437.68
598.30	454.06
598.46	477.47
598.61	425.98
598.77	411.93
598.93	318.31
599.09	362.78
599.24	428.32
599.40	376.83
599.56	402.57
599.71	400.23
599.87	435.34
600.03	442.36
600.18	456.40
600.34	334.70
600.50	458.74
600.65	390.87
600.81	383.85
600.97	416.62
601.12	397.89
601.28	423.64
601.44	395.55
601.59	400.23
601.75	400.23
601.91	442.36
602.06	470.45
602.22	482.15
602.37	379.17
602.53	461.09
602.69	433.00
602.84	393.21
603.00	381.51
603.16	454.06
603.31	402.57
603.47	442.36
603.62	416.62
603.78	344.06
603.94	468.11
604.09	353.42
604.25	414.27
604.40	409.59
604.56	360.44
604.71	437.68
604.87	479.81
605.03	414.27
605.18	369.80
605.34	400.23
605.49	381.51
605.65	433.00
605.80	395.55
605.96	397.89
606.12	362.78
606.27	402.57
606.43	468.11
606.58	416.62
606.74	447.04
606.89	393.21
607.05	437.68
607.20	482.15
607.36	407.25
607.51	465.77
607.67	386.19
607.82	437.68
607.98	433.00
608.13	397.89
608.29	318.31
608.44	418.96
608.60	369.80
608.75	355.76
608.91	390.87
609.06	418.96
609.22	423.64
609.37	346.40
609.53	355.76
609.68	358.10
609.84	465.77
609.99	390.87
610.15	500.87
610.30	475.13
610.46	447.04
610.61	447.04
610.76	421.30
610.92	409.59
611.07	404.91
611.23	369.80
611.38	437.68
611.54	404.91
611.69	416.62
611.84	376.83
612.00	421.30
612.15	404.91
612.31	416.62
612.46	416.62
612.62	367.46
612.77	414.27
612.92	383.85
613.08	402.57
613.23	463.43
613.39	418.96
613.54	409.59
613.69	409.59
613.85	358.10
614.00	458.74
614.15	421.30
614.31	376.83
614.46	402.57
614.62	402.57
614.77	362.78
614.92	393.21
615.08	451.72
615.23	458.74
615.38	358.10
615.54	407.25
615.69	442.36
615.84	374.49
616.00	423.64
616.15	449.38
616.30	484.49
616.46	435.34
616.61	411.93
616.76	416.62
616.92	388.53
617.07	425.98
617.22	379.17
617.37	397.89
617.53	440.02
617.68	374.49
617.83	416.62
617.99	411.93
618.14	444.70
618.29	421.30
618.45	367.46
618.60	425.98
618.75	421.30
618.90	351.08
619.06	386.19
619.21	454.06
619.36	395.55
619.51	353.42
619.67	379.17
619.82	369.80
619.97	437.68
620.12	372.15
620.28	369.80
620.43	421.30
620.58	416.62
620.73	418.96
620.89	409.59
621.04	372.15
621.19	386.19
621.34	425.98
621.49	346.40
621.65	421.30
621.80	407.25
621.95	430.66
622.10	423.64
622.25	353.42
622.41	315.97
622.56	496.19
622.71	411.93
622.86	425.98
623.01	386.19
623.16	454.06
623.32	421.30
623.47	397.89
623.62	531.30
623.77	425.98
623.92	416.62
624.07	482.15
624.23	367.46
624.38	407.25
624.53	404.91
624.68	454.06
624.83	449.38
624.98	454.06
625.13	440.02
625.29	395.55
625.44	477.47
625.59	428.32
625.74	388.53
625.89	365.12
626.04	414.27
626.19	404.91
626.34	409.59
626.49	395.55
626.65	416.62
626.80	421.30
626.95	454.06
627.10	390.87
627.25	470.45
627.40	435.34
627.55	472.79
627.70	409.59
627.85	409.59
628.00	411.93
628.15	411.93
628.30	393.21
628.45	365.12
628.60	376.83
628.76	360.44
628.91	475.13
629.06	491.51
629.21	395.55
629.36	435.34
629.51	411.93
629.66	390.87
629.81	433.00
629.96	374.49
630.11	465.77
630.26	358.10
630.41	360.44
630.56	400.23
630.71	383.85
630.86	351.08
631.01	395.55
631.16	404.91
631.31	447.04
631.46	402.57
631.61	479.81
631.76	472.79
631.91	386.19
632.06	470.45
632.21	421.30
632.36	470.45
632.51	376.83
632.66	416.62
632.81	437.68
632.96	465.77
633.10	390.87
633.25	386.19
633.40	456.40
633.55	512.58
633.70	393.21
633.85	374.49
634.00	411.93
634.15	337.04
634.30	421.30
634.45	379.17
634.60	322.99
634.75	355.76
634.90	379.17
635.05	346.40
635.19	367.46
635.34	411.93
635.49	383.85
635.64	411.93
635.79	388.53
635.94	395.55
636.09	418.96
636.24	463.43
636.39	395.55
636.53	433.00
636.68	447.04
636.83	414.27
636.98	465.77
637.13	440.02
637.28	428.32
637.43	402.57
637.57	381.51
637.72	388.53
637.87	456.40
638.02	397.89
638.17	376.83
638.32	414.27
638.46	400.23
638.61	358.10
638.76	397.89
638.91	489.17
639.06	409.59
639.20	418.96
639.35	454.06
639.50	458.74
639.65	465.77
639.80	512.58
639.94	512.58
640.09	437.68
640.24	414.27
640.39	479.81
640.54	430.66
640.68	416.62
640.83	423.64
640.98	411.93
641.13	358.10
641.27	379.17
641.42	372.15
641.57	353.42
641.72	402.57
641.86	409.59
642.01	383.85
642.16	447.04
642.31	447.04
642.45	472.79
642.60	381.51
642.75	416.62
642.90	411.93
643.04	365.12
643.19	465.77
643.34	433.00
643.48	423.64
643.63	411.93
643.78	468.11
643.93	454.06
644.07	322.99
644.22	397.89
644.37	362.78
644.51	447.04
644.66	390.87
644.81	440.02
644.95	425.98
645.10	353.42
645.25	402.57
645.39	428.32
645.54	402.57
645.69	449.38
645.83	435.34
645.98	449.38
646.13	428.32
646.27	437.68
646.42	444.70
646.57	402.57
646.71	414.27
646.86	372.15
647.00	423.64
647.15	395.55
647.30	332.36
647.44	472.79
647.59	388.53
647.74	465.77
647.88	423.64
648.03	468.11
648.17	425.98
648.32	442.36
648.47	428.32
648.61	416.62
648.76	442.36
648.90	423.64
649.05	379.17
649.20	407.25
649.34	388.53
649.49	454.06
649.63	395.55
649.78	437.68
649.92	451.72
650.07	411.93
650.21	430.66
650.36	393.21
650.51	386.19
650.65	407.25
650.80	433.00
650.94	393.21
651.09	435.34
651.23	393.21
651.38	442.36
651.52	447.04
651.67	414.27
651.81	365.12
651.96	390.87
652.10	496.19
652.25	414.27
652.39	456.40
652.54	416.62
652.68	386.19
652.83	437.68
652.97	423.64
653.12	402.57
653.26	372.15
653.41	433.00
653.55	470.45
653.70	414.27
653.84	409.59
653.99	315.97
654.13	379.17
654.27	416.62
654.42	402.57
654.56	395.55
654.71	442.36
654.85	414.27
655.00	477.47
655.14	463.43
655.29	355.76
655.43	374.49
655.57	486.83
655.72	397.89
655.86	416.62
656.01	409.59
656.15	390.87
656.30	477.47
656.44	458.74
656.58	353.42
656.73	458.74
656.87	437.68
657.01	379.17
657.16	430.66
657.30	423.64
657.45	411.93
657.59	407.25
657.73	435.34
657.88	435.34
658.02	383.85
658.16	425.98
658.31	367.46
658.45	409.59
658.60	306.61
658.74	376.83
658.88	435.34
659.03	442.36
659.17	400.23
659.31	463.43
659.46	369.80
659.60	423.64
659.74	430.66
659.89	379.17
660.03	416.62
660.17	423.64
660.32	440.02
660.46	458.74
660.60	416.62
660.74	404.91
660.89	367.46
661.03	400.23
661.17	477.47
661.32	409.59
661.46	360.44
661.60	360.44
661.74	376.83
661.89	425.98
662.03	449.38
662.17	372.15
662.31	435.34
662.46	433.00
662.60	383.85
662.74	430.66
662.88	461.09
663.03	372.15
663.17	484.49
663.31	428.32
663.45	372.15
663.60	447.04
663.74	416.62
663.88	486.83
664.02	376.83
664.17	416.62
664.31	379.17
664.45	411.93
664.59	355.76
664.73	489.17
664.88	425.98
665.02	379.17
665.16	372.15
665.30	416.62
665.44	449.38
665.59	383.85
665.73	440.02
665.87	442.36
666.01	423.64
666.15	374.49
666.29	362.78
666.44	411.93
666.58	510.24
666.72	386.19
666.86	353.42
667.00	383.85
667.14	390.87
667.28	418.96
667.43	433.00
667.57	360.44
667.71	437.68
667.85	493.85
667.99	411.93
668.13	374.49
668.27	444.70
668.41	404.91
668.56	341.72
668.70	465.77
668.84	430.66
668.98	449.38
669.12	402.57
669.26	383.85
669.40	437.68
669.54	407.25
669.68	435.34
669.82	435.34
669.96	360.44
670.10	454.06
670.25	404.91
670.39	454.06
670.53	411.93
670.67	444.70
670.81	388.53
670.95	468.11
671.09	337.04
671.23	447.04
671.37	465.77
671.51	461.09
671.65	465.77
671.79	440.02
671.93	433.00
672.07	468.11
672.21	418.96
672.35	440.02
672.49	461.09
672.63	421.30
672.77	449.38
672.91	381.51
673.05	430.66
673.19	414.27
673.33	397.89
673.47	463.43
673.61	386.19
673.75	346.40
673.89	423.64
674.03	447.04
674.17	411.93
674.31	344.06
674.45	421.30
674.59	458.74
674.73	468.11
674.87	468.11
675.01	463.43
675.15	397.89
675.29	463.43
675.43	362.78
675.56	468.11
675.70	484.49
675.84	388.53
675.98	440.02
676.12	416.62
676.26	395.55
676.40	379.17
676.54	451.72
676.68	428.32
676.82	315.97
676.96	388.53
677.10	393.21
677.23	383.85
677.37	418.96
677.51	433.00
677.65	440.02
677.79	447.04
677.93	395.55
678.07	348.74
678.21	386.19
678.34	430.66
678.48	428.32
678.62	369.80
678.76	400.23
678.90	369.80
679.04	430.66
679.18	397.89
679.31	407.25
679.45	393.21
679.59	372.15
679.73	360.44
679.87	376.83
680.00	418.96
680.14	386.19
680.28	379.17
680.42	390.87
680.56	435.34
680.70	374.49
680.83	393.21
680.97	404.91
681.11	400.23
681.25	461.09
681.39	416.62
681.52	435.34
681.66	400.23
681.80	442.36
681.94	337.04
682.07	435.34
682.21	411.93
682.35	430.66
682.49	376.83
682.62	428.32
682.76	320.65
682.90	386.19
683.04	365.12
683.17	430.66
683.31	411.93
683.45	444.70
683.59	407.25
683.72	423.64
683.86	440.02
684.00	383.85
684.13	390.87
684.27	440.02
684.41	430.66
684.55	461.09
684.68	383.85
684.82	374.49
684.96	428.32
685.09	411.93
685.23	400.23
685.37	458.74
685.50	416.62
685.64	430.66
685.78	395.55
685.91	486.83
686.05	390.87
686.19	416.62
686.32	484.49
686.46	440.02
686.60	330.02
686.73	465.77
686.87	500.87
687.01	381.51
687.14	430.66
687.28	444.70
687.42	463.43
687.55	372.15
687.69	430.66
687.82	383.85
687.96	411.93
688.10	444.70
688.23	379.17
688.37	472.79
688.50	416.62
688.64	437.68
688.78	400.23
688.91	425.98
689.05	456.40
689.18	362.78
689.32	351.08
689.46	411.93
689.59	442.36
689.73	470.45
689.86	341.72
690.00	433.00
690.13	400.23
690.27	402.57
690.41	407.25
690.54	423.64
690.68	425.98
690.81	369.80
690.95	458.74
691.08	402.57
691.22	423.64
691.35	360.44
691.49	404.91
691.62	409.59
691.76	458.74
691.89	362.78
692.03	444.70
692.16	433.00
692.30	383.85
692.43	383.85
692.57	458.74
692.70	421.30
692.84	358.10
692.97	404.91
693.11	390.87
693.24	376.83
693.38	409.59
693.51	383.85
693.65	430.66
693.78	461.09
693.92	451.72
694.05	435.34
694.19	379.17
694.32	416.62
694.45	421.30
694.59	463.43
694.72	437.68
694.86	409.59
694.99	390.87
695.13	433.00
695.26	404.91
695.39	430.66
695.53	545.34
695.66	397.89
695.80	425.98
695.93	444.70
696.07	433.00
696.20	414.27
696.33	414.27
696.47	435.34
696.60	367.46
696.73	388.53
696.87	386.19
697.00	454.06
697.14	409.59
697.27	411.93
697.40	507.90
697.54	461.09
697.67	397.89
697.80	486.83
697.94	463.43
698.07	390.87
698.21	341.72
698.34	440.02
698.47	416.62
698.61	440.02
698.74	404.91
698.87	437.68
699.01	383.85
699.14	393.21
699.27	416.62
699.40	531.30
699.54	404.91
699.67	365.12
699.80	407.25
699.94	355.76
700.07	416.62
700.20	379.17
700.34	414.27
700.47	330.02
700.60	493.85
700.73	280.86
700.87	440.02
701.00	433.00
701.13	470.45
701.26	407.25
701.40	407.25
701.53	374.49
701.66	400.23
701.79	414.27
701.93	454.06
702.06	503.22
702.19	435.34
702.32	447.04
702.46	411.93
702.59	397.89
702.72	339.38
702.85	390.87
702.99	428.32
703.12	479.81
703.25	430.66
703.38	360.44
703.51	381.51
703.65	433.00
703.78	346.40
703.91	388.53
704.04	461.09
704.17	430.66
704.31	442.36
704.44	390.87
704.57	440.02
704.70	388.53
704.83	390.87
704.96	416.62
705.10	402.57
705.23	379.17
>>>>>End Processed Spectral Data<<<<<
