SpectraSuite Data File
++++++++++++++++++++++++++++++++++++
Date: Fri Oct 25 12:10:56 EDT 2013
User: price-jones
Dark Spectrum Present: No
Reference Spectrum Present: No
Number of Sampled Component Spectra: 1
Spectrometers: USB2+H05261
Integration Time (usec): 100000 (USB2+H05261)
Spectra Averaged: 1 (USB2+H05261)
Boxcar Smoothing: 0 (USB2+H05261)
Correct for Electrical Dark: No (USB2+H05261)
Strobe/Lamp Enabled: No (USB2+H05261)
Correct for Detector Non-linearity: No (USB2+H05261)
Correct for Stray Light: No (USB2+H05261)
Number of Pixels in Processed Spectrum: 2048
>>>>>Begin Processed Spectral Data<<<<<
365.73	360.44
365.92	360.44
366.12	360.44
366.32	294.91
366.52	112.35
366.72	276.18
366.91	250.44
367.11	175.54
367.31	203.63
367.51	290.23
367.70	252.78
367.90	194.26
368.10	203.63
368.30	184.90
368.49	205.97
368.69	224.69
368.89	231.71
369.09	297.25
369.28	266.82
369.48	222.35
369.68	285.55
369.87	311.29
370.07	301.93
370.27	318.31
370.47	313.63
370.66	330.02
370.86	315.97
371.06	365.12
371.25	358.10
371.45	287.89
371.65	440.02
371.84	372.15
372.04	423.64
372.24	404.91
372.44	400.23
372.63	430.66
372.83	444.70
373.03	374.49
373.22	428.32
373.42	421.30
373.62	444.70
373.81	418.96
374.01	514.92
374.21	465.77
374.40	395.55
374.60	393.21
374.79	348.74
374.99	435.34
375.19	404.91
375.38	470.45
375.58	465.77
375.78	390.87
375.97	468.11
376.17	388.53
376.37	367.46
376.56	425.98
376.76	404.91
376.95	456.40
377.15	416.62
377.35	372.15
377.54	423.64
377.74	344.06
377.93	456.40
378.13	395.55
378.33	322.99
378.52	355.76
378.72	472.79
378.91	334.70
379.11	397.89
379.31	468.11
379.50	402.57
379.70	393.21
379.89	468.11
380.09	421.30
380.28	344.06
380.48	433.00
380.68	355.76
380.87	430.66
381.07	400.23
381.26	397.89
381.46	344.06
381.65	369.80
381.85	358.10
382.04	416.62
382.24	449.38
382.43	365.12
382.63	264.48
382.83	458.74
383.02	418.96
383.22	456.40
383.41	348.74
383.61	388.53
383.80	395.55
384.00	388.53
384.19	395.55
384.39	376.83
384.58	362.78
384.78	402.57
384.97	393.21
385.17	322.99
385.36	381.51
385.56	372.15
385.75	353.42
385.95	430.66
386.14	407.25
386.34	454.06
386.53	468.11
386.72	421.30
386.92	433.00
387.11	402.57
387.31	404.91
387.50	362.78
387.70	433.00
387.89	433.00
388.09	407.25
388.28	320.65
388.48	369.80
388.67	407.25
388.86	447.04
389.06	465.77
389.25	421.30
389.45	496.19
389.64	383.85
389.84	437.68
390.03	519.60
390.22	353.42
390.42	330.02
390.61	430.66
390.81	414.27
391.00	477.47
391.19	454.06
391.39	383.85
391.58	416.62
391.78	414.27
391.97	414.27
392.16	458.74
392.36	456.40
392.55	367.46
392.75	423.64
392.94	348.74
393.13	407.25
393.33	404.91
393.52	409.59
393.71	484.49
393.91	395.55
394.10	402.57
394.29	344.06
394.49	397.89
394.68	437.68
394.88	451.72
395.07	475.13
395.26	388.53
395.46	353.42
395.65	423.64
395.84	465.77
396.04	458.74
396.23	421.30
396.42	379.17
396.62	479.81
396.81	458.74
397.00	430.66
397.19	376.83
397.39	341.72
397.58	402.57
397.77	449.38
397.97	388.53
398.16	381.51
398.35	393.21
398.55	386.19
398.74	315.97
398.93	397.89
399.12	376.83
399.32	341.72
399.51	390.87
399.70	428.32
399.90	388.53
400.09	381.51
400.28	449.38
400.47	437.68
400.67	397.89
400.86	388.53
401.05	404.91
401.24	440.02
401.44	407.25
401.63	421.30
401.82	404.91
402.01	428.32
402.21	479.81
402.40	395.55
402.59	388.53
402.78	355.76
402.97	440.02
403.17	421.30
403.36	360.44
403.55	355.76
403.74	381.51
403.93	458.74
404.13	428.32
404.32	423.64
404.51	365.12
404.70	425.98
404.89	369.80
405.09	428.32
405.28	404.91
405.47	315.97
405.66	416.62
405.85	348.74
406.05	402.57
406.24	411.93
406.43	367.46
406.62	348.74
406.81	402.57
407.00	430.66
407.20	468.11
407.39	433.00
407.58	341.72
407.77	444.70
407.96	437.68
408.15	456.40
408.34	444.70
408.54	390.87
408.73	351.08
408.92	428.32
409.11	351.08
409.30	451.72
409.49	437.68
409.68	400.23
409.87	404.91
410.07	369.80
410.26	447.04
410.45	418.96
410.64	411.93
410.83	365.12
411.02	355.76
411.21	414.27
411.40	411.93
411.59	379.17
411.78	409.59
411.98	386.19
412.17	440.02
412.36	374.49
412.55	437.68
412.74	388.53
412.93	351.08
413.12	367.46
413.31	423.64
413.50	379.17
413.69	360.44
413.88	449.38
414.07	376.83
414.26	451.72
414.45	346.40
414.64	374.49
414.83	447.04
415.02	479.81
415.22	374.49
415.41	397.89
415.60	334.70
415.79	428.32
415.98	421.30
416.17	395.55
416.36	355.76
416.55	369.80
416.74	360.44
416.93	425.98
417.12	379.17
417.31	423.64
417.50	383.85
417.69	472.79
417.88	404.91
418.07	365.12
418.26	390.87
418.45	449.38
418.64	444.70
418.83	479.81
419.02	425.98
419.21	407.25
419.39	393.21
419.58	372.15
419.77	346.40
419.96	374.49
420.15	421.30
420.34	414.27
420.53	425.98
420.72	414.27
420.91	402.57
421.10	327.68
421.29	421.30
421.48	358.10
421.67	400.23
421.86	332.36
422.05	486.83
422.24	517.26
422.43	407.25
422.61	341.72
422.80	414.27
422.99	358.10
423.18	414.27
423.37	470.45
423.56	404.91
423.75	461.09
423.94	393.21
424.13	456.40
424.32	379.17
424.50	355.76
424.69	477.47
424.88	430.66
425.07	433.00
425.26	440.02
425.45	463.43
425.64	425.98
425.83	348.74
426.01	372.15
426.20	425.98
426.39	465.77
426.58	353.42
426.77	339.38
426.96	421.30
427.15	393.21
427.33	402.57
427.52	379.17
427.71	325.33
427.90	428.32
428.09	369.80
428.28	451.72
428.46	454.06
428.65	428.32
428.84	402.57
429.03	444.70
429.22	416.62
429.40	479.81
429.59	404.91
429.78	393.21
429.97	362.78
430.16	379.17
430.34	390.87
430.53	400.23
430.72	411.93
430.91	393.21
431.10	454.06
431.28	463.43
431.47	409.59
431.66	416.62
431.85	428.32
432.03	330.02
432.22	465.77
432.41	362.78
432.60	402.57
432.79	444.70
432.97	390.87
433.16	402.57
433.35	386.19
433.54	421.30
433.72	472.79
433.91	421.30
434.10	407.25
434.28	397.89
434.47	409.59
434.66	449.38
434.85	411.93
435.03	505.56
435.22	393.21
435.41	425.98
435.59	447.04
435.78	372.15
435.97	390.87
436.16	428.32
436.34	442.36
436.53	395.55
436.72	454.06
436.90	472.79
437.09	444.70
437.28	407.25
437.46	447.04
437.65	393.21
437.84	409.59
438.02	421.30
438.21	421.30
438.40	395.55
438.58	428.32
438.77	500.87
438.96	404.91
439.14	360.44
439.33	475.13
439.52	456.40
439.70	372.15
439.89	395.55
440.08	430.66
440.26	411.93
440.45	390.87
440.63	393.21
440.82	423.64
441.01	416.62
441.19	383.85
441.38	404.91
441.57	458.74
441.75	430.66
441.94	400.23
442.12	390.87
442.31	379.17
442.50	451.72
442.68	395.55
442.87	381.51
443.05	395.55
443.24	440.02
443.43	404.91
443.61	404.91
443.80	440.02
443.98	447.04
444.17	409.59
444.35	362.78
444.54	404.91
444.73	409.59
444.91	463.43
445.10	395.55
445.28	507.90
445.47	451.72
445.65	341.72
445.84	390.87
446.02	411.93
446.21	449.38
446.39	454.06
446.58	395.55
446.77	397.89
446.95	358.10
447.14	320.65
447.32	390.87
447.51	425.98
447.69	423.64
447.88	451.72
448.06	409.59
448.25	339.38
448.43	397.89
448.62	402.57
448.80	362.78
448.99	430.66
449.17	388.53
449.36	440.02
449.54	414.27
449.73	421.30
449.91	379.17
450.10	376.83
450.28	447.04
450.46	341.72
450.65	451.72
450.83	425.98
451.02	397.89
451.20	421.30
451.39	397.89
451.57	397.89
451.76	411.93
451.94	325.33
452.13	423.64
452.31	355.76
452.49	430.66
452.68	456.40
452.86	400.23
453.05	461.09
453.23	390.87
453.42	379.17
453.60	397.89
453.78	372.15
453.97	447.04
454.15	346.40
454.34	465.77
454.52	430.66
454.70	440.02
454.89	461.09
455.07	484.49
455.26	437.68
455.44	341.72
455.62	386.19
455.81	468.11
455.99	477.47
456.17	423.64
456.36	468.11
456.54	383.85
456.73	397.89
456.91	409.59
457.09	372.15
457.28	475.13
457.46	404.91
457.64	395.55
457.83	468.11
458.01	430.66
458.19	437.68
458.38	433.00
458.56	353.42
458.74	503.22
458.93	418.96
459.11	397.89
459.29	327.68
459.48	400.23
459.66	397.89
459.84	365.12
460.03	454.06
460.21	458.74
460.39	437.68
460.57	411.93
460.76	344.06
460.94	411.93
461.12	376.83
461.31	414.27
461.49	491.51
461.67	407.25
461.85	407.25
462.04	521.94
462.22	800.46
462.40	409.59
462.59	472.79
462.77	465.77
462.95	402.57
463.13	425.98
463.32	458.74
463.50	404.91
463.68	383.85
463.86	367.46
464.05	442.36
464.23	465.77
464.41	449.38
464.59	447.04
464.78	395.55
464.96	383.85
465.14	486.83
465.32	423.64
465.50	484.49
465.69	418.96
465.87	421.30
466.05	409.59
466.23	470.45
466.41	433.00
466.60	365.12
466.78	409.59
466.96	430.66
467.14	334.70
467.32	477.47
467.51	482.15
467.69	388.53
467.87	468.11
468.05	444.70
468.23	461.09
468.41	418.96
468.60	390.87
468.78	454.06
468.96	444.70
469.14	430.66
469.32	451.72
469.50	344.06
469.69	409.59
469.87	440.02
470.05	442.36
470.23	437.68
470.41	433.00
470.59	440.02
470.77	493.85
470.95	463.43
471.14	390.87
471.32	353.42
471.50	447.04
471.68	442.36
471.86	449.38
472.04	407.25
472.22	372.15
472.40	393.21
472.58	367.46
472.77	449.38
472.95	449.38
473.13	449.38
473.31	456.40
473.49	397.89
473.67	449.38
473.85	470.45
474.03	425.98
474.21	397.89
474.39	365.12
474.57	390.87
474.75	393.21
474.93	411.93
475.12	379.17
475.30	472.79
475.48	393.21
475.66	458.74
475.84	447.04
476.02	463.43
476.20	411.93
476.38	341.72
476.56	475.13
476.74	379.17
476.92	395.55
477.10	447.04
477.28	430.66
477.46	425.98
477.64	449.38
477.82	407.25
478.00	374.49
478.18	449.38
478.36	402.57
478.54	414.27
478.72	435.34
478.90	479.81
479.08	407.25
479.26	503.22
479.44	447.04
479.62	390.87
479.80	411.93
479.98	505.56
480.16	423.64
480.34	372.15
480.52	421.30
480.70	428.32
480.88	407.25
481.06	444.70
481.24	379.17
481.41	423.64
481.59	407.25
481.77	404.91
481.95	395.55
482.13	479.81
482.31	444.70
482.49	414.27
482.67	444.70
482.85	454.06
483.03	397.89
483.21	458.74
483.39	376.83
483.57	376.83
483.74	454.06
483.92	409.59
484.10	372.15
484.28	376.83
484.46	456.40
484.64	440.02
484.82	449.38
485.00	351.08
485.18	395.55
485.35	351.08
485.53	367.46
485.71	486.83
485.89	475.13
486.07	503.22
486.25	484.49
486.43	470.45
486.61	465.77
486.78	425.98
486.96	416.62
487.14	451.72
487.32	407.25
487.50	402.57
487.68	395.55
487.85	360.44
488.03	435.34
488.21	430.66
488.39	440.02
488.57	454.06
488.75	404.91
488.92	575.77
489.10	428.32
489.28	463.43
489.46	353.42
489.64	402.57
489.81	397.89
489.99	418.96
490.17	372.15
490.35	454.06
490.53	425.98
490.70	428.32
490.88	479.81
491.06	409.59
491.24	465.77
491.41	477.47
491.59	397.89
491.77	358.10
491.95	393.21
492.13	411.93
492.30	435.34
492.48	374.49
492.66	414.27
492.84	418.96
493.01	423.64
493.19	390.87
493.37	444.70
493.54	470.45
493.72	407.25
493.90	327.68
494.08	358.10
494.25	390.87
494.43	423.64
494.61	421.30
494.79	418.96
494.96	365.12
495.14	397.89
495.32	339.38
495.49	358.10
495.67	430.66
495.85	428.32
496.02	402.57
496.20	388.53
496.38	381.51
496.55	344.06
496.73	383.85
496.91	374.49
497.09	411.93
497.26	390.87
497.44	311.29
497.62	451.72
497.79	437.68
497.97	381.51
498.14	470.45
498.32	397.89
498.50	374.49
498.67	404.91
498.85	390.87
499.03	407.25
499.20	416.62
499.38	451.72
499.56	414.27
499.73	416.62
499.91	421.30
500.08	425.98
500.26	367.46
500.44	425.98
500.61	404.91
500.79	400.23
500.97	454.06
501.14	442.36
501.32	337.04
501.49	416.62
501.67	386.19
501.84	365.12
502.02	402.57
502.20	440.02
502.37	355.76
502.55	393.21
502.72	404.91
502.90	423.64
503.07	407.25
503.25	449.38
503.43	440.02
503.60	416.62
503.78	458.74
503.95	400.23
504.13	442.36
504.30	381.51
504.48	454.06
504.65	540.66
504.83	447.04
505.01	339.38
505.18	418.96
505.36	414.27
505.53	376.83
505.71	433.00
505.88	458.74
506.06	376.83
506.23	376.83
506.41	440.02
506.58	461.09
506.76	472.79
506.93	430.66
507.11	479.81
507.28	376.83
507.46	390.87
507.63	463.43
507.81	376.83
507.98	433.00
508.16	353.42
508.33	381.51
508.50	484.49
508.68	372.15
508.85	421.30
509.03	390.87
509.20	421.30
509.38	475.13
509.55	395.55
509.73	404.91
509.90	421.30
510.08	451.72
510.25	449.38
510.42	414.27
510.60	409.59
510.77	353.42
510.95	411.93
511.12	447.04
511.30	337.04
511.47	409.59
511.64	428.32
511.82	334.70
511.99	386.19
512.17	414.27
512.34	404.91
512.51	372.15
512.69	402.57
512.86	451.72
513.04	409.59
513.21	315.97
513.38	365.12
513.56	400.23
513.73	461.09
513.90	365.12
514.08	346.40
514.25	449.38
514.43	444.70
514.60	393.21
514.77	390.87
514.95	449.38
515.12	376.83
515.29	397.89
515.47	388.53
515.64	374.49
515.81	414.27
515.99	470.45
516.16	404.91
516.33	447.04
516.51	491.51
516.68	358.10
516.85	437.68
517.03	451.72
517.20	390.87
517.37	414.27
517.54	400.23
517.72	437.68
517.89	376.83
518.06	447.04
518.24	433.00
518.41	468.11
518.58	416.62
518.75	475.13
518.93	355.76
519.10	442.36
519.27	400.23
519.45	390.87
519.62	402.57
519.79	423.64
519.96	461.09
520.14	409.59
520.31	402.57
520.48	449.38
520.65	435.34
520.83	423.64
521.00	393.21
521.17	442.36
521.34	444.70
521.52	409.59
521.69	423.64
521.86	381.51
522.03	449.38
522.20	496.19
522.38	433.00
522.55	447.04
522.72	454.06
522.89	372.15
523.07	430.66
523.24	444.70
523.41	430.66
523.58	468.11
523.75	442.36
523.92	369.80
524.10	365.12
524.27	425.98
524.44	353.42
524.61	404.91
524.78	397.89
524.96	454.06
525.13	376.83
525.30	458.74
525.47	447.04
525.64	433.00
525.81	407.25
525.98	477.47
526.16	381.51
526.33	397.89
526.50	348.74
526.67	447.04
526.84	505.56
527.01	381.51
527.18	404.91
527.36	400.23
527.53	447.04
527.70	456.40
527.87	395.55
528.04	517.26
528.21	383.85
528.38	444.70
528.55	430.66
528.72	477.47
528.89	451.72
529.07	393.21
529.24	390.87
529.41	468.11
529.58	393.21
529.75	416.62
529.92	430.66
530.09	428.32
530.26	442.36
530.43	365.12
530.60	425.98
530.77	402.57
530.94	449.38
531.11	468.11
531.28	456.40
531.46	409.59
531.63	491.51
531.80	442.36
531.97	402.57
532.14	425.98
532.31	433.00
532.48	451.72
532.65	416.62
532.82	344.06
532.99	433.00
533.16	428.32
533.33	465.77
533.50	379.17
533.67	379.17
533.84	418.96
534.01	360.44
534.18	411.93
534.35	369.80
534.52	390.87
534.69	458.74
534.86	402.57
535.03	428.32
535.20	376.83
535.37	376.83
535.54	416.62
535.71	376.83
535.88	433.00
536.05	374.49
536.22	411.93
536.38	402.57
536.55	435.34
536.72	435.34
536.89	414.27
537.06	414.27
537.23	369.80
537.40	348.74
537.57	393.21
537.74	461.09
537.91	383.85
538.08	428.32
538.25	395.55
538.42	360.44
538.59	425.98
538.75	369.80
538.92	423.64
539.09	447.04
539.26	440.02
539.43	421.30
539.60	369.80
539.77	447.04
539.94	411.93
540.11	402.57
540.28	423.64
540.44	430.66
540.61	407.25
540.78	404.91
540.95	397.89
541.12	465.77
541.29	484.49
541.46	442.36
541.62	433.00
541.79	482.15
541.96	409.59
542.13	465.77
542.30	444.70
542.47	440.02
542.63	475.13
542.80	440.02
542.97	489.17
543.14	379.17
543.31	383.85
543.48	393.21
543.64	390.87
543.81	461.09
543.98	369.80
544.15	383.85
544.32	409.59
544.48	442.36
544.65	416.62
544.82	444.70
544.99	367.46
545.16	386.19
545.32	404.91
545.49	418.96
545.66	447.04
545.83	421.30
546.00	461.09
546.16	325.33
546.33	421.30
546.50	430.66
546.67	472.79
546.83	468.11
547.00	400.23
547.17	390.87
547.34	327.68
547.50	390.87
547.67	414.27
547.84	369.80
548.00	414.27
548.17	390.87
548.34	409.59
548.51	496.19
548.67	386.19
548.84	414.27
549.01	444.70
549.18	479.81
549.34	423.64
549.51	416.62
549.68	425.98
549.84	430.66
550.01	421.30
550.18	409.59
550.34	444.70
550.51	470.45
550.68	421.30
550.84	425.98
551.01	411.93
551.18	409.59
551.34	355.76
551.51	428.32
551.68	404.91
551.84	437.68
552.01	440.02
552.18	404.91
552.34	470.45
552.51	440.02
552.68	407.25
552.84	486.83
553.01	390.87
553.18	395.55
553.34	416.62
553.51	416.62
553.67	414.27
553.84	425.98
554.01	425.98
554.17	411.93
554.34	451.72
554.51	423.64
554.67	409.59
554.84	421.30
555.00	461.09
555.17	442.36
555.33	393.21
555.50	435.34
555.67	353.42
555.83	421.30
556.00	332.36
556.16	533.64
556.33	472.79
556.50	477.47
556.66	407.25
556.83	407.25
556.99	400.23
557.16	458.74
557.32	393.21
557.49	372.15
557.65	416.62
557.82	421.30
557.98	477.47
558.15	411.93
558.32	433.00
558.48	449.38
558.65	374.49
558.81	423.64
558.98	409.59
559.14	454.06
559.31	437.68
559.47	397.89
559.64	386.19
559.80	344.06
559.97	418.96
560.13	444.70
560.30	465.77
560.46	407.25
560.63	344.06
560.79	411.93
560.96	433.00
561.12	505.56
561.29	442.36
561.45	442.36
561.61	381.51
561.78	507.90
561.94	447.04
562.11	386.19
562.27	402.57
562.44	386.19
562.60	358.10
562.77	390.87
562.93	479.81
563.10	451.72
563.26	400.23
563.42	437.68
563.59	414.27
563.75	388.53
563.92	458.74
564.08	433.00
564.24	491.51
564.41	493.85
564.57	358.10
564.74	365.12
564.90	390.87
565.07	433.00
565.23	409.59
565.39	418.96
565.56	472.79
565.72	430.66
565.88	465.77
566.05	374.49
566.21	444.70
566.38	404.91
566.54	461.09
566.70	397.89
566.87	376.83
567.03	393.21
567.19	449.38
567.36	449.38
567.52	423.64
567.68	388.53
567.85	437.68
568.01	301.93
568.17	367.46
568.34	358.10
568.50	379.17
568.66	397.89
568.83	463.43
568.99	444.70
569.15	435.34
569.32	430.66
569.48	451.72
569.64	416.62
569.81	400.23
569.97	395.55
570.13	397.89
570.30	381.51
570.46	390.87
570.62	465.77
570.78	351.08
570.95	390.87
571.11	433.00
571.27	425.98
571.43	369.80
571.60	423.64
571.76	414.27
571.92	416.62
572.09	330.02
572.25	407.25
572.41	411.93
572.57	411.93
572.74	428.32
572.90	360.44
573.06	393.21
573.22	418.96
573.38	430.66
573.55	435.34
573.71	442.36
573.87	440.02
574.03	491.51
574.20	484.49
574.36	414.27
574.52	454.06
574.68	421.30
574.84	435.34
575.01	484.49
575.17	479.81
575.33	414.27
575.49	468.11
575.65	423.64
575.82	372.15
575.98	477.47
576.14	447.04
576.30	440.02
576.46	411.93
576.62	498.53
576.79	437.68
576.95	468.11
577.11	404.91
577.27	372.15
577.43	463.43
577.59	456.40
577.75	447.04
577.92	421.30
578.08	388.53
578.24	407.25
578.40	416.62
578.56	351.08
578.72	484.49
578.88	372.15
579.04	468.11
579.21	306.61
579.37	379.17
579.53	444.70
579.69	414.27
579.85	468.11
580.01	486.83
580.17	379.17
580.33	404.91
580.49	402.57
580.65	454.06
580.82	442.36
580.98	479.81
581.14	381.51
581.30	423.64
581.46	470.45
581.62	425.98
581.78	407.25
581.94	423.64
582.10	430.66
582.26	416.62
582.42	435.34
582.58	393.21
582.74	381.51
582.90	418.96
583.06	416.62
583.22	468.11
583.38	423.64
583.54	416.62
583.70	428.32
583.86	397.89
584.02	397.89
584.18	472.79
584.34	421.30
584.50	386.19
584.66	367.46
584.82	414.27
584.98	451.72
585.14	360.44
585.30	433.00
585.46	369.80
585.62	407.25
585.78	421.30
585.94	435.34
586.10	463.43
586.26	456.40
586.42	428.32
586.58	390.87
586.74	383.85
586.90	423.64
587.06	437.68
587.22	369.80
587.38	423.64
587.54	423.64
587.70	475.13
587.86	428.32
588.02	374.49
588.18	407.25
588.34	484.49
588.49	404.91
588.65	397.89
588.81	505.56
588.97	430.66
589.13	407.25
589.29	416.62
589.45	418.96
589.61	482.15
589.77	451.72
589.93	402.57
590.08	463.43
590.24	372.15
590.40	493.85
590.56	533.64
590.72	428.32
590.88	433.00
591.04	402.57
591.20	402.57
591.35	395.55
591.51	463.43
591.67	402.57
591.83	430.66
591.99	479.81
592.15	428.32
592.31	381.51
592.46	475.13
592.62	543.00
592.78	411.93
592.94	407.25
593.10	348.74
593.26	393.21
593.41	454.06
593.57	411.93
593.73	416.62
593.89	477.47
594.05	449.38
594.20	388.53
594.36	437.68
594.52	404.91
594.68	404.91
594.84	344.06
594.99	428.32
595.15	379.17
595.31	409.59
595.47	493.85
595.62	437.68
595.78	444.70
595.94	442.36
596.10	383.85
596.25	437.68
596.41	418.96
596.57	468.11
596.73	416.62
596.88	407.25
597.04	498.53
597.20	430.66
597.36	395.55
597.51	358.10
597.67	388.53
597.83	414.27
597.99	365.12
598.14	402.57
598.30	442.36
598.46	402.57
598.61	428.32
598.77	470.45
598.93	447.04
599.09	414.27
599.24	538.32
599.40	433.00
599.56	388.53
599.71	397.89
599.87	444.70
600.03	402.57
600.18	397.89
600.34	388.53
600.50	411.93
600.65	379.17
600.81	409.59
600.97	456.40
601.12	425.98
601.28	444.70
601.44	374.49
601.59	430.66
601.75	379.17
601.91	433.00
602.06	500.87
602.22	425.98
602.37	322.99
602.53	425.98
602.69	388.53
602.84	395.55
603.00	365.12
603.16	402.57
603.31	376.83
603.47	379.17
603.62	449.38
603.78	472.79
603.94	454.06
604.09	470.45
604.25	423.64
604.40	435.34
604.56	393.21
604.71	449.38
604.87	409.59
605.03	433.00
605.18	337.04
605.34	411.93
605.49	402.57
605.65	327.68
605.80	421.30
605.96	374.49
606.12	423.64
606.27	372.15
606.43	454.06
606.58	425.98
606.74	468.11
606.89	411.93
607.05	402.57
607.20	449.38
607.36	449.38
607.51	433.00
607.67	437.68
607.82	390.87
607.98	461.09
608.13	491.51
608.29	489.17
608.44	463.43
608.60	463.43
608.75	465.77
608.91	447.04
609.06	393.21
609.22	437.68
609.37	407.25
609.53	395.55
609.68	365.12
609.84	397.89
609.99	465.77
610.15	482.15
610.30	418.96
610.46	428.32
610.61	367.46
610.76	421.30
610.92	358.10
611.07	367.46
611.23	456.40
611.38	458.74
611.54	400.23
611.69	440.02
611.84	369.80
612.00	404.91
612.15	421.30
612.31	449.38
612.46	454.06
612.62	461.09
612.77	479.81
612.92	465.77
613.08	435.34
613.23	456.40
613.39	484.49
613.54	437.68
613.69	381.51
613.85	470.45
614.00	442.36
614.15	339.38
614.31	461.09
614.46	390.87
614.62	383.85
614.77	400.23
614.92	456.40
615.08	444.70
615.23	475.13
615.38	458.74
615.54	376.83
615.69	353.42
615.84	367.46
616.00	341.72
616.15	402.57
616.30	477.47
616.46	444.70
616.61	423.64
616.76	376.83
616.92	456.40
617.07	409.59
617.22	400.23
617.37	372.15
617.53	442.36
617.68	397.89
617.83	360.44
617.99	430.66
618.14	435.34
618.29	428.32
618.45	386.19
618.60	367.46
618.75	465.77
618.90	454.06
619.06	428.32
619.21	430.66
619.36	383.85
619.51	461.09
619.67	451.72
619.82	449.38
619.97	428.32
620.12	550.03
620.28	486.83
620.43	407.25
620.58	423.64
620.73	470.45
620.89	397.89
621.04	407.25
621.19	468.11
621.34	468.11
621.49	358.10
621.65	472.79
621.80	376.83
621.95	468.11
622.10	388.53
622.25	388.53
622.41	411.93
622.56	444.70
622.71	447.04
622.86	400.23
623.01	341.72
623.16	489.17
623.32	348.74
623.47	437.68
623.62	327.68
623.77	376.83
623.92	404.91
624.07	437.68
624.23	418.96
624.38	381.51
624.53	372.15
624.68	428.32
624.83	447.04
624.98	428.32
625.13	358.10
625.29	376.83
625.44	440.02
625.59	374.49
625.74	458.74
625.89	428.32
626.04	435.34
626.19	416.62
626.34	421.30
626.49	444.70
626.65	404.91
626.80	437.68
626.95	355.76
627.10	348.74
627.25	416.62
627.40	458.74
627.55	470.45
627.70	381.51
627.85	362.78
628.00	428.32
628.15	423.64
628.30	411.93
628.45	437.68
628.60	351.08
628.76	437.68
628.91	421.30
629.06	461.09
629.21	463.43
629.36	402.57
629.51	388.53
629.66	346.40
629.81	365.12
629.96	458.74
630.11	376.83
630.26	400.23
630.41	421.30
630.56	437.68
630.71	374.49
630.86	416.62
631.01	383.85
631.16	372.15
631.31	418.96
631.46	407.25
631.61	463.43
631.76	425.98
631.91	435.34
632.06	451.72
632.21	418.96
632.36	418.96
632.51	423.64
632.66	458.74
632.81	395.55
632.96	463.43
633.10	400.23
633.25	393.21
633.40	437.68
633.55	456.40
633.70	414.27
633.85	470.45
634.00	395.55
634.15	402.57
634.30	400.23
634.45	421.30
634.60	461.09
634.75	372.15
634.90	416.62
635.05	379.17
635.19	418.96
635.34	430.66
635.49	461.09
635.64	425.98
635.79	449.38
635.94	393.21
636.09	423.64
636.24	423.64
636.39	463.43
636.53	458.74
636.68	369.80
636.83	402.57
636.98	435.34
637.13	517.26
637.28	402.57
637.43	411.93
637.57	358.10
637.72	458.74
637.87	461.09
638.02	374.49
638.17	395.55
638.32	428.32
638.46	472.79
638.61	458.74
638.76	440.02
638.91	418.96
639.06	372.15
639.20	463.43
639.35	430.66
639.50	454.06
639.65	491.51
639.80	421.30
639.94	388.53
640.09	440.02
640.24	423.64
640.39	400.23
640.54	404.91
640.68	330.02
640.83	383.85
640.98	390.87
641.13	388.53
641.27	358.10
641.42	388.53
641.57	404.91
641.72	372.15
641.86	440.02
642.01	374.49
642.16	468.11
642.31	470.45
642.45	440.02
642.60	470.45
642.75	472.79
642.90	402.57
643.04	369.80
643.19	390.87
643.34	425.98
643.48	383.85
643.63	407.25
643.78	447.04
643.93	388.53
644.07	362.78
644.22	327.68
644.37	383.85
644.51	402.57
644.66	425.98
644.81	440.02
644.95	430.66
645.10	440.02
645.25	433.00
645.39	430.66
645.54	376.83
645.69	470.45
645.83	360.44
645.98	472.79
646.13	397.89
646.27	449.38
646.42	456.40
646.57	440.02
646.71	407.25
646.86	444.70
647.00	423.64
647.15	442.36
647.30	360.44
647.44	402.57
647.59	435.34
647.74	430.66
647.88	454.06
648.03	416.62
648.17	500.87
648.32	430.66
648.47	397.89
648.61	461.09
648.76	393.21
648.90	447.04
649.05	418.96
649.20	440.02
649.34	409.59
649.49	390.87
649.63	341.72
649.78	440.02
649.92	430.66
650.07	454.06
650.21	367.46
650.36	390.87
650.51	423.64
650.65	416.62
650.80	351.08
650.94	409.59
651.09	390.87
651.23	390.87
651.38	360.44
651.52	409.59
651.67	355.76
651.81	503.22
651.96	461.09
652.10	435.34
652.25	437.68
652.39	442.36
652.54	458.74
652.68	388.53
652.83	430.66
652.97	437.68
653.12	451.72
653.26	437.68
653.41	416.62
653.55	430.66
653.70	421.30
653.84	451.72
653.99	409.59
654.13	362.78
654.27	409.59
654.42	372.15
654.56	416.62
654.71	444.70
654.85	360.44
655.00	454.06
655.14	430.66
655.29	355.76
655.43	402.57
655.57	456.40
655.72	379.17
655.86	337.04
656.01	397.89
656.15	437.68
656.30	442.36
656.44	409.59
656.58	341.72
656.73	425.98
656.87	414.27
657.01	315.97
657.16	449.38
657.30	503.22
657.45	421.30
657.59	475.13
657.73	477.47
657.88	407.25
658.02	433.00
658.16	372.15
658.31	400.23
658.45	400.23
658.60	390.87
658.74	400.23
658.88	463.43
659.03	379.17
659.17	379.17
659.31	411.93
659.46	390.87
659.60	430.66
659.74	353.42
659.89	369.80
660.03	390.87
660.17	404.91
660.32	447.04
660.46	444.70
660.60	388.53
660.74	351.08
660.89	458.74
661.03	428.32
661.17	451.72
661.32	367.46
661.46	430.66
661.60	369.80
661.74	440.02
661.89	503.22
662.03	395.55
662.17	425.98
662.31	425.98
662.46	414.27
662.60	409.59
662.74	383.85
662.88	395.55
663.03	447.04
663.17	418.96
663.31	486.83
663.45	447.04
663.60	440.02
663.74	397.89
663.88	381.51
664.02	421.30
664.17	381.51
664.31	458.74
664.45	444.70
664.59	425.98
664.73	449.38
664.88	416.62
665.02	374.49
665.16	411.93
665.30	484.49
665.44	404.91
665.59	393.21
665.73	465.77
665.87	404.91
666.01	416.62
666.15	383.85
666.29	444.70
666.44	442.36
666.58	458.74
666.72	393.21
666.86	409.59
667.00	430.66
667.14	456.40
667.28	367.46
667.43	393.21
667.57	425.98
667.71	362.78
667.85	435.34
667.99	409.59
668.13	416.62
668.27	444.70
668.41	421.30
668.56	397.89
668.70	454.06
668.84	418.96
668.98	486.83
669.12	294.91
669.26	383.85
669.40	423.64
669.54	376.83
669.68	395.55
669.82	454.06
669.96	400.23
670.10	440.02
670.25	402.57
670.39	430.66
670.53	458.74
670.67	379.17
670.81	418.96
670.95	397.89
671.09	437.68
671.23	472.79
671.37	388.53
671.51	416.62
671.65	423.64
671.79	423.64
671.93	428.32
672.07	470.45
672.21	400.23
672.35	423.64
672.49	416.62
672.63	421.30
672.77	451.72
672.91	477.47
673.05	451.72
673.19	379.17
673.33	339.38
673.47	430.66
673.61	404.91
673.75	409.59
673.89	372.15
674.03	369.80
674.17	409.59
674.31	393.21
674.45	418.96
674.59	465.77
674.73	447.04
674.87	440.02
675.01	407.25
675.15	397.89
675.29	456.40
675.43	433.00
675.56	437.68
675.70	449.38
675.84	435.34
675.98	393.21
676.12	369.80
676.26	383.85
676.40	404.91
676.54	477.47
676.68	404.91
676.82	437.68
676.96	365.12
677.10	418.96
677.23	395.55
677.37	416.62
677.51	351.08
677.65	479.81
677.79	444.70
677.93	407.25
678.07	358.10
678.21	517.26
678.34	372.15
678.48	367.46
678.62	447.04
678.76	348.74
678.90	440.02
679.04	337.04
679.18	374.49
679.31	400.23
679.45	409.59
679.59	507.90
679.73	440.02
679.87	383.85
680.00	395.55
680.14	404.91
680.28	388.53
680.42	433.00
680.56	360.44
680.70	379.17
680.83	374.49
680.97	437.68
681.11	365.12
681.25	468.11
681.39	461.09
681.52	409.59
681.66	454.06
681.80	468.11
681.94	353.42
682.07	397.89
682.21	451.72
682.35	409.59
682.49	433.00
682.62	367.46
682.76	418.96
682.90	334.70
683.04	407.25
683.17	409.59
683.31	437.68
683.45	362.78
683.59	463.43
683.72	449.38
683.86	489.17
684.00	383.85
684.13	397.89
684.27	397.89
684.41	393.21
684.55	421.30
684.68	390.87
684.82	489.17
684.96	383.85
685.09	381.51
685.23	461.09
685.37	435.34
685.50	437.68
685.64	444.70
685.78	414.27
685.91	442.36
686.05	440.02
686.19	395.55
686.32	435.34
686.46	430.66
686.60	407.25
686.73	437.68
686.87	404.91
687.01	369.80
687.14	393.21
687.28	376.83
687.42	388.53
687.55	369.80
687.69	447.04
687.82	411.93
687.96	409.59
688.10	507.90
688.23	346.40
688.37	414.27
688.50	454.06
688.64	423.64
688.78	416.62
688.91	409.59
689.05	428.32
689.18	348.74
689.32	449.38
689.46	447.04
689.59	475.13
689.73	493.85
689.86	397.89
690.00	367.46
690.13	435.34
690.27	449.38
690.41	435.34
690.54	521.94
690.68	407.25
690.81	425.98
690.95	348.74
691.08	418.96
691.22	440.02
691.35	355.76
691.49	390.87
691.62	444.70
691.76	404.91
691.89	376.83
692.03	411.93
692.16	395.55
692.30	397.89
692.43	463.43
692.57	344.06
692.70	447.04
692.84	437.68
692.97	386.19
693.11	421.30
693.24	425.98
693.38	423.64
693.51	416.62
693.65	423.64
693.78	404.91
693.92	416.62
694.05	395.55
694.19	400.23
694.32	386.19
694.45	381.51
694.59	449.38
694.72	454.06
694.86	369.80
694.99	353.42
695.13	390.87
695.26	463.43
695.39	440.02
695.53	447.04
695.66	400.23
695.80	418.96
695.93	454.06
696.07	430.66
696.20	442.36
696.33	397.89
696.47	374.49
696.60	447.04
696.73	407.25
696.87	442.36
697.00	372.15
697.14	404.91
697.27	402.57
697.40	411.93
697.54	362.78
697.67	428.32
697.80	360.44
697.94	348.74
698.07	304.27
698.21	400.23
698.34	428.32
698.47	414.27
698.61	416.62
698.74	362.78
698.87	421.30
699.01	409.59
699.14	404.91
699.27	456.40
699.40	512.58
699.54	435.34
699.67	435.34
699.80	393.21
699.94	397.89
700.07	463.43
700.20	388.53
700.34	383.85
700.47	430.66
700.60	383.85
700.73	383.85
700.87	458.74
701.00	404.91
701.13	374.49
701.26	414.27
701.40	365.12
701.53	456.40
701.66	395.55
701.79	512.58
701.93	477.47
702.06	454.06
702.19	461.09
702.32	390.87
702.46	447.04
702.59	400.23
702.72	395.55
702.85	393.21
702.99	440.02
703.12	451.72
703.25	442.36
703.38	365.12
703.51	430.66
703.65	423.64
703.78	409.59
703.91	416.62
704.04	437.68
704.17	346.40
704.31	447.04
704.44	400.23
704.57	395.55
704.70	315.97
704.83	395.55
704.96	360.44
705.10	498.53
705.23	407.25
>>>>>End Processed Spectral Data<<<<<
