SpectraSuite Data File
++++++++++++++++++++++++++++++++++++
Date: Fri Oct 25 12:10:11 EDT 2013
User: price-jones
Dark Spectrum Present: No
Reference Spectrum Present: No
Number of Sampled Component Spectra: 1
Spectrometers: USB2+H05261
Integration Time (usec): 100000 (USB2+H05261)
Spectra Averaged: 1 (USB2+H05261)
Boxcar Smoothing: 0 (USB2+H05261)
Correct for Electrical Dark: No (USB2+H05261)
Strobe/Lamp Enabled: No (USB2+H05261)
Correct for Detector Non-linearity: No (USB2+H05261)
Correct for Stray Light: No (USB2+H05261)
Number of Pixels in Processed Spectrum: 2048
>>>>>Begin Processed Spectral Data<<<<<
365.73	313.63
365.92	313.63
366.12	313.63
366.32	266.82
366.52	248.10
366.72	208.31
366.91	250.44
367.11	222.35
367.31	224.69
367.51	266.82
367.70	180.22
367.90	290.23
368.10	250.44
368.30	276.18
368.49	266.82
368.69	257.46
368.89	315.97
369.09	285.55
369.28	285.55
369.48	276.18
369.68	285.55
369.87	297.25
370.07	290.23
370.27	348.74
370.47	351.08
370.66	322.99
370.86	388.53
371.06	386.19
371.25	395.55
371.45	376.83
371.65	383.85
371.84	358.10
372.04	337.04
372.24	407.25
372.44	311.29
372.63	433.00
372.83	440.02
373.03	341.72
373.22	402.57
373.42	393.21
373.62	397.89
373.81	409.59
374.01	400.23
374.21	433.00
374.40	409.59
374.60	465.77
374.79	421.30
374.99	433.00
375.19	395.55
375.38	470.45
375.58	418.96
375.78	416.62
375.97	442.36
376.17	454.06
376.37	484.49
376.56	425.98
376.76	379.17
376.95	360.44
377.15	437.68
377.35	421.30
377.54	440.02
377.74	437.68
377.93	449.38
378.13	369.80
378.33	374.49
378.52	344.06
378.72	423.64
378.91	463.43
379.11	425.98
379.31	376.83
379.50	400.23
379.70	318.31
379.89	425.98
380.09	449.38
380.28	421.30
380.48	369.80
380.68	388.53
380.87	409.59
381.07	358.10
381.26	397.89
381.46	482.15
381.65	351.08
381.85	463.43
382.04	470.45
382.24	433.00
382.43	365.12
382.63	348.74
382.83	386.19
383.02	414.27
383.22	374.49
383.41	379.17
383.61	437.68
383.80	402.57
384.00	416.62
384.19	395.55
384.39	383.85
384.58	367.46
384.78	416.62
384.97	348.74
385.17	374.49
385.36	390.87
385.56	451.72
385.75	402.57
385.95	411.93
386.14	416.62
386.34	397.89
386.53	360.44
386.72	461.09
386.92	402.57
387.11	393.21
387.31	386.19
387.50	388.53
387.70	379.17
387.89	503.22
388.09	374.49
388.28	397.89
388.48	414.27
388.67	409.59
388.86	344.06
389.06	379.17
389.25	456.40
389.45	451.72
389.64	388.53
389.84	402.57
390.03	365.12
390.22	449.38
390.42	447.04
390.61	393.21
390.81	379.17
391.00	454.06
391.19	379.17
391.39	386.19
391.58	463.43
391.78	407.25
391.97	454.06
392.16	330.02
392.36	425.98
392.55	411.93
392.75	402.57
392.94	421.30
393.13	393.21
393.33	383.85
393.52	386.19
393.71	440.02
393.91	395.55
394.10	421.30
394.29	411.93
394.49	456.40
394.68	435.34
394.88	374.49
395.07	416.62
395.26	442.36
395.46	407.25
395.65	388.53
395.84	409.59
396.04	397.89
396.23	358.10
396.42	425.98
396.62	353.42
396.81	444.70
397.00	404.91
397.19	447.04
397.39	395.55
397.58	409.59
397.77	344.06
397.97	390.87
398.16	463.43
398.35	454.06
398.55	383.85
398.74	397.89
398.93	444.70
399.12	376.83
399.32	416.62
399.51	360.44
399.70	421.30
399.90	414.27
400.09	395.55
400.28	416.62
400.47	355.76
400.67	376.83
400.86	395.55
401.05	393.21
401.24	409.59
401.44	430.66
401.63	454.06
401.82	402.57
402.01	400.23
402.21	351.08
402.40	421.30
402.59	379.17
402.78	397.89
402.97	433.00
403.17	414.27
403.36	449.38
403.55	479.81
403.74	344.06
403.93	374.49
404.13	379.17
404.32	348.74
404.51	360.44
404.70	407.25
404.89	369.80
405.09	489.17
405.28	414.27
405.47	353.42
405.66	421.30
405.85	393.21
406.05	435.34
406.24	423.64
406.43	365.12
406.62	423.64
406.81	416.62
407.00	447.04
407.20	362.78
407.39	404.91
407.58	479.81
407.77	437.68
407.96	404.91
408.15	416.62
408.34	449.38
408.54	411.93
408.73	421.30
408.92	437.68
409.11	362.78
409.30	484.49
409.49	407.25
409.68	430.66
409.87	404.91
410.07	379.17
410.26	358.10
410.45	425.98
410.64	449.38
410.83	472.79
411.02	362.78
411.21	374.49
411.40	402.57
411.59	362.78
411.78	365.12
411.98	414.27
412.17	437.68
412.36	416.62
412.55	437.68
412.74	416.62
412.93	428.32
413.12	386.19
413.31	440.02
413.50	433.00
413.69	379.17
413.88	444.70
414.07	440.02
414.26	418.96
414.45	428.32
414.64	435.34
414.83	393.21
415.02	358.10
415.22	442.36
415.41	505.56
415.60	435.34
415.79	393.21
415.98	416.62
416.17	395.55
416.36	454.06
416.55	442.36
416.74	402.57
416.93	472.79
417.12	463.43
417.31	425.98
417.50	351.08
417.69	442.36
417.88	423.64
418.07	411.93
418.26	400.23
418.45	397.89
418.64	430.66
418.83	454.06
419.02	454.06
419.21	365.12
419.39	346.40
419.58	379.17
419.77	428.32
419.96	353.42
420.15	397.89
420.34	449.38
420.53	437.68
420.72	374.49
420.91	447.04
421.10	355.76
421.29	409.59
421.48	428.32
421.67	404.91
421.86	444.70
422.05	416.62
422.24	376.83
422.43	418.96
422.61	395.55
422.80	409.59
422.99	411.93
423.18	400.23
423.37	470.45
423.56	379.17
423.75	421.30
423.94	379.17
424.13	442.36
424.32	435.34
424.50	411.93
424.69	369.80
424.88	423.64
425.07	402.57
425.26	458.74
425.45	416.62
425.64	332.36
425.83	407.25
426.01	425.98
426.20	440.02
426.39	451.72
426.58	468.11
426.77	397.89
426.96	372.15
427.15	430.66
427.33	421.30
427.52	414.27
427.71	442.36
427.90	330.02
428.09	397.89
428.28	477.47
428.46	358.10
428.65	421.30
428.84	404.91
429.03	393.21
429.22	465.77
429.40	411.93
429.59	388.53
429.78	463.43
429.97	397.89
430.16	442.36
430.34	383.85
430.53	386.19
430.72	393.21
430.91	468.11
431.10	365.12
431.28	418.96
431.47	449.38
431.66	397.89
431.85	456.40
432.03	372.15
432.22	449.38
432.41	381.51
432.60	451.72
432.79	477.47
432.97	454.06
433.16	383.85
433.35	322.99
433.54	440.02
433.72	379.17
433.91	463.43
434.10	374.49
434.28	428.32
434.47	346.40
434.66	416.62
434.85	376.83
435.03	444.70
435.22	341.72
435.41	423.64
435.59	447.04
435.78	423.64
435.97	374.49
436.16	425.98
436.34	404.91
436.53	477.47
436.72	390.87
436.90	440.02
437.09	397.89
437.28	416.62
437.46	376.83
437.65	418.96
437.84	416.62
438.02	367.46
438.21	449.38
438.40	433.00
438.58	423.64
438.77	404.91
438.96	395.55
439.14	365.12
439.33	402.57
439.52	442.36
439.70	397.89
439.89	425.98
440.08	444.70
440.26	395.55
440.45	376.83
440.63	423.64
440.82	358.10
441.01	484.49
441.19	388.53
441.38	433.00
441.57	465.77
441.75	411.93
441.94	365.12
442.12	479.81
442.31	376.83
442.50	468.11
442.68	407.25
442.87	404.91
443.05	425.98
443.24	409.59
443.43	407.25
443.61	449.38
443.80	393.21
443.98	397.89
444.17	388.53
444.35	395.55
444.54	498.53
444.73	360.44
444.91	440.02
445.10	430.66
445.28	409.59
445.47	397.89
445.65	444.70
445.84	393.21
446.02	395.55
446.21	425.98
446.39	411.93
446.58	463.43
446.77	425.98
446.95	437.68
447.14	390.87
447.32	458.74
447.51	369.80
447.69	479.81
447.88	418.96
448.06	482.15
448.25	374.49
448.43	433.00
448.62	440.02
448.80	433.00
448.99	411.93
449.17	395.55
449.36	442.36
449.54	383.85
449.73	416.62
449.91	477.47
450.10	393.21
450.28	458.74
450.46	463.43
450.65	404.91
450.83	435.34
451.02	416.62
451.20	418.96
451.39	421.30
451.57	461.09
451.76	430.66
451.94	355.76
452.13	416.62
452.31	402.57
452.49	376.83
452.68	369.80
452.86	409.59
453.05	409.59
453.23	447.04
453.42	372.15
453.60	381.51
453.78	407.25
453.97	449.38
454.15	404.91
454.34	388.53
454.52	470.45
454.70	379.17
454.89	416.62
455.07	372.15
455.26	423.64
455.44	447.04
455.62	381.51
455.81	404.91
455.99	442.36
456.17	430.66
456.36	428.32
456.54	411.93
456.73	407.25
456.91	475.13
457.09	376.83
457.28	409.59
457.46	362.78
457.64	447.04
457.83	449.38
458.01	409.59
458.19	433.00
458.38	414.27
458.56	414.27
458.74	386.19
458.93	491.51
459.11	472.79
459.29	423.64
459.48	470.45
459.66	440.02
459.84	423.64
460.03	491.51
460.21	407.25
460.39	395.55
460.57	402.57
460.76	411.93
460.94	440.02
461.12	465.77
461.31	395.55
461.49	451.72
461.67	395.55
461.85	458.74
462.04	414.27
462.22	777.06
462.40	400.23
462.59	367.46
462.77	365.12
462.95	400.23
463.13	416.62
463.32	421.30
463.50	507.90
463.68	449.38
463.86	430.66
464.05	400.23
464.23	461.09
464.41	484.49
464.59	337.04
464.78	428.32
464.96	379.17
465.14	477.47
465.32	348.74
465.50	458.74
465.69	451.72
465.87	393.21
466.05	451.72
466.23	440.02
466.41	395.55
466.60	369.80
466.78	404.91
466.96	447.04
467.14	355.76
467.32	531.30
467.51	461.09
467.69	421.30
467.87	440.02
468.05	397.89
468.23	468.11
468.41	423.64
468.60	491.51
468.78	383.85
468.96	510.24
469.14	362.78
469.32	472.79
469.50	362.78
469.69	409.59
469.87	397.89
470.05	381.51
470.23	463.43
470.41	376.83
470.59	379.17
470.77	416.62
470.95	360.44
471.14	386.19
471.32	411.93
471.50	386.19
471.68	374.49
471.86	423.64
472.04	440.02
472.22	402.57
472.40	461.09
472.58	444.70
472.77	421.30
472.95	451.72
473.13	489.17
473.31	421.30
473.49	484.49
473.67	425.98
473.85	402.57
474.03	379.17
474.21	351.08
474.39	390.87
474.57	468.11
474.75	369.80
474.93	416.62
475.12	402.57
475.30	423.64
475.48	425.98
475.66	447.04
475.84	402.57
476.02	404.91
476.20	470.45
476.38	393.21
476.56	430.66
476.74	442.36
476.92	418.96
477.10	362.78
477.28	379.17
477.46	381.51
477.64	367.46
477.82	386.19
478.00	390.87
478.18	512.58
478.36	348.74
478.54	411.93
478.72	447.04
478.90	344.06
479.08	409.59
479.26	425.98
479.44	404.91
479.62	463.43
479.80	341.72
479.98	425.98
480.16	409.59
480.34	442.36
480.52	442.36
480.70	458.74
480.88	402.57
481.06	409.59
481.24	344.06
481.41	355.76
481.59	433.00
481.77	451.72
481.95	379.17
482.13	486.83
482.31	386.19
482.49	411.93
482.67	402.57
482.85	376.83
483.03	390.87
483.21	400.23
483.39	510.24
483.57	379.17
483.74	477.47
483.92	388.53
484.10	362.78
484.28	407.25
484.46	472.79
484.64	463.43
484.82	421.30
485.00	505.56
485.18	435.34
485.35	409.59
485.53	430.66
485.71	442.36
485.89	365.12
486.07	388.53
486.25	477.47
486.43	414.27
486.61	482.15
486.78	433.00
486.96	383.85
487.14	489.17
487.32	395.55
487.50	468.11
487.68	449.38
487.85	402.57
488.03	435.34
488.21	344.06
488.39	428.32
488.57	379.17
488.75	428.32
488.92	468.11
489.10	367.46
489.28	369.80
489.46	383.85
489.64	447.04
489.81	461.09
489.99	440.02
490.17	383.85
490.35	465.77
490.53	416.62
490.70	376.83
490.88	421.30
491.06	505.56
491.24	435.34
491.41	461.09
491.59	416.62
491.77	365.12
491.95	411.93
492.13	383.85
492.30	437.68
492.48	390.87
492.66	409.59
492.84	353.42
493.01	454.06
493.19	379.17
493.37	449.38
493.54	421.30
493.72	428.32
493.90	421.30
494.08	423.64
494.25	449.38
494.43	444.70
494.61	393.21
494.79	437.68
494.96	390.87
495.14	414.27
495.32	369.80
495.49	451.72
495.67	430.66
495.85	449.38
496.02	395.55
496.20	397.89
496.38	376.83
496.55	409.59
496.73	433.00
496.91	470.45
497.09	425.98
497.26	372.15
497.44	416.62
497.62	372.15
497.79	421.30
497.97	383.85
498.14	367.46
498.32	374.49
498.50	484.49
498.67	472.79
498.85	376.83
499.03	425.98
499.20	444.70
499.38	430.66
499.56	388.53
499.73	442.36
499.91	423.64
500.08	407.25
500.26	395.55
500.44	360.44
500.61	411.93
500.79	454.06
500.97	456.40
501.14	465.77
501.32	456.40
501.49	498.53
501.67	435.34
501.84	444.70
502.02	402.57
502.20	451.72
502.37	379.17
502.55	470.45
502.72	470.45
502.90	458.74
503.07	472.79
503.25	423.64
503.43	423.64
503.60	421.30
503.78	447.04
503.95	444.70
504.13	440.02
504.30	395.55
504.48	421.30
504.65	435.34
504.83	437.68
505.01	411.93
505.18	423.64
505.36	409.59
505.53	411.93
505.71	383.85
505.88	484.49
506.06	449.38
506.23	400.23
506.41	374.49
506.58	404.91
506.76	475.13
506.93	425.98
507.11	430.66
507.28	402.57
507.46	458.74
507.63	475.13
507.81	416.62
507.98	428.32
508.16	393.21
508.33	428.32
508.50	425.98
508.68	402.57
508.85	458.74
509.03	414.27
509.20	344.06
509.38	400.23
509.55	395.55
509.73	409.59
509.90	463.43
510.08	388.53
510.25	425.98
510.42	407.25
510.60	395.55
510.77	383.85
510.95	484.49
511.12	444.70
511.30	393.21
511.47	402.57
511.64	468.11
511.82	390.87
511.99	407.25
512.17	423.64
512.34	348.74
512.51	411.93
512.69	348.74
512.86	510.24
513.04	430.66
513.21	421.30
513.38	386.19
513.56	428.32
513.73	395.55
513.90	433.00
514.08	388.53
514.25	411.93
514.43	390.87
514.60	381.51
514.77	404.91
514.95	355.76
515.12	372.15
515.29	440.02
515.47	409.59
515.64	414.27
515.81	365.12
515.99	472.79
516.16	442.36
516.33	519.60
516.51	428.32
516.68	365.12
516.85	447.04
517.03	442.36
517.20	433.00
517.37	428.32
517.54	437.68
517.72	395.55
517.89	327.68
518.06	470.45
518.24	479.81
518.41	465.77
518.58	454.06
518.75	425.98
518.93	376.83
519.10	451.72
519.27	470.45
519.45	458.74
519.62	400.23
519.79	411.93
519.96	386.19
520.14	411.93
520.31	404.91
520.48	447.04
520.65	411.93
520.83	388.53
521.00	435.34
521.17	393.21
521.34	421.30
521.52	372.15
521.69	440.02
521.86	397.89
522.03	458.74
522.20	519.60
522.38	454.06
522.55	372.15
522.72	351.08
522.89	449.38
523.07	444.70
523.24	470.45
523.41	397.89
523.58	411.93
523.75	411.93
523.92	395.55
524.10	468.11
524.27	456.40
524.44	397.89
524.61	461.09
524.78	435.34
524.96	421.30
525.13	414.27
525.30	393.21
525.47	376.83
525.64	411.93
525.81	425.98
525.98	421.30
526.16	404.91
526.33	402.57
526.50	465.77
526.67	482.15
526.84	435.34
527.01	437.68
527.18	407.25
527.36	409.59
527.53	327.68
527.70	535.98
527.87	428.32
528.04	444.70
528.21	430.66
528.38	435.34
528.55	381.51
528.72	449.38
528.89	500.87
529.07	440.02
529.24	444.70
529.41	456.40
529.58	433.00
529.75	409.59
529.92	397.89
530.09	402.57
530.26	407.25
530.43	337.04
530.60	386.19
530.77	411.93
530.94	421.30
531.11	411.93
531.28	456.40
531.46	430.66
531.63	411.93
531.80	397.89
531.97	311.29
532.14	379.17
532.31	482.15
532.48	486.83
532.65	470.45
532.82	383.85
532.99	388.53
533.16	337.04
533.33	442.36
533.50	449.38
533.67	449.38
533.84	442.36
534.01	425.98
534.18	402.57
534.35	414.27
534.52	376.83
534.69	358.10
534.86	421.30
535.03	437.68
535.20	372.15
535.37	332.36
535.54	421.30
535.71	428.32
535.88	491.51
536.05	397.89
536.22	388.53
536.38	409.59
536.55	489.17
536.72	423.64
536.89	423.64
537.06	388.53
537.23	381.51
537.40	388.53
537.57	390.87
537.74	461.09
537.91	468.11
538.08	402.57
538.25	411.93
538.42	503.22
538.59	491.51
538.75	430.66
538.92	440.02
539.09	442.36
539.26	444.70
539.43	531.30
539.60	435.34
539.77	425.98
539.94	433.00
540.11	416.62
540.28	458.74
540.44	484.49
540.61	444.70
540.78	423.64
540.95	360.44
541.12	407.25
541.29	423.64
541.46	451.72
541.62	454.06
541.79	440.02
541.96	433.00
542.13	397.89
542.30	344.06
542.47	428.32
542.63	411.93
542.80	479.81
542.97	475.13
543.14	428.32
543.31	428.32
543.48	425.98
543.64	409.59
543.81	383.85
543.98	421.30
544.15	299.59
544.32	461.09
544.48	416.62
544.65	379.17
544.82	379.17
544.99	433.00
545.16	461.09
545.32	374.49
545.49	414.27
545.66	409.59
545.83	400.23
546.00	503.22
546.16	360.44
546.33	454.06
546.50	458.74
546.67	456.40
546.83	449.38
547.00	346.40
547.17	461.09
547.34	437.68
547.50	409.59
547.67	418.96
547.84	404.91
548.00	423.64
548.17	379.17
548.34	334.70
548.51	477.47
548.67	442.36
548.84	496.19
549.01	447.04
549.18	491.51
549.34	383.85
549.51	463.43
549.68	510.24
549.84	421.30
550.01	411.93
550.18	407.25
550.34	442.36
550.51	393.21
550.68	512.58
550.84	440.02
551.01	428.32
551.18	400.23
551.34	358.10
551.51	461.09
551.68	430.66
551.84	425.98
552.01	400.23
552.18	468.11
552.34	451.72
552.51	472.79
552.68	351.08
552.84	404.91
553.01	374.49
553.18	465.77
553.34	404.91
553.51	383.85
553.67	449.38
553.84	456.40
554.01	409.59
554.17	404.91
554.34	404.91
554.51	393.21
554.67	486.83
554.84	437.68
555.00	414.27
555.17	479.81
555.33	404.91
555.50	344.06
555.67	369.80
555.83	423.64
556.00	409.59
556.16	528.96
556.33	475.13
556.50	425.98
556.66	348.74
556.83	365.12
556.99	425.98
557.16	437.68
557.32	437.68
557.49	425.98
557.65	402.57
557.82	451.72
557.98	463.43
558.15	454.06
558.32	400.23
558.48	348.74
558.65	409.59
558.81	451.72
558.98	416.62
559.14	407.25
559.31	414.27
559.47	484.49
559.64	430.66
559.80	400.23
559.97	442.36
560.13	367.46
560.30	362.78
560.46	381.51
560.63	397.89
560.79	409.59
560.96	374.49
561.12	456.40
561.29	500.87
561.45	411.93
561.61	409.59
561.78	484.49
561.94	381.51
562.11	315.97
562.27	500.87
562.44	447.04
562.60	360.44
562.77	330.02
562.93	479.81
563.10	416.62
563.26	376.83
563.42	407.25
563.59	400.23
563.75	393.21
563.92	379.17
564.08	348.74
564.24	393.21
564.41	433.00
564.57	383.85
564.74	435.34
564.90	421.30
565.07	484.49
565.23	388.53
565.39	437.68
565.56	461.09
565.72	397.89
565.88	383.85
566.05	390.87
566.21	444.70
566.38	397.89
566.54	397.89
566.70	411.93
566.87	393.21
567.03	404.91
567.19	390.87
567.36	411.93
567.52	430.66
567.68	423.64
567.85	372.15
568.01	374.49
568.17	374.49
568.34	355.76
568.50	514.92
568.66	423.64
568.83	491.51
568.99	409.59
569.15	414.27
569.32	430.66
569.48	390.87
569.64	440.02
569.81	442.36
569.97	454.06
570.13	442.36
570.30	437.68
570.46	463.43
570.62	435.34
570.78	346.40
570.95	402.57
571.11	451.72
571.27	524.28
571.43	493.85
571.60	433.00
571.76	435.34
571.92	404.91
572.09	395.55
572.25	374.49
572.41	468.11
572.57	428.32
572.74	418.96
572.90	512.58
573.06	355.76
573.22	425.98
573.38	437.68
573.55	402.57
573.71	491.51
573.87	470.45
574.03	425.98
574.20	442.36
574.36	355.76
574.52	344.06
574.68	372.15
574.84	486.83
575.01	456.40
575.17	416.62
575.33	447.04
575.49	407.25
575.65	395.55
575.82	376.83
575.98	486.83
576.14	425.98
576.30	355.76
576.46	440.02
576.62	435.34
576.79	433.00
576.95	461.09
577.11	395.55
577.27	390.87
577.43	440.02
577.59	390.87
577.75	456.40
577.92	430.66
578.08	365.12
578.24	423.64
578.40	425.98
578.56	381.51
578.72	447.04
578.88	393.21
579.04	390.87
579.21	411.93
579.37	461.09
579.53	435.34
579.69	393.21
579.85	465.77
580.01	475.13
580.17	414.27
580.33	402.57
580.49	444.70
580.65	388.53
580.82	379.17
580.98	388.53
581.14	383.85
581.30	379.17
581.46	458.74
581.62	449.38
581.78	402.57
581.94	397.89
582.10	411.93
582.26	409.59
582.42	416.62
582.58	451.72
582.74	435.34
582.90	470.45
583.06	440.02
583.22	397.89
583.38	425.98
583.54	411.93
583.70	470.45
583.86	433.00
584.02	416.62
584.18	344.06
584.34	379.17
584.50	433.00
584.66	386.19
584.82	346.40
584.98	458.74
585.14	341.72
585.30	458.74
585.46	379.17
585.62	402.57
585.78	463.43
585.94	416.62
586.10	383.85
586.26	414.27
586.42	442.36
586.58	400.23
586.74	416.62
586.90	404.91
587.06	411.93
587.22	472.79
587.38	400.23
587.54	433.00
587.70	393.21
587.86	376.83
588.02	414.27
588.18	395.55
588.34	430.66
588.49	388.53
588.65	360.44
588.81	416.62
588.97	400.23
589.13	362.78
589.29	468.11
589.45	416.62
589.61	430.66
589.77	449.38
589.93	421.30
590.08	437.68
590.24	388.53
590.40	374.49
590.56	393.21
590.72	372.15
590.88	344.06
591.04	454.06
591.20	507.90
591.35	505.56
591.51	433.00
591.67	360.44
591.83	360.44
591.99	367.46
592.15	397.89
592.31	444.70
592.46	400.23
592.62	397.89
592.78	479.81
592.94	433.00
593.10	423.64
593.26	362.78
593.41	447.04
593.57	447.04
593.73	402.57
593.89	425.98
594.05	404.91
594.20	440.02
594.36	404.91
594.52	440.02
594.68	397.89
594.84	437.68
594.99	449.38
595.15	407.25
595.31	486.83
595.47	451.72
595.62	425.98
595.78	461.09
595.94	407.25
596.10	416.62
596.25	388.53
596.41	444.70
596.57	372.15
596.73	454.06
596.88	374.49
597.04	425.98
597.20	402.57
597.36	407.25
597.51	498.53
597.67	458.74
597.83	404.91
597.99	425.98
598.14	468.11
598.30	449.38
598.46	407.25
598.61	503.22
598.77	421.30
598.93	374.49
599.09	374.49
599.24	472.79
599.40	386.19
599.56	383.85
599.71	465.77
599.87	421.30
600.03	414.27
600.18	444.70
600.34	442.36
600.50	402.57
600.65	374.49
600.81	395.55
600.97	404.91
601.12	428.32
601.28	423.64
601.44	421.30
601.59	395.55
601.75	475.13
601.91	428.32
602.06	479.81
602.22	411.93
602.37	411.93
602.53	435.34
602.69	484.49
602.84	416.62
603.00	463.43
603.16	465.77
603.31	514.92
603.47	465.77
603.62	362.78
603.78	376.83
603.94	421.30
604.09	367.46
604.25	383.85
604.40	475.13
604.56	397.89
604.71	428.32
604.87	395.55
605.03	447.04
605.18	409.59
605.34	411.93
605.49	437.68
605.65	404.91
605.80	358.10
605.96	365.12
606.12	369.80
606.27	433.00
606.43	425.98
606.58	400.23
606.74	341.72
606.89	402.57
607.05	454.06
607.20	414.27
607.36	458.74
607.51	425.98
607.67	479.81
607.82	393.21
607.98	461.09
608.13	400.23
608.29	369.80
608.44	458.74
608.60	442.36
608.75	400.23
608.91	486.83
609.06	447.04
609.22	409.59
609.37	332.36
609.53	402.57
609.68	390.87
609.84	484.49
609.99	442.36
610.15	463.43
610.30	447.04
610.46	428.32
610.61	414.27
610.76	428.32
610.92	404.91
611.07	482.15
611.23	416.62
611.38	470.45
611.54	348.74
611.69	383.85
611.84	447.04
612.00	430.66
612.15	409.59
612.31	390.87
612.46	397.89
612.62	486.83
612.77	430.66
612.92	360.44
613.08	341.72
613.23	404.91
613.39	489.17
613.54	393.21
613.69	369.80
613.85	461.09
614.00	407.25
614.15	430.66
614.31	414.27
614.46	442.36
614.62	428.32
614.77	484.49
614.92	358.10
615.08	395.55
615.23	449.38
615.38	330.02
615.54	437.68
615.69	404.91
615.84	381.51
616.00	381.51
616.15	407.25
616.30	409.59
616.46	425.98
616.61	381.51
616.76	449.38
616.92	461.09
617.07	374.49
617.22	475.13
617.37	381.51
617.53	416.62
617.68	411.93
617.83	423.64
617.99	435.34
618.14	437.68
618.29	444.70
618.45	409.59
618.60	435.34
618.75	386.19
618.90	444.70
619.06	437.68
619.21	440.02
619.36	514.92
619.51	402.57
619.67	458.74
619.82	435.34
619.97	411.93
620.12	491.51
620.28	355.76
620.43	351.08
620.58	404.91
620.73	444.70
620.89	421.30
621.04	447.04
621.19	486.83
621.34	390.87
621.49	402.57
621.65	472.79
621.80	395.55
621.95	337.04
622.10	414.27
622.25	430.66
622.41	379.17
622.56	376.83
622.71	414.27
622.86	491.51
623.01	418.96
623.16	491.51
623.32	395.55
623.47	362.78
623.62	454.06
623.77	348.74
623.92	444.70
624.07	369.80
624.23	409.59
624.38	369.80
624.53	374.49
624.68	400.23
624.83	465.77
624.98	355.76
625.13	393.21
625.29	400.23
625.44	454.06
625.59	411.93
625.74	409.59
625.89	440.02
626.04	379.17
626.19	397.89
626.34	416.62
626.49	451.72
626.65	489.17
626.80	411.93
626.95	472.79
627.10	430.66
627.25	458.74
627.40	379.17
627.55	449.38
627.70	393.21
627.85	381.51
628.00	447.04
628.15	442.36
628.30	437.68
628.45	442.36
628.60	444.70
628.76	407.25
628.91	393.21
629.06	411.93
629.21	458.74
629.36	411.93
629.51	402.57
629.66	407.25
629.81	475.13
629.96	430.66
630.11	496.19
630.26	463.43
630.41	411.93
630.56	435.34
630.71	358.10
630.86	444.70
631.01	449.38
631.16	447.04
631.31	404.91
631.46	365.12
631.61	433.00
631.76	402.57
631.91	390.87
632.06	395.55
632.21	470.45
632.36	416.62
632.51	423.64
632.66	428.32
632.81	360.44
632.96	437.68
633.10	409.59
633.25	461.09
633.40	423.64
633.55	425.98
633.70	414.27
633.85	425.98
634.00	425.98
634.15	404.91
634.30	395.55
634.45	388.53
634.60	463.43
634.75	407.25
634.90	428.32
635.05	400.23
635.19	395.55
635.34	390.87
635.49	440.02
635.64	444.70
635.79	367.46
635.94	454.06
636.09	514.92
636.24	423.64
636.39	369.80
636.53	425.98
636.68	372.15
636.83	416.62
636.98	367.46
637.13	418.96
637.28	505.56
637.43	355.76
637.57	346.40
637.72	433.00
637.87	423.64
638.02	402.57
638.17	421.30
638.32	444.70
638.46	458.74
638.61	430.66
638.76	423.64
638.91	379.17
639.06	458.74
639.20	468.11
639.35	372.15
639.50	337.04
639.65	435.34
639.80	444.70
639.94	465.77
640.09	348.74
640.24	440.02
640.39	440.02
640.54	411.93
640.68	444.70
640.83	449.38
640.98	379.17
641.13	451.72
641.27	451.72
641.42	400.23
641.57	414.27
641.72	435.34
641.86	388.53
642.01	411.93
642.16	395.55
642.31	433.00
642.45	428.32
642.60	433.00
642.75	379.17
642.90	454.06
643.04	402.57
643.19	383.85
643.34	416.62
643.48	458.74
643.63	435.34
643.78	449.38
643.93	468.11
644.07	367.46
644.22	423.64
644.37	407.25
644.51	409.59
644.66	433.00
644.81	454.06
644.95	400.23
645.10	430.66
645.25	435.34
645.39	407.25
645.54	435.34
645.69	447.04
645.83	444.70
645.98	451.72
646.13	468.11
646.27	435.34
646.42	358.10
646.57	414.27
646.71	407.25
646.86	360.44
647.00	423.64
647.15	528.96
647.30	381.51
647.44	470.45
647.59	374.49
647.74	433.00
647.88	397.89
648.03	395.55
648.17	346.40
648.32	304.27
648.47	475.13
648.61	425.98
648.76	407.25
648.90	367.46
649.05	353.42
649.20	400.23
649.34	407.25
649.49	381.51
649.63	470.45
649.78	493.85
649.92	421.30
650.07	444.70
650.21	346.40
650.36	421.30
650.51	376.83
650.65	428.32
650.80	433.00
650.94	411.93
651.09	365.12
651.23	411.93
651.38	369.80
651.52	411.93
651.67	404.91
651.81	390.87
651.96	449.38
652.10	414.27
652.25	425.98
652.39	425.98
652.54	411.93
652.68	411.93
652.83	400.23
652.97	379.17
653.12	458.74
653.26	393.21
653.41	437.68
653.55	437.68
653.70	360.44
653.84	390.87
653.99	414.27
654.13	414.27
654.27	491.51
654.42	397.89
654.56	449.38
654.71	435.34
654.85	414.27
655.00	367.46
655.14	411.93
655.29	369.80
655.43	447.04
655.57	407.25
655.72	416.62
655.86	458.74
656.01	390.87
656.15	435.34
656.30	416.62
656.44	404.91
656.58	430.66
656.73	353.42
656.87	360.44
657.01	428.32
657.16	447.04
657.30	416.62
657.45	411.93
657.59	409.59
657.73	404.91
657.88	390.87
658.02	482.15
658.16	433.00
658.31	463.43
658.45	479.81
658.60	430.66
658.74	348.74
658.88	449.38
659.03	369.80
659.17	402.57
659.31	397.89
659.46	447.04
659.60	433.00
659.74	463.43
659.89	449.38
660.03	355.76
660.17	498.53
660.32	369.80
660.46	512.58
660.60	449.38
660.74	386.19
660.89	407.25
661.03	383.85
661.17	386.19
661.32	463.43
661.46	444.70
661.60	421.30
661.74	451.72
661.89	402.57
662.03	400.23
662.17	341.72
662.31	451.72
662.46	437.68
662.60	395.55
662.74	444.70
662.88	414.27
663.03	437.68
663.17	372.15
663.31	402.57
663.45	393.21
663.60	416.62
663.74	304.27
663.88	454.06
664.02	372.15
664.17	433.00
664.31	369.80
664.45	346.40
664.59	388.53
664.73	418.96
664.88	358.10
665.02	407.25
665.16	362.78
665.30	433.00
665.44	390.87
665.59	442.36
665.73	447.04
665.87	425.98
666.01	416.62
666.15	369.80
666.29	444.70
666.44	437.68
666.58	433.00
666.72	447.04
666.86	374.49
667.00	472.79
667.14	376.83
667.28	423.64
667.43	430.66
667.57	407.25
667.71	407.25
667.85	407.25
667.99	418.96
668.13	395.55
668.27	449.38
668.41	477.47
668.56	381.51
668.70	414.27
668.84	421.30
668.98	475.13
669.12	425.98
669.26	435.34
669.40	484.49
669.54	418.96
669.68	428.32
669.82	379.17
669.96	409.59
670.10	332.36
670.25	423.64
670.39	468.11
670.53	381.51
670.67	449.38
670.81	407.25
670.95	425.98
671.09	456.40
671.23	503.22
671.37	442.36
671.51	447.04
671.65	507.90
671.79	402.57
671.93	395.55
672.07	491.51
672.21	386.19
672.35	409.59
672.49	437.68
672.63	416.62
672.77	360.44
672.91	416.62
673.05	367.46
673.19	416.62
673.33	365.12
673.47	425.98
673.61	440.02
673.75	416.62
673.89	374.49
674.03	407.25
674.17	393.21
674.31	379.17
674.45	372.15
674.59	423.64
674.73	435.34
674.87	437.68
675.01	404.91
675.15	402.57
675.29	386.19
675.43	451.72
675.56	465.77
675.70	428.32
675.84	383.85
675.98	430.66
676.12	381.51
676.26	437.68
676.40	407.25
676.54	465.77
676.68	390.87
676.82	400.23
676.96	440.02
677.10	425.98
677.23	458.74
677.37	411.93
677.51	437.68
677.65	423.64
677.79	362.78
677.93	411.93
678.07	433.00
678.21	386.19
678.34	379.17
678.48	409.59
678.62	456.40
678.76	362.78
678.90	374.49
679.04	404.91
679.18	433.00
679.31	416.62
679.45	437.68
679.59	418.96
679.73	390.87
679.87	381.51
680.00	411.93
680.14	390.87
680.28	449.38
680.42	376.83
680.56	428.32
680.70	421.30
680.83	428.32
680.97	348.74
681.11	379.17
681.25	400.23
681.39	351.08
681.52	528.96
681.66	440.02
681.80	437.68
681.94	379.17
682.07	339.38
682.21	372.15
682.35	418.96
682.49	344.06
682.62	482.15
682.76	477.47
682.90	449.38
683.04	400.23
683.17	435.34
683.31	430.66
683.45	475.13
683.59	416.62
683.72	505.56
683.86	383.85
684.00	372.15
684.13	393.21
684.27	428.32
684.41	423.64
684.55	386.19
684.68	409.59
684.82	397.89
684.96	379.17
685.09	416.62
685.23	409.59
685.37	383.85
685.50	374.49
685.64	390.87
685.78	344.06
685.91	400.23
686.05	404.91
686.19	463.43
686.32	430.66
686.46	425.98
686.60	351.08
686.73	547.69
686.87	484.49
687.01	456.40
687.14	444.70
687.28	407.25
687.42	407.25
687.55	358.10
687.69	458.74
687.82	348.74
687.96	451.72
688.10	383.85
688.23	435.34
688.37	472.79
688.50	435.34
688.64	404.91
688.78	390.87
688.91	397.89
689.05	388.53
689.18	449.38
689.32	468.11
689.46	367.46
689.59	365.12
689.73	458.74
689.86	447.04
690.00	404.91
690.13	362.78
690.27	383.85
690.41	374.49
690.54	418.96
690.68	386.19
690.81	442.36
690.95	475.13
691.08	360.44
691.22	444.70
691.35	348.74
691.49	451.72
691.62	440.02
691.76	386.19
691.89	428.32
692.03	407.25
692.16	360.44
692.30	418.96
692.43	351.08
692.57	430.66
692.70	386.19
692.84	498.53
692.97	421.30
693.11	383.85
693.24	362.78
693.38	365.12
693.51	360.44
693.65	435.34
693.78	397.89
693.92	411.93
694.05	383.85
694.19	379.17
694.32	454.06
694.45	386.19
694.59	360.44
694.72	402.57
694.86	454.06
694.99	400.23
695.13	388.53
695.26	358.10
695.39	374.49
695.53	477.47
695.66	402.57
695.80	437.68
695.93	425.98
696.07	442.36
696.20	484.49
696.33	433.00
696.47	360.44
696.60	435.34
696.73	379.17
696.87	344.06
697.00	376.83
697.14	353.42
697.27	491.51
697.40	496.19
697.54	407.25
697.67	451.72
697.80	393.21
697.94	390.87
698.07	407.25
698.21	348.74
698.34	414.27
698.47	400.23
698.61	355.76
698.74	386.19
698.87	416.62
699.01	440.02
699.14	404.91
699.27	383.85
699.40	535.98
699.54	451.72
699.67	374.49
699.80	409.59
699.94	435.34
700.07	430.66
700.20	430.66
700.34	386.19
700.47	421.30
700.60	365.12
700.73	470.45
700.87	421.30
701.00	409.59
701.13	430.66
701.26	440.02
701.40	362.78
701.53	409.59
701.66	388.53
701.79	404.91
701.93	423.64
702.06	430.66
702.19	409.59
702.32	367.46
702.46	372.15
702.59	423.64
702.72	372.15
702.85	280.86
702.99	416.62
703.12	484.49
703.25	435.34
703.38	437.68
703.51	458.74
703.65	425.98
703.78	383.85
703.91	404.91
704.04	423.64
704.17	374.49
704.31	409.59
704.44	416.62
704.57	428.32
704.70	425.98
704.83	404.91
704.96	409.59
705.10	395.55
705.23	437.68
>>>>>End Processed Spectral Data<<<<<
