SpectraSuite Data File
++++++++++++++++++++++++++++++++++++
Date: Fri Oct 25 12:10:40 EDT 2013
User: price-jones
Dark Spectrum Present: No
Reference Spectrum Present: No
Number of Sampled Component Spectra: 1
Spectrometers: USB2+H05261
Integration Time (usec): 100000 (USB2+H05261)
Spectra Averaged: 1 (USB2+H05261)
Boxcar Smoothing: 0 (USB2+H05261)
Correct for Electrical Dark: No (USB2+H05261)
Strobe/Lamp Enabled: No (USB2+H05261)
Correct for Detector Non-linearity: No (USB2+H05261)
Correct for Stray Light: No (USB2+H05261)
Number of Pixels in Processed Spectrum: 2048
>>>>>Begin Processed Spectral Data<<<<<
365.73	322.99
365.92	322.99
366.12	322.99
366.32	283.20
366.52	220.01
366.72	287.89
366.91	229.37
367.11	203.63
367.31	264.48
367.51	243.42
367.70	285.55
367.90	264.48
368.10	180.22
368.30	224.69
368.49	236.39
368.69	255.12
368.89	205.97
369.09	252.78
369.28	205.97
369.48	262.14
369.68	266.82
369.87	330.02
370.07	325.33
370.27	337.04
370.47	308.95
370.66	330.02
370.86	306.61
371.06	383.85
371.25	402.57
371.45	374.49
371.65	376.83
371.84	390.87
372.04	330.02
372.24	397.89
372.44	353.42
372.63	379.17
372.83	423.64
373.03	454.06
373.22	393.21
373.42	409.59
373.62	430.66
373.81	433.00
374.01	407.25
374.21	411.93
374.40	388.53
374.60	428.32
374.79	386.19
374.99	330.02
375.19	402.57
375.38	447.04
375.58	390.87
375.78	414.27
375.97	383.85
376.17	339.38
376.37	444.70
376.56	407.25
376.76	411.93
376.95	416.62
377.15	395.55
377.35	475.13
377.54	353.42
377.74	407.25
377.93	308.95
378.13	318.31
378.33	411.93
378.52	332.36
378.72	395.55
378.91	372.15
379.11	346.40
379.31	402.57
379.50	402.57
379.70	463.43
379.89	475.13
380.09	428.32
380.28	414.27
380.48	376.83
380.68	374.49
380.87	351.08
381.07	475.13
381.26	463.43
381.46	393.21
381.65	440.02
381.85	430.66
382.04	437.68
382.24	407.25
382.43	362.78
382.63	435.34
382.83	440.02
383.02	428.32
383.22	433.00
383.41	400.23
383.61	365.12
383.80	442.36
384.00	381.51
384.19	386.19
384.39	449.38
384.58	421.30
384.78	407.25
384.97	404.91
385.17	425.98
385.36	365.12
385.56	390.87
385.75	397.89
385.95	411.93
386.14	437.68
386.34	468.11
386.53	400.23
386.72	353.42
386.92	489.17
387.11	470.45
387.31	477.47
387.50	395.55
387.70	440.02
387.89	414.27
388.09	430.66
388.28	383.85
388.48	383.85
388.67	482.15
388.86	400.23
389.06	362.78
389.25	454.06
389.45	409.59
389.64	362.78
389.84	486.83
390.03	407.25
390.22	402.57
390.42	344.06
390.61	428.32
390.81	395.55
391.00	369.80
391.19	433.00
391.39	353.42
391.58	421.30
391.78	397.89
391.97	341.72
392.16	390.87
392.36	365.12
392.55	444.70
392.75	482.15
392.94	414.27
393.13	465.77
393.33	423.64
393.52	430.66
393.71	416.62
393.91	374.49
394.10	369.80
394.29	315.97
394.49	372.15
394.68	479.81
394.88	440.02
395.07	351.08
395.26	482.15
395.46	447.04
395.65	374.49
395.84	379.17
396.04	430.66
396.23	376.83
396.42	433.00
396.62	376.83
396.81	468.11
397.00	362.78
397.19	407.25
397.39	402.57
397.58	437.68
397.77	425.98
397.97	400.23
398.16	414.27
398.35	451.72
398.55	353.42
398.74	367.46
398.93	456.40
399.12	390.87
399.32	372.15
399.51	334.70
399.70	369.80
399.90	358.10
400.09	451.72
400.28	456.40
400.47	428.32
400.67	447.04
400.86	400.23
401.05	390.87
401.24	344.06
401.44	421.30
401.63	376.83
401.82	433.00
402.01	451.72
402.21	411.93
402.40	414.27
402.59	397.89
402.78	341.72
402.97	381.51
403.17	425.98
403.36	475.13
403.55	369.80
403.74	381.51
403.93	360.44
404.13	379.17
404.32	374.49
404.51	416.62
404.70	414.27
404.89	461.09
405.09	365.12
405.28	372.15
405.47	351.08
405.66	451.72
405.85	402.57
406.05	468.11
406.24	421.30
406.43	327.68
406.62	372.15
406.81	418.96
407.00	430.66
407.20	402.57
407.39	407.25
407.58	425.98
407.77	372.15
407.96	489.17
408.15	437.68
408.34	414.27
408.54	407.25
408.73	421.30
408.92	510.24
409.11	456.40
409.30	454.06
409.49	374.49
409.68	344.06
409.87	369.80
410.07	444.70
410.26	376.83
410.45	327.68
410.64	346.40
410.83	404.91
411.02	416.62
411.21	449.38
411.40	407.25
411.59	447.04
411.78	400.23
411.98	374.49
412.17	407.25
412.36	411.93
412.55	351.08
412.74	456.40
412.93	379.17
413.12	416.62
413.31	428.32
413.50	451.72
413.69	437.68
413.88	449.38
414.07	374.49
414.26	402.57
414.45	402.57
414.64	374.49
414.83	407.25
415.02	414.27
415.22	376.83
415.41	351.08
415.60	407.25
415.79	489.17
415.98	461.09
416.17	444.70
416.36	407.25
416.55	463.43
416.74	416.62
416.93	418.96
417.12	435.34
417.31	390.87
417.50	397.89
417.69	402.57
417.88	444.70
418.07	397.89
418.26	435.34
418.45	421.30
418.64	409.59
418.83	395.55
419.02	444.70
419.21	461.09
419.39	404.91
419.58	374.49
419.77	411.93
419.96	388.53
420.15	428.32
420.34	458.74
420.53	409.59
420.72	402.57
420.91	468.11
421.10	362.78
421.29	397.89
421.48	449.38
421.67	449.38
421.86	374.49
422.05	367.46
422.24	397.89
422.43	435.34
422.61	339.38
422.80	428.32
422.99	409.59
423.18	397.89
423.37	416.62
423.56	367.46
423.75	341.72
423.94	358.10
424.13	376.83
424.32	390.87
424.50	421.30
424.69	346.40
424.88	435.34
425.07	388.53
425.26	461.09
425.45	397.89
425.64	390.87
425.83	423.64
426.01	416.62
426.20	461.09
426.39	395.55
426.58	397.89
426.77	423.64
426.96	339.38
427.15	395.55
427.33	393.21
427.52	414.27
427.71	433.00
427.90	454.06
428.09	454.06
428.28	393.21
428.46	397.89
428.65	444.70
428.84	355.76
429.03	465.77
429.22	458.74
429.40	397.89
429.59	337.04
429.78	397.89
429.97	440.02
430.16	360.44
430.34	444.70
430.53	411.93
430.72	379.17
430.91	451.72
431.10	381.51
431.28	416.62
431.47	341.72
431.66	397.89
431.85	362.78
432.03	423.64
432.22	400.23
432.41	379.17
432.60	465.77
432.79	400.23
432.97	395.55
433.16	369.80
433.35	360.44
433.54	414.27
433.72	416.62
433.91	397.89
434.10	418.96
434.28	400.23
434.47	341.72
434.66	463.43
434.85	397.89
435.03	397.89
435.22	428.32
435.41	458.74
435.59	369.80
435.78	456.40
435.97	423.64
436.16	463.43
436.34	414.27
436.53	381.51
436.72	414.27
436.90	416.62
437.09	425.98
437.28	358.10
437.46	416.62
437.65	402.57
437.84	447.04
438.02	404.91
438.21	414.27
438.40	514.92
438.58	395.55
438.77	416.62
438.96	395.55
439.14	353.42
439.33	369.80
439.52	418.96
439.70	433.00
439.89	379.17
440.08	400.23
440.26	409.59
440.45	400.23
440.63	475.13
440.82	425.98
441.01	411.93
441.19	393.21
441.38	425.98
441.57	386.19
441.75	465.77
441.94	447.04
442.12	402.57
442.31	360.44
442.50	355.76
442.68	451.72
442.87	376.83
443.05	475.13
443.24	358.10
443.43	428.32
443.61	315.97
443.80	421.30
443.98	372.15
444.17	397.89
444.35	454.06
444.54	355.76
444.73	397.89
444.91	404.91
445.10	400.23
445.28	400.23
445.47	390.87
445.65	383.85
445.84	386.19
446.02	421.30
446.21	372.15
446.39	437.68
446.58	383.85
446.77	414.27
446.95	437.68
447.14	475.13
447.32	440.02
447.51	435.34
447.69	418.96
447.88	435.34
448.06	484.49
448.25	402.57
448.43	421.30
448.62	346.40
448.80	388.53
448.99	376.83
449.17	404.91
449.36	402.57
449.54	407.25
449.73	367.46
449.91	524.28
450.10	367.46
450.28	491.51
450.46	425.98
450.65	304.27
450.83	397.89
451.02	428.32
451.20	362.78
451.39	421.30
451.57	411.93
451.76	369.80
451.94	407.25
452.13	454.06
452.31	416.62
452.49	402.57
452.68	393.21
452.86	404.91
453.05	482.15
453.23	414.27
453.42	388.53
453.60	404.91
453.78	395.55
453.97	414.27
454.15	330.02
454.34	416.62
454.52	376.83
454.70	456.40
454.89	416.62
455.07	454.06
455.26	374.49
455.44	395.55
455.62	393.21
455.81	386.19
455.99	374.49
456.17	437.68
456.36	362.78
456.54	461.09
456.73	472.79
456.91	440.02
457.09	393.21
457.28	388.53
457.46	358.10
457.64	386.19
457.83	330.02
458.01	456.40
458.19	479.81
458.38	425.98
458.56	386.19
458.74	437.68
458.93	409.59
459.11	435.34
459.29	386.19
459.48	372.15
459.66	421.30
459.84	496.19
460.03	512.58
460.21	463.43
460.39	395.55
460.57	400.23
460.76	442.36
460.94	444.70
461.12	461.09
461.31	447.04
461.49	435.34
461.67	433.00
461.85	454.06
462.04	327.68
462.22	697.48
462.40	421.30
462.59	418.96
462.77	404.91
462.95	402.57
463.13	379.17
463.32	402.57
463.50	447.04
463.68	388.53
463.86	341.72
464.05	454.06
464.23	472.79
464.41	463.43
464.59	381.51
464.78	404.91
464.96	407.25
465.14	451.72
465.32	425.98
465.50	423.64
465.69	348.74
465.87	409.59
466.05	454.06
466.23	433.00
466.41	407.25
466.60	400.23
466.78	388.53
466.96	440.02
467.14	397.89
467.32	404.91
467.51	397.89
467.69	381.51
467.87	486.83
468.05	409.59
468.23	428.32
468.41	458.74
468.60	423.64
468.78	365.12
468.96	440.02
469.14	468.11
469.32	353.42
469.50	386.19
469.69	411.93
469.87	468.11
470.05	486.83
470.23	456.40
470.41	414.27
470.59	365.12
470.77	421.30
470.95	447.04
471.14	386.19
471.32	402.57
471.50	411.93
471.68	409.59
471.86	425.98
472.04	416.62
472.22	444.70
472.40	425.98
472.58	400.23
472.77	416.62
472.95	388.53
473.13	479.81
473.31	386.19
473.49	444.70
473.67	442.36
473.85	468.11
474.03	407.25
474.21	435.34
474.39	423.64
474.57	454.06
474.75	449.38
474.93	383.85
475.12	367.46
475.30	414.27
475.48	322.99
475.66	421.30
475.84	383.85
476.02	407.25
476.20	451.72
476.38	468.11
476.56	437.68
476.74	376.83
476.92	400.23
477.10	423.64
477.28	414.27
477.46	372.15
477.64	442.36
477.82	381.51
478.00	437.68
478.18	395.55
478.36	346.40
478.54	397.89
478.72	407.25
478.90	365.12
479.08	374.49
479.26	456.40
479.44	428.32
479.62	430.66
479.80	461.09
479.98	402.57
480.16	423.64
480.34	360.44
480.52	397.89
480.70	428.32
480.88	416.62
481.06	428.32
481.24	362.78
481.41	411.93
481.59	379.17
481.77	447.04
481.95	376.83
482.13	414.27
482.31	454.06
482.49	355.76
482.67	416.62
482.85	393.21
483.03	430.66
483.21	423.64
483.39	449.38
483.57	388.53
483.74	444.70
483.92	468.11
484.10	404.91
484.28	437.68
484.46	491.51
484.64	468.11
484.82	362.78
485.00	390.87
485.18	421.30
485.35	503.22
485.53	454.06
485.71	437.68
485.89	386.19
486.07	447.04
486.25	390.87
486.43	416.62
486.61	433.00
486.78	348.74
486.96	472.79
487.14	411.93
487.32	479.81
487.50	390.87
487.68	433.00
487.85	425.98
488.03	433.00
488.21	379.17
488.39	374.49
488.57	447.04
488.75	358.10
488.92	496.19
489.10	437.68
489.28	538.32
489.46	425.98
489.64	383.85
489.81	411.93
489.99	442.36
490.17	400.23
490.35	482.15
490.53	344.06
490.70	404.91
490.88	320.65
491.06	409.59
491.24	428.32
491.41	430.66
491.59	430.66
491.77	402.57
491.95	393.21
492.13	379.17
492.30	369.80
492.48	437.68
492.66	404.91
492.84	372.15
493.01	423.64
493.19	414.27
493.37	486.83
493.54	449.38
493.72	383.85
493.90	433.00
494.08	390.87
494.25	433.00
494.43	383.85
494.61	360.44
494.79	428.32
494.96	409.59
495.14	404.91
495.32	358.10
495.49	425.98
495.67	402.57
495.85	433.00
496.02	442.36
496.20	433.00
496.38	388.53
496.55	379.17
496.73	376.83
496.91	409.59
497.09	416.62
497.26	372.15
497.44	414.27
497.62	393.21
497.79	407.25
497.97	407.25
498.14	440.02
498.32	409.59
498.50	383.85
498.67	468.11
498.85	451.72
499.03	346.40
499.20	337.04
499.38	390.87
499.56	435.34
499.73	482.15
499.91	449.38
500.08	444.70
500.26	451.72
500.44	425.98
500.61	400.23
500.79	367.46
500.97	346.40
501.14	442.36
501.32	386.19
501.49	416.62
501.67	435.34
501.84	430.66
502.02	411.93
502.20	465.77
502.37	386.19
502.55	425.98
502.72	407.25
502.90	465.77
503.07	435.34
503.25	425.98
503.43	339.38
503.60	418.96
503.78	463.43
503.95	381.51
504.13	421.30
504.30	437.68
504.48	386.19
504.65	428.32
504.83	388.53
505.01	376.83
505.18	402.57
505.36	409.59
505.53	388.53
505.71	458.74
505.88	435.34
506.06	376.83
506.23	381.51
506.41	433.00
506.58	395.55
506.76	440.02
506.93	344.06
507.11	423.64
507.28	425.98
507.46	454.06
507.63	386.19
507.81	358.10
507.98	393.21
508.16	477.47
508.33	416.62
508.50	449.38
508.68	442.36
508.85	407.25
509.03	376.83
509.20	505.56
509.38	440.02
509.55	393.21
509.73	416.62
509.90	442.36
510.08	381.51
510.25	437.68
510.42	362.78
510.60	442.36
510.77	442.36
510.95	442.36
511.12	433.00
511.30	458.74
511.47	360.44
511.64	463.43
511.82	390.87
511.99	381.51
512.17	411.93
512.34	404.91
512.51	428.32
512.69	423.64
512.86	456.40
513.04	418.96
513.21	388.53
513.38	348.74
513.56	400.23
513.73	388.53
513.90	374.49
514.08	407.25
514.25	411.93
514.43	482.15
514.60	411.93
514.77	402.57
514.95	425.98
515.12	444.70
515.29	440.02
515.47	470.45
515.64	304.27
515.81	433.00
515.99	376.83
516.16	395.55
516.33	472.79
516.51	395.55
516.68	360.44
516.85	425.98
517.03	348.74
517.20	423.64
517.37	390.87
517.54	465.77
517.72	475.13
517.89	433.00
518.06	372.15
518.24	437.68
518.41	468.11
518.58	442.36
518.75	437.68
518.93	388.53
519.10	393.21
519.27	411.93
519.45	346.40
519.62	407.25
519.79	503.22
519.96	351.08
520.14	402.57
520.31	449.38
520.48	400.23
520.65	472.79
520.83	433.00
521.00	411.93
521.17	379.17
521.34	383.85
521.52	444.70
521.69	402.57
521.86	475.13
522.03	383.85
522.20	351.08
522.38	418.96
522.55	425.98
522.72	402.57
522.89	395.55
523.07	468.11
523.24	386.19
523.41	383.85
523.58	430.66
523.75	433.00
523.92	381.51
524.10	313.63
524.27	479.81
524.44	423.64
524.61	440.02
524.78	421.30
524.96	416.62
525.13	461.09
525.30	355.76
525.47	411.93
525.64	390.87
525.81	444.70
525.98	458.74
526.16	468.11
526.33	425.98
526.50	379.17
526.67	383.85
526.84	414.27
527.01	425.98
527.18	346.40
527.36	407.25
527.53	346.40
527.70	409.59
527.87	414.27
528.04	430.66
528.21	418.96
528.38	404.91
528.55	423.64
528.72	479.81
528.89	458.74
529.07	440.02
529.24	428.32
529.41	440.02
529.58	358.10
529.75	332.36
529.92	437.68
530.09	440.02
530.26	442.36
530.43	388.53
530.60	397.89
530.77	402.57
530.94	447.04
531.11	472.79
531.28	423.64
531.46	444.70
531.63	552.37
531.80	414.27
531.97	386.19
532.14	456.40
532.31	395.55
532.48	418.96
532.65	407.25
532.82	376.83
532.99	360.44
533.16	407.25
533.33	414.27
533.50	374.49
533.67	383.85
533.84	362.78
534.01	421.30
534.18	447.04
534.35	423.64
534.52	402.57
534.69	437.68
534.86	409.59
535.03	489.17
535.20	344.06
535.37	468.11
535.54	402.57
535.71	360.44
535.88	407.25
536.05	355.76
536.22	435.34
536.38	386.19
536.55	463.43
536.72	477.47
536.89	433.00
537.06	397.89
537.23	449.38
537.40	468.11
537.57	400.23
537.74	414.27
537.91	465.77
538.08	428.32
538.25	430.66
538.42	465.77
538.59	407.25
538.75	414.27
538.92	397.89
539.09	435.34
539.26	421.30
539.43	428.32
539.60	383.85
539.77	442.36
539.94	442.36
540.11	404.91
540.28	407.25
540.44	430.66
540.61	447.04
540.78	418.96
540.95	425.98
541.12	442.36
541.29	411.93
541.46	454.06
541.62	463.43
541.79	369.80
541.96	379.17
542.13	433.00
542.30	367.46
542.47	479.81
542.63	475.13
542.80	390.87
542.97	451.72
543.14	442.36
543.31	409.59
543.48	444.70
543.64	447.04
543.81	468.11
543.98	442.36
544.15	409.59
544.32	411.93
544.48	386.19
544.65	442.36
544.82	344.06
544.99	402.57
545.16	379.17
545.32	332.36
545.49	404.91
545.66	393.21
545.83	414.27
546.00	397.89
546.16	423.64
546.33	414.27
546.50	437.68
546.67	442.36
546.83	440.02
547.00	383.85
547.17	386.19
547.34	400.23
547.50	395.55
547.67	344.06
547.84	440.02
548.00	402.57
548.17	442.36
548.34	465.77
548.51	390.87
548.67	425.98
548.84	393.21
549.01	341.72
549.18	458.74
549.34	374.49
549.51	414.27
549.68	440.02
549.84	418.96
550.01	423.64
550.18	451.72
550.34	486.83
550.51	472.79
550.68	461.09
550.84	315.97
551.01	388.53
551.18	425.98
551.34	472.79
551.51	400.23
551.68	484.49
551.84	456.40
552.01	397.89
552.18	383.85
552.34	414.27
552.51	456.40
552.68	407.25
552.84	395.55
553.01	374.49
553.18	465.77
553.34	376.83
553.51	355.76
553.67	425.98
553.84	444.70
554.01	468.11
554.17	400.23
554.34	472.79
554.51	482.15
554.67	425.98
554.84	458.74
555.00	397.89
555.17	454.06
555.33	425.98
555.50	444.70
555.67	407.25
555.83	397.89
556.00	444.70
556.16	510.24
556.33	477.47
556.50	435.34
556.66	435.34
556.83	510.24
556.99	381.51
557.16	456.40
557.32	388.53
557.49	388.53
557.65	362.78
557.82	425.98
557.98	386.19
558.15	437.68
558.32	437.68
558.48	428.32
558.65	442.36
558.81	407.25
558.98	456.40
559.14	414.27
559.31	395.55
559.47	454.06
559.64	440.02
559.80	463.43
559.97	330.02
560.13	374.49
560.30	411.93
560.46	489.17
560.63	428.32
560.79	437.68
560.96	388.53
561.12	484.49
561.29	435.34
561.45	484.49
561.61	433.00
561.78	456.40
561.94	393.21
562.11	458.74
562.27	409.59
562.44	395.55
562.60	456.40
562.77	355.76
562.93	430.66
563.10	423.64
563.26	421.30
563.42	404.91
563.59	428.32
563.75	447.04
563.92	407.25
564.08	414.27
564.24	470.45
564.41	461.09
564.57	306.61
564.74	447.04
564.90	416.62
565.07	449.38
565.23	512.58
565.39	369.80
565.56	454.06
565.72	390.87
565.88	437.68
566.05	409.59
566.21	444.70
566.38	416.62
566.54	393.21
566.70	442.36
566.87	425.98
567.03	449.38
567.19	416.62
567.36	379.17
567.52	358.10
567.68	423.64
567.85	400.23
568.01	390.87
568.17	369.80
568.34	379.17
568.50	463.43
568.66	367.46
568.83	440.02
568.99	451.72
569.15	433.00
569.32	449.38
569.48	362.78
569.64	372.15
569.81	444.70
569.97	416.62
570.13	479.81
570.30	393.21
570.46	395.55
570.62	365.12
570.78	395.55
570.95	381.51
571.11	470.45
571.27	430.66
571.43	411.93
571.60	383.85
571.76	414.27
571.92	409.59
572.09	409.59
572.25	355.76
572.41	414.27
572.57	425.98
572.74	442.36
572.90	454.06
573.06	386.19
573.22	388.53
573.38	379.17
573.55	447.04
573.71	486.83
573.87	418.96
574.03	379.17
574.20	484.49
574.36	435.34
574.52	437.68
574.68	360.44
574.84	381.51
575.01	360.44
575.17	456.40
575.33	482.15
575.49	444.70
575.65	393.21
575.82	407.25
575.98	510.24
576.14	425.98
576.30	418.96
576.46	381.51
576.62	423.64
576.79	400.23
576.95	423.64
577.11	404.91
577.27	360.44
577.43	409.59
577.59	362.78
577.75	402.57
577.92	454.06
578.08	425.98
578.24	414.27
578.40	479.81
578.56	383.85
578.72	386.19
578.88	416.62
579.04	465.77
579.21	404.91
579.37	533.64
579.53	351.08
579.69	421.30
579.85	456.40
580.01	503.22
580.17	411.93
580.33	390.87
580.49	386.19
580.65	440.02
580.82	390.87
580.98	353.42
581.14	440.02
581.30	400.23
581.46	402.57
581.62	433.00
581.78	421.30
581.94	402.57
582.10	362.78
582.26	404.91
582.42	458.74
582.58	449.38
582.74	402.57
582.90	388.53
583.06	383.85
583.22	444.70
583.38	404.91
583.54	418.96
583.70	514.92
583.86	353.42
584.02	407.25
584.18	451.72
584.34	400.23
584.50	433.00
584.66	341.72
584.82	425.98
584.98	393.21
585.14	416.62
585.30	428.32
585.46	383.85
585.62	397.89
585.78	409.59
585.94	414.27
586.10	407.25
586.26	409.59
586.42	458.74
586.58	489.17
586.74	369.80
586.90	470.45
587.06	489.17
587.22	437.68
587.38	433.00
587.54	437.68
587.70	341.72
587.86	433.00
588.02	437.68
588.18	351.08
588.34	423.64
588.49	390.87
588.65	468.11
588.81	383.85
588.97	444.70
589.13	479.81
589.29	479.81
589.45	468.11
589.61	372.15
589.77	393.21
589.93	421.30
590.08	402.57
590.24	330.02
590.40	393.21
590.56	468.11
590.72	425.98
590.88	337.04
591.04	430.66
591.20	444.70
591.35	451.72
591.51	454.06
591.67	465.77
591.83	372.15
591.99	454.06
592.15	402.57
592.31	421.30
592.46	402.57
592.62	461.09
592.78	451.72
592.94	318.31
593.10	435.34
593.26	449.38
593.41	461.09
593.57	386.19
593.73	365.12
593.89	409.59
594.05	428.32
594.20	402.57
594.36	393.21
594.52	381.51
594.68	397.89
594.84	463.43
594.99	433.00
595.15	510.24
595.31	430.66
595.47	435.34
595.62	442.36
595.78	407.25
595.94	355.76
596.10	500.87
596.25	430.66
596.41	411.93
596.57	475.13
596.73	404.91
596.88	393.21
597.04	409.59
597.20	416.62
597.36	397.89
597.51	393.21
597.67	388.53
597.83	365.12
597.99	423.64
598.14	411.93
598.30	416.62
598.46	383.85
598.61	442.36
598.77	449.38
598.93	430.66
599.09	390.87
599.24	444.70
599.40	444.70
599.56	465.77
599.71	442.36
599.87	400.23
600.03	437.68
600.18	348.74
600.34	404.91
600.50	383.85
600.65	440.02
600.81	475.13
600.97	421.30
601.12	435.34
601.28	456.40
601.44	524.28
601.59	425.98
601.75	437.68
601.91	402.57
602.06	388.53
602.22	449.38
602.37	381.51
602.53	414.27
602.69	486.83
602.84	416.62
603.00	381.51
603.16	383.85
603.31	409.59
603.47	400.23
603.62	369.80
603.78	479.81
603.94	449.38
604.09	409.59
604.25	503.22
604.40	437.68
604.56	379.17
604.71	430.66
604.87	397.89
605.03	397.89
605.18	454.06
605.34	461.09
605.49	362.78
605.65	442.36
605.80	376.83
605.96	372.15
606.12	393.21
606.27	482.15
606.43	465.77
606.58	449.38
606.74	402.57
606.89	447.04
607.05	409.59
607.20	372.15
607.36	463.43
607.51	388.53
607.67	402.57
607.82	358.10
607.98	390.87
608.13	477.47
608.29	358.10
608.44	498.53
608.60	421.30
608.75	428.32
608.91	449.38
609.06	430.66
609.22	454.06
609.37	388.53
609.53	374.49
609.68	365.12
609.84	386.19
609.99	388.53
610.15	477.47
610.30	397.89
610.46	458.74
610.61	484.49
610.76	454.06
610.92	351.08
611.07	440.02
611.23	514.92
611.38	416.62
611.54	440.02
611.69	472.79
611.84	379.17
612.00	470.45
612.15	355.76
612.31	428.32
612.46	386.19
612.62	423.64
612.77	421.30
612.92	421.30
613.08	444.70
613.23	374.49
613.39	468.11
613.54	386.19
613.69	442.36
613.85	383.85
614.00	416.62
614.15	449.38
614.31	428.32
614.46	315.97
614.62	337.04
614.77	435.34
614.92	372.15
615.08	428.32
615.23	393.21
615.38	489.17
615.54	390.87
615.69	468.11
615.84	449.38
616.00	365.12
616.15	386.19
616.30	301.93
616.46	381.51
616.61	369.80
616.76	425.98
616.92	390.87
617.07	423.64
617.22	428.32
617.37	425.98
617.53	402.57
617.68	404.91
617.83	386.19
617.99	463.43
618.14	428.32
618.29	393.21
618.45	418.96
618.60	409.59
618.75	440.02
618.90	435.34
619.06	428.32
619.21	437.68
619.36	465.77
619.51	395.55
619.67	421.30
619.82	395.55
619.97	435.34
620.12	449.38
620.28	353.42
620.43	409.59
620.58	414.27
620.73	465.77
620.89	454.06
621.04	435.34
621.19	486.83
621.34	411.93
621.49	344.06
621.65	421.30
621.80	430.66
621.95	395.55
622.10	512.58
622.25	393.21
622.41	402.57
622.56	386.19
622.71	425.98
622.86	484.49
623.01	425.98
623.16	360.44
623.32	456.40
623.47	418.96
623.62	428.32
623.77	381.51
623.92	386.19
624.07	393.21
624.23	407.25
624.38	404.91
624.53	360.44
624.68	418.96
624.83	435.34
624.98	395.55
625.13	376.83
625.29	409.59
625.44	454.06
625.59	402.57
625.74	393.21
625.89	423.64
626.04	360.44
626.19	358.10
626.34	402.57
626.49	425.98
626.65	341.72
626.80	442.36
626.95	430.66
627.10	383.85
627.25	344.06
627.40	421.30
627.55	360.44
627.70	374.49
627.85	414.27
628.00	470.45
628.15	435.34
628.30	409.59
628.45	390.87
628.60	470.45
628.76	423.64
628.91	433.00
629.06	461.09
629.21	416.62
629.36	351.08
629.51	365.12
629.66	430.66
629.81	449.38
629.96	440.02
630.11	383.85
630.26	407.25
630.41	423.64
630.56	379.17
630.71	397.89
630.86	407.25
631.01	414.27
631.16	414.27
631.31	397.89
631.46	376.83
631.61	411.93
631.76	308.95
631.91	395.55
632.06	442.36
632.21	388.53
632.36	449.38
632.51	407.25
632.66	397.89
632.81	449.38
632.96	421.30
633.10	425.98
633.25	421.30
633.40	423.64
633.55	454.06
633.70	409.59
633.85	395.55
634.00	362.78
634.15	344.06
634.30	444.70
634.45	407.25
634.60	444.70
634.75	355.76
634.90	355.76
635.05	449.38
635.19	456.40
635.34	395.55
635.49	374.49
635.64	430.66
635.79	334.70
635.94	416.62
636.09	365.12
636.24	367.46
636.39	360.44
636.53	437.68
636.68	379.17
636.83	409.59
636.98	479.81
637.13	468.11
637.28	482.15
637.43	440.02
637.57	393.21
637.72	400.23
637.87	346.40
638.02	423.64
638.17	423.64
638.32	440.02
638.46	400.23
638.61	479.81
638.76	362.78
638.91	418.96
639.06	409.59
639.20	430.66
639.35	482.15
639.50	489.17
639.65	435.34
639.80	418.96
639.94	402.57
640.09	458.74
640.24	397.89
640.39	407.25
640.54	416.62
640.68	404.91
640.83	430.66
640.98	346.40
641.13	383.85
641.27	383.85
641.42	414.27
641.57	414.27
641.72	454.06
641.86	397.89
642.01	386.19
642.16	372.15
642.31	447.04
642.45	381.51
642.60	477.47
642.75	386.19
642.90	374.49
643.04	435.34
643.19	437.68
643.34	376.83
643.48	404.91
643.63	430.66
643.78	454.06
643.93	379.17
644.07	395.55
644.22	484.49
644.37	500.87
644.51	437.68
644.66	386.19
644.81	339.38
644.95	454.06
645.10	449.38
645.25	428.32
645.39	372.15
645.54	404.91
645.69	486.83
645.83	425.98
645.98	451.72
646.13	393.21
646.27	414.27
646.42	369.80
646.57	402.57
646.71	437.68
646.86	440.02
647.00	351.08
647.15	411.93
647.30	454.06
647.44	355.76
647.59	358.10
647.74	351.08
647.88	393.21
648.03	369.80
648.17	376.83
648.32	468.11
648.47	393.21
648.61	411.93
648.76	449.38
648.90	383.85
649.05	358.10
649.20	444.70
649.34	397.89
649.49	454.06
649.63	411.93
649.78	423.64
649.92	477.47
650.07	372.15
650.21	372.15
650.36	454.06
650.51	442.36
650.65	414.27
650.80	423.64
650.94	411.93
651.09	486.83
651.23	397.89
651.38	379.17
651.52	433.00
651.67	362.78
651.81	372.15
651.96	444.70
652.10	435.34
652.25	393.21
652.39	425.98
652.54	376.83
652.68	407.25
652.83	402.57
652.97	376.83
653.12	367.46
653.26	379.17
653.41	383.85
653.55	414.27
653.70	428.32
653.84	360.44
653.99	411.93
654.13	397.89
654.27	472.79
654.42	395.55
654.56	393.21
654.71	458.74
654.85	409.59
655.00	442.36
655.14	360.44
655.29	393.21
655.43	360.44
655.57	461.09
655.72	367.46
655.86	308.95
656.01	444.70
656.15	388.53
656.30	484.49
656.44	400.23
656.58	433.00
656.73	297.25
656.87	407.25
657.01	449.38
657.16	498.53
657.30	411.93
657.45	437.68
657.59	390.87
657.73	414.27
657.88	409.59
658.02	545.34
658.16	381.51
658.31	409.59
658.45	365.12
658.60	367.46
658.74	503.22
658.88	374.49
659.03	362.78
659.17	416.62
659.31	353.42
659.46	388.53
659.60	374.49
659.74	444.70
659.89	395.55
660.03	421.30
660.17	454.06
660.32	388.53
660.46	489.17
660.60	355.76
660.74	477.47
660.89	447.04
661.03	395.55
661.17	383.85
661.32	423.64
661.46	421.30
661.60	421.30
661.74	344.06
661.89	456.40
662.03	435.34
662.17	447.04
662.31	451.72
662.46	463.43
662.60	468.11
662.74	395.55
662.88	407.25
663.03	381.51
663.17	440.02
663.31	346.40
663.45	362.78
663.60	407.25
663.74	348.74
663.88	393.21
664.02	397.89
664.17	402.57
664.31	379.17
664.45	411.93
664.59	433.00
664.73	484.49
664.88	369.80
665.02	367.46
665.16	348.74
665.30	393.21
665.44	355.76
665.59	409.59
665.73	418.96
665.87	489.17
666.01	355.76
666.15	433.00
666.29	416.62
666.44	358.10
666.58	454.06
666.72	418.96
666.86	421.30
667.00	472.79
667.14	397.89
667.28	447.04
667.43	381.51
667.57	402.57
667.71	381.51
667.85	458.74
667.99	440.02
668.13	320.65
668.27	435.34
668.41	397.89
668.56	449.38
668.70	414.27
668.84	435.34
668.98	435.34
669.12	428.32
669.26	369.80
669.40	500.87
669.54	449.38
669.68	430.66
669.82	327.68
669.96	414.27
670.10	367.46
670.25	433.00
670.39	395.55
670.53	395.55
670.67	468.11
670.81	477.47
670.95	407.25
671.09	404.91
671.23	425.98
671.37	484.49
671.51	435.34
671.65	435.34
671.79	458.74
671.93	461.09
672.07	486.83
672.21	437.68
672.35	451.72
672.49	381.51
672.63	407.25
672.77	414.27
672.91	421.30
673.05	418.96
673.19	393.21
673.33	351.08
673.47	435.34
673.61	414.27
673.75	421.30
673.89	376.83
674.03	449.38
674.17	468.11
674.31	425.98
674.45	456.40
674.59	379.17
674.73	376.83
674.87	425.98
675.01	416.62
675.15	425.98
675.29	442.36
675.43	322.99
675.56	489.17
675.70	393.21
675.84	409.59
675.98	393.21
676.12	402.57
676.26	388.53
676.40	330.02
676.54	379.17
676.68	486.83
676.82	383.85
676.96	447.04
677.10	423.64
677.23	451.72
677.37	388.53
677.51	376.83
677.65	444.70
677.79	372.15
677.93	409.59
678.07	355.76
678.21	376.83
678.34	440.02
678.48	428.32
678.62	414.27
678.76	330.02
678.90	484.49
679.04	449.38
679.18	414.27
679.31	407.25
679.45	360.44
679.59	411.93
679.73	379.17
679.87	393.21
680.00	465.77
680.14	376.83
680.28	409.59
680.42	393.21
680.56	409.59
680.70	358.10
680.83	381.51
680.97	428.32
681.11	407.25
681.25	416.62
681.39	404.91
681.52	402.57
681.66	463.43
681.80	461.09
681.94	451.72
682.07	435.34
682.21	402.57
682.35	376.83
682.49	428.32
682.62	386.19
682.76	411.93
682.90	421.30
683.04	404.91
683.17	411.93
683.31	374.49
683.45	388.53
683.59	454.06
683.72	461.09
683.86	435.34
684.00	414.27
684.13	505.56
684.27	433.00
684.41	461.09
684.55	458.74
684.68	456.40
684.82	397.89
684.96	393.21
685.09	430.66
685.23	348.74
685.37	458.74
685.50	416.62
685.64	414.27
685.78	433.00
685.91	449.38
686.05	475.13
686.19	425.98
686.32	423.64
686.46	346.40
686.60	435.34
686.73	470.45
686.87	400.23
687.01	311.29
687.14	348.74
687.28	381.51
687.42	325.33
687.55	430.66
687.69	463.43
687.82	484.49
687.96	390.87
688.10	334.70
688.23	418.96
688.37	479.81
688.50	428.32
688.64	425.98
688.78	374.49
688.91	423.64
689.05	437.68
689.18	362.78
689.32	339.38
689.46	393.21
689.59	369.80
689.73	362.78
689.86	397.89
690.00	346.40
690.13	383.85
690.27	423.64
690.41	372.15
690.54	421.30
690.68	372.15
690.81	395.55
690.95	421.30
691.08	397.89
691.22	437.68
691.35	482.15
691.49	348.74
691.62	442.36
691.76	435.34
691.89	512.58
692.03	388.53
692.16	388.53
692.30	381.51
692.43	397.89
692.57	414.27
692.70	454.06
692.84	437.68
692.97	433.00
693.11	355.76
693.24	437.68
693.38	428.32
693.51	376.83
693.65	423.64
693.78	334.70
693.92	409.59
694.05	386.19
694.19	442.36
694.32	510.24
694.45	402.57
694.59	400.23
694.72	381.51
694.86	414.27
694.99	369.80
695.13	416.62
695.26	451.72
695.39	362.78
695.53	407.25
695.66	376.83
695.80	407.25
695.93	395.55
696.07	440.02
696.20	400.23
696.33	369.80
696.47	402.57
696.60	304.27
696.73	477.47
696.87	437.68
697.00	341.72
697.14	383.85
697.27	489.17
697.40	500.87
697.54	428.32
697.67	454.06
697.80	414.27
697.94	404.91
698.07	416.62
698.21	379.17
698.34	393.21
698.47	337.04
698.61	376.83
698.74	372.15
698.87	372.15
699.01	390.87
699.14	416.62
699.27	404.91
699.40	465.77
699.54	435.34
699.67	425.98
699.80	421.30
699.94	447.04
700.07	376.83
700.20	416.62
700.34	430.66
700.47	400.23
700.60	348.74
700.73	458.74
700.87	386.19
701.00	407.25
701.13	407.25
701.26	376.83
701.40	365.12
701.53	383.85
701.66	411.93
701.79	414.27
701.93	437.68
702.06	409.59
702.19	458.74
702.32	486.83
702.46	400.23
702.59	461.09
702.72	421.30
702.85	409.59
702.99	423.64
703.12	421.30
703.25	341.72
703.38	416.62
703.51	416.62
703.65	472.79
703.78	379.17
703.91	386.19
704.04	416.62
704.17	461.09
704.31	365.12
704.44	334.70
704.57	425.98
704.70	397.89
704.83	383.85
704.96	383.85
705.10	458.74
705.23	430.66
>>>>>End Processed Spectral Data<<<<<
