SpectraSuite Data File
++++++++++++++++++++++++++++++++++++
Date: Fri Oct 25 12:10:26 EDT 2013
User: price-jones
Dark Spectrum Present: No
Reference Spectrum Present: No
Number of Sampled Component Spectra: 1
Spectrometers: USB2+H05261
Integration Time (usec): 100000 (USB2+H05261)
Spectra Averaged: 1 (USB2+H05261)
Boxcar Smoothing: 0 (USB2+H05261)
Correct for Electrical Dark: No (USB2+H05261)
Strobe/Lamp Enabled: No (USB2+H05261)
Correct for Detector Non-linearity: No (USB2+H05261)
Correct for Stray Light: No (USB2+H05261)
Number of Pixels in Processed Spectrum: 2048
>>>>>Begin Processed Spectral Data<<<<<
365.73	351.08
365.92	351.08
366.12	351.08
366.32	276.18
366.52	245.76
366.72	215.33
366.91	299.59
367.11	191.92
367.31	252.78
367.51	191.92
367.70	205.97
367.90	278.52
368.10	234.05
368.30	222.35
368.49	262.14
368.69	322.99
368.89	276.18
369.09	266.82
369.28	276.18
369.48	278.52
369.68	262.14
369.87	205.97
370.07	252.78
370.27	348.74
370.47	344.06
370.66	269.16
370.86	365.12
371.06	376.83
371.25	393.21
371.45	294.91
371.65	395.55
371.84	390.87
372.04	388.53
372.24	369.80
372.44	388.53
372.63	386.19
372.83	337.04
373.03	461.09
373.22	386.19
373.42	440.02
373.62	440.02
373.81	444.70
374.01	484.49
374.21	400.23
374.40	353.42
374.60	428.32
374.79	388.53
374.99	442.36
375.19	418.96
375.38	365.12
375.58	435.34
375.78	435.34
375.97	383.85
376.17	435.34
376.37	498.53
376.56	423.64
376.76	355.76
376.95	440.02
377.15	512.58
377.35	421.30
377.54	418.96
377.74	425.98
377.93	348.74
378.13	477.47
378.33	425.98
378.52	381.51
378.72	414.27
378.91	465.77
379.11	407.25
379.31	409.59
379.50	397.89
379.70	416.62
379.89	503.22
380.09	390.87
380.28	341.72
380.48	458.74
380.68	388.53
380.87	360.44
381.07	449.38
381.26	447.04
381.46	425.98
381.65	372.15
381.85	341.72
382.04	404.91
382.24	397.89
382.43	397.89
382.63	404.91
382.83	397.89
383.02	376.83
383.22	482.15
383.41	379.17
383.61	407.25
383.80	416.62
384.00	381.51
384.19	414.27
384.39	442.36
384.58	381.51
384.78	433.00
384.97	416.62
385.17	397.89
385.36	374.49
385.56	390.87
385.75	409.59
385.95	395.55
386.14	447.04
386.34	428.32
386.53	381.51
386.72	496.19
386.92	414.27
387.11	360.44
387.31	456.40
387.50	407.25
387.70	348.74
387.89	425.98
388.09	451.72
388.28	386.19
388.48	425.98
388.67	418.96
388.86	409.59
389.06	425.98
389.25	369.80
389.45	423.64
389.64	367.46
389.84	411.93
390.03	376.83
390.22	486.83
390.42	454.06
390.61	463.43
390.81	433.00
391.00	428.32
391.19	425.98
391.39	463.43
391.58	451.72
391.78	353.42
391.97	397.89
392.16	435.34
392.36	430.66
392.55	484.49
392.75	400.23
392.94	381.51
393.13	449.38
393.33	379.17
393.52	344.06
393.71	386.19
393.91	348.74
394.10	365.12
394.29	428.32
394.49	379.17
394.68	463.43
394.88	346.40
395.07	332.36
395.26	395.55
395.46	400.23
395.65	402.57
395.84	433.00
396.04	489.17
396.23	440.02
396.42	449.38
396.62	433.00
396.81	404.91
397.00	409.59
397.19	348.74
397.39	416.62
397.58	365.12
397.77	411.93
397.97	435.34
398.16	444.70
398.35	411.93
398.55	395.55
398.74	402.57
398.93	386.19
399.12	461.09
399.32	428.32
399.51	411.93
399.70	379.17
399.90	454.06
400.09	369.80
400.28	442.36
400.47	346.40
400.67	397.89
400.86	397.89
401.05	447.04
401.24	365.12
401.44	390.87
401.63	430.66
401.82	430.66
402.01	393.21
402.21	428.32
402.40	369.80
402.59	388.53
402.78	458.74
402.97	411.93
403.17	472.79
403.36	374.49
403.55	395.55
403.74	383.85
403.93	414.27
404.13	449.38
404.32	383.85
404.51	404.91
404.70	393.21
404.89	514.92
405.09	383.85
405.28	407.25
405.47	400.23
405.66	376.83
405.85	437.68
406.05	414.27
406.24	409.59
406.43	320.65
406.62	383.85
406.81	433.00
407.00	407.25
407.20	400.23
407.39	411.93
407.58	393.21
407.77	425.98
407.96	449.38
408.15	435.34
408.34	433.00
408.54	388.53
408.73	388.53
408.92	395.55
409.11	456.40
409.30	416.62
409.49	386.19
409.68	418.96
409.87	442.36
410.07	393.21
410.26	442.36
410.45	421.30
410.64	381.51
410.83	344.06
411.02	397.89
411.21	400.23
411.40	418.96
411.59	355.76
411.78	400.23
411.98	341.72
412.17	360.44
412.36	425.98
412.55	292.57
412.74	395.55
412.93	498.53
413.12	360.44
413.31	430.66
413.50	425.98
413.69	454.06
413.88	456.40
414.07	456.40
414.26	400.23
414.45	400.23
414.64	416.62
414.83	407.25
415.02	388.53
415.22	362.78
415.41	358.10
415.60	393.21
415.79	362.78
415.98	423.64
416.17	444.70
416.36	414.27
416.55	351.08
416.74	433.00
416.93	383.85
417.12	449.38
417.31	465.77
417.50	372.15
417.69	456.40
417.88	362.78
418.07	315.97
418.26	327.68
418.45	416.62
418.64	400.23
418.83	397.89
419.02	344.06
419.21	390.87
419.39	376.83
419.58	423.64
419.77	411.93
419.96	365.12
420.15	414.27
420.34	397.89
420.53	358.10
420.72	411.93
420.91	418.96
421.10	402.57
421.29	470.45
421.48	437.68
421.67	449.38
421.86	404.91
422.05	428.32
422.24	477.47
422.43	393.21
422.61	423.64
422.80	397.89
422.99	496.19
423.18	418.96
423.37	468.11
423.56	456.40
423.75	365.12
423.94	482.15
424.13	416.62
424.32	407.25
424.50	381.51
424.69	390.87
424.88	531.30
425.07	498.53
425.26	407.25
425.45	435.34
425.64	334.70
425.83	425.98
426.01	435.34
426.20	395.55
426.39	341.72
426.58	437.68
426.77	423.64
426.96	404.91
427.15	447.04
427.33	437.68
427.52	409.59
427.71	379.17
427.90	409.59
428.09	477.47
428.28	418.96
428.46	418.96
428.65	379.17
428.84	337.04
429.03	421.30
429.22	386.19
429.40	397.89
429.59	468.11
429.78	404.91
429.97	404.91
430.16	402.57
430.34	418.96
430.53	404.91
430.72	376.83
430.91	386.19
431.10	369.80
431.28	512.58
431.47	411.93
431.66	440.02
431.85	447.04
432.03	367.46
432.22	456.40
432.41	411.93
432.60	442.36
432.79	402.57
432.97	362.78
433.16	416.62
433.35	404.91
433.54	404.91
433.72	358.10
433.91	383.85
434.10	393.21
434.28	416.62
434.47	409.59
434.66	433.00
434.85	353.42
435.03	437.68
435.22	442.36
435.41	360.44
435.59	447.04
435.78	449.38
435.97	447.04
436.16	381.51
436.34	365.12
436.53	421.30
436.72	500.87
436.90	327.68
437.09	393.21
437.28	463.43
437.46	433.00
437.65	353.42
437.84	454.06
438.02	365.12
438.21	507.90
438.40	416.62
438.58	416.62
438.77	388.53
438.96	418.96
439.14	383.85
439.33	428.32
439.52	376.83
439.70	465.77
439.89	472.79
440.08	428.32
440.26	449.38
440.45	435.34
440.63	423.64
440.82	393.21
441.01	411.93
441.19	383.85
441.38	397.89
441.57	440.02
441.75	369.80
441.94	447.04
442.12	433.00
442.31	362.78
442.50	397.89
442.68	386.19
442.87	383.85
443.05	440.02
443.24	454.06
443.43	440.02
443.61	365.12
443.80	416.62
443.98	376.83
444.17	390.87
444.35	449.38
444.54	458.74
444.73	362.78
444.91	486.83
445.10	414.27
445.28	393.21
445.47	404.91
445.65	451.72
445.84	376.83
446.02	444.70
446.21	416.62
446.39	397.89
446.58	472.79
446.77	440.02
446.95	334.70
447.14	440.02
447.32	449.38
447.51	465.77
447.69	493.85
447.88	423.64
448.06	383.85
448.25	505.56
448.43	358.10
448.62	442.36
448.80	404.91
448.99	351.08
449.17	386.19
449.36	409.59
449.54	421.30
449.73	397.89
449.91	430.66
450.10	390.87
450.28	477.47
450.46	341.72
450.65	362.78
450.83	390.87
451.02	400.23
451.20	433.00
451.39	435.34
451.57	416.62
451.76	358.10
451.94	383.85
452.13	416.62
452.31	388.53
452.49	491.51
452.68	418.96
452.86	456.40
453.05	411.93
453.23	416.62
453.42	395.55
453.60	428.32
453.78	425.98
453.97	381.51
454.15	477.47
454.34	435.34
454.52	449.38
454.70	411.93
454.89	409.59
455.07	411.93
455.26	393.21
455.44	383.85
455.62	425.98
455.81	482.15
455.99	437.68
456.17	404.91
456.36	444.70
456.54	407.25
456.73	374.49
456.91	393.21
457.09	484.49
457.28	407.25
457.46	421.30
457.64	433.00
457.83	386.19
458.01	379.17
458.19	425.98
458.38	346.40
458.56	346.40
458.74	449.38
458.93	454.06
459.11	337.04
459.29	416.62
459.48	400.23
459.66	402.57
459.84	414.27
460.03	463.43
460.21	400.23
460.39	407.25
460.57	475.13
460.76	383.85
460.94	402.57
461.12	402.57
461.31	433.00
461.49	418.96
461.67	355.76
461.85	348.74
462.04	388.53
462.22	791.10
462.40	468.11
462.59	416.62
462.77	430.66
462.95	470.45
463.13	402.57
463.32	514.92
463.50	451.72
463.68	395.55
463.86	372.15
464.05	372.15
464.23	369.80
464.41	503.22
464.59	383.85
464.78	421.30
464.96	421.30
465.14	435.34
465.32	379.17
465.50	393.21
465.69	402.57
465.87	454.06
466.05	390.87
466.23	435.34
466.41	383.85
466.60	496.19
466.78	435.34
466.96	344.06
467.14	402.57
467.32	421.30
467.51	447.04
467.69	369.80
467.87	479.81
468.05	400.23
468.23	423.64
468.41	482.15
468.60	393.21
468.78	414.27
468.96	440.02
469.14	519.60
469.32	379.17
469.50	470.45
469.69	358.10
469.87	416.62
470.05	454.06
470.23	491.51
470.41	409.59
470.59	423.64
470.77	414.27
470.95	381.51
471.14	423.64
471.32	381.51
471.50	451.72
471.68	372.15
471.86	423.64
472.04	386.19
472.22	365.12
472.40	402.57
472.58	374.49
472.77	407.25
472.95	451.72
473.13	449.38
473.31	465.77
473.49	444.70
473.67	470.45
473.85	444.70
474.03	521.94
474.21	444.70
474.39	440.02
474.57	472.79
474.75	379.17
474.93	386.19
475.12	416.62
475.30	421.30
475.48	421.30
475.66	325.33
475.84	395.55
476.02	444.70
476.20	362.78
476.38	400.23
476.56	472.79
476.74	390.87
476.92	428.32
477.10	416.62
477.28	425.98
477.46	379.17
477.64	409.59
477.82	395.55
478.00	337.04
478.18	470.45
478.36	390.87
478.54	395.55
478.72	463.43
478.90	414.27
479.08	444.70
479.26	395.55
479.44	379.17
479.62	367.46
479.80	339.38
479.98	393.21
480.16	369.80
480.34	416.62
480.52	379.17
480.70	430.66
480.88	397.89
481.06	400.23
481.24	409.59
481.41	451.72
481.59	442.36
481.77	470.45
481.95	486.83
482.13	411.93
482.31	447.04
482.49	470.45
482.67	482.15
482.85	388.53
483.03	397.89
483.21	393.21
483.39	372.15
483.57	421.30
483.74	435.34
483.92	447.04
484.10	381.51
484.28	552.37
484.46	463.43
484.64	447.04
484.82	416.62
485.00	348.74
485.18	397.89
485.35	397.89
485.53	461.09
485.71	470.45
485.89	360.44
486.07	393.21
486.25	465.77
486.43	451.72
486.61	388.53
486.78	402.57
486.96	374.49
487.14	414.27
487.32	465.77
487.50	451.72
487.68	463.43
487.85	475.13
488.03	411.93
488.21	461.09
488.39	402.57
488.57	339.38
488.75	425.98
488.92	500.87
489.10	409.59
489.28	458.74
489.46	339.38
489.64	376.83
489.81	414.27
489.99	444.70
490.17	425.98
490.35	461.09
490.53	451.72
490.70	393.21
490.88	433.00
491.06	468.11
491.24	416.62
491.41	402.57
491.59	416.62
491.77	390.87
491.95	395.55
492.13	444.70
492.30	433.00
492.48	348.74
492.66	402.57
492.84	379.17
493.01	435.34
493.19	397.89
493.37	428.32
493.54	404.91
493.72	409.59
493.90	372.15
494.08	444.70
494.25	440.02
494.43	430.66
494.61	325.33
494.79	418.96
494.96	411.93
495.14	416.62
495.32	428.32
495.49	416.62
495.67	451.72
495.85	351.08
496.02	358.10
496.20	416.62
496.38	376.83
496.55	430.66
496.73	407.25
496.91	428.32
497.09	376.83
497.26	416.62
497.44	461.09
497.62	411.93
497.79	484.49
497.97	369.80
498.14	402.57
498.32	496.19
498.50	416.62
498.67	346.40
498.85	486.83
499.03	351.08
499.20	393.21
499.38	425.98
499.56	428.32
499.73	404.91
499.91	430.66
500.08	486.83
500.26	486.83
500.44	369.80
500.61	456.40
500.79	376.83
500.97	393.21
501.14	416.62
501.32	395.55
501.49	463.43
501.67	425.98
501.84	421.30
502.02	468.11
502.20	421.30
502.37	341.72
502.55	397.89
502.72	374.49
502.90	437.68
503.07	358.10
503.25	416.62
503.43	416.62
503.60	449.38
503.78	376.83
503.95	449.38
504.13	428.32
504.30	486.83
504.48	407.25
504.65	430.66
504.83	376.83
505.01	381.51
505.18	447.04
505.36	374.49
505.53	437.68
505.71	454.06
505.88	454.06
506.06	409.59
506.23	411.93
506.41	440.02
506.58	470.45
506.76	393.21
506.93	416.62
507.11	461.09
507.28	444.70
507.46	447.04
507.63	425.98
507.81	400.23
507.98	393.21
508.16	381.51
508.33	411.93
508.50	433.00
508.68	374.49
508.85	397.89
509.03	477.47
509.20	442.36
509.38	414.27
509.55	440.02
509.73	496.19
509.90	454.06
510.08	418.96
510.25	491.51
510.42	433.00
510.60	360.44
510.77	444.70
510.95	442.36
511.12	425.98
511.30	383.85
511.47	449.38
511.64	433.00
511.82	383.85
511.99	362.78
512.17	454.06
512.34	360.44
512.51	414.27
512.69	388.53
512.86	404.91
513.04	348.74
513.21	447.04
513.38	402.57
513.56	367.46
513.73	423.64
513.90	402.57
514.08	362.78
514.25	418.96
514.43	458.74
514.60	421.30
514.77	360.44
514.95	425.98
515.12	376.83
515.29	315.97
515.47	344.06
515.64	472.79
515.81	330.02
515.99	442.36
516.16	381.51
516.33	449.38
516.51	468.11
516.68	461.09
516.85	435.34
517.03	383.85
517.20	404.91
517.37	320.65
517.54	451.72
517.72	369.80
517.89	418.96
518.06	449.38
518.24	442.36
518.41	465.77
518.58	470.45
518.75	454.06
518.93	411.93
519.10	332.36
519.27	440.02
519.45	402.57
519.62	465.77
519.79	367.46
519.96	440.02
520.14	423.64
520.31	447.04
520.48	428.32
520.65	411.93
520.83	418.96
521.00	400.23
521.17	393.21
521.34	397.89
521.52	435.34
521.69	430.66
521.86	393.21
522.03	454.06
522.20	500.87
522.38	386.19
522.55	409.59
522.72	442.36
522.89	472.79
523.07	510.24
523.24	447.04
523.41	402.57
523.58	461.09
523.75	379.17
523.92	456.40
524.10	383.85
524.27	428.32
524.44	337.04
524.61	411.93
524.78	421.30
524.96	404.91
525.13	409.59
525.30	498.53
525.47	440.02
525.64	390.87
525.81	369.80
525.98	379.17
526.16	437.68
526.33	313.63
526.50	351.08
526.67	421.30
526.84	425.98
527.01	456.40
527.18	449.38
527.36	440.02
527.53	430.66
527.70	449.38
527.87	411.93
528.04	416.62
528.21	416.62
528.38	496.19
528.55	430.66
528.72	411.93
528.89	400.23
529.07	407.25
529.24	353.42
529.41	383.85
529.58	451.72
529.75	383.85
529.92	442.36
530.09	320.65
530.26	423.64
530.43	430.66
530.60	433.00
530.77	397.89
530.94	379.17
531.11	479.81
531.28	397.89
531.46	355.76
531.63	395.55
531.80	454.06
531.97	423.64
532.14	416.62
532.31	376.83
532.48	451.72
532.65	442.36
532.82	393.21
532.99	437.68
533.16	484.49
533.33	421.30
533.50	430.66
533.67	425.98
533.84	425.98
534.01	386.19
534.18	435.34
534.35	482.15
534.52	379.17
534.69	416.62
534.86	416.62
535.03	428.32
535.20	435.34
535.37	458.74
535.54	461.09
535.71	393.21
535.88	411.93
536.05	376.83
536.22	421.30
536.38	372.15
536.55	353.42
536.72	444.70
536.89	440.02
537.06	421.30
537.23	411.93
537.40	355.76
537.57	416.62
537.74	479.81
537.91	418.96
538.08	437.68
538.25	400.23
538.42	386.19
538.59	390.87
538.75	374.49
538.92	463.43
539.09	454.06
539.26	440.02
539.43	449.38
539.60	435.34
539.77	388.53
539.94	414.27
540.11	449.38
540.28	437.68
540.44	458.74
540.61	393.21
540.78	395.55
540.95	442.36
541.12	449.38
541.29	421.30
541.46	475.13
541.62	397.89
541.79	444.70
541.96	390.87
542.13	351.08
542.30	346.40
542.47	461.09
542.63	372.15
542.80	421.30
542.97	477.47
543.14	390.87
543.31	433.00
543.48	416.62
543.64	402.57
543.81	444.70
543.98	402.57
544.15	318.31
544.32	440.02
544.48	395.55
544.65	337.04
544.82	447.04
544.99	470.45
545.16	440.02
545.32	428.32
545.49	404.91
545.66	369.80
545.83	369.80
546.00	400.23
546.16	395.55
546.33	402.57
546.50	435.34
546.67	390.87
546.83	461.09
547.00	407.25
547.17	367.46
547.34	411.93
547.50	418.96
547.67	411.93
547.84	358.10
548.00	458.74
548.17	372.15
548.34	414.27
548.51	433.00
548.67	468.11
548.84	409.59
549.01	379.17
549.18	409.59
549.34	435.34
549.51	470.45
549.68	346.40
549.84	421.30
550.01	411.93
550.18	454.06
550.34	421.30
550.51	400.23
550.68	503.22
550.84	374.49
551.01	454.06
551.18	414.27
551.34	407.25
551.51	430.66
551.68	379.17
551.84	421.30
552.01	440.02
552.18	337.04
552.34	475.13
552.51	414.27
552.68	414.27
552.84	388.53
553.01	374.49
553.18	463.43
553.34	411.93
553.51	334.70
553.67	444.70
553.84	425.98
554.01	440.02
554.17	386.19
554.34	383.85
554.51	454.06
554.67	428.32
554.84	458.74
555.00	447.04
555.17	411.93
555.33	472.79
555.50	430.66
555.67	468.11
555.83	402.57
556.00	423.64
556.16	526.62
556.33	491.51
556.50	425.98
556.66	451.72
556.83	365.12
556.99	463.43
557.16	458.74
557.32	381.51
557.49	456.40
557.65	355.76
557.82	437.68
557.98	393.21
558.15	437.68
558.32	400.23
558.48	393.21
558.65	428.32
558.81	393.21
558.98	351.08
559.14	475.13
559.31	472.79
559.47	447.04
559.64	449.38
559.80	409.59
559.97	330.02
560.13	416.62
560.30	341.72
560.46	461.09
560.63	447.04
560.79	393.21
560.96	369.80
561.12	402.57
561.29	407.25
561.45	383.85
561.61	430.66
561.78	463.43
561.94	397.89
562.11	433.00
562.27	407.25
562.44	393.21
562.60	376.83
562.77	348.74
562.93	498.53
563.10	315.97
563.26	379.17
563.42	376.83
563.59	374.49
563.75	418.96
563.92	402.57
564.08	430.66
564.24	400.23
564.41	411.93
564.57	386.19
564.74	395.55
564.90	435.34
565.07	355.76
565.23	479.81
565.39	407.25
565.56	444.70
565.72	388.53
565.88	447.04
566.05	400.23
566.21	386.19
566.38	414.27
566.54	430.66
566.70	416.62
566.87	458.74
567.03	397.89
567.19	444.70
567.36	510.24
567.52	440.02
567.68	458.74
567.85	458.74
568.01	367.46
568.17	362.78
568.34	400.23
568.50	491.51
568.66	421.30
568.83	521.94
568.99	367.46
569.15	369.80
569.32	360.44
569.48	435.34
569.64	383.85
569.81	430.66
569.97	395.55
570.13	423.64
570.30	376.83
570.46	381.51
570.62	449.38
570.78	404.91
570.95	435.34
571.11	388.53
571.27	423.64
571.43	402.57
571.60	456.40
571.76	404.91
571.92	407.25
572.09	374.49
572.25	374.49
572.41	395.55
572.57	428.32
572.74	503.22
572.90	451.72
573.06	433.00
573.22	404.91
573.38	465.77
573.55	477.47
573.71	393.21
573.87	397.89
574.03	388.53
574.20	425.98
574.36	447.04
574.52	379.17
574.68	416.62
574.84	484.49
575.01	428.32
575.17	416.62
575.33	521.94
575.49	491.51
575.65	454.06
575.82	374.49
575.98	435.34
576.14	425.98
576.30	425.98
576.46	458.74
576.62	362.78
576.79	395.55
576.95	421.30
577.11	421.30
577.27	407.25
577.43	461.09
577.59	421.30
577.75	411.93
577.92	435.34
578.08	322.99
578.24	381.51
578.40	468.11
578.56	435.34
578.72	496.19
578.88	416.62
579.04	376.83
579.21	369.80
579.37	353.42
579.53	402.57
579.69	454.06
579.85	400.23
580.01	472.79
580.17	425.98
580.33	402.57
580.49	425.98
580.65	433.00
580.82	360.44
580.98	470.45
581.14	447.04
581.30	402.57
581.46	388.53
581.62	442.36
581.78	479.81
581.94	411.93
582.10	383.85
582.26	458.74
582.42	418.96
582.58	418.96
582.74	461.09
582.90	440.02
583.06	449.38
583.22	451.72
583.38	409.59
583.54	374.49
583.70	433.00
583.86	404.91
584.02	379.17
584.18	402.57
584.34	395.55
584.50	365.12
584.66	409.59
584.82	423.64
584.98	395.55
585.14	409.59
585.30	442.36
585.46	433.00
585.62	442.36
585.78	351.08
585.94	416.62
586.10	386.19
586.26	320.65
586.42	505.56
586.58	433.00
586.74	418.96
586.90	397.89
587.06	456.40
587.22	397.89
587.38	411.93
587.54	402.57
587.70	428.32
587.86	386.19
588.02	395.55
588.18	393.21
588.34	430.66
588.49	355.76
588.65	423.64
588.81	428.32
588.97	430.66
589.13	397.89
589.29	360.44
589.45	454.06
589.61	409.59
589.77	407.25
589.93	540.66
590.08	433.00
590.24	395.55
590.40	404.91
590.56	421.30
590.72	461.09
590.88	451.72
591.04	435.34
591.20	411.93
591.35	376.83
591.51	493.85
591.67	390.87
591.83	477.47
591.99	442.36
592.15	423.64
592.31	479.81
592.46	374.49
592.62	425.98
592.78	447.04
592.94	395.55
593.10	447.04
593.26	388.53
593.41	381.51
593.57	407.25
593.73	437.68
593.89	456.40
594.05	409.59
594.20	425.98
594.36	454.06
594.52	416.62
594.68	454.06
594.84	430.66
594.99	435.34
595.15	456.40
595.31	423.64
595.47	454.06
595.62	414.27
595.78	470.45
595.94	395.55
596.10	404.91
596.25	407.25
596.41	433.00
596.57	372.15
596.73	421.30
596.88	390.87
597.04	337.04
597.20	409.59
597.36	440.02
597.51	390.87
597.67	409.59
597.83	475.13
597.99	381.51
598.14	393.21
598.30	395.55
598.46	381.51
598.61	505.56
598.77	435.34
598.93	390.87
599.09	454.06
599.24	421.30
599.40	367.46
599.56	369.80
599.71	379.17
599.87	411.93
600.03	339.38
600.18	388.53
600.34	411.93
600.50	512.58
600.65	437.68
600.81	390.87
600.97	379.17
601.12	451.72
601.28	489.17
601.44	463.43
601.59	372.15
601.75	456.40
601.91	411.93
602.06	376.83
602.22	425.98
602.37	498.53
602.53	388.53
602.69	433.00
602.84	379.17
603.00	440.02
603.16	416.62
603.31	437.68
603.47	451.72
603.62	386.19
603.78	409.59
603.94	390.87
604.09	418.96
604.25	339.38
604.40	337.04
604.56	402.57
604.71	430.66
604.87	386.19
605.03	433.00
605.18	423.64
605.34	428.32
605.49	454.06
605.65	404.91
605.80	390.87
605.96	437.68
606.12	435.34
606.27	463.43
606.43	444.70
606.58	381.51
606.74	421.30
606.89	423.64
607.05	400.23
607.20	400.23
607.36	454.06
607.51	383.85
607.67	386.19
607.82	430.66
607.98	433.00
608.13	486.83
608.29	372.15
608.44	423.64
608.60	423.64
608.75	449.38
608.91	423.64
609.06	386.19
609.22	425.98
609.37	437.68
609.53	365.12
609.68	430.66
609.84	407.25
609.99	409.59
610.15	414.27
610.30	397.89
610.46	383.85
610.61	454.06
610.76	383.85
610.92	421.30
611.07	367.46
611.23	437.68
611.38	456.40
611.54	407.25
611.69	456.40
611.84	400.23
612.00	393.21
612.15	428.32
612.31	402.57
612.46	423.64
612.62	451.72
612.77	463.43
612.92	383.85
613.08	496.19
613.23	468.11
613.39	425.98
613.54	383.85
613.69	437.68
613.85	421.30
614.00	444.70
614.15	423.64
614.31	416.62
614.46	397.89
614.62	358.10
614.77	400.23
614.92	430.66
615.08	383.85
615.23	472.79
615.38	414.27
615.54	421.30
615.69	383.85
615.84	376.83
616.00	444.70
616.15	407.25
616.30	407.25
616.46	437.68
616.61	365.12
616.76	489.17
616.92	362.78
617.07	348.74
617.22	444.70
617.37	454.06
617.53	423.64
617.68	470.45
617.83	430.66
617.99	379.17
618.14	451.72
618.29	437.68
618.45	421.30
618.60	437.68
618.75	411.93
618.90	421.30
619.06	346.40
619.21	418.96
619.36	433.00
619.51	409.59
619.67	369.80
619.82	449.38
619.97	409.59
620.12	400.23
620.28	393.21
620.43	418.96
620.58	416.62
620.73	407.25
620.89	402.57
621.04	372.15
621.19	463.43
621.34	430.66
621.49	414.27
621.65	402.57
621.80	400.23
621.95	395.55
622.10	372.15
622.25	418.96
622.41	461.09
622.56	440.02
622.71	430.66
622.86	479.81
623.01	358.10
623.16	444.70
623.32	407.25
623.47	367.46
623.62	461.09
623.77	418.96
623.92	498.53
624.07	367.46
624.23	388.53
624.38	344.06
624.53	407.25
624.68	402.57
624.83	468.11
624.98	423.64
625.13	379.17
625.29	435.34
625.44	393.21
625.59	442.36
625.74	407.25
625.89	379.17
626.04	372.15
626.19	360.44
626.34	416.62
626.49	395.55
626.65	451.72
626.80	433.00
626.95	374.49
627.10	430.66
627.25	468.11
627.40	395.55
627.55	463.43
627.70	327.68
627.85	379.17
628.00	393.21
628.15	367.46
628.30	407.25
628.45	379.17
628.60	414.27
628.76	440.02
628.91	442.36
629.06	358.10
629.21	379.17
629.36	491.51
629.51	433.00
629.66	442.36
629.81	468.11
629.96	416.62
630.11	430.66
630.26	479.81
630.41	414.27
630.56	440.02
630.71	411.93
630.86	318.31
631.01	395.55
631.16	402.57
631.31	517.26
631.46	393.21
631.61	374.49
631.76	423.64
631.91	414.27
632.06	360.44
632.21	367.46
632.36	379.17
632.51	425.98
632.66	437.68
632.81	386.19
632.96	451.72
633.10	484.49
633.25	423.64
633.40	374.49
633.55	376.83
633.70	402.57
633.85	414.27
634.00	447.04
634.15	367.46
634.30	358.10
634.45	383.85
634.60	337.04
634.75	390.87
634.90	337.04
635.05	425.98
635.19	449.38
635.34	444.70
635.49	468.11
635.64	353.42
635.79	390.87
635.94	447.04
636.09	411.93
636.24	458.74
636.39	430.66
636.53	395.55
636.68	456.40
636.83	388.53
636.98	425.98
637.13	468.11
637.28	395.55
637.43	486.83
637.57	397.89
637.72	395.55
637.87	400.23
638.02	416.62
638.17	407.25
638.32	428.32
638.46	430.66
638.61	454.06
638.76	437.68
638.91	390.87
639.06	404.91
639.20	449.38
639.35	435.34
639.50	423.64
639.65	440.02
639.80	404.91
639.94	435.34
640.09	435.34
640.24	458.74
640.39	376.83
640.54	437.68
640.68	376.83
640.83	456.40
640.98	351.08
641.13	428.32
641.27	404.91
641.42	379.17
641.57	472.79
641.72	372.15
641.86	409.59
642.01	444.70
642.16	447.04
642.31	444.70
642.45	440.02
642.60	500.87
642.75	402.57
642.90	484.49
643.04	365.12
643.19	411.93
643.34	461.09
643.48	348.74
643.63	365.12
643.78	355.76
643.93	486.83
644.07	428.32
644.22	444.70
644.37	423.64
644.51	421.30
644.66	365.12
644.81	428.32
644.95	491.51
645.10	461.09
645.25	332.36
645.39	425.98
645.54	339.38
645.69	421.30
645.83	416.62
645.98	404.91
646.13	437.68
646.27	416.62
646.42	388.53
646.57	458.74
646.71	425.98
646.86	393.21
647.00	393.21
647.15	433.00
647.30	388.53
647.44	440.02
647.59	381.51
647.74	447.04
647.88	423.64
648.03	416.62
648.17	440.02
648.32	503.22
648.47	440.02
648.61	397.89
648.76	437.68
648.90	348.74
649.05	383.85
649.20	322.99
649.34	409.59
649.49	409.59
649.63	425.98
649.78	402.57
649.92	435.34
650.07	435.34
650.21	376.83
650.36	458.74
650.51	355.76
650.65	479.81
650.80	395.55
650.94	353.42
651.09	489.17
651.23	454.06
651.38	433.00
651.52	374.49
651.67	440.02
651.81	409.59
651.96	416.62
652.10	444.70
652.25	327.68
652.39	423.64
652.54	454.06
652.68	351.08
652.83	493.85
652.97	367.46
653.12	435.34
653.26	390.87
653.41	416.62
653.55	456.40
653.70	407.25
653.84	390.87
653.99	402.57
654.13	367.46
654.27	418.96
654.42	388.53
654.56	358.10
654.71	425.98
654.85	425.98
655.00	414.27
655.14	411.93
655.29	414.27
655.43	437.68
655.57	458.74
655.72	425.98
655.86	425.98
656.01	404.91
656.15	435.34
656.30	463.43
656.44	433.00
656.58	475.13
656.73	404.91
656.87	402.57
657.01	416.62
657.16	491.51
657.30	428.32
657.45	437.68
657.59	411.93
657.73	468.11
657.88	390.87
658.02	442.36
658.16	425.98
658.31	430.66
658.45	470.45
658.60	386.19
658.74	428.32
658.88	362.78
659.03	470.45
659.17	397.89
659.31	369.80
659.46	435.34
659.60	447.04
659.74	411.93
659.89	402.57
660.03	395.55
660.17	425.98
660.32	456.40
660.46	362.78
660.60	440.02
660.74	479.81
660.89	374.49
661.03	437.68
661.17	402.57
661.32	390.87
661.46	390.87
661.60	449.38
661.74	465.77
661.89	442.36
662.03	423.64
662.17	402.57
662.31	440.02
662.46	447.04
662.60	444.70
662.74	444.70
662.88	383.85
663.03	390.87
663.17	425.98
663.31	402.57
663.45	458.74
663.60	400.23
663.74	362.78
663.88	379.17
664.02	353.42
664.17	421.30
664.31	372.15
664.45	365.12
664.59	416.62
664.73	479.81
664.88	428.32
665.02	379.17
665.16	400.23
665.30	470.45
665.44	418.96
665.59	409.59
665.73	496.19
665.87	360.44
666.01	404.91
666.15	388.53
666.29	372.15
666.44	400.23
666.58	437.68
666.72	379.17
666.86	365.12
667.00	332.36
667.14	461.09
667.28	437.68
667.43	386.19
667.57	447.04
667.71	423.64
667.85	365.12
667.99	461.09
668.13	465.77
668.27	475.13
668.41	416.62
668.56	353.42
668.70	472.79
668.84	383.85
668.98	479.81
669.12	388.53
669.26	386.19
669.40	468.11
669.54	386.19
669.68	435.34
669.82	461.09
669.96	425.98
670.10	442.36
670.25	365.12
670.39	402.57
670.53	505.56
670.67	425.98
670.81	435.34
670.95	411.93
671.09	440.02
671.23	489.17
671.37	463.43
671.51	421.30
671.65	440.02
671.79	433.00
671.93	379.17
672.07	498.53
672.21	458.74
672.35	470.45
672.49	489.17
672.63	435.34
672.77	397.89
672.91	327.68
673.05	395.55
673.19	477.47
673.33	430.66
673.47	505.56
673.61	393.21
673.75	386.19
673.89	421.30
674.03	442.36
674.17	421.30
674.31	475.13
674.45	367.46
674.59	395.55
674.73	407.25
674.87	430.66
675.01	491.51
675.15	421.30
675.29	433.00
675.43	383.85
675.56	418.96
675.70	421.30
675.84	374.49
675.98	463.43
676.12	440.02
676.26	458.74
676.40	461.09
676.54	409.59
676.68	444.70
676.82	360.44
676.96	369.80
677.10	458.74
677.23	365.12
677.37	390.87
677.51	330.02
677.65	369.80
677.79	433.00
677.93	425.98
678.07	472.79
678.21	344.06
678.34	383.85
678.48	416.62
678.62	526.62
678.76	365.12
678.90	341.72
679.04	435.34
679.18	369.80
679.31	437.68
679.45	386.19
679.59	449.38
679.73	458.74
679.87	458.74
680.00	449.38
680.14	458.74
680.28	454.06
680.42	411.93
680.56	409.59
680.70	400.23
680.83	458.74
680.97	428.32
681.11	444.70
681.25	407.25
681.39	444.70
681.52	428.32
681.66	372.15
681.80	418.96
681.94	369.80
682.07	400.23
682.21	449.38
682.35	411.93
682.49	346.40
682.62	428.32
682.76	397.89
682.90	390.87
683.04	433.00
683.17	353.42
683.31	449.38
683.45	428.32
683.59	393.21
683.72	421.30
683.86	458.74
684.00	351.08
684.13	442.36
684.27	388.53
684.41	454.06
684.55	383.85
684.68	390.87
684.82	353.42
684.96	367.46
685.09	428.32
685.23	360.44
685.37	416.62
685.50	423.64
685.64	397.89
685.78	386.19
685.91	444.70
686.05	468.11
686.19	369.80
686.32	414.27
686.46	442.36
686.60	407.25
686.73	449.38
686.87	411.93
687.01	414.27
687.14	376.83
687.28	433.00
687.42	353.42
687.55	409.59
687.69	465.77
687.82	409.59
687.96	425.98
688.10	456.40
688.23	395.55
688.37	503.22
688.50	414.27
688.64	451.72
688.78	374.49
688.91	451.72
689.05	393.21
689.18	379.17
689.32	449.38
689.46	461.09
689.59	435.34
689.73	486.83
689.86	430.66
690.00	498.53
690.13	285.55
690.27	397.89
690.41	376.83
690.54	437.68
690.68	461.09
690.81	409.59
690.95	379.17
691.08	423.64
691.22	430.66
691.35	404.91
691.49	442.36
691.62	479.81
691.76	451.72
691.89	379.17
692.03	369.80
692.16	383.85
692.30	477.47
692.43	397.89
692.57	440.02
692.70	383.85
692.84	393.21
692.97	379.17
693.11	383.85
693.24	390.87
693.38	449.38
693.51	435.34
693.65	414.27
693.78	369.80
693.92	390.87
694.05	404.91
694.19	411.93
694.32	411.93
694.45	367.46
694.59	475.13
694.72	425.98
694.86	341.72
694.99	435.34
695.13	393.21
695.26	407.25
695.39	458.74
695.53	425.98
695.66	376.83
695.80	440.02
695.93	395.55
696.07	397.89
696.20	498.53
696.33	395.55
696.47	402.57
696.60	332.36
696.73	407.25
696.87	369.80
697.00	430.66
697.14	372.15
697.27	433.00
697.40	428.32
697.54	444.70
697.67	428.32
697.80	383.85
697.94	461.09
698.07	353.42
698.21	346.40
698.34	425.98
698.47	381.51
698.61	470.45
698.74	404.91
698.87	435.34
699.01	428.32
699.14	433.00
699.27	402.57
699.40	526.62
699.54	454.06
699.67	393.21
699.80	421.30
699.94	416.62
700.07	390.87
700.20	388.53
700.34	430.66
700.47	383.85
700.60	404.91
700.73	454.06
700.87	479.81
701.00	411.93
701.13	386.19
701.26	451.72
701.40	383.85
701.53	358.10
701.66	404.91
701.79	379.17
701.93	404.91
702.06	388.53
702.19	348.74
702.32	475.13
702.46	407.25
702.59	337.04
702.72	397.89
702.85	341.72
702.99	442.36
703.12	358.10
703.25	444.70
703.38	425.98
703.51	386.19
703.65	447.04
703.78	430.66
703.91	416.62
704.04	402.57
704.17	397.89
704.31	393.21
704.44	383.85
704.57	365.12
704.70	388.53
704.83	470.45
704.96	477.47
705.10	369.80
705.23	430.66
>>>>>End Processed Spectral Data<<<<<
