SpectraSuite Data File
++++++++++++++++++++++++++++++++++++
Date: Fri Oct 25 10:44:50 EDT 2013
User: price-jones
Dark Spectrum Present: No
Reference Spectrum Present: No
Number of Sampled Component Spectra: 1
Spectrometers: USB2+H05261
Integration Time (usec): 100000 (USB2+H05261)
Spectra Averaged: 1 (USB2+H05261)
Boxcar Smoothing: 0 (USB2+H05261)
Correct for Electrical Dark: No (USB2+H05261)
Strobe/Lamp Enabled: No (USB2+H05261)
Correct for Detector Non-linearity: No (USB2+H05261)
Correct for Stray Light: No (USB2+H05261)
Number of Pixels in Processed Spectrum: 2048
>>>>>Begin Processed Spectral Data<<<<<
365.73	98.30
365.92	98.30
366.12	98.30
366.32	105.32
366.52	0.00
366.72	56.17
366.91	25.75
367.11	67.88
367.31	39.79
367.51	0.00
367.70	0.00
367.90	37.45
368.10	14.04
368.30	21.06
368.49	0.00
368.69	74.90
368.89	44.47
369.09	42.13
369.28	49.15
369.48	65.54
369.68	37.45
369.87	140.43
370.07	117.03
370.27	102.98
370.47	285.55
370.66	334.70
370.86	447.04
371.06	489.17
371.25	461.09
371.45	402.57
371.65	475.13
371.84	416.62
372.04	400.23
372.24	458.74
372.44	442.36
372.63	465.77
372.83	472.79
373.03	575.77
373.22	521.94
373.42	557.05
373.62	507.90
373.81	496.19
374.01	535.98
374.21	561.73
374.40	510.24
374.60	550.03
374.79	526.62
374.99	575.77
375.19	540.66
375.38	547.69
375.58	613.22
375.78	578.11
375.97	524.28
376.17	655.35
376.37	603.86
376.56	554.71
376.76	477.47
376.95	578.11
377.15	578.11
377.35	580.45
377.54	592.16
377.74	573.43
377.93	571.09
378.13	575.77
378.33	671.73
378.52	554.71
378.72	568.75
378.91	592.16
379.11	608.54
379.31	526.62
379.50	599.18
379.70	676.41
379.89	674.07
380.09	638.97
380.28	669.39
380.48	653.01
380.68	624.92
380.87	650.67
381.07	706.84
381.26	741.95
381.46	629.60
381.65	674.07
381.85	629.60
382.04	683.44
382.24	690.46
382.43	690.46
382.63	706.84
382.83	730.25
383.02	774.72
383.22	739.61
383.41	678.76
383.61	660.03
383.80	779.40
384.00	650.67
384.19	730.25
384.39	688.12
384.58	788.76
384.78	716.20
384.97	667.05
385.17	739.61
385.36	706.84
385.56	723.23
385.75	681.10
385.95	746.63
386.14	793.44
386.34	676.41
386.53	751.31
386.72	805.14
386.92	763.01
387.11	798.12
387.31	784.08
387.50	798.12
387.70	816.85
387.89	786.42
388.09	849.61
388.28	767.70
388.48	819.19
388.67	823.87
388.86	814.51
389.06	873.02
389.25	844.93
389.45	929.19
389.64	894.08
389.84	858.98
390.03	961.96
390.22	943.24
390.42	936.21
390.61	931.53
390.81	866.00
391.00	945.58
391.19	959.62
391.39	947.92
391.58	917.49
391.78	915.15
391.97	910.47
392.16	868.34
392.36	968.98
392.55	1027.50
392.75	933.87
392.94	1025.15
393.13	950.26
393.33	985.37
393.52	940.90
393.71	1043.88
393.91	1053.24
394.10	1053.24
394.29	1039.20
394.49	1011.11
394.68	1130.48
394.88	1142.18
395.07	1160.91
395.26	1179.63
395.46	1203.04
395.65	1144.52
395.84	1097.71
396.04	1132.82
396.23	994.73
396.42	1130.48
396.62	1069.62
396.81	1093.03
397.00	1158.57
397.19	1242.82
397.39	1235.80
397.58	1249.85
397.77	1221.76
397.97	1334.11
398.16	1165.59
398.35	1315.38
398.55	1378.58
398.74	1385.60
398.93	1369.21
399.12	1254.53
399.32	1418.36
399.51	1355.17
399.70	1383.26
399.90	1369.21
400.09	1385.60
400.28	1413.68
400.47	1390.28
400.67	1565.82
400.86	1420.71
401.05	1455.81
401.24	1451.13
401.44	1423.05
401.63	1462.83
401.82	1502.62
402.01	1502.62
402.21	1511.99
402.40	1568.16
402.59	1483.90
402.78	1561.14
402.97	1579.86
403.17	1563.48
403.36	1572.84
403.55	1650.08
403.74	1584.54
403.93	1699.23
404.13	1654.76
404.32	1647.74
404.51	1619.65
404.70	1692.21
404.89	1619.65
405.09	1717.95
405.28	1764.76
405.47	1668.80
405.66	1657.10
405.85	1727.32
406.05	1699.23
406.24	1760.08
406.43	1795.19
406.62	1769.44
406.81	1895.83
407.00	1823.28
407.20	1734.34
407.39	1851.36
407.58	1872.43
407.77	1891.15
407.96	2019.88
408.15	1893.49
408.34	1991.80
408.54	1998.82
408.73	1996.48
408.92	2090.10
409.11	2115.84
409.30	2069.03
409.49	1947.33
409.68	1970.73
409.87	2024.56
410.07	2129.89
410.26	2169.68
410.45	2176.70
410.64	2073.71
410.83	2129.89
411.02	2237.55
411.21	2289.04
411.40	2265.64
411.59	2314.79
411.78	2293.72
411.98	2356.92
412.17	2382.67
412.36	2431.82
412.55	2380.32
412.74	2560.55
412.93	2490.33
413.12	2389.69
413.31	2525.44
413.50	2455.22
413.69	2499.69
413.88	2684.59
414.07	2504.37
414.26	2637.78
414.45	2616.72
414.64	2750.13
414.83	2740.77
415.02	2759.49
415.22	2675.23
415.41	2745.45
415.60	2771.19
415.79	2869.50
415.98	2871.84
416.17	2768.85
416.36	2932.69
416.55	2906.95
416.74	2937.37
416.93	2953.76
417.12	2918.65
417.31	2967.80
417.50	3108.23
417.69	3108.23
417.88	2977.16
418.07	2995.89
418.26	3159.72
418.45	3035.67
418.64	3255.69
418.83	3253.34
419.02	3152.70
419.21	3251.00
419.39	3169.09
419.58	3126.96
419.77	3162.06
419.96	3241.64
420.15	3283.77
420.34	3227.60
420.53	3295.47
420.72	3431.23
420.91	3342.28
421.10	3328.24
421.29	3473.36
421.48	3438.25
421.67	3459.31
421.86	3466.33
422.05	3461.65
422.24	3311.86
422.43	3358.67
422.61	3393.78
422.80	3405.48
422.99	3433.57
423.18	3468.67
423.37	3562.30
423.56	3618.47
423.75	3538.89
423.94	3522.51
424.13	3225.26
424.32	3396.12
424.50	3595.06
424.69	3705.07
424.88	3653.58
425.07	3478.04
425.26	3456.97
425.45	3559.95
425.64	3653.58
425.83	3555.27
426.01	3599.74
426.20	3681.66
426.39	3747.20
426.58	3510.80
426.77	3555.27
426.96	3585.70
427.15	3653.58
427.33	3651.24
427.52	3625.49
427.71	3712.09
427.90	3698.05
428.09	3686.34
428.28	3815.07
428.46	3894.65
428.65	3707.41
428.84	3875.93
429.03	3854.86
429.22	3880.61
429.40	3803.37
429.59	3721.45
429.78	3632.51
429.97	3602.08
430.16	3786.99
430.34	3817.41
430.53	3847.84
430.72	3875.93
430.91	3934.44
431.10	3859.54
431.28	4105.30
431.47	4119.34
431.66	4196.58
431.85	4152.11
432.03	4313.61
432.22	4194.24
432.41	4269.14
432.60	4280.84
432.79	4117.00
432.97	4374.46
433.16	4283.18
433.35	4238.71
433.54	4269.14
433.72	4248.07
433.91	4264.46
434.10	4187.22
434.28	4297.22
434.47	4465.74
434.66	4510.21
434.85	4386.16
435.03	4477.44
435.22	4421.27
435.41	4643.62
435.59	4559.36
435.78	4610.86
435.97	4540.64
436.16	4538.30
436.34	4552.34
436.53	4559.36
436.72	4734.90
436.90	4535.96
437.09	4709.16
437.28	4559.36
437.46	4699.80
437.65	4613.20
437.84	4840.23
438.02	4692.77
438.21	4788.74
438.40	4671.71
438.58	4748.95
438.77	4933.85
438.96	4971.30
439.14	5060.24
439.33	4887.04
439.52	5034.49
439.70	4943.21
439.89	5032.15
440.08	5102.37
440.26	5207.69
440.45	5100.03
440.63	5214.71
440.82	5315.36
441.01	5355.15
441.19	5516.64
441.38	5486.22
441.57	5516.64
441.75	5432.38
441.94	5661.76
442.12	5778.78
442.31	5675.80
442.50	5771.76
442.68	5818.57
442.87	5757.72
443.05	5600.90
443.24	5872.40
443.43	5769.42
443.61	5802.19
443.80	5874.74
443.98	5860.70
444.17	5734.31
444.35	5724.95
444.54	5921.56
444.73	5872.40
444.91	5872.40
445.10	5729.63
445.28	5856.02
445.47	5774.10
445.65	5748.36
445.84	5872.40
446.02	5919.21
446.21	5898.15
446.39	5919.21
446.58	5973.05
446.77	5860.70
446.95	5914.53
447.14	5776.44
447.32	6015.18
447.51	6146.25
447.69	6040.92
447.88	6104.12
448.06	5895.81
448.25	6092.41
448.43	6005.81
448.62	6127.52
448.80	6115.82
448.99	6167.31
449.17	6099.44
449.36	6061.99
449.54	6239.87
449.73	6242.21
449.91	6417.75
450.10	6359.24
450.28	6314.77
450.46	6476.26
450.65	6452.86
450.83	6567.54
451.02	6450.52
451.20	6307.74
451.39	6612.01
451.57	6583.93
451.76	6366.26
451.94	6399.02
452.13	6607.33
452.31	6530.09
452.49	6253.91
452.68	6377.96
452.86	6502.01
453.05	6724.36
453.23	6693.93
453.42	6597.97
453.60	6661.16
453.78	6710.32
453.97	6684.57
454.15	6586.27
454.34	6623.72
454.52	6696.27
454.70	6787.55
454.89	6904.58
455.07	6813.30
455.26	6810.96
455.44	6895.22
455.62	6970.12
455.81	6930.33
455.99	7030.97
456.17	7056.72
456.36	7030.97
456.54	7073.10
456.73	7162.04
456.91	7330.56
457.09	7344.60
457.28	7370.35
457.46	7110.55
457.64	7351.62
457.83	7363.33
458.01	7218.21
458.19	7522.48
458.38	7431.20
458.56	7410.14
458.74	7494.40
458.93	7360.98
459.11	7487.37
459.29	7569.29
459.48	7508.44
459.66	7585.68
459.84	7440.56
460.03	7655.89
460.21	7728.45
460.39	7648.87
460.57	7461.63
460.76	7763.56
460.94	7702.70
461.12	7831.43
461.31	7822.07
461.49	7885.26
461.67	7822.07
461.85	7967.18
462.04	7812.71
462.22	8105.28
462.40	7967.18
462.59	8060.80
462.77	8037.40
462.95	7962.50
463.13	8044.42
463.32	8114.64
463.50	8369.76
463.68	8191.88
463.86	8236.35
464.05	8105.28
464.23	7889.95
464.41	8124.00
464.59	8004.63
464.78	8229.32
464.96	8070.17
465.14	8114.64
465.32	8271.45
465.50	8418.91
465.69	8423.59
465.87	8402.52
466.05	8383.80
466.23	8355.71
466.41	8353.37
466.60	8461.04
466.78	8400.18
466.96	8449.33
467.14	8470.40
467.32	8503.17
467.51	8706.79
467.69	8388.48
467.87	8461.04
468.05	8535.93
468.23	8657.64
468.41	8659.98
468.60	8496.14
468.78	8777.01
468.96	8477.42
469.14	8844.88
469.32	8809.78
469.50	8620.19
469.69	8879.99
469.87	8971.27
470.05	9160.86
470.23	8940.85
470.41	8945.53
470.59	9123.41
470.77	9064.89
470.95	9123.41
471.14	9341.08
471.32	9256.82
471.50	9294.27
471.68	9200.65
471.86	9308.31
472.04	9298.95
472.22	9753.01
472.40	9294.27
472.58	9418.32
472.77	9540.02
472.95	9514.28
473.13	9942.60
473.31	9626.62
473.49	9502.58
473.67	9647.69
473.85	9631.30
474.03	9973.02
474.21	10047.92
474.39	10087.71
474.57	10188.35
474.75	10218.78
474.93	10153.24
475.12	10434.11
475.30	10253.89
475.48	10277.29
475.66	10368.57
475.84	10181.33
476.02	10368.57
476.20	10242.18
476.38	10539.43
476.56	10958.39
476.74	10628.37
476.92	10609.65
477.10	10569.86
477.28	10913.92
477.46	10832.00
477.64	11098.82
477.82	11274.36
478.00	11468.62
478.18	11379.68
478.36	11494.37
478.54	11573.95
478.72	11405.43
478.90	11822.05
479.08	11887.58
479.26	11763.53
479.44	12011.63
479.62	12030.35
479.80	12248.02
479.98	12112.27
480.16	12418.88
480.34	12365.05
480.52	12393.14
480.70	12503.14
480.88	12264.41
481.06	12683.36
481.24	12564.00
481.41	13212.32
481.59	12889.33
481.77	12943.16
481.95	13200.62
482.13	13331.69
482.31	13142.11
482.49	13530.64
482.67	13708.52
482.85	13486.17
483.03	13820.86
483.21	14036.19
483.39	14092.37
483.57	13884.06
483.74	14022.15
483.92	14389.61
484.10	14045.55
484.28	14590.90
484.46	14780.48
484.64	14761.76
484.82	14511.32
485.00	14792.19
485.18	15220.50
485.35	15447.54
485.53	14787.50
485.71	15030.92
485.89	15304.76
486.07	15180.71
486.25	15234.55
486.43	15506.05
486.61	15672.23
486.78	15997.56
486.96	16098.20
487.14	16329.92
487.32	16046.71
487.50	16460.99
487.68	16556.95
487.85	16493.76
488.03	16627.17
488.21	17064.85
488.39	17118.68
488.57	17186.55
488.75	17263.79
488.92	17668.70
489.10	17628.92
489.28	17692.11
489.46	17675.73
489.64	17811.48
489.81	18111.07
489.99	18401.29
490.17	18490.23
490.35	18478.53
490.53	18284.26
490.70	18925.57
490.88	18925.57
491.06	19143.24
491.24	18691.52
491.41	18958.34
491.59	19494.32
491.77	19389.00
491.95	19470.92
492.13	19814.98
492.30	19969.45
492.48	19674.54
492.66	19889.87
492.84	20217.55
493.01	20472.67
493.19	20283.08
493.37	20521.82
493.54	20386.07
493.72	20868.22
493.90	20655.23
494.08	20702.04
494.25	21319.94
494.43	21053.12
494.61	21572.72
494.79	21535.27
494.96	21364.41
495.14	21483.78
495.32	21830.18
495.49	21785.71
495.67	22010.40
495.85	22256.15
496.02	22001.04
496.20	22075.93
496.38	22562.76
496.55	22836.61
496.73	22960.66
496.91	22792.14
497.09	22820.22
497.26	22829.59
497.44	22616.60
497.62	22963.00
497.79	23452.17
497.97	23468.55
498.14	22993.42
498.32	23410.04
498.50	23793.89
498.67	23939.00
498.85	24046.66
499.03	23992.83
499.20	24170.71
499.38	24325.19
499.56	24472.64
499.73	24339.23
499.91	24367.32
500.08	24526.47
500.26	24622.44
500.44	24353.27
500.61	24662.22
500.79	24814.36
500.97	24678.61
501.14	25146.72
501.32	25085.86
501.49	25284.81
501.67	25242.68
501.84	25397.15
502.02	25612.48
502.20	25633.55
502.37	25635.89
502.55	25458.01
502.72	25685.04
502.90	25668.66
503.07	25979.95
503.25	26106.34
503.43	25937.82
503.60	26256.13
503.78	26314.64
503.95	26450.39
504.13	26466.78
504.30	26827.22
504.48	26916.16
504.65	26705.51
504.83	27080.00
505.01	26682.11
505.18	27075.32
505.36	27381.93
505.53	27459.16
505.71	27234.47
505.88	27356.18
506.06	27379.59
506.23	27402.99
506.41	27349.16
506.58	27417.04
506.76	27653.43
506.93	28044.30
507.11	27857.06
507.28	28271.33
507.46	28100.47
507.63	27775.14
507.81	27971.74
507.98	28037.28
508.16	28362.61
508.33	28535.81
508.50	28477.30
508.68	28629.43
508.85	29020.30
509.03	28470.28
509.20	28704.33
509.38	29142.01
509.55	29207.55
509.73	29252.02
509.90	29378.40
510.08	29228.61
510.25	29481.39
510.42	29535.22
510.60	29647.57
510.77	29968.22
510.95	29415.85
511.12	29551.60
511.30	29584.37
511.47	30075.88
511.64	29961.20
511.82	30185.89
511.99	29647.57
512.17	30235.04
512.34	29930.77
512.51	30361.43
512.69	30455.05
512.86	30654.00
513.04	30888.05
513.21	30628.25
513.38	30689.10
513.56	30572.08
513.73	30604.84
513.90	30735.92
514.08	30984.01
514.25	31161.89
514.43	31239.13
514.60	31365.52
514.77	31311.69
514.95	31360.84
515.12	31353.82
515.29	31487.23
515.47	31587.87
515.64	31651.06
515.81	31339.77
515.99	31630.00
516.16	31597.23
516.33	31531.70
516.51	31976.40
516.68	31599.57
516.85	31545.74
517.03	31566.81
517.20	31915.54
517.37	32393.01
517.54	32135.56
517.72	32177.68
517.89	32226.84
518.06	31845.33
518.24	31938.95
518.41	32364.93
518.58	32486.64
518.75	32594.30
518.93	32650.47
519.10	32699.62
519.27	32603.66
519.45	32641.11
519.62	32961.76
519.79	32868.14
519.96	33453.28
520.14	33188.80
520.31	32921.98
520.48	32952.40
520.65	33287.10
520.83	33570.30
521.00	33614.77
521.17	33799.68
521.34	33486.04
521.52	33923.72
521.69	33940.11
521.86	34103.95
522.03	34047.77
522.20	34279.49
522.38	33764.57
522.55	34373.11
522.72	33979.90
522.89	34019.69
523.07	34326.30
523.24	33851.17
523.41	34529.92
523.58	34448.00
523.75	35248.47
523.92	34693.76
524.10	35346.77
524.27	34946.54
524.44	34974.63
524.61	35175.91
524.78	35346.77
524.96	35178.25
525.13	35122.08
525.30	35611.25
525.47	35419.33
525.64	35304.64
525.81	35688.49
525.98	35562.10
526.16	35526.99
526.33	35545.72
526.50	35576.14
526.67	35374.86
526.84	35381.88
527.01	35576.14
527.18	35505.93
527.36	36128.51
527.53	36114.47
527.70	35997.44
527.87	36238.51
528.04	36547.47
528.21	36205.75
528.38	36086.38
528.55	36339.16
528.72	36659.81
528.89	36460.87
529.07	36538.10
529.24	36423.42
529.41	36170.64
529.58	36495.97
529.75	36517.04
529.92	37146.64
530.09	36907.91
530.26	36954.72
530.43	36610.66
530.60	36945.36
530.77	36245.54
530.94	37572.62
531.11	37148.98
531.28	37659.22
531.46	37198.13
531.63	37046.00
531.80	37148.98
531.97	37521.13
532.14	37486.02
532.31	37287.07
532.48	37680.28
532.65	37656.88
532.82	37600.71
532.99	37596.03
533.16	37352.61
533.33	37762.20
533.50	37706.03
533.67	37486.02
533.84	37471.98
534.01	37837.10
534.18	37631.13
534.35	38377.76
534.52	38511.17
534.69	37907.32
534.86	37958.81
535.03	38127.33
535.20	38574.37
535.37	38756.93
535.54	38632.88
535.71	38471.39
535.88	38417.55
536.05	38429.26
536.22	38761.61
536.38	38483.09
536.55	38457.34
536.72	38693.74
536.89	38249.03
537.06	38602.46
537.23	38904.38
537.40	38656.29
537.57	38899.70
537.74	38869.28
537.91	39208.65
538.08	39150.14
538.25	39028.43
538.42	38871.62
538.59	39065.88
538.75	39023.75
538.92	39360.79
539.09	39264.83
539.26	39182.91
539.43	39150.14
539.60	39152.48
539.77	39077.58
539.94	39613.57
540.11	39079.92
540.28	39381.85
540.44	39416.96
540.61	39274.19
540.78	39108.01
540.95	39606.55
541.12	39164.18
541.29	39243.76
541.46	39796.13
541.62	39454.41
541.79	39821.87
541.96	39395.90
542.13	39910.82
542.30	39761.02
542.47	40091.04
542.63	40084.01
542.80	40112.10
542.97	40093.38
543.14	40722.98
543.31	40205.72
543.48	40533.40
543.64	41008.53
543.81	40818.94
543.98	40573.19
544.15	40421.05
544.32	40570.85
544.48	40734.68
544.65	40509.99
544.82	41038.95
544.99	40921.93
545.16	40889.16
545.32	40662.13
545.49	41298.75
545.66	41572.60
545.83	41273.01
546.00	41214.49
546.16	41193.43
546.33	40870.43
546.50	40664.47
546.67	41069.38
546.83	41127.89
547.00	41188.75
547.17	41120.87
547.34	41322.16
547.50	41317.48
547.67	41532.81
547.84	41415.78
548.00	41600.68
548.17	41081.08
548.34	41869.84
548.51	41631.11
548.67	41911.97
548.84	41769.20
549.01	41663.88
549.18	41535.15
549.34	41818.35
549.51	41951.76
549.68	41801.97
549.84	41722.39
550.01	41844.10
550.18	42089.85
550.34	42108.58
550.51	42033.68
550.68	41757.50
550.84	41780.90
551.01	42157.73
551.18	42085.17
551.34	42218.58
551.51	41816.01
551.68	41930.70
551.84	42284.12
552.01	42134.32
552.18	41722.39
552.34	42036.02
552.51	42557.96
552.68	41923.68
552.84	42419.87
553.01	42836.48
553.18	42700.73
553.34	43012.02
553.51	42443.27
553.67	42188.16
553.84	42632.86
554.01	42415.19
554.17	42883.30
554.34	42855.21
554.51	42609.45
554.67	42714.78
554.84	42525.19
555.00	42710.10
555.17	42572.00
555.33	42368.38
555.50	42574.34
555.67	42705.41
555.83	42911.38
556.00	42883.30
556.16	43131.39
556.33	43016.71
556.50	42696.05
556.66	43325.66
556.83	42539.24
556.99	42965.21
557.16	43405.23
557.32	43210.97
557.49	43253.10
557.65	43079.90
557.82	42843.51
557.98	43049.47
558.15	42909.04
558.32	43103.31
558.48	43480.13
558.65	42937.13
558.81	43452.05
558.98	42925.42
559.14	43082.24
559.31	43262.46
559.47	43416.94
559.64	43381.83
559.80	43414.60
559.97	43292.89
560.13	43573.75
560.30	43419.28
560.46	43381.83
560.63	43580.78
560.79	43627.59
560.96	43819.51
561.12	43491.83
561.29	43679.08
561.45	43798.44
561.61	43288.21
561.78	43505.88
561.94	43634.61
562.11	43578.43
562.27	43725.89
562.44	43707.16
562.60	43814.83
562.77	43796.10
562.93	43690.78
563.10	43976.33
563.26	43096.28
563.42	44037.18
563.59	43658.01
563.75	43538.65
563.92	43660.35
564.08	43896.75
564.24	44154.21
564.41	43580.78
564.57	43749.29
564.74	43601.84
564.90	43812.49
565.07	43658.01
565.23	43782.06
565.39	43786.74
565.56	43948.24
565.72	43730.57
565.88	44032.50
566.05	43545.67
566.21	44088.67
566.38	44156.55
566.54	44208.04
566.70	43983.35
566.87	44112.08
567.03	44329.75
567.19	44308.68
567.36	44123.78
567.52	43887.39
567.68	44163.57
567.85	44210.38
568.01	44025.48
568.17	44013.77
568.34	44018.46
568.50	44222.08
568.66	43821.85
568.83	44107.40
568.99	43662.69
569.15	44339.11
569.32	44275.91
569.48	43906.11
569.64	44278.25
569.81	44095.69
569.97	44418.69
570.13	43798.44
570.30	43863.98
570.46	43770.36
570.62	43866.32
570.78	44128.46
570.95	44275.91
571.11	43875.68
571.27	43936.54
571.43	43892.07
571.60	43779.72
571.76	43899.09
571.92	44189.31
572.09	43945.90
572.25	44191.65
572.41	44081.65
572.57	44521.67
572.74	44809.56
572.90	44147.18
573.06	44481.88
573.22	43973.98
573.38	44339.11
573.55	43679.08
573.71	44626.99
573.87	44254.85
574.03	43955.26
574.20	44051.22
574.36	44126.12
574.52	44563.80
574.68	44442.09
574.84	44289.96
575.01	44524.01
575.17	44549.76
575.33	44034.84
575.49	44404.64
575.65	44610.61
575.82	44128.46
575.98	44182.29
576.14	44376.56
576.30	44502.95
576.46	44378.90
576.62	44076.97
576.79	43875.68
576.95	44615.29
577.11	44662.10
577.27	44765.09
577.43	44678.49
577.59	44156.55
577.75	44453.79
577.92	43650.99
578.08	44168.25
578.24	44271.23
578.40	44325.07
578.56	44304.00
578.72	44619.97
578.88	44708.91
579.04	44968.71
579.21	44584.86
579.37	44737.00
579.53	44346.13
579.69	44357.83
579.85	44383.58
580.01	44650.40
580.17	44638.70
580.33	44442.09
580.49	44786.15
580.65	44493.58
580.82	44854.03
580.98	44617.63
581.14	44341.45
581.30	44495.92
581.46	44809.56
581.62	44624.65
581.78	44360.17
581.94	44837.64
582.10	44023.14
582.26	45024.89
582.42	44549.76
582.58	44683.17
582.74	44252.51
582.90	44891.48
583.06	44793.17
583.22	44814.24
583.38	44786.15
583.54	44355.49
583.70	44641.04
583.86	44442.09
584.02	44168.25
584.18	44849.35
584.34	44399.96
584.50	44395.28
584.66	44369.54
584.82	44306.34
584.98	44697.21
585.14	44570.82
585.30	44268.89
585.46	44390.60
585.62	44259.53
585.78	44587.21
585.94	44137.82
586.10	44226.76
586.26	44521.67
586.42	44589.55
586.58	44610.61
586.74	44734.66
586.90	44678.49
587.06	44425.71
587.22	44428.05
587.38	44201.02
587.54	44498.26
587.70	44587.21
587.86	44856.37
588.02	44641.04
588.18	44926.58
588.34	44367.20
588.49	44470.18
588.65	44217.40
588.81	44369.54
588.97	44456.14
589.13	44456.14
589.29	44816.58
589.45	44453.79
589.61	44828.28
589.77	44720.62
589.93	44694.87
590.08	44959.35
590.24	45413.41
590.40	44746.36
590.56	45036.59
590.72	45017.86
590.88	44900.84
591.04	44744.02
591.20	45240.21
591.35	45038.93
591.51	44907.86
591.67	45148.93
591.83	44772.11
591.99	44786.15
592.15	44528.69
592.31	44772.11
592.46	44769.77
592.62	44938.29
592.78	45172.34
592.94	44769.77
593.10	44914.88
593.26	45209.79
593.41	44751.04
593.57	44966.37
593.73	45003.82
593.89	45057.65
594.05	44907.86
594.20	45275.32
594.36	44615.29
594.52	45050.63
594.68	44582.52
594.84	44748.70
594.99	44959.35
595.15	44884.45
595.31	45043.61
595.47	45179.36
595.62	44842.32
595.78	45160.64
595.94	44954.67
596.10	45272.98
596.25	45249.58
596.41	44891.48
596.57	45041.27
596.73	45207.45
596.88	44741.68
597.04	44847.00
597.20	45074.04
597.36	44992.12
597.51	45677.90
597.67	45359.58
597.83	44968.71
597.99	45338.52
598.14	45251.92
598.30	45446.18
598.46	44786.15
598.61	44959.35
598.77	44519.33
598.93	44935.95
599.09	45083.40
599.24	45633.42
599.40	45375.97
599.56	45546.82
599.71	44959.35
599.87	45249.58
600.03	45198.09
600.18	44935.95
600.34	45254.26
600.50	45413.41
600.65	44959.35
600.81	45256.60
600.97	45083.40
601.12	45251.92
601.28	44985.10
601.44	44945.31
601.59	44626.99
601.75	44931.26
601.91	44821.26
602.06	44626.99
602.22	44975.73
602.37	45233.19
602.53	45055.31
602.69	45422.78
602.84	44837.64
603.00	45085.74
603.16	44821.26
603.31	44687.85
603.47	44975.73
603.62	44531.03
603.78	44947.65
603.94	44849.35
604.09	45240.21
604.25	45031.91
604.40	45034.25
604.56	44973.39
604.71	45333.84
604.87	44685.51
605.03	45038.93
605.18	44463.16
605.34	44786.15
605.49	44259.53
605.65	44737.00
605.80	44634.02
605.96	45158.30
606.12	45188.72
606.27	45401.71
606.43	44215.06
606.58	44837.64
606.74	44842.32
606.89	44795.51
607.05	44727.64
607.20	44847.00
607.36	44786.15
607.51	45184.04
607.67	45141.91
607.82	45193.40
607.98	44685.51
608.13	44610.61
608.29	44643.38
608.44	44416.35
608.60	44275.91
608.75	44507.63
608.91	44406.98
609.06	44662.10
609.22	44842.32
609.37	44500.61
609.53	44191.65
609.68	44294.64
609.84	44421.03
609.99	44769.77
610.15	44252.51
610.30	44854.03
610.46	44261.87
610.61	44217.40
610.76	44814.24
610.92	44744.02
611.07	44315.70
611.23	44502.95
611.38	44622.31
611.54	43653.33
611.69	44025.48
611.84	44348.47
612.00	44634.02
612.15	43920.15
612.31	44224.42
612.46	44002.07
612.62	44259.53
612.77	44556.78
612.92	44458.48
613.08	43835.89
613.23	44250.17
613.39	44009.09
613.54	43569.07
613.69	44098.03
613.85	44006.75
614.00	44282.94
614.15	44516.99
614.31	44430.39
614.46	44360.17
614.62	43871.00
614.77	44226.76
614.92	43981.01
615.08	43976.33
615.23	43969.30
615.38	43730.57
615.54	43653.33
615.69	43744.61
615.84	43658.01
616.00	43693.12
616.15	43831.21
616.30	43906.11
616.46	43587.80
616.61	43344.38
616.76	43573.75
616.92	43009.68
617.07	43234.38
617.22	43030.75
617.37	43206.29
617.53	43695.46
617.68	43723.55
617.83	44252.51
617.99	43501.20
618.14	43962.28
618.29	43569.07
618.45	43494.18
618.60	43276.51
618.75	43702.48
618.90	43414.60
619.06	43388.85
619.21	43349.06
619.36	43531.62
619.51	43316.29
619.67	43117.35
619.82	43433.32
619.97	43363.11
620.12	42717.12
620.28	42815.42
620.43	42855.21
620.58	43217.99
620.73	43033.09
620.89	42974.58
621.04	42759.25
621.19	43171.18
621.34	43379.49
621.49	42663.28
621.65	42759.25
621.80	42962.87
621.95	42703.07
622.10	42829.46
622.25	42733.50
622.41	42483.06
622.56	42171.77
622.71	43028.41
622.86	42494.77
623.01	42302.84
623.16	42979.26
623.32	42543.92
623.47	42871.59
623.62	42562.64
623.77	42583.71
623.92	42740.52
624.07	42459.66
624.23	42328.59
624.38	42073.47
624.53	42204.54
624.68	42270.08
624.83	42305.18
624.98	42373.06
625.13	41940.06
625.29	42279.44
625.44	42373.06
625.59	42099.22
625.74	41769.20
625.89	41661.54
626.04	41837.08
626.19	41865.16
626.34	42029.00
626.49	42623.50
626.65	42167.09
626.80	42459.66
626.95	42066.45
627.10	42082.83
627.25	41844.10
627.40	41502.38
627.55	41801.97
627.70	41518.76
627.85	41406.42
628.00	41652.17
628.15	41617.07
628.30	41748.14
628.45	41626.43
628.60	41586.64
628.76	41757.50
628.91	41654.51
629.06	41663.88
629.21	41354.93
629.36	41399.40
629.51	41399.40
629.66	41457.91
629.81	41305.77
629.96	41560.89
630.11	41418.12
630.26	41628.77
630.41	41427.48
630.56	41205.13
630.71	41663.88
630.86	41357.27
631.01	40992.14
631.16	41200.45
631.31	40994.48
631.46	40744.05
631.61	41008.53
631.76	41081.08
631.91	40896.18
632.06	40781.49
632.21	40996.82
632.36	41008.53
632.51	41170.02
632.66	40989.80
632.81	40715.96
632.96	40495.95
633.10	40397.65
633.25	41109.17
633.40	41118.53
633.55	40772.13
633.70	40720.64
633.85	40343.81
634.00	40364.88
634.15	41181.73
634.30	40914.90
634.45	40584.89
634.60	40844.69
634.75	40598.93
634.90	40390.62
635.05	40554.46
635.19	40224.45
635.34	40460.84
635.49	40556.80
635.64	40407.01
635.79	40282.96
635.94	40598.93
636.09	40311.05
636.24	40292.32
636.39	40446.80
636.53	40329.77
636.68	40486.59
636.83	40257.21
636.98	40060.61
637.13	40100.40
637.28	40208.06
637.43	40364.88
637.57	40540.42
637.72	40013.80
637.87	40069.97
638.02	40343.81
638.17	40327.43
638.32	39744.64
638.46	39936.56
638.61	40383.60
638.76	39702.51
638.91	40072.31
639.06	39744.64
639.20	39948.26
639.35	39981.03
639.50	39772.72
639.65	40229.13
639.80	39945.92
639.94	40018.48
640.09	39594.84
640.24	40079.33
640.39	39002.69
640.54	39526.97
640.68	39494.20
640.83	39824.22
640.98	39470.79
641.13	39166.52
641.27	39981.03
641.42	39096.31
641.57	39503.56
641.72	39241.42
641.86	39021.41
642.01	39271.85
642.16	39063.54
642.31	39044.82
642.45	39276.53
642.60	39044.82
642.75	39264.83
642.90	39257.81
643.04	39157.16
643.19	39374.83
643.34	39288.23
643.48	38827.15
643.63	38925.45
643.78	38700.76
643.93	38653.95
644.07	38979.28
644.22	38986.30
644.37	38548.62
644.51	38567.35
644.66	38857.57
644.81	39124.40
644.95	39100.99
645.10	39037.80
645.25	38864.60
645.39	38953.54
645.54	38670.33
645.69	38639.90
645.83	38778.00
645.98	38857.57
646.13	38803.74
646.27	39119.71
646.42	38583.73
646.57	38948.85
646.71	38485.43
646.86	38614.16
647.00	38579.05
647.15	38906.73
647.30	38831.83
647.44	38188.18
647.59	38363.72
647.74	38251.38
647.88	38525.22
648.03	38494.79
648.17	38525.22
648.32	38160.09
648.47	38124.99
648.61	38188.18
648.76	38483.09
648.90	38246.69
649.05	38642.24
649.20	38447.98
649.34	38436.28
649.49	38043.07
649.63	38190.52
649.78	38089.88
649.92	37883.91
650.07	38565.01
650.21	37769.22
650.36	38014.98
650.51	37935.40
650.65	38436.28
650.80	38139.03
650.94	38033.71
651.09	38136.69
651.23	37846.46
651.38	37722.41
651.52	37589.00
651.67	37713.05
651.81	37785.61
651.96	37401.76
652.10	37869.87
652.25	37530.49
652.39	38000.94
652.54	37766.88
652.68	37757.52
652.83	37745.82
652.97	38061.79
653.12	37200.47
653.26	37083.45
653.41	37462.61
653.55	37202.82
653.70	37174.73
653.84	37638.15
653.99	37221.54
654.13	37453.25
654.27	37397.08
654.42	36734.71
654.56	37139.62
654.71	37139.62
654.85	37312.82
655.00	37317.50
655.14	37020.25
655.29	36982.80
655.43	36776.84
655.57	36884.50
655.72	36994.51
655.86	36390.65
656.01	36758.11
656.15	36685.56
656.30	36428.10
656.44	36570.87
656.58	36659.81
656.73	36907.91
656.87	36617.68
657.01	36400.01
657.16	36664.49
657.30	36224.47
657.45	36388.31
657.59	36610.66
657.73	36315.75
657.88	36648.11
658.02	37069.40
658.16	36854.08
658.31	36996.85
658.45	36449.16
658.60	36109.78
658.74	36905.57
658.88	36535.76
659.03	36044.25
659.17	36121.49
659.31	36397.67
659.46	36292.35
659.60	36411.71
659.74	35826.58
659.89	36002.12
660.03	36161.28
660.17	36051.27
660.32	36325.11
660.46	36088.72
660.60	35791.47
660.74	36025.53
660.89	36182.34
661.03	35679.13
661.17	35585.50
661.32	35189.95
661.46	35222.72
661.60	35377.20
661.74	35655.72
661.89	35246.13
662.03	35569.12
662.17	35028.46
662.31	35421.67
662.46	35419.33
662.60	35629.98
662.74	35110.38
662.88	35152.51
663.03	34471.41
663.17	35077.61
663.31	35285.92
663.45	34686.74
663.60	34937.18
663.74	35035.48
663.88	34728.87
664.02	34644.61
664.17	35054.20
664.31	34436.30
664.45	34651.63
664.59	34522.90
664.73	34183.52
664.88	34464.39
665.02	34359.06
665.16	34520.56
665.30	34480.77
665.44	34047.77
665.59	34143.74
665.73	33855.85
665.87	34263.10
666.01	34293.53
666.15	34101.61
666.29	33778.61
666.44	34183.52
666.58	34115.65
666.72	34000.96
666.86	34125.01
667.00	33759.89
667.14	33270.72
667.28	33244.97
667.43	33214.54
667.57	33647.54
667.71	33235.61
667.85	33708.40
667.99	33439.23
668.13	33546.90
668.27	33310.50
668.41	33642.86
668.56	33120.92
668.70	33235.61
668.84	33350.29
668.98	32533.45
669.12	32687.92
669.26	32992.19
669.40	32730.05
669.54	32950.06
669.68	32732.39
669.82	32634.09
669.96	32320.46
670.10	32823.67
670.25	32582.60
670.39	32573.24
670.53	32210.45
670.67	32549.83
670.81	32697.28
670.95	32130.87
671.09	32404.72
671.23	31969.38
671.37	32212.79
671.51	32341.52
671.65	31896.82
671.79	31758.73
671.93	31768.09
672.07	31885.12
672.21	32067.68
672.35	31798.52
672.49	31695.53
672.63	32245.56
672.77	31756.39
672.91	31651.06
673.05	31117.42
673.19	31304.67
673.33	30927.84
673.47	31227.43
673.61	31002.74
673.75	31082.31
673.89	30904.43
674.03	30869.33
674.17	30478.46
674.31	30473.78
674.45	31126.78
674.59	30562.72
674.73	31161.89
674.87	30518.25
675.01	30574.42
675.15	30237.38
675.29	30340.36
675.43	30574.42
675.56	30331.00
675.70	30312.28
675.84	30164.82
675.98	28877.53
676.12	30132.06
676.26	29752.89
676.40	30008.01
676.54	29528.20
676.68	29954.18
676.82	29345.64
676.96	29593.73
677.10	29764.59
677.23	29558.63
677.37	28975.83
677.51	29003.92
677.65	29032.00
677.79	28570.92
677.93	28587.30
678.07	28547.51
678.21	28500.70
678.34	28257.29
678.48	28156.64
678.62	27903.87
678.76	27964.72
678.90	27669.81
679.04	27508.32
679.18	28095.79
679.31	27868.76
679.45	27508.32
679.59	27388.95
679.73	27206.39
679.87	27543.42
680.00	27267.24
680.14	27342.14
680.28	27206.39
680.42	26881.05
680.56	27187.66
680.70	26892.76
680.83	27204.05
680.97	27227.45
681.11	27147.87
681.25	26452.73
681.39	26347.41
681.52	27061.27
681.66	26696.15
681.80	26487.84
681.94	26380.18
682.07	26305.28
682.21	26106.34
682.35	25720.15
682.49	26057.18
682.62	26169.53
682.76	25823.13
682.90	25673.34
683.04	25727.17
683.17	25598.44
683.31	25504.82
683.45	25195.87
683.59	25439.28
683.72	24996.92
683.86	25015.65
684.00	25074.16
684.13	24886.92
684.27	25076.50
684.41	25027.35
684.55	24720.74
684.68	24709.04
684.82	24690.31
684.96	24568.60
685.09	24528.81
685.23	24573.28
685.37	24229.23
685.50	24119.22
685.64	24217.52
685.78	23814.95
685.91	24269.01
686.05	23913.25
686.19	23679.20
686.32	23728.35
686.46	23323.44
686.60	22707.88
686.73	23538.77
686.87	23288.33
687.01	23035.55
687.14	22733.62
687.28	22864.69
687.42	22972.36
687.55	23103.43
687.69	23159.60
687.82	22974.70
687.96	23061.30
688.10	22593.19
688.23	22508.93
688.37	22122.74
688.50	22235.09
688.64	22319.35
688.78	22232.75
688.91	22272.54
689.05	22160.19
689.18	22141.47
689.32	21841.88
689.46	21750.60
689.59	21902.73
689.73	21837.20
689.86	21518.89
690.00	21399.52
690.13	21736.56
690.27	20952.48
690.41	21261.43
690.54	20982.90
690.68	21046.10
690.81	20760.55
690.95	20819.07
691.08	21039.08
691.22	20847.15
691.35	20980.56
691.49	20772.25
691.62	21018.01
691.76	20355.64
691.89	20336.91
692.03	20372.02
692.16	20130.95
692.30	20077.12
692.43	20032.65
692.57	19716.67
692.70	19798.59
692.84	19662.84
692.97	19527.09
693.11	19452.19
693.24	19480.28
693.38	19510.71
693.51	19290.70
693.65	19620.71
693.78	19634.75
693.92	19206.44
694.05	19522.41
694.19	19168.99
694.32	19248.57
694.45	18738.33
694.59	18560.45
694.72	18682.16
694.86	18778.12
694.99	18504.28
695.13	18417.68
695.26	18562.79
695.39	18466.83
695.53	18384.91
695.66	18398.95
695.80	18202.35
695.93	18354.48
696.07	18127.45
696.20	18246.82
696.33	17598.49
696.47	17633.60
696.60	17741.26
696.73	17525.93
696.87	17348.05
697.00	17827.86
697.14	17565.72
697.27	17261.45
697.40	17263.79
697.54	17046.12
697.67	17249.75
697.80	17088.25
697.94	16755.90
698.07	16926.75
698.21	16809.73
698.34	16805.05
698.47	16411.84
698.61	16369.71
698.74	16362.69
698.87	16294.81
699.01	16280.77
699.14	16135.65
699.27	16339.28
699.40	16063.10
699.54	16226.93
699.67	15943.73
699.80	15971.82
699.94	15901.60
700.07	16030.33
700.20	15489.67
700.34	15550.52
700.47	15751.81
700.60	15693.29
700.73	15726.06
700.87	15791.59
701.00	15534.14
701.13	15194.76
701.26	15403.07
701.40	15108.16
701.53	14949.00
701.66	15021.56
701.79	15042.62
701.93	14951.34
702.06	14977.09
702.19	14717.29
702.32	14609.62
702.46	14649.41
702.59	14691.54
702.72	14576.86
702.85	14710.27
702.99	14373.23
703.12	14410.68
703.25	14553.45
703.38	14277.27
703.51	14078.32
703.65	14211.73
703.78	14370.89
703.91	14164.92
704.04	13994.06
704.17	13893.42
704.31	13916.83
704.44	13921.51
704.57	13589.15
704.70	13591.49
704.83	13657.03
704.96	13650.00
705.10	13462.76
705.23	13268.50
>>>>>End Processed Spectral Data<<<<<
