SpectraSuite Data File
++++++++++++++++++++++++++++++++++++
Date: Fri Oct 25 11:25:20 EDT 2013
User: price-jones
Dark Spectrum Present: No
Reference Spectrum Present: No
Number of Sampled Component Spectra: 1
Spectrometers: USB2+H05261
Integration Time (usec): 100000 (USB2+H05261)
Spectra Averaged: 1 (USB2+H05261)
Boxcar Smoothing: 0 (USB2+H05261)
Correct for Electrical Dark: No (USB2+H05261)
Strobe/Lamp Enabled: No (USB2+H05261)
Correct for Detector Non-linearity: No (USB2+H05261)
Correct for Stray Light: No (USB2+H05261)
Number of Pixels in Processed Spectrum: 2048
>>>>>Begin Processed Spectral Data<<<<<
365.73	227.03
365.92	227.03
366.12	227.03
366.32	145.11
366.52	95.96
366.72	156.82
366.91	135.75
367.11	191.92
367.31	100.64
367.51	145.11
367.70	156.82
367.90	91.28
368.10	128.73
368.30	180.22
368.49	147.45
368.69	194.26
368.89	121.71
369.09	175.54
369.28	252.78
369.48	173.20
369.68	205.97
369.87	205.97
370.07	222.35
370.27	140.43
370.47	407.25
370.66	585.13
370.86	643.65
371.06	631.94
371.25	709.18
371.45	645.99
371.65	683.44
371.84	655.35
372.04	725.57
372.24	723.23
372.44	653.01
372.63	744.29
372.83	753.65
373.03	739.61
373.22	758.33
373.42	772.38
373.62	725.57
373.81	844.93
374.01	751.31
374.21	873.02
374.40	763.01
374.60	784.08
374.79	828.55
374.99	830.89
375.19	830.89
375.38	894.08
375.58	889.40
375.78	830.89
375.97	903.45
376.17	968.98
376.37	814.51
376.56	877.70
376.76	812.17
376.95	819.19
377.15	812.17
377.35	842.59
377.54	903.45
377.74	980.68
377.93	891.74
378.13	884.72
378.33	943.24
378.52	945.58
378.72	936.21
378.91	957.28
379.11	936.21
379.31	940.90
379.50	943.24
379.70	936.21
379.89	933.87
380.09	933.87
380.28	954.94
380.48	1062.60
380.68	987.71
380.87	887.06
381.07	1067.28
381.26	1036.86
381.46	968.98
381.65	1090.69
381.85	1060.26
382.04	971.32
382.24	997.07
382.43	1043.88
382.63	947.92
382.83	1156.22
383.02	1088.35
383.22	1086.01
383.41	1086.01
383.61	1060.26
383.80	1205.38
384.00	1022.81
384.19	1132.82
384.39	1172.61
384.58	1221.76
384.78	1139.84
384.97	1160.91
385.17	1296.66
385.36	1130.48
385.56	1160.91
385.75	1210.06
385.95	1268.57
386.14	1205.38
386.34	1231.12
386.53	1217.08
386.72	1135.16
386.92	1210.06
387.11	1299.00
387.31	1149.20
387.50	1193.67
387.70	1240.48
387.89	1256.87
388.09	1205.38
388.28	1324.74
388.48	1336.45
388.67	1350.49
388.86	1376.24
389.06	1327.08
389.25	1385.60
389.45	1380.92
389.64	1329.42
389.84	1404.32
390.03	1317.72
390.22	1516.67
390.42	1315.38
390.61	1430.07
390.81	1362.19
391.00	1401.98
391.19	1385.60
391.39	1409.00
391.58	1521.35
391.78	1516.67
391.97	1444.11
392.16	1549.43
392.36	1516.67
392.55	1425.39
392.75	1460.49
392.94	1554.12
393.13	1509.65
393.33	1465.18
393.52	1563.48
393.71	1483.90
393.91	1614.97
394.10	1497.94
394.29	1678.16
394.49	1589.22
394.68	1640.72
394.88	1657.10
395.07	1701.57
395.26	1640.72
395.46	1694.55
395.65	1680.50
395.84	1673.48
396.04	1799.87
396.23	1694.55
396.42	1764.76
396.62	1776.47
396.81	1760.08
397.00	1673.48
397.19	1764.76
397.39	1743.70
397.58	1844.34
397.77	1739.02
397.97	1781.15
398.16	1790.51
398.35	1942.64
398.55	1858.39
398.74	1923.92
398.93	1865.41
399.12	1893.49
399.32	1947.33
399.51	1919.24
399.70	1912.22
399.90	1956.69
400.09	2057.33
400.28	2087.76
400.47	1998.82
400.67	2015.20
400.86	2054.99
401.05	2024.56
401.24	2069.03
401.44	1989.46
401.63	2143.93
401.82	2132.23
402.01	2076.06
402.21	2155.63
402.40	2094.78
402.59	2225.85
402.78	2195.42
402.97	2286.70
403.17	2230.53
403.36	2253.94
403.55	2359.26
403.74	2153.29
403.93	2172.02
404.13	2361.60
404.32	2270.32
404.51	2324.15
404.70	2373.30
404.89	2324.15
405.09	2373.30
405.28	2394.37
405.47	2317.13
405.66	2476.29
405.85	2373.30
406.05	2487.99
406.24	2567.57
406.43	2497.35
406.62	2574.59
406.81	2602.68
407.00	2471.61
407.20	2490.33
407.39	2473.95
407.58	2778.22
407.77	2710.34
407.96	2679.91
408.15	2841.41
408.34	2719.70
408.54	2766.51
408.73	2794.60
408.92	2752.47
409.11	2864.82
409.30	2928.01
409.49	2864.82
409.68	2792.26
409.87	3007.59
410.07	2864.82
410.26	2846.09
410.45	2899.92
410.64	3023.97
410.83	3152.70
411.02	3068.44
411.21	3192.49
411.40	3110.57
411.59	3148.02
411.78	3122.27
411.98	3199.51
412.17	3321.22
412.36	3307.18
412.55	3442.93
412.74	3344.63
412.93	3361.01
413.12	3332.92
413.31	3609.11
413.50	3569.32
413.69	3260.37
413.88	3569.32
414.07	3480.38
414.26	3599.74
414.45	3581.02
414.64	3669.96
414.83	3632.51
415.02	3779.97
415.22	3871.25
415.41	3786.99
415.60	3716.77
415.79	3808.05
415.98	4046.79
416.17	3988.27
416.36	3948.48
416.55	3894.65
416.74	4098.28
416.93	4058.49
417.12	3969.55
417.31	4049.13
417.50	4086.58
417.69	4198.92
417.88	4219.99
418.07	4266.80
418.26	4290.20
418.45	4315.95
418.64	4484.47
418.83	4369.78
419.02	4390.84
419.21	4496.17
419.39	4416.59
419.58	4542.98
419.77	4365.10
419.96	4442.34
420.15	4432.97
420.34	4634.26
420.53	4552.34
420.72	4657.67
420.91	4645.96
421.10	4762.99
421.29	4676.39
421.48	4660.01
421.67	4678.73
421.86	4840.23
422.05	4933.85
422.24	4739.58
422.43	4732.56
422.61	4816.82
422.80	4980.66
422.99	4873.00
423.18	4844.91
423.37	4840.23
423.56	4936.19
423.75	4945.55
423.94	4807.46
424.13	4367.44
424.32	4678.73
424.50	4873.00
424.69	5149.18
424.88	5020.45
425.07	4945.55
425.26	5015.77
425.45	4880.02
425.64	4933.85
425.83	5018.11
426.01	5048.54
426.20	5013.43
426.39	5004.07
426.58	4901.08
426.77	5060.24
426.96	5018.11
427.15	5074.28
427.33	5132.79
427.52	5109.39
427.71	5345.78
427.90	5261.52
428.09	5210.03
428.28	5465.15
428.46	5268.55
428.65	5235.78
428.84	5479.19
429.03	5418.34
429.22	5242.80
429.40	5495.58
429.59	5383.23
429.78	5280.25
429.97	5331.74
430.16	5385.57
430.34	5469.83
430.53	5619.63
430.72	5643.03
430.91	5392.59
431.10	5617.29
431.28	5682.82
431.47	5727.29
431.66	5703.89
431.85	5678.14
432.03	5774.10
432.22	5884.11
432.41	5996.45
432.60	5830.27
432.79	5919.21
432.97	5980.07
433.16	6005.81
433.35	5959.00
433.54	6029.22
433.72	6073.69
433.91	6064.33
434.10	5970.71
434.28	6015.18
434.47	6162.63
434.66	6265.61
434.85	6403.71
435.03	6143.91
435.22	6417.75
435.41	6469.24
435.59	6242.21
435.78	6328.81
435.97	6429.45
436.16	6448.18
436.34	6366.26
436.53	6392.00
436.72	6499.67
436.90	6497.33
437.09	6743.08
437.28	6389.66
437.46	6647.12
437.65	6492.65
437.84	6789.89
438.02	6609.67
438.21	6612.01
438.40	6661.16
438.58	6932.67
438.77	7056.72
438.96	6981.82
439.14	6853.09
439.33	7138.63
439.52	7225.23
439.70	7208.85
439.89	7290.77
440.08	7342.26
440.26	7360.98
440.45	7377.37
440.63	7349.28
440.82	7658.23
441.01	7424.18
441.19	7478.01
441.38	7613.76
441.57	7803.35
441.75	7676.96
441.94	7950.80
442.12	7927.39
442.31	7985.91
442.50	8081.87
442.68	7866.54
442.87	7981.23
443.05	8018.68
443.24	8215.28
443.43	8077.19
443.61	8037.40
443.80	8329.97
443.98	7990.59
444.17	7655.89
444.35	8032.72
444.54	8114.64
444.73	8198.90
444.91	8383.80
445.10	8152.09
445.28	8205.92
445.47	8163.79
445.65	8219.96
445.84	8229.32
446.02	8458.70
446.21	8205.92
446.39	8348.69
446.58	8421.25
446.77	8322.94
446.95	8234.00
447.14	8292.52
447.32	8477.42
447.51	8416.57
447.69	8248.05
447.88	8512.53
448.06	8353.37
448.25	8538.27
448.43	8624.87
448.62	8659.98
448.80	8559.34
448.99	8702.11
449.17	8732.54
449.36	8571.04
449.54	8744.24
449.73	8882.33
449.91	8840.20
450.10	8779.35
450.28	9032.13
450.46	9064.89
450.65	8781.69
450.83	9041.49
451.02	9022.77
451.20	9158.52
451.39	8947.87
451.57	9018.08
451.76	8987.66
451.94	9170.22
452.13	9254.48
452.31	9406.61
452.49	9128.09
452.68	9343.42
452.86	9163.20
453.05	9397.25
453.23	9404.27
453.42	9324.69
453.60	9268.52
453.78	9689.82
453.97	9177.24
454.15	9460.45
454.34	9240.44
454.52	9579.81
454.70	9741.31
454.89	9664.07
455.07	9703.86
455.26	9624.28
455.44	9736.63
455.62	9558.75
455.81	9935.57
455.99	9916.85
456.17	10005.79
456.36	9958.98
456.54	10031.54
456.73	10197.71
456.91	10527.73
457.09	10340.49
457.28	10443.47
457.46	10197.71
457.64	10464.54
457.83	10541.77
458.01	10459.85
458.19	10644.76
458.38	10415.38
458.56	10523.05
458.74	10719.65
458.93	10689.23
459.11	10759.44
459.29	10792.21
459.48	10677.52
459.66	10480.92
459.84	10918.60
460.03	11073.07
460.21	10843.70
460.39	10862.43
460.57	10848.38
460.76	10913.92
460.94	11028.60
461.12	10988.82
461.31	11075.42
461.49	11028.60
461.67	10953.71
461.85	11159.67
462.04	11307.13
462.22	11765.87
462.40	11548.20
462.59	11307.13
462.77	11349.26
462.95	11557.57
463.13	11606.72
463.32	11906.31
463.50	11751.83
463.68	11756.51
463.86	11747.15
464.05	11609.06
464.23	11571.61
464.41	11625.44
464.59	11580.97
464.78	12114.61
464.96	11714.38
465.14	11637.14
465.32	11850.13
465.50	11988.22
465.69	11864.18
465.87	11889.92
466.05	12283.13
466.23	11960.14
466.41	12126.32
466.60	12358.03
466.78	12147.38
466.96	12102.91
467.14	12152.06
467.32	12039.72
467.51	12437.61
467.69	12112.27
467.87	12226.96
468.05	12720.81
468.23	12346.33
468.41	12325.26
468.60	12760.60
468.78	12776.98
468.96	12353.35
469.14	12753.58
469.32	12744.22
469.50	12327.60
469.69	12751.24
469.87	12978.27
470.05	12854.22
470.23	13217.01
470.41	12826.14
470.59	13099.98
470.77	13128.06
470.95	13027.42
471.14	13635.96
471.32	13013.38
471.50	13532.98
471.68	13540.00
471.86	13607.87
472.04	13596.17
472.22	14087.68
472.40	13589.15
472.58	13621.92
472.77	13752.99
472.95	13937.89
473.13	14366.21
473.31	14221.10
473.49	14057.26
473.67	13907.46
473.85	14225.78
474.03	14476.21
474.21	14354.51
474.39	14768.78
474.57	14349.82
474.75	14759.42
474.93	14520.68
475.12	14860.06
475.30	15218.16
475.48	14787.50
475.66	15061.35
475.84	15241.57
476.02	15171.35
476.20	15115.18
476.38	15716.70
476.56	15976.50
476.74	15761.17
476.92	15712.02
477.10	15592.65
477.28	15925.00
477.46	16222.25
477.64	16250.34
477.82	16198.85
478.00	17027.40
478.18	16664.61
478.36	16776.96
478.54	16872.92
478.72	16964.20
478.90	17198.26
479.08	17296.56
479.26	17631.26
479.44	17507.21
479.62	17631.26
479.80	17963.61
479.98	18097.02
480.16	18146.17
480.34	18249.16
480.52	18525.34
480.70	18567.47
480.88	18401.29
481.06	18651.73
481.24	18892.80
481.41	19021.53
481.59	19058.98
481.77	19342.19
481.95	19412.40
482.13	19819.66
482.31	19456.87
482.49	20067.75
482.67	20004.56
482.85	20456.28
483.03	20388.41
483.21	20615.44
483.39	20407.13
483.57	20744.17
483.74	20917.37
483.92	21170.15
484.10	21099.93
484.28	21352.71
484.46	21900.39
484.64	22183.60
484.82	21860.60
485.00	22071.25
485.18	22663.41
485.35	22717.24
485.53	22625.96
485.71	22881.08
485.89	23477.91
486.07	22955.97
486.25	23044.91
486.43	23407.70
486.61	23899.21
486.78	23625.37
486.96	23964.75
487.14	24393.06
487.32	24594.35
487.50	24449.24
487.68	24790.95
487.85	25394.81
488.03	25282.47
488.21	25598.44
488.39	25607.80
488.57	25710.78
488.75	25701.42
488.92	26405.92
489.10	26401.24
489.28	26319.32
489.46	26974.67
489.64	26834.24
489.81	27545.76
489.99	27283.62
490.17	27580.87
490.35	27718.96
490.53	27850.03
490.70	28196.43
490.88	27915.57
491.06	28552.20
491.24	28786.25
491.41	28879.87
491.59	29132.65
491.77	28966.47
491.95	29682.67
492.13	29467.34
492.30	29179.46
492.48	29670.97
492.66	29715.44
492.84	30256.11
493.01	30094.61
493.19	30375.47
493.37	30710.17
493.54	30590.80
493.72	31236.79
493.90	30993.37
494.08	31541.06
494.25	31702.56
494.43	31962.36
494.61	31761.07
494.79	32081.72
494.96	32299.39
495.14	32252.58
495.32	32594.30
495.49	32596.64
495.67	33291.78
495.85	33242.63
496.02	33406.47
496.20	33806.70
496.38	33853.51
496.55	33542.22
496.73	34838.87
496.91	34501.84
497.09	34281.83
497.26	34672.70
497.44	34909.09
497.62	34824.83
497.79	35683.81
497.97	35454.44
498.14	35810.20
498.32	36072.34
498.50	36044.25
498.67	36304.05
498.85	36428.10
499.03	36238.51
499.20	36680.88
499.38	36617.68
499.56	36774.50
499.73	36734.71
499.91	37352.61
500.08	37015.57
500.26	36978.12
500.44	37223.88
500.61	37179.41
500.79	37453.25
500.97	38117.96
501.14	38150.73
501.32	38122.65
501.49	38349.68
501.67	38199.88
501.84	38707.78
502.02	38300.53
502.20	38745.23
502.37	38920.77
502.55	39000.35
502.72	39208.65
502.90	38806.08
503.07	39140.78
503.25	39426.32
503.43	39545.69
503.60	39913.16
503.78	39873.37
503.95	39625.27
504.13	40067.63
504.30	40402.33
504.48	40390.62
504.65	40266.58
504.83	40823.62
505.01	41125.55
505.18	40877.46
505.36	41294.07
505.53	40973.42
505.71	41226.20
505.88	41394.71
506.06	41483.66
506.23	41425.14
506.41	41205.13
506.58	41478.97
506.76	41713.03
506.93	42300.50
507.11	42047.72
507.28	42403.49
507.46	42284.12
507.63	42948.83
507.81	43042.45
507.98	43019.05
508.16	43138.41
508.33	43423.96
508.50	43215.65
508.68	42740.52
508.85	43611.20
509.03	43309.27
509.20	43538.65
509.38	43913.13
509.55	43957.60
509.73	44088.67
509.90	44617.63
510.08	44081.65
510.25	44198.68
510.42	44685.51
510.60	44697.21
510.77	44868.07
510.95	45453.20
511.12	44399.96
511.30	44996.80
511.47	45207.45
511.64	44903.18
511.82	45539.80
511.99	45160.64
512.17	45439.16
512.34	45162.98
512.51	45989.19
512.69	46211.54
512.86	46232.60
513.04	46197.49
513.21	46162.39
513.38	46518.15
513.56	46447.93
513.73	46693.69
513.90	46752.20
514.08	46450.27
514.25	46721.77
514.43	46747.52
514.60	47171.16
514.77	46707.73
514.95	47236.69
515.12	47217.97
515.29	46993.28
515.47	47763.31
515.64	47934.17
515.81	47367.76
515.99	47819.49
516.16	47983.32
516.33	47840.55
516.51	48193.97
516.68	48507.60
516.85	48170.57
517.03	48633.99
517.20	48734.63
517.37	48481.86
517.54	48589.52
517.72	48676.12
517.89	48980.39
518.06	48540.37
518.24	48835.28
518.41	49078.69
518.58	49137.21
518.75	48856.34
518.93	49734.04
519.10	49078.69
519.27	49401.69
519.45	49015.50
519.62	49731.70
519.79	49439.14
519.96	49720.00
520.14	49528.08
520.31	49663.83
520.48	49801.92
520.65	49890.86
520.83	50220.87
521.00	50286.41
521.17	50050.02
521.34	50433.86
521.52	50705.37
521.69	50405.78
521.86	50752.18
522.03	51110.28
522.20	51171.13
522.38	51377.10
522.55	50899.63
522.72	50632.81
522.89	51196.88
523.07	51140.71
523.24	51358.38
523.41	51484.76
523.58	51468.38
523.75	51302.20
523.92	51576.04
524.10	51789.03
524.27	51983.30
524.44	51908.40
524.61	51800.74
524.78	51653.28
524.96	52163.52
525.13	52102.67
525.30	52156.50
525.47	52207.99
525.64	52198.63
525.81	52397.57
525.98	52268.84
526.16	52322.68
526.33	52655.03
526.50	52861.00
526.67	52409.28
526.84	52921.85
527.01	52580.13
527.18	52910.15
527.36	52727.59
527.53	52676.10
527.70	53162.93
527.87	52790.78
528.04	53043.56
528.21	53151.23
528.38	53127.82
528.55	53172.29
528.72	53202.72
528.89	52994.41
529.07	53202.72
529.24	53015.47
529.41	53553.80
529.58	53350.17
529.75	53525.71
529.92	53528.05
530.09	53588.91
530.26	53865.09
530.43	53701.25
530.60	53338.47
530.77	53581.88
530.94	53703.59
531.11	53741.04
531.28	54017.22
531.46	54120.21
531.63	54045.31
531.80	53813.60
531.97	54174.04
532.14	54316.81
532.31	54225.53
532.48	54438.52
532.65	54473.63
532.82	54312.13
532.99	54326.17
533.16	54277.02
533.33	54653.85
533.50	54656.19
533.67	54688.96
533.84	54571.93
534.01	54667.89
534.18	54686.62
534.35	55238.98
534.52	54934.71
534.69	55138.34
534.86	55112.59
535.03	54789.60
535.20	54817.69
535.37	54962.80
535.54	55171.11
535.71	54962.80
535.88	55306.86
536.05	55206.22
536.22	55297.50
536.38	55496.44
536.55	55320.90
536.72	55278.77
536.89	55292.82
537.06	55531.55
537.23	55573.68
537.40	55309.20
537.57	55550.27
537.74	55522.19
537.91	55683.69
538.08	55557.30
538.25	55660.28
538.42	55744.54
538.59	55882.63
538.75	55770.28
538.92	55529.21
539.09	55847.52
539.26	55959.87
539.43	55847.52
539.60	55910.72
539.77	56133.07
539.94	56343.72
540.11	56097.96
540.28	56346.06
540.44	56121.37
540.61	56231.37
540.78	55994.98
540.95	56147.11
541.12	56299.25
541.29	56100.30
541.46	56596.49
541.62	56168.18
541.79	56467.76
541.96	56458.40
542.13	56467.76
542.30	56219.67
542.47	56615.22
542.63	56732.25
542.80	56559.05
542.97	56882.04
543.14	56856.29
543.31	56968.64
543.48	56891.40
543.64	57237.80
543.81	57336.10
543.98	57205.03
544.15	56961.62
544.32	57102.05
544.48	57263.55
544.65	57155.88
544.82	57088.01
544.99	57031.83
545.16	57261.21
545.32	57020.13
545.49	57553.77
545.66	57623.99
545.83	57256.53
546.00	57366.53
546.16	57322.06
546.33	57537.39
546.50	57167.58
546.67	57574.84
546.83	57261.21
547.00	57588.88
547.17	57389.94
547.34	57631.01
547.50	57738.68
547.67	57895.49
547.84	57790.17
548.00	57811.23
548.17	58019.54
548.34	57925.92
548.51	57932.94
548.67	57984.43
548.84	57897.83
549.01	57921.24
549.18	58188.06
549.34	58000.82
549.51	57949.32
549.68	57970.39
549.84	58148.27
550.01	58286.36
550.18	58122.52
550.34	58372.96
550.51	58174.02
550.68	58159.97
550.84	58033.58
551.01	58326.15
551.18	58457.22
551.34	58520.41
551.51	58244.23
551.68	58223.17
551.84	58358.92
552.01	58543.82
552.18	58473.60
552.34	58387.00
552.51	58349.56
552.68	58335.51
552.84	58665.53
553.01	58494.67
553.18	58754.47
553.34	58571.91
553.51	58466.58
553.67	58433.81
553.84	58674.89
554.01	58742.77
554.17	58761.49
554.34	58653.82
554.51	58934.69
554.67	58930.01
554.84	58805.96
555.00	58918.31
555.17	58883.20
555.33	58702.98
555.50	58951.07
555.67	58932.35
555.83	58885.54
556.00	58960.44
556.16	59295.13
556.33	59007.25
556.50	58937.03
556.66	59086.82
556.83	59032.99
556.99	59206.19
557.16	59451.95
557.32	59276.41
557.49	59426.20
557.65	59217.89
557.82	59224.92
557.98	59407.48
558.15	59194.49
558.32	59407.48
558.48	59210.87
558.65	59213.21
558.81	59295.13
558.98	59437.90
559.14	59213.21
559.31	59440.24
559.47	59377.05
559.64	59423.86
559.80	59285.77
559.97	59360.67
560.13	59451.95
560.30	59494.08
560.46	59564.29
560.63	59674.30
560.79	59671.96
560.96	59636.85
561.12	59470.67
561.29	59767.92
561.45	59711.75
561.61	59636.85
561.78	59683.66
561.94	59423.86
562.11	59536.21
562.27	59618.13
562.44	59716.43
562.60	59833.46
562.77	59950.48
562.93	59636.85
563.10	59826.43
563.26	59517.48
563.42	59877.93
563.59	59812.39
563.75	59763.24
563.92	59943.46
564.08	59828.77
564.24	60121.34
564.41	59997.29
564.57	60116.66
564.74	59945.80
564.90	59978.57
565.07	59819.41
565.23	59943.46
565.39	59777.28
565.56	60182.19
565.72	60023.04
565.88	60095.60
566.05	60074.53
566.21	59985.59
566.38	59978.57
566.54	60100.28
566.70	60116.66
566.87	60207.94
567.03	59669.62
567.19	60231.35
567.36	60144.75
567.52	60062.83
567.68	60229.01
567.85	60076.87
568.01	60308.58
568.17	60065.17
568.34	60172.83
568.50	60093.25
568.66	60079.21
568.83	60130.70
568.99	60156.45
569.15	60280.50
569.32	60207.94
569.48	60130.70
569.64	60233.69
569.81	60287.52
569.97	60200.92
570.13	60221.98
570.30	60123.68
570.46	60336.67
570.62	60362.42
570.78	60254.75
570.95	60217.30
571.11	60449.02
571.27	60418.59
571.43	60308.58
571.60	60371.78
571.76	60416.25
571.92	60378.80
572.09	60474.76
572.25	60636.26
572.41	60416.25
572.57	60350.71
572.74	60654.98
572.90	60282.84
573.06	60523.91
573.22	60465.40
573.38	60470.08
573.55	60317.95
573.71	60802.44
573.87	60561.36
574.03	60528.59
574.20	60559.02
574.36	60533.28
574.52	60596.47
574.68	60411.57
574.84	60556.68
575.01	60643.28
575.17	60439.65
575.33	60474.76
575.49	60526.25
575.65	60568.38
575.82	60575.40
575.98	60760.31
576.14	60802.44
576.30	60666.69
576.46	60643.28
576.62	60514.55
576.79	60470.08
576.95	60322.63
577.11	60638.60
577.27	60549.66
577.43	60608.17
577.59	60589.45
577.75	60526.25
577.92	60376.46
578.08	60575.40
578.24	60584.77
578.40	60734.56
578.56	60575.40
578.72	60767.33
578.88	60673.71
579.04	60729.88
579.21	60851.59
579.37	60898.40
579.53	60760.31
579.69	60385.82
579.85	60481.78
580.01	60566.04
580.17	60589.45
580.33	60676.05
580.49	60626.90
580.65	60734.56
580.82	60633.92
580.98	60566.04
581.14	60680.73
581.30	60772.01
581.46	60587.11
581.62	60882.02
581.78	60734.56
581.94	60734.56
582.10	60626.90
582.26	60757.97
582.42	60741.58
582.58	60748.60
582.74	60654.98
582.90	60690.09
583.06	60743.92
583.22	60458.38
583.38	60746.26
583.54	60774.35
583.70	60736.90
583.86	60774.35
584.02	60603.49
584.18	60931.17
584.34	60664.35
584.50	60839.89
584.66	60767.33
584.82	60654.98
584.98	60942.87
585.14	60921.80
585.30	60790.73
585.46	61050.53
585.62	60741.58
585.78	60809.46
585.94	60626.90
586.10	60938.19
586.26	60846.91
586.42	60865.63
586.58	60940.53
586.74	60949.89
586.90	60823.50
587.06	60823.50
587.22	60907.76
587.38	60769.67
587.54	60715.84
587.70	60910.10
587.86	60743.92
588.02	60884.36
588.18	60898.40
588.34	60636.26
588.49	61010.74
588.65	60842.23
588.81	60914.78
588.97	60898.40
589.13	60844.57
589.29	60912.44
589.45	61092.66
589.61	61050.53
589.77	61333.74
589.93	61263.52
590.08	61073.94
590.24	61132.45
590.40	61167.56
590.56	61247.14
590.72	61146.50
590.88	61141.81
591.04	61132.45
591.20	61371.19
591.35	61132.45
591.51	61476.51
591.67	61361.82
591.83	61120.75
591.99	61291.61
592.15	61207.35
592.31	61300.97
592.46	61219.05
592.62	61237.78
592.78	61176.92
592.94	61158.20
593.10	61272.88
593.26	61392.25
593.41	61272.88
593.57	61272.88
593.73	61373.53
593.89	61628.65
594.05	61499.92
594.20	61233.10
594.36	61602.90
594.52	61134.79
594.68	61439.06
594.84	61146.50
594.99	61345.44
595.15	61389.91
595.31	61413.32
595.47	61399.27
595.62	61352.46
595.78	61202.67
595.94	61258.84
596.10	61401.61
596.25	61455.45
596.41	61443.74
596.57	61403.95
596.73	61476.51
596.88	61352.46
597.04	61504.60
597.20	61497.58
597.36	61418.00
597.51	61801.85
597.67	61425.02
597.83	61317.35
597.99	61453.11
598.14	61436.72
598.30	61455.45
598.46	61530.34
598.61	61385.23
598.77	61312.67
598.93	61485.87
599.09	61523.32
599.24	61656.73
599.40	61736.31
599.56	61518.64
599.71	61455.45
599.87	61581.84
600.03	61492.89
600.18	61359.48
600.34	61425.02
600.50	61539.71
600.65	61593.54
600.81	61719.93
600.97	61485.87
601.12	61572.47
601.28	61443.74
601.44	61513.96
601.59	61544.39
601.75	61520.98
601.91	61577.15
602.06	61726.95
602.22	61684.82
602.37	61586.52
602.53	61467.15
602.69	61375.87
602.84	61628.65
603.00	61518.64
603.16	61593.54
603.31	61808.87
603.47	61584.18
603.62	61485.87
603.78	61740.99
603.94	61476.51
604.09	61649.71
604.25	61581.84
604.40	61446.08
604.56	61719.93
604.71	61591.20
604.87	61570.13
605.03	61511.62
605.18	61766.74
605.34	61553.75
605.49	61502.26
605.65	61577.15
605.80	61659.07
605.96	61696.52
606.12	61890.79
606.27	61677.80
606.43	61497.58
606.58	61750.35
606.74	61471.83
606.89	61462.47
607.05	61715.25
607.20	61446.08
607.36	61338.42
607.51	61455.45
607.67	61291.61
607.82	61322.04
607.98	61228.41
608.13	61469.49
608.29	61553.75
608.44	61523.32
608.60	61368.85
608.75	61565.45
608.91	61432.04
609.06	61352.46
609.22	61581.84
609.37	61371.19
609.53	61228.41
609.68	61577.15
609.84	61244.80
609.99	61364.17
610.15	61380.55
610.30	61457.79
610.46	61425.02
610.61	61394.59
610.76	61394.59
610.92	61289.27
611.07	61446.08
611.23	61282.25
611.38	61525.66
611.54	61258.84
611.69	61418.00
611.84	61532.68
612.00	61324.38
612.15	61226.07
612.31	61333.74
612.46	61205.01
612.62	61258.84
612.77	61179.26
612.92	61399.27
613.08	61364.17
613.23	61333.74
613.39	61406.30
613.54	61137.13
613.69	61467.15
613.85	61282.25
614.00	61361.82
614.15	61361.82
614.31	61134.79
614.46	61347.78
614.62	61148.84
614.77	61380.55
614.92	61310.33
615.08	61017.77
615.23	60989.68
615.38	61183.94
615.54	61132.45
615.69	61190.97
615.84	61200.33
616.00	61331.40
616.15	61006.06
616.30	61340.76
616.46	61055.21
616.61	60931.17
616.76	61186.28
616.92	60837.54
617.07	61104.37
617.22	61057.56
617.37	61118.41
617.53	61193.31
617.68	61080.96
617.83	61080.96
617.99	60954.57
618.14	61127.77
618.29	60992.02
618.45	60945.21
618.60	60685.41
618.75	60839.89
618.90	60938.19
619.06	61109.05
619.21	61057.56
619.36	61071.60
619.51	60879.67
619.67	60786.05
619.82	60809.46
619.97	61080.96
620.12	60884.36
620.28	60650.30
620.43	60825.84
620.58	60757.97
620.73	60715.84
620.89	60924.14
621.04	60935.85
621.19	60760.31
621.34	60694.77
621.49	60652.64
621.65	60825.84
621.80	60910.10
621.95	60577.75
622.10	60640.94
622.25	60697.11
622.41	60748.60
622.56	60603.49
622.71	60804.78
622.86	60327.31
623.01	60523.91
623.16	60540.30
623.32	60669.03
623.47	60652.64
623.62	60615.19
623.77	60652.64
623.92	60722.86
624.07	60603.49
624.23	60540.30
624.38	60575.40
624.53	60413.91
624.68	60713.50
624.83	60360.08
624.98	60640.94
625.13	60257.09
625.29	60427.95
625.44	60488.80
625.59	60645.62
625.74	60519.23
625.89	60432.63
626.04	60425.61
626.19	60067.51
626.34	60364.76
626.49	60046.44
626.65	60257.09
626.80	60343.69
626.95	60200.92
627.10	60013.68
627.25	60111.98
627.40	60065.17
627.55	60369.44
627.70	60198.58
627.85	60144.75
628.00	60191.56
628.15	60236.03
628.30	60039.42
628.45	60261.77
628.60	59901.33
628.76	60289.86
628.91	60378.80
629.06	60154.11
629.21	60243.05
629.36	60041.76
629.51	59957.50
629.66	59973.89
629.81	59800.69
629.96	59889.63
630.11	59994.95
630.26	60041.76
630.41	60051.12
630.56	59840.48
630.71	59877.93
630.86	59833.46
631.01	59803.03
631.16	59880.27
631.31	59667.28
631.46	59690.68
631.61	59774.94
631.76	60018.36
631.91	59807.71
632.06	59870.90
632.21	59831.11
632.36	59641.53
632.51	59414.50
632.66	59831.11
632.81	59498.76
632.96	59681.32
633.10	59608.76
633.25	59728.13
633.40	59765.58
633.55	59845.16
633.70	59559.61
633.85	59463.65
634.00	59367.69
634.15	59143.00
634.30	59274.07
634.45	59468.33
634.60	59742.17
634.75	59613.44
634.90	59250.66
635.05	59526.84
635.19	59587.70
635.34	59686.00
635.49	59440.24
635.64	59463.65
635.79	59330.24
635.94	59543.23
636.09	59407.48
636.24	59295.13
636.39	59360.67
636.53	59269.39
636.68	59451.95
636.83	59409.82
636.98	59498.76
637.13	59124.27
637.28	59363.01
637.43	59313.86
637.57	59302.15
637.72	59374.71
637.87	59276.41
638.02	59098.53
638.17	59360.67
638.32	59292.79
638.46	59157.04
638.61	59313.86
638.76	59248.32
638.91	59213.21
639.06	59061.08
639.20	58927.67
639.35	58976.82
639.50	58901.92
639.65	59054.06
639.80	58990.86
639.94	59070.44
640.09	58918.31
640.24	59028.31
640.39	58871.49
640.54	58880.86
640.68	59035.33
640.83	58944.05
640.98	58763.83
641.13	58649.14
641.27	59018.95
641.42	58836.39
641.57	58803.62
641.72	58915.96
641.86	58733.40
642.01	58532.12
642.16	58752.13
642.31	58492.33
642.45	58953.41
642.60	58684.25
642.75	58979.16
642.90	58726.38
643.04	58618.72
643.19	58742.77
643.34	58614.04
643.48	58679.57
643.63	58855.11
643.78	58719.36
643.93	58707.66
644.07	58478.28
644.22	58356.58
644.37	58255.93
644.51	58452.54
644.66	58342.53
644.81	58590.63
644.95	58309.77
645.10	58426.79
645.25	58468.92
645.39	58532.12
645.54	58347.21
645.69	58309.77
645.83	58454.88
645.98	58349.56
646.13	58468.92
646.27	58482.97
646.42	58274.66
646.57	58372.96
646.71	58447.86
646.86	58342.53
647.00	58410.41
647.15	58066.35
647.30	58293.38
647.44	58365.94
647.59	58185.72
647.74	58621.06
647.88	58145.93
648.03	58419.77
648.17	58124.86
648.32	58021.88
648.47	58326.15
648.61	58232.53
648.76	58143.59
648.90	57986.77
649.05	58342.53
649.20	58211.46
649.34	58127.20
649.49	58087.42
649.63	58246.57
649.78	58330.83
649.92	58052.31
650.07	58188.06
650.21	58078.05
650.36	58068.69
650.51	58082.73
650.65	57996.13
650.80	58003.16
650.94	58061.67
651.09	57719.95
651.23	57542.07
651.38	57946.98
651.52	57677.82
651.67	57914.22
651.81	57794.85
651.96	57851.02
652.10	57839.32
652.25	57834.64
652.39	57602.92
652.54	57586.54
652.68	57415.68
652.83	57633.35
652.97	57785.49
653.12	57509.30
653.26	57656.76
653.41	57724.63
653.55	57656.76
653.70	57577.18
653.84	57612.29
653.99	57567.82
654.13	57553.77
654.27	57450.79
654.42	57436.75
654.56	57420.36
654.71	57551.43
654.85	57612.29
655.00	57530.37
655.14	57495.26
655.29	57455.47
655.43	57366.53
655.57	57432.07
655.72	57408.66
655.86	57296.31
656.01	57502.28
656.15	57190.99
656.30	57375.89
656.44	57551.43
656.58	57228.44
656.73	57251.84
656.87	57205.03
657.01	57373.55
657.16	57352.49
657.30	57059.92
657.45	57345.47
657.59	57027.15
657.73	56987.36
657.88	56970.98
658.02	56828.21
658.16	57099.71
658.31	56860.97
658.45	57038.86
658.60	57151.20
658.74	57006.09
658.88	56926.51
659.03	56989.70
659.17	56619.90
659.31	56952.26
659.46	56739.27
659.60	56659.69
659.74	56783.74
659.89	56512.23
660.03	56741.61
660.17	56750.97
660.32	56636.28
660.46	56659.69
660.60	56465.42
660.74	56851.61
660.89	56779.06
661.03	56109.66
661.17	56306.27
661.32	56247.75
661.46	56535.64
661.60	56523.94
661.74	56175.20
661.89	56292.22
662.03	56257.12
662.17	56147.11
662.31	56116.68
662.46	56112.00
662.60	56156.47
662.74	56034.77
662.88	55765.60
663.03	55842.84
663.17	56048.81
663.31	55763.26
663.45	55847.52
663.60	55781.99
663.74	55433.25
663.88	55770.28
664.02	55767.94
664.17	55957.53
664.31	55346.65
664.45	55435.59
664.59	55580.70
664.73	55348.99
664.88	55157.06
665.02	54967.48
665.16	55365.37
665.30	55056.42
665.44	55234.30
665.59	55030.68
665.73	55334.95
665.87	54981.52
666.01	55222.60
666.15	54965.14
666.29	55070.46
666.44	55098.55
666.58	54887.90
666.72	54759.17
666.86	54684.28
667.00	54794.28
667.14	54632.78
667.28	54480.65
667.43	54595.34
667.57	54925.35
667.71	54543.84
667.85	54281.70
667.99	54656.19
668.13	54358.94
668.27	54272.34
668.41	54478.31
668.56	54152.97
668.70	53993.82
668.84	53790.19
668.98	53939.99
669.12	54380.01
669.26	53867.43
669.40	53904.88
669.54	54101.48
669.68	54010.20
669.82	53736.36
669.96	53993.82
670.10	53806.58
670.25	54010.20
670.39	53738.70
670.53	53708.27
670.67	53633.38
670.81	53907.22
670.95	53677.85
671.09	53382.94
671.23	53106.76
671.37	53289.32
671.51	53181.65
671.65	53162.93
671.79	53055.26
671.93	52954.62
672.07	53048.24
672.21	52985.05
672.35	52671.42
672.49	52650.35
672.63	52587.16
672.77	52392.89
672.91	52397.57
673.05	52055.85
673.19	52144.80
673.33	52325.02
673.47	52144.80
673.61	52498.22
673.75	51955.21
673.89	51849.89
674.03	51901.38
674.17	51725.84
674.31	51283.48
674.45	51021.34
674.59	51433.27
674.73	51573.70
674.87	51564.34
675.01	51056.45
675.15	51402.85
675.29	51437.95
675.43	51166.45
675.56	51304.54
675.70	50665.58
675.84	50735.79
675.98	49846.39
676.12	50719.41
676.26	50541.53
676.40	50541.53
676.54	50265.34
676.68	50543.87
676.82	49354.88
676.96	49998.52
677.10	49787.88
677.23	49544.46
677.37	49544.46
677.51	49605.31
677.65	48980.39
677.79	48729.95
677.93	48512.28
678.07	49275.30
678.21	48872.73
678.34	48388.24
678.48	48605.91
678.62	48355.47
678.76	48671.44
678.90	48580.16
679.04	48301.64
679.18	48289.93
679.31	47723.52
679.45	47681.39
679.59	47878.00
679.73	47597.13
679.87	47484.79
680.00	47423.93
680.14	47161.79
680.28	47456.70
680.42	46693.69
680.56	46244.30
680.70	46433.89
680.83	46724.11
680.97	46237.28
681.11	46555.60
681.25	46368.35
681.39	46270.05
681.52	46253.67
681.66	46110.89
681.80	45333.84
681.94	45371.28
682.07	45446.18
682.21	44992.12
682.35	44580.18
682.49	45125.53
682.62	44919.56
682.76	44924.24
682.90	44706.57
683.04	44769.77
683.17	44652.74
683.31	44399.96
683.45	44107.40
683.59	43847.60
683.72	43887.39
683.86	43924.83
684.00	43803.13
684.13	43941.22
684.27	43665.03
684.41	43662.69
684.55	43625.25
684.68	43407.58
684.82	42983.94
684.96	42705.41
685.09	42590.73
685.23	41893.25
685.37	42124.96
685.50	41954.10
685.64	42359.02
685.78	42298.16
685.91	41977.51
686.05	41771.54
686.19	40877.46
686.32	41202.79
686.46	40802.56
686.60	40629.36
686.73	40973.42
686.87	40570.85
687.01	40858.73
687.14	40547.44
687.28	40196.36
687.42	40058.27
687.55	39749.32
687.69	39648.68
687.82	39461.43
687.96	39358.45
688.10	39552.71
688.23	39646.33
688.37	38986.30
688.50	38789.70
688.64	38780.34
688.78	38728.84
688.91	38457.34
689.05	38553.30
689.18	38234.99
689.32	37586.66
689.46	37607.73
689.59	37801.99
689.73	37617.09
689.86	37284.73
690.00	37151.32
690.13	37497.72
690.27	37315.16
690.41	37127.92
690.54	36975.78
690.68	36594.28
690.81	36971.10
690.95	36081.70
691.08	35873.39
691.22	35784.45
691.35	35838.28
691.49	35967.01
691.62	35768.07
691.76	35566.78
691.89	35166.55
692.03	35424.01
692.16	35297.62
692.30	35101.01
692.43	35211.02
692.57	34150.76
692.70	34455.03
692.84	34675.04
692.97	34113.31
693.11	34349.70
693.24	34199.91
693.38	33752.87
693.51	33532.86
693.65	33242.63
693.78	33242.63
693.92	33181.77
694.05	33495.41
694.19	33027.30
694.32	32474.93
694.45	32711.33
694.59	32664.52
694.72	32093.43
694.86	32119.17
694.99	32187.05
695.13	31927.25
695.26	31786.82
695.39	31257.85
695.53	31592.55
695.66	31639.36
695.80	31204.02
695.93	31234.45
696.07	30668.04
696.20	30237.38
696.33	30462.07
696.47	30944.22
696.60	30817.83
696.73	30323.98
696.87	30298.23
697.00	30047.80
697.14	30089.93
697.27	29823.11
697.40	29979.92
697.54	29724.80
697.67	29001.58
697.80	28931.36
697.94	28823.70
698.07	28931.36
698.21	28907.96
698.34	28819.02
698.47	28446.87
698.61	28264.31
698.74	28477.30
698.87	28451.55
699.01	27754.07
699.14	28020.89
699.27	27793.86
699.40	28187.07
699.54	28142.60
699.67	27620.66
699.80	27740.03
699.94	27208.73
700.07	27346.82
700.20	26909.14
700.34	26717.22
700.47	26363.79
700.60	26073.57
700.73	26052.50
700.87	25919.09
701.00	25582.06
701.13	25830.15
701.26	25888.67
701.40	25996.33
701.53	25366.73
701.66	25689.72
701.79	25139.69
701.93	25415.88
702.06	24828.40
702.19	24922.02
702.32	24851.81
702.46	24826.06
702.59	24313.48
702.72	24261.99
702.85	24402.43
702.99	24599.03
703.12	24229.23
703.25	23718.99
703.38	23290.67
703.51	23253.22
703.65	23012.15
703.78	22960.66
703.91	23124.49
704.04	23080.02
704.17	23101.09
704.31	23030.87
704.44	22609.58
704.57	22768.73
704.70	22094.66
704.83	22211.68
704.96	22494.89
705.10	22403.61
705.23	22242.11
>>>>>End Processed Spectral Data<<<<<
