SpectraSuite Data File
++++++++++++++++++++++++++++++++++++
Date: Fri Oct 25 11:26:19 EDT 2013
User: price-jones
Dark Spectrum Present: No
Reference Spectrum Present: No
Number of Sampled Component Spectra: 1
Spectrometers: USB2+H05261
Integration Time (usec): 100000 (USB2+H05261)
Spectra Averaged: 1 (USB2+H05261)
Boxcar Smoothing: 0 (USB2+H05261)
Correct for Electrical Dark: No (USB2+H05261)
Strobe/Lamp Enabled: No (USB2+H05261)
Correct for Detector Non-linearity: No (USB2+H05261)
Correct for Stray Light: No (USB2+H05261)
Number of Pixels in Processed Spectrum: 2048
>>>>>Begin Processed Spectral Data<<<<<
365.73	238.73
365.92	238.73
366.12	238.73
366.32	133.41
366.52	168.52
366.72	131.07
366.91	184.90
367.11	88.94
367.31	88.94
367.51	81.92
367.70	161.50
367.90	189.58
368.10	102.98
368.30	177.88
368.49	203.63
368.69	161.50
368.89	119.37
369.09	203.63
369.28	159.16
369.48	177.88
369.68	180.22
369.87	166.18
370.07	187.24
370.27	154.48
370.47	278.52
370.66	636.63
370.86	688.12
371.06	688.12
371.25	685.78
371.45	638.97
371.65	667.05
371.84	674.07
372.04	631.94
372.24	725.57
372.44	653.01
372.63	723.23
372.83	653.01
373.03	676.41
373.22	697.48
373.42	671.73
373.62	786.42
373.81	755.99
374.01	805.14
374.21	887.06
374.40	842.59
374.60	868.34
374.79	795.78
374.99	788.76
375.19	940.90
375.38	891.74
375.58	821.53
375.78	877.70
375.97	861.32
376.17	985.37
376.37	938.55
376.56	877.70
376.76	912.81
376.95	814.51
377.15	917.49
377.35	894.08
377.54	945.58
377.74	856.64
377.93	814.51
378.13	936.21
378.33	922.17
378.52	891.74
378.72	968.98
378.91	966.64
379.11	936.21
379.31	980.68
379.50	966.64
379.70	1025.15
379.89	1081.33
380.09	966.64
380.28	966.64
380.48	1001.75
380.68	1076.65
380.87	933.87
381.07	985.37
381.26	1055.58
381.46	968.98
381.65	1067.28
381.85	1067.28
382.04	1095.37
382.24	1067.28
382.43	992.39
382.63	1069.62
382.83	1102.39
383.02	1123.46
383.22	1144.52
383.41	1163.25
383.61	1067.28
383.80	1191.33
384.00	1074.31
384.19	1149.20
384.39	1060.26
384.58	1116.44
384.78	1158.57
384.97	1088.35
385.17	1184.31
385.36	1240.48
385.56	1219.42
385.75	1104.73
385.95	1167.93
386.14	1212.40
386.34	1179.63
386.53	1165.59
386.72	1179.63
386.92	1205.38
387.11	1310.70
387.31	1149.20
387.50	1205.38
387.70	1207.72
387.89	1203.04
388.09	1228.78
388.28	1366.87
388.48	1259.21
388.67	1380.92
388.86	1322.40
389.06	1352.83
389.25	1303.68
389.45	1357.51
389.64	1355.17
389.84	1350.49
390.03	1359.85
390.22	1387.94
390.42	1273.25
390.61	1352.83
390.81	1448.79
391.00	1430.07
391.19	1460.49
391.39	1406.66
391.58	1497.94
391.78	1453.47
391.97	1420.71
392.16	1409.00
392.36	1502.62
392.55	1572.84
392.75	1486.24
392.94	1519.01
393.13	1540.07
393.33	1490.92
393.52	1556.46
393.71	1577.52
393.91	1603.27
394.10	1493.26
394.29	1636.03
394.49	1526.03
394.68	1652.42
394.88	1565.82
395.07	1678.16
395.26	1582.20
395.46	1739.02
395.65	1771.79
395.84	1664.12
396.04	1802.21
396.23	1732.00
396.42	1732.00
396.62	1708.59
396.81	1839.66
397.00	1811.57
397.19	1853.70
397.39	1809.23
397.58	1858.39
397.77	1753.06
397.97	1914.56
398.16	1792.85
398.35	1905.20
398.55	1870.09
398.74	1881.79
398.93	1959.03
399.12	1839.66
399.32	1874.77
399.51	1895.83
399.70	2024.56
399.90	2050.31
400.09	2059.67
400.28	1994.14
400.47	2094.78
400.67	2005.84
400.86	2033.93
401.05	1980.09
401.24	2172.02
401.44	2064.35
401.63	2155.63
401.82	2085.42
402.01	2069.03
402.21	2143.93
402.40	2211.81
402.59	2195.42
402.78	2143.93
402.97	2165.00
403.17	2237.55
403.36	2359.26
403.55	2214.15
403.74	2392.03
403.93	2427.14
404.13	2370.96
404.32	2356.92
404.51	2382.67
404.70	2485.65
404.89	2413.09
405.09	2576.93
405.28	2476.29
405.47	2499.69
405.66	2476.29
405.85	2513.74
406.05	2539.48
406.24	2548.84
406.43	2506.71
406.62	2658.85
406.81	2649.49
407.00	2560.55
407.20	2616.72
407.39	2562.89
407.58	2546.50
407.77	2747.79
407.96	2722.04
408.15	2766.51
408.34	2738.43
408.54	2684.59
408.73	2768.85
408.92	2796.94
409.11	2939.71
409.30	2899.92
409.49	2853.11
409.68	2839.07
409.87	3030.99
410.07	2923.33
410.26	3068.44
410.45	2949.08
410.64	3126.96
410.83	3005.25
411.02	3021.63
411.21	2972.48
411.40	3204.19
411.59	3241.64
411.78	3227.60
411.98	3176.11
412.17	3281.43
412.36	3281.43
412.55	3288.45
412.74	3321.22
412.93	3426.54
413.12	3323.56
413.31	3618.47
413.50	3522.51
413.69	3452.29
413.88	3543.57
414.07	3403.14
414.26	3639.53
414.45	3674.64
414.64	3566.98
414.83	3599.74
415.02	3705.07
415.22	3887.63
415.41	3875.93
415.60	3899.33
415.79	3845.50
415.98	3866.56
416.17	3974.23
416.36	3990.61
416.55	3955.51
416.74	4072.53
416.93	4086.58
417.12	4163.81
417.31	4124.02
417.50	4173.18
417.69	4327.65
417.88	4306.59
418.07	4236.37
418.26	4255.09
418.45	4325.31
418.64	4432.97
418.83	4461.06
419.02	4395.53
419.21	4531.28
419.39	4526.60
419.58	4512.55
419.77	4444.68
419.96	4421.27
420.15	4692.77
420.34	4620.22
420.53	4650.64
420.72	4779.37
420.91	4730.22
421.10	4664.69
421.29	4812.14
421.48	4641.28
421.67	4695.11
421.86	4863.63
422.05	4755.97
422.24	4795.76
422.43	4894.06
422.61	4940.87
422.80	5050.88
422.99	5018.11
423.18	4896.40
423.37	4992.36
423.56	4798.10
423.75	4800.44
423.94	4828.53
424.13	4716.18
424.32	4809.80
424.50	4905.76
424.69	5088.32
424.88	5039.17
425.07	4966.62
425.26	4975.98
425.45	4957.25
425.64	4987.68
425.83	5078.96
426.01	5093.01
426.20	4924.49
426.39	4997.04
426.58	5039.17
426.77	4964.28
426.96	5210.03
427.15	5100.03
427.33	5181.95
427.52	5053.22
427.71	5210.03
427.90	5331.74
428.09	5408.98
428.28	5430.04
428.46	5373.87
428.65	5259.18
428.84	5451.11
429.03	5439.40
429.22	5336.42
429.40	5242.80
429.59	5458.13
429.78	5373.87
429.97	5195.99
430.16	5322.38
430.34	5516.64
430.53	5582.18
430.72	5589.20
430.91	5624.31
431.10	5568.13
431.28	5685.16
431.47	5806.87
431.66	5940.28
431.85	5795.17
432.03	5921.56
432.22	6115.82
432.41	5818.57
432.60	5888.79
432.79	6031.56
432.97	5818.57
433.16	6125.18
433.35	5973.05
433.54	6094.76
433.72	6162.63
433.91	6244.55
434.10	6148.59
434.28	6043.26
434.47	6157.95
434.66	6354.55
434.85	6249.23
435.03	6267.95
435.22	6239.87
435.41	6359.24
435.59	6452.86
435.78	6342.85
435.97	6466.90
436.16	6494.99
436.34	6478.60
436.53	6363.92
436.72	6691.59
436.90	6377.96
437.09	6700.95
437.28	6427.11
437.46	6476.26
437.65	6759.47
437.84	6799.26
438.02	6764.15
438.21	6710.32
438.40	6817.98
438.58	6902.24
438.77	6979.48
438.96	6764.15
439.14	7117.57
439.33	7026.29
439.52	7180.76
439.70	7152.68
439.89	7342.26
440.08	7094.16
440.26	7302.47
440.45	7363.33
440.63	7375.03
440.82	7595.04
441.01	7480.35
441.19	7538.87
441.38	7700.36
441.57	7777.60
441.75	7784.62
441.94	7864.20
442.12	7969.52
442.31	8063.15
442.50	7838.45
442.68	7990.59
442.87	7871.22
443.05	8011.65
443.24	8196.56
443.43	8126.34
443.61	8142.72
443.80	8287.84
443.98	8098.25
444.17	7868.88
444.35	8063.15
444.54	8243.37
444.73	8100.59
444.91	8301.88
445.10	8336.99
445.28	8376.78
445.47	8318.26
445.65	8336.99
445.84	8599.13
446.02	8514.87
446.21	8285.50
446.39	8294.86
446.58	8372.10
446.77	8695.09
446.95	8231.66
447.14	8397.84
447.32	8568.70
447.51	8362.73
447.69	8353.37
447.88	8479.76
448.06	8540.61
448.25	8573.38
448.43	8482.10
448.62	8631.90
448.80	8634.24
448.99	8575.72
449.17	8898.72
449.36	8578.06
449.54	8833.18
449.73	9001.70
449.91	8912.76
450.10	8952.55
450.28	8975.95
450.46	9097.66
450.65	8912.76
450.83	9160.86
451.02	9041.49
451.20	9320.01
451.39	8980.64
451.57	8940.85
451.76	9018.08
451.94	9312.99
452.13	9320.01
452.31	9357.46
452.49	9212.35
452.68	9238.09
452.86	9186.60
453.05	9387.89
453.23	9621.94
453.42	9366.82
453.60	9210.01
453.78	9415.98
453.97	9437.04
454.15	9713.22
454.34	9359.80
454.52	9366.82
454.70	9764.72
454.89	9635.99
455.07	9689.82
455.26	9848.97
455.44	9905.15
455.62	9905.15
455.81	9863.02
455.99	10108.77
456.17	10024.51
456.36	10094.73
456.54	10043.24
456.73	10202.40
456.91	10583.90
457.09	10448.15
457.28	10611.99
457.46	10298.36
457.64	10471.56
457.83	10518.37
458.01	10333.47
458.19	10747.74
458.38	10684.55
458.56	10518.37
458.74	10562.84
458.93	10375.59
459.11	10670.50
459.29	10721.99
459.48	10721.99
459.66	10649.44
459.84	10981.79
460.03	11087.12
460.21	10970.09
460.39	10967.75
460.57	11159.67
460.76	11154.99
460.94	11140.95
461.12	11227.55
461.31	10981.79
461.49	11061.37
461.67	11126.91
461.85	11379.68
462.04	11225.21
462.22	11555.22
462.40	11576.29
462.59	11353.94
462.77	11290.74
462.95	11592.67
463.13	11529.48
463.32	11784.60
463.50	11765.87
463.68	11833.75
463.86	11587.99
464.05	11683.95
464.23	11749.49
464.41	11761.19
464.59	11655.87
464.78	12098.23
464.96	12109.93
465.14	11754.17
465.32	12093.55
465.50	12042.06
465.69	12042.06
465.87	12119.29
466.05	12292.49
466.23	12262.07
466.41	12189.51
466.60	12657.62
466.78	12191.85
466.96	12070.14
467.14	12154.40
467.32	12526.55
467.51	12353.35
467.69	12145.04
467.87	12257.39
468.05	12505.48
468.23	12458.67
468.41	12589.74
468.60	12500.80
468.78	12711.45
468.96	12320.58
469.14	12776.98
469.32	13195.94
469.50	12578.04
469.69	12999.34
469.87	12978.27
470.05	13343.39
470.23	12879.97
470.41	12982.95
470.59	13219.35
470.77	13317.65
470.95	12973.59
471.14	13460.42
471.32	13142.11
471.50	13675.75
471.68	13493.19
471.86	13568.09
472.04	13727.24
472.22	14146.20
472.40	13830.23
472.58	13956.61
472.77	13685.11
472.95	14061.94
473.13	14586.22
473.31	13881.72
473.49	14122.79
473.67	14132.15
473.85	14333.44
474.03	14682.18
474.21	14492.60
474.39	14569.83
474.57	14717.29
474.75	14679.84
474.93	14810.91
475.12	14967.73
475.30	15005.17
475.48	14923.26
475.66	15208.80
475.84	15140.93
476.02	15372.64
476.20	15356.25
476.38	15707.34
476.56	15829.04
476.74	16154.38
476.92	15754.15
477.10	15751.81
477.28	16208.21
477.46	16407.16
477.64	16428.22
477.82	16666.95
478.00	16870.58
478.18	16779.30
478.36	16933.78
478.54	16945.48
478.72	17179.53
478.90	17465.08
479.08	17504.87
479.26	17334.01
479.44	17621.89
479.62	17755.30
479.80	17972.97
479.98	18052.55
480.16	18424.70
480.34	17987.02
480.52	18539.38
480.70	18508.96
480.88	18136.81
481.06	18656.41
481.24	18892.80
481.41	19037.92
481.59	18927.91
481.77	19412.40
481.95	19140.90
482.13	19487.30
482.31	19693.27
482.49	20301.81
482.67	19880.51
482.85	20339.26
483.03	20294.79
483.21	20570.97
483.39	20833.11
483.57	20613.10
483.74	21144.40
483.92	21139.72
484.10	21013.33
484.28	22038.48
484.46	21628.89
484.64	22059.55
484.82	21591.44
485.00	22251.47
485.18	22693.83
485.35	22951.29
485.53	22906.82
485.71	23012.15
485.89	23381.95
486.07	23250.88
486.25	23417.06
486.43	23506.00
486.61	23800.91
486.78	24201.14
486.96	23983.47
487.14	24531.15
487.32	24629.46
487.50	24905.64
487.68	25017.99
487.85	25153.74
488.03	25671.00
488.21	25750.57
488.39	25867.60
488.57	25954.20
488.75	25942.50
488.92	26534.65
489.10	26939.57
489.28	26719.56
489.46	26941.91
489.64	26962.97
489.81	27283.62
489.99	27505.98
490.17	27583.21
490.35	27964.72
490.53	27723.65
490.70	28388.36
490.88	28224.52
491.06	29015.62
491.24	28797.95
491.41	29137.33
491.59	29113.92
491.77	28954.77
491.95	29378.40
492.13	29483.73
492.30	29813.74
492.48	29914.39
492.66	29748.21
492.84	30012.69
493.01	30771.02
493.19	30728.89
493.37	30396.54
493.54	30965.29
493.72	30976.99
493.90	31292.96
494.08	31658.09
494.25	31969.38
494.43	32084.06
494.61	32247.90
494.79	32699.62
494.96	32163.64
495.14	32596.64
495.32	33247.31
495.49	33184.12
495.67	33006.23
495.85	33546.90
496.02	33743.50
496.20	33893.30
496.38	34033.73
496.55	33628.82
496.73	34923.13
496.91	34436.30
497.09	34780.36
497.26	34920.79
497.44	35189.95
497.62	34881.00
497.79	35487.20
497.97	35421.67
498.14	35845.30
498.32	36062.97
498.50	36137.87
498.67	36243.20
498.85	36521.72
499.03	36428.10
499.20	36334.48
499.38	36727.69
499.56	36531.08
499.73	36849.39
499.91	37055.36
500.08	37046.00
500.26	37249.63
500.44	37446.23
500.61	37539.85
500.79	37659.22
500.97	38160.09
501.14	38501.81
501.32	37951.79
501.49	38293.50
501.67	38539.26
501.84	38663.31
502.02	38892.68
502.20	38583.73
502.37	39210.99
502.55	39157.16
502.72	39548.03
502.90	39491.86
503.07	39225.04
503.25	39641.65
503.43	39791.45
503.60	39662.72
503.78	40182.32
503.95	40299.34
504.13	40212.74
504.30	40545.10
504.48	40105.08
504.65	40184.66
504.83	40921.93
505.01	41184.07
505.18	40919.59
505.36	41572.60
505.53	41720.05
505.71	41085.76
505.88	41408.76
506.06	41188.75
506.23	41450.89
506.41	41654.51
506.58	42029.00
506.76	42246.67
506.93	42529.87
507.11	42017.30
507.28	42520.51
507.46	42707.76
507.63	42401.14
507.81	43290.55
507.98	42382.42
508.16	43140.75
508.33	43091.60
508.50	43318.64
508.68	43323.32
508.85	43744.61
509.03	43768.02
509.20	43835.89
509.38	44266.55
509.55	44259.53
509.73	44210.38
509.90	44533.37
510.08	44271.23
510.25	44083.99
510.42	44547.42
510.60	44949.99
510.77	44739.34
510.95	45478.95
511.12	44863.39
511.30	45401.71
511.47	45191.06
511.64	45441.50
511.82	45621.72
511.99	45682.58
512.17	45851.09
512.34	45523.42
512.51	46476.02
512.69	46504.10
512.86	46483.04
513.04	46263.03
513.21	46251.33
513.38	46754.54
513.56	46506.44
513.73	46433.89
513.90	46735.82
514.08	46630.49
514.25	46937.10
514.43	47124.35
514.60	47309.25
514.77	47400.53
514.95	47779.70
515.12	47360.74
515.29	47213.29
515.47	48107.37
515.64	48135.46
515.81	47515.22
515.99	47772.67
516.16	48327.38
516.33	48240.78
516.51	48715.91
516.68	48680.80
516.85	48493.56
517.03	48903.15
517.20	48744.00
517.37	48587.18
517.54	48772.08
517.72	48650.38
517.89	48877.41
518.06	49062.31
518.24	48736.98
518.41	48933.58
518.58	49127.84
518.75	49457.86
518.93	49457.86
519.10	48994.43
519.27	49858.09
519.45	49851.07
519.62	49457.86
519.79	49879.16
519.96	49757.45
520.14	50019.59
520.31	50007.89
520.48	50314.50
520.65	50335.56
520.83	50646.85
521.00	50227.90
521.17	50468.97
521.34	50576.64
521.52	50946.44
521.69	50625.79
521.86	50885.59
522.03	50204.49
522.20	51182.84
522.38	51388.80
522.55	51484.76
522.72	51145.39
522.89	51152.41
523.07	51484.76
523.24	51400.50
523.41	51744.56
523.58	51576.04
523.75	51920.10
523.92	51545.62
524.10	51519.87
524.27	52128.41
524.44	52013.73
524.61	52168.20
524.78	51817.12
524.96	52076.92
525.13	52205.65
525.30	52325.02
525.47	52624.60
525.64	52615.24
525.81	52624.60
525.98	52601.20
526.16	52423.32
526.33	52762.70
526.50	52650.35
526.67	52404.59
526.84	52575.45
527.01	52715.89
527.18	52739.29
527.36	52528.64
527.53	53020.16
527.70	53258.89
527.87	53188.67
528.04	53041.22
528.21	53043.56
528.38	53277.61
528.55	53361.87
528.72	53506.99
528.89	53422.73
529.07	53256.55
529.24	53240.17
529.41	53719.98
529.58	53614.65
529.75	53474.22
529.92	53394.64
530.09	53577.20
530.26	53675.51
530.43	54143.61
530.60	53956.37
530.77	53745.72
530.94	53799.55
531.11	53939.99
531.28	54054.67
531.46	53888.49
531.63	53712.95
531.80	54171.70
531.97	54239.57
532.14	54314.47
532.31	54522.78
532.48	54459.58
532.65	54625.76
532.82	54211.49
532.99	54852.80
533.16	54351.92
533.33	54740.45
533.50	54663.21
533.67	55033.02
533.84	54536.82
534.01	54815.35
534.18	54616.40
534.35	55327.92
534.52	54944.08
534.69	54988.55
534.86	55159.41
535.03	55009.61
535.20	55096.21
535.37	55356.01
535.54	55337.29
535.71	54974.50
535.88	55309.20
536.05	55187.49
536.22	55320.90
536.38	55529.21
536.55	55241.32
536.72	55400.48
536.89	55274.09
537.06	55615.81
537.23	55597.09
537.40	55608.79
537.57	55856.88
537.74	55594.74
537.91	55756.24
538.08	55957.53
538.25	55803.05
538.42	55709.43
538.59	56041.79
538.75	55725.81
538.92	55980.93
539.09	56240.73
539.26	56025.40
539.43	56154.13
539.60	56161.15
539.77	56147.11
539.94	56465.42
540.11	56144.77
540.28	56357.76
540.44	56484.15
540.61	56336.69
540.78	56303.93
540.95	56523.94
541.12	56273.50
541.29	56378.82
541.46	56453.72
541.62	56573.09
541.79	56743.95
541.96	56158.81
542.13	56444.36
542.30	56523.94
542.47	56996.73
542.63	56486.49
542.80	56905.44
542.97	57031.83
543.14	57186.31
543.31	57062.26
543.48	57125.46
543.64	57265.89
543.81	57352.49
543.98	57258.87
544.15	57214.40
544.32	57298.65
544.48	57509.30
544.65	57158.22
544.82	57169.93
544.99	57216.74
545.16	57162.90
545.32	57263.55
545.49	57546.75
545.66	57698.89
545.83	57598.24
546.00	57567.82
546.16	57467.17
546.33	57633.35
546.50	57286.95
546.67	57577.18
546.83	57048.22
547.00	57497.60
547.17	57710.59
547.34	57652.08
547.50	57872.09
547.67	57750.38
547.84	57808.89
548.00	57832.30
548.17	57951.66
548.34	57820.59
548.51	58213.80
548.67	58066.35
548.84	57996.13
549.01	57949.32
549.18	58106.14
549.34	58169.33
549.51	58148.27
549.68	58174.02
549.84	58211.46
550.01	58468.92
550.18	58241.89
550.34	58178.70
550.51	58478.28
550.68	58159.97
550.84	58045.29
551.01	58475.94
551.18	58300.40
551.34	58284.02
551.51	58639.78
551.68	58686.59
551.84	58426.79
552.01	58499.35
552.18	58698.30
552.34	58515.73
552.51	58667.87
552.68	58489.99
552.84	58712.34
553.01	58887.88
553.18	58567.23
553.34	58925.33
553.51	58625.74
553.67	58693.61
553.84	58857.45
554.01	58953.41
554.17	58845.75
554.34	58866.81
554.51	58831.71
554.67	58791.92
554.84	58932.35
555.00	58810.64
555.17	58922.99
555.33	59133.63
555.50	58880.86
555.67	58866.81
555.83	58941.71
556.00	59110.23
556.16	59135.98
556.33	59051.72
556.50	58993.20
556.66	59250.66
556.83	58857.45
556.99	59292.79
557.16	59318.54
557.32	59377.05
557.49	59447.27
557.65	59311.52
557.82	59461.31
557.98	59260.02
558.15	59461.31
558.32	59391.09
558.48	59351.30
558.65	59678.98
558.81	59503.44
558.98	59363.01
559.14	59391.09
559.31	59290.45
559.47	59653.23
559.64	59550.25
559.80	59475.35
559.97	59688.34
560.13	59353.65
560.30	59772.60
560.46	59580.68
560.63	59606.42
560.79	59662.60
560.96	59517.48
561.12	59704.73
561.29	59845.16
561.45	59863.88
561.61	59870.90
561.78	59880.27
561.94	59618.13
562.11	59803.03
562.27	59849.84
562.44	59880.27
562.60	59994.95
562.77	59936.44
562.93	59732.81
563.10	59887.29
563.26	59723.45
563.42	60055.81
563.59	59838.14
563.75	59889.63
563.92	59819.41
564.08	59796.01
564.24	60221.98
564.41	60104.96
564.57	60032.40
564.74	60065.17
564.90	60083.89
565.07	59938.78
565.23	60001.97
565.39	59774.94
565.56	60128.36
565.72	60081.55
565.88	60119.00
566.05	60027.72
566.21	59980.91
566.38	60207.94
566.54	60182.19
566.70	60205.60
566.87	60219.64
567.03	59955.16
567.19	60350.71
567.36	60214.96
567.52	60259.43
567.68	60404.55
567.85	60154.11
568.01	60231.35
568.17	60200.92
568.34	60247.73
568.50	60369.44
568.66	60367.10
568.83	60303.90
568.99	60123.68
569.15	60355.39
569.32	60399.86
569.48	60224.32
569.64	60390.50
569.81	60341.35
569.97	60273.48
570.13	60339.01
570.30	60179.85
570.46	60252.41
570.62	60390.50
570.78	60411.57
570.95	60299.22
571.11	60423.27
571.27	60343.69
571.43	60437.31
571.60	60523.91
571.76	60243.05
571.92	60491.15
572.09	60542.64
572.25	60353.05
572.41	60603.49
572.57	60507.53
572.74	60687.75
572.90	60397.52
573.06	60563.70
573.22	60491.15
573.38	60491.15
573.55	60418.59
573.71	60690.09
573.87	60783.71
574.03	60362.42
574.20	60760.31
574.36	60411.57
574.52	60622.22
574.68	60612.85
574.84	60755.63
575.01	60680.73
575.17	60650.30
575.33	60406.89
575.49	60697.11
575.65	60851.59
575.82	60690.09
575.98	60844.57
576.14	60891.38
576.30	60786.05
576.46	60509.87
576.62	60577.75
576.79	60809.46
576.95	60512.21
577.11	60725.20
577.27	60683.07
577.43	60596.47
577.59	60570.72
577.75	60680.73
577.92	60509.87
578.08	60764.99
578.24	60842.23
578.40	60762.65
578.56	60877.33
578.72	60633.92
578.88	60809.46
579.04	60952.23
579.21	60622.22
579.37	60903.08
579.53	60949.89
579.69	60516.89
579.85	60718.18
580.01	60828.18
580.17	60870.31
580.33	60769.67
580.49	60851.59
580.65	60807.12
580.82	60697.11
580.98	60891.38
581.14	60610.51
581.30	60963.93
581.46	60701.79
581.62	60889.04
581.78	60683.07
581.94	60811.80
582.10	60753.29
582.26	60725.20
582.42	60844.57
582.58	60797.76
582.74	60743.92
582.90	60711.16
583.06	60800.10
583.22	60795.42
583.38	60739.24
583.54	60851.59
583.70	60987.34
583.86	60795.42
584.02	60872.65
584.18	60743.92
584.34	60919.46
584.50	60956.91
584.66	60676.05
584.82	60860.95
584.98	60917.12
585.14	60886.70
585.30	60956.91
585.46	60907.76
585.62	60818.82
585.78	61036.49
585.94	60741.58
586.10	60898.40
586.26	60966.27
586.42	60938.19
586.58	61205.01
586.74	60975.64
586.90	60839.89
587.06	60889.04
587.22	61092.66
587.38	60970.96
587.54	61186.28
587.70	61230.75
587.86	60977.98
588.02	60970.96
588.18	61076.28
588.34	60907.76
588.49	60839.89
588.65	61013.08
588.81	61249.48
588.97	61104.37
589.13	60844.57
589.29	60952.23
589.45	61202.67
589.61	61057.56
589.77	61315.01
589.93	61008.40
590.08	61338.42
590.24	61233.10
590.40	61378.21
590.56	61286.93
590.72	61270.54
590.88	61029.47
591.04	61013.08
591.20	61532.68
591.35	61457.79
591.51	61467.15
591.67	61530.34
591.83	61556.09
591.99	61158.20
592.15	61148.84
592.31	61364.17
592.46	61478.85
592.62	61413.32
592.78	61293.95
592.94	61221.39
593.10	61209.69
593.26	61425.02
593.41	61385.23
593.57	61382.89
593.73	61347.78
593.89	61652.05
594.05	61511.62
594.20	61265.86
594.36	61619.28
594.52	61228.41
594.68	61305.65
594.84	61305.65
594.99	61427.36
595.15	61403.95
595.31	61413.32
595.47	61298.63
595.62	61216.71
595.78	61455.45
595.94	61577.15
596.10	61630.99
596.25	61600.56
596.41	61366.51
596.57	61432.04
596.73	61553.75
596.88	61558.43
597.04	61638.01
597.20	61626.31
597.36	61439.06
597.51	61738.65
597.67	61399.27
597.83	61574.81
597.99	61687.16
598.14	61600.56
598.30	61490.55
598.46	61408.64
598.61	61462.47
598.77	61471.83
598.93	61464.81
599.09	61509.28
599.24	61668.44
599.40	61668.44
599.56	61675.46
599.71	61633.33
599.87	61794.82
600.03	61654.39
600.18	61628.65
600.34	61502.26
600.50	61509.28
600.65	61532.68
600.81	61712.91
600.97	61642.69
601.12	61715.25
601.28	61628.65
601.44	61460.13
601.59	61705.88
601.75	61792.48
601.91	61499.92
602.06	61928.23
602.22	61975.05
602.37	61801.85
602.53	61738.65
602.69	61598.22
602.84	61579.49
603.00	61731.63
603.16	61607.58
603.31	61661.41
603.47	61694.18
603.62	61649.71
603.78	61652.05
603.94	61586.52
604.09	61783.12
604.25	61755.03
604.40	61612.26
604.56	61726.95
604.71	61876.74
604.87	61565.45
605.03	61719.93
605.18	61694.18
605.34	61586.52
605.49	61595.88
605.65	61748.01
605.80	61621.62
605.96	61759.72
606.12	61738.65
606.27	61736.31
606.43	61640.35
606.58	61762.06
606.74	61642.69
606.89	61399.27
607.05	61654.39
607.20	61822.91
607.36	61502.26
607.51	61593.54
607.67	61558.43
607.82	61544.39
607.98	61382.89
608.13	61572.47
608.29	61422.68
608.44	61516.30
608.60	61670.78
608.75	61616.94
608.91	61457.79
609.06	61467.15
609.22	61696.52
609.37	61586.52
609.53	61549.07
609.68	61694.18
609.84	61291.61
609.99	61668.44
610.15	61535.02
610.30	61457.79
610.46	61558.43
610.61	61595.88
610.76	61378.21
610.92	61539.71
611.07	61499.92
611.23	61535.02
611.38	61455.45
611.54	61485.87
611.69	61523.32
611.84	61602.90
612.00	61460.13
612.15	61354.80
612.31	61485.87
612.46	61282.25
612.62	61340.76
612.77	61350.12
612.92	61492.89
613.08	61401.61
613.23	61504.60
613.39	61235.44
613.54	61450.77
613.69	61226.07
613.85	61291.61
614.00	61537.36
614.15	61483.53
614.31	61326.72
614.46	61420.34
614.62	61425.02
614.77	61307.99
614.92	61296.29
615.08	61352.46
615.23	61073.94
615.38	61233.10
615.54	61291.61
615.69	61303.31
615.84	61336.08
616.00	61450.77
616.15	61197.99
616.30	61359.48
616.46	60999.04
616.61	61167.56
616.76	61371.19
616.92	61350.12
617.07	61256.50
617.22	61118.41
617.37	61073.94
617.53	61324.38
617.68	61291.61
617.83	61179.26
617.99	61193.31
618.14	61076.28
618.29	61116.07
618.45	61069.26
618.60	61027.13
618.75	60821.16
618.90	61151.18
619.06	61118.41
619.21	61045.85
619.36	61268.20
619.51	61085.64
619.67	60956.91
619.82	60938.19
619.97	60999.04
620.12	61031.81
620.28	60874.99
620.43	61085.64
620.58	60933.51
620.73	60884.36
620.89	60809.46
621.04	60977.98
621.19	61085.64
621.34	60938.19
621.49	60910.10
621.65	60884.36
621.80	60907.76
621.95	60720.52
622.10	60779.03
622.25	60992.02
622.41	60828.18
622.56	60811.80
622.71	60907.76
622.86	60596.47
623.01	60537.96
623.16	60830.52
623.32	60697.11
623.47	60666.69
623.62	60762.65
623.77	60736.90
623.92	60966.27
624.07	60739.24
624.23	60776.69
624.38	60739.24
624.53	60439.65
624.68	60383.48
624.83	60568.38
624.98	60502.85
625.13	60453.70
625.29	60507.53
625.44	60596.47
625.59	60432.63
625.74	60449.02
625.89	60542.64
626.04	60441.99
626.19	60456.04
626.34	60371.78
626.49	60282.84
626.65	60053.47
626.80	60427.95
626.95	60259.43
627.10	60221.98
627.25	60168.15
627.40	60229.01
627.55	60203.26
627.70	60156.45
627.85	60266.45
628.00	60175.17
628.15	60088.57
628.30	60140.07
628.45	60051.12
628.60	60182.19
628.76	60315.61
628.91	60371.78
629.06	60093.25
629.21	60123.68
629.36	60020.70
629.51	60034.74
629.66	60018.36
629.81	59681.32
629.96	59887.29
630.11	59880.27
630.26	60210.28
630.41	60175.17
630.56	59990.27
630.71	59952.82
630.86	60004.31
631.01	59978.57
631.16	60116.66
631.31	59994.95
631.46	59744.51
631.61	60095.60
631.76	60053.47
631.91	59917.71
632.06	59877.93
632.21	59882.61
632.36	59821.75
632.51	59449.61
632.66	59973.89
632.81	59592.38
632.96	59793.67
633.10	59714.09
633.25	59779.62
633.40	60048.78
633.55	59835.80
633.70	59611.10
633.85	59779.62
634.00	59739.83
634.15	59437.90
634.30	59592.38
634.45	59810.05
634.60	59812.39
634.75	59409.82
634.90	59302.15
635.05	59576.00
635.19	59587.70
635.34	59639.19
635.49	59810.05
635.64	59590.04
635.79	59510.46
635.94	59751.54
636.09	59498.76
636.24	59398.12
636.39	59454.29
636.53	59526.84
636.68	59416.84
636.83	59608.76
636.98	59449.61
637.13	59440.24
637.28	59587.70
637.43	59262.36
637.57	59435.56
637.72	59157.04
637.87	59374.71
638.02	59451.95
638.17	59498.76
638.32	59381.73
638.46	59290.45
638.61	59185.13
638.76	59199.17
638.91	59355.99
639.06	59199.17
639.20	59236.62
639.35	59133.63
639.50	59054.06
639.65	59222.58
639.80	59363.01
639.94	59114.91
640.09	59119.59
640.24	59032.99
640.39	58904.26
640.54	58745.11
640.68	59025.97
640.83	58995.54
640.98	58997.88
641.13	59004.91
641.27	59278.75
641.42	58822.34
641.57	58777.87
641.72	58775.53
641.86	59007.25
642.01	58707.66
642.16	58810.64
642.31	58988.52
642.45	59014.27
642.60	58880.86
642.75	58932.35
642.90	58770.85
643.04	58712.34
643.19	58672.55
643.34	58784.90
643.48	58670.21
643.63	58740.42
643.78	58651.48
643.93	58791.92
644.07	58782.55
644.22	58405.73
644.37	58478.28
644.51	58632.76
644.66	58539.14
644.81	58590.63
644.95	58497.01
645.10	58656.17
645.25	58529.78
645.39	58461.90
645.54	58396.37
645.69	58468.92
645.83	58651.48
645.98	58492.33
646.13	58424.45
646.27	58489.99
646.42	58185.72
646.57	58260.62
646.71	58419.77
646.86	58520.41
647.00	58354.24
647.15	58295.72
647.30	58094.44
647.44	58377.64
647.59	58398.71
647.74	58569.57
647.88	58440.84
648.03	58447.86
648.17	58241.89
648.32	58176.36
648.47	58262.96
648.61	58185.72
648.76	58417.43
648.90	58089.76
649.05	58078.05
649.20	58321.47
649.34	58113.16
649.49	58260.62
649.63	58265.30
649.78	58216.14
649.92	58049.97
650.07	58405.73
650.21	57979.75
650.36	58138.91
650.51	57918.90
650.65	58129.54
650.80	58045.29
650.94	57834.64
651.09	58059.33
651.23	57684.84
651.38	57918.90
651.52	57748.04
651.67	57691.86
651.81	57874.43
651.96	57956.35
652.10	57902.51
652.25	57846.34
652.39	57698.89
652.54	57722.29
652.68	57787.83
652.83	57315.04
652.97	57642.71
653.12	57670.80
653.26	57745.70
653.41	57780.81
653.55	57844.00
653.70	57553.77
653.84	57647.39
653.99	57560.79
654.13	57883.79
654.27	57609.95
654.42	57492.92
654.56	57343.12
654.71	57614.63
654.85	57591.22
655.00	57661.44
655.14	57577.18
655.29	57464.83
655.43	57425.04
655.57	57647.39
655.72	57712.93
655.86	57813.57
656.01	57446.11
656.15	57338.44
656.30	57551.43
656.44	57354.83
656.58	57352.49
656.73	57488.24
656.87	57256.53
657.01	57174.61
657.16	57581.86
657.30	57127.80
657.45	57202.69
657.59	57062.26
657.73	57003.75
657.88	57073.96
658.02	56865.66
658.16	57275.25
658.31	57111.41
658.45	57088.01
658.60	57097.37
658.74	57216.74
658.88	56898.42
659.03	56741.61
659.17	56938.21
659.31	56966.30
659.46	56959.28
659.60	56999.07
659.74	56842.25
659.89	56886.72
660.03	56875.02
660.17	57153.54
660.32	56807.14
660.46	56727.56
660.60	56757.99
660.74	56956.94
660.89	56732.25
661.03	56537.98
661.17	56397.55
661.32	56334.35
661.46	56355.42
661.60	56353.08
661.74	56378.82
661.89	56198.60
662.03	56339.04
662.17	56144.77
662.31	56156.47
662.46	56549.68
662.60	56273.50
662.74	56142.43
662.88	56053.49
663.03	55749.22
663.17	56231.37
663.31	55863.91
663.45	55643.90
663.60	56041.79
663.74	55732.84
663.88	55571.34
664.02	55653.26
664.17	55889.65
664.31	55477.72
664.45	55451.97
664.59	55842.84
664.73	55496.44
664.88	55529.21
665.02	55089.19
665.16	55505.80
665.30	55288.13
665.44	55077.49
665.59	55133.66
665.73	55217.92
665.87	55192.17
666.01	55119.62
666.15	55072.81
666.29	54946.42
666.44	55341.97
666.58	54934.71
666.72	54838.75
666.86	54815.35
667.00	54920.67
667.14	54529.80
667.28	54731.09
667.43	54436.18
667.57	54887.90
667.71	54688.96
667.85	54567.25
667.99	54365.96
668.13	54513.42
668.27	54246.60
668.41	54593.00
668.56	54344.90
668.70	54136.59
668.84	54124.89
668.98	54152.97
669.12	54052.33
669.26	54314.47
669.40	54183.40
669.54	54026.59
669.68	54092.12
669.82	54131.91
669.96	54181.06
670.10	53944.67
670.25	53708.27
670.39	54071.06
670.53	53853.39
670.67	53483.58
670.81	53691.89
670.95	53469.54
671.09	53502.31
671.23	53600.61
671.37	53478.90
671.51	53207.40
671.65	53174.63
671.79	53212.08
671.93	53088.03
672.07	53064.63
672.21	53102.07
672.35	52753.33
672.49	52741.63
672.63	52540.35
672.77	52633.97
672.91	52411.62
673.05	52561.41
673.19	52105.01
673.33	51950.53
673.47	52313.31
673.61	52514.60
673.75	52193.95
673.89	51908.40
674.03	51854.57
674.17	51941.17
674.31	51819.46
674.45	51711.80
674.59	51452.00
674.73	51751.59
674.87	51400.50
675.01	51526.89
675.15	51559.66
675.29	51267.09
675.43	51440.29
675.56	51332.63
675.70	51126.66
675.84	51187.52
675.98	50099.17
676.12	50604.72
676.26	50817.71
676.40	50738.13
676.54	50539.19
676.68	50508.76
676.82	49654.47
676.96	50358.97
677.10	50033.63
677.23	50059.38
677.37	50089.80
677.51	49720.00
677.65	49279.98
677.79	48680.80
677.93	48832.94
678.07	49165.29
678.21	48566.12
678.34	48945.28
678.48	49078.69
678.62	48767.40
678.76	48531.01
678.90	48254.82
679.04	48299.30
679.18	47859.27
679.31	47646.29
679.45	48039.50
679.59	48193.97
679.73	48245.46
679.87	47817.14
680.00	47023.70
680.14	47213.29
680.28	46988.60
680.42	47098.60
680.56	46689.01
680.70	46286.43
680.83	46923.06
680.97	46480.70
681.11	46567.30
681.25	46384.74
681.39	46199.83
681.52	46377.72
681.66	45893.22
681.80	45485.97
681.94	46096.85
682.07	45537.46
682.21	44896.16
682.35	45296.39
682.49	45090.42
682.62	45048.29
682.76	44964.03
682.90	45127.87
683.04	45074.04
683.17	44722.96
683.31	44107.40
683.45	44378.90
683.59	44025.48
683.72	43885.04
683.86	43805.47
684.00	43770.36
684.13	43859.30
684.27	43770.36
684.41	43854.62
684.55	43391.19
684.68	43264.80
684.82	43264.80
684.96	42501.79
685.09	42995.64
685.23	42192.84
685.37	42658.60
685.50	42323.91
685.64	42719.46
685.78	42160.07
685.91	42000.91
686.05	41537.49
686.19	41317.48
686.32	41368.97
686.46	40910.22
686.60	40804.90
686.73	40411.69
686.87	40804.90
687.01	40748.73
687.14	40488.93
687.28	39756.34
687.42	40505.31
687.55	40179.98
687.69	40102.74
687.82	39847.62
687.96	39716.55
688.10	39494.20
688.23	39784.43
688.37	39573.78
688.50	38829.49
688.64	39248.44
688.78	38401.17
688.91	38490.11
689.05	38965.24
689.18	38323.93
689.32	37516.45
689.46	37436.87
689.59	37799.65
689.73	37696.67
689.86	37441.55
690.00	36442.14
690.13	37790.29
690.27	37284.73
690.41	37663.90
690.54	37081.11
690.68	36318.09
690.81	36720.66
690.95	36180.00
691.08	35969.35
691.22	36062.97
691.35	36290.01
691.49	36219.79
691.62	35707.21
691.76	35442.73
691.89	35192.30
692.03	35358.47
692.16	35196.98
692.30	34866.96
692.43	35314.00
692.57	34356.72
692.70	34534.60
692.84	34794.40
692.97	34455.03
693.11	34567.37
693.24	33860.53
693.38	34000.96
693.51	33535.20
693.65	33500.09
693.78	33319.87
693.92	33785.63
694.05	32978.15
694.19	32903.25
694.32	32828.35
694.45	33010.92
694.59	32699.62
694.72	32348.54
694.86	32032.57
694.99	31978.74
695.13	32039.59
695.26	31871.07
695.39	31555.10
695.53	31957.67
695.66	31564.46
695.80	31475.52
695.93	31101.04
696.07	30637.61
696.20	30721.87
696.33	30462.07
696.47	30843.58
696.60	30541.65
696.73	30338.02
696.87	30064.18
697.00	30040.78
697.14	30139.08
697.27	29731.83
697.40	30064.18
697.54	29720.12
697.67	29605.44
697.80	29244.99
697.94	29212.23
698.07	29191.16
698.21	28830.72
698.34	28940.72
698.47	28634.11
698.61	28336.87
698.74	28893.91
698.87	28212.82
699.01	27953.02
699.14	28194.09
699.27	28079.41
699.40	28095.79
699.54	27962.38
699.67	27573.85
699.80	27461.51
699.94	27370.22
700.07	27747.05
700.20	27159.58
700.34	27075.32
700.47	26286.56
700.60	26441.03
700.73	26307.62
700.87	26122.72
701.00	26082.93
701.13	25872.28
701.26	25977.61
701.40	25855.90
701.53	25750.57
701.66	25893.35
701.79	25071.82
701.93	25432.26
702.06	24772.23
702.19	24678.61
702.32	24943.09
702.46	24666.91
702.59	24376.68
702.72	24336.89
702.85	24423.49
702.99	24273.70
703.12	23915.59
703.25	23917.93
703.38	23599.62
703.51	23583.24
703.65	23456.85
703.78	23190.03
703.91	23126.83
704.04	23410.04
704.17	23248.54
704.31	22909.16
704.44	22684.47
704.57	22803.84
704.70	22705.54
704.83	22368.50
704.96	22092.32
705.10	22302.96
705.23	22176.58
>>>>>End Processed Spectral Data<<<<<
