SpectraSuite Data File
++++++++++++++++++++++++++++++++++++
Date: Fri Oct 25 11:25:59 EDT 2013
User: price-jones
Dark Spectrum Present: No
Reference Spectrum Present: No
Number of Sampled Component Spectra: 1
Spectrometers: USB2+H05261
Integration Time (usec): 100000 (USB2+H05261)
Spectra Averaged: 1 (USB2+H05261)
Boxcar Smoothing: 0 (USB2+H05261)
Correct for Electrical Dark: No (USB2+H05261)
Strobe/Lamp Enabled: No (USB2+H05261)
Correct for Detector Non-linearity: No (USB2+H05261)
Correct for Stray Light: No (USB2+H05261)
Number of Pixels in Processed Spectrum: 2048
>>>>>Begin Processed Spectral Data<<<<<
365.73	187.24
365.92	187.24
366.12	187.24
366.32	152.13
366.52	100.64
366.72	163.84
366.91	121.71
367.11	107.66
367.31	91.28
367.51	168.52
367.70	81.92
367.90	119.37
368.10	107.66
368.30	119.37
368.49	105.32
368.69	175.54
368.89	42.13
369.09	135.75
369.28	184.90
369.48	205.97
369.68	156.82
369.87	262.14
370.07	194.26
370.27	231.71
370.47	395.55
370.66	641.31
370.86	643.65
371.06	683.44
371.25	671.73
371.45	753.65
371.65	699.82
371.84	732.59
372.04	748.97
372.24	699.82
372.44	746.63
372.63	781.74
372.83	772.38
373.03	755.99
373.22	779.40
373.42	760.67
373.62	744.29
373.81	770.04
374.01	819.19
374.21	854.30
374.40	889.40
374.60	947.92
374.79	816.85
374.99	807.48
375.19	819.19
375.38	844.93
375.58	849.61
375.78	802.80
375.97	877.70
376.17	943.24
376.37	819.19
376.56	936.21
376.76	870.68
376.95	880.04
377.15	854.30
377.35	940.90
377.54	910.47
377.74	866.00
377.93	919.83
378.13	840.25
378.33	931.53
378.52	971.32
378.72	917.49
378.91	943.24
379.11	894.08
379.31	983.02
379.50	945.58
379.70	1025.15
379.89	978.34
380.09	901.11
380.28	992.39
380.48	985.37
380.68	999.41
380.87	1022.81
381.07	1034.52
381.26	1076.65
381.46	1067.28
381.65	1090.69
381.85	1032.18
382.04	1074.31
382.24	1102.39
382.43	1107.07
382.63	1034.52
382.83	1032.18
383.02	1130.48
383.22	1156.22
383.41	1121.12
383.61	1104.73
383.80	1172.61
384.00	1163.25
384.19	1149.20
384.39	1188.99
384.58	1163.25
384.78	1083.67
384.97	1128.14
385.17	1100.05
385.36	1184.31
385.56	1198.35
385.75	1109.41
385.95	1132.82
386.14	1198.35
386.34	1275.59
386.53	1181.97
386.72	1163.25
386.92	1167.93
387.11	1289.64
387.31	1270.91
387.50	1200.69
387.70	1303.68
387.89	1263.89
388.09	1275.59
388.28	1266.23
388.48	1259.21
388.67	1313.04
388.86	1301.34
389.06	1275.59
389.25	1423.05
389.45	1397.30
389.64	1310.70
389.84	1383.26
390.03	1296.66
390.22	1369.21
390.42	1399.64
390.61	1373.89
390.81	1366.87
391.00	1385.60
391.19	1430.07
391.39	1432.41
391.58	1523.69
391.78	1460.49
391.97	1507.30
392.16	1427.73
392.36	1514.33
392.55	1586.88
392.75	1490.92
392.94	1469.86
393.13	1481.56
393.33	1563.48
393.52	1540.07
393.71	1596.25
393.91	1593.90
394.10	1544.75
394.29	1664.12
394.49	1572.84
394.68	1610.29
394.88	1626.67
395.07	1717.95
395.26	1643.06
395.46	1563.48
395.65	1689.87
395.84	1689.87
396.04	1795.19
396.23	1762.42
396.42	1790.51
396.62	1874.77
396.81	1750.72
397.00	1715.61
397.19	1701.57
397.39	1790.51
397.58	1851.36
397.77	1774.13
397.97	1872.43
398.16	1781.15
398.35	1921.58
398.55	1851.36
398.74	1912.22
398.93	1963.71
399.12	1898.17
399.32	1891.15
399.51	1973.07
399.70	1984.77
399.90	1959.03
400.09	1856.04
400.28	2031.58
400.47	2083.08
400.67	2186.06
400.86	1994.14
401.05	2078.40
401.24	2040.95
401.44	2066.69
401.63	2134.57
401.82	2066.69
402.01	2127.55
402.21	2108.82
402.40	2246.91
402.59	2195.42
402.78	2235.21
402.97	2258.62
403.17	2263.30
403.36	2174.36
403.55	2420.11
403.74	2342.88
403.93	2394.37
404.13	2429.48
404.32	2324.15
404.51	2420.11
404.70	2462.24
404.89	2317.13
405.09	2452.88
405.28	2441.18
405.47	2422.45
405.66	2511.39
405.85	2572.25
406.05	2523.10
406.24	2445.86
406.43	2525.44
406.62	2506.71
406.81	2731.41
407.00	2600.34
407.20	2654.17
407.39	2729.06
407.58	2668.21
407.77	2745.45
407.96	2693.96
408.15	2843.75
408.34	2654.17
408.54	2668.21
408.73	2773.53
408.92	2862.48
409.11	2810.98
409.30	2855.45
409.49	2988.86
409.68	2925.67
409.87	2860.13
410.07	3026.31
410.26	2857.79
410.45	2925.67
410.64	3087.17
410.83	3075.46
411.02	3033.33
411.21	3087.17
411.40	3096.53
411.59	3274.41
411.78	3138.66
411.98	3150.36
412.17	3206.53
412.36	3288.45
412.55	3356.33
412.74	3466.33
412.93	3468.67
413.12	3290.79
413.31	3590.38
413.50	3428.88
413.69	3559.95
413.88	3487.40
414.07	3613.79
414.26	3524.85
414.45	3794.01
414.64	3772.94
414.83	3590.38
415.02	3794.01
415.22	3810.39
415.41	3749.54
415.60	3836.14
415.79	3906.35
415.98	3962.53
416.17	3971.89
416.36	3838.48
416.55	3964.87
416.74	4016.36
416.93	4095.94
417.12	4191.90
417.31	4065.51
417.50	4264.46
417.69	4470.42
417.88	4280.84
418.07	4063.17
418.26	4231.69
418.45	4301.90
418.64	4552.34
418.83	4435.32
419.02	4435.32
419.21	4400.21
419.39	4444.68
419.58	4414.25
419.77	4486.81
419.96	4493.83
420.15	4500.85
420.34	4484.47
420.53	4542.98
420.72	4578.09
420.91	4716.18
421.10	4781.71
421.29	4699.80
421.48	4671.71
421.67	4727.88
421.86	4692.77
422.05	4964.28
422.24	4716.18
422.43	4924.49
422.61	4758.31
422.80	4903.42
422.99	4926.83
423.18	4978.32
423.37	4994.70
423.56	4971.30
423.75	4842.57
423.94	4926.83
424.13	4580.43
424.32	4648.30
424.50	4990.02
424.69	5158.54
424.88	4994.70
425.07	4983.00
425.26	4999.38
425.45	4940.87
425.64	4910.44
425.83	4933.85
426.01	5041.51
426.20	5057.90
426.39	5069.60
426.58	4959.60
426.77	4908.10
426.96	5048.54
427.15	5153.86
427.33	5186.63
427.52	5247.48
427.71	5362.17
427.90	5263.86
428.09	5418.34
428.28	5359.83
428.46	5497.92
428.65	5268.55
428.84	5462.81
429.03	5540.05
429.22	5259.18
429.40	5430.04
429.59	5542.39
429.78	5247.48
429.97	5266.21
430.16	5514.30
430.34	5664.10
430.53	5832.62
430.72	5738.99
430.91	5535.37
431.10	5605.58
431.28	5792.83
431.47	5731.97
431.66	5647.71
431.85	5645.37
432.03	6017.52
432.22	5949.64
432.41	5947.30
432.60	5870.06
432.79	5914.53
432.97	6036.24
433.16	5994.11
433.35	6090.07
433.54	6066.67
433.72	6122.84
433.91	5954.32
434.10	6186.04
434.28	6214.12
434.47	6150.93
434.66	6179.01
434.85	6235.19
435.03	6249.23
435.22	6258.59
435.41	6347.53
435.59	6317.11
435.78	6389.66
435.97	6509.03
436.16	6370.94
436.34	6459.88
436.53	6349.87
436.72	6722.02
436.90	6389.66
437.09	6663.51
437.28	6445.84
437.46	6567.54
437.65	6621.38
437.84	6686.91
438.02	6817.98
438.21	6796.92
438.40	6565.20
438.58	6806.28
438.77	7070.76
438.96	6822.66
439.14	6998.20
439.33	7105.87
439.52	7162.04
439.70	7236.94
439.89	7433.54
440.08	7300.13
440.26	7452.27
440.45	7321.20
440.63	7616.10
440.82	7669.94
441.01	7339.92
441.19	7541.21
441.38	7543.55
441.57	7630.15
441.75	7803.35
441.94	7978.89
442.12	8039.74
442.31	8121.66
442.50	8084.21
442.68	8056.12
442.87	7988.25
443.05	8077.19
443.24	8079.53
443.43	8163.79
443.61	8138.04
443.80	8290.18
443.98	7985.91
444.17	7868.88
444.35	8147.40
444.54	8381.46
444.73	8234.00
444.91	8196.56
445.10	8461.04
445.28	8271.45
445.47	8264.43
445.65	8407.20
445.84	8315.92
446.02	8346.35
446.21	8571.04
446.39	8329.97
446.58	8318.26
446.77	8409.54
446.95	8376.78
447.14	8379.12
447.32	8566.36
447.51	8475.08
447.69	8465.72
447.88	8479.76
448.06	8439.97
448.25	8561.68
448.43	8610.83
448.62	8423.59
448.80	8601.47
448.99	8594.45
449.17	8786.37
449.36	8739.56
449.54	8758.28
449.73	8954.89
449.91	8887.01
450.10	8847.22
450.28	8943.19
450.46	9053.19
450.65	8982.98
450.83	9060.21
451.02	9235.75
451.20	8973.61
451.39	9116.39
451.57	9006.38
451.76	8926.80
451.94	9207.67
452.13	9493.21
452.31	9149.15
452.49	9167.88
452.68	9315.33
452.86	9315.33
453.05	9453.42
453.23	9514.28
453.42	9320.01
453.60	9343.42
453.78	9401.93
453.97	9406.61
454.15	9439.38
454.34	9394.91
454.52	9535.34
454.70	9612.58
454.89	9607.90
455.07	9617.26
455.26	9640.67
455.44	10073.67
455.62	10010.47
455.81	9963.66
455.99	9961.32
456.17	9928.55
456.36	9811.53
456.54	10326.44
456.73	10274.95
456.91	10459.85
457.09	10560.50
457.28	10389.64
457.46	10209.42
457.64	10382.62
457.83	10361.55
458.01	10499.64
458.19	10663.48
458.38	10635.39
458.56	10642.42
458.74	10544.11
458.93	10771.15
459.11	10771.15
459.29	10888.17
459.48	10778.17
459.66	10806.25
459.84	10747.74
460.03	10965.41
460.21	10920.94
460.39	10684.55
460.57	11140.95
460.76	10918.60
460.94	11166.70
461.12	11171.38
461.31	11035.63
461.49	11117.54
461.67	11030.94
461.85	11482.67
462.04	11342.24
462.22	11733.11
462.40	11634.80
462.59	11578.63
462.77	11768.21
462.95	11676.93
463.13	11559.91
463.32	11580.97
463.50	11599.70
463.68	11782.26
463.86	11854.81
464.05	11573.95
464.23	11723.74
464.41	11889.92
464.59	11768.21
464.78	11976.52
464.96	11901.62
465.14	11941.41
465.32	11953.12
465.50	12198.87
465.69	12112.27
465.87	12311.22
466.05	12154.40
466.23	12123.98
466.41	12161.42
466.60	12587.40
466.78	11992.90
466.96	12145.04
467.14	12278.45
467.32	12348.67
467.51	12465.69
467.69	12037.38
467.87	12376.75
468.05	12732.51
468.23	12301.86
468.41	12468.03
468.60	12491.44
468.78	12674.00
468.96	12498.46
469.14	12812.09
469.32	12966.57
469.50	12599.10
469.69	12945.50
469.87	12966.57
470.05	13188.92
470.23	13305.95
470.41	12863.58
470.59	13198.28
470.77	13088.28
470.95	13205.30
471.14	13586.81
471.32	13090.62
471.50	13476.80
471.68	13659.37
471.86	13486.17
472.04	13802.14
472.22	14134.50
472.40	13792.78
472.58	13865.33
472.77	13937.89
472.95	14054.92
473.13	14621.33
473.31	14090.02
473.49	14141.52
473.67	14160.24
473.85	14406.00
474.03	14511.32
474.21	14513.66
474.39	14661.12
474.57	14506.64
474.75	14909.21
474.93	14934.96
475.12	14773.46
475.30	14850.70
475.48	15005.17
475.66	15073.05
475.84	15447.54
476.02	15531.80
476.20	15234.55
476.38	15676.91
476.56	15985.86
476.74	15800.96
476.92	15850.11
477.10	15822.02
477.28	16030.33
477.46	15988.20
477.64	16332.26
477.82	16552.27
478.00	16791.00
478.18	17006.33
478.36	16830.79
478.54	17205.28
478.72	17188.89
478.90	17303.58
479.08	17401.88
479.26	17785.73
479.44	17465.08
479.62	17659.34
479.80	17776.37
479.98	17965.95
480.16	18567.47
480.34	18197.67
480.52	18735.99
480.70	18874.08
480.88	18537.04
481.06	18845.99
481.24	18916.21
481.41	19061.32
481.59	19201.76
481.77	19531.77
481.95	19686.25
482.13	20105.20
482.31	19721.35
482.49	20067.75
482.67	20247.97
482.85	20147.33
483.03	20489.05
483.21	20723.10
483.39	21050.78
483.57	20676.29
483.74	20908.01
483.92	21256.75
484.10	21064.82
484.28	21607.83
484.46	21495.48
484.64	22434.03
484.82	21926.14
485.00	22272.54
485.18	22705.54
485.35	22752.35
485.53	22684.47
485.71	22963.00
485.89	23304.71
486.07	23213.43
486.25	23321.10
486.43	23665.16
486.61	23798.57
486.78	23737.71
486.96	23922.62
487.14	24217.52
487.32	24510.09
487.50	24559.24
487.68	24863.51
487.85	25001.60
488.03	25425.24
488.21	25645.25
488.39	25893.35
488.57	25991.65
488.75	26064.21
488.92	26235.06
489.10	26745.30
489.28	26380.18
489.46	26857.65
489.64	26796.79
489.81	27292.99
489.99	27601.94
490.17	27810.25
490.35	27960.04
490.53	28119.20
490.70	28381.34
490.88	28287.71
491.06	28615.39
491.24	28608.37
491.41	29226.27
491.59	29118.60
491.77	29111.58
491.95	29490.75
492.13	29799.70
492.30	29937.79
492.48	30010.35
492.66	30146.10
492.84	30291.21
493.01	30527.61
493.19	30562.72
493.37	30742.94
493.54	30960.61
493.72	31606.59
493.90	31218.07
494.08	31735.32
494.25	31655.75
494.43	32009.17
494.61	32121.51
494.79	32268.97
494.96	32446.85
495.14	32456.21
495.32	33097.52
495.49	33589.03
495.67	33240.29
495.85	33652.22
496.02	33802.02
496.20	33652.22
496.38	33619.46
496.55	34366.09
496.73	34665.67
496.91	34611.84
497.09	34518.22
497.26	35079.95
497.44	34646.95
497.62	35241.45
497.79	35594.87
497.97	35278.89
498.14	35854.67
498.32	36168.30
498.50	36210.43
498.67	36627.04
498.85	36236.17
499.03	36725.35
499.20	36697.26
499.38	36891.52
499.56	36779.18
499.73	37195.79
499.91	37228.56
500.08	37813.70
500.26	37422.83
500.44	37549.21
500.61	37684.97
500.79	37394.74
500.97	37780.93
501.14	38602.46
501.32	38249.03
501.49	38270.10
501.67	38342.66
501.84	38913.75
502.02	39108.01
502.20	39189.93
502.37	38890.34
502.55	39187.59
502.72	39077.58
502.90	39477.82
503.07	39342.06
503.25	39777.40
503.43	39100.99
503.60	39915.50
503.78	39936.56
503.95	40039.54
504.13	40561.48
504.30	40446.80
504.48	40800.22
504.65	40271.26
504.83	41085.76
505.01	41001.50
505.18	40914.90
505.36	41144.28
505.53	41038.95
505.71	41387.69
505.88	41993.89
506.06	41364.29
506.23	41429.82
506.41	41638.13
506.58	41846.44
506.76	42326.25
506.93	42487.74
507.11	42356.67
507.28	42555.62
507.46	43042.45
507.63	42684.35
507.81	43461.41
507.98	42703.07
508.16	42965.21
508.33	43304.59
508.50	43381.83
508.68	43489.49
508.85	43927.17
509.03	43655.67
509.20	43929.51
509.38	44109.74
509.55	44254.85
509.73	44509.97
509.90	44659.76
510.08	44226.76
510.25	44643.38
510.42	44685.51
510.60	45069.36
510.77	45191.06
510.95	45172.34
511.12	45059.99
511.30	45092.76
511.47	45441.50
511.64	45652.15
511.82	45661.51
511.99	45621.72
512.17	45694.28
512.34	46131.96
512.51	46028.98
512.69	46415.16
512.86	46424.53
513.04	46314.52
513.21	46103.87
513.38	46263.03
513.56	46770.93
513.73	46445.59
513.90	46967.53
514.08	46890.29
514.25	46892.63
514.43	47222.65
514.60	47241.37
514.77	47437.98
514.95	47849.91
515.12	47508.19
515.29	47550.32
515.47	48252.48
515.64	47686.07
515.81	47700.12
515.99	47835.87
516.16	48484.20
516.33	48245.46
516.51	48409.30
516.68	48456.11
516.85	48542.71
517.03	48856.34
517.20	48577.82
517.37	48657.40
517.54	48556.75
517.72	48718.25
517.89	48978.05
518.06	49209.76
518.24	49233.17
518.41	48931.24
518.58	49298.70
518.75	49177.00
518.93	49776.17
519.10	49261.26
519.27	49670.85
519.45	49766.81
519.62	49757.45
519.79	49815.96
519.96	50197.47
520.14	50197.47
520.31	49949.37
520.48	50113.21
520.65	50113.21
520.83	50639.83
521.00	50195.13
521.17	50323.86
521.34	50646.85
521.52	50728.77
521.69	50724.09
521.86	50756.86
522.03	50857.50
522.20	51370.08
522.38	51386.46
522.55	51384.12
522.72	51257.73
522.89	50845.80
523.07	51573.70
523.24	51566.68
523.41	51480.08
523.58	51735.20
523.75	51875.63
523.92	51540.94
524.10	51767.97
524.27	51791.37
524.44	52154.16
524.61	52156.50
524.78	51990.32
524.96	51814.78
525.13	52285.23
525.30	52341.40
525.47	52348.42
525.64	52222.03
525.81	52310.97
525.98	52774.40
526.16	52432.68
526.33	52765.04
526.50	52868.02
526.67	52640.99
526.84	52961.64
527.01	52671.42
527.18	52851.64
527.36	52793.12
527.53	52830.57
527.70	53322.08
527.87	53394.64
528.04	53387.62
528.21	53324.43
528.38	53614.65
528.55	53574.86
528.72	53202.72
528.89	53221.44
529.07	53263.57
529.24	53432.09
529.41	53666.14
529.58	53485.92
529.75	53373.58
529.92	53652.10
530.09	53790.19
530.26	54005.52
530.43	53954.03
530.60	53769.13
530.77	53902.54
530.94	54136.59
531.11	53986.80
531.28	53797.21
531.46	54019.56
531.63	54089.78
531.80	54197.44
531.97	54478.31
532.14	54190.42
532.31	54188.08
532.48	54344.90
532.65	54520.44
532.82	54347.24
532.99	54667.89
533.16	54431.50
533.33	54740.45
533.50	54897.27
533.67	54852.80
533.84	54511.08
534.01	54672.57
534.18	54784.92
534.35	55292.82
534.52	54925.35
534.69	55082.17
534.86	55105.57
535.03	54944.08
535.20	55339.63
535.37	55430.91
535.54	55297.50
535.71	55208.56
535.88	55585.38
536.05	55578.36
536.22	55367.71
536.38	55477.72
536.55	55529.21
536.72	55545.59
536.89	55470.70
537.06	55353.67
537.23	55789.01
537.40	55519.85
537.57	55688.37
537.74	55625.17
537.91	55913.06
538.08	55707.09
538.25	55622.83
538.42	55760.92
538.59	56147.11
538.75	55793.69
538.92	55948.17
539.09	56219.67
539.26	56182.22
539.43	56191.58
539.60	56006.68
539.77	56020.72
539.94	56500.53
540.11	56266.48
540.28	56303.93
540.44	56245.41
540.61	56205.62
540.78	56198.60
540.95	56184.56
541.12	56339.04
541.29	56332.01
541.46	56418.61
541.62	56594.15
541.79	56512.23
541.96	56535.64
542.13	56582.45
542.30	56650.33
542.47	56589.47
542.63	56844.59
542.80	57064.60
542.97	57078.64
543.14	57006.09
543.31	57064.60
543.48	57212.06
543.64	57329.08
543.81	57401.64
543.98	57186.31
544.15	57038.86
544.32	57396.96
544.48	57331.42
544.65	57116.09
544.82	57347.81
544.99	57434.41
545.16	57457.81
545.32	57251.84
545.49	57666.12
545.66	57579.52
545.83	57752.72
546.00	57694.21
546.16	57633.35
546.33	57434.41
546.50	57200.35
546.67	57609.95
546.83	57345.47
547.00	57682.50
547.17	57441.43
547.34	57902.51
547.50	57951.66
547.67	57909.53
547.84	57785.49
548.00	58017.20
548.17	58197.42
548.34	58138.91
548.51	57972.73
548.67	58171.67
548.84	58162.31
549.01	58082.73
549.18	57937.62
549.34	58089.76
549.51	58188.06
549.68	58394.03
549.84	58281.68
550.01	58202.10
550.18	58092.10
550.34	58468.92
550.51	58468.92
550.68	58426.79
550.84	58281.68
551.01	58532.12
551.18	58391.68
551.34	58436.16
551.51	58625.74
551.68	58480.63
551.84	58368.28
552.01	58454.88
552.18	58621.06
552.34	58501.69
552.51	58763.83
552.68	58298.06
552.84	58635.10
553.01	58913.62
553.18	58602.33
553.34	58777.87
553.51	58686.59
553.67	58691.27
553.84	58827.02
554.01	58815.32
554.17	58983.84
554.34	58876.18
554.51	59171.08
554.67	59030.65
554.84	59016.61
555.00	58817.66
555.17	59030.65
555.33	59004.91
555.50	58899.58
555.67	58962.78
555.83	58859.79
556.00	58908.94
556.16	59323.22
556.33	59037.67
556.50	59070.44
556.66	59386.41
556.83	59049.38
556.99	59337.26
557.16	59571.32
557.32	59346.62
557.49	59620.47
557.65	59166.40
557.82	59332.58
557.98	59227.26
558.15	59557.27
558.32	59360.67
558.48	59133.63
558.65	59161.72
558.81	59470.67
558.98	59348.96
559.14	59250.66
559.31	59625.15
559.47	59498.76
559.64	59587.70
559.80	59643.87
559.97	59606.42
560.13	59552.59
560.30	59428.54
560.46	59711.75
560.63	59723.45
560.79	59594.72
560.96	59702.38
561.12	59770.26
561.29	59807.71
561.45	59838.14
561.61	59833.46
561.78	59852.18
561.94	59714.09
562.11	59739.83
562.27	59854.52
562.44	59856.86
562.60	60041.76
562.77	59978.57
562.93	59765.58
563.10	60062.83
563.26	59868.56
563.42	59952.82
563.59	59999.63
563.75	60170.49
563.92	59924.74
564.08	59934.10
564.24	60041.76
564.41	59952.82
564.57	60032.40
564.74	60121.34
564.90	60147.09
565.07	60081.55
565.23	60100.28
565.39	60030.06
565.56	60224.32
565.72	60111.98
565.88	60271.14
566.05	59887.29
566.21	60184.54
566.38	60172.83
566.54	60243.05
566.70	60280.50
566.87	60271.14
567.03	60065.17
567.19	60327.31
567.36	60369.44
567.52	60327.31
567.68	60488.80
567.85	60420.93
568.01	60308.58
568.17	60238.37
568.34	60348.37
568.50	60221.98
568.66	60207.94
568.83	60214.96
568.99	60341.35
569.15	60397.52
569.32	60430.29
569.48	60324.97
569.64	60439.65
569.81	60308.58
569.97	60212.62
570.13	60331.99
570.30	60341.35
570.46	60238.37
570.62	60573.06
570.78	60392.84
570.95	60505.19
571.11	60594.13
571.27	60441.99
571.43	60580.09
571.60	60395.18
571.76	60484.12
571.92	60507.53
572.09	60465.40
572.25	60441.99
572.41	60339.01
572.57	60687.75
572.74	60830.52
572.90	60692.43
573.06	60552.00
573.22	60509.87
573.38	60559.02
573.55	60666.69
573.71	60561.36
573.87	60640.94
574.03	60584.77
574.20	60783.71
574.36	60587.11
574.52	60683.07
574.68	60633.92
574.84	60914.78
575.01	60580.09
575.17	60570.72
575.33	60596.47
575.49	60537.96
575.65	60615.19
575.82	60821.16
575.98	60905.42
576.14	60790.73
576.30	60685.41
576.46	60736.90
576.62	60608.17
576.79	60657.32
576.95	60568.38
577.11	60636.26
577.27	60722.86
577.43	61041.17
577.59	60580.09
577.75	60629.24
577.92	60530.93
578.08	60823.50
578.24	60825.84
578.40	60886.70
578.56	60910.10
578.72	60706.47
578.88	60884.36
579.04	60999.04
579.21	60692.43
579.37	60987.34
579.53	61029.47
579.69	60739.24
579.85	60596.47
580.01	60633.92
580.17	60903.08
580.33	60736.90
580.49	60832.86
580.65	60945.21
580.82	60774.35
580.98	60839.89
581.14	60748.60
581.30	60896.06
581.46	60959.25
581.62	60793.07
581.78	60893.72
581.94	60886.70
582.10	60856.27
582.26	60917.12
582.42	60676.05
582.58	60809.46
582.74	60809.46
582.90	60823.50
583.06	60837.54
583.22	60795.42
583.38	61022.45
583.54	60891.38
583.70	60809.46
583.86	60945.21
584.02	60935.85
584.18	61034.15
584.34	60839.89
584.50	60891.38
584.66	60896.06
584.82	60617.53
584.98	61055.21
585.14	60935.85
585.30	60870.31
585.46	60896.06
585.62	61048.19
585.78	60959.25
585.94	60720.52
586.10	60992.02
586.26	61038.83
586.42	61097.34
586.58	61109.05
586.74	60961.59
586.90	60839.89
587.06	60963.93
587.22	61071.60
587.38	60828.18
587.54	61305.65
587.70	61176.92
587.86	61146.50
588.02	61045.85
588.18	61319.70
588.34	60856.27
588.49	60926.49
588.65	61024.79
588.81	61071.60
588.97	61258.84
589.13	61029.47
589.29	61144.16
589.45	61242.46
589.61	61181.60
589.77	61378.21
589.93	61216.71
590.08	61272.88
590.24	61350.12
590.40	61427.36
590.56	61436.72
590.72	61357.14
590.88	61148.84
591.04	61188.63
591.20	61265.86
591.35	61226.07
591.51	61790.14
591.67	61488.21
591.83	61410.98
591.99	61361.82
592.15	61118.41
592.31	61214.37
592.46	61324.38
592.62	61312.67
592.78	61368.85
592.94	61408.64
593.10	61247.14
593.26	61584.18
593.41	61282.25
593.57	61340.76
593.73	61485.87
593.89	61642.69
594.05	61511.62
594.20	61471.83
594.36	61429.70
594.52	61511.62
594.68	61443.74
594.84	61343.10
594.99	61511.62
595.15	61345.44
595.31	61588.86
595.47	61366.51
595.62	61359.48
595.78	61298.63
595.94	61270.54
596.10	61677.80
596.25	61476.51
596.41	61427.36
596.57	61324.38
596.73	61549.07
596.88	61432.04
597.04	61499.92
597.20	61663.75
597.36	61886.10
597.51	61609.92
597.67	61382.89
597.83	61483.53
597.99	61563.11
598.14	61567.79
598.30	61584.18
598.46	61558.43
598.61	61684.82
598.77	61483.53
598.93	61605.24
599.09	61729.29
599.24	61799.50
599.40	61783.12
599.56	61523.32
599.71	61764.40
599.87	61911.85
600.03	61773.76
600.18	61478.85
600.34	61434.38
600.50	61680.14
600.65	61668.44
600.81	61518.64
600.97	61773.76
601.12	61748.01
601.28	61621.62
601.44	61574.81
601.59	61804.19
601.75	61640.35
601.91	61773.76
602.06	61818.23
602.22	61993.77
602.37	61790.14
602.53	61886.10
602.69	61436.72
602.84	61628.65
603.00	61668.44
603.16	61570.13
603.31	61546.73
603.47	61645.03
603.62	61577.15
603.78	61914.19
603.94	61497.58
604.09	62035.90
604.25	61853.34
604.40	61579.49
604.56	61801.85
604.71	61914.19
604.87	61591.20
605.03	61717.59
605.18	61687.16
605.34	61726.95
605.49	61600.56
605.65	61659.07
605.80	61649.71
605.96	61661.41
606.12	61811.21
606.27	61881.42
606.43	61785.46
606.58	61750.35
606.74	61659.07
606.89	61710.56
607.05	61682.48
607.20	61851.00
607.36	61621.62
607.51	61598.22
607.67	61464.81
607.82	61633.33
607.98	61427.36
608.13	61642.69
608.29	61762.06
608.44	61630.99
608.60	61453.11
608.75	61638.01
608.91	61518.64
609.06	61485.87
609.22	61621.62
609.37	61558.43
609.53	61504.60
609.68	61635.67
609.84	61535.02
609.99	61602.90
610.15	61551.41
610.30	61532.68
610.46	61511.62
610.61	61483.53
610.76	61532.68
610.92	61399.27
611.07	61525.66
611.23	61434.38
611.38	61518.64
611.54	61511.62
611.69	61535.02
611.84	61481.19
612.00	61654.39
612.15	61577.15
612.31	61570.13
612.46	61104.37
612.62	61235.44
612.77	61305.65
612.92	61567.79
613.08	61298.63
613.23	61413.32
613.39	61446.08
613.54	61387.57
613.69	61560.77
613.85	61446.08
614.00	61497.58
614.15	61549.07
614.31	61336.08
614.46	61249.48
614.62	61258.84
614.77	61242.46
614.92	61460.13
615.08	61195.65
615.23	61127.77
615.38	61366.51
615.54	61282.25
615.69	61144.16
615.84	61305.65
616.00	61359.48
616.15	61277.57
616.30	61282.25
616.46	61183.94
616.61	61317.35
616.76	61265.86
616.92	60928.83
617.07	61202.67
617.22	61160.54
617.37	61029.47
617.53	61385.23
617.68	61300.97
617.83	61296.29
617.99	61099.68
618.14	61216.71
618.29	61282.25
618.45	61008.40
618.60	60886.70
618.75	60994.36
618.90	60912.44
619.06	61265.86
619.21	61258.84
619.36	61193.31
619.51	61109.05
619.67	60924.14
619.82	61050.53
619.97	61195.65
620.12	60954.57
620.28	60874.99
620.43	60947.55
620.58	61116.07
620.73	60963.93
620.89	61055.21
621.04	61251.82
621.19	60797.76
621.34	60889.04
621.49	60776.69
621.65	60853.93
621.80	60905.42
621.95	60832.86
622.10	60954.57
622.25	60793.07
622.41	60830.52
622.56	60762.65
622.71	60790.73
622.86	60708.82
623.01	60708.82
623.16	60622.22
623.32	60917.12
623.47	60802.44
623.62	60704.13
623.77	60762.65
623.92	60781.37
624.07	60683.07
624.23	60734.56
624.38	60652.64
624.53	60432.63
624.68	60395.18
624.83	60582.43
624.98	60704.13
625.13	60512.21
625.29	60743.92
625.44	60416.25
625.59	60629.24
625.74	60458.38
625.89	60486.46
626.04	60275.82
626.19	60474.76
626.34	60505.19
626.49	60371.78
626.65	60320.29
626.80	60350.71
626.95	60200.92
627.10	60163.47
627.25	60097.94
627.40	60374.12
627.55	60224.32
627.70	60177.51
627.85	60231.35
628.00	60353.05
628.15	60406.89
628.30	60247.73
628.45	60168.15
628.60	60060.49
628.76	60357.74
628.91	60465.40
629.06	60275.82
629.21	60161.13
629.36	60060.49
629.51	60126.02
629.66	60018.36
629.81	59922.40
629.96	59920.05
630.11	59852.18
630.26	60069.85
630.41	60109.64
630.56	60229.01
630.71	60032.40
630.86	60086.23
631.01	59922.40
631.16	59931.76
631.31	59833.46
631.46	59662.60
631.61	59788.98
631.76	59873.24
631.91	59934.10
632.06	60111.98
632.21	59796.01
632.36	59643.87
632.51	59615.79
632.66	59730.47
632.81	59667.28
632.96	59714.09
633.10	59875.58
633.25	59798.35
633.40	59973.89
633.55	59742.17
633.70	59739.83
633.85	59540.89
634.00	59730.47
634.15	59508.12
634.30	59510.46
634.45	59735.15
634.60	59969.21
634.75	59737.49
634.90	59508.12
635.05	59723.45
635.19	59351.30
635.34	59526.84
635.49	59751.54
635.64	59648.55
635.79	59559.61
635.94	59737.49
636.09	59430.88
636.24	59276.41
636.39	59461.31
636.53	59611.10
636.68	59496.42
636.83	59601.74
636.98	59681.32
637.13	59435.56
637.28	59227.26
637.43	59568.97
637.57	59456.63
637.72	59196.83
637.87	59370.03
638.02	59299.81
638.17	59739.83
638.32	59423.86
638.46	59068.10
638.61	59269.39
638.76	59196.83
638.91	59215.55
639.06	59278.75
639.20	59105.55
639.35	59147.68
639.50	58934.69
639.65	59194.49
639.80	59234.28
639.94	58937.03
640.09	59128.95
640.24	59091.51
640.39	59037.67
640.54	58885.54
640.68	59056.40
640.83	59032.99
640.98	58997.88
641.13	59009.59
641.27	59241.30
641.42	58937.03
641.57	58887.88
641.72	59171.08
641.86	58539.14
642.01	58951.07
642.16	58993.20
642.31	58515.73
642.45	59112.57
642.60	59082.14
642.75	59040.01
642.90	58791.92
643.04	58852.77
643.19	58660.85
643.34	58824.68
643.48	58871.49
643.63	58665.53
643.78	58798.94
643.93	58611.70
644.07	58918.31
644.22	58595.31
644.37	58501.69
644.51	58375.30
644.66	58607.01
644.81	58777.87
644.95	58677.23
645.10	58546.16
645.25	58522.76
645.39	58333.17
645.54	58674.89
645.69	58410.41
645.83	58672.55
645.98	58450.20
646.13	58569.57
646.27	58335.51
646.42	58333.17
646.57	58590.63
646.71	58419.77
646.86	58520.41
647.00	58644.46
647.15	58562.54
647.30	58499.35
647.44	58618.72
647.59	58534.46
647.74	58403.39
647.88	58529.78
648.03	58609.35
648.17	58447.86
648.32	58347.21
648.47	58571.91
648.61	58087.42
648.76	58532.12
648.90	58223.17
649.05	58211.46
649.20	58342.53
649.34	58262.96
649.49	58178.70
649.63	58305.09
649.78	58267.64
649.92	58269.98
650.07	58230.19
650.21	57928.26
650.36	58246.57
650.51	58014.86
650.65	58248.91
650.80	58237.21
650.94	58010.18
651.09	58033.58
651.23	57715.27
651.38	57963.37
651.52	57607.61
651.67	57867.40
651.81	57738.68
651.96	57776.12
652.10	57968.05
652.25	57670.80
652.39	58003.16
652.54	57659.10
652.68	57387.60
652.83	57691.86
652.97	57712.93
653.12	57722.29
653.26	58021.88
653.41	57677.82
653.55	57827.62
653.70	57633.35
653.84	57755.06
653.99	57745.70
654.13	57588.88
654.27	57715.27
654.42	57567.82
654.56	57420.36
654.71	57640.37
654.85	57504.62
655.00	57708.25
655.14	57591.22
655.29	57513.98
655.43	57420.36
655.57	57289.29
655.72	57284.61
655.86	57492.92
656.01	57378.23
656.15	57492.92
656.30	57408.66
656.44	57584.20
656.58	57518.67
656.73	57726.97
656.87	57387.60
657.01	57258.87
657.16	57485.90
657.30	57179.29
657.45	57361.85
657.59	57312.70
657.73	56963.96
657.88	57104.39
658.02	57195.67
658.16	57190.99
658.31	57176.95
658.45	56985.02
658.60	57167.58
658.74	57120.77
658.88	56776.72
659.03	57137.16
659.17	56839.91
659.31	56978.00
659.46	56797.78
659.60	56809.48
659.74	56928.85
659.89	56666.71
660.03	56816.50
660.17	56853.95
660.32	56409.25
660.46	56657.35
660.60	56629.26
660.74	56912.47
660.89	56896.08
661.03	56470.11
661.17	56217.33
661.32	56683.09
661.46	56573.09
661.60	56535.64
661.74	56378.82
661.89	55971.57
662.03	56193.92
662.17	56306.27
662.31	55889.65
662.46	56315.63
662.60	56198.60
662.74	56203.28
662.88	55873.27
663.03	55945.83
663.17	56090.94
663.31	56114.34
663.45	55957.53
663.60	55676.66
663.74	55650.92
663.88	55866.25
664.02	55800.71
664.17	55845.18
664.31	55494.10
664.45	55517.51
664.59	55679.00
664.73	55454.31
664.88	55461.33
665.02	55234.30
665.16	55327.92
665.30	55334.95
665.44	55468.36
665.59	55309.20
665.73	55337.29
665.87	55213.24
666.01	55412.18
666.15	55084.51
666.29	55121.96
666.44	55253.03
666.58	54981.52
666.72	54780.24
666.86	54815.35
667.00	55103.23
667.14	54717.04
667.28	54862.16
667.43	54791.94
667.57	54719.38
667.71	54546.18
667.85	54468.95
667.99	54431.50
668.13	54585.97
668.27	54391.71
668.41	54536.82
668.56	54054.67
668.70	54167.02
668.84	54108.50
668.98	53972.75
669.12	53888.49
669.26	54085.10
669.40	54190.42
669.54	54401.07
669.68	53947.01
669.82	53851.05
669.96	54038.29
670.10	53970.41
670.25	54326.17
670.39	53872.11
670.53	53839.34
670.67	53635.72
670.81	54073.40
670.95	53635.72
671.09	53886.15
671.23	53455.50
671.37	53408.68
671.51	53361.87
671.65	53375.92
671.79	53272.93
671.93	53200.38
672.07	53408.68
672.21	53221.44
672.35	52851.64
672.49	52659.71
672.63	52793.12
672.77	52746.31
672.91	52664.39
673.05	52507.58
673.19	52603.54
673.33	52397.57
673.47	52545.03
673.61	52280.55
673.75	52041.81
673.89	52271.18
674.03	51662.64
674.17	51863.93
674.31	51601.79
674.45	51723.50
674.59	51643.92
674.73	51728.18
674.87	51959.89
675.01	51196.88
675.15	51407.53
675.29	51601.79
675.43	51430.93
675.56	51164.11
675.70	51210.92
675.84	50745.15
675.98	50094.49
676.12	50714.73
676.26	50855.16
676.40	50525.14
676.54	50426.84
676.68	50670.26
676.82	49722.34
676.96	50356.63
677.10	50136.62
677.23	49883.84
677.37	49717.66
677.51	49710.64
677.65	49425.09
677.79	48893.79
677.93	48870.39
678.07	49139.55
678.21	48364.83
678.34	48556.75
678.48	48952.30
678.62	48907.83
678.76	48690.16
678.90	48435.05
679.04	48311.00
679.18	48589.52
679.31	47861.61
679.45	48051.20
679.59	48034.81
679.73	47688.42
679.87	47927.15
680.00	47002.64
680.14	46969.87
680.28	47688.42
680.42	46904.34
680.56	46614.11
680.70	46887.95
680.83	46752.20
680.97	46794.33
681.11	46586.02
681.25	46415.16
681.39	46265.37
681.52	46443.25
681.66	46595.38
681.80	46171.75
681.94	46120.26
682.07	45631.08
682.21	45045.95
682.35	45546.82
682.49	45181.70
682.62	45432.14
682.76	44711.25
682.90	44924.24
683.04	44942.97
683.17	44968.71
683.31	44655.08
683.45	44198.68
683.59	44149.53
683.72	43878.02
683.86	44144.84
684.00	43924.83
684.13	44201.02
684.27	43950.58
684.41	43693.12
684.55	43756.32
684.68	43564.39
684.82	43318.64
684.96	42876.27
685.09	42857.55
685.23	42384.76
685.37	42410.51
685.50	42099.22
685.64	42263.05
685.78	42373.06
685.91	41846.44
686.05	41375.99
686.19	41401.74
686.32	41441.53
686.46	40950.01
686.60	40692.55
686.73	40327.43
686.87	41017.89
687.01	40811.92
687.14	40261.90
687.28	39864.00
687.42	40399.99
687.55	40060.61
687.69	40245.51
687.82	39676.76
687.96	39325.68
688.10	39466.11
688.23	39950.60
688.37	39208.65
688.50	38927.79
688.64	38759.27
688.78	38347.34
688.91	37975.19
689.05	38717.14
689.18	38373.08
689.32	37626.45
689.46	37514.11
689.59	37769.22
689.73	37535.17
689.86	37219.20
690.00	37521.13
690.13	37380.70
690.27	37607.73
690.41	37727.10
690.54	37104.51
690.68	36865.78
690.81	36697.26
690.95	36212.77
691.08	36577.89
691.22	35821.90
691.35	36070.00
691.49	35934.24
691.62	35931.90
691.76	35938.93
691.89	35388.90
692.03	35157.19
692.16	35175.91
692.30	35204.00
692.43	34792.06
692.57	34623.54
692.70	34457.37
692.84	34682.06
692.97	34213.95
693.11	34005.64
693.24	33998.62
693.38	33912.02
693.51	33823.08
693.65	33525.83
693.78	33191.14
693.92	33378.38
694.05	33003.89
694.19	33366.68
694.32	33053.05
694.45	33120.92
694.59	32833.04
694.72	32540.47
694.86	32320.46
694.99	32170.66
695.13	32315.78
695.26	31803.20
695.39	31599.57
695.53	31964.70
695.66	31798.52
695.80	31555.10
695.93	31051.89
696.07	30684.42
696.20	30602.50
696.33	30735.92
696.47	30731.23
696.60	31140.83
696.73	30373.13
696.87	30349.73
697.00	30134.40
697.14	30419.94
697.27	30263.13
697.40	30150.78
697.54	29406.49
697.67	29120.95
697.80	29280.10
697.94	29261.38
698.07	28893.91
698.21	28606.03
698.34	28751.14
698.47	28755.82
698.61	28084.09
698.74	28486.66
698.87	28498.36
699.01	28002.17
699.14	28030.26
699.27	28095.79
699.40	28222.18
699.54	28027.92
699.67	27964.72
699.80	27391.29
699.94	27316.39
700.07	27206.39
700.20	27288.31
700.34	26452.73
700.47	26398.90
700.60	26305.28
700.73	26466.78
700.87	26010.37
701.00	25888.67
701.13	25720.15
701.26	26082.93
701.40	26223.36
701.53	25516.52
701.66	25907.39
701.79	25099.90
701.93	25174.80
702.06	24737.12
702.19	25209.91
702.32	25062.46
702.46	24975.86
702.59	24439.87
702.72	24308.80
702.85	24407.11
702.99	24657.54
703.12	23927.30
703.25	24102.84
703.38	23435.78
703.51	23620.69
703.65	23597.28
703.78	23239.18
703.91	23016.83
704.04	23183.01
704.17	23264.92
704.31	23388.97
704.44	22574.47
704.57	22817.88
704.70	22895.12
704.83	22450.42
704.96	22375.52
705.10	22237.43
705.23	22312.33
>>>>>End Processed Spectral Data<<<<<
