SpectraSuite Data File
++++++++++++++++++++++++++++++++++++
Date: Fri Oct 25 11:22:50 EDT 2013
User: price-jones
Dark Spectrum Present: No
Reference Spectrum Present: No
Number of Sampled Component Spectra: 1
Spectrometers: USB2+H05261
Integration Time (usec): 100000 (USB2+H05261)
Spectra Averaged: 1 (USB2+H05261)
Boxcar Smoothing: 0 (USB2+H05261)
Correct for Electrical Dark: No (USB2+H05261)
Strobe/Lamp Enabled: No (USB2+H05261)
Correct for Detector Non-linearity: No (USB2+H05261)
Correct for Stray Light: No (USB2+H05261)
Number of Pixels in Processed Spectrum: 2048
>>>>>Begin Processed Spectral Data<<<<<
365.73	273.84
365.92	273.84
366.12	273.84
366.32	154.48
366.52	128.73
366.72	102.98
366.91	100.64
367.11	112.35
367.31	107.66
367.51	126.39
367.70	145.11
367.90	161.50
368.10	128.73
368.30	173.20
368.49	126.39
368.69	168.52
368.89	81.92
369.09	110.01
369.28	102.98
369.48	124.05
369.68	189.58
369.87	159.16
370.07	161.50
370.27	287.89
370.47	304.27
370.66	594.50
370.86	657.69
371.06	592.16
371.25	730.25
371.45	660.03
371.65	664.71
371.84	671.73
372.04	617.90
372.24	770.04
372.44	746.63
372.63	755.99
372.83	758.33
373.03	725.57
373.22	798.12
373.42	755.99
373.62	758.33
373.81	746.63
374.01	821.53
374.21	777.06
374.40	788.76
374.60	781.74
374.79	842.59
374.99	866.00
375.19	730.25
375.38	901.11
375.58	870.68
375.78	924.51
375.97	896.43
376.17	933.87
376.37	884.72
376.56	800.46
376.76	866.00
376.95	807.48
377.15	912.81
377.35	926.85
377.54	957.28
377.74	866.00
377.93	833.23
378.13	938.55
378.33	980.68
378.52	978.34
378.72	910.47
378.91	983.02
379.11	945.58
379.31	891.74
379.50	924.51
379.70	997.07
379.89	980.68
380.09	1001.75
380.28	903.45
380.48	980.68
380.68	1029.84
380.87	987.71
381.07	947.92
381.26	1055.58
381.46	1032.18
381.65	999.41
381.85	1036.86
382.04	999.41
382.24	1071.97
382.43	1114.10
382.63	1013.45
382.83	1036.86
383.02	1158.57
383.22	1196.01
383.41	997.07
383.61	1151.54
383.80	1135.16
384.00	1235.80
384.19	1205.38
384.39	1062.60
384.58	1193.67
384.78	1139.84
384.97	1200.69
385.17	1149.20
385.36	1102.39
385.56	1074.31
385.75	1233.46
385.95	1163.25
386.14	1142.18
386.34	1219.42
386.53	1240.48
386.72	1247.51
386.92	1114.10
387.11	1310.70
387.31	1303.68
387.50	1266.23
387.70	1270.91
387.89	1226.44
388.09	1205.38
388.28	1299.00
388.48	1373.89
388.67	1238.14
388.86	1289.64
389.06	1275.59
389.25	1240.48
389.45	1390.28
389.64	1268.57
389.84	1425.39
390.03	1458.15
390.22	1385.60
390.42	1420.71
390.61	1378.58
390.81	1334.11
391.00	1444.11
391.19	1439.43
391.39	1535.39
391.58	1420.71
391.78	1472.20
391.97	1390.28
392.16	1404.32
392.36	1542.41
392.55	1500.28
392.75	1572.84
392.94	1591.56
393.13	1530.71
393.33	1593.90
393.52	1689.87
393.71	1519.01
393.91	1533.05
394.10	1554.12
394.29	1514.33
394.49	1537.73
394.68	1659.44
394.88	1640.72
395.07	1825.62
395.26	1654.76
395.46	1621.99
395.65	1739.02
395.84	1657.10
396.04	1858.39
396.23	1727.32
396.42	1771.79
396.62	1823.28
396.81	1853.70
397.00	1788.17
397.19	1739.02
397.39	1781.15
397.58	1909.88
397.77	1804.55
397.97	1834.98
398.16	1947.33
398.35	1872.43
398.55	1837.32
398.74	1907.54
398.93	1952.01
399.12	1865.41
399.32	1942.64
399.51	1914.56
399.70	2054.99
399.90	1984.77
400.09	1991.80
400.28	2047.97
400.47	2031.58
400.67	2031.58
400.86	2031.58
401.05	2073.71
401.24	2054.99
401.44	2134.57
401.63	2015.20
401.82	2106.48
402.01	2054.99
402.21	2157.97
402.40	2277.34
402.59	2242.23
402.78	2134.57
402.97	2251.60
403.17	2169.68
403.36	2328.83
403.55	2244.57
403.74	2368.62
403.93	2331.17
404.13	2401.39
404.32	2286.70
404.51	2483.31
404.70	2349.90
404.89	2321.81
405.09	2509.05
405.28	2387.35
405.47	2555.86
405.66	2478.63
405.85	2490.33
406.05	2497.35
406.24	2583.95
406.43	2619.06
406.62	2649.49
406.81	2696.30
407.00	2647.15
407.20	2476.29
407.39	2708.00
407.58	2738.43
407.77	2773.53
407.96	2785.24
408.15	2729.06
408.34	2689.28
408.54	2693.96
408.73	2850.77
408.92	2715.02
409.11	2918.65
409.30	2960.78
409.49	2895.24
409.68	3000.57
409.87	2998.23
410.07	2991.20
410.26	2972.48
410.45	2928.01
410.64	3038.02
410.83	3133.98
411.02	3103.55
411.21	3215.90
411.40	3148.02
411.59	3283.77
411.78	3199.51
411.98	3222.92
412.17	3262.71
412.36	3386.76
412.55	3538.89
412.74	3475.70
412.93	3456.97
413.12	3396.12
413.31	3459.31
413.50	3513.14
413.69	3510.80
413.88	3740.18
414.07	3496.76
414.26	3576.34
414.45	3686.34
414.64	3721.45
414.83	3810.39
415.02	3721.45
415.22	3772.94
415.41	3789.33
415.60	3831.46
415.79	3826.78
415.98	4053.81
416.17	3939.12
416.36	3983.59
416.55	3985.93
416.74	4093.60
416.93	3971.89
417.12	4126.36
417.31	4109.98
417.50	4210.62
417.69	4358.08
417.88	4273.82
418.07	4236.37
418.26	4365.10
418.45	4418.93
418.64	4603.83
418.83	4531.28
419.02	4386.16
419.21	4545.32
419.39	4531.28
419.58	4484.47
419.77	4414.25
419.96	4629.58
420.15	4652.98
420.34	4643.62
420.53	4648.30
420.72	4798.10
420.91	4805.12
421.10	4840.23
421.29	4788.74
421.48	4755.97
421.67	4795.76
421.86	4844.91
422.05	4812.14
422.24	4847.25
422.43	4868.31
422.61	4980.66
422.80	4990.02
422.99	4975.98
423.18	4933.85
423.37	4990.02
423.56	5022.79
423.75	5025.13
423.94	4891.72
424.13	4606.17
424.32	4791.08
424.50	5074.28
424.69	5085.98
424.88	5043.85
425.07	5018.11
425.26	4938.53
425.45	4915.12
425.64	4842.57
425.83	5085.98
426.01	5064.92
426.20	5071.94
426.39	5046.20
426.58	5137.48
426.77	5139.82
426.96	5172.58
427.15	5053.22
427.33	5015.77
427.52	5203.01
427.71	5221.74
427.90	5231.10
428.09	5308.34
428.28	5542.39
428.46	5249.82
428.65	5273.23
428.84	5434.72
429.03	5638.35
429.22	5437.06
429.40	5472.17
429.59	5474.51
429.78	5413.66
429.97	5242.80
430.16	5575.16
430.34	5647.71
430.53	5558.77
430.72	5654.73
430.91	5636.01
431.10	5605.58
431.28	5753.04
431.47	5865.38
431.66	5856.02
431.85	5963.68
432.03	5977.73
432.22	6038.58
432.41	5916.87
432.60	6061.99
432.79	6005.81
432.97	6066.67
433.16	5959.00
433.35	5959.00
433.54	6223.48
433.72	6389.66
433.91	6111.14
434.10	6228.17
434.28	6244.55
434.47	6204.76
434.66	6359.24
434.85	6291.36
435.03	6396.68
435.22	6265.61
435.41	6640.10
435.59	6574.56
435.78	6574.56
435.97	6597.97
436.16	6483.28
436.34	6394.34
436.53	6424.77
436.72	6565.20
436.90	6427.11
437.09	6609.67
437.28	6628.40
437.46	6597.97
437.65	6684.57
437.84	6911.60
438.02	6832.02
438.21	6869.47
438.40	6754.79
438.58	7030.97
438.77	7204.17
438.96	6932.67
439.14	7126.93
439.33	7138.63
439.52	7342.26
439.70	7241.62
439.89	7470.99
440.08	7559.93
440.26	7349.28
440.45	7417.16
440.63	7442.90
440.82	7744.83
441.01	7644.19
441.19	7775.26
441.38	7822.07
441.57	7829.09
441.75	7946.12
441.94	7988.25
442.12	7971.86
442.31	8060.80
442.50	8091.23
442.68	8088.89
442.87	8046.76
443.05	8116.98
443.24	8112.30
443.43	8175.49
443.61	8250.39
443.80	8421.25
443.98	8035.06
444.17	7915.69
444.35	8252.73
444.54	8418.91
444.73	8547.64
444.91	8372.10
445.10	8379.12
445.28	8285.50
445.47	8369.76
445.65	8365.07
445.84	8620.19
446.02	8547.64
446.21	8358.05
446.39	8346.35
446.58	8828.50
446.77	8351.03
446.95	8463.38
447.14	8512.53
447.32	8683.39
447.51	8552.32
447.69	8430.61
447.88	8662.32
448.06	8564.02
448.25	8421.25
448.43	8606.15
448.62	8617.85
448.80	8664.66
448.99	8718.50
449.17	8769.99
449.36	8622.53
449.54	8926.80
449.73	9102.34
449.91	9064.89
450.10	8903.40
450.28	9172.56
450.46	9083.62
450.65	8884.67
450.83	8929.14
451.02	9062.55
451.20	8997.02
451.39	9261.50
451.57	9266.18
451.76	9135.11
451.94	9149.15
452.13	9231.07
452.31	9263.84
452.49	9121.07
452.68	9308.31
452.86	9483.85
453.05	9444.06
453.23	9586.83
453.42	9266.18
453.60	9593.86
453.78	9731.95
453.97	9603.22
454.15	9682.80
454.34	9755.35
454.52	9593.86
454.70	9753.01
454.89	9813.87
455.07	9865.36
455.26	9891.10
455.44	10153.24
455.62	9827.91
455.81	9944.94
455.99	10005.79
456.17	10239.84
456.36	10265.59
456.54	10169.63
456.73	10363.89
456.91	10520.71
457.09	10448.15
457.28	10583.90
457.46	10403.68
457.64	10677.52
457.83	10450.49
458.01	10373.25
458.19	10897.53
458.38	10721.99
458.56	10693.91
458.74	10513.69
458.93	10867.11
459.11	10827.32
459.29	10740.72
459.48	11040.31
459.66	10658.80
459.84	11063.71
460.03	11094.14
460.21	10902.22
460.39	11084.78
460.57	11110.52
460.76	11084.78
460.94	11061.37
461.12	11243.93
461.31	11255.64
461.49	11454.58
461.67	11309.47
461.85	11763.53
462.04	11288.40
462.22	11969.50
462.40	11665.23
462.59	11468.62
462.77	11527.14
462.95	11632.46
463.13	11641.82
463.32	11763.53
463.50	11777.58
463.68	11896.94
463.86	11758.85
464.05	11639.48
464.23	11681.61
464.41	12013.97
464.59	11819.71
464.78	12086.53
464.96	12170.79
465.14	12018.65
465.32	11901.62
465.50	12383.77
465.69	12147.38
465.87	12191.85
466.05	12276.11
466.23	12266.75
466.41	12547.61
466.60	12505.48
466.78	12280.79
466.96	12154.40
467.14	12542.93
467.32	12379.09
467.51	12643.57
467.69	12170.79
467.87	12430.59
468.05	12650.60
468.23	12533.57
468.41	12594.42
468.60	12741.88
468.78	12760.60
468.96	12849.54
469.14	12924.44
469.32	12952.52
469.50	12868.27
469.69	13289.56
469.87	13371.48
470.05	13055.51
470.23	13516.59
470.41	13298.92
470.59	13458.08
470.77	13380.84
470.95	13188.92
471.14	13682.77
471.32	13050.83
471.50	13638.30
471.68	13673.41
471.86	13638.30
472.04	13902.78
472.22	14221.10
472.40	13743.63
472.58	13877.04
472.77	13898.10
472.95	14380.25
473.13	14611.96
473.31	13984.70
473.49	14307.69
473.67	14232.80
473.85	14455.15
474.03	14761.76
474.21	14548.77
474.39	14906.87
474.57	14984.11
474.75	14958.36
474.93	15183.06
475.12	15051.99
475.30	15199.44
475.48	15094.11
475.66	15169.01
475.84	15264.97
476.02	15569.24
476.20	15468.60
476.38	15798.62
476.56	16063.10
476.74	16072.46
476.92	15868.83
477.10	15981.18
477.28	16170.76
477.46	16589.72
477.64	16709.08
477.82	16788.66
478.00	17109.32
478.18	16926.75
478.36	17287.20
478.54	17404.22
478.72	17303.58
478.90	17418.27
479.08	17785.73
479.26	17713.17
479.44	17774.03
479.62	17865.31
479.80	18129.79
479.98	18192.98
480.16	18778.12
480.34	18244.48
480.52	18743.01
480.70	18726.63
480.88	18588.53
481.06	18689.18
481.24	18848.33
481.41	19248.57
481.59	19634.75
481.77	19707.31
481.95	19693.27
482.13	19644.12
482.31	19735.40
482.49	20552.24
482.67	20077.12
482.85	20624.80
483.03	20531.18
483.21	21062.48
483.39	21039.08
483.57	20978.22
483.74	21305.90
483.92	21504.84
484.10	21397.18
484.28	21708.47
484.46	22274.88
484.64	22679.79
484.82	22326.37
485.00	22731.28
485.18	22958.31
485.35	23051.94
485.53	23112.79
485.71	23000.44
485.89	23885.17
486.07	23749.42
486.25	23550.47
486.43	23796.23
486.61	24205.82
486.78	24341.57
486.96	24563.92
487.14	25055.43
487.32	24730.10
487.50	25146.72
487.68	25469.71
487.85	25818.45
488.03	25715.47
488.21	25696.74
488.39	26092.29
488.57	26204.64
488.75	26326.35
488.92	26857.65
489.10	27190.00
489.28	26904.46
489.46	27573.85
489.64	27178.30
489.81	27962.38
489.99	28063.02
490.17	27681.52
490.35	28737.10
490.53	28369.63
490.70	28400.06
490.88	28301.76
491.06	29095.20
491.24	29352.66
491.41	29172.44
491.59	29371.38
491.77	29479.05
491.95	29865.24
492.13	30251.42
492.30	30050.14
492.48	30265.47
492.66	30213.98
492.84	30754.64
493.01	30866.98
493.19	31206.36
493.37	31299.98
493.54	31744.69
493.72	31747.03
493.90	31889.80
494.08	32191.73
494.25	32189.39
494.43	32259.60
494.61	32606.00
494.79	32826.01
494.96	32704.31
495.14	33261.35
495.32	33308.16
495.49	33654.56
495.67	33935.43
495.85	33659.24
496.02	33907.34
496.20	33986.92
496.38	34300.55
496.55	34277.15
496.73	35093.99
496.91	34803.77
497.09	35122.08
497.26	35370.18
497.44	35246.13
497.62	35480.18
497.79	36149.57
497.97	35704.87
498.14	36547.47
498.32	36767.48
498.50	36673.85
498.67	36844.71
498.85	36662.15
499.03	37099.83
499.20	36912.59
499.38	37055.36
499.56	37322.18
499.73	37577.30
499.91	37804.33
500.08	37855.82
500.26	37624.11
500.44	37879.23
500.61	37947.11
500.79	38099.24
500.97	38380.10
501.14	39215.68
501.32	38852.89
501.49	38859.91
501.67	39187.59
501.84	39306.96
502.02	39110.35
502.20	39461.43
502.37	39655.70
502.55	39498.88
502.72	40048.91
502.90	39576.12
503.07	39707.19
503.25	40161.25
503.43	39782.09
503.60	40414.03
503.78	40390.62
503.95	40643.40
504.13	40786.18
504.30	40596.59
504.48	40622.34
504.65	41254.28
504.83	41181.73
505.01	41710.69
505.18	41413.44
505.36	42057.09
505.53	41684.94
505.71	42092.19
505.88	42206.88
506.06	41694.30
506.23	42417.53
506.41	42087.51
506.58	42096.88
506.76	42337.95
506.93	42724.14
507.11	42777.97
507.28	43044.79
507.46	43285.87
507.63	43126.71
507.81	43494.18
507.98	43564.39
508.16	43232.04
508.33	43782.06
508.50	44112.08
508.68	44025.48
508.85	44158.89
509.03	44229.10
509.20	44236.12
509.38	44706.57
509.55	44502.95
509.73	44339.11
509.90	45088.08
510.08	44671.46
510.25	44711.25
510.42	45137.23
510.60	45174.68
510.77	45446.18
510.95	45675.55
511.12	45633.42
511.30	45516.40
511.47	45815.99
511.64	46300.48
511.82	46464.32
511.99	45998.55
512.17	46267.71
512.34	46160.05
512.51	46646.88
512.69	46733.48
512.86	46693.69
513.04	46794.33
513.21	46766.24
513.38	46885.61
513.56	46763.90
513.73	46953.49
513.90	47199.24
514.08	47512.88
514.25	47796.08
514.43	47681.39
514.60	47805.44
514.77	47536.28
514.95	47976.30
515.12	47852.25
515.29	47969.28
515.47	48390.58
515.64	48678.46
515.81	48512.28
515.99	48821.23
516.16	48758.04
516.33	48626.97
516.51	49279.98
516.68	48893.79
516.85	48879.75
517.03	49160.61
517.20	49310.41
517.37	49289.34
517.54	49074.01
517.72	49123.16
517.89	49010.82
518.06	49268.28
518.24	49703.62
518.41	49455.52
518.58	49794.90
518.75	49588.93
518.93	50024.27
519.10	50124.91
519.27	49977.46
519.45	50064.06
519.62	50295.77
519.79	50092.15
519.96	49813.62
520.14	49776.17
520.31	50087.46
520.48	50754.52
520.65	50560.25
520.83	50962.82
521.00	50927.72
521.17	51077.51
521.34	50944.10
521.52	51166.45
521.69	51231.99
521.86	51206.24
522.03	51447.32
522.20	51459.02
522.38	51810.10
522.55	51372.42
522.72	51704.77
522.89	51704.77
523.07	52039.47
523.24	51763.29
523.41	51885.00
523.58	51779.67
523.75	52093.30
523.92	51995.00
524.10	52179.90
524.27	52259.48
524.44	52406.94
524.61	52465.45
524.78	52367.15
524.96	52486.51
525.13	52542.69
525.30	52676.10
525.47	52800.15
525.64	52809.51
525.81	52959.30
525.98	52994.41
526.16	53062.29
526.33	53041.22
526.50	53216.76
526.67	53247.19
526.84	53291.66
527.01	53249.53
527.18	53467.20
527.36	53099.73
527.53	53499.97
527.70	53813.60
527.87	53607.63
528.04	53338.47
528.21	53752.74
528.38	53591.25
528.55	53916.58
528.72	53947.01
528.89	53762.11
529.07	53509.33
529.24	53638.06
529.41	54049.99
529.58	53989.14
529.75	54188.08
529.92	54162.34
530.09	54085.10
530.26	54328.52
530.43	54082.76
530.60	53972.75
530.77	54145.95
530.94	54506.40
531.11	54330.86
531.28	54356.60
531.46	54497.03
531.63	54408.09
531.80	54429.16
531.97	54880.88
532.14	54656.19
532.31	54642.15
532.48	54864.50
532.65	55065.78
532.82	54464.27
532.99	54777.90
533.16	54972.16
533.33	54850.45
533.50	55370.05
533.67	54747.47
533.84	55168.77
534.01	55271.75
534.18	55386.44
534.35	55639.22
534.52	55330.26
534.69	55325.58
534.86	55290.48
535.03	55180.47
535.20	55608.79
535.37	55561.98
535.54	55669.64
535.71	55334.95
535.88	55538.57
536.05	55765.60
536.22	55735.18
536.38	55845.18
536.55	55711.77
536.72	55866.25
536.89	55707.09
537.06	55725.81
537.23	55929.44
537.40	55543.25
537.57	56165.84
537.74	55948.17
537.91	56168.18
538.08	56491.17
538.25	55859.23
538.42	56254.78
538.59	56554.36
538.75	56032.42
538.92	56229.03
539.09	56149.45
539.26	56479.47
539.43	56378.82
539.60	56324.99
539.77	56472.45
539.94	56477.13
540.11	56692.46
540.28	56568.41
540.44	56530.96
540.61	56722.88
540.78	56516.92
540.95	56772.03
541.12	56832.89
541.29	56952.26
541.46	56573.09
541.62	56879.70
541.79	56987.36
541.96	56739.27
542.13	56797.78
542.30	56800.12
542.47	56975.66
542.63	57270.57
542.80	57123.11
542.97	57464.83
543.14	57530.37
543.31	57542.07
543.48	57413.34
543.64	57563.14
543.81	57483.56
543.98	57338.44
544.15	57661.44
544.32	57911.88
544.48	57701.23
544.65	57492.92
544.82	57462.49
544.99	57509.30
545.16	57565.48
545.32	57528.03
545.49	57769.10
545.66	58080.39
545.83	57806.55
546.00	58145.93
546.16	57738.68
546.33	57535.05
546.50	57647.39
546.67	57996.13
546.83	57724.63
547.00	57867.40
547.17	57949.32
547.34	58078.05
547.50	58169.33
547.67	58394.03
547.84	58335.51
548.00	58506.37
548.17	58639.78
548.34	58305.09
548.51	58506.37
548.67	58424.45
548.84	58450.20
549.01	58391.68
549.18	58429.13
549.34	58454.88
549.51	58731.06
549.68	58363.60
549.84	58541.48
550.01	58672.55
550.18	58419.77
550.34	58482.97
550.51	58719.36
550.68	58702.98
550.84	58489.99
551.01	58817.66
551.18	58782.55
551.34	58614.04
551.51	58857.45
551.68	58892.56
551.84	58770.85
552.01	58698.30
552.18	59065.76
552.34	58632.76
552.51	59084.48
552.68	58747.45
552.84	58976.82
553.01	59164.06
553.18	58890.22
553.34	59021.29
553.51	58817.66
553.67	58993.20
553.84	59093.85
554.01	59234.28
554.17	59238.96
554.34	59313.86
554.51	59161.72
554.67	59480.03
554.84	59269.39
555.00	58997.88
555.17	59180.45
555.33	59124.27
555.50	59147.68
555.67	59154.70
555.83	59236.62
556.00	59444.93
556.16	59601.74
556.33	59363.01
556.50	59632.17
556.66	59583.02
556.83	59110.23
556.99	59667.28
557.16	59788.98
557.32	59744.51
557.49	59969.21
557.65	59512.80
557.82	59576.00
557.98	59622.81
558.15	59660.26
558.32	59800.69
558.48	59449.61
558.65	59487.06
558.81	59805.37
558.98	59896.65
559.14	59833.46
559.31	59983.25
559.47	59821.75
559.64	59915.37
559.80	59903.67
559.97	60074.53
560.13	59760.90
560.30	59948.14
560.46	59859.20
560.63	59821.75
560.79	60067.51
560.96	60217.30
561.12	60046.44
561.29	60001.97
561.45	60060.49
561.61	60058.15
561.78	60001.97
561.94	59901.33
562.11	60119.00
562.27	60116.66
562.44	60463.06
562.60	60123.68
562.77	60479.44
562.93	60009.00
563.10	60313.26
563.26	60111.98
563.42	60278.16
563.59	60247.73
563.75	60140.07
563.92	60261.77
564.08	60182.19
564.24	60374.12
564.41	60310.92
564.57	60385.82
564.74	60381.14
564.90	60289.86
565.07	60350.71
565.23	60341.35
565.39	60388.16
565.56	60463.06
565.72	60186.88
565.88	60137.72
566.05	60205.60
566.21	60282.84
566.38	60481.78
566.54	60491.15
566.70	60353.05
566.87	60404.55
567.03	60343.69
567.19	60837.54
567.36	60460.72
567.52	60456.04
567.68	60657.32
567.85	60444.33
568.01	60570.72
568.17	60413.91
568.34	60654.98
568.50	60460.72
568.66	60680.73
568.83	60720.52
568.99	60383.48
569.15	60561.36
569.32	60575.40
569.48	60587.11
569.64	60804.78
569.81	60598.81
569.97	60764.99
570.13	60598.81
570.30	60612.85
570.46	60729.88
570.62	60659.66
570.78	60800.10
570.95	60720.52
571.11	60718.18
571.27	60720.52
571.43	60783.71
571.60	60830.52
571.76	60732.22
571.92	60921.80
572.09	60811.80
572.25	60591.79
572.41	60786.05
572.57	60933.51
572.74	60935.85
572.90	60949.89
573.06	60949.89
573.22	60786.05
573.38	60886.70
573.55	60748.60
573.71	60846.91
573.87	60711.16
574.03	60769.67
574.20	60818.82
574.36	60720.52
574.52	60690.09
574.68	60949.89
574.84	61071.60
575.01	60879.67
575.17	60879.67
575.33	60830.52
575.49	60832.86
575.65	60973.30
575.82	61010.74
575.98	61106.71
576.14	61123.09
576.30	61172.24
576.46	60975.64
576.62	60963.93
576.79	60985.00
576.95	60870.31
577.11	61010.74
577.27	61095.00
577.43	60912.44
577.59	60720.52
577.75	60985.00
577.92	60821.16
578.08	60898.40
578.24	61057.56
578.40	61251.82
578.56	61076.28
578.72	60947.55
578.88	61167.56
579.04	61275.22
579.21	61073.94
579.37	61240.12
579.53	61113.73
579.69	60865.63
579.85	61034.15
580.01	61071.60
580.17	61052.87
580.33	61202.67
580.49	61080.96
580.65	61076.28
580.82	61045.85
580.98	61123.09
581.14	60992.02
581.30	61130.11
581.46	61123.09
581.62	60968.61
581.78	60963.93
581.94	61078.62
582.10	61062.24
582.26	61029.47
582.42	61139.47
582.58	61085.64
582.74	61329.06
582.90	61010.74
583.06	61109.05
583.22	61006.06
583.38	61249.48
583.54	61153.52
583.70	61205.01
583.86	61111.39
584.02	61249.48
584.18	61305.65
584.34	61153.52
584.50	61197.99
584.66	61052.87
584.82	60980.32
584.98	61099.68
585.14	61254.16
585.30	61080.96
585.46	61052.87
585.62	61197.99
585.78	61284.59
585.94	60867.97
586.10	61134.79
586.26	61408.64
586.42	61347.78
586.58	61310.33
586.74	61347.78
586.90	60924.14
587.06	61066.92
587.22	61326.72
587.38	61139.47
587.54	61443.74
587.70	61279.91
587.86	61378.21
588.02	61310.33
588.18	61310.33
588.34	61221.39
588.49	61233.10
588.65	61265.86
588.81	61193.31
588.97	61448.42
589.13	61331.40
589.29	61289.27
589.45	61293.95
589.61	61221.39
589.77	61467.15
589.93	61579.49
590.08	61413.32
590.24	61497.58
590.40	61691.84
590.56	61661.41
590.72	61509.28
590.88	61612.26
591.04	61518.64
591.20	61783.12
591.35	61633.33
591.51	61715.25
591.67	61415.66
591.83	61691.84
591.99	61715.25
592.15	61640.35
592.31	61724.61
592.46	61577.15
592.62	61513.96
592.78	61581.84
592.94	61488.21
593.10	61572.47
593.26	61771.42
593.41	61584.18
593.57	61642.69
593.73	61677.80
593.89	61890.79
594.05	61853.34
594.20	61762.06
594.36	61682.48
594.52	61733.97
594.68	61586.52
594.84	61520.98
594.99	61712.91
595.15	61834.61
595.31	61827.59
595.47	61567.79
595.62	61537.36
595.78	61743.33
595.94	61701.20
596.10	61855.68
596.25	61719.93
596.41	61762.06
596.57	61715.25
596.73	61755.03
596.88	61769.08
597.04	61712.91
597.20	61862.70
597.36	61785.46
597.51	61911.85
597.67	61731.63
597.83	61593.54
597.99	61829.93
598.14	61942.28
598.30	61834.61
598.46	61984.41
598.61	61916.53
598.77	61764.40
598.93	61689.50
599.09	61804.19
599.24	62129.52
599.40	62124.84
599.56	61832.27
599.71	62017.17
599.87	61853.34
600.03	61921.21
600.18	61914.19
600.34	61602.90
600.50	61851.00
600.65	62092.07
600.81	61869.72
600.97	61916.53
601.12	61836.95
601.28	61612.26
601.44	61726.95
601.59	62003.13
601.75	61982.07
601.91	62148.24
602.06	62136.54
602.22	62033.56
602.37	61811.21
602.53	61881.42
602.69	62005.47
602.84	61818.23
603.00	62038.24
603.16	62066.33
603.31	62136.54
603.47	62040.58
603.62	61790.14
603.78	61935.26
603.94	62134.20
604.09	62124.84
604.25	61911.85
604.40	61813.55
604.56	61958.66
604.71	62094.41
604.87	61804.19
605.03	62021.86
605.18	61956.32
605.34	62019.52
605.49	61860.36
605.65	61979.73
605.80	61949.30
605.96	61904.83
606.12	62171.65
606.27	62218.46
606.43	61645.03
606.58	62103.77
606.74	61942.28
606.89	61787.80
607.05	61808.87
607.20	62066.33
607.36	61874.40
607.51	61862.70
607.67	61588.86
607.82	61652.05
607.98	61867.38
608.13	62040.58
608.29	61797.16
608.44	61649.71
608.60	61851.00
608.75	62014.83
608.91	61757.38
609.06	61432.04
609.22	61956.32
609.37	61797.16
609.53	61769.08
609.68	61797.16
609.84	61804.19
609.99	61811.21
610.15	61946.96
610.30	61757.38
610.46	61855.68
610.61	61684.82
610.76	61736.31
610.92	61506.94
611.07	61701.20
611.23	61911.85
611.38	61890.79
611.54	61745.67
611.69	61883.76
611.84	61853.34
612.00	61752.69
612.15	61560.77
612.31	61593.54
612.46	61577.15
612.62	61609.92
612.77	61806.53
612.92	61881.42
613.08	61584.18
613.23	61771.42
613.39	61675.46
613.54	61586.52
613.69	61457.79
613.85	61523.32
614.00	61628.65
614.15	61740.99
614.31	61614.60
614.46	61614.60
614.62	61581.84
614.77	61645.03
614.92	61602.90
615.08	61443.74
615.23	61635.67
615.38	61535.02
615.54	61530.34
615.69	61544.39
615.84	61586.52
616.00	61647.37
616.15	61520.98
616.30	61691.84
616.46	61443.74
616.61	61551.41
616.76	61563.11
616.92	61352.46
617.07	61572.47
617.22	61399.27
617.37	61378.21
617.53	61516.30
617.68	61591.20
617.83	61436.72
617.99	61511.62
618.14	61418.00
618.29	61361.82
618.45	61315.01
618.60	61300.97
618.75	61230.75
618.90	61116.07
619.06	61425.02
619.21	61488.21
619.36	61399.27
619.51	61324.38
619.67	61324.38
619.82	61193.31
619.97	61453.11
620.12	61017.77
620.28	61298.63
620.43	61275.22
620.58	61256.50
620.73	61085.64
620.89	61062.24
621.04	61506.94
621.19	61134.79
621.34	61132.45
621.49	61078.62
621.65	61219.05
621.80	61382.89
621.95	60931.17
622.10	61214.37
622.25	60963.93
622.41	61111.39
622.56	61146.50
622.71	61027.13
622.86	60996.70
623.01	60910.10
623.16	60589.45
623.32	61003.72
623.47	61212.03
623.62	61031.81
623.77	60928.83
623.92	60928.83
624.07	60935.85
624.23	60882.02
624.38	61226.07
624.53	60783.71
624.68	60945.21
624.83	61083.30
624.98	61127.77
625.13	60654.98
625.29	60856.27
625.44	60905.42
625.59	60722.86
625.74	60786.05
625.89	60783.71
626.04	60509.87
626.19	60631.58
626.34	60666.69
626.49	60544.98
626.65	60294.54
626.80	60683.07
626.95	60584.77
627.10	60493.49
627.25	60376.46
627.40	60470.08
627.55	60669.03
627.70	60559.02
627.85	60416.25
628.00	60432.63
628.15	60540.30
628.30	60502.85
628.45	60434.97
628.60	60327.31
628.76	60430.29
628.91	60601.15
629.06	60364.76
629.21	60549.66
629.36	60434.97
629.51	60460.72
629.66	60425.61
629.81	60158.79
629.96	60179.85
630.11	60306.24
630.26	60231.35
630.41	60460.72
630.56	60179.85
630.71	60175.17
630.86	60369.44
631.01	60219.64
631.16	60205.60
631.31	60186.88
631.46	59868.56
631.61	60095.60
631.76	60189.22
631.91	60322.63
632.06	60116.66
632.21	60336.67
632.36	59966.87
632.51	59870.90
632.66	60317.95
632.81	59931.76
632.96	60154.11
633.10	60149.43
633.25	59957.50
633.40	60123.68
633.55	60224.32
633.70	60076.87
633.85	59999.63
634.00	59657.91
634.15	59962.18
634.30	59852.18
634.45	59999.63
634.60	60097.94
634.75	60097.94
634.90	59819.41
635.05	59770.26
635.19	59798.35
635.34	59969.21
635.49	59758.56
635.64	59915.37
635.79	59756.22
635.94	59866.22
636.09	59915.37
636.24	59634.51
636.39	59779.62
636.53	59746.86
636.68	59758.56
636.83	59714.09
636.98	59821.75
637.13	59489.40
637.28	59639.19
637.43	59718.77
637.57	59636.85
637.72	59503.44
637.87	59519.82
638.02	59709.41
638.17	59606.42
638.32	59660.26
638.46	59618.13
638.61	59568.97
638.76	59379.39
638.91	59590.04
639.06	59561.95
639.20	59295.13
639.35	59365.35
639.50	59196.83
639.65	59297.47
639.80	59545.57
639.94	59271.73
640.09	59365.35
640.24	59234.28
640.39	59407.48
640.54	59281.09
640.68	59346.62
640.83	59145.34
640.98	59234.28
641.13	59243.64
641.27	59407.48
641.42	58974.48
641.57	59133.63
641.72	59297.47
641.86	58857.45
642.01	58901.92
642.16	59061.08
642.31	59058.74
642.45	59255.34
642.60	59224.92
642.75	59304.49
642.90	59187.47
643.04	59199.17
643.19	59072.78
643.34	59023.63
643.48	59098.53
643.63	59068.10
643.78	58976.82
643.93	58855.11
644.07	58955.75
644.22	58904.26
644.37	58824.68
644.51	58698.30
644.66	59030.65
644.81	58890.22
644.95	58955.75
645.10	58759.15
645.25	59007.25
645.39	58850.43
645.54	58712.34
645.69	58653.82
645.83	58862.13
645.98	58866.81
646.13	58749.79
646.27	58817.66
646.42	58794.26
646.57	58803.62
646.71	58892.56
646.86	58930.01
647.00	58864.47
647.15	58590.63
647.30	58681.91
647.44	58721.70
647.59	58663.19
647.74	58623.40
647.88	58539.14
648.03	58712.34
648.17	58820.00
648.32	58323.81
648.47	58672.55
648.61	58658.51
648.76	58656.17
648.90	58468.92
649.05	58443.18
649.20	58630.42
649.34	58562.54
649.49	58553.18
649.63	58644.46
649.78	58560.20
649.92	58642.12
650.07	58632.76
650.21	58349.56
650.36	58365.94
650.51	58209.12
650.65	58574.25
650.80	58319.13
650.94	58171.67
651.09	58232.53
651.23	57836.98
651.38	58082.73
651.52	58066.35
651.67	58110.82
651.81	58136.57
651.96	58000.82
652.10	58176.36
652.25	58241.89
652.39	57989.11
652.54	58003.16
652.68	57731.65
652.83	57942.30
652.97	57942.30
653.12	58080.39
653.26	58056.99
653.41	58316.79
653.55	58071.03
653.70	57780.81
653.84	58277.00
653.99	57918.90
654.13	57818.25
654.27	58024.22
654.42	57752.72
654.56	57860.38
654.71	57932.94
654.85	58199.76
655.00	58089.76
655.14	57970.39
655.29	57544.41
655.43	57762.08
655.57	57818.25
655.72	57595.90
655.86	57738.68
656.01	57776.12
656.15	57539.73
656.30	57836.98
656.44	57736.34
656.58	57951.66
656.73	57836.98
656.87	57698.89
657.01	57621.65
657.16	57984.43
657.30	57448.45
657.45	57565.48
657.59	57506.96
657.73	57268.23
657.88	57359.51
658.02	57198.01
658.16	57478.88
658.31	57062.26
658.45	57359.51
658.60	57265.89
658.74	57726.97
658.88	57340.78
659.03	57214.40
659.17	57116.09
659.31	56966.30
659.46	57190.99
659.60	57111.41
659.74	57233.12
659.89	56910.13
660.03	56992.04
660.17	56907.79
660.32	56762.67
660.46	56959.28
660.60	56685.43
660.74	57006.09
660.89	57118.43
661.03	56753.31
661.17	56877.36
661.32	56669.05
661.46	56774.37
661.60	56669.05
661.74	56706.50
661.89	56612.88
662.03	56324.99
662.17	56175.20
662.31	56439.68
662.46	56676.07
662.60	56498.19
662.74	56442.02
662.88	56163.50
663.03	56329.67
663.17	56355.42
663.31	55987.95
663.45	56196.26
663.60	56095.62
663.74	55730.50
663.88	56104.98
664.02	55877.95
664.17	56123.71
664.31	55978.59
664.45	55877.95
664.59	56097.96
664.73	55929.44
664.88	55835.82
665.02	55604.11
665.16	55760.92
665.30	55503.46
665.44	55533.89
665.59	55377.08
665.73	55604.11
665.87	55407.50
666.01	55547.93
666.15	55444.95
666.29	55316.22
666.44	55466.02
666.58	55323.24
666.72	55056.42
666.86	55246.00
667.00	55180.47
667.14	54857.48
667.28	54876.20
667.43	54852.80
667.57	55042.38
667.71	54862.16
667.85	54824.71
667.99	54590.66
668.13	54960.46
668.27	55021.31
668.41	54894.92
668.56	54426.82
668.70	54494.69
668.84	54595.34
668.98	54412.77
669.12	54494.69
669.26	54337.88
669.40	54436.18
669.54	54597.68
669.68	54274.68
669.82	54115.53
669.96	54190.42
670.10	54211.49
670.25	54356.60
670.39	54059.35
670.53	54389.37
670.67	53822.96
670.81	54319.15
670.95	54295.75
671.09	53879.13
671.23	53921.26
671.37	53609.97
671.51	53801.89
671.65	53614.65
671.79	53670.82
671.93	53724.66
672.07	53579.54
672.21	53518.69
672.35	52896.11
672.49	53146.54
672.63	53010.79
672.77	52877.38
672.91	53010.79
673.05	52835.25
673.19	53160.59
673.33	52615.24
673.47	52348.42
673.61	52839.93
673.75	52566.09
673.89	52746.31
674.03	52540.35
674.17	52357.78
674.31	52030.11
674.45	52161.18
674.59	51707.12
674.73	51849.89
674.87	52123.73
675.01	51718.82
675.15	51629.88
675.29	51901.38
675.43	51491.79
675.56	51622.86
675.70	51334.97
675.84	51203.90
675.98	50344.92
676.12	51323.27
676.26	51299.86
676.40	51346.67
676.54	51203.90
676.68	50979.21
676.82	50447.91
676.96	50417.48
677.10	50335.56
677.23	50124.91
677.37	50307.47
677.51	50330.88
677.65	49574.89
677.79	49272.96
677.93	49457.86
678.07	49382.96
678.21	49476.58
678.34	49123.16
678.48	49162.95
678.62	49083.37
678.76	49048.27
678.90	48706.55
679.04	48884.43
679.18	49240.19
679.31	48236.10
679.45	48186.95
679.59	48619.95
679.73	48296.95
679.87	48107.37
680.00	47917.79
680.14	47419.25
680.28	47435.64
680.42	47250.74
680.56	47295.21
680.70	47175.84
680.83	47283.50
680.97	47283.50
681.11	47161.79
681.25	47107.96
681.39	47033.07
681.52	46527.51
681.66	46602.41
681.80	46326.22
681.94	45979.82
682.07	46384.74
682.21	45710.66
682.35	45340.86
682.49	45827.69
682.62	45930.67
682.76	46312.18
682.90	45689.60
683.04	45462.57
683.17	45195.74
683.31	44919.56
683.45	44603.59
683.59	44732.32
683.72	44699.55
683.86	44634.02
684.00	44486.56
684.13	44566.14
684.27	44210.38
684.41	43875.68
684.55	43920.15
684.68	43613.54
684.82	43409.92
684.96	43304.59
685.09	43243.74
685.23	42869.25
685.37	42656.26
685.50	42850.53
685.64	42880.95
685.78	42600.09
685.91	42733.50
686.05	42424.55
686.19	41998.57
686.32	41811.33
686.46	41486.00
686.60	41111.51
686.73	40851.71
686.87	41237.90
687.01	41226.20
687.14	40821.28
687.28	40610.64
687.42	40737.02
687.55	40732.34
687.69	40713.62
687.82	40678.51
687.96	39440.37
688.10	39995.07
688.23	39711.87
688.37	39754.00
688.50	39218.02
688.64	39634.63
688.78	39409.94
688.91	39140.78
689.05	38754.59
689.18	38337.98
689.32	38279.46
689.46	38249.03
689.59	38143.71
689.73	37729.44
689.86	37876.89
690.00	37914.34
690.13	37975.19
690.27	37710.71
690.41	37661.56
690.54	37350.27
690.68	36816.63
690.81	37038.98
690.95	36940.68
691.08	36629.38
691.22	36631.72
691.35	36463.21
691.49	36568.53
691.62	36587.25
691.76	35945.95
691.89	35707.21
692.03	35723.60
692.16	35770.41
692.30	35468.48
692.43	35435.71
692.57	35140.80
692.70	34906.75
692.84	34960.58
692.97	34918.45
693.11	34976.97
693.24	34279.49
693.38	34157.78
693.51	34532.26
693.65	33865.21
693.78	34012.66
693.92	34010.32
694.05	33535.20
694.19	33558.60
694.32	33289.44
694.45	33326.89
694.59	33174.75
694.72	33214.54
694.86	32233.86
694.99	32449.19
695.13	32205.77
695.26	32327.48
695.39	31690.85
695.53	31388.92
695.66	32030.23
695.80	32072.36
695.93	31505.95
696.07	31136.15
696.20	31040.18
696.33	30668.04
696.47	31314.03
696.60	30719.53
696.73	30663.36
696.87	30682.08
697.00	30443.35
697.14	30178.87
697.27	30050.14
697.40	30354.41
697.54	30195.25
697.67	29865.24
697.80	29766.93
697.94	29626.50
698.07	29621.82
698.21	29317.55
698.34	29106.90
698.47	28538.15
698.61	28554.54
698.74	28645.82
698.87	28748.80
699.01	27990.47
699.14	28285.37
699.27	28355.59
699.40	28088.77
699.54	27810.25
699.67	28107.49
699.80	28278.35
699.94	27711.94
700.07	27505.98
700.20	27278.94
700.34	26918.50
700.47	27204.05
700.60	26647.00
700.73	27133.83
700.87	26265.49
701.00	26483.16
701.13	26031.44
701.26	26188.25
701.40	25991.65
701.53	26047.82
701.66	25928.45
701.79	25439.28
701.93	25305.87
702.06	24947.77
702.19	24505.41
702.32	25149.06
702.46	25263.74
702.59	24624.78
702.72	24638.82
702.85	24627.12
702.99	24929.05
703.12	24435.19
703.25	24102.84
703.38	24116.88
703.51	23906.23
703.65	23740.05
703.78	23407.70
703.91	23531.75
704.04	23248.54
704.17	23192.37
704.31	23391.31
704.44	23073.00
704.57	22993.42
704.70	22780.43
704.83	22838.95
704.96	22534.68
705.10	22441.06
705.23	22410.63
>>>>>End Processed Spectral Data<<<<<
