SpectraSuite Data File
++++++++++++++++++++++++++++++++++++
Date: Fri Oct 25 11:25:30 EDT 2013
User: price-jones
Dark Spectrum Present: No
Reference Spectrum Present: No
Number of Sampled Component Spectra: 1
Spectrometers: USB2+H05261
Integration Time (usec): 100000 (USB2+H05261)
Spectra Averaged: 1 (USB2+H05261)
Boxcar Smoothing: 0 (USB2+H05261)
Correct for Electrical Dark: No (USB2+H05261)
Strobe/Lamp Enabled: No (USB2+H05261)
Correct for Detector Non-linearity: No (USB2+H05261)
Correct for Stray Light: No (USB2+H05261)
Number of Pixels in Processed Spectrum: 2048
>>>>>Begin Processed Spectral Data<<<<<
365.73	175.54
365.92	175.54
366.12	175.54
366.32	215.33
366.52	86.60
366.72	184.90
366.91	198.95
367.11	126.39
367.31	91.28
367.51	163.84
367.70	133.41
367.90	117.03
368.10	138.09
368.30	119.37
368.49	95.96
368.69	238.73
368.89	161.50
369.09	138.09
369.28	173.20
369.48	110.01
369.68	156.82
369.87	222.35
370.07	264.48
370.27	259.80
370.47	381.51
370.66	608.54
370.86	636.63
371.06	620.24
371.25	645.99
371.45	559.39
371.65	636.63
371.84	660.03
372.04	627.26
372.24	744.29
372.44	758.33
372.63	739.61
372.83	732.59
373.03	699.82
373.22	777.06
373.42	734.93
373.62	741.95
373.81	819.19
374.01	858.98
374.21	772.38
374.40	795.78
374.60	807.48
374.79	791.10
374.99	767.70
375.19	791.10
375.38	828.55
375.58	821.53
375.78	779.40
375.97	912.81
376.17	933.87
376.37	889.40
376.56	917.49
376.76	901.11
376.95	936.21
377.15	889.40
377.35	875.36
377.54	901.11
377.74	866.00
377.93	926.85
378.13	971.32
378.33	908.13
378.52	959.62
378.72	997.07
378.91	933.87
379.11	870.68
379.31	954.94
379.50	933.87
379.70	1020.47
379.89	992.39
380.09	973.66
380.28	966.64
380.48	887.06
380.68	931.53
380.87	898.77
381.07	990.05
381.26	999.41
381.46	1055.58
381.65	1067.28
381.85	1039.20
382.04	1086.01
382.24	1039.20
382.43	1048.56
382.63	1046.22
382.83	1100.05
383.02	1100.05
383.22	1029.84
383.41	1055.58
383.61	1069.62
383.80	1100.05
384.00	1048.56
384.19	1156.22
384.39	990.05
384.58	1114.10
384.78	1111.75
384.97	1177.29
385.17	1179.63
385.36	1196.01
385.56	1153.88
385.75	1207.72
385.95	1203.04
386.14	1203.04
386.34	1203.04
386.53	1254.53
386.72	1193.67
386.92	1184.31
387.11	1259.21
387.31	1322.40
387.50	1172.61
387.70	1306.02
387.89	1329.42
388.09	1294.32
388.28	1369.21
388.48	1313.04
388.67	1306.02
388.86	1275.59
389.06	1308.36
389.25	1387.94
389.45	1350.49
389.64	1394.96
389.84	1432.41
390.03	1308.36
390.22	1418.36
390.42	1371.55
390.61	1401.98
390.81	1439.43
391.00	1420.71
391.19	1423.05
391.39	1481.56
391.58	1434.75
391.78	1369.21
391.97	1418.36
392.16	1418.36
392.36	1460.49
392.55	1455.81
392.75	1610.29
392.94	1554.12
393.13	1565.82
393.33	1537.73
393.52	1509.65
393.71	1633.69
393.91	1558.80
394.10	1558.80
394.29	1568.16
394.49	1610.29
394.68	1614.97
394.88	1619.65
395.07	1750.72
395.26	1713.27
395.46	1661.78
395.65	1748.38
395.84	1631.35
396.04	1757.74
396.23	1680.50
396.42	1842.00
396.62	1813.92
396.81	1797.53
397.00	1748.38
397.19	1736.68
397.39	1799.87
397.58	1776.47
397.77	1696.89
397.97	1792.85
398.16	1872.43
398.35	1788.17
398.55	1921.58
398.74	1935.62
398.93	1952.01
399.12	2015.20
399.32	1914.56
399.51	2026.90
399.70	1956.69
399.90	1909.88
400.09	2017.54
400.28	2073.71
400.47	1991.80
400.67	2050.31
400.86	1966.05
401.05	2148.61
401.24	2050.31
401.44	2148.61
401.63	2155.63
401.82	2155.63
402.01	2167.34
402.21	2104.14
402.40	2078.40
402.59	2225.85
402.78	2272.66
402.97	2195.42
403.17	2282.02
403.36	2235.21
403.55	2150.95
403.74	2410.75
403.93	2143.93
404.13	2298.41
404.32	2387.35
404.51	2387.35
404.70	2431.82
404.89	2429.48
405.09	2464.58
405.28	2558.21
405.47	2394.37
405.66	2445.86
405.85	2502.03
406.05	2420.11
406.24	2555.86
406.43	2530.12
406.62	2527.78
406.81	2614.38
407.00	2565.23
407.20	2689.28
407.39	2621.40
407.58	2759.49
407.77	2644.81
407.96	2710.34
408.15	2635.44
408.34	2649.49
408.54	2761.83
408.73	2815.66
408.92	2813.32
409.11	2775.88
409.30	2827.37
409.49	2768.85
409.68	2932.69
409.87	3009.93
410.07	2981.84
410.26	2970.14
410.45	2998.23
410.64	2995.89
410.83	3063.76
411.02	3033.33
411.21	3248.66
411.40	3030.99
411.59	3213.56
411.78	3183.13
411.98	3119.93
412.17	3407.82
412.36	3269.73
412.55	3405.48
412.74	3304.84
412.93	3339.94
413.12	3384.41
413.31	3527.19
413.50	3478.04
413.69	3400.80
413.88	3496.76
414.07	3637.19
414.26	3765.92
414.45	3557.61
414.64	3705.07
414.83	3714.43
415.02	3768.26
415.22	3857.20
415.41	3878.27
415.60	3892.31
415.79	3796.35
415.98	3948.48
416.17	3838.48
416.36	3868.91
416.55	3904.01
416.74	4030.40
416.93	3964.87
417.12	4018.70
417.31	4205.94
417.50	4198.92
417.69	4201.26
417.88	4294.88
418.07	4259.78
418.26	4304.25
418.45	4205.94
418.64	4409.57
418.83	4505.53
419.02	4428.29
419.21	4416.59
419.39	4486.81
419.58	4402.55
419.77	4449.36
419.96	4470.42
420.15	4552.34
420.34	4608.51
420.53	4585.11
420.72	4758.31
420.91	4720.86
421.10	4702.14
421.29	4812.14
421.48	4648.30
421.67	4652.98
421.86	4634.26
422.05	4758.31
422.24	4791.08
422.43	4770.01
422.61	4770.01
422.80	4945.55
422.99	4870.65
423.18	4873.00
423.37	4961.94
423.56	5011.09
423.75	4858.95
423.94	4889.38
424.13	4578.09
424.32	4732.56
424.50	4983.00
424.69	5015.77
424.88	5090.67
425.07	4849.59
425.26	4894.06
425.45	4947.89
425.64	5001.72
425.83	4903.42
426.01	4952.57
426.20	5118.75
426.39	5001.72
426.58	5015.77
426.77	4950.23
426.96	5069.60
427.15	5198.33
427.33	5116.41
427.52	4940.87
427.71	5172.58
427.90	5273.23
428.09	5320.04
428.28	5317.70
428.46	5280.25
428.65	5327.06
428.84	5549.41
429.03	5488.56
429.22	5266.21
429.40	5404.30
429.59	5343.44
429.78	5224.08
429.97	5275.57
430.16	5404.30
430.34	5654.73
430.53	5589.20
430.72	5645.37
430.91	5694.52
431.10	5586.86
431.28	5600.90
431.47	5799.85
431.66	5701.54
431.85	5788.14
432.03	5802.19
432.22	5865.38
432.41	5975.39
432.60	5888.79
432.79	5853.68
432.97	5970.71
433.16	6015.18
433.35	5928.58
433.54	6169.65
433.72	6118.16
433.91	6188.38
434.10	6155.61
434.28	6073.69
434.47	6176.67
434.66	6122.84
434.85	6141.57
435.03	6270.30
435.22	6331.15
435.41	6413.07
435.59	6368.60
435.78	6417.75
435.97	6649.46
436.16	6260.93
436.34	6289.02
436.53	6476.26
436.72	6494.99
436.90	6413.07
437.09	6689.25
437.28	6410.73
437.46	6581.59
437.65	6487.96
437.84	6745.42
438.02	6722.02
438.21	6637.76
438.40	6750.10
438.58	6911.60
438.77	7084.80
438.96	6848.41
439.14	7199.49
439.33	7089.48
439.52	7157.36
439.70	7318.86
439.89	7309.49
440.08	7288.43
440.26	7290.77
440.45	7119.91
440.63	7304.81
440.82	7482.69
441.01	7449.93
441.19	7529.50
441.38	7852.50
441.57	7517.80
441.75	7566.95
441.94	7878.24
442.12	8102.93
442.31	7964.84
442.50	7939.10
442.68	7960.16
442.87	7995.27
443.05	8196.56
443.24	8351.03
443.43	8245.71
443.61	8009.31
443.80	8416.57
443.98	7847.82
444.17	7786.96
444.35	8109.96
444.54	8327.63
444.73	8252.73
444.91	8138.04
445.10	8491.46
445.28	8414.23
445.47	8140.38
445.65	8308.90
445.84	8262.09
446.02	8407.20
446.21	8320.60
446.39	8381.46
446.58	8561.68
446.77	8465.72
446.95	8231.66
447.14	8315.92
447.32	8582.74
447.51	8423.59
447.69	8489.12
447.88	8372.10
448.06	8238.69
448.25	8454.02
448.43	8760.63
448.62	8683.39
448.80	8479.76
448.99	8482.10
449.17	8723.18
449.36	8585.08
449.54	8807.44
449.73	8774.67
449.91	9018.08
450.10	9085.96
450.28	9060.21
450.46	9034.47
450.65	8919.78
450.83	8987.66
451.02	9163.20
451.20	9053.19
451.39	8964.25
451.57	9050.85
451.76	9001.70
451.94	9334.06
452.13	9287.25
452.31	9245.12
452.49	9167.88
452.68	9210.01
452.86	9430.02
453.05	9444.06
453.23	9343.42
453.42	9312.99
453.60	9308.31
453.78	9713.22
453.97	9289.59
454.15	9614.92
454.34	9523.64
454.52	9874.72
454.70	9549.39
454.89	9745.99
455.07	9631.30
455.26	9750.67
455.44	9701.52
455.62	9689.82
455.81	9933.23
455.99	9961.32
456.17	9813.87
456.36	10141.54
456.54	9998.77
456.73	10218.78
456.91	10441.13
457.09	10380.28
457.28	10539.43
457.46	10356.87
457.64	10546.45
457.83	10579.22
458.01	10380.28
458.19	10630.71
458.38	10361.55
458.56	10452.83
458.74	10588.58
458.93	10656.46
459.11	10750.08
459.29	10665.82
459.48	10691.57
459.66	10789.87
459.84	10773.49
460.03	11056.69
460.21	10888.17
460.39	10808.59
460.57	10895.19
460.76	11037.97
460.94	11049.67
461.12	11105.84
461.31	11169.04
461.49	11131.59
461.67	11332.87
461.85	11311.81
462.04	11124.57
462.22	11845.45
462.40	11749.49
462.59	11482.67
462.77	11412.45
462.95	11634.80
463.13	11559.91
463.32	11754.17
463.50	11641.82
463.68	11690.98
463.86	11927.37
464.05	11623.10
464.23	11550.54
464.41	11770.55
464.59	11627.78
464.78	12123.98
464.96	12044.40
465.14	11864.18
465.32	11796.30
465.50	12205.89
465.69	12060.78
465.87	12025.67
466.05	11882.90
466.23	12376.75
466.41	12308.88
466.60	12479.74
466.78	12138.02
466.96	12175.47
467.14	12257.39
467.32	12297.17
467.51	12526.55
467.69	12233.98
467.87	12336.96
468.05	12774.64
468.23	12734.85
468.41	12498.46
468.60	12531.23
468.78	12641.23
468.96	12779.32
469.14	12737.20
469.32	12961.89
469.50	12484.42
469.69	12889.33
469.87	12945.50
470.05	13090.62
470.23	13064.87
470.41	12905.71
470.59	13156.15
470.77	13235.73
470.95	13116.36
471.14	13209.98
471.32	13268.50
471.50	13577.45
471.68	13558.72
471.86	13752.99
472.04	13731.92
472.22	13811.50
472.40	13689.79
472.58	13926.19
472.77	13888.74
472.95	14022.15
473.13	14583.88
473.31	14045.55
473.49	13998.74
473.67	14068.96
473.85	14197.69
474.03	14539.41
474.21	14377.91
474.39	14647.07
474.57	14689.20
474.75	14911.55
474.93	15068.37
475.12	14923.26
475.30	15122.20
475.48	14890.49
475.66	15239.23
475.84	15051.99
476.02	15363.28
476.20	14998.15
476.38	15480.30
476.56	15875.85
476.74	15777.55
476.92	15681.59
477.10	15487.32
477.28	16032.67
477.46	16105.23
477.64	16189.49
477.82	16535.88
478.00	16776.96
478.18	16964.20
478.36	17011.01
478.54	16978.25
478.72	17207.62
478.90	17090.59
479.08	17385.50
479.26	17453.37
479.44	17652.32
479.62	17727.22
479.80	17940.21
479.98	18043.19
480.16	18405.97
480.34	18363.84
480.52	18574.49
480.70	18427.04
480.88	18405.97
481.06	18537.04
481.24	18771.10
481.41	18958.34
481.59	19173.67
481.77	19199.41
481.95	19707.31
482.13	19569.22
482.31	19639.44
482.49	20173.08
482.67	20102.86
482.85	20212.87
483.03	20606.08
483.21	20748.85
483.39	20985.24
483.57	20554.58
483.74	21099.93
483.92	21238.02
484.10	21088.23
484.28	21465.05
484.46	21816.13
484.64	22342.75
484.82	21701.45
485.00	22073.59
485.18	22546.38
485.35	23054.28
485.53	22848.31
485.71	22864.69
485.89	23683.88
486.07	23206.41
486.25	23316.42
486.43	23667.50
486.61	23679.20
486.78	23906.23
486.96	23990.49
487.14	24336.89
487.32	24458.60
487.50	24868.19
487.68	24421.15
487.85	25135.01
488.03	25450.99
488.21	25867.60
488.39	25638.23
488.57	26050.16
488.75	26047.82
488.92	26651.68
489.10	26518.27
489.28	26588.49
489.46	27000.42
489.64	26981.70
489.81	27662.79
489.99	27391.29
490.17	27735.35
490.35	27976.42
490.53	27658.11
490.70	28381.34
490.88	28020.89
491.06	28683.27
491.24	28566.24
491.41	28809.65
491.59	29102.22
491.77	29530.54
491.95	29511.81
492.13	29607.78
492.30	29916.73
492.48	30096.95
492.66	30094.61
492.84	30017.37
493.01	30171.85
493.19	30810.81
493.37	30913.80
493.54	31346.79
493.72	31522.34
493.90	31328.07
494.08	31681.49
494.25	31903.84
494.43	31922.57
494.61	32278.33
494.79	32493.66
494.96	32432.80
495.14	32367.27
495.32	32814.31
495.49	33090.49
495.67	33116.24
495.85	33397.10
496.02	33617.11
496.20	33486.04
496.38	33867.55
496.55	34239.70
496.73	34330.98
496.91	34546.31
497.09	34728.87
497.26	35070.59
497.44	34623.54
497.62	35267.19
497.79	35669.76
497.97	34878.66
498.14	35342.09
498.32	35847.64
498.50	35613.59
498.67	36329.80
498.85	36280.64
499.03	36320.43
499.20	36273.62
499.38	36992.17
499.56	36971.10
499.73	36765.14
499.91	36840.03
500.08	37170.05
500.26	37010.89
500.44	37525.81
500.61	37394.74
500.79	37242.60
500.97	38096.90
501.14	38335.63
501.32	38085.20
501.49	38424.57
501.67	38440.96
501.84	38560.33
502.02	38621.18
502.20	38990.98
502.37	38794.38
502.55	38796.72
502.72	39620.59
502.90	39234.40
503.07	39847.62
503.25	39365.47
503.43	39730.59
503.60	39707.19
503.78	39819.53
503.95	39976.35
504.13	40484.25
504.30	40385.94
504.48	40123.80
504.65	40573.19
504.83	40465.52
505.01	40814.26
505.18	41207.47
505.36	41104.49
505.53	40971.08
505.71	41088.10
505.88	41254.28
506.06	40964.06
506.23	41823.03
506.41	41539.83
506.58	41801.97
506.76	41958.78
506.93	42363.70
507.11	41816.01
507.28	42333.27
507.46	42050.06
507.63	42623.50
507.81	43133.73
507.98	42574.34
508.16	42616.47
508.33	43243.74
508.50	43063.52
508.68	43323.32
508.85	43430.98
509.03	44144.84
509.20	43892.07
509.38	44135.48
509.55	44545.08
509.73	44266.55
509.90	44032.50
510.08	44318.04
510.25	44446.77
510.42	44278.25
510.60	44957.01
510.77	44741.68
510.95	45029.57
511.12	44949.99
511.30	44961.69
511.47	45670.87
511.64	44957.01
511.82	45387.67
511.99	45170.00
512.17	45804.28
512.34	45481.29
512.51	45827.69
512.69	45961.10
512.86	46085.15
513.04	46548.57
513.21	46492.40
513.38	46490.06
513.56	46405.80
513.73	46204.52
513.90	46745.18
514.08	46637.51
514.25	46815.40
514.43	47154.77
514.60	47234.35
514.77	47129.03
514.95	47557.35
515.12	47065.83
515.29	47182.86
515.47	47679.05
515.64	47955.24
515.81	47538.62
515.99	48053.54
516.16	48416.32
516.33	48191.63
516.51	48325.04
516.68	47716.50
516.85	48350.79
517.03	48863.36
517.20	48783.79
517.37	48273.55
517.54	48456.11
517.72	48594.20
517.89	48617.61
518.06	48884.43
518.24	48921.88
518.41	49212.10
518.58	49038.90
518.75	49064.65
518.93	49546.80
519.10	49394.67
519.27	50033.63
519.45	49598.29
519.62	49565.52
519.79	49890.86
519.96	49668.51
520.14	50199.81
520.31	49532.76
520.48	49787.88
520.65	50057.04
520.83	50279.39
521.00	50672.60
521.17	50211.51
521.34	50782.60
521.52	50588.34
521.69	50595.36
521.86	50625.79
522.03	51056.45
522.20	51063.47
522.38	51360.72
522.55	51580.73
522.72	51164.11
522.89	51222.62
523.07	51533.92
523.24	51388.80
523.41	51192.20
523.58	51447.32
523.75	51332.63
523.92	51407.53
524.10	51784.35
524.27	51950.53
524.44	51707.12
524.61	51887.34
524.78	51838.18
524.96	52114.37
525.13	52147.14
525.30	52381.19
525.47	52456.09
525.64	52287.57
525.81	52315.65
525.98	52685.46
526.16	52666.73
526.33	52505.24
526.50	52947.60
526.67	52374.17
526.84	52704.18
527.01	52648.01
527.18	52582.48
527.36	52729.93
527.53	53092.71
527.70	53275.27
527.87	53226.12
528.04	52996.75
528.21	53474.22
528.38	52933.56
528.55	53216.76
528.72	53244.85
528.89	53502.31
529.07	53277.61
529.24	53027.18
529.41	53633.38
529.58	53600.61
529.75	53483.58
529.92	53284.64
530.09	53588.91
530.26	53675.51
530.43	53708.27
530.60	53673.16
530.77	53689.55
530.94	53858.07
531.11	53682.53
531.28	53895.52
531.46	54019.56
531.63	54040.63
531.80	54092.12
531.97	53984.46
532.14	54344.90
532.31	54204.47
532.48	54274.68
532.65	54513.42
532.82	54356.60
532.99	54454.90
533.16	54670.23
533.33	54756.83
533.50	54759.17
533.67	54478.31
533.84	54588.31
534.01	54773.22
534.18	55018.97
534.35	54972.16
534.52	54969.82
534.69	55136.00
534.86	55238.98
535.03	54925.35
535.20	54915.99
535.37	55330.26
535.54	55374.73
535.71	55168.77
535.88	55246.00
536.05	55402.82
536.22	55510.49
536.38	55344.31
536.55	55323.24
536.72	55461.33
536.89	55407.50
537.06	55276.43
537.23	55742.20
537.40	55458.99
537.57	55484.74
537.74	55529.21
537.91	56076.90
538.08	55957.53
538.25	55519.85
538.42	55894.33
538.59	55884.97
538.75	55807.73
538.92	55906.04
539.09	56086.26
539.26	56224.35
539.43	55983.27
539.60	56226.69
539.77	56170.52
539.94	56186.90
540.11	56222.01
540.28	56444.36
540.44	56395.21
540.61	56392.87
540.78	56465.42
540.95	56308.61
541.12	56231.37
541.29	56322.65
541.46	56493.51
541.62	56598.83
541.79	56662.03
541.96	56306.27
542.13	56343.72
542.30	56598.83
542.47	56774.37
542.63	56818.84
542.80	56521.60
542.97	57064.60
543.14	57095.03
543.31	56924.17
543.48	57111.41
543.64	57399.30
543.81	57422.70
543.98	57132.48
544.15	57078.64
544.32	57490.58
544.48	57537.39
544.65	57329.08
544.82	57436.75
544.99	57160.56
545.16	57574.84
545.32	57298.65
545.49	57645.05
545.66	57682.50
545.83	57408.66
546.00	57705.91
546.16	57436.75
546.33	57530.37
546.50	57340.78
546.67	57518.67
546.83	57399.30
547.00	57851.02
547.17	57546.75
547.34	57598.24
547.50	57661.44
547.67	57914.22
547.84	58061.67
548.00	57888.47
548.17	57998.48
548.34	58005.50
548.51	58031.24
548.67	58190.40
548.84	58059.33
549.01	58045.29
549.18	57881.45
549.34	58176.36
549.51	58293.38
549.68	58127.20
549.84	58148.27
550.01	58096.78
550.18	58096.78
550.34	58286.36
550.51	58452.54
550.68	58288.70
550.84	58234.87
551.01	58417.43
551.18	58127.20
551.34	58527.44
551.51	58389.34
551.68	58281.68
551.84	58656.17
552.01	58291.04
552.18	58429.13
552.34	58269.98
552.51	58560.20
552.68	58424.45
552.84	58705.32
553.01	58883.20
553.18	58656.17
553.34	58925.33
553.51	58473.60
553.67	58607.01
553.84	58824.68
554.01	58712.34
554.17	58899.58
554.34	58700.64
554.51	58822.34
554.67	58892.56
554.84	58738.08
555.00	58838.73
555.17	58890.22
555.33	58904.26
555.50	58890.22
555.67	58698.30
555.83	58885.54
556.00	58885.54
556.16	59341.94
556.33	59082.14
556.50	59206.19
556.66	59135.98
556.83	59058.74
556.99	59231.94
557.16	59440.24
557.32	59412.16
557.49	59363.01
557.65	59213.21
557.82	59168.74
557.98	59231.94
558.15	59330.24
558.32	59332.58
558.48	59143.00
558.65	59161.72
558.81	59400.46
558.98	59412.16
559.14	59269.39
559.31	59529.19
559.47	59288.11
559.64	59632.17
559.80	59620.47
559.97	59463.65
560.13	59489.40
560.30	59590.04
560.46	59576.00
560.63	59817.07
560.79	59590.04
560.96	59737.49
561.12	59660.26
561.29	59524.50
561.45	59564.29
561.61	59749.20
561.78	59737.49
561.94	59702.38
562.11	59662.60
562.27	59704.73
562.44	59924.74
562.60	59870.90
562.77	59922.40
562.93	59683.66
563.10	59957.50
563.26	59737.49
563.42	59980.91
563.59	59891.97
563.75	59800.69
563.92	60067.51
564.08	59889.63
564.24	60119.00
564.41	60100.28
564.57	60165.81
564.74	60116.66
564.90	60027.72
565.07	59798.35
565.23	59931.76
565.39	59920.05
565.56	59875.58
565.72	59882.61
565.88	60193.90
566.05	59831.11
566.21	59812.39
566.38	60086.23
566.54	60287.52
566.70	60221.98
566.87	60210.28
567.03	60023.04
567.19	60374.12
567.36	60119.00
567.52	60214.96
567.68	60465.40
567.85	60137.72
568.01	60313.26
568.17	60186.88
568.34	60376.46
568.50	60395.18
568.66	60289.86
568.83	60509.87
568.99	60158.79
569.15	60214.96
569.32	60287.52
569.48	60264.11
569.64	60495.83
569.81	60226.66
569.97	60205.60
570.13	60360.08
570.30	60168.15
570.46	60528.59
570.62	60294.54
570.78	60350.71
570.95	60434.97
571.11	60570.72
571.27	60221.98
571.43	60605.83
571.60	60406.89
571.76	60367.10
571.92	60542.64
572.09	60456.04
572.25	60418.59
572.41	60395.18
572.57	60669.03
572.74	60528.59
572.90	60409.23
573.06	60416.25
573.22	60479.44
573.38	60498.17
573.55	60563.70
573.71	60886.70
573.87	60631.58
574.03	60355.39
574.20	60619.88
574.36	60472.42
574.52	60729.88
574.68	60594.13
574.84	60678.39
575.01	60645.62
575.17	60430.29
575.33	60575.40
575.49	60533.28
575.65	60535.62
575.82	60891.38
575.98	60669.03
576.14	60863.29
576.30	60430.29
576.46	60690.09
576.62	60608.17
576.79	60718.18
576.95	60341.35
577.11	60729.88
577.27	60706.47
577.43	60704.13
577.59	60659.66
577.75	60570.72
577.92	60498.17
578.08	60706.47
578.24	60860.95
578.40	60825.84
578.56	61160.54
578.72	60762.65
578.88	60870.31
579.04	60839.89
579.21	60734.56
579.37	60900.74
579.53	60898.40
579.69	60729.88
579.85	60678.39
580.01	60694.77
580.17	60736.90
580.33	60903.08
580.49	61008.40
580.65	60963.93
580.82	60575.40
580.98	60743.92
581.14	60486.46
581.30	60947.55
581.46	60776.69
581.62	60982.66
581.78	60767.33
581.94	60748.60
582.10	60570.72
582.26	60722.86
582.42	60849.25
582.58	60882.02
582.74	60954.57
582.90	60783.71
583.06	60797.76
583.22	60722.86
583.38	60673.71
583.54	60870.31
583.70	60781.37
583.86	60872.65
584.02	60699.45
584.18	60870.31
584.34	60788.39
584.50	60921.80
584.66	60732.22
584.82	60537.96
584.98	61258.84
585.14	60896.06
585.30	60828.18
585.46	60889.04
585.62	60863.29
585.78	61008.40
585.94	60734.56
586.10	60893.72
586.26	60938.19
586.42	60935.85
586.58	60975.64
586.74	60938.19
586.90	60994.36
587.06	61031.81
587.22	61001.38
587.38	60877.33
587.54	60977.98
587.70	60935.85
587.86	60891.38
588.02	60893.72
588.18	61205.01
588.34	60818.82
588.49	60786.05
588.65	60966.27
588.81	61022.45
588.97	61066.92
589.13	60985.00
589.29	60898.40
589.45	61120.75
589.61	60994.36
589.77	61336.08
589.93	61265.86
590.08	61118.41
590.24	61258.84
590.40	61450.77
590.56	61352.46
590.72	61340.76
590.88	61013.08
591.04	61169.90
591.20	61151.18
591.35	61396.93
591.51	61511.62
591.67	61331.40
591.83	61169.90
591.99	61233.10
592.15	61272.88
592.31	61212.03
592.46	61254.16
592.62	61183.94
592.78	61338.42
592.94	61427.36
593.10	61216.71
593.26	61485.87
593.41	61336.08
593.57	61403.95
593.73	61368.85
593.89	61476.51
594.05	61319.70
594.20	61312.67
594.36	61684.82
594.52	61378.21
594.68	61310.33
594.84	61300.97
594.99	61485.87
595.15	61429.70
595.31	61525.66
595.47	61361.82
595.62	61605.24
595.78	61457.79
595.94	61518.64
596.10	61483.53
596.25	61497.58
596.41	61403.95
596.57	61396.93
596.73	61703.54
596.88	61223.73
597.04	61623.96
597.20	61539.71
597.36	61422.68
597.51	61546.73
597.67	61305.65
597.83	61350.12
597.99	61769.08
598.14	61630.99
598.30	61483.53
598.46	61567.79
598.61	61560.77
598.77	61284.59
598.93	61614.60
599.09	61595.88
599.24	61808.87
599.40	61565.45
599.56	61719.93
599.71	61619.28
599.87	61790.14
600.03	61733.97
600.18	61504.60
600.34	61478.85
600.50	61570.13
600.65	61392.25
600.81	61787.80
600.97	61532.68
601.12	61684.82
601.28	61586.52
601.44	61471.83
601.59	61691.84
601.75	61448.42
601.91	61701.20
602.06	61787.80
602.22	61876.74
602.37	61708.22
602.53	61595.88
602.69	61680.14
602.84	61598.22
603.00	61516.30
603.16	61808.87
603.31	61729.29
603.47	61766.74
603.62	61691.84
603.78	61726.95
603.94	61450.77
604.09	61616.94
604.25	61666.09
604.40	61523.32
604.56	61675.46
604.71	61689.50
604.87	61677.80
605.03	61719.93
605.18	61638.01
605.34	61663.75
605.49	61343.10
605.65	61565.45
605.80	61705.88
605.96	61743.33
606.12	61666.09
606.27	61785.46
606.43	61497.58
606.58	61874.40
606.74	61261.18
606.89	61415.66
607.05	61748.01
607.20	61839.29
607.36	61525.66
607.51	61528.00
607.67	61331.40
607.82	61357.14
607.98	61616.94
608.13	61478.85
608.29	61551.41
608.44	61439.06
608.60	61525.66
608.75	61577.15
608.91	61492.89
609.06	61357.14
609.22	61649.71
609.37	61272.88
609.53	61619.28
609.68	61638.01
609.84	61420.34
609.99	61364.17
610.15	61448.42
610.30	61570.13
610.46	61563.11
610.61	61577.15
610.76	61539.71
610.92	61410.98
611.07	61350.12
611.23	61490.55
611.38	61441.40
611.54	61647.37
611.69	61598.22
611.84	61530.34
612.00	61378.21
612.15	61403.95
612.31	61359.48
612.46	61202.67
612.62	61439.06
612.77	61380.55
612.92	61226.07
613.08	61338.42
613.23	61387.57
613.39	61434.38
613.54	61148.84
613.69	61228.41
613.85	61130.11
614.00	61441.40
614.15	61537.36
614.31	61268.20
614.46	61352.46
614.62	61235.44
614.77	61275.22
614.92	61333.74
615.08	61366.51
615.23	61174.58
615.38	61453.11
615.54	61200.33
615.69	61368.85
615.84	61186.28
616.00	61312.67
616.15	61193.31
616.30	61296.29
616.46	61141.81
616.61	61104.37
616.76	61371.19
616.92	61148.84
617.07	61144.16
617.22	61066.92
617.37	61188.63
617.53	61169.90
617.68	61055.21
617.83	61062.24
617.99	61123.09
618.14	61027.13
618.29	61008.40
618.45	60865.63
618.60	61034.15
618.75	60987.34
618.90	60879.67
619.06	61226.07
619.21	61073.94
619.36	61263.52
619.51	60858.61
619.67	60753.29
619.82	61062.24
619.97	61111.39
620.12	60823.50
620.28	60851.59
620.43	60849.25
620.58	60919.46
620.73	60701.79
620.89	60947.55
621.04	61066.92
621.19	60947.55
621.34	60774.35
621.49	60811.80
621.65	60760.31
621.80	60924.14
621.95	60793.07
622.10	60708.82
622.25	60886.70
622.41	60917.12
622.56	60507.53
622.71	60729.88
622.86	60664.35
623.01	60554.34
623.16	60608.17
623.32	60617.53
623.47	60776.69
623.62	60708.82
623.77	60664.35
623.92	60921.80
624.07	60898.40
624.23	61006.06
624.38	60743.92
624.53	60425.61
624.68	60615.19
624.83	60608.17
624.98	60463.06
625.13	60434.97
625.29	60697.11
625.44	60434.97
625.59	60460.72
625.74	60587.11
625.89	60280.50
626.04	60165.81
626.19	60320.29
626.34	60250.07
626.49	60219.64
626.65	60074.53
626.80	60383.48
626.95	60240.71
627.10	60088.57
627.25	60245.39
627.40	60350.71
627.55	60257.09
627.70	60416.25
627.85	60226.66
628.00	60224.32
628.15	60226.66
628.30	60285.18
628.45	60310.92
628.60	60067.51
628.76	60121.34
628.91	60261.77
629.06	60240.71
629.21	59980.91
629.36	60205.60
629.51	60177.51
629.66	59913.03
629.81	59835.80
629.96	60065.17
630.11	59723.45
630.26	60013.68
630.41	60261.77
630.56	60018.36
630.71	60023.04
630.86	59707.07
631.01	59973.89
631.16	59882.61
631.31	59859.20
631.46	59526.84
631.61	59847.50
631.76	59927.08
631.91	60023.04
632.06	60009.00
632.21	59889.63
632.36	59962.18
632.51	59491.74
632.66	59728.13
632.81	59536.21
632.96	59702.38
633.10	59796.01
633.25	59828.77
633.40	59693.02
633.55	59774.94
633.70	59746.86
633.85	59585.36
634.00	59372.37
634.15	59629.83
634.30	59421.52
634.45	59615.79
634.60	59690.68
634.75	59531.53
634.90	59292.79
635.05	59480.03
635.19	59625.15
635.34	59641.53
635.49	59393.43
635.64	59524.50
635.79	59564.29
635.94	59760.90
636.09	59491.74
636.24	59557.27
636.39	59419.18
636.53	59669.62
636.68	59332.58
636.83	59597.06
636.98	59840.48
637.13	59175.76
637.28	59346.62
637.43	59278.75
637.57	59203.85
637.72	59203.85
637.87	59243.64
638.02	59367.69
638.17	59238.96
638.32	59297.47
638.46	59341.94
638.61	59278.75
638.76	59227.26
638.91	59262.36
639.06	59185.13
639.20	58951.07
639.35	59117.25
639.50	58878.52
639.65	59056.40
639.80	59241.30
639.94	59103.21
640.09	59098.53
640.24	59243.64
640.39	58824.68
640.54	58592.97
640.68	58960.44
640.83	58866.81
640.98	58892.56
641.13	58742.77
641.27	59238.96
641.42	59157.04
641.57	58871.49
641.72	59107.89
641.86	58585.95
642.01	58742.77
642.16	58721.70
642.31	58745.11
642.45	58866.81
642.60	58777.87
642.75	58887.88
642.90	58838.73
643.04	58784.90
643.19	58574.25
643.34	58796.60
643.48	58749.79
643.63	58754.47
643.78	58576.59
643.93	58745.11
644.07	58684.25
644.22	58452.54
644.37	58305.09
644.51	58328.49
644.66	58684.25
644.81	58497.01
644.95	58702.98
645.10	58487.65
645.25	58501.69
645.39	58272.32
645.54	58520.41
645.69	58356.58
645.83	58543.82
645.98	58618.72
646.13	58326.15
646.27	58358.92
646.42	58358.92
646.57	58356.58
646.71	58330.83
646.86	58508.71
647.00	58328.49
647.15	58356.58
647.30	58548.50
647.44	58440.84
647.59	58415.09
647.74	58286.36
647.88	58389.34
648.03	58391.68
648.17	58169.33
648.32	58244.23
648.47	58487.65
648.61	58429.13
648.76	58365.94
648.90	58204.44
649.05	58220.83
649.20	58220.83
649.34	58314.45
649.49	58307.43
649.63	58389.34
649.78	58248.91
649.92	58082.73
650.07	58298.06
650.21	58164.65
650.36	58120.18
650.51	57970.39
650.65	58225.51
650.80	58099.12
650.94	57829.96
651.09	57726.97
651.23	57939.96
651.38	57921.24
651.52	57694.21
651.67	57563.14
651.81	57808.89
651.96	57666.12
652.10	57890.81
652.25	57619.31
652.39	57748.04
652.54	57539.73
652.68	57485.90
652.83	57612.29
652.97	57799.53
653.12	57584.20
653.26	57790.17
653.41	58003.16
653.55	57855.70
653.70	57616.97
653.84	57902.51
653.99	57521.01
654.13	57446.11
654.27	57518.67
654.42	57413.34
654.56	57504.62
654.71	57600.58
654.85	57893.15
655.00	57450.79
655.14	57560.79
655.29	57425.04
655.43	57413.34
655.57	57198.01
655.72	57389.94
655.86	57193.33
656.01	57425.04
656.15	57345.47
656.30	57528.03
656.44	57375.89
656.58	57361.85
656.73	57331.42
656.87	57322.06
657.01	57368.87
657.16	57504.62
657.30	57275.25
657.45	57071.62
657.59	57127.80
657.73	56956.94
657.88	57113.75
658.02	57050.56
658.16	57125.46
658.31	56992.04
658.45	57162.90
658.60	57052.90
658.74	56830.55
658.88	57050.56
659.03	56945.23
659.17	56807.14
659.31	56858.63
659.46	56931.19
659.60	56547.34
659.74	56863.32
659.89	56669.05
660.03	56722.88
660.17	56912.47
660.32	56779.06
660.46	56905.44
660.60	56554.36
660.74	56580.11
660.89	56809.48
661.03	56563.73
661.17	56409.25
661.32	56266.48
661.46	56435.00
661.60	56633.94
661.74	56280.52
661.89	56521.60
662.03	56315.63
662.17	56385.85
662.31	56266.48
662.46	56303.93
662.60	56282.86
662.74	56126.05
662.88	55831.14
663.03	55622.83
663.17	56116.68
663.31	55908.38
663.45	55971.57
663.60	55814.76
663.74	55620.49
663.88	55793.69
664.02	55664.96
664.17	55786.67
664.31	55379.42
664.45	55416.86
664.59	55491.76
664.73	55632.19
664.88	55763.26
665.02	55253.03
665.16	55447.29
665.30	55463.67
665.44	55292.82
665.59	55103.23
665.73	55124.30
665.87	55121.96
666.01	55297.50
666.15	54869.18
666.29	55033.02
666.44	55384.10
666.58	55234.30
666.72	54841.09
666.86	54700.66
667.00	54911.31
667.14	54515.76
667.28	54686.62
667.43	54754.49
667.57	54958.12
667.71	54681.94
667.85	54436.18
667.99	54450.22
668.13	54527.46
668.27	54199.79
668.41	54340.22
668.56	54092.12
668.70	54024.25
668.84	54209.15
668.98	54038.29
669.12	53951.69
669.26	54255.96
669.40	54213.83
669.54	54382.35
669.68	53907.22
669.82	53993.82
669.96	54096.80
670.10	53808.92
670.25	54230.21
670.39	53937.65
670.53	54174.04
670.67	53939.99
670.81	53832.32
670.95	53539.75
671.09	53506.99
671.23	53565.50
671.37	53579.54
671.51	53172.29
671.65	53329.11
671.79	53045.90
671.93	52734.61
672.07	53345.49
672.21	52748.65
672.35	52797.80
672.49	52463.11
672.63	52437.36
672.77	52463.11
672.91	52425.66
673.05	52444.38
673.19	52212.67
673.33	52229.05
673.47	52453.75
673.61	52582.48
673.75	52097.98
673.89	51756.27
674.03	52011.38
674.17	51964.57
674.31	51859.25
674.45	51690.73
674.59	51709.46
674.73	51779.67
674.87	51550.30
675.01	51648.60
675.15	51178.15
675.29	51407.53
675.43	51164.11
675.56	51210.92
675.70	51103.26
675.84	51302.20
675.98	49652.12
676.12	50749.84
676.26	50843.46
676.40	50475.99
676.54	50796.65
676.68	50452.59
676.82	49759.79
676.96	49696.59
677.10	50150.66
677.23	49736.38
677.37	50031.29
677.51	49741.06
677.65	49048.27
677.79	48949.96
677.93	48839.96
678.07	48959.33
678.21	48720.59
678.34	48825.92
678.48	48708.89
678.62	48767.40
678.76	48540.37
678.90	48465.47
679.04	48348.45
679.18	48027.79
679.31	47718.84
679.45	47849.91
679.59	47938.85
679.73	48018.43
679.87	47437.98
680.00	47021.36
680.14	46693.69
680.28	47669.69
680.42	47021.36
680.56	46820.08
680.70	46059.40
680.83	46841.14
680.97	46370.69
681.11	46869.23
681.25	46443.25
681.39	46178.77
681.52	46351.97
681.66	46078.13
681.80	46234.94
681.94	45390.01
682.07	45645.13
682.21	45844.07
682.35	45331.50
682.49	45504.70
682.62	45415.76
682.76	44861.05
682.90	44917.22
683.04	44842.32
683.17	44788.49
683.31	44027.82
683.45	44332.09
683.59	44154.21
683.72	43910.79
683.86	43660.35
684.00	43831.21
684.13	44006.75
684.27	43557.37
684.41	44018.46
684.55	43643.97
684.68	43531.62
684.82	43232.04
684.96	42967.55
685.09	42569.66
685.23	42190.50
685.37	42485.40
685.50	42410.51
685.64	42536.90
685.78	42045.38
685.91	41691.96
686.05	41830.05
686.19	41284.71
686.32	41483.66
686.46	41120.87
686.60	41010.87
686.73	40952.35
686.87	40797.88
687.01	41060.02
687.14	40769.79
687.28	40268.92
687.42	39838.26
687.55	40339.13
687.69	40507.65
687.82	39611.23
687.96	39676.76
688.10	39742.30
688.23	39531.65
688.37	39517.60
688.50	38862.26
688.64	38667.99
688.78	38993.32
688.91	38176.48
689.05	38565.01
689.18	38763.95
689.32	37771.57
689.46	37326.86
689.59	37357.29
689.73	37406.44
689.86	37450.91
690.00	37308.14
690.13	37706.03
690.27	37148.98
690.41	37645.18
690.54	36912.59
690.68	36542.78
690.81	36886.84
690.95	36444.48
691.08	36175.32
691.22	35662.74
691.35	35716.58
691.49	36067.66
691.62	36201.07
691.76	35285.92
691.89	35119.74
692.03	35306.98
692.16	35140.80
692.30	35035.48
692.43	34850.58
692.57	34609.50
692.70	34492.47
692.84	34682.06
692.97	34494.82
693.11	34305.23
693.24	33848.83
693.38	34134.37
693.51	33769.25
693.65	33680.31
693.78	33251.99
693.92	33474.34
694.05	33237.95
694.19	33216.88
694.32	33008.58
694.45	33177.09
694.59	32870.48
694.72	32851.76
694.86	32287.69
694.99	32154.28
695.13	31613.62
695.26	31576.17
695.39	31292.96
695.53	31524.68
695.66	31751.71
695.80	31475.52
695.93	31466.16
696.07	30792.09
696.20	30424.62
696.33	30696.13
696.47	30845.92
696.60	30380.15
696.73	30642.29
696.87	30141.42
697.00	30263.13
697.14	30221.00
697.27	29764.59
697.40	29649.91
697.54	29310.53
697.67	29752.89
697.80	29479.05
697.94	29142.01
698.07	28844.76
698.21	28737.10
698.34	28950.09
698.47	28638.80
698.61	28390.70
698.74	28336.87
698.87	28355.59
699.01	28187.07
699.14	28203.46
699.27	27789.18
699.40	28016.21
699.54	27580.87
699.67	27494.27
699.80	27281.28
699.94	27307.03
700.07	27421.72
700.20	26913.82
700.34	26471.46
700.47	26192.94
700.60	25933.14
700.73	26354.43
700.87	25720.15
701.00	26015.05
701.13	25982.29
701.26	26026.76
701.40	25827.81
701.53	25649.93
701.66	25474.39
701.79	24884.58
701.93	25109.27
702.06	24835.42
702.19	25020.33
702.32	25032.03
702.46	24938.41
702.59	24397.74
702.72	24261.99
702.85	24334.55
702.99	24315.83
703.12	24163.69
703.25	24135.60
703.38	23789.20
703.51	23761.12
703.65	23363.23
703.78	23346.84
703.91	23267.27
704.04	22951.29
704.17	22841.29
704.31	22944.27
704.44	22705.54
704.57	22836.61
704.70	22307.65
704.83	22459.78
704.96	22335.73
705.10	22347.44
705.23	22520.63
>>>>>End Processed Spectral Data<<<<<
