SpectraSuite Data File
++++++++++++++++++++++++++++++++++++
Date: Fri Oct 25 11:25:27 EDT 2013
User: price-jones
Dark Spectrum Present: No
Reference Spectrum Present: No
Number of Sampled Component Spectra: 1
Spectrometers: USB2+H05261
Integration Time (usec): 100000 (USB2+H05261)
Spectra Averaged: 1 (USB2+H05261)
Boxcar Smoothing: 0 (USB2+H05261)
Correct for Electrical Dark: No (USB2+H05261)
Strobe/Lamp Enabled: No (USB2+H05261)
Correct for Detector Non-linearity: No (USB2+H05261)
Correct for Stray Light: No (USB2+H05261)
Number of Pixels in Processed Spectrum: 2048
>>>>>Begin Processed Spectral Data<<<<<
365.73	259.80
365.92	259.80
366.12	259.80
366.32	121.71
366.52	128.73
366.72	187.24
366.91	107.66
367.11	145.11
367.31	138.09
367.51	126.39
367.70	133.41
367.90	154.48
368.10	95.96
368.30	124.05
368.49	189.58
368.69	114.69
368.89	168.52
369.09	135.75
369.28	161.50
369.48	191.92
369.68	210.65
369.87	215.33
370.07	243.42
370.27	212.99
370.47	351.08
370.66	519.60
370.86	594.50
371.06	650.67
371.25	669.39
371.45	617.90
371.65	655.35
371.84	653.01
372.04	674.07
372.24	657.69
372.44	777.06
372.63	753.65
372.83	711.52
373.03	760.67
373.22	727.91
373.42	690.46
373.62	758.33
373.81	842.59
374.01	844.93
374.21	793.44
374.40	826.21
374.60	842.59
374.79	791.10
374.99	887.06
375.19	840.25
375.38	795.78
375.58	837.91
375.78	828.55
375.97	894.08
376.17	985.37
376.37	849.61
376.56	894.08
376.76	814.51
376.95	880.04
377.15	861.32
377.35	908.13
377.54	940.90
377.74	891.74
377.93	915.15
378.13	828.55
378.33	912.81
378.52	961.96
378.72	968.98
378.91	1018.13
379.11	964.30
379.31	903.45
379.50	983.02
379.70	940.90
379.89	994.73
380.09	980.68
380.28	933.87
380.48	947.92
380.68	887.06
380.87	1011.11
381.07	1018.13
381.26	1029.84
381.46	1008.77
381.65	1090.69
381.85	990.05
382.04	1060.26
382.24	1081.33
382.43	1125.80
382.63	1067.28
382.83	1036.86
383.02	1069.62
383.22	1071.97
383.41	1116.44
383.61	1071.97
383.80	1034.52
384.00	1055.58
384.19	1041.54
384.39	1193.67
384.58	1100.05
384.78	1158.57
384.97	1102.39
385.17	1263.89
385.36	1107.07
385.56	1102.39
385.75	1123.46
385.95	1125.80
386.14	1151.54
386.34	1177.29
386.53	1172.61
386.72	1135.16
386.92	1153.88
387.11	1146.86
387.31	1266.23
387.50	1247.51
387.70	1203.04
387.89	1268.57
388.09	1263.89
388.28	1303.68
388.48	1303.68
388.67	1261.55
388.86	1310.70
389.06	1287.29
389.25	1296.66
389.45	1362.19
389.64	1338.79
389.84	1348.15
390.03	1348.15
390.22	1359.85
390.42	1371.55
390.61	1320.06
390.81	1348.15
391.00	1341.13
391.19	1458.15
391.39	1385.60
391.58	1444.11
391.78	1413.68
391.97	1423.05
392.16	1451.13
392.36	1577.52
392.55	1504.96
392.75	1540.07
392.94	1537.73
393.13	1535.39
393.33	1502.62
393.52	1589.22
393.71	1540.07
393.91	1584.54
394.10	1537.73
394.29	1575.18
394.49	1528.37
394.68	1640.72
394.88	1544.75
395.07	1771.79
395.26	1671.14
395.46	1650.08
395.65	1675.82
395.84	1680.50
396.04	1706.25
396.23	1699.23
396.42	1729.66
396.62	1680.50
396.81	1832.64
397.00	1729.66
397.19	1760.08
397.39	1830.30
397.58	1874.77
397.77	1818.60
397.97	1755.40
398.16	1853.70
398.35	1818.60
398.55	1858.39
398.74	1715.61
398.93	1940.30
399.12	1879.45
399.32	1933.28
399.51	1804.55
399.70	1909.88
399.90	1989.46
400.09	2047.97
400.28	2059.67
400.47	1926.26
400.67	2047.97
400.86	2045.63
401.05	1998.82
401.24	2017.54
401.44	2125.21
401.63	2132.23
401.82	2057.33
402.01	2162.66
402.21	2146.27
402.40	2235.21
402.59	2225.85
402.78	2181.38
402.97	2218.83
403.17	2228.19
403.36	2249.25
403.55	2300.75
403.74	2356.92
403.93	2410.75
404.13	2275.00
404.32	2354.58
404.51	2333.51
404.70	2415.43
404.89	2335.85
405.09	2385.01
405.28	2345.22
405.47	2413.09
405.66	2455.22
405.85	2504.37
406.05	2452.88
406.24	2487.99
406.43	2518.42
406.62	2621.40
406.81	2656.51
407.00	2567.57
407.20	2518.42
407.39	2757.15
407.58	2656.51
407.77	2693.96
407.96	2642.46
408.15	2710.34
408.34	2740.77
408.54	2773.53
408.73	2738.43
408.92	2773.53
409.11	2960.78
409.30	2803.96
409.49	2963.12
409.68	2869.50
409.87	2930.35
410.07	3005.25
410.26	2991.20
410.45	2822.69
410.64	3066.10
410.83	2909.29
411.02	3084.83
411.21	2986.52
411.40	3061.42
411.59	3192.49
411.78	3155.04
411.98	3082.49
412.17	3190.15
412.36	3155.04
412.55	3335.26
412.74	3358.67
412.93	3321.22
413.12	3342.28
413.31	3550.59
413.50	3471.01
413.69	3454.63
413.88	3503.78
414.07	3569.32
414.26	3646.55
414.45	3590.38
414.64	3688.68
414.83	3674.64
415.02	3824.44
415.22	3726.13
415.41	3789.33
415.60	3906.35
415.79	3817.41
415.98	3913.38
416.17	4030.40
416.36	3922.74
416.55	4100.62
416.74	4112.32
416.93	3960.19
417.12	4077.21
417.31	4095.94
417.50	4149.77
417.69	4250.41
417.88	4138.07
418.07	4138.07
418.26	4147.43
418.45	4271.48
418.64	4337.01
418.83	4231.69
419.02	4318.29
419.21	4395.53
419.39	4500.85
419.58	4561.70
419.77	4365.10
419.96	4568.73
420.15	4472.76
420.34	4587.45
420.53	4507.87
420.72	4746.61
420.91	4615.54
421.10	4720.86
421.29	4786.40
421.48	4568.73
421.67	4629.58
421.86	4830.87
422.05	4767.67
422.24	4720.86
422.43	4877.68
422.61	4748.95
422.80	4889.38
422.99	4788.74
423.18	5076.62
423.37	5163.22
423.56	4957.25
423.75	4758.31
423.94	4877.68
424.13	4538.30
424.32	4617.88
424.50	5048.54
424.69	5135.14
424.88	4985.34
425.07	4926.83
425.26	4873.00
425.45	4940.87
425.64	4863.63
425.83	4933.85
426.01	5137.48
426.20	4978.32
426.39	5053.22
426.58	4978.32
426.77	5102.37
426.96	5062.58
427.15	5158.54
427.33	5151.52
427.52	5198.33
427.71	5385.57
427.90	5135.14
428.09	5242.80
428.28	5324.72
428.46	5327.06
428.65	5373.87
428.84	5397.28
429.03	5280.25
429.22	5329.40
429.40	5570.48
429.59	5516.64
429.78	5338.76
429.97	5247.48
430.16	5392.59
430.34	5565.79
430.53	5633.67
430.72	5647.71
430.91	5427.70
431.10	5540.05
431.28	5717.93
431.47	5636.01
431.66	5746.02
431.85	5813.89
432.03	5874.74
432.22	5888.79
432.41	5966.03
432.60	5823.25
432.79	5895.81
432.97	5949.64
433.16	5905.17
433.35	5991.77
433.54	5977.73
433.72	6043.26
433.91	6125.18
434.10	6094.76
434.28	6211.78
434.47	6164.97
434.66	6169.65
434.85	6188.38
435.03	6326.47
435.22	6291.36
435.41	6406.05
435.59	6363.92
435.78	6307.74
435.97	6370.94
436.16	6209.44
436.34	6413.07
436.53	6356.90
436.72	6406.05
436.90	6354.55
437.09	6614.35
437.28	6370.94
437.46	6551.16
437.65	6403.71
437.84	6693.93
438.02	6731.38
438.21	6626.06
438.40	6761.81
438.58	6846.07
438.77	7042.67
438.96	6944.37
439.14	6932.67
439.33	7040.33
439.52	7066.08
439.70	7290.77
439.89	7145.66
440.08	7269.70
440.26	7335.24
440.45	7173.74
440.63	7578.65
440.82	7611.42
441.01	7494.40
441.19	7520.14
441.38	7552.91
441.57	7702.70
441.75	7688.66
441.94	7847.82
442.12	8004.63
442.31	7915.69
442.50	7850.16
442.68	7751.85
442.87	7981.23
443.05	8112.30
443.24	8212.94
443.43	8145.06
443.61	8032.72
443.80	8292.52
443.98	7918.03
444.17	7693.34
444.35	8229.32
444.54	8226.98
444.73	8053.78
444.91	8273.79
445.10	8290.18
445.28	8226.98
445.47	8238.69
445.65	8290.18
445.84	8355.71
446.02	8521.89
446.21	8346.35
446.39	8241.03
446.58	8444.65
446.77	8435.29
446.95	8248.05
447.14	8184.85
447.32	8559.34
447.51	8222.30
447.69	8276.13
447.88	8610.83
448.06	8587.43
448.25	8458.70
448.43	8531.25
448.62	8835.52
448.80	8304.22
448.99	8723.18
449.17	8514.87
449.36	8603.81
449.54	8688.07
449.73	8908.08
449.91	8800.41
450.10	8788.71
450.28	8926.80
450.46	9043.83
450.65	8847.22
450.83	8877.65
451.02	8987.66
451.20	9104.68
451.39	8997.02
451.57	8997.02
451.76	9179.58
451.94	9235.75
452.13	9418.32
452.31	9303.63
452.49	9067.24
452.68	9238.09
452.86	9233.41
453.05	9394.91
453.23	9277.88
453.42	9451.08
453.60	9146.81
453.78	9413.63
453.97	9212.35
454.15	9446.40
454.34	9277.88
454.52	9694.50
454.70	9603.22
454.89	9495.55
455.07	9568.11
455.26	9596.20
455.44	9530.66
455.62	9769.40
455.81	9823.23
455.99	9987.07
456.17	9818.55
456.36	9888.76
456.54	10087.71
456.73	10286.65
456.91	10310.06
457.09	10139.20
457.28	10377.94
457.46	10178.99
457.64	10331.12
457.83	10534.75
458.01	10319.42
458.19	10649.44
458.38	10630.71
458.56	10663.48
458.74	10581.56
458.93	10490.28
459.11	10729.02
459.29	10761.78
459.48	10675.18
459.66	10630.71
459.84	10743.06
460.03	10934.98
460.21	10848.38
460.39	10712.63
460.57	10869.45
460.76	10946.69
460.94	11014.56
461.12	10920.94
461.31	11131.59
461.49	11112.86
461.67	11089.46
461.85	11412.45
462.04	11105.84
462.22	11707.36
462.40	11485.01
462.59	11229.89
462.77	11089.46
462.95	11435.86
463.13	11496.71
463.32	11595.01
463.50	11620.76
463.68	11658.21
463.86	11602.04
464.05	11550.54
464.23	11737.79
464.41	11978.86
464.59	11527.14
464.78	12170.79
464.96	11817.36
465.14	11639.48
465.32	11969.50
465.50	11791.62
465.69	12006.95
465.87	11988.22
466.05	12320.58
466.23	11960.14
466.41	11948.43
466.60	12430.59
466.78	11873.54
466.96	12063.12
467.14	12065.46
467.32	12105.25
467.51	12245.68
467.69	12046.74
467.87	12257.39
468.05	12320.58
468.23	12449.31
468.41	12243.34
468.60	12468.03
468.78	12669.32
468.96	12444.63
469.14	12709.11
469.32	12713.79
469.50	12620.17
469.69	12849.54
469.87	12807.41
470.05	13060.19
470.23	13006.36
470.41	13032.10
470.59	13130.41
470.77	12989.97
470.95	12975.93
471.14	13401.91
471.32	13053.17
471.50	13603.19
471.68	13675.75
471.86	13575.11
472.04	13486.17
472.22	13944.91
472.40	13577.45
472.58	13820.86
472.77	13631.28
472.95	14068.96
473.13	14420.04
473.31	13862.99
473.49	13980.02
473.67	13989.38
473.85	14178.97
474.03	14368.55
474.21	14490.26
474.39	14588.56
474.57	14626.01
474.75	14740.69
474.93	14949.00
475.12	14827.29
475.30	14857.72
475.48	14740.69
475.66	15262.63
475.84	14867.08
476.02	15178.37
476.20	15426.47
476.38	15417.11
476.56	15901.60
476.74	15756.49
476.92	15609.03
477.10	15548.18
477.28	16095.86
477.46	16187.14
477.64	16147.36
477.82	16343.96
478.00	16776.96
478.18	16545.25
478.36	16774.62
478.54	16992.29
478.72	16842.50
478.90	17163.15
479.08	17366.78
479.26	17575.08
479.44	17593.81
479.62	17530.61
479.80	17685.09
479.98	17909.78
480.16	18441.08
480.34	18146.17
480.52	18647.05
480.70	18434.06
480.88	18094.68
481.06	18703.22
481.24	18562.79
481.41	18857.70
481.59	18932.59
481.77	19510.71
481.95	19513.05
482.13	19449.85
482.31	19199.41
482.49	19779.87
482.67	20002.22
482.85	20493.73
483.03	20315.85
483.21	20734.81
483.39	20643.52
483.57	20519.48
483.74	21036.74
483.92	21085.89
484.10	20837.79
484.28	21542.29
484.46	21986.99
484.64	22445.74
484.82	21577.40
485.00	22148.49
485.18	22190.62
485.35	23005.13
485.53	22778.09
485.71	22541.70
485.89	23248.54
486.07	22750.01
486.25	23037.89
486.43	23278.97
486.61	23491.96
486.78	24229.23
486.96	23426.42
487.14	24554.56
487.32	24428.17
487.50	24741.80
487.68	24673.93
487.85	25146.72
488.03	25493.12
488.21	25607.80
488.39	25783.34
488.57	26075.91
488.75	26214.00
488.92	26141.44
489.10	26686.79
489.28	26333.37
489.46	27061.27
489.64	26696.15
489.81	27192.34
489.99	27192.34
490.17	27623.00
490.35	27688.54
490.53	28067.70
490.70	27878.12
490.88	27969.40
491.06	28456.23
491.24	28603.69
491.41	28734.76
491.59	29020.30
491.77	28954.77
491.95	29465.00
492.13	29811.40
492.30	29694.38
492.48	29715.44
492.66	29993.97
492.84	30082.91
493.01	30370.79
493.19	30164.82
493.37	30679.74
493.54	30934.86
493.72	31295.30
493.90	31063.59
494.08	31377.22
494.25	31737.66
494.43	31765.75
494.61	32065.34
494.79	32180.03
494.96	31948.31
495.14	32123.85
495.32	32849.42
495.49	33090.49
495.67	32692.60
495.85	33420.51
496.02	33270.72
496.20	33289.44
496.38	33977.56
496.55	34075.86
496.73	34623.54
496.91	34455.03
497.09	34787.38
497.26	34803.77
497.44	34249.06
497.62	35365.49
497.79	35222.72
497.97	34635.25
498.14	35599.55
498.32	35894.46
498.50	36222.13
498.67	35782.11
498.85	36023.19
499.03	36437.46
499.20	36140.21
499.38	36659.81
499.56	36870.46
499.73	36816.63
499.91	36833.01
500.08	37280.05
500.26	37296.44
500.44	37439.21
500.61	37516.45
500.79	37027.28
500.97	37780.93
501.14	38333.29
501.32	38347.34
501.49	38157.75
501.67	38284.14
501.84	38693.74
502.02	38415.21
502.20	38810.76
502.37	39093.97
502.55	38979.28
502.72	39192.27
502.90	39262.49
503.07	39047.16
503.25	39433.35
503.43	39332.70
503.60	39819.53
503.78	39536.33
503.95	39810.17
504.13	40037.20
504.30	39988.05
504.48	40343.81
504.65	40184.66
504.83	40891.50
505.01	40858.73
505.18	40877.46
505.36	41207.47
505.53	41354.93
505.71	41127.89
505.88	41425.14
506.06	41411.10
506.23	41933.04
506.41	41584.30
506.58	41848.78
506.76	41783.24
506.93	42082.83
507.11	41951.76
507.28	42789.67
507.46	42106.24
507.63	42660.94
507.81	43304.59
507.98	42408.17
508.16	43126.71
508.33	43412.26
508.50	43391.19
508.68	42829.46
508.85	43899.09
509.03	43901.43
509.20	43620.56
509.38	43889.73
509.55	44261.87
509.73	43746.95
509.90	44088.67
510.08	44172.93
510.25	44449.11
510.42	44285.28
510.60	44917.22
510.77	44439.75
510.95	45202.77
511.12	44809.56
511.30	44882.11
511.47	45284.68
511.64	45521.08
511.82	45380.65
511.99	45572.57
512.17	45291.71
512.34	45567.89
512.51	45820.67
512.69	45759.81
512.86	46164.73
513.04	46122.60
513.21	46206.86
513.38	46614.11
513.56	46590.70
513.73	46321.54
513.90	46597.73
514.08	46494.74
514.25	46621.13
514.43	47136.05
514.60	47049.45
514.77	47243.71
514.95	47564.37
515.12	47400.53
515.29	47409.89
515.47	47805.44
515.64	47650.97
515.81	47175.84
515.99	47887.36
516.16	48308.66
516.33	47997.37
516.51	48514.62
516.68	47803.10
516.85	48545.05
517.03	48552.07
517.20	48545.05
517.37	48458.45
517.54	48437.39
517.72	48741.66
517.89	49092.74
518.06	48708.89
518.24	49099.76
518.41	48837.62
518.58	49055.29
518.75	48952.30
518.93	49387.64
519.10	49104.44
519.27	49427.43
519.45	49432.11
519.62	49647.44
519.79	49762.13
519.96	49462.54
520.14	49918.95
520.31	49715.32
520.48	49930.65
520.65	50178.75
520.83	50295.77
521.00	50188.11
521.17	50113.21
521.34	50382.37
521.52	50454.93
521.69	50553.23
521.86	50740.47
522.03	50827.07
522.20	50548.55
522.38	51037.72
522.55	50869.20
522.72	51178.15
522.89	51159.43
523.07	51538.60
523.24	51173.47
523.41	51384.12
523.58	50995.59
523.75	51627.54
523.92	51583.07
524.10	51805.42
524.27	51995.00
524.44	51531.57
524.61	51650.94
524.78	51613.49
524.96	52041.81
525.13	51934.15
525.30	52254.80
525.47	51882.66
525.64	52207.99
525.81	52289.91
525.98	52364.81
526.16	52378.85
526.33	52420.98
526.50	52664.39
526.67	52484.17
526.84	52591.84
527.01	52601.20
527.18	52720.57
527.36	52779.08
527.53	52772.06
527.70	53144.20
527.87	53207.40
528.04	52896.11
528.21	53219.10
528.38	52947.60
528.55	53640.40
528.72	53055.26
528.89	53333.79
529.07	53071.65
529.24	53151.23
529.41	53289.32
529.58	53645.08
529.75	53687.21
529.92	53764.45
530.09	53303.36
530.26	53340.81
530.43	54113.19
530.60	53429.75
530.77	53607.63
530.94	53724.66
531.11	53598.27
531.28	53712.95
531.46	53825.30
531.63	54092.12
531.80	53806.58
531.97	54195.10
532.14	53979.78
532.31	54183.40
532.48	54225.53
532.65	54426.82
532.82	54380.01
532.99	54305.11
533.16	54431.50
533.33	54623.42
533.50	54717.04
533.67	54548.53
533.84	54557.89
534.01	54560.23
534.18	54728.75
534.35	54939.39
534.52	54939.39
534.69	54915.99
534.86	54990.89
535.03	54838.75
535.20	54986.21
535.37	54960.46
535.54	55231.96
535.71	54838.75
535.88	55238.98
536.05	55281.11
536.22	55255.37
536.38	55271.75
536.55	55203.88
536.72	55585.38
536.89	55105.57
537.06	55381.76
537.23	55351.33
537.40	55276.43
537.57	55774.97
537.74	55215.58
537.91	56018.38
538.08	55765.60
538.25	55622.83
538.42	55681.34
538.59	55976.25
538.75	55505.80
538.92	55917.74
539.09	55964.55
539.26	55793.69
539.43	55760.92
539.60	55791.35
539.77	56236.05
539.94	56116.68
540.11	56207.97
540.28	56292.22
540.44	56268.82
540.61	56086.26
540.78	56037.11
540.95	56126.05
541.12	56193.92
541.29	56053.49
541.46	56224.35
541.62	56348.40
541.79	56442.02
541.96	56275.84
542.13	56493.51
542.30	56488.83
542.47	56629.26
542.63	56643.30
542.80	56647.99
542.97	56933.53
543.14	57069.28
543.31	56860.97
543.48	57265.89
543.64	57205.03
543.81	57069.28
543.98	57048.22
544.15	56982.68
544.32	57333.76
544.48	57340.78
544.65	56921.83
544.82	57207.37
544.99	57020.13
545.16	57228.44
545.32	57083.33
545.49	57186.31
545.66	57394.62
545.83	57467.17
546.00	57464.83
546.16	57347.81
546.33	57113.75
546.50	57181.63
546.67	57485.90
546.83	57216.74
547.00	57338.44
547.17	57535.05
547.34	57638.03
547.50	57675.48
547.67	57893.15
547.84	57600.58
548.00	57874.43
548.17	57790.17
548.34	58026.56
548.51	58209.12
548.67	57928.26
548.84	58003.16
549.01	57792.51
549.18	57925.92
549.34	58068.69
549.51	58028.90
549.68	58031.24
549.84	58113.16
550.01	58330.83
550.18	58258.27
550.34	58377.64
550.51	58272.32
550.68	58272.32
550.84	57975.07
551.01	58232.53
551.18	58316.79
551.34	58101.46
551.51	58396.37
551.68	58269.98
551.84	58291.04
552.01	58316.79
552.18	58424.45
552.34	58239.55
552.51	58466.58
552.68	58394.03
552.84	58433.81
553.01	58782.55
553.18	58679.57
553.34	58710.00
553.51	58710.00
553.67	58831.71
553.84	58834.05
554.01	58684.25
554.17	58798.94
554.34	58955.75
554.51	58555.52
554.67	58707.66
554.84	58721.70
555.00	58932.35
555.17	58831.71
555.33	58904.26
555.50	58424.45
555.67	58660.85
555.83	58810.64
556.00	59054.06
556.16	58983.84
556.33	59114.91
556.50	58883.20
556.66	59187.47
556.83	58702.98
556.99	59346.62
557.16	59402.80
557.32	59271.73
557.49	59351.30
557.65	59145.34
557.82	59168.74
557.98	59082.14
558.15	59250.66
558.32	59353.65
558.48	59103.21
558.65	59374.71
558.81	59377.05
558.98	59430.88
559.14	59505.78
559.31	59531.53
559.47	59604.08
559.64	59585.36
559.80	59498.76
559.97	59615.79
560.13	59339.60
560.30	59449.61
560.46	59358.33
560.63	59686.00
560.79	59454.29
560.96	59772.60
561.12	59437.90
561.29	59505.78
561.45	59711.75
561.61	59751.54
561.78	59533.87
561.94	59545.57
562.11	59554.93
562.27	59613.44
562.44	59660.26
562.60	59945.80
562.77	59915.37
562.93	59554.93
563.10	59856.86
563.26	59924.74
563.42	60004.31
563.59	59920.05
563.75	59798.35
563.92	59866.22
564.08	59859.20
564.24	59931.76
564.41	59964.52
564.57	60027.72
564.74	59901.33
564.90	59959.84
565.07	59908.35
565.23	59917.71
565.39	60102.62
565.56	60020.70
565.72	60221.98
565.88	60130.70
566.05	59999.63
566.21	60009.00
566.38	60100.28
566.54	59994.95
566.70	60371.78
566.87	60198.58
567.03	60020.70
567.19	60186.88
567.36	60097.94
567.52	60074.53
567.68	60203.26
567.85	60420.93
568.01	60460.72
568.17	60168.15
568.34	60238.37
568.50	60177.51
568.66	60046.44
568.83	60207.94
568.99	60205.60
569.15	60198.58
569.32	60343.69
569.48	60055.81
569.64	60498.17
569.81	60278.16
569.97	60177.51
570.13	60231.35
570.30	60025.38
570.46	60102.62
570.62	60186.88
570.78	60397.52
570.95	60296.88
571.11	60495.83
571.27	60203.26
571.43	60441.99
571.60	60615.19
571.76	60313.26
571.92	60252.41
572.09	60376.46
572.25	60313.26
572.41	60364.76
572.57	60322.63
572.74	60392.84
572.90	60308.58
573.06	60280.50
573.22	60516.89
573.38	60395.18
573.55	60376.46
573.71	60512.21
573.87	60470.08
574.03	60240.71
574.20	60500.51
574.36	60376.46
574.52	60790.73
574.68	60629.24
574.84	60619.88
575.01	60631.58
575.17	60353.05
575.33	60673.71
575.49	60320.29
575.65	60378.80
575.82	60570.72
575.98	60626.90
576.14	60844.57
576.30	60662.00
576.46	60371.78
576.62	60617.53
576.79	60523.91
576.95	60439.65
577.11	60566.04
577.27	60573.06
577.43	60495.83
577.59	60570.72
577.75	60605.83
577.92	60488.80
578.08	60556.68
578.24	60624.56
578.40	60500.51
578.56	60650.30
578.72	60612.85
578.88	60790.73
579.04	60856.27
579.21	60718.18
579.37	60640.94
579.53	60594.13
579.69	60509.87
579.85	60636.26
580.01	60540.30
580.17	60629.24
580.33	60713.50
580.49	60685.41
580.65	60757.97
580.82	60783.71
580.98	60652.64
581.14	60626.90
581.30	60823.50
581.46	60690.09
581.62	60746.26
581.78	60645.62
581.94	60598.81
582.10	60772.01
582.26	60821.16
582.42	60552.00
582.58	60720.52
582.74	60715.84
582.90	60774.35
583.06	60760.31
583.22	60573.06
583.38	60760.31
583.54	60776.69
583.70	60825.84
583.86	60977.98
584.02	60793.07
584.18	60889.04
584.34	60877.33
584.50	60863.29
584.66	60718.18
584.82	60500.51
584.98	60823.50
585.14	60830.52
585.30	60736.90
585.46	61029.47
585.62	60711.16
585.78	60722.86
585.94	60512.21
586.10	60760.31
586.26	60877.33
586.42	60788.39
586.58	60839.89
586.74	60856.27
586.90	60917.12
587.06	60793.07
587.22	60788.39
587.38	60893.72
587.54	60961.59
587.70	61038.83
587.86	61038.83
588.02	60680.73
588.18	60987.34
588.34	60741.58
588.49	60835.20
588.65	60772.01
588.81	60893.72
588.97	60889.04
589.13	60935.85
589.29	60994.36
589.45	61167.56
589.61	60781.37
589.77	61197.99
589.93	61050.53
590.08	61029.47
590.24	61083.30
590.40	61233.10
590.56	61041.17
590.72	61160.54
590.88	61057.56
591.04	61003.72
591.20	61235.44
591.35	61256.50
591.51	61429.70
591.67	61240.12
591.83	61460.13
591.99	61106.71
592.15	61425.02
592.31	61261.18
592.46	61071.60
592.62	61263.52
592.78	61256.50
592.94	61172.24
593.10	61223.73
593.26	61333.74
593.41	61324.38
593.57	61258.84
593.73	61219.05
593.89	61427.36
594.05	61179.26
594.20	61183.94
594.36	61359.48
594.52	61387.57
594.68	61331.40
594.84	61174.58
594.99	61371.19
595.15	61350.12
595.31	61357.14
595.47	61247.14
595.62	61193.31
595.78	61186.28
595.94	61551.41
596.10	61394.59
596.25	61270.54
596.41	61471.83
596.57	61319.70
596.73	61385.23
596.88	61605.24
597.04	61467.15
597.20	61572.47
597.36	61474.17
597.51	61441.40
597.67	61350.12
597.83	61303.31
597.99	61453.11
598.14	61366.51
598.30	61488.21
598.46	61401.61
598.61	61560.77
598.77	61317.35
598.93	61394.59
599.09	61502.26
599.24	61874.40
599.40	61441.40
599.56	61584.18
599.71	61525.66
599.87	61635.67
600.03	61469.49
600.18	61483.53
600.34	61336.08
600.50	61499.92
600.65	61359.48
600.81	61705.88
600.97	61675.46
601.12	61689.50
601.28	61490.55
601.44	61504.60
601.59	61750.35
601.75	61418.00
601.91	61553.75
602.06	61565.45
602.22	61600.56
602.37	61722.27
602.53	61469.49
602.69	61357.14
602.84	61525.66
603.00	61687.16
603.16	61523.32
603.31	61467.15
603.47	61787.80
603.62	61539.71
603.78	61708.22
603.94	61677.80
604.09	61748.01
604.25	61719.93
604.40	61357.14
604.56	61712.91
604.71	61703.54
604.87	61176.92
605.03	61584.18
605.18	61425.02
605.34	61563.11
605.49	61591.20
605.65	61574.81
605.80	61567.79
605.96	61654.39
606.12	61673.12
606.27	61640.35
606.43	61593.54
606.58	61649.71
606.74	61504.60
606.89	61455.45
607.05	61560.77
607.20	61572.47
607.36	61361.82
607.51	61439.06
607.67	61387.57
607.82	61352.46
607.98	61401.61
608.13	61378.21
608.29	61329.06
608.44	61340.76
608.60	61293.95
608.75	61460.13
608.91	61347.78
609.06	61366.51
609.22	61375.87
609.37	61425.02
609.53	61340.76
609.68	61322.04
609.84	61230.75
609.99	61574.81
610.15	61399.27
610.30	61558.43
610.46	61441.40
610.61	61432.04
610.76	61556.09
610.92	61303.31
611.07	61172.24
611.23	61336.08
611.38	61485.87
611.54	61303.31
611.69	61366.51
611.84	61413.32
612.00	61375.87
612.15	61375.87
612.31	61275.22
612.46	61186.28
612.62	61181.60
612.77	61305.65
612.92	61497.58
613.08	61286.93
613.23	61286.93
613.39	61251.82
613.54	61087.98
613.69	61504.60
613.85	61406.30
614.00	61275.22
614.15	61296.29
614.31	61275.22
614.46	61352.46
614.62	61106.71
614.77	61183.94
614.92	61172.24
615.08	61186.28
615.23	61146.50
615.38	61141.81
615.54	61080.96
615.69	61275.22
615.84	61095.00
616.00	61144.16
616.15	61167.56
616.30	61319.70
616.46	60851.59
616.61	61073.94
616.76	61340.76
616.92	61172.24
617.07	60968.61
617.22	60903.08
617.37	60961.59
617.53	61282.25
617.68	61080.96
617.83	61041.17
617.99	60994.36
618.14	61080.96
618.29	61022.45
618.45	60959.25
618.60	60636.26
618.75	60781.37
618.90	60898.40
619.06	60985.00
619.21	60914.78
619.36	61216.71
619.51	61087.98
619.67	60615.19
619.82	60673.71
619.97	61123.09
620.12	60896.06
620.28	60935.85
620.43	60917.12
620.58	60697.11
620.73	60734.56
620.89	60851.59
621.04	60992.02
621.19	60818.82
621.34	60924.14
621.49	60610.51
621.65	60886.70
621.80	60853.93
621.95	60577.75
622.10	60760.31
622.25	60657.32
622.41	60596.47
622.56	60594.13
622.71	60821.16
622.86	60523.91
623.01	60584.77
623.16	60434.97
623.32	60713.50
623.47	60734.56
623.62	60680.73
623.77	60842.23
623.92	60874.99
624.07	60736.90
624.23	60743.92
624.38	60718.18
624.53	60313.26
624.68	60245.39
624.83	60528.59
624.98	60458.38
625.13	60126.02
625.29	60530.93
625.44	60521.57
625.59	60385.82
625.74	60346.03
625.89	60409.23
626.04	60299.22
626.19	60329.65
626.34	60161.13
626.49	60299.22
626.65	60149.43
626.80	60156.45
626.95	60252.41
627.10	59856.86
627.25	59913.03
627.40	60090.91
627.55	60135.38
627.70	60186.88
627.85	60119.00
628.00	60111.98
628.15	60186.88
628.30	60196.24
628.45	59987.93
628.60	59985.59
628.76	60130.70
628.91	60259.43
629.06	59896.65
629.21	60205.60
629.36	60048.78
629.51	60065.17
629.66	59913.03
629.81	59835.80
629.96	59660.26
630.11	59920.05
630.26	60133.04
630.41	60051.12
630.56	59980.91
630.71	59868.56
630.86	59788.98
631.01	59873.24
631.16	59934.10
631.31	59686.00
631.46	59749.20
631.61	59767.92
631.76	59728.13
631.91	59714.09
632.06	59824.09
632.21	59835.80
632.36	59751.54
632.51	59398.12
632.66	59765.58
632.81	59554.93
632.96	59875.58
633.10	59739.83
633.25	59648.55
633.40	59810.05
633.55	59723.45
633.70	59458.97
633.85	59578.34
634.00	59316.20
634.15	59533.87
634.30	59494.08
634.45	59599.40
634.60	59636.85
634.75	59519.82
634.90	59313.86
635.05	59454.29
635.19	59517.48
635.34	59302.15
635.49	59648.55
635.64	59405.14
635.79	59414.50
635.94	59494.08
636.09	59526.84
636.24	59482.37
636.39	59468.33
636.53	59550.25
636.68	59192.15
636.83	59641.53
636.98	59451.95
637.13	59222.58
637.28	59531.53
637.43	59264.70
637.57	59271.73
637.72	59281.09
637.87	59084.48
638.02	59154.70
638.17	59304.49
638.32	59196.83
638.46	59227.26
638.61	59089.16
638.76	59063.42
638.91	59250.66
639.06	59054.06
639.20	58855.11
639.35	58710.00
639.50	58976.82
639.65	58974.48
639.80	58899.58
639.94	59093.85
640.09	59021.29
640.24	58951.07
640.39	58836.39
640.54	59035.33
640.68	58979.16
640.83	58934.69
640.98	58674.89
641.13	59030.65
641.27	59100.87
641.42	58925.33
641.57	58784.90
641.72	58927.67
641.86	58464.24
642.01	58618.72
642.16	58560.20
642.31	58808.30
642.45	58653.82
642.60	58473.60
642.75	58787.24
642.90	58897.24
643.04	58614.04
643.19	58513.39
643.34	58651.48
643.48	58658.51
643.63	58707.66
643.78	58567.23
643.93	58546.16
644.07	58391.68
644.22	58335.51
644.37	58087.42
644.51	58298.06
644.66	58478.28
644.81	58482.97
644.95	58541.48
645.10	58361.26
645.25	58417.43
645.39	58424.45
645.54	58396.37
645.69	58333.17
645.83	58670.21
645.98	58305.09
646.13	58466.58
646.27	58443.18
646.42	58321.47
646.57	58260.62
646.71	58365.94
646.86	58419.77
647.00	58155.29
647.15	58213.80
647.30	58410.41
647.44	58197.42
647.59	58473.60
647.74	58262.96
647.88	58433.81
648.03	58246.57
648.17	58230.19
648.32	58199.76
648.47	58241.89
648.61	58026.56
648.76	58342.53
648.90	58068.69
649.05	57846.34
649.20	58305.09
649.34	58054.65
649.49	58019.54
649.63	57993.79
649.78	58005.50
649.92	57928.26
650.07	58323.81
650.21	57893.15
650.36	58068.69
650.51	57904.85
650.65	58202.10
650.80	58024.22
650.94	57750.38
651.09	57762.08
651.23	57560.79
651.38	57928.26
651.52	57701.23
651.67	57535.05
651.81	57808.89
651.96	57806.55
652.10	57729.31
652.25	57614.63
652.39	57605.26
652.54	57408.66
652.68	57392.28
652.83	57598.24
652.97	57773.78
653.12	57759.74
653.26	57434.41
653.41	57598.24
653.55	57766.76
653.70	57649.74
653.84	57844.00
653.99	57602.92
654.13	57441.43
654.27	57254.18
654.42	57305.68
654.56	57158.22
654.71	57324.40
654.85	57481.22
655.00	57478.88
655.14	57481.22
655.29	57331.42
655.43	57516.32
655.57	57256.53
655.72	57492.92
655.86	57528.03
656.01	57179.29
656.15	57137.16
656.30	57240.14
656.44	57375.89
656.58	57457.81
656.73	57359.51
656.87	57403.98
657.01	57113.75
657.16	57429.72
657.30	57092.69
657.45	57249.50
657.59	57020.13
657.73	56980.34
657.88	56711.18
658.02	57099.71
658.16	56961.62
658.31	56851.61
658.45	56884.38
658.60	56910.13
658.74	57214.40
658.88	57010.77
659.03	56729.90
659.17	56938.21
659.31	56729.90
659.46	56638.62
659.60	56743.95
659.74	56765.01
659.89	56528.62
660.03	56530.96
660.17	56669.05
660.32	56720.54
660.46	56732.25
660.60	56439.68
660.74	56725.22
660.89	56697.14
661.03	56385.85
661.17	56107.32
661.32	56200.94
661.46	56498.19
661.60	56165.84
661.74	56463.08
661.89	56219.67
662.03	56076.90
662.17	56034.77
662.31	56044.13
662.46	56341.38
662.60	56044.13
662.74	56079.24
662.88	55973.91
663.03	55601.77
663.17	55812.41
663.31	55681.34
663.45	55812.41
663.60	55608.79
663.74	55618.15
663.88	55547.93
664.02	55604.11
664.17	55566.66
664.31	55405.16
664.45	55688.37
664.59	55594.74
664.73	55526.87
664.88	55309.20
665.02	54805.98
665.16	55421.55
665.30	55171.11
665.44	55379.42
665.59	54962.80
665.73	55009.61
665.87	55126.64
666.01	55168.77
666.15	55145.36
666.29	55079.83
666.44	55011.95
666.58	55009.61
666.72	54855.14
666.86	54445.54
667.00	54880.88
667.14	54316.81
667.28	54651.51
667.43	54698.32
667.57	54770.88
667.71	54541.50
667.85	54321.49
667.99	54419.80
668.13	54192.76
668.27	54237.23
668.41	54527.46
668.56	54192.76
668.70	53954.03
668.84	53998.50
668.98	53736.36
669.12	54021.90
669.26	53928.28
669.40	54244.26
669.54	54213.83
669.68	53862.75
669.82	53932.96
669.96	53670.82
670.10	53832.32
670.25	54101.48
670.39	53598.27
670.53	53661.46
670.67	53560.82
670.81	53656.78
670.95	53619.33
671.09	53460.18
671.23	53263.57
671.37	53308.04
671.51	53308.04
671.65	53514.01
671.79	53144.20
671.93	52872.70
672.07	53179.31
672.21	52989.73
672.35	52699.50
672.49	52432.68
672.63	52250.12
672.77	52495.88
672.91	52523.96
673.05	52425.66
673.19	52477.15
673.33	52360.12
673.47	52205.65
673.61	52449.06
673.75	51966.91
673.89	51524.55
674.03	51702.43
674.17	51522.21
674.31	51524.55
674.45	51306.88
674.59	51566.68
674.73	51992.66
674.87	51690.73
675.01	51152.41
675.15	51264.75
675.29	51428.59
675.43	51072.83
675.56	50979.21
675.70	50941.76
675.84	51026.02
675.98	49485.95
676.12	50761.54
676.26	50602.38
676.40	50475.99
676.54	50391.73
676.68	50267.69
676.82	49691.91
676.96	50117.89
677.10	49530.42
677.23	49631.06
677.37	49361.90
677.51	49350.20
677.65	49172.31
677.79	48947.62
677.93	48552.07
678.07	49088.06
678.21	48664.42
678.34	48364.83
678.48	48713.57
678.62	48481.86
678.76	48664.42
678.90	47908.43
679.04	48240.78
679.18	48580.16
679.31	47723.52
679.45	47276.48
679.59	48266.53
679.73	47903.74
679.87	47243.71
680.00	47140.73
680.14	46887.95
680.28	47395.85
680.42	46787.31
680.56	46550.91
680.70	46326.22
680.83	46667.94
680.97	46225.58
681.11	46188.13
681.25	46089.83
681.39	46021.95
681.52	46195.15
681.66	45930.67
681.80	45457.88
681.94	45350.22
682.07	45256.60
682.21	45095.10
682.35	45221.49
682.49	45158.30
682.62	44849.35
682.76	45001.48
682.90	45162.98
683.04	44556.78
683.17	44371.88
683.31	44109.74
683.45	43732.91
683.59	43786.74
683.72	43817.17
683.86	43606.52
684.00	43878.02
684.13	44172.93
684.27	43564.39
684.41	43445.02
684.55	43538.65
684.68	43217.99
684.82	43145.44
684.96	42567.32
685.09	42721.80
685.23	42155.39
685.37	42150.71
685.50	41841.76
685.64	41706.01
685.78	41965.81
685.91	42382.42
686.05	41720.05
686.19	41277.69
686.32	41486.00
686.46	40533.40
686.60	40542.76
686.73	40704.26
686.87	40933.63
687.01	40755.75
687.14	40404.67
687.28	40275.94
687.42	40112.10
687.55	39789.11
687.69	39763.36
687.82	39421.64
687.96	39342.06
688.10	39564.42
688.23	39269.51
688.37	39201.63
688.50	38646.93
688.64	38728.84
688.78	38628.20
688.91	37940.08
689.05	38443.30
689.18	38333.29
689.32	37481.34
689.46	37209.84
689.59	37839.44
689.73	37296.44
689.86	37354.95
690.00	37116.22
690.13	37216.86
690.27	37422.83
690.41	37516.45
690.54	37048.34
690.68	36662.15
690.81	36524.06
690.95	36423.42
691.08	35915.52
691.22	35749.34
691.35	36086.38
691.49	35756.36
691.62	35543.38
691.76	35503.59
691.89	35365.49
692.03	35236.77
692.16	34717.17
692.30	34684.40
692.43	34611.84
692.57	34740.57
692.70	34405.88
692.84	34237.36
692.97	34059.48
693.11	34340.34
693.24	34115.65
693.38	33666.27
693.51	33673.29
693.65	33383.06
693.78	33120.92
693.92	32802.61
694.05	33329.23
694.19	32980.49
694.32	32739.41
694.45	32687.92
694.59	32634.09
694.72	32381.31
694.86	32084.06
694.99	32182.37
695.13	31819.58
695.26	31447.44
695.39	31805.54
695.53	31672.13
695.66	31812.56
695.80	31344.45
695.93	30881.03
696.07	30209.29
696.20	30459.73
696.33	30712.51
696.47	30565.06
696.60	30316.96
696.73	30326.32
696.87	29771.61
697.00	30040.78
697.14	30141.42
697.27	29500.11
697.40	29958.86
697.54	29465.00
697.67	29282.44
697.80	29212.23
697.94	28898.59
698.07	28638.80
698.21	28353.25
698.34	28966.47
698.47	28816.68
698.61	28105.15
698.74	28226.86
698.87	28210.48
699.01	27697.90
699.14	27978.76
699.27	27992.81
699.40	27880.46
699.54	27744.71
699.67	27543.42
699.80	27161.92
699.94	26930.20
700.07	27145.53
700.20	27070.64
700.34	26590.83
700.47	26094.63
700.60	26103.99
700.73	26148.46
700.87	25944.84
701.00	25551.63
701.13	25785.68
701.26	25701.42
701.40	25933.14
701.53	25642.91
701.66	25607.80
701.79	25099.90
701.93	25069.48
702.06	25041.39
702.19	24812.02
702.32	24968.84
702.46	24929.05
702.59	24208.16
702.72	24285.40
702.85	23962.40
702.99	24325.19
703.12	23985.81
703.25	23747.08
703.38	23590.26
703.51	23536.43
703.65	23229.82
703.78	23117.47
703.91	22895.12
704.04	23192.37
704.17	23218.11
704.31	22764.05
704.44	22569.79
704.57	22724.26
704.70	22539.36
704.83	22281.90
704.96	22356.80
705.10	21825.50
705.23	22192.96
>>>>>End Processed Spectral Data<<<<<
