SpectraSuite Data File
++++++++++++++++++++++++++++++++++++
Date: Fri Oct 25 11:25:15 EDT 2013
User: price-jones
Dark Spectrum Present: No
Reference Spectrum Present: No
Number of Sampled Component Spectra: 1
Spectrometers: USB2+H05261
Integration Time (usec): 100000 (USB2+H05261)
Spectra Averaged: 1 (USB2+H05261)
Boxcar Smoothing: 0 (USB2+H05261)
Correct for Electrical Dark: No (USB2+H05261)
Strobe/Lamp Enabled: No (USB2+H05261)
Correct for Detector Non-linearity: No (USB2+H05261)
Correct for Stray Light: No (USB2+H05261)
Number of Pixels in Processed Spectrum: 2048
>>>>>Begin Processed Spectral Data<<<<<
365.73	297.25
365.92	297.25
366.12	297.25
366.32	135.75
366.52	135.75
366.72	117.03
366.91	220.01
367.11	182.56
367.31	88.94
367.51	95.96
367.70	105.32
367.90	112.35
368.10	175.54
368.30	203.63
368.49	100.64
368.69	156.82
368.89	170.86
369.09	170.86
369.28	154.48
369.48	145.11
369.68	156.82
369.87	222.35
370.07	212.99
370.27	308.95
370.47	313.63
370.66	573.43
370.86	629.60
371.06	624.92
371.25	734.93
371.45	655.35
371.65	557.05
371.84	617.90
372.04	660.03
372.24	718.54
372.44	699.82
372.63	784.08
372.83	744.29
373.03	730.25
373.22	748.97
373.42	741.95
373.62	791.10
373.81	763.01
374.01	748.97
374.21	763.01
374.40	812.17
374.60	791.10
374.79	877.70
374.99	814.51
375.19	940.90
375.38	784.08
375.58	840.25
375.78	786.42
375.97	875.36
376.17	837.91
376.37	870.68
376.56	868.34
376.76	898.77
376.95	896.43
377.15	952.60
377.35	947.92
377.54	889.40
377.74	851.96
377.93	901.11
378.13	842.59
378.33	866.00
378.52	887.06
378.72	943.24
378.91	933.87
379.11	894.08
379.31	896.43
379.50	924.51
379.70	882.38
379.89	1018.13
380.09	940.90
380.28	936.21
380.48	1004.09
380.68	1032.18
380.87	978.34
381.07	999.41
381.26	964.30
381.46	994.73
381.65	1015.79
381.85	973.66
382.04	1060.26
382.24	990.05
382.43	1050.90
382.63	1004.09
382.83	1095.37
383.02	1146.86
383.22	1128.14
383.41	1104.73
383.61	1107.07
383.80	1123.46
384.00	1046.22
384.19	1067.28
384.39	1109.41
384.58	1114.10
384.78	1123.46
384.97	1132.82
385.17	1062.60
385.36	1132.82
385.56	1170.27
385.75	1256.87
385.95	1132.82
386.14	1196.01
386.34	1198.35
386.53	1221.76
386.72	1214.74
386.92	1224.10
387.11	1252.19
387.31	1163.25
387.50	1252.19
387.70	1263.89
387.89	1315.38
388.09	1228.78
388.28	1238.14
388.48	1308.36
388.67	1306.02
388.86	1359.85
389.06	1275.59
389.25	1350.49
389.45	1352.83
389.64	1277.93
389.84	1387.94
390.03	1390.28
390.22	1401.98
390.42	1390.28
390.61	1317.72
390.81	1383.26
391.00	1469.86
391.19	1413.68
391.39	1345.81
391.58	1483.90
391.78	1514.33
391.97	1504.96
392.16	1458.15
392.36	1514.33
392.55	1507.30
392.75	1497.94
392.94	1516.67
393.13	1572.84
393.33	1511.99
393.52	1493.26
393.71	1554.12
393.91	1544.75
394.10	1614.97
394.29	1561.14
394.49	1577.52
394.68	1549.43
394.88	1652.42
395.07	1603.27
395.26	1720.29
395.46	1668.80
395.65	1617.31
395.84	1612.63
396.04	1713.27
396.23	1748.38
396.42	1680.50
396.62	1790.51
396.81	1708.59
397.00	1724.97
397.19	1863.07
397.39	1762.42
397.58	1849.02
397.77	1783.49
397.97	1809.23
398.16	1867.75
398.35	1996.48
398.55	1849.02
398.74	1846.68
398.93	1907.54
399.12	1940.30
399.32	1839.66
399.51	1921.58
399.70	1980.09
399.90	1902.86
400.09	1898.17
400.28	2078.40
400.47	1970.73
400.67	2083.08
400.86	2132.23
401.05	2024.56
401.24	2099.46
401.44	2083.08
401.63	2090.10
401.82	2150.95
402.01	2183.72
402.21	2052.65
402.40	2207.13
402.59	2214.15
402.78	2225.85
402.97	2284.36
403.17	2263.30
403.36	2087.76
403.55	2267.98
403.74	2324.15
403.93	2249.25
404.13	2319.47
404.32	2317.13
404.51	2368.62
404.70	2392.03
404.89	2342.88
405.09	2459.90
405.28	2438.84
405.47	2429.48
405.66	2375.64
405.85	2499.69
406.05	2532.46
406.24	2544.16
406.43	2532.46
406.62	2555.86
406.81	2724.38
407.00	2588.63
407.20	2537.14
407.39	2506.71
407.58	2700.98
407.77	2780.56
407.96	2712.68
408.15	2665.87
408.34	2731.41
408.54	2773.53
408.73	2778.22
408.92	2848.43
409.11	2794.60
409.30	2813.32
409.49	2911.63
409.68	2899.92
409.87	2902.26
410.07	2937.37
410.26	2902.26
410.45	2862.48
410.64	3068.44
410.83	3126.96
411.02	3012.27
411.21	3110.57
411.40	3094.19
411.59	3101.21
411.78	3038.02
411.98	3248.66
412.17	3272.07
412.36	3164.40
412.55	3300.16
412.74	3351.65
412.93	3426.54
413.12	3260.37
413.31	3485.06
413.50	3543.57
413.69	3332.92
413.88	3606.77
414.07	3541.23
414.26	3583.36
414.45	3681.66
414.64	3524.85
414.83	3669.96
415.02	3747.20
415.22	3648.90
415.41	3763.58
415.60	3761.24
415.79	3936.78
415.98	3899.33
416.17	3946.14
416.36	3943.80
416.55	4021.04
416.74	4009.34
416.93	3999.98
417.12	3889.97
417.31	4131.05
417.50	4205.94
417.69	4224.67
417.88	4297.22
418.07	4238.71
418.26	4348.72
418.45	4271.48
418.64	4451.70
418.83	4400.21
419.02	4346.37
419.21	4503.19
419.39	4430.63
419.58	4505.53
419.77	4367.44
419.96	4514.89
420.15	4627.24
420.34	4505.53
420.53	4557.02
420.72	4634.26
420.91	4564.04
421.10	4699.80
421.29	4699.80
421.48	4542.98
421.67	4760.65
421.86	4702.14
422.05	4758.31
422.24	4819.16
422.43	4760.65
422.61	4844.91
422.80	4863.63
422.99	4847.25
423.18	5004.07
423.37	5036.83
423.56	4894.06
423.75	4954.91
423.94	4744.27
424.13	4489.15
424.32	4709.16
424.50	4924.49
424.69	4971.30
424.88	5041.51
425.07	4961.94
425.26	4887.04
425.45	4973.64
425.64	4952.57
425.83	4877.68
426.01	4947.89
426.20	4922.15
426.39	5046.20
426.58	4945.55
426.77	5011.09
426.96	5095.35
427.15	4973.64
427.33	5097.69
427.52	5111.73
427.71	5277.91
427.90	5294.29
428.09	5305.99
428.28	5153.86
428.46	5327.06
428.65	5268.55
428.84	5369.19
429.03	5432.38
429.22	5252.16
429.40	5359.83
429.59	5437.06
429.78	5334.08
429.97	5219.39
430.16	5549.41
430.34	5542.39
430.53	5645.37
430.72	5572.82
430.91	5530.69
431.10	5451.11
431.28	5678.14
431.47	5778.78
431.66	5949.64
431.85	5888.79
432.03	5825.59
432.22	5928.58
432.41	5919.21
432.60	5989.43
432.79	5998.79
432.97	5973.05
433.16	6015.18
433.35	5809.21
433.54	6017.52
433.72	6249.23
433.91	6113.48
434.10	6111.14
434.28	6054.97
434.47	6094.76
434.66	6305.40
434.85	6361.58
435.03	6349.87
435.22	6136.88
435.41	6431.79
435.59	6249.23
435.78	6291.36
435.97	6452.86
436.16	6403.71
436.34	6485.62
436.53	6506.69
436.72	6635.42
436.90	6429.45
437.09	6581.59
437.28	6427.11
437.46	6623.72
437.65	6621.38
437.84	6717.34
438.02	6574.56
438.21	6696.27
438.40	6649.46
438.58	6771.17
438.77	7007.56
438.96	6895.22
439.14	7021.61
439.33	7112.89
439.52	7276.73
439.70	7222.89
439.89	7267.36
440.08	7442.90
440.26	7384.39
440.45	7283.75
440.63	7227.57
440.82	7468.65
441.01	7438.22
441.19	7428.86
441.38	7641.85
441.57	7541.21
441.75	7616.10
441.94	7894.63
442.12	8021.02
442.31	7939.10
442.50	8180.17
442.68	7878.24
442.87	7971.86
443.05	8149.75
443.24	8215.28
443.43	8051.44
443.61	8077.19
443.80	8196.56
443.98	7976.55
444.17	7793.98
444.35	8044.42
444.54	8404.86
444.73	8231.66
444.91	8257.41
445.10	8231.66
445.28	8318.26
445.47	8194.22
445.65	8180.17
445.84	8320.60
446.02	8374.44
446.21	8276.13
446.39	8341.67
446.58	8280.82
446.77	8538.27
446.95	8086.55
447.14	8491.46
447.32	8486.78
447.51	8454.02
447.69	8592.11
447.88	8451.67
448.06	8468.06
448.25	8400.18
448.43	8468.06
448.62	8589.77
448.80	8400.18
448.99	8503.17
449.17	8381.46
449.36	8650.62
449.54	8659.98
449.73	8755.94
449.91	8919.78
450.10	8842.54
450.28	8910.42
450.46	8894.04
450.65	9060.21
450.83	9146.81
451.02	8912.76
451.20	8947.87
451.39	8879.99
451.57	9121.07
451.76	9029.79
451.94	9090.64
452.13	9392.57
452.31	9085.96
452.49	9128.09
452.68	9348.10
452.86	9376.19
453.05	9144.47
453.23	9415.98
453.42	9261.50
453.60	9179.58
453.78	9359.80
453.97	9444.06
454.15	9507.26
454.34	9444.06
454.52	9645.35
454.70	9483.85
454.89	9678.12
455.07	9888.76
455.26	9743.65
455.44	9905.15
455.62	9582.15
455.81	10040.90
455.99	10129.84
456.17	10003.45
456.36	9813.87
456.54	9851.31
456.73	10328.78
456.91	10373.25
457.09	10513.69
457.28	10548.79
457.46	10181.33
457.64	10396.66
457.83	10572.20
458.01	10174.31
458.19	10590.92
458.38	10342.83
458.56	10476.24
458.74	10677.52
458.93	10588.58
459.11	10649.44
459.29	10677.52
459.48	10747.74
459.66	10759.44
459.84	10827.32
460.03	11229.89
460.21	10787.53
460.39	10942.00
460.57	10724.33
460.76	11056.69
460.94	11250.96
461.12	11129.25
461.31	11215.85
461.49	10878.81
461.67	11005.20
461.85	11412.45
462.04	11272.02
462.22	11838.43
462.40	11587.99
462.59	11318.83
462.77	11398.41
462.95	11618.42
463.13	11538.84
463.32	11421.81
463.50	11658.21
463.68	11698.00
463.86	11702.68
464.05	11470.97
464.23	11529.48
464.41	11829.07
464.59	11583.31
464.78	11955.46
464.96	12049.08
465.14	11761.19
465.32	11843.11
465.50	12135.68
465.69	11983.54
465.87	12114.61
466.05	11955.46
466.23	11925.03
466.41	12002.27
466.60	12528.89
466.78	12163.76
466.96	12079.50
467.14	12037.38
467.32	12243.34
467.51	12521.87
467.69	12105.25
467.87	12374.41
468.05	12458.67
468.23	12140.36
468.41	12250.36
468.60	12540.59
468.78	12578.04
468.96	12545.27
469.14	12681.02
469.32	12767.62
469.50	12685.70
469.69	12830.82
469.87	13027.42
470.05	12994.65
470.23	13130.41
470.41	13092.96
470.59	13205.30
470.77	12894.01
470.95	13146.79
471.14	13425.31
471.32	13083.59
471.50	13446.38
471.68	13441.70
471.86	13315.31
472.04	13722.56
472.22	13900.44
472.40	13273.18
472.58	13621.92
472.77	13984.70
472.95	13909.80
473.13	14485.58
473.31	14012.79
473.49	14136.84
473.67	14239.82
473.85	14246.84
474.03	14593.24
474.21	14427.06
474.39	14553.45
474.57	14520.68
474.75	14707.93
474.93	15124.54
475.12	14843.68
475.30	15169.01
475.48	15157.31
475.66	14902.19
475.84	15129.22
476.02	15267.31
476.20	15267.31
476.38	15651.16
476.56	15981.18
476.74	15939.05
476.92	15791.59
477.10	15606.69
477.28	16098.20
477.46	16322.90
477.64	16308.85
477.82	16320.56
478.00	16854.20
478.18	16594.40
478.36	16896.33
478.54	16943.14
478.72	17378.48
478.90	17322.30
479.08	17518.91
479.26	17701.47
479.44	17715.51
479.62	17736.58
479.80	17734.24
479.98	18001.06
480.16	18169.58
480.34	18279.58
480.52	18602.58
480.70	18223.41
480.88	18197.67
481.06	18434.06
481.24	18581.51
481.41	18801.52
481.59	19218.14
481.77	19335.17
481.95	18963.02
482.13	19632.41
482.31	19676.88
482.49	19990.52
482.67	19545.81
482.85	20346.28
483.03	20339.26
483.21	20737.15
483.39	20669.27
483.57	20919.71
483.74	21008.65
483.92	21275.47
484.10	20936.09
484.28	21624.21
484.46	21479.10
484.64	22309.99
484.82	21654.64
485.00	22307.65
485.18	22665.75
485.35	22752.35
485.53	22637.66
485.71	22654.05
485.89	23496.64
486.07	22602.55
486.25	23056.62
486.43	23573.88
486.61	23655.79
486.78	23838.36
486.96	23995.17
487.14	24428.17
487.32	24496.05
487.50	24709.04
487.68	24580.31
487.85	25104.59
488.03	25186.50
488.21	25455.67
488.39	25273.10
488.57	25926.11
488.75	25720.15
488.92	26375.50
489.10	26993.40
489.28	26625.93
489.46	26714.87
489.64	26733.60
489.81	27356.18
489.99	27424.06
490.17	27711.94
490.35	28154.30
490.53	28170.69
490.70	28247.93
490.88	27960.04
491.06	28510.07
491.24	28795.61
491.41	28751.14
491.59	29184.14
491.77	28922.00
491.95	29132.65
492.13	29696.72
492.30	29673.31
492.48	29790.34
492.66	30174.19
492.84	29909.71
493.01	30356.75
493.19	30450.37
493.37	30319.30
493.54	30682.08
493.72	31192.32
493.90	31271.90
494.08	31292.96
494.25	31812.56
494.43	31873.42
494.61	32144.92
494.79	32517.06
494.96	32275.99
495.14	32250.24
495.32	32542.81
495.49	33170.07
495.67	32929.00
495.85	32968.79
496.02	33593.71
496.20	33827.76
496.38	33750.52
496.55	33488.38
496.73	34581.42
496.91	33897.98
497.09	34642.27
497.26	34754.61
497.44	34330.98
497.62	34810.79
497.79	35276.55
497.97	35534.01
498.14	35618.27
498.32	36039.57
498.50	35669.76
498.67	36250.22
498.85	36116.81
499.03	36346.18
499.20	36655.13
499.38	36828.33
499.56	36650.45
499.73	36837.69
499.91	37373.67
500.08	37399.42
500.26	36760.45
500.44	37031.96
500.61	37525.81
500.79	37486.02
500.97	37783.27
501.14	38230.31
501.32	38368.40
501.49	37883.91
501.67	37919.02
501.84	38607.14
502.02	38548.62
502.20	39051.84
502.37	39021.41
502.55	39028.43
502.72	39285.89
502.90	39100.99
503.07	39501.22
503.25	39702.51
503.43	39524.63
503.60	39519.95
503.78	39538.67
503.95	39470.79
504.13	40198.70
504.30	40456.16
504.48	40184.66
504.65	40474.88
504.83	40381.26
505.01	40844.69
505.18	40439.78
505.36	41207.47
505.53	40933.63
505.71	41352.58
505.88	40889.16
506.06	41141.94
506.23	41432.16
506.41	41373.65
506.58	41680.26
506.76	41493.02
506.93	41720.05
507.11	41998.57
507.28	42403.49
507.46	42469.02
507.63	42525.19
507.81	42794.36
507.98	42600.09
508.16	42632.86
508.33	43353.74
508.50	42941.81
508.68	43306.93
508.85	43557.37
509.03	43510.56
509.20	43463.75
509.38	43913.13
509.55	44065.27
509.73	44147.18
509.90	43936.54
510.08	44175.27
510.25	44357.83
510.42	44444.43
510.60	44657.42
510.77	44893.82
510.95	44910.20
511.12	44767.43
511.30	45141.91
511.47	45329.16
511.64	45144.25
511.82	45425.12
511.99	45017.86
512.17	45638.11
512.34	45441.50
512.51	46115.58
512.69	45600.66
512.86	46122.60
513.04	45993.87
513.21	46480.70
513.38	46045.36
513.56	46775.61
513.73	46461.97
513.90	46827.10
514.08	46810.71
514.25	46766.24
514.43	47051.79
514.60	47004.98
514.77	47119.66
514.95	47491.81
515.12	47234.35
515.29	47166.48
515.47	47739.91
515.64	47969.28
515.81	47672.03
515.99	48002.05
516.16	48046.52
516.33	48215.04
516.51	48296.95
516.68	48200.99
516.85	48053.54
517.03	48280.57
517.20	48596.54
517.37	48470.15
517.54	48842.30
517.72	48591.86
517.89	48657.40
518.06	48753.36
518.24	49097.42
518.41	48804.85
518.58	48868.05
518.75	49031.88
518.93	48870.39
519.10	49015.50
519.27	49305.73
519.45	49610.00
519.62	49755.11
519.79	49521.05
519.96	49572.55
520.14	49827.66
520.31	49619.36
520.48	50365.99
520.65	49792.56
520.83	50171.72
521.00	50384.71
521.17	49839.37
521.34	50394.07
521.52	50866.86
521.69	50581.32
521.86	50770.90
522.03	50635.15
522.20	51079.85
522.38	50824.73
522.55	51384.12
522.72	51061.13
522.89	51002.61
523.07	51409.87
523.24	50857.50
523.41	51430.93
523.58	51126.66
523.75	51547.96
523.92	51714.14
524.10	51655.62
524.27	51929.47
524.44	51887.34
524.61	51791.37
524.78	51819.46
524.96	51538.60
525.13	51758.61
525.30	51999.68
525.47	52205.65
525.64	52205.65
525.81	52229.05
525.98	52552.05
526.16	52219.69
526.33	52222.03
526.50	52428.00
526.67	52404.59
526.84	52781.42
527.01	52629.29
527.18	52521.62
527.36	52767.38
527.53	52783.76
527.70	53289.32
527.87	53097.39
528.04	52793.12
528.21	53081.01
528.38	53031.86
528.55	53221.44
528.72	53226.12
528.89	53322.08
529.07	52853.98
529.24	53209.74
529.41	53371.24
529.58	53612.31
529.75	53647.42
529.92	53509.33
530.09	53357.19
530.26	53455.50
530.43	53757.42
530.60	53691.89
530.77	53572.52
530.94	53757.42
531.11	54101.48
531.28	53916.58
531.46	53944.67
531.63	54052.33
531.80	54145.95
531.97	53939.99
532.14	54319.15
532.31	54052.33
532.48	54300.43
532.65	54504.06
532.82	54220.85
532.99	54464.27
533.16	54237.23
533.33	54555.55
533.50	54595.34
533.67	54468.95
533.84	54564.91
534.01	54574.27
534.18	54733.43
534.35	55042.38
534.52	54681.94
534.69	55070.46
534.86	54913.65
535.03	55224.94
535.20	54848.11
535.37	54915.99
535.54	55269.41
535.71	54817.69
535.88	55119.62
536.05	55412.18
536.22	55327.92
536.38	55398.14
536.55	55180.47
536.72	55423.89
536.89	55391.12
537.06	55327.92
537.23	55374.73
537.40	55388.78
537.57	55634.53
537.74	55592.40
537.91	55585.38
538.08	55632.19
538.25	55767.94
538.42	55643.90
538.59	55908.38
538.75	55716.45
538.92	55819.44
539.09	55920.08
539.26	55927.10
539.43	55994.98
539.60	56032.42
539.77	56062.85
539.94	56037.11
540.11	56053.49
540.28	55920.08
540.44	56133.07
540.61	56299.25
540.78	56224.35
540.95	56079.24
541.12	56179.88
541.29	56102.64
541.46	56432.66
541.62	56540.32
541.79	56629.26
541.96	56130.73
542.13	56516.92
542.30	56615.22
542.47	56596.49
542.63	56734.59
542.80	56858.63
542.97	56678.41
543.14	56912.47
543.31	56886.72
543.48	56821.19
543.64	57169.93
543.81	57148.86
543.98	57200.35
544.15	57095.03
544.32	57251.84
544.48	57474.20
544.65	57111.41
544.82	57144.18
544.99	57073.96
545.16	57584.20
545.32	57230.78
545.49	57586.54
545.66	57359.51
545.83	57364.19
546.00	57425.04
546.16	57495.26
546.33	57406.32
546.50	57258.87
546.67	57654.42
546.83	57176.95
547.00	57733.99
547.17	57696.55
547.34	57448.45
547.50	57698.89
547.67	57839.32
547.84	57759.74
548.00	57834.64
548.17	58113.16
548.34	57963.37
548.51	57876.77
548.67	58031.24
548.84	58087.42
549.01	57698.89
549.18	57918.90
549.34	58218.49
549.51	58101.46
549.68	57909.53
549.84	58216.14
550.01	58148.27
550.18	58152.95
550.34	58230.19
550.51	58279.34
550.68	58071.03
550.84	58131.89
551.01	58358.92
551.18	58342.53
551.34	58232.53
551.51	58408.07
551.68	58550.84
551.84	58440.84
552.01	58010.18
552.18	58375.30
552.34	58487.65
552.51	58508.71
552.68	58436.16
552.84	58459.56
553.01	58951.07
553.18	58770.85
553.34	58770.85
553.51	58831.71
553.67	58649.14
553.84	58693.61
554.01	58941.71
554.17	58838.73
554.34	58892.56
554.51	58801.28
554.67	58721.70
554.84	58864.47
555.00	58993.20
555.17	58897.24
555.33	58925.33
555.50	58812.98
555.67	58710.00
555.83	58749.79
556.00	58876.18
556.16	59306.83
556.33	59103.21
556.50	59189.81
556.66	59234.28
556.83	58892.56
556.99	59082.14
557.16	59271.73
557.32	59365.35
557.49	59475.35
557.65	59215.55
557.82	59276.41
557.98	59245.98
558.15	59173.42
558.32	59182.79
558.48	59018.95
558.65	59217.89
558.81	59360.67
558.98	59519.82
559.14	59437.90
559.31	59379.39
559.47	59536.21
559.64	59442.59
559.80	59458.97
559.97	59594.72
560.13	59414.50
560.30	59503.44
560.46	59573.66
560.63	59657.91
560.79	59554.93
560.96	59365.35
561.12	59512.80
561.29	59524.50
561.45	59643.87
561.61	59753.88
561.78	59655.57
561.94	59512.80
562.11	59592.38
562.27	59547.91
562.44	59887.29
562.60	59716.43
562.77	60023.04
562.93	59451.95
563.10	59856.86
563.26	59767.92
563.42	59854.52
563.59	59896.65
563.75	59856.86
563.92	59863.88
564.08	59650.89
564.24	59910.69
564.41	59873.24
564.57	59833.46
564.74	60058.15
564.90	59800.69
565.07	59821.75
565.23	59866.22
565.39	59910.69
565.56	59852.18
565.72	60111.98
565.88	60137.72
566.05	59936.44
566.21	60053.47
566.38	60147.09
566.54	60327.31
566.70	60133.04
566.87	60427.95
567.03	60006.65
567.19	60051.12
567.36	60226.66
567.52	60121.34
567.68	60385.82
567.85	60126.02
568.01	60037.08
568.17	60009.00
568.34	60247.73
568.50	60135.38
568.66	60168.15
568.83	60303.90
568.99	60048.78
569.15	60409.23
569.32	60158.79
569.48	60224.32
569.64	60236.03
569.81	60233.69
569.97	60252.41
570.13	60282.84
570.30	60210.28
570.46	60390.50
570.62	60303.90
570.78	60221.98
570.95	60294.54
571.11	60243.05
571.27	60395.18
571.43	60385.82
571.60	60430.29
571.76	60425.61
571.92	60547.32
572.09	60360.08
572.25	60196.24
572.41	60388.16
572.57	60381.14
572.74	60610.51
572.90	60446.68
573.06	60362.42
573.22	60465.40
573.38	60289.86
573.55	60364.76
573.71	60659.66
573.87	60514.55
574.03	60313.26
574.20	60552.00
574.36	60385.82
574.52	60556.68
574.68	60425.61
574.84	60673.71
575.01	60608.17
575.17	60582.43
575.33	60463.06
575.49	60376.46
575.65	60580.09
575.82	60615.19
575.98	60701.79
576.14	60910.10
576.30	60624.56
576.46	60690.09
576.62	60542.64
576.79	60610.51
576.95	60329.65
577.11	60502.85
577.27	60750.94
577.43	60764.99
577.59	60589.45
577.75	60470.08
577.92	60530.93
578.08	60624.56
578.24	60671.37
578.40	60917.12
578.56	60818.82
578.72	60673.71
578.88	60884.36
579.04	60877.33
579.21	60647.96
579.37	60706.47
579.53	60889.04
579.69	60498.17
579.85	60725.20
580.01	60671.37
580.17	60706.47
580.33	60713.50
580.49	60678.39
580.65	60757.97
580.82	60774.35
580.98	60474.76
581.14	60444.33
581.30	60879.67
581.46	60750.94
581.62	60741.58
581.78	60530.93
581.94	60654.98
582.10	60638.60
582.26	60860.95
582.42	60814.14
582.58	60631.58
582.74	60507.53
582.90	61034.15
583.06	60680.73
583.22	60622.22
583.38	60779.03
583.54	60858.61
583.70	60673.71
583.86	60807.12
584.02	60774.35
584.18	60912.44
584.34	60804.78
584.50	60802.44
584.66	60694.77
584.82	60418.59
584.98	61006.06
585.14	60783.71
585.30	60739.24
585.46	60970.96
585.62	60807.12
585.78	60966.27
585.94	60601.15
586.10	60816.48
586.26	60914.78
586.42	60891.38
586.58	61034.15
586.74	60891.38
586.90	60896.06
587.06	60760.31
587.22	60886.70
587.38	60961.59
587.54	61059.90
587.70	61125.43
587.86	60844.57
588.02	60781.37
588.18	61148.84
588.34	60797.76
588.49	61022.45
588.65	60945.21
588.81	60753.29
588.97	60987.34
589.13	61029.47
589.29	60837.54
589.45	61130.11
589.61	61141.81
589.77	61179.26
589.93	61097.34
590.08	61104.37
590.24	61373.53
590.40	61293.95
590.56	61207.35
590.72	61261.18
590.88	60963.93
591.04	61109.05
591.20	61279.91
591.35	61153.52
591.51	61401.61
591.67	61361.82
591.83	61183.94
591.99	61092.66
592.15	61179.26
592.31	61380.55
592.46	61235.44
592.62	61113.73
592.78	61069.26
592.94	61151.18
593.10	61186.28
593.26	61247.14
593.41	61279.91
593.57	61286.93
593.73	61373.53
593.89	61497.58
594.05	61375.87
594.20	61258.84
594.36	61441.40
594.52	61319.70
594.68	61544.39
594.84	61153.52
594.99	61570.13
595.15	61125.43
595.31	61371.19
595.47	61380.55
595.62	61268.20
595.78	61446.08
595.94	61525.66
596.10	61581.84
596.25	61352.46
596.41	61364.17
596.57	61296.29
596.73	61415.66
596.88	61336.08
597.04	61305.65
597.20	61546.73
597.36	61336.08
597.51	61539.71
597.67	61247.14
597.83	61357.14
597.99	61654.39
598.14	61319.70
598.30	61436.72
598.46	61382.89
598.61	61619.28
598.77	61439.06
598.93	61420.34
599.09	61495.24
599.24	61783.12
599.40	61668.44
599.56	61647.37
599.71	61630.99
599.87	61471.83
600.03	61570.13
600.18	61488.21
600.34	61481.19
600.50	61715.25
600.65	61371.19
600.81	61455.45
600.97	61396.93
601.12	61544.39
601.28	61338.42
601.44	61460.13
601.59	61502.26
601.75	61560.77
601.91	61628.65
602.06	61640.35
602.22	61628.65
602.37	61499.92
602.53	61605.24
602.69	61626.31
602.84	61535.02
603.00	61443.74
603.16	61586.52
603.31	61804.19
603.47	61595.88
603.62	61586.52
603.78	61675.46
603.94	61410.98
604.09	61710.56
604.25	61490.55
604.40	61633.33
604.56	61605.24
604.71	61645.03
604.87	61591.20
605.03	61661.41
605.18	61539.71
605.34	61623.96
605.49	61460.13
605.65	61647.37
605.80	61815.89
605.96	61851.00
606.12	61588.86
606.27	61670.78
606.43	61499.92
606.58	61710.56
606.74	61516.30
606.89	61633.33
607.05	61645.03
607.20	61703.54
607.36	61516.30
607.51	61612.26
607.67	61399.27
607.82	61537.36
607.98	61336.08
608.13	61525.66
608.29	61649.71
608.44	61380.55
608.60	61228.41
608.75	61513.96
608.91	61415.66
609.06	61207.35
609.22	61427.36
609.37	61331.40
609.53	61506.94
609.68	61455.45
609.84	61305.65
609.99	61490.55
610.15	61607.58
610.30	61647.37
610.46	61422.68
610.61	61448.42
610.76	61453.11
610.92	61197.99
611.07	61347.78
611.23	61490.55
611.38	61413.32
611.54	61389.91
611.69	61570.13
611.84	61300.97
612.00	61457.79
612.15	61347.78
612.31	61422.68
612.46	61111.39
612.62	61385.23
612.77	61293.95
612.92	61602.90
613.08	61345.44
613.23	61205.01
613.39	61181.60
613.54	61123.09
613.69	61382.89
613.85	61090.32
614.00	61361.82
614.15	61340.76
614.31	61205.01
614.46	61263.52
614.62	61099.68
614.77	61233.10
614.92	61235.44
615.08	61254.16
615.23	61317.35
615.38	61221.39
615.54	61336.08
615.69	61197.99
615.84	61188.63
616.00	61024.79
616.15	61003.72
616.30	61179.26
616.46	61205.01
616.61	61085.64
616.76	61214.37
616.92	61027.13
617.07	60903.08
617.22	61003.72
617.37	61076.28
617.53	61228.41
617.68	61385.23
617.83	60928.83
617.99	61097.34
618.14	61158.20
618.29	61109.05
618.45	60851.59
618.60	60755.63
618.75	61099.68
618.90	60954.57
619.06	61087.98
619.21	61013.08
619.36	61305.65
619.51	60935.85
619.67	60776.69
619.82	60807.12
619.97	60865.63
620.12	61043.51
620.28	60664.35
620.43	60933.51
620.58	60842.23
620.73	60846.91
620.89	60828.18
621.04	61043.51
621.19	60905.42
621.34	60818.82
621.49	60760.31
621.65	60727.54
621.80	61059.90
621.95	60715.84
622.10	61006.06
622.25	60608.17
622.41	60647.96
622.56	60624.56
622.71	60711.16
622.86	60633.92
623.01	60626.90
623.16	60746.26
623.32	60678.39
623.47	60734.56
623.62	60575.40
623.77	60493.49
623.92	60734.56
624.07	60629.24
624.23	60530.93
624.38	60467.74
624.53	60336.67
624.68	60357.74
624.83	60568.38
624.98	60596.47
625.13	60456.04
625.29	60486.46
625.44	60477.10
625.59	60519.23
625.74	60336.67
625.89	60296.88
626.04	60102.62
626.19	60193.90
626.34	60633.92
626.49	60203.26
626.65	60427.95
626.80	60413.91
626.95	60217.30
627.10	60065.17
627.25	60172.83
627.40	60214.96
627.55	60317.95
627.70	60226.66
627.85	60111.98
628.00	60214.96
628.15	60467.74
628.30	59948.14
628.45	60238.37
628.60	60114.32
628.76	60130.70
628.91	60111.98
629.06	60069.85
629.21	60301.56
629.36	60207.94
629.51	59852.18
629.66	59950.48
629.81	60044.10
629.96	59791.33
630.11	59667.28
630.26	60032.40
630.41	60046.44
630.56	59840.48
630.71	60175.17
630.86	59798.35
631.01	59915.37
631.16	59838.14
631.31	59568.97
631.46	59650.89
631.61	59683.66
631.76	59873.24
631.91	59880.27
632.06	59936.44
632.21	59756.22
632.36	59559.61
632.51	59615.79
632.66	59709.41
632.81	59536.21
632.96	59791.33
633.10	59730.47
633.25	59711.75
633.40	59749.20
633.55	59671.96
633.70	59606.42
633.85	59611.10
634.00	59547.91
634.15	59524.50
634.30	59505.78
634.45	59580.68
634.60	59456.63
634.75	59662.60
634.90	59339.60
635.05	59444.93
635.19	59484.72
635.34	59430.88
635.49	59583.02
635.64	59405.14
635.79	59409.82
635.94	59578.34
636.09	59330.24
636.24	59391.09
636.39	59444.93
636.53	59543.23
636.68	59297.47
636.83	59503.44
636.98	59484.72
637.13	59253.00
637.28	59405.14
637.43	59348.96
637.57	59346.62
637.72	59138.32
637.87	59269.39
638.02	59327.90
638.17	59318.54
638.32	59175.76
638.46	59217.89
638.61	59283.43
638.76	59185.13
638.91	59157.04
639.06	59082.14
639.20	59089.16
639.35	58962.78
639.50	59016.61
639.65	58880.86
639.80	59016.61
639.94	58969.80
640.09	59192.15
640.24	58983.84
640.39	58784.90
640.54	58831.71
640.68	59004.91
640.83	58843.41
640.98	59058.74
641.13	58787.24
641.27	59224.92
641.42	58738.08
641.57	58848.09
641.72	58810.64
641.86	58688.93
642.01	58473.60
642.16	58763.83
642.31	58614.04
642.45	58752.13
642.60	58698.30
642.75	58845.75
642.90	58862.13
643.04	58686.59
643.19	58702.98
643.34	58808.30
643.48	58791.92
643.63	58707.66
643.78	58646.80
643.93	58485.31
644.07	58698.30
644.22	58480.63
644.37	58349.56
644.51	58480.63
644.66	58590.63
644.81	58637.44
644.95	58452.54
645.10	58529.78
645.25	58405.73
645.39	58555.52
645.54	58298.06
645.69	58361.26
645.83	58377.64
645.98	58379.98
646.13	58520.41
646.27	58279.34
646.42	58445.52
646.57	58398.71
646.71	58489.99
646.86	58372.96
647.00	58574.25
647.15	58291.04
647.30	58005.50
647.44	58401.05
647.59	58382.32
647.74	58141.25
647.88	58351.90
648.03	58578.93
648.17	58185.72
648.32	57918.90
648.47	58258.27
648.61	58213.80
648.76	58328.49
648.90	58169.33
649.05	58129.54
649.20	58129.54
649.34	58056.99
649.49	58066.35
649.63	58335.51
649.78	58553.18
649.92	58064.01
650.07	58120.18
650.21	58136.57
650.36	58218.49
650.51	57902.51
650.65	58185.72
650.80	58078.05
650.94	58026.56
651.09	57818.25
651.23	57586.54
651.38	57930.60
651.52	57755.06
651.67	57631.01
651.81	57778.46
651.96	57783.15
652.10	57862.72
652.25	57689.52
652.39	57872.09
652.54	57677.82
652.68	57539.73
652.83	57453.13
652.97	57535.05
653.12	57556.11
653.26	57733.99
653.41	57736.34
653.55	57556.11
653.70	57701.23
653.84	57652.08
653.99	57567.82
654.13	57563.14
654.27	57549.09
654.42	57448.45
654.56	57537.39
654.71	57436.75
654.85	57387.60
655.00	57574.84
655.14	57553.77
655.29	57525.69
655.43	57457.81
655.57	57577.18
655.72	57518.67
655.86	57333.76
656.01	57263.55
656.15	57233.12
656.30	57382.91
656.44	57488.24
656.58	57499.94
656.73	57572.50
656.87	57219.08
657.01	57179.29
657.16	57324.40
657.30	57251.84
657.45	56999.07
657.59	57036.51
657.73	56945.23
657.88	56989.70
658.02	57034.17
658.16	57155.88
658.31	57176.95
658.45	56814.16
658.60	56832.89
658.74	56875.02
658.88	56954.60
659.03	56940.55
659.17	56860.97
659.31	56804.80
659.46	56933.53
659.60	56690.12
659.74	56622.24
659.89	56610.54
660.03	56729.90
660.17	56657.35
660.32	56591.81
660.46	56669.05
660.60	56488.83
660.74	56664.37
660.89	56566.07
661.03	56580.11
661.17	56308.61
661.32	56212.65
661.46	56193.92
661.60	56610.54
661.74	56313.29
661.89	56210.31
662.03	56170.52
662.17	56397.55
662.31	56161.15
662.46	56430.32
662.60	56130.73
662.74	56030.08
662.88	56034.77
663.03	55496.44
663.17	56095.62
663.31	55777.31
663.45	55728.16
663.60	55599.43
663.74	55561.98
663.88	55517.51
664.02	55746.88
664.17	55779.65
664.31	55587.72
664.45	55374.73
664.59	55437.93
664.73	55669.64
664.88	55480.06
665.02	55227.28
665.16	55351.33
665.30	55440.27
665.44	55093.87
665.59	55018.97
665.73	55285.79
665.87	54948.76
666.01	55159.41
666.15	55105.57
666.29	55203.88
666.44	55112.59
666.58	54880.88
666.72	54695.98
666.86	54574.27
667.00	54719.38
667.14	54632.78
667.28	54466.61
667.43	54562.57
667.57	54726.41
667.71	54817.69
667.85	54164.68
667.99	54487.67
668.13	54450.22
668.27	54333.20
668.41	54363.62
668.56	53996.16
668.70	54024.25
668.84	53897.86
668.98	53724.66
669.12	54216.17
669.26	54169.36
669.40	54106.16
669.54	54122.55
669.68	54040.63
669.82	53813.60
669.96	53893.18
670.10	53989.14
670.25	53879.13
670.39	53776.15
670.53	53719.98
670.67	53691.89
670.81	53635.72
670.95	53712.95
671.09	53364.21
671.23	52811.85
671.37	53488.26
671.51	53462.52
671.65	53242.51
671.79	53158.25
671.93	53176.97
672.07	53382.94
672.21	53010.79
672.35	53034.20
672.49	52388.21
672.63	52582.48
672.77	52676.10
672.91	52601.20
673.05	52133.09
673.19	52144.80
673.33	51894.36
673.47	51828.82
673.61	52069.90
673.75	52285.23
673.89	51695.41
674.03	51929.47
674.17	51800.74
674.31	51466.04
674.45	51786.69
674.59	51653.28
674.73	51552.64
674.87	51662.64
675.01	51414.55
675.15	51161.77
675.29	51360.72
675.43	51447.32
675.56	51077.51
675.70	50972.19
675.84	50827.07
675.98	49731.70
676.12	50796.65
676.26	50564.93
676.40	50670.26
676.54	50679.62
676.68	50382.37
676.82	49757.45
676.96	50143.64
677.10	49778.51
677.23	49748.09
677.37	49577.23
677.51	49558.50
677.65	49628.72
677.79	48486.54
677.93	48732.29
678.07	48893.79
678.21	48800.17
678.34	48554.41
678.48	48659.74
678.62	48346.11
678.76	48343.77
678.90	47992.68
679.04	48406.96
679.18	48374.19
679.31	47639.26
679.45	47777.36
679.59	48116.73
679.73	47856.93
679.87	47676.71
680.00	47028.38
680.14	46546.23
680.28	47014.34
680.42	46686.67
680.56	46958.17
680.70	46796.67
680.83	46286.43
680.97	46436.23
681.11	46607.09
681.25	46443.25
681.39	45977.48
681.52	46291.12
681.66	46110.89
681.80	45708.32
681.94	45851.09
682.07	45198.09
682.21	45064.67
682.35	45397.03
682.49	45277.66
682.62	44949.99
682.76	45308.09
682.90	44746.36
683.04	44774.45
683.17	44535.71
683.31	44437.41
683.45	43952.92
683.59	44046.54
683.72	43704.82
683.86	43906.11
684.00	43758.66
684.13	43966.96
684.27	43945.90
684.41	43400.55
684.55	43185.22
684.68	43131.39
684.82	43126.71
684.96	42880.95
685.09	42880.95
685.23	42277.10
685.37	42349.65
685.50	42181.13
685.64	42635.20
685.78	41944.74
685.91	42139.00
686.05	41996.23
686.19	41078.74
686.32	41003.85
686.46	40968.74
686.60	40722.98
686.73	40568.51
686.87	40840.01
687.01	40926.61
687.14	40327.43
687.28	40282.96
687.42	40051.25
687.55	40226.79
687.69	39508.24
687.82	39674.42
687.96	39332.70
688.10	39475.48
688.23	39541.01
688.37	39388.88
688.50	38920.77
688.64	38763.95
688.78	38852.89
688.91	38153.07
689.05	38749.91
689.18	38225.63
689.32	37500.06
689.46	37376.01
689.59	37516.45
689.73	37652.20
689.86	37280.05
690.00	37099.83
690.13	37647.52
690.27	37163.03
690.41	37261.33
690.54	37062.38
690.68	36687.90
690.81	36432.78
690.95	36041.91
691.08	35887.43
691.22	35676.79
691.35	35974.03
691.49	36130.85
691.62	35864.03
691.76	35463.80
691.89	35421.67
692.03	34670.36
692.16	35304.64
692.30	35098.67
692.43	35328.05
692.57	34391.83
692.70	34270.12
692.84	34443.32
692.97	34171.82
693.11	34412.90
693.24	34237.36
693.38	33525.83
693.51	33790.31
693.65	33237.95
693.78	33041.34
693.92	33301.14
694.05	33134.96
694.19	33118.58
694.32	33071.77
694.45	32891.55
694.59	32650.47
694.72	32439.82
694.86	32247.90
694.99	31742.35
695.13	32187.05
695.26	31749.37
695.39	31225.09
695.53	31412.33
695.66	31335.09
695.80	31152.53
695.93	30932.52
696.07	30508.88
696.20	30602.50
696.33	30277.17
696.47	30675.06
696.60	30211.64
696.73	30075.88
696.87	30132.06
697.00	29776.30
697.14	30202.27
697.27	30113.33
697.40	29560.97
697.54	29158.39
697.67	29256.70
697.80	29240.31
697.94	29144.35
698.07	29032.00
698.21	28772.21
698.34	28591.98
698.47	28744.12
698.61	28175.37
698.74	28278.35
698.87	28423.47
699.01	27665.13
699.14	27817.27
699.27	27536.40
699.40	27861.74
699.54	28011.53
699.67	27515.34
699.80	27108.08
699.94	27084.68
700.07	27269.58
700.20	26548.70
700.34	26579.12
700.47	26111.02
700.60	26522.95
700.73	26529.97
700.87	25598.44
701.00	25984.63
701.13	25694.40
701.26	25656.95
701.40	25802.07
701.53	25598.44
701.66	25933.14
701.79	25359.70
701.93	24950.11
702.06	24907.98
702.19	24858.83
702.32	24765.21
702.46	24872.87
702.59	24313.48
702.72	23995.17
702.85	24584.99
702.99	24549.88
703.12	24121.56
703.25	23803.25
703.38	23388.97
703.51	23601.96
703.65	23384.29
703.78	23164.28
703.91	23103.43
704.04	23084.70
704.17	23342.16
704.31	22960.66
704.44	22541.70
704.57	22714.90
704.70	22410.63
704.83	22286.58
704.96	22047.85
705.10	22162.53
705.23	21907.41
>>>>>End Processed Spectral Data<<<<<
