SpectraSuite Data File
++++++++++++++++++++++++++++++++++++
Date: Fri Oct 25 11:24:09 EDT 2013
User: price-jones
Dark Spectrum Present: No
Reference Spectrum Present: No
Number of Sampled Component Spectra: 1
Spectrometers: USB2+H05261
Integration Time (usec): 100000 (USB2+H05261)
Spectra Averaged: 1 (USB2+H05261)
Boxcar Smoothing: 0 (USB2+H05261)
Correct for Electrical Dark: No (USB2+H05261)
Strobe/Lamp Enabled: No (USB2+H05261)
Correct for Detector Non-linearity: No (USB2+H05261)
Correct for Stray Light: No (USB2+H05261)
Number of Pixels in Processed Spectrum: 2048
>>>>>Begin Processed Spectral Data<<<<<
365.73	262.14
365.92	262.14
366.12	262.14
366.32	138.09
366.52	131.07
366.72	154.48
366.91	100.64
367.11	100.64
367.31	56.17
367.51	180.22
367.70	16.38
367.90	124.05
368.10	117.03
368.30	114.69
368.49	152.13
368.69	128.73
368.89	121.71
369.09	189.58
369.28	149.79
369.48	201.29
369.68	126.39
369.87	145.11
370.07	250.44
370.27	273.84
370.47	311.29
370.66	557.05
370.86	629.60
371.06	711.52
371.25	723.23
371.45	695.14
371.65	746.63
371.84	688.12
372.04	678.76
372.24	690.46
372.44	741.95
372.63	748.97
372.83	741.95
373.03	784.08
373.22	699.82
373.42	791.10
373.62	805.14
373.81	802.80
374.01	826.21
374.21	784.08
374.40	763.01
374.60	938.55
374.79	798.12
374.99	821.53
375.19	833.23
375.38	777.06
375.58	802.80
375.78	903.45
375.97	847.27
376.17	816.85
376.37	863.66
376.56	882.38
376.76	784.08
376.95	854.30
377.15	798.12
377.35	826.21
377.54	880.04
377.74	894.08
377.93	851.96
378.13	912.81
378.33	917.49
378.52	875.36
378.72	922.17
378.91	896.43
379.11	896.43
379.31	908.13
379.50	884.72
379.70	889.40
379.89	976.00
380.09	1004.09
380.28	954.94
380.48	997.07
380.68	976.00
380.87	1022.81
381.07	978.34
381.26	1064.94
381.46	1025.15
381.65	1020.47
381.85	1057.92
382.04	968.98
382.24	1104.73
382.43	1008.77
382.63	1046.22
382.83	1116.44
383.02	1153.88
383.22	1107.07
383.41	992.39
383.61	1053.24
383.80	1170.27
384.00	1104.73
384.19	1090.69
384.39	1158.57
384.58	1116.44
384.78	1083.67
384.97	1167.93
385.17	1135.16
385.36	1142.18
385.56	1149.20
385.75	1226.44
385.95	1181.97
386.14	1289.64
386.34	1226.44
386.53	1263.89
386.72	1177.29
386.92	1301.34
387.11	1167.93
387.31	1266.23
387.50	1233.46
387.70	1217.08
387.89	1291.98
388.09	1247.51
388.28	1266.23
388.48	1284.95
388.67	1341.13
388.86	1289.64
389.06	1231.12
389.25	1376.24
389.45	1385.60
389.64	1310.70
389.84	1406.66
390.03	1371.55
390.22	1348.15
390.42	1401.98
390.61	1348.15
390.81	1299.00
391.00	1409.00
391.19	1401.98
391.39	1439.43
391.58	1490.92
391.78	1467.52
391.97	1528.37
392.16	1502.62
392.36	1488.58
392.55	1472.20
392.75	1582.20
392.94	1563.48
393.13	1671.14
393.33	1586.88
393.52	1521.35
393.71	1528.37
393.91	1591.56
394.10	1645.40
394.29	1544.75
394.49	1636.03
394.68	1734.34
394.88	1626.67
395.07	1640.72
395.26	1647.74
395.46	1703.91
395.65	1750.72
395.84	1675.82
396.04	1785.83
396.23	1753.06
396.42	1753.06
396.62	1750.72
396.81	1858.39
397.00	1776.47
397.19	1839.66
397.39	1781.15
397.58	1809.23
397.77	1888.81
397.97	1886.47
398.16	1750.72
398.35	1940.30
398.55	1849.02
398.74	1863.07
398.93	1952.01
399.12	1980.09
399.32	1909.88
399.51	1963.71
399.70	2015.20
399.90	1842.00
400.09	2073.71
400.28	2111.16
400.47	2043.29
400.67	2118.18
400.86	2017.54
401.05	2043.29
401.24	2106.48
401.44	2083.08
401.63	2162.66
401.82	2115.84
402.01	2186.06
402.21	2062.01
402.40	2143.93
402.59	2183.72
402.78	2132.23
402.97	2225.85
403.17	2363.94
403.36	2282.02
403.55	2293.72
403.74	2356.92
403.93	2342.88
404.13	2340.54
404.32	2478.63
404.51	2328.83
404.70	2415.43
404.89	2392.03
405.09	2466.92
405.28	2478.63
405.47	2480.97
405.66	2567.57
405.85	2516.08
406.05	2583.95
406.24	2551.18
406.43	2644.81
406.62	2626.08
406.81	2651.83
407.00	2626.08
407.20	2569.91
407.39	2623.74
407.58	2700.98
407.77	2722.04
407.96	2750.13
408.15	2724.38
408.34	2768.85
408.54	2789.92
408.73	2878.86
408.92	2792.26
409.11	2928.01
409.30	2876.52
409.49	2949.08
409.68	2916.31
409.87	3042.70
410.07	2977.16
410.26	2951.42
410.45	3005.25
410.64	3087.17
410.83	3087.17
411.02	3208.87
411.21	3204.19
411.40	3122.27
411.59	3265.05
411.78	3190.15
411.98	3187.81
412.17	3304.84
412.36	3335.26
412.55	3342.28
412.74	3389.10
412.93	3384.41
413.12	3529.53
413.31	3625.49
413.50	3461.65
413.69	3588.04
413.88	3616.13
414.07	3552.93
414.26	3648.90
414.45	3658.26
414.64	3761.24
414.83	3658.26
415.02	3709.75
415.22	3819.75
415.41	3810.39
415.60	3880.61
415.79	3878.27
415.98	3960.19
416.17	4023.38
416.36	3826.78
416.55	4032.74
416.74	4149.77
416.93	4138.07
417.12	4084.23
417.31	4353.40
417.50	4163.81
417.69	4252.75
417.88	4191.90
418.07	4341.69
418.26	4322.97
418.45	4337.01
418.64	4472.76
418.83	4449.36
419.02	4440.00
419.21	4507.87
419.39	4718.52
419.58	4617.88
419.77	4456.38
419.96	4559.36
420.15	4484.47
420.34	4461.06
420.53	4540.64
420.72	4741.93
420.91	4840.23
421.10	4812.14
421.29	4777.03
421.48	4744.27
421.67	4798.10
421.86	4812.14
422.05	4985.34
422.24	4746.61
422.43	4865.97
422.61	4903.42
422.80	5020.45
422.99	4992.36
423.18	5085.98
423.37	5081.30
423.56	5008.75
423.75	5006.41
423.94	4833.21
424.13	4599.15
424.32	4732.56
424.50	4896.40
424.69	5102.37
424.88	5069.60
425.07	4961.94
425.26	5064.92
425.45	4856.61
425.64	5034.49
425.83	4929.17
426.01	5025.13
426.20	5078.96
426.39	5015.77
426.58	5006.41
426.77	4936.19
426.96	5177.26
427.15	5156.20
427.33	5231.10
427.52	5270.89
427.71	5308.34
427.90	5153.86
428.09	5451.11
428.28	5362.17
428.46	5322.38
428.65	5221.74
428.84	5680.48
429.03	5600.90
429.22	5378.55
429.40	5486.22
429.59	5446.43
429.78	5240.46
429.97	5397.28
430.16	5511.96
430.34	5647.71
430.53	5804.53
430.72	5703.89
430.91	5671.12
431.10	5570.48
431.28	5685.16
431.47	5706.23
431.66	5802.19
431.85	5823.25
432.03	5837.30
432.22	5959.00
432.41	5806.87
432.60	5900.49
432.79	5977.73
432.97	6094.76
433.16	6064.33
433.35	6012.84
433.54	6183.70
433.72	6157.95
433.91	6104.12
434.10	6118.16
434.28	6169.65
434.47	6197.74
434.66	6324.13
434.85	6251.57
435.03	6260.93
435.22	6457.54
435.41	6612.01
435.59	6616.69
435.78	6478.60
435.97	6553.50
436.16	6457.54
436.34	6448.18
436.53	6450.52
436.72	6483.28
436.90	6541.80
437.09	6567.54
437.28	6413.07
437.46	6555.84
437.65	6583.93
437.84	6918.62
438.02	6651.80
438.21	6696.27
438.40	6796.92
438.58	7005.22
438.77	7052.03
438.96	7124.59
439.14	7150.34
439.33	7265.02
439.52	7213.53
439.70	7204.17
439.89	7368.01
440.08	7588.02
440.26	7578.65
440.45	7377.37
440.63	7398.43
440.82	7536.52
441.01	7503.76
441.19	7578.65
441.38	7777.60
441.57	7768.24
441.75	8060.80
441.94	7927.39
442.12	7791.64
442.31	7922.71
442.50	8006.97
442.68	7908.67
442.87	8039.74
443.05	8018.68
443.24	8393.16
443.43	8142.72
443.61	8163.79
443.80	8313.58
443.98	8039.74
444.17	7913.35
444.35	8276.13
444.54	8435.29
444.73	8418.91
444.91	8266.77
445.10	8531.25
445.28	8229.32
445.47	8308.90
445.65	8538.27
445.84	8365.07
446.02	8446.99
446.21	8280.82
446.39	8353.37
446.58	8519.55
446.77	8533.59
446.95	8236.35
447.14	8428.27
447.32	8456.36
447.51	8383.80
447.69	8566.36
447.88	8407.20
448.06	8622.53
448.25	8667.00
448.43	8599.13
448.62	8615.51
448.80	8711.47
448.99	8917.44
449.17	8631.90
449.36	8535.93
449.54	8795.73
449.73	9043.83
449.91	9074.26
450.10	9027.45
450.28	9144.47
450.46	9039.15
450.65	9064.89
450.83	9235.75
451.02	9076.60
451.20	9050.85
451.39	9226.39
451.57	9156.18
451.76	9018.08
451.94	9308.31
452.13	9497.89
452.31	9305.97
452.49	9287.25
452.68	9544.70
452.86	9493.21
453.05	9350.44
453.23	9722.59
453.42	9495.55
453.60	9430.02
453.78	9518.96
453.97	9605.56
454.15	9554.07
454.34	9490.87
454.52	9834.93
454.70	9703.86
454.89	9668.75
455.07	9706.20
455.26	9942.60
455.44	9994.09
455.62	9984.73
455.81	9818.55
455.99	10143.88
456.17	10148.56
456.36	10230.48
456.54	10043.24
456.73	10328.78
456.91	10520.71
457.09	10413.04
457.28	10658.80
457.46	10427.09
457.64	10567.52
457.83	10511.35
458.01	10509.01
458.19	10846.04
458.38	10532.41
458.56	10750.08
458.74	10860.09
458.93	10817.96
459.11	10836.68
459.29	10878.81
459.48	10949.03
459.66	10764.12
459.84	10721.99
460.03	11126.91
460.21	11208.83
460.39	11049.67
460.57	11185.42
460.76	10862.43
460.94	11215.85
461.12	11269.68
461.31	11054.35
461.49	11115.20
461.67	11080.10
461.85	11559.91
462.04	11613.74
462.22	11864.18
462.40	11492.03
462.59	11466.28
462.77	11562.25
462.95	11742.47
463.13	11573.95
463.32	11562.25
463.50	12072.48
463.68	11861.84
463.86	11782.26
464.05	11480.33
464.23	11749.49
464.41	12081.85
464.59	11674.59
464.78	12201.21
464.96	12002.27
465.14	11901.62
465.32	12140.36
465.50	12156.74
465.69	12226.96
465.87	12273.77
466.05	12243.34
466.23	12287.81
466.41	12383.77
466.60	12786.35
466.78	12451.65
466.96	12318.24
467.14	12458.67
467.32	12285.47
467.51	12723.15
467.69	12201.21
467.87	12437.61
468.05	12571.02
468.23	12456.33
468.41	12299.52
468.60	12517.18
468.78	12894.01
468.96	12479.74
469.14	12936.14
469.32	13205.30
469.50	12681.02
469.69	13104.66
469.87	13083.59
470.05	13261.48
470.23	13207.64
470.41	13238.07
470.59	13451.06
470.77	13282.54
470.95	13296.58
471.14	13654.69
471.32	13263.82
471.50	13570.43
471.68	13631.28
471.86	13731.92
472.04	13848.95
472.22	13987.04
472.40	13724.90
472.58	13816.18
472.77	13895.76
472.95	14270.25
473.13	14651.75
473.31	13942.57
473.49	14071.30
473.67	14005.77
473.85	14452.81
474.03	14537.07
474.21	14808.57
474.39	14904.53
474.57	14698.56
474.75	14768.78
474.93	15161.99
475.12	14883.47
475.30	15042.62
475.48	15030.92
475.66	15012.20
475.84	15286.04
476.02	15597.33
476.20	15459.24
476.38	15578.61
476.56	15999.90
476.74	16016.29
476.92	15901.60
477.10	16100.55
477.28	16163.74
477.46	16161.40
477.64	16472.69
477.82	16510.14
478.00	17336.35
478.18	16893.99
478.36	16858.88
478.54	17303.58
478.72	17114.00
478.90	17474.44
479.08	17331.67
479.26	17727.22
479.44	17577.42
479.62	17930.84
479.80	18162.56
479.98	18300.65
480.16	18609.60
480.34	18288.95
480.52	18551.09
480.70	18604.92
480.88	18597.90
481.06	18822.59
481.24	18773.44
481.41	19374.95
481.59	19676.88
481.77	19660.50
481.95	19625.39
482.13	19683.91
482.31	19915.62
482.49	20421.17
482.67	20339.26
482.85	20524.16
483.03	20624.80
483.21	20924.39
483.39	20863.54
483.57	20739.49
483.74	21240.36
483.92	21598.46
484.10	21535.27
484.28	21881.67
484.46	22162.53
484.64	22459.78
484.82	22073.59
485.00	22251.47
485.18	23126.83
485.35	22977.04
485.53	22827.24
485.71	23218.11
485.89	23592.60
486.07	23491.96
486.25	23578.56
486.43	23700.26
486.61	23913.25
486.78	24079.43
486.96	24409.45
487.14	24769.89
487.32	24620.10
487.50	25109.27
487.68	25167.78
487.85	25340.98
488.03	25617.16
488.21	25942.50
488.39	25799.73
488.57	26185.91
488.75	26181.23
488.92	26251.45
489.10	26838.92
489.28	26806.16
489.46	27608.96
489.64	27412.35
489.81	28081.75
489.99	27573.85
490.17	27988.13
490.35	28112.17
490.53	28486.66
490.70	28521.77
490.88	28435.17
491.06	29024.98
491.24	29046.05
491.41	29301.17
491.59	29207.55
491.77	29481.39
491.95	29713.10
492.13	30199.93
492.30	30195.25
492.48	30560.37
492.66	30249.08
492.84	30731.23
493.01	30822.51
493.19	30628.25
493.37	30855.28
493.54	31325.73
493.72	31618.30
493.90	31835.97
494.08	31634.68
494.25	32395.35
494.43	32196.41
494.61	32795.59
494.79	32879.85
494.96	32591.96
495.14	32966.45
495.32	33268.37
495.49	33352.63
495.67	33546.90
495.85	33663.93
496.02	33933.09
496.20	34316.93
496.38	34235.02
496.55	34185.86
496.73	34955.90
496.91	34419.92
497.09	34862.28
497.26	35281.24
497.44	34899.73
497.62	35311.66
497.79	35952.97
497.97	35461.46
498.14	36339.16
498.32	36374.27
498.50	36158.94
498.67	36753.43
498.85	36573.21
499.03	36577.89
499.20	36790.88
499.38	37258.99
499.56	36982.80
499.73	37443.89
499.91	37806.67
500.08	38195.20
500.26	37376.01
500.44	37893.27
500.61	38068.81
500.79	37827.74
500.97	38646.93
501.14	38773.31
501.32	38618.84
501.49	38728.84
501.67	38785.02
501.84	39318.66
502.02	38937.15
502.20	39058.86
502.37	39271.85
502.55	39571.44
502.72	39435.69
502.90	39763.36
503.07	39899.11
503.25	40086.36
503.43	39913.16
503.60	40128.48
503.78	40383.60
503.95	40259.55
504.13	40629.36
504.30	40502.97
504.48	40912.56
504.65	40329.77
504.83	41476.63
505.01	41598.34
505.18	41254.28
505.36	41832.39
505.53	41560.89
505.71	41921.34
505.88	42192.84
506.06	41570.25
506.23	42085.17
506.41	41720.05
506.58	42251.35
506.76	42644.56
506.93	42995.64
507.11	42462.00
507.28	43028.41
507.46	42909.04
507.63	43044.79
507.81	43339.70
507.98	43068.20
508.16	43147.78
508.33	43686.10
508.50	43501.20
508.68	43428.64
508.85	44275.91
509.03	43784.40
509.20	44086.33
509.38	44294.64
509.55	44907.86
509.73	44516.99
509.90	44418.69
510.08	44746.36
510.25	44222.08
510.42	45083.40
510.60	45118.51
510.77	45350.22
510.95	45867.48
511.12	44912.54
511.30	45614.70
511.47	45579.59
511.64	46206.86
511.82	46181.11
511.99	46143.66
512.17	46213.88
512.34	46068.76
512.51	46293.46
512.69	46848.16
512.86	46602.41
513.04	46803.69
513.21	46782.63
513.38	47112.64
513.56	47166.48
513.73	47002.64
513.90	46979.23
514.08	47360.74
514.25	47622.88
514.43	47522.24
514.60	47468.40
514.77	47398.19
514.95	48069.92
515.12	47487.13
515.29	47980.98
515.47	47992.68
515.64	48587.18
515.81	48205.67
515.99	48493.56
516.16	48652.72
516.33	48582.50
516.51	48828.26
516.68	48615.27
516.85	48505.26
517.03	49029.54
517.20	48959.33
517.37	48954.64
517.54	49139.55
517.72	49357.22
517.89	49563.18
518.06	49712.98
518.24	49090.40
518.41	49083.37
518.58	49448.50
518.75	49530.42
518.93	49626.38
519.10	49441.48
519.27	49757.45
519.45	49783.19
519.62	50007.89
519.79	50628.13
519.96	50155.34
520.14	50380.03
520.31	50380.03
520.48	50745.15
520.65	50405.78
520.83	50768.56
521.00	51147.73
521.17	50534.51
521.34	50649.19
521.52	51426.25
521.69	51124.32
521.86	51311.56
522.03	51831.16
522.20	51505.83
522.38	51772.65
522.55	51477.74
522.72	51487.10
522.89	51641.58
523.07	51746.90
523.24	51695.41
523.41	52133.09
523.58	51444.98
523.75	52130.75
523.92	51969.26
524.10	52013.73
524.27	52369.49
524.44	52193.95
524.61	52161.18
524.78	52329.70
524.96	52559.07
525.13	52535.66
525.30	52739.29
525.47	52800.15
525.64	52530.98
525.81	52664.39
525.98	52905.47
526.16	52612.90
526.33	52877.38
526.50	53083.35
526.67	52886.74
526.84	53165.27
527.01	52921.85
527.18	52928.87
527.36	53221.44
527.53	53020.16
527.70	53705.93
527.87	53235.48
528.04	53411.02
528.21	53450.81
528.38	53434.43
528.55	53521.03
528.72	53429.75
528.89	53822.96
529.07	53631.04
529.24	53567.84
529.41	53708.27
529.58	53822.96
529.75	53879.13
529.92	53841.68
530.09	54099.14
530.26	54042.97
530.43	54211.49
530.60	54246.60
530.77	54237.23
530.94	54307.45
531.11	54101.48
531.28	54482.99
531.46	54202.13
531.63	54316.81
531.80	54244.26
531.97	54817.69
532.14	54658.53
532.31	54777.90
532.48	54813.01
532.65	54693.64
532.82	54721.72
532.99	54487.67
533.16	54887.90
533.33	54965.14
533.50	55103.23
533.67	55023.65
533.84	54885.56
534.01	54904.29
534.18	55152.38
534.35	55643.90
534.52	55145.36
534.69	55229.62
534.86	55519.85
535.03	55529.21
535.20	55220.26
535.37	55353.67
535.54	55779.65
535.71	55157.06
535.88	55388.78
536.05	55796.03
536.22	55835.82
536.38	55887.31
536.55	55622.83
536.72	55697.73
536.89	55693.05
537.06	55789.01
537.23	55962.21
537.40	55828.80
537.57	55632.19
537.74	56053.49
537.91	56133.07
538.08	56123.71
538.25	55814.76
538.42	56165.84
538.59	56186.90
538.75	55992.64
538.92	56226.69
539.09	56294.56
539.26	56285.20
539.43	56133.07
539.60	56753.31
539.77	56355.42
539.94	56563.73
540.11	56350.74
540.28	56481.81
540.44	56568.41
540.61	56566.07
540.78	56507.55
540.95	56294.56
541.12	56397.55
541.29	56739.27
541.46	56617.56
541.62	56680.75
541.79	56917.15
541.96	56409.25
542.13	56844.59
542.30	56704.16
542.47	56823.53
542.63	57048.22
542.80	56987.36
542.97	56942.89
543.14	57209.71
543.31	57102.05
543.48	57258.87
543.64	57694.21
543.81	57382.91
543.98	57478.88
544.15	57420.36
544.32	57336.10
544.48	57556.11
544.65	57584.20
544.82	57478.88
544.99	57511.64
545.16	57380.57
545.32	57464.83
545.49	57822.93
545.66	57904.85
545.83	57785.49
546.00	57977.41
546.16	57649.74
546.33	57591.22
546.50	57518.67
546.67	58059.33
546.83	57640.37
547.00	57975.07
547.17	57766.76
547.34	58010.18
547.50	57811.23
547.67	58145.93
547.84	58092.10
548.00	58174.02
548.17	58480.63
548.34	58277.00
548.51	58237.21
548.67	58459.56
548.84	58190.40
549.01	57932.94
549.18	58171.67
549.34	58389.34
549.51	58550.84
549.68	58438.50
549.84	58394.03
550.01	58419.77
550.18	58277.00
550.34	58440.84
550.51	58571.91
550.68	58639.78
550.84	58136.57
551.01	58705.32
551.18	58536.80
551.34	58651.48
551.51	58693.61
551.68	58658.51
551.84	58548.50
552.01	58529.78
552.18	58724.04
552.34	58585.95
552.51	58930.01
552.68	58501.69
552.84	58731.06
553.01	58866.81
553.18	58848.09
553.34	59196.83
553.51	58890.22
553.67	59021.29
553.84	59194.49
554.01	59178.10
554.17	59117.25
554.34	59032.99
554.51	59103.21
554.67	59110.23
554.84	59000.22
555.00	59110.23
555.17	58974.48
555.33	59447.27
555.50	59089.16
555.67	59056.40
555.83	59086.82
556.00	59339.60
556.16	59227.26
556.33	59442.59
556.50	59297.47
556.66	59412.16
556.83	59311.52
556.99	59491.74
557.16	59632.17
557.32	59613.44
557.49	59791.33
557.65	59384.07
557.82	59381.73
557.98	59309.18
558.15	59470.67
558.32	59683.66
558.48	59475.35
558.65	59620.47
558.81	59704.73
558.98	59913.03
559.14	59620.47
559.31	59817.07
559.47	59798.35
559.64	59868.56
559.80	59800.69
559.97	59873.24
560.13	59646.21
560.30	59978.57
560.46	59770.26
560.63	59992.61
560.79	60060.49
560.96	60032.40
561.12	60048.78
561.29	59842.82
561.45	60006.65
561.61	60072.19
561.78	59753.88
561.94	59943.46
562.11	59887.29
562.27	60025.38
562.44	60013.68
562.60	60161.13
562.77	60214.96
562.93	59882.61
563.10	59934.10
563.26	60102.62
563.42	60310.92
563.59	60095.60
563.75	60013.68
563.92	60172.83
564.08	60058.15
564.24	60296.88
564.41	60287.52
564.57	60163.47
564.74	60364.76
564.90	60229.01
565.07	60292.20
565.23	60025.38
565.39	60193.90
565.56	60142.41
565.72	60189.22
565.88	60217.30
566.05	60266.45
566.21	60327.31
566.38	60327.31
566.54	60383.48
566.70	60390.50
566.87	60385.82
567.03	60261.77
567.19	60530.93
567.36	60521.57
567.52	60470.08
567.68	60708.82
567.85	60460.72
568.01	60500.51
568.17	60397.52
568.34	60589.45
568.50	60617.53
568.66	60427.95
568.83	60479.44
568.99	60598.81
569.15	60535.62
569.32	60437.31
569.48	60673.71
569.64	60764.99
569.81	60493.49
569.97	60535.62
570.13	60528.59
570.30	60505.19
570.46	60498.17
570.62	60472.42
570.78	60598.81
570.95	60669.03
571.11	60734.56
571.27	60498.17
571.43	60446.68
571.60	60779.03
571.76	60755.63
571.92	60530.93
572.09	60800.10
572.25	60793.07
572.41	60905.42
572.57	60849.25
572.74	60720.52
572.90	60671.37
573.06	60673.71
573.22	60727.54
573.38	60790.73
573.55	60783.71
573.71	61024.79
573.87	60643.28
574.03	60423.27
574.20	60846.91
574.36	60825.84
574.52	60750.94
574.68	60708.82
574.84	60919.46
575.01	60985.00
575.17	60687.75
575.33	60683.07
575.49	60938.19
575.65	60921.80
575.82	61071.60
575.98	60816.48
576.14	61048.19
576.30	60825.84
576.46	60853.93
576.62	60949.89
576.79	60718.18
576.95	60786.05
577.11	60830.52
577.27	60896.06
577.43	60755.63
577.59	60753.29
577.75	60676.05
577.92	60933.51
578.08	60935.85
578.24	60938.19
578.40	61139.47
578.56	61069.26
578.72	60882.02
578.88	61183.94
579.04	61176.92
579.21	61113.73
579.37	60954.57
579.53	60921.80
579.69	60715.84
579.85	60870.31
580.01	61038.83
580.17	60900.74
580.33	60982.66
580.49	61001.38
580.65	61020.11
580.82	61062.24
580.98	61008.40
581.14	60956.91
581.30	61059.90
581.46	61071.60
581.62	61197.99
581.78	60804.78
581.94	61050.53
582.10	61015.43
582.26	61209.69
582.42	60811.80
582.58	61078.62
582.74	60938.19
582.90	61113.73
583.06	61102.03
583.22	61017.77
583.38	60987.34
583.54	61080.96
583.70	61055.21
583.86	61109.05
584.02	61069.26
584.18	61214.37
584.34	61375.87
584.50	61069.26
584.66	61041.17
584.82	60851.59
584.98	61347.78
585.14	61132.45
585.30	60994.36
585.46	61127.77
585.62	61102.03
585.78	61123.09
585.94	61155.86
586.10	61127.77
586.26	61050.53
586.42	61216.71
586.58	61272.88
586.74	61303.31
586.90	60970.96
587.06	61069.26
587.22	61179.26
587.38	61162.88
587.54	61223.73
587.70	61429.70
587.86	61394.59
588.02	61326.72
588.18	61228.41
588.34	61139.47
588.49	61090.32
588.65	61116.07
588.81	61183.94
588.97	61439.06
589.13	61228.41
589.29	61181.60
589.45	61366.51
589.61	61300.97
589.77	61436.72
589.93	61535.02
590.08	61354.80
590.24	61418.00
590.40	61621.62
590.56	61570.13
590.72	61485.87
590.88	61457.79
591.04	61600.56
591.20	61642.69
591.35	61432.04
591.51	61668.44
591.67	61546.73
591.83	61785.46
591.99	61387.57
592.15	61638.01
592.31	61598.22
592.46	61509.28
592.62	61591.20
592.78	61656.73
592.94	61396.93
593.10	61563.11
593.26	61600.56
593.41	61469.49
593.57	61546.73
593.73	61670.78
593.89	61813.55
594.05	61815.89
594.20	61633.33
594.36	61785.46
594.52	61612.26
594.68	61553.75
594.84	61499.92
594.99	61635.67
595.15	61609.92
595.31	61586.52
595.47	61387.57
595.62	61572.47
595.78	61630.99
595.94	61724.61
596.10	61848.66
596.25	61743.33
596.41	61691.84
596.57	61560.77
596.73	61652.05
596.88	61780.78
597.04	61771.42
597.20	61787.80
597.36	61712.91
597.51	61914.19
597.67	61593.54
597.83	61719.93
597.99	61691.84
598.14	61616.94
598.30	61698.86
598.46	61886.10
598.61	61848.66
598.77	61902.49
598.93	61783.12
599.09	61930.58
599.24	62129.52
599.40	61930.58
599.56	62052.28
599.71	61848.66
599.87	61932.92
600.03	61764.40
600.18	61911.85
600.34	61827.59
600.50	61722.27
600.65	61726.95
600.81	61953.98
600.97	61918.87
601.12	62110.80
601.28	61722.27
601.44	61722.27
601.59	61851.00
601.75	61806.53
601.91	62045.26
602.06	62038.24
602.22	62000.79
602.37	61897.81
602.53	62012.49
602.69	61977.39
602.84	61855.68
603.00	61925.89
603.16	61822.91
603.31	61998.45
603.47	61953.98
603.62	61619.28
603.78	61890.79
603.94	61731.63
604.09	61729.29
604.25	61963.34
604.40	61881.42
604.56	61806.53
604.71	61979.73
604.87	61836.95
605.03	61829.93
605.18	61932.92
605.34	61881.42
605.49	61680.14
605.65	61848.66
605.80	61776.10
605.96	62108.46
606.12	61836.95
606.27	61961.00
606.43	61670.78
606.58	61982.07
606.74	61797.16
606.89	61867.38
607.05	61829.93
607.20	62092.07
607.36	61712.91
607.51	61602.90
607.67	61612.26
607.82	61684.82
607.98	61748.01
608.13	61829.93
608.29	61638.01
608.44	61635.67
608.60	61825.25
608.75	61895.47
608.91	61703.54
609.06	61446.08
609.22	61865.04
609.37	61834.61
609.53	61715.25
609.68	61855.68
609.84	61813.55
609.99	61740.99
610.15	61740.99
610.30	61881.42
610.46	61666.09
610.61	61563.11
610.76	61708.22
610.92	61839.29
611.07	61703.54
611.23	61605.24
611.38	61680.14
611.54	61710.56
611.69	61670.78
611.84	61827.59
612.00	61586.52
612.15	61535.02
612.31	61766.74
612.46	61598.22
612.62	61602.90
612.77	61380.55
612.92	61719.93
613.08	61518.64
613.23	61759.72
613.39	61544.39
613.54	61553.75
613.69	61743.33
613.85	61525.66
614.00	61619.28
614.15	61649.71
614.31	61619.28
614.46	61708.22
614.62	61347.78
614.77	61630.99
614.92	61544.39
615.08	61525.66
615.23	61317.35
615.38	61492.89
615.54	61462.47
615.69	61556.09
615.84	61453.11
616.00	61558.43
616.15	61483.53
616.30	61495.24
616.46	61443.74
616.61	61326.72
616.76	61361.82
616.92	61237.78
617.07	61350.12
617.22	61303.31
617.37	61247.14
617.53	61549.07
617.68	61387.57
617.83	61333.74
617.99	61336.08
618.14	61591.20
618.29	61368.85
618.45	61111.39
618.60	61261.18
618.75	61022.45
618.90	61242.46
619.06	61439.06
619.21	61272.88
619.36	61539.71
619.51	61113.73
619.67	61109.05
619.82	61106.71
619.97	61392.25
620.12	61139.47
620.28	60942.87
620.43	61263.52
620.58	61080.96
620.73	60912.44
620.89	61455.45
621.04	61137.13
621.19	61134.79
621.34	61080.96
621.49	60959.25
621.65	60954.57
621.80	61209.69
621.95	60985.00
622.10	61212.03
622.25	61090.32
622.41	61043.51
622.56	60959.25
622.71	60954.57
622.86	60734.56
623.01	60917.12
623.16	60807.12
623.32	60886.70
623.47	61045.85
623.62	60788.39
623.77	60963.93
623.92	60949.89
624.07	60898.40
624.23	60872.65
624.38	60968.61
624.53	60823.50
624.68	60671.37
624.83	60697.11
624.98	60797.76
625.13	60755.63
625.29	60849.25
625.44	60846.91
625.59	60748.60
625.74	60697.11
625.89	60669.03
626.04	60685.41
626.19	60526.25
626.34	60678.39
626.49	60591.79
626.65	60254.75
626.80	60612.85
626.95	60348.37
627.10	60406.89
627.25	60587.11
627.40	60458.38
627.55	60397.52
627.70	60573.06
627.85	60402.21
628.00	60381.14
628.15	60350.71
628.30	60317.95
628.45	60413.91
628.60	60460.72
628.76	60275.82
628.91	60514.55
629.06	60413.91
629.21	60474.76
629.36	60406.89
629.51	60463.06
629.66	60184.54
629.81	60193.90
629.96	60030.06
630.11	60198.58
630.26	60357.74
630.41	60381.14
630.56	60025.38
630.71	60149.43
630.86	60322.63
631.01	60175.17
631.16	60130.70
631.31	60074.53
631.46	59908.35
631.61	60151.77
631.76	60168.15
631.91	60069.85
632.06	60322.63
632.21	60081.55
632.36	59983.25
632.51	59770.26
632.66	60095.60
632.81	59793.67
632.96	60006.65
633.10	60198.58
633.25	60055.81
633.40	59758.56
633.55	60142.41
633.70	59908.35
633.85	59824.09
634.00	59760.90
634.15	59676.64
634.30	59554.93
634.45	59969.21
634.60	60135.38
634.75	59796.01
634.90	59601.74
635.05	59693.02
635.19	59655.57
635.34	59891.97
635.49	59901.33
635.64	59880.27
635.79	59788.98
635.94	59723.45
636.09	59758.56
636.24	59482.37
636.39	59650.89
636.53	59772.60
636.68	59517.48
636.83	59746.86
636.98	59812.39
637.13	59351.30
637.28	59618.13
637.43	59693.02
637.57	59678.98
637.72	59400.46
637.87	59559.61
638.02	59592.38
638.17	59515.14
638.32	59423.86
638.46	59576.00
638.61	59641.53
638.76	59288.11
638.91	59360.67
639.06	59260.02
639.20	59248.32
639.35	59157.04
639.50	59393.43
639.65	59414.50
639.80	59503.44
639.94	59400.46
640.09	59157.04
640.24	59168.74
640.39	59093.85
640.54	59079.80
640.68	59402.80
640.83	59288.11
640.98	59248.32
641.13	59021.29
641.27	59449.61
641.42	59241.30
641.57	59337.26
641.72	59117.25
641.86	59278.75
642.01	58913.62
642.16	59274.07
642.31	59007.25
642.45	59168.74
642.60	59093.85
642.75	59255.34
642.90	59044.69
643.04	59112.57
643.19	58824.68
643.34	59269.39
643.48	59140.66
643.63	58911.28
643.78	58930.01
643.93	58944.05
644.07	59107.89
644.22	58930.01
644.37	58588.29
644.51	58784.90
644.66	58719.36
644.81	58810.64
644.95	58784.90
645.10	58796.60
645.25	58707.66
645.39	58616.38
645.54	58717.02
645.69	58585.95
645.83	58607.01
645.98	58609.35
646.13	58728.72
646.27	58841.07
646.42	58710.00
646.57	58679.57
646.71	58562.54
646.86	58850.43
647.00	58735.74
647.15	58480.63
647.30	58642.12
647.44	58450.20
647.59	58553.18
647.74	58438.50
647.88	58679.57
648.03	58422.11
648.17	58681.91
648.32	58637.44
648.47	58609.35
648.61	58461.90
648.76	58539.14
648.90	58377.64
649.05	58555.52
649.20	58482.97
649.34	58426.79
649.49	58394.03
649.63	58590.63
649.78	58604.67
649.92	58354.24
650.07	58621.06
650.21	58319.13
650.36	58227.85
650.51	58232.53
650.65	58735.74
650.80	58445.52
650.94	58220.83
651.09	57921.24
651.23	57963.37
651.38	58262.96
651.52	57998.48
651.67	58220.83
651.81	58052.31
651.96	58155.29
652.10	57865.06
652.25	57804.21
652.39	57942.30
652.54	57797.19
652.68	57928.26
652.83	57764.42
652.97	57982.09
653.12	57972.73
653.26	58010.18
653.41	57956.35
653.55	57839.32
653.70	57879.11
653.84	57921.24
653.99	57909.53
654.13	57771.44
654.27	57666.12
654.42	57680.16
654.56	57755.06
654.71	57799.53
654.85	57748.04
655.00	57829.96
655.14	57649.74
655.29	57453.13
655.43	57886.13
655.57	57631.01
655.72	57457.81
655.86	57851.02
656.01	57752.72
656.15	57567.82
656.30	57619.31
656.44	57993.79
656.58	57738.68
656.73	57682.50
656.87	57535.05
657.01	57614.63
657.16	57574.84
657.30	57425.04
657.45	57483.56
657.59	57521.01
657.73	57511.64
657.88	57343.12
658.02	57261.21
658.16	57298.65
658.31	57385.25
658.45	57469.51
658.60	57235.46
658.74	57301.00
658.88	57293.97
659.03	57141.84
659.17	57174.61
659.31	57027.15
659.46	57080.98
659.60	56980.34
659.74	57123.11
659.89	56982.68
660.03	56804.80
660.17	56973.32
660.32	56886.72
660.46	56755.65
660.60	56734.59
660.74	56851.61
660.89	56982.68
661.03	56811.82
661.17	56545.00
661.32	56542.66
661.46	56594.15
661.60	56575.43
661.74	56509.89
661.89	56601.18
662.03	56390.53
662.17	56467.76
662.31	56367.12
662.46	56657.35
662.60	56423.29
662.74	56287.54
662.88	56156.47
663.03	55709.43
663.17	56107.32
663.31	56210.31
663.45	56161.15
663.60	55978.59
663.74	55601.77
663.88	56100.30
664.02	55789.01
664.17	56093.28
664.31	55505.80
664.45	55873.27
664.59	55859.23
664.73	55625.17
664.88	55707.09
665.02	55327.92
665.16	55646.24
665.30	55671.98
665.44	55587.72
665.59	55449.63
665.73	55517.51
665.87	55339.63
666.01	55323.24
666.15	55515.17
666.29	55295.16
666.44	55508.14
666.58	54960.46
666.72	54925.35
666.86	55152.38
667.00	55047.06
667.14	54810.67
667.28	54859.82
667.43	54759.17
667.57	54616.40
667.71	54494.69
667.85	54831.73
667.99	54602.36
668.13	54609.38
668.27	54784.92
668.41	54623.42
668.56	54602.36
668.70	54164.68
668.84	54035.95
668.98	54330.86
669.12	54368.30
669.26	54569.59
669.40	54321.49
669.54	54600.02
669.68	54237.23
669.82	53839.34
669.96	54251.28
670.10	54211.49
670.25	54609.38
670.39	54115.53
670.53	53853.39
670.67	54005.52
670.81	54265.32
670.95	53794.87
671.09	53921.26
671.23	53932.96
671.37	53914.24
671.51	53408.68
671.65	53844.02
671.79	53207.40
671.93	53352.51
672.07	53359.53
672.21	53059.94
672.35	53127.82
672.49	52935.90
672.63	52638.65
672.77	53148.88
672.91	52907.81
673.05	52683.12
673.19	52697.16
673.33	52678.44
673.47	52718.23
673.61	52788.44
673.75	52416.30
673.89	52236.08
674.03	52191.61
674.17	52364.81
674.31	51730.52
674.45	51648.60
674.59	52065.22
674.73	52041.81
674.87	51763.29
675.01	51760.95
675.15	51686.05
675.29	51634.56
675.43	51599.45
675.56	51594.77
675.70	51395.82
675.84	51320.93
675.98	50124.91
676.12	51246.03
676.26	51349.01
676.40	51400.50
676.54	50787.28
676.68	50569.61
676.82	50223.22
676.96	50525.14
677.10	50279.39
677.23	50047.68
677.37	50035.97
677.51	49853.41
677.65	49553.82
677.79	49169.97
677.93	49457.86
678.07	49223.81
678.21	48975.71
678.34	49289.34
678.48	49111.46
678.62	48776.76
678.76	48406.96
678.90	48966.35
679.04	48786.13
679.18	48570.80
679.31	48252.48
679.45	48409.30
679.59	48215.04
679.73	48325.04
679.87	47948.21
680.00	47400.53
680.14	47419.25
680.28	47585.43
680.42	47473.09
680.56	47100.94
680.70	46883.27
680.83	47215.63
680.97	46927.74
681.11	47353.72
681.25	47037.75
681.39	46511.13
681.52	46621.13
681.66	46258.35
681.80	46286.43
681.94	46028.98
682.07	45862.80
682.21	45661.51
682.35	45413.41
682.49	45879.18
682.62	45296.39
682.76	45455.54
682.90	45490.65
683.04	45165.32
683.17	44626.99
683.31	44591.89
683.45	44952.33
683.59	44453.79
683.72	44449.11
683.86	44161.23
684.00	44376.56
684.13	44729.98
684.27	43807.81
684.41	44727.64
684.55	43583.12
684.68	43246.08
684.82	43854.62
684.96	42923.08
685.09	43236.72
685.23	42916.06
685.37	42506.47
685.50	42815.42
685.64	42632.86
685.78	42525.19
685.91	42525.19
686.05	42174.11
686.19	41453.23
686.32	41071.72
686.46	41364.29
686.60	41158.32
686.73	40973.42
686.87	41242.58
687.01	41408.76
687.14	40861.07
687.28	40573.19
687.42	40617.66
687.55	40261.90
687.69	40596.59
687.82	39751.66
687.96	39632.29
688.10	39583.14
688.23	39988.05
688.37	39346.75
688.50	38983.96
688.64	39349.09
688.78	39309.30
688.91	38387.13
689.05	38593.09
689.18	38820.13
689.32	38199.88
689.46	38038.39
689.59	37991.58
689.73	37694.33
689.86	37907.32
690.00	37242.60
690.13	37607.73
690.27	37603.05
690.41	37888.59
690.54	37589.00
690.68	36744.07
690.81	37109.19
690.95	36596.62
691.08	36636.41
691.22	36512.36
691.35	36275.96
691.49	36320.43
691.62	36381.29
691.76	36236.17
691.89	35601.89
692.03	35475.50
692.16	35552.74
692.30	35524.65
692.43	35374.86
692.57	34909.09
692.70	35185.27
692.84	34883.34
692.97	34906.75
693.11	34735.89
693.24	34429.28
693.38	34291.19
693.51	33514.13
693.65	33897.98
693.78	33600.73
693.92	33780.95
694.05	33287.10
694.19	33551.58
694.32	33556.26
694.45	32676.22
694.59	32992.19
694.72	32631.75
694.86	32381.31
694.99	32297.05
695.13	32339.18
695.26	32182.37
695.39	31566.81
695.53	32100.45
695.66	31913.20
695.80	31693.19
695.93	31545.74
696.07	30768.68
696.20	30780.39
696.33	30595.48
696.47	31042.53
696.60	31040.18
696.73	30787.41
696.87	30457.39
697.00	30712.51
697.14	30410.58
697.27	30244.40
697.40	30340.36
697.54	30073.54
697.67	29694.38
697.80	29837.15
697.94	29497.77
698.07	29020.30
698.21	29074.13
698.34	29610.12
698.47	29230.95
698.61	28552.20
698.74	28720.71
698.87	28893.91
699.01	28168.35
699.14	28430.49
699.27	28252.61
699.40	27983.44
699.54	28474.96
699.67	27388.95
699.80	27346.82
699.94	27618.32
700.07	27634.71
700.20	27082.34
700.34	26789.77
700.47	26712.53
700.60	27056.59
700.73	26096.97
700.87	26033.78
701.00	26061.87
701.13	25972.92
701.26	25862.92
701.40	25965.90
701.53	26012.71
701.66	25795.04
701.79	25338.64
701.93	25266.08
702.06	24912.66
702.19	24898.62
702.32	25125.65
702.46	24994.58
702.59	24601.37
702.72	24577.97
702.85	24566.26
702.99	24610.73
703.12	24177.73
703.25	24205.82
703.38	23953.04
703.51	23782.18
703.65	23721.33
703.78	23187.69
703.91	23257.90
704.04	23786.86
704.17	23667.50
704.31	23016.83
704.44	23147.90
704.57	23068.32
704.70	22834.27
704.83	22640.00
704.96	22771.07
705.10	22157.85
705.23	22295.94
>>>>>End Processed Spectral Data<<<<<
