SpectraSuite Data File
++++++++++++++++++++++++++++++++++++
Date: Fri Oct 25 11:23:02 EDT 2013
User: price-jones
Dark Spectrum Present: No
Reference Spectrum Present: No
Number of Sampled Component Spectra: 1
Spectrometers: USB2+H05261
Integration Time (usec): 100000 (USB2+H05261)
Spectra Averaged: 1 (USB2+H05261)
Boxcar Smoothing: 0 (USB2+H05261)
Correct for Electrical Dark: No (USB2+H05261)
Strobe/Lamp Enabled: No (USB2+H05261)
Correct for Detector Non-linearity: No (USB2+H05261)
Correct for Stray Light: No (USB2+H05261)
Number of Pixels in Processed Spectrum: 2048
>>>>>Begin Processed Spectral Data<<<<<
365.73	229.37
365.92	229.37
366.12	229.37
366.32	131.07
366.52	42.13
366.72	154.48
366.91	126.39
367.11	140.43
367.31	147.45
367.51	161.50
367.70	128.73
367.90	128.73
368.10	156.82
368.30	128.73
368.49	95.96
368.69	173.20
368.89	168.52
369.09	67.88
369.28	126.39
369.48	149.79
369.68	173.20
369.87	173.20
370.07	252.78
370.27	243.42
370.47	306.61
370.66	557.05
370.86	737.27
371.06	669.39
371.25	674.07
371.45	669.39
371.65	723.23
371.84	671.73
372.04	690.46
372.24	704.50
372.44	739.61
372.63	798.12
372.83	795.78
373.03	753.65
373.22	662.37
373.42	777.06
373.62	746.63
373.81	830.89
374.01	837.91
374.21	842.59
374.40	723.23
374.60	788.76
374.79	826.21
374.99	760.67
375.19	802.80
375.38	833.23
375.58	723.23
375.78	866.00
375.97	926.85
376.17	884.72
376.37	844.93
376.56	791.10
376.76	894.08
376.95	933.87
377.15	851.96
377.35	870.68
377.54	964.30
377.74	837.91
377.93	912.81
378.13	894.08
378.33	889.40
378.52	861.32
378.72	915.15
378.91	1004.09
379.11	840.25
379.31	1015.79
379.50	985.37
379.70	957.28
379.89	992.39
380.09	952.60
380.28	994.73
380.48	915.15
380.68	1011.11
380.87	919.83
381.07	976.00
381.26	1060.26
381.46	1025.15
381.65	1025.15
381.85	1083.67
382.04	1048.56
382.24	1025.15
382.43	1062.60
382.63	1050.90
382.83	1074.31
383.02	1088.35
383.22	1078.99
383.41	1015.79
383.61	1078.99
383.80	1095.37
384.00	1076.65
384.19	1095.37
384.39	1231.12
384.58	1156.22
384.78	1212.40
384.97	1097.71
385.17	1020.47
385.36	1172.61
385.56	1165.59
385.75	1132.82
385.95	1153.88
386.14	1160.91
386.34	1160.91
386.53	1184.31
386.72	1184.31
386.92	1310.70
387.11	1296.66
387.31	1210.06
387.50	1268.57
387.70	1263.89
387.89	1338.79
388.09	1313.04
388.28	1343.47
388.48	1245.16
388.67	1376.24
388.86	1259.21
389.06	1362.19
389.25	1345.81
389.45	1371.55
389.64	1320.06
389.84	1406.66
390.03	1385.60
390.22	1444.11
390.42	1355.17
390.61	1259.21
390.81	1413.68
391.00	1528.37
391.19	1394.96
391.39	1474.54
391.58	1404.32
391.78	1401.98
391.97	1448.79
392.16	1540.07
392.36	1490.92
392.55	1551.78
392.75	1591.56
392.94	1469.86
393.13	1572.84
393.33	1486.24
393.52	1598.59
393.71	1589.22
393.91	1631.35
394.10	1551.78
394.29	1626.67
394.49	1636.03
394.68	1675.82
394.88	1661.78
395.07	1654.76
395.26	1682.85
395.46	1727.32
395.65	1811.57
395.84	1692.21
396.04	1909.88
396.23	1774.13
396.42	1706.25
396.62	1879.45
396.81	1757.74
397.00	1755.40
397.19	1638.38
397.39	1785.83
397.58	1881.79
397.77	1842.00
397.97	1905.20
398.16	1799.87
398.35	1884.13
398.55	1858.39
398.74	1898.17
398.93	1944.99
399.12	1949.67
399.32	1872.43
399.51	1881.79
399.70	1996.48
399.90	2001.16
400.09	2108.82
400.28	2092.44
400.47	2094.78
400.67	2101.80
400.86	2090.10
401.05	2132.23
401.24	2155.63
401.44	2083.08
401.63	2223.51
401.82	2153.29
402.01	2172.02
402.21	2094.78
402.40	2188.40
402.59	2190.74
402.78	2228.19
402.97	2190.74
403.17	2377.98
403.36	2282.02
403.55	2293.72
403.74	2312.45
403.93	2338.20
404.13	2359.26
404.32	2335.85
404.51	2342.88
404.70	2415.43
404.89	2464.58
405.09	2476.29
405.28	2523.10
405.47	2581.61
405.66	2520.76
405.85	2480.97
406.05	2513.74
406.24	2583.95
406.43	2623.74
406.62	2640.12
406.81	2630.76
407.00	2654.17
407.20	2633.10
407.39	2658.85
407.58	2670.55
407.77	2796.94
407.96	2839.07
408.15	2738.43
408.34	2764.17
408.54	2803.96
408.73	2806.30
408.92	2768.85
409.11	2951.42
409.30	2810.98
409.49	2953.76
409.68	2876.52
409.87	3026.31
410.07	3005.25
410.26	2960.78
410.45	3033.33
410.64	2890.56
410.83	3190.15
411.02	3267.39
411.21	3173.77
411.40	3180.79
411.59	3199.51
411.78	3342.28
411.98	3332.92
412.17	3293.13
412.36	3314.20
412.55	3339.94
412.74	3424.20
412.93	3531.87
413.12	3625.49
413.31	3559.95
413.50	3379.73
413.69	3536.55
413.88	3700.39
414.07	3653.58
414.26	3623.15
414.45	3721.45
414.64	3861.88
414.83	3873.59
415.02	3698.05
415.22	3934.44
415.41	3712.09
415.60	3875.93
415.79	3957.85
415.98	4037.42
416.17	4051.47
416.36	3920.40
416.55	4191.90
416.74	4121.68
416.93	4126.36
417.12	4156.79
417.31	4248.07
417.50	4177.86
417.69	4341.69
417.88	4428.29
418.07	4147.43
418.26	4376.80
418.45	4489.15
418.64	4561.70
418.83	4318.29
419.02	4519.57
419.21	4643.62
419.39	4524.26
419.58	4550.00
419.77	4552.34
419.96	4631.92
420.15	4702.14
420.34	4479.79
420.53	4533.62
420.72	4786.40
420.91	4718.52
421.10	4718.52
421.29	4762.99
421.48	4638.94
421.67	4805.12
421.86	4844.91
422.05	4821.50
422.24	4968.96
422.43	4959.60
422.61	4992.36
422.80	4994.70
422.99	4812.14
423.18	5050.88
423.37	5090.67
423.56	5011.09
423.75	4973.64
423.94	4936.19
424.13	4634.26
424.32	4842.57
424.50	5029.81
424.69	5095.35
424.88	5207.69
425.07	4912.78
425.26	4903.42
425.45	4926.83
425.64	4975.98
425.83	5001.72
426.01	5170.24
426.20	5144.50
426.39	5163.22
426.58	4938.53
426.77	5128.11
426.96	5195.99
427.15	5327.06
427.33	5242.80
427.52	5118.75
427.71	5245.14
427.90	5266.21
428.09	5240.46
428.28	5399.62
428.46	5313.02
428.65	5268.55
428.84	5507.28
429.03	5540.05
429.22	5392.59
429.40	5373.87
429.59	5650.05
429.78	5523.66
429.97	5238.12
430.16	5647.71
430.34	5657.07
430.53	5701.54
430.72	5652.39
430.91	5797.51
431.10	5696.86
431.28	5841.98
431.47	5942.62
431.66	5827.93
431.85	5750.70
432.03	5858.36
432.22	6120.50
432.41	6003.47
432.60	5947.30
432.79	5844.32
432.97	5987.09
433.16	6001.13
433.35	6045.60
433.54	6052.63
433.72	6174.33
433.91	6115.82
434.10	6326.47
434.28	6094.76
434.47	6195.40
434.66	6492.65
434.85	6532.44
435.03	6314.77
435.22	6455.20
435.41	6640.10
435.59	6672.87
435.78	6523.07
435.97	6401.37
436.16	6471.58
436.34	6354.55
436.53	6635.42
436.72	6738.40
436.90	6520.73
437.09	6892.88
437.28	6743.08
437.46	6670.53
437.65	6604.99
437.84	6815.64
438.02	6825.00
438.21	6626.06
438.40	6747.76
438.58	7070.76
438.77	7152.68
438.96	6946.71
439.14	7143.32
439.33	7274.38
439.52	7187.79
439.70	7463.97
439.89	7377.37
440.08	7480.35
440.26	7339.92
440.45	7452.27
440.63	7522.48
440.82	7655.89
441.01	7550.57
441.19	7843.14
441.38	7819.73
441.57	7698.02
441.75	7934.42
441.94	8095.91
442.12	7990.59
442.31	8212.94
442.50	8095.91
442.68	8056.12
442.87	8056.12
443.05	8145.06
443.24	8198.90
443.43	8124.00
443.61	8294.86
443.80	8519.55
443.98	8168.47
444.17	8086.55
444.35	8372.10
444.54	8353.37
444.73	8428.27
444.91	8266.77
445.10	8449.33
445.28	8454.02
445.47	8437.63
445.65	8514.87
445.84	8641.26
446.02	8477.42
446.21	8514.87
446.39	8477.42
446.58	8472.74
446.77	8496.14
446.95	8442.31
447.14	8585.08
447.32	8592.11
447.51	8613.17
447.69	8580.40
447.88	8514.87
448.06	8512.53
448.25	8507.85
448.43	8681.05
448.62	8594.45
448.80	8622.53
448.99	8601.47
449.17	8957.23
449.36	8554.66
449.54	8924.46
449.73	8997.02
449.91	8978.30
450.10	8940.85
450.28	9022.77
450.46	9160.86
450.65	9088.30
450.83	9118.73
451.02	9174.90
451.20	9289.59
451.39	9188.94
451.57	9202.99
451.76	9198.31
451.94	9294.27
452.13	9441.72
452.31	9441.72
452.49	9104.68
452.68	9451.08
452.86	9369.16
453.05	9612.58
453.23	9511.94
453.42	9455.76
453.60	9462.79
453.78	9762.37
453.97	9565.77
454.15	9535.34
454.34	9654.71
454.52	9816.21
454.70	9764.72
454.89	9860.68
455.07	9895.78
455.26	9856.00
455.44	10015.15
455.62	9975.36
455.81	9961.32
455.99	10111.11
456.17	10272.61
456.36	10059.62
456.54	10129.84
456.73	10270.27
456.91	10572.20
457.09	10443.47
457.28	10710.29
457.46	10368.57
457.64	10471.56
457.83	10696.25
458.01	10520.71
458.19	10743.06
458.38	10700.93
458.56	10824.98
458.74	10862.43
458.93	10766.46
459.11	10789.87
459.29	10817.96
459.48	11026.26
459.66	10850.72
459.84	11288.40
460.03	11248.61
460.21	11131.59
460.39	11147.97
460.57	11225.21
460.76	11080.10
460.94	11007.54
461.12	11283.72
461.31	11236.91
461.49	10920.94
461.67	11346.92
461.85	11433.52
462.04	11344.58
462.22	11721.40
462.40	11690.98
462.59	11786.94
462.77	11609.06
462.95	11733.11
463.13	11681.61
463.32	11681.61
463.50	11861.84
463.68	11866.52
463.86	12084.19
464.05	11786.94
464.23	11646.51
464.41	12051.42
464.59	11632.46
464.78	12212.92
464.96	12161.42
465.14	11992.90
465.32	12224.62
465.50	12264.41
465.69	12313.56
465.87	12358.03
466.05	12063.12
466.23	12311.22
466.41	12435.27
466.60	12531.23
466.78	12390.80
466.96	12290.15
467.14	12500.80
467.32	12552.29
467.51	12683.36
467.69	12241.00
467.87	12472.71
468.05	12449.31
468.23	12498.46
468.41	12676.34
468.60	12674.00
468.78	12870.61
468.96	12638.89
469.14	12943.16
469.32	13046.15
469.50	12879.97
469.69	12952.52
469.87	13287.22
470.05	13214.66
470.23	13266.16
470.41	13046.15
470.59	13425.31
470.77	13453.40
470.95	13355.10
471.14	13823.20
471.32	13322.33
471.50	13729.58
471.68	13605.53
471.86	13902.78
472.04	14003.43
472.22	14003.43
472.40	13916.83
472.58	13884.06
472.77	14043.21
472.95	14071.30
473.13	14537.07
473.31	14214.07
473.49	14267.91
473.67	14258.54
473.85	14228.12
474.03	14824.95
474.21	14527.71
474.39	14794.53
474.57	14740.69
474.75	15314.13
474.93	15283.70
475.12	15094.11
475.30	15199.44
475.48	15192.42
475.66	15262.63
475.84	15295.40
476.02	15487.32
476.20	15562.22
476.38	15903.94
476.56	16243.32
476.74	15925.00
476.92	15922.66
477.10	15768.19
477.28	16594.40
477.46	16327.58
477.64	16512.48
477.82	16798.02
478.00	17198.26
478.18	17053.14
478.36	17235.70
478.54	17284.86
478.72	17179.53
478.90	17521.25
479.08	17771.69
479.26	17708.49
479.44	18127.45
479.62	17898.08
479.80	18174.26
479.98	18307.67
480.16	19082.39
480.34	18408.31
480.52	18595.56
480.70	18803.86
480.88	18408.31
481.06	19173.67
481.24	19131.54
481.41	19316.44
481.59	19391.34
481.77	20009.24
481.95	20091.16
482.13	19962.43
482.31	19985.83
482.49	20383.73
482.67	20568.63
482.85	20737.15
483.03	20884.60
483.21	21392.50
483.39	21301.22
483.57	21165.46
483.74	21504.84
483.92	21626.55
484.10	21556.33
484.28	21783.37
484.46	22389.56
484.64	22235.09
484.82	22403.61
485.00	22611.92
485.18	22925.55
485.35	23161.94
485.53	22712.56
485.71	23236.84
485.89	23878.15
486.07	23281.31
486.25	23452.17
486.43	23597.28
486.61	24297.10
486.78	24589.67
486.96	24280.72
487.14	24805.00
487.32	25109.27
487.50	25266.08
487.68	25277.79
487.85	25509.50
488.03	25619.50
488.21	25984.63
488.39	26005.69
488.57	26536.99
488.75	26295.92
488.92	26328.69
489.10	26820.20
489.28	27204.05
489.46	27491.93
489.64	27150.21
489.81	27946.00
489.99	27740.03
490.17	28027.92
490.35	28685.61
490.53	28547.51
490.70	28858.81
490.88	28809.65
491.06	29263.72
491.24	28985.19
491.41	29242.65
491.59	29230.95
491.77	29310.53
491.95	30068.86
492.13	29961.20
492.30	30625.91
492.48	30132.06
492.66	30843.58
492.84	30733.57
493.01	31295.30
493.19	30771.02
493.37	31248.49
493.54	31484.89
493.72	31817.24
493.90	31866.39
494.08	32587.28
494.25	32350.88
494.43	32666.86
494.61	32528.77
494.79	32449.19
494.96	32914.95
495.14	32900.91
495.32	33369.02
495.49	33446.26
495.67	33490.73
495.85	33954.15
496.02	34040.75
496.20	34448.00
496.38	34389.49
496.55	34693.76
496.73	35040.16
496.91	35115.06
497.09	35424.01
497.26	35023.78
497.44	35061.22
497.62	35386.56
497.79	36226.81
497.97	35793.81
498.14	36236.17
498.32	36055.95
498.50	36507.68
498.67	37085.79
498.85	36538.10
499.03	37160.69
499.20	36598.96
499.38	37205.16
499.56	37413.46
499.73	37666.24
499.91	37888.59
500.08	38143.71
500.26	37610.07
500.44	38167.12
500.61	37900.29
500.79	37881.57
500.97	38480.75
501.14	38906.73
501.32	39098.65
501.49	39201.63
501.67	38934.81
501.84	39281.21
502.02	39236.74
502.20	39136.10
502.37	39487.18
502.55	39538.67
502.72	39812.51
502.90	39697.83
503.07	39739.96
503.25	39714.21
503.43	40161.25
503.60	40126.14
503.78	40348.50
503.95	40568.51
504.13	41067.04
504.30	41078.74
504.48	40879.80
504.65	40816.60
504.83	41336.20
505.01	42003.25
505.18	41713.03
505.36	41832.39
505.53	41476.63
505.71	41729.41
505.88	41986.87
506.06	41525.78
506.23	41991.55
506.41	42260.71
506.58	42761.59
506.76	42572.00
506.93	42312.20
507.11	42642.22
507.28	43082.24
507.46	42841.17
507.63	43484.81
507.81	43468.43
507.98	42841.17
508.16	43496.52
508.33	43744.61
508.50	43910.79
508.68	43896.75
508.85	44706.57
509.03	44179.95
509.20	44083.99
509.38	44893.82
509.55	44598.91
509.73	44598.91
509.90	45020.20
510.08	45448.52
510.25	45375.97
510.42	45294.05
510.60	45247.24
510.77	45495.33
510.95	45785.56
511.12	45794.92
511.30	45638.11
511.47	46059.40
511.64	45729.39
511.82	46579.00
511.99	46141.32
512.17	46382.40
512.34	46447.93
512.51	46642.20
512.69	46904.34
512.86	46754.54
513.04	46972.21
513.21	46829.44
513.38	47019.02
513.56	47040.09
513.73	47271.80
513.90	47405.21
514.08	47327.97
514.25	47564.37
514.43	47819.49
514.60	47828.85
514.77	47569.05
514.95	47856.93
515.12	48184.61
515.29	48156.52
515.47	48364.83
515.64	48783.79
515.81	48371.85
515.99	48708.89
516.16	48669.10
516.33	48842.30
516.51	49027.20
516.68	48612.93
516.85	48495.90
517.03	49216.78
517.20	49177.00
517.37	48713.57
517.54	49411.05
517.72	49579.57
517.89	49514.03
518.06	49436.80
518.24	49825.32
518.41	49715.32
518.58	49750.43
518.75	49762.13
518.93	49837.03
519.10	49680.21
519.27	50167.04
519.45	50281.73
519.62	50108.53
519.79	50073.42
519.96	50405.78
520.14	50223.22
520.31	50412.80
520.48	50419.82
520.65	50464.29
520.83	50878.57
521.00	50731.11
521.17	50946.44
521.34	50791.97
521.52	50871.54
521.69	51192.20
521.86	51557.32
522.03	51620.52
522.20	51737.54
522.38	51653.28
522.55	51938.83
522.72	51613.49
522.89	51641.58
523.07	52090.96
523.24	51810.10
523.41	52116.71
523.58	51473.06
523.75	52151.82
523.92	52348.42
524.10	52378.85
524.27	52076.92
524.44	52404.59
524.61	52266.50
524.78	52444.38
524.96	52594.18
525.13	52842.27
525.30	52971.00
525.47	52975.69
525.64	52545.03
525.81	52573.11
525.98	52931.22
526.16	52945.26
526.33	53097.39
526.50	53333.79
526.67	52996.75
526.84	53102.07
527.01	53343.15
527.18	53254.21
527.36	53343.15
527.53	53345.49
527.70	53918.92
527.87	53539.75
528.04	53396.98
528.21	53813.60
528.38	53380.60
528.55	53839.34
528.72	53448.47
528.89	53497.62
529.07	53797.21
529.24	53605.29
529.41	53710.61
529.58	53808.92
529.75	53935.30
529.92	54120.21
530.09	54117.87
530.26	54433.84
530.43	54061.69
530.60	53921.26
530.77	54026.59
530.94	54115.53
531.11	54241.92
531.28	54707.68
531.46	54611.72
531.63	54541.50
531.80	54368.30
531.97	54747.47
532.14	54906.63
532.31	54733.43
532.48	55011.95
532.65	55173.45
532.82	54937.05
532.99	55178.13
533.16	54632.78
533.33	55075.15
533.50	55061.10
533.67	54962.80
533.84	55150.04
534.01	55332.60
534.18	55147.70
534.35	55590.06
534.52	55229.62
534.69	55480.06
534.86	55707.09
535.03	55187.49
535.20	55421.55
535.37	55676.66
535.54	55810.07
535.71	55402.82
535.88	55835.82
536.05	55709.43
536.22	55758.58
536.38	55732.84
536.55	55697.73
536.72	55789.01
536.89	55931.78
537.06	55957.53
537.23	55969.23
537.40	55772.63
537.57	56011.36
537.74	55908.38
537.91	56245.41
538.08	55992.64
538.25	56107.32
538.42	56306.27
538.59	56458.40
538.75	56074.55
538.92	56343.72
539.09	56404.57
539.26	56425.64
539.43	56369.46
539.60	56530.96
539.77	56435.00
539.94	56980.34
540.11	56750.97
540.28	56872.68
540.44	57022.47
540.61	56615.22
540.78	56596.49
540.95	56769.69
541.12	56844.59
541.29	56647.99
541.46	57010.77
541.62	56750.97
541.79	56765.01
541.96	56821.19
542.13	56982.68
542.30	57029.49
542.47	57132.48
542.63	57078.64
542.80	57132.48
542.97	57347.81
543.14	57581.86
543.31	57553.77
543.48	57670.80
543.64	57661.44
543.81	57436.75
543.98	57516.32
544.15	57652.08
544.32	57614.63
544.48	57841.66
544.65	57474.20
544.82	57616.97
544.99	57661.44
545.16	57825.28
545.32	57764.42
545.49	57762.08
545.66	58152.95
545.83	57851.02
546.00	58159.97
546.16	57895.49
546.33	58092.10
546.50	57649.74
546.67	58052.31
546.83	57691.86
547.00	58110.82
547.17	57944.64
547.34	58021.88
547.50	58225.51
547.67	58148.27
547.84	58412.75
548.00	58482.97
548.17	58237.21
548.34	58316.79
548.51	58429.13
548.67	58337.85
548.84	58316.79
549.01	58394.03
549.18	58557.86
549.34	58379.98
549.51	58541.48
549.68	58410.41
549.84	58541.48
550.01	58562.54
550.18	58618.72
550.34	58791.92
550.51	58628.08
550.68	58604.67
550.84	58396.37
551.01	58803.62
551.18	58745.11
551.34	58922.99
551.51	58848.09
551.68	58894.90
551.84	58824.68
552.01	58827.02
552.18	58983.84
552.34	58614.04
552.51	59103.21
552.68	58756.81
552.84	58787.24
553.01	59222.58
553.18	59166.40
553.34	59124.27
553.51	58958.09
553.67	58901.92
553.84	59147.68
554.01	59070.44
554.17	59320.88
554.34	59227.26
554.51	59103.21
554.67	59297.47
554.84	59255.34
555.00	59082.14
555.17	59150.02
555.33	59428.54
555.50	59334.92
555.67	59131.29
555.83	59419.18
556.00	59533.87
556.16	59590.04
556.33	59545.57
556.50	59477.69
556.66	59344.28
556.83	59454.29
556.99	59664.94
557.16	59765.58
557.32	59613.44
557.49	59784.30
557.65	59601.74
557.82	59571.32
557.98	59613.44
558.15	59636.85
558.32	59568.97
558.48	59632.17
558.65	59800.69
558.81	59714.09
558.98	59882.61
559.14	59751.54
559.31	59753.88
559.47	59938.78
559.64	59945.80
559.80	59999.63
559.97	60093.25
560.13	59898.99
560.30	59688.34
560.46	59894.31
560.63	59927.08
560.79	60135.38
560.96	60163.47
561.12	60023.04
561.29	60076.87
561.45	60207.94
561.61	59952.82
561.78	59934.10
561.94	60116.66
562.11	60102.62
562.27	60079.21
562.44	60214.96
562.60	60186.88
562.77	60367.10
562.93	59934.10
563.10	60329.65
563.26	60193.90
563.42	60236.03
563.59	60367.10
563.75	60233.69
563.92	60177.51
564.08	60254.75
564.24	60210.28
564.41	60350.71
564.57	60350.71
564.74	60339.01
564.90	60273.48
565.07	60275.82
565.23	60418.59
565.39	60357.74
565.56	60537.96
565.72	60327.31
565.88	60395.18
566.05	60453.70
566.21	60399.86
566.38	60451.36
566.54	60399.86
566.70	60458.38
566.87	60528.59
567.03	60458.38
567.19	60629.24
567.36	60458.38
567.52	60334.33
567.68	60823.50
567.85	60456.04
568.01	60640.94
568.17	60580.09
568.34	60786.05
568.50	60601.15
568.66	60369.44
568.83	60566.04
568.99	60690.09
569.15	60598.81
569.32	60472.42
569.48	60608.17
569.64	60821.16
569.81	60662.00
569.97	60500.51
570.13	60729.88
570.30	60516.89
570.46	60678.39
570.62	60779.03
570.78	60821.16
570.95	60671.37
571.11	60760.31
571.27	60671.37
571.43	60788.39
571.60	60867.97
571.76	60762.65
571.92	60931.17
572.09	60849.25
572.25	60839.89
572.41	60931.17
572.57	60870.31
572.74	61062.24
572.90	60657.32
573.06	60919.46
573.22	60837.54
573.38	60779.03
573.55	60825.84
573.71	61083.30
573.87	60779.03
574.03	60825.84
574.20	60903.08
574.36	60683.07
574.52	60865.63
574.68	60767.33
574.84	61092.66
575.01	60867.97
575.17	61045.85
575.33	60757.97
575.49	60961.59
575.65	61188.63
575.82	61013.08
575.98	60956.91
576.14	61076.28
576.30	60985.00
576.46	61036.49
576.62	60963.93
576.79	61111.39
576.95	61062.24
577.11	61223.73
577.27	61132.45
577.43	61029.47
577.59	61076.28
577.75	60884.36
577.92	60992.02
578.08	60938.19
578.24	61148.84
578.40	61141.81
578.56	61249.48
578.72	60966.27
578.88	61153.52
579.04	61359.48
579.21	61174.58
579.37	61277.57
579.53	61235.44
579.69	61027.13
579.85	61172.24
580.01	61078.62
580.17	61010.74
580.33	61190.97
580.49	61125.43
580.65	61137.13
580.82	60905.42
580.98	61165.22
581.14	61048.19
581.30	61092.66
581.46	61087.98
581.62	61069.26
581.78	61305.65
581.94	61373.53
582.10	61165.22
582.26	61118.41
582.42	61120.75
582.58	61202.67
582.74	61116.07
582.90	61085.64
583.06	61109.05
583.22	60830.52
583.38	61118.41
583.54	61172.24
583.70	61066.92
583.86	61345.44
584.02	60886.70
584.18	61237.78
584.34	61289.27
584.50	61336.08
584.66	61083.30
584.82	61200.33
584.98	61373.53
585.14	61460.13
585.30	60898.40
585.46	61111.39
585.62	61181.60
585.78	61350.12
585.94	60947.55
586.10	61158.20
586.26	61228.41
586.42	61340.76
586.58	61396.93
586.74	61202.67
586.90	61195.65
587.06	61073.94
587.22	61319.70
587.38	61375.87
587.54	61310.33
587.70	61481.19
587.86	61354.80
588.02	61207.35
588.18	61312.67
588.34	61429.70
588.49	61085.64
588.65	61272.88
588.81	61303.31
588.97	61499.92
589.13	61343.10
589.29	61467.15
589.45	61609.92
589.61	61462.47
589.77	61703.54
589.93	61441.40
590.08	61504.60
590.24	61572.47
590.40	61684.82
590.56	61609.92
590.72	61584.18
590.88	61523.32
591.04	61394.59
591.20	61740.99
591.35	61567.79
591.51	61759.72
591.67	61591.20
591.83	61797.16
591.99	61478.85
592.15	61654.39
592.31	61801.85
592.46	61654.39
592.62	61659.07
592.78	61492.89
592.94	61794.82
593.10	61710.56
593.26	61841.63
593.41	61619.28
593.57	61778.44
593.73	61682.48
593.89	61855.68
594.05	61862.70
594.20	61804.19
594.36	61975.05
594.52	61675.46
594.68	61565.45
594.84	61649.71
594.99	61766.74
595.15	61628.65
595.31	61609.92
595.47	61649.71
595.62	61518.64
595.78	61703.54
595.94	61881.42
596.10	61733.97
596.25	61827.59
596.41	61731.63
596.57	61776.10
596.73	62012.49
596.88	61829.93
597.04	61806.53
597.20	62038.24
597.36	61977.39
597.51	61911.85
597.67	61609.92
597.83	61804.19
597.99	61975.05
598.14	61848.66
598.30	61822.91
598.46	61794.82
598.61	61834.61
598.77	61855.68
598.93	61888.45
599.09	61949.30
599.24	62225.48
599.40	61984.41
599.56	61876.74
599.71	61975.05
599.87	62092.07
600.03	62129.52
600.18	61914.19
600.34	61935.26
600.50	61958.66
600.65	61900.15
600.81	61984.41
600.97	62042.92
601.12	62003.13
601.28	61970.36
601.44	62007.81
601.59	62101.43
601.75	61808.87
601.91	62131.86
602.06	62005.47
602.22	62113.14
602.37	62099.09
602.53	61930.58
602.69	61975.05
602.84	61902.49
603.00	62007.81
603.16	62087.39
603.31	62056.96
603.47	61918.87
603.62	61893.13
603.78	62019.52
603.94	61853.34
604.09	61911.85
604.25	61869.72
604.40	61942.28
604.56	61986.75
604.71	62183.35
604.87	61836.95
605.03	61916.53
605.18	62040.58
605.34	62061.64
605.49	61740.99
605.65	62031.22
605.80	62017.17
605.96	62155.27
606.12	61879.08
606.27	62087.39
606.43	61986.75
606.58	62000.79
606.74	61731.63
606.89	61986.75
607.05	61811.21
607.20	62113.14
607.36	61794.82
607.51	61921.21
607.67	61717.59
607.82	61825.25
607.98	61839.29
608.13	61909.51
608.29	61705.88
608.44	61958.66
608.60	61663.75
608.75	61797.16
608.91	61771.42
609.06	61537.36
609.22	61888.45
609.37	61710.56
609.53	61893.13
609.68	61815.89
609.84	61755.03
609.99	61797.16
610.15	61998.45
610.30	62017.17
610.46	61825.25
610.61	61876.74
610.76	61708.22
610.92	61703.54
611.07	61609.92
611.23	61640.35
611.38	61790.14
611.54	61806.53
611.69	61588.86
611.84	61645.03
612.00	61923.55
612.15	61666.09
612.31	61839.29
612.46	61462.47
612.62	61682.48
612.77	61668.44
612.92	61783.12
613.08	61666.09
613.23	61708.22
613.39	61694.18
613.54	61535.02
613.69	61553.75
613.85	61668.44
614.00	61682.48
614.15	61724.61
614.31	61577.15
614.46	61731.63
614.62	61436.72
614.77	61623.96
614.92	61647.37
615.08	61598.22
615.23	61773.76
615.38	61642.69
615.54	61645.03
615.69	61474.17
615.84	61537.36
616.00	61591.20
616.15	61462.47
616.30	61783.12
616.46	61392.25
616.61	61443.74
616.76	61439.06
616.92	61373.53
617.07	61551.41
617.22	61401.61
617.37	61469.49
617.53	61635.67
617.68	61539.71
617.83	61394.59
617.99	61307.99
618.14	61434.38
618.29	61495.24
618.45	61375.87
618.60	61476.51
618.75	61361.82
618.90	61277.57
619.06	61347.78
619.21	61237.78
619.36	61652.05
619.51	61151.18
619.67	61230.75
619.82	61303.31
619.97	61429.70
620.12	61223.73
620.28	61286.93
620.43	61228.41
620.58	61237.78
620.73	61013.08
620.89	61212.03
621.04	61436.72
621.19	61181.60
621.34	61095.00
621.49	61078.62
621.65	61109.05
621.80	61338.42
621.95	60999.04
622.10	61158.20
622.25	61251.82
622.41	61006.06
622.56	60870.31
622.71	60961.59
622.86	61010.74
623.01	60987.34
623.16	60956.91
623.32	60992.02
623.47	61109.05
623.62	60938.19
623.77	60956.91
623.92	60910.10
624.07	61141.81
624.23	61064.58
624.38	61038.83
624.53	60786.05
624.68	60877.33
624.83	60989.68
624.98	60994.36
625.13	60664.35
625.29	60977.98
625.44	61092.66
625.59	60692.43
625.74	60821.16
625.89	60676.05
626.04	60732.22
626.19	60664.35
626.34	60753.29
626.49	60615.19
626.65	60470.08
626.80	60650.30
626.95	60626.90
627.10	60608.17
627.25	60603.49
627.40	60591.79
627.55	60622.22
627.70	60507.53
627.85	60500.51
628.00	60299.22
628.15	60596.47
628.30	60500.51
628.45	60416.25
628.60	60324.97
628.76	60498.17
628.91	60481.78
629.06	60474.76
629.21	60544.98
629.36	60402.21
629.51	60198.58
629.66	60322.63
629.81	60343.69
629.96	60416.25
630.11	60453.70
630.26	60439.65
630.41	60425.61
630.56	60350.71
630.71	60411.57
630.86	60488.80
631.01	60236.03
631.16	60282.84
631.31	60236.03
631.46	59803.03
631.61	60079.21
631.76	60364.76
631.91	60055.81
632.06	60301.56
632.21	60339.01
632.36	60303.90
632.51	59920.05
632.66	60142.41
632.81	59929.42
632.96	60219.64
633.10	59987.93
633.25	60011.34
633.40	60133.04
633.55	60055.81
633.70	60013.68
633.85	59955.16
634.00	59772.60
634.15	59896.65
634.30	59863.88
634.45	60025.38
634.60	60004.31
634.75	60102.62
634.90	59812.39
635.05	59931.76
635.19	59707.07
635.34	59735.15
635.49	59772.60
635.64	59945.80
635.79	59891.97
635.94	59788.98
636.09	59763.24
636.24	59728.13
636.39	59681.32
636.53	59980.91
636.68	59573.66
636.83	59732.81
636.98	59840.48
637.13	59498.76
637.28	59711.75
637.43	59943.46
637.57	59639.19
637.72	59433.22
637.87	59543.23
638.02	59437.90
638.17	59636.85
638.32	59545.57
638.46	59529.19
638.61	59475.35
638.76	59430.88
638.91	59451.95
639.06	59487.06
639.20	59517.48
639.35	59498.76
639.50	59381.73
639.65	59449.61
639.80	59503.44
639.94	59473.01
640.09	59505.78
640.24	59260.02
640.39	59421.52
640.54	59365.35
640.68	59217.89
640.83	59489.40
640.98	59175.76
641.13	59201.51
641.27	59377.05
641.42	59185.13
641.57	59206.19
641.72	59241.30
641.86	59168.74
642.01	59199.17
642.16	59112.57
642.31	59025.97
642.45	59377.05
642.60	59253.00
642.75	59379.39
642.90	59147.68
643.04	59227.26
643.19	58958.09
643.34	59016.61
643.48	59105.55
643.63	59208.53
643.78	58904.26
643.93	58972.14
644.07	58979.16
644.22	58962.78
644.37	58883.20
644.51	58885.54
644.66	59175.76
644.81	59114.91
644.95	58836.39
645.10	59056.40
645.25	59119.59
645.39	58824.68
645.54	58820.00
645.69	58721.70
645.83	58803.62
645.98	58808.30
646.13	58941.71
646.27	58665.53
646.42	58592.97
646.57	58691.27
646.71	58651.48
646.86	58712.34
647.00	58775.53
647.15	58798.94
647.30	58651.48
647.44	58770.85
647.59	58749.79
647.74	58766.17
647.88	58731.06
648.03	58759.15
648.17	58930.01
648.32	58742.77
648.47	58571.91
648.61	58506.37
648.76	58714.68
648.90	58595.31
649.05	58602.33
649.20	58583.61
649.34	58639.78
649.49	58195.08
649.63	58459.56
649.78	58681.91
649.92	58628.08
650.07	58391.68
650.21	58300.40
650.36	58436.16
650.51	58424.45
650.65	58630.42
650.80	58417.43
650.94	58244.23
651.09	58152.95
651.23	58089.76
651.38	58237.21
651.52	58248.91
651.67	58035.92
651.81	58155.29
651.96	58216.14
652.10	58127.20
652.25	58286.36
652.39	58089.76
652.54	58078.05
652.68	57780.81
652.83	57937.62
652.97	57944.64
653.12	58101.46
653.26	58042.95
653.41	58127.20
653.55	57954.00
653.70	58019.54
653.84	57963.37
653.99	57944.64
654.13	57881.45
654.27	57951.66
654.42	58052.31
654.56	58047.63
654.71	58000.82
654.85	58080.39
655.00	57937.62
655.14	57989.11
655.29	57668.46
655.43	57972.73
655.57	57551.43
655.72	57481.22
655.86	57602.92
656.01	57743.36
656.15	57490.58
656.30	57752.72
656.44	57757.40
656.58	58031.24
656.73	57682.50
656.87	57705.91
657.01	57696.55
657.16	57408.66
657.30	57544.41
657.45	57350.15
657.59	57518.67
657.73	56989.70
657.88	57125.46
658.02	57406.32
658.16	57633.35
658.31	57345.47
658.45	57151.20
658.60	57411.00
658.74	57336.10
658.88	57312.70
659.03	57359.51
659.17	57109.07
659.31	57125.46
659.46	57265.89
659.60	57319.72
659.74	56940.55
659.89	57066.94
660.03	57034.17
660.17	57045.88
660.32	56956.94
660.46	57146.52
660.60	56680.75
660.74	56877.36
660.89	57195.67
661.03	56748.63
661.17	56622.24
661.32	56633.94
661.46	56825.87
661.60	56460.74
661.74	56814.16
661.89	56591.81
662.03	56624.58
662.17	56575.43
662.31	56519.26
662.46	56739.27
662.60	56474.79
662.74	56294.56
662.88	56240.73
663.03	56374.14
663.17	56608.20
663.31	56107.32
663.45	56119.02
663.60	55908.38
663.74	55819.44
663.88	56130.73
664.02	55896.67
664.17	56158.81
664.31	55962.21
664.45	56058.17
664.59	55994.98
664.73	55929.44
664.88	55868.59
665.02	55576.02
665.16	55330.26
665.30	55676.66
665.44	55800.71
665.59	55643.90
665.73	55379.42
665.87	55536.23
666.01	55664.96
666.15	55334.95
666.29	55318.56
666.44	55583.04
666.58	55318.56
666.72	55241.32
666.86	55018.97
667.00	55173.45
667.14	54925.35
667.28	54869.18
667.43	54976.84
667.57	55203.88
667.71	54904.29
667.85	54571.93
667.99	54890.24
668.13	54794.28
668.27	54848.11
668.41	54688.96
668.56	54663.21
668.70	54475.97
668.84	54717.04
668.98	54487.67
669.12	54780.24
669.26	54962.80
669.40	54314.47
669.54	54391.71
669.68	54333.20
669.82	54171.70
669.96	54429.16
670.10	54195.10
670.25	54405.75
670.39	53851.05
670.53	54284.04
670.67	54026.59
670.81	54497.03
670.95	54031.27
671.09	53808.92
671.23	53755.08
671.37	54005.52
671.51	53717.64
671.65	53574.86
671.79	53598.27
671.93	53553.80
672.07	53656.78
672.21	53422.73
672.35	53209.74
672.49	52940.58
672.63	52910.15
672.77	53331.45
672.91	53200.38
673.05	53139.52
673.19	53027.18
673.33	52846.96
673.47	52662.05
673.61	52830.57
673.75	52856.32
673.89	52718.23
674.03	52516.94
674.17	52175.22
674.31	52013.73
674.45	52027.77
674.59	51971.60
674.73	51903.72
674.87	52175.22
675.01	51901.38
675.15	51800.74
675.29	51992.66
675.43	51669.67
675.56	51627.54
675.70	51318.59
675.84	51576.04
675.98	50475.99
676.12	51655.62
676.26	51353.69
676.40	51517.53
676.54	51138.36
676.68	51044.74
676.82	50103.85
676.96	50923.04
677.10	50162.36
677.23	50286.41
677.37	50649.19
677.51	50309.82
677.65	50227.90
677.79	49516.37
677.93	49118.48
678.07	49567.87
678.21	49387.64
678.34	49387.64
678.48	49214.44
678.62	48900.81
678.76	48842.30
678.90	48776.76
679.04	49106.78
679.18	48800.17
679.31	48531.01
679.45	48285.25
679.59	48158.86
679.73	48942.94
679.87	48355.47
680.00	47723.52
680.14	47421.59
680.28	47840.55
680.42	47501.17
680.56	47489.47
680.70	46932.42
680.83	47437.98
680.97	46941.78
681.11	47590.11
681.25	47112.64
681.39	46775.61
681.52	46576.66
681.66	46651.56
681.80	46143.66
681.94	46164.73
682.07	46349.63
682.21	45890.88
682.35	45436.82
682.49	45588.95
682.62	45771.52
682.76	45745.77
682.90	45799.60
683.04	45425.12
683.17	45254.26
683.31	45132.55
683.45	44729.98
683.59	44446.77
683.72	44465.50
683.86	44832.96
684.00	44811.90
684.13	44273.57
684.27	44135.48
684.41	43936.54
684.55	44226.76
684.68	43922.49
684.82	43814.83
684.96	43306.93
685.09	43398.21
685.23	42969.90
685.37	42745.20
685.50	42572.00
685.64	42763.93
685.78	42747.54
685.91	42815.42
686.05	42462.00
686.19	42017.30
686.32	41734.09
686.46	41113.85
686.60	41060.02
686.73	40652.76
686.87	41408.76
687.01	41343.22
687.14	41092.79
687.28	41034.27
687.42	40701.92
687.55	40741.71
687.69	40666.81
687.82	39845.28
687.96	39959.97
688.10	40126.14
688.23	39929.54
688.37	39496.54
688.50	39543.35
688.64	39356.11
688.78	39721.23
688.91	38735.87
689.05	38930.13
689.18	38787.36
689.32	37991.58
689.46	38593.09
689.59	38040.73
689.73	38033.71
689.86	37694.33
690.00	37675.60
690.13	38272.44
690.27	37848.80
690.41	38099.24
690.54	37212.18
690.68	37226.22
690.81	37261.33
690.95	37214.52
691.08	36947.70
691.22	36701.94
691.35	36662.15
691.49	36666.83
691.62	36404.69
691.76	36006.80
691.89	35667.42
692.03	35810.20
692.16	35524.65
692.30	35629.98
692.43	35328.05
692.57	35344.43
692.70	35250.81
692.84	34951.22
692.97	34932.50
693.11	34946.54
693.24	34534.60
693.38	34181.18
693.51	33954.15
693.65	34106.29
693.78	33345.61
693.92	33933.09
694.05	33841.81
694.19	33897.98
694.32	33745.84
694.45	33099.86
694.59	33062.41
694.72	32753.46
694.86	32924.32
694.99	32933.68
695.13	32313.44
695.26	32285.35
695.39	31723.62
695.53	31945.97
695.66	32098.11
695.80	31765.75
695.93	31447.44
696.07	31482.55
696.20	30515.90
696.33	30796.77
696.47	31145.51
696.60	30843.58
696.73	30836.56
696.87	30426.96
697.00	30300.58
697.14	30139.08
697.27	30071.20
697.40	29947.15
697.54	30422.28
697.67	30024.39
697.80	29979.92
697.94	29439.26
698.07	29319.89
698.21	28875.19
698.34	28819.02
698.47	29146.69
698.61	28341.55
698.74	28746.46
698.87	29142.01
699.01	28091.11
699.14	28254.95
699.27	27957.70
699.40	28137.92
699.54	28458.57
699.67	27917.91
699.80	27915.57
699.94	27468.53
700.07	27524.70
700.20	27110.43
700.34	26719.56
700.47	26967.65
700.60	27058.93
700.73	26705.51
700.87	26153.15
701.00	26181.23
701.13	26281.88
701.26	26118.04
701.40	26340.39
701.53	26008.03
701.66	25858.24
701.79	25563.33
701.93	25132.67
702.06	25015.65
702.19	25223.95
702.32	24833.08
702.46	25013.31
702.59	24900.96
702.72	24994.58
702.85	24788.61
702.99	24631.80
703.12	24456.26
703.25	24311.14
703.38	23885.17
703.51	23711.97
703.65	23707.29
703.78	23690.90
703.91	23250.88
704.04	23456.85
704.17	23857.08
704.31	23363.23
704.44	23222.80
704.57	23232.16
704.70	22948.95
704.83	22410.63
704.96	22876.40
705.10	22412.97
705.23	22115.72
>>>>>End Processed Spectral Data<<<<<
