SpectraSuite Data File
++++++++++++++++++++++++++++++++++++
Date: Fri Oct 25 11:23:08 EDT 2013
User: price-jones
Dark Spectrum Present: No
Reference Spectrum Present: No
Number of Sampled Component Spectra: 1
Spectrometers: USB2+H05261
Integration Time (usec): 100000 (USB2+H05261)
Spectra Averaged: 1 (USB2+H05261)
Boxcar Smoothing: 0 (USB2+H05261)
Correct for Electrical Dark: No (USB2+H05261)
Strobe/Lamp Enabled: No (USB2+H05261)
Correct for Detector Non-linearity: No (USB2+H05261)
Correct for Stray Light: No (USB2+H05261)
Number of Pixels in Processed Spectrum: 2048
>>>>>Begin Processed Spectral Data<<<<<
365.73	187.24
365.92	187.24
366.12	187.24
366.32	152.13
366.52	121.71
366.72	124.05
366.91	119.37
367.11	112.35
367.31	147.45
367.51	86.60
367.70	42.13
367.90	166.18
368.10	121.71
368.30	114.69
368.49	98.30
368.69	198.95
368.89	107.66
369.09	217.67
369.28	126.39
369.48	107.66
369.68	152.13
369.87	208.31
370.07	154.48
370.27	231.71
370.47	353.42
370.66	634.29
370.86	585.13
371.06	608.54
371.25	660.03
371.45	620.24
371.65	720.88
371.84	711.52
372.04	727.91
372.24	737.27
372.44	650.67
372.63	704.50
372.83	734.93
373.03	812.17
373.22	741.95
373.42	746.63
373.62	833.23
373.81	863.66
374.01	784.08
374.21	793.44
374.40	781.74
374.60	795.78
374.79	819.19
374.99	791.10
375.19	924.51
375.38	802.80
375.58	842.59
375.78	830.89
375.97	814.51
376.17	791.10
376.37	842.59
376.56	898.77
376.76	851.96
376.95	926.85
377.15	891.74
377.35	901.11
377.54	922.17
377.74	926.85
377.93	926.85
378.13	966.64
378.33	966.64
378.52	826.21
378.72	873.02
378.91	1008.77
379.11	943.24
379.31	976.00
379.50	887.06
379.70	1004.09
379.89	1055.58
380.09	922.17
380.28	966.64
380.48	1013.45
380.68	1027.50
380.87	959.62
381.07	999.41
381.26	1107.07
381.46	954.94
381.65	1076.65
381.85	1041.54
382.04	1027.50
382.24	1018.13
382.43	1048.56
382.63	1078.99
382.83	1048.56
383.02	1046.22
383.22	1177.29
383.41	1135.16
383.61	1078.99
383.80	1029.84
384.00	1097.71
384.19	1167.93
384.39	1172.61
384.58	1228.78
384.78	1217.08
384.97	1081.33
385.17	1151.54
385.36	1135.16
385.56	1139.84
385.75	1181.97
385.95	1259.21
386.14	1188.99
386.34	1170.27
386.53	1217.08
386.72	1210.06
386.92	1214.74
387.11	1149.20
387.31	1252.19
387.50	1310.70
387.70	1310.70
387.89	1273.25
388.09	1282.61
388.28	1217.08
388.48	1315.38
388.67	1299.00
388.86	1301.34
389.06	1378.58
389.25	1364.53
389.45	1376.24
389.64	1343.47
389.84	1411.34
390.03	1383.26
390.22	1406.66
390.42	1474.54
390.61	1317.72
390.81	1439.43
391.00	1420.71
391.19	1387.94
391.39	1441.77
391.58	1430.07
391.78	1430.07
391.97	1413.68
392.16	1441.77
392.36	1544.75
392.55	1411.34
392.75	1593.90
392.94	1643.06
393.13	1526.03
393.33	1523.69
393.52	1523.69
393.71	1617.31
393.91	1664.12
394.10	1645.40
394.29	1554.12
394.49	1584.54
394.68	1657.10
394.88	1596.25
395.07	1617.31
395.26	1701.57
395.46	1717.95
395.65	1785.83
395.84	1722.63
396.04	1813.92
396.23	1736.68
396.42	1717.95
396.62	1746.04
396.81	1680.50
397.00	1849.02
397.19	1760.08
397.39	1820.94
397.58	1860.73
397.77	1788.17
397.97	1851.36
398.16	1846.68
398.35	1858.39
398.55	1856.04
398.74	1937.96
398.93	2036.27
399.12	1881.79
399.32	1851.36
399.51	1989.46
399.70	1909.88
399.90	1947.33
400.09	2080.74
400.28	2019.88
400.47	1926.26
400.67	2076.06
400.86	1973.07
401.05	2155.63
401.24	2115.84
401.44	2146.27
401.63	2139.25
401.82	2031.58
402.01	2125.21
402.21	2223.51
402.40	2239.89
402.59	2207.13
402.78	2310.11
402.97	2230.53
403.17	2246.91
403.36	2289.04
403.55	2284.36
403.74	2347.56
403.93	2434.16
404.13	2331.17
404.32	2389.69
404.51	2331.17
404.70	2424.80
404.89	2396.71
405.09	2464.58
405.28	2511.39
405.47	2424.80
405.66	2492.67
405.85	2567.57
406.05	2553.52
406.24	2621.40
406.43	2483.31
406.62	2635.44
406.81	2717.36
407.00	2586.29
407.20	2574.59
407.39	2651.83
407.58	2785.24
407.77	2700.98
407.96	2829.71
408.15	2803.96
408.34	2757.15
408.54	2862.48
408.73	2745.45
408.92	2862.48
409.11	2951.42
409.30	2913.97
409.49	2974.82
409.68	2958.44
409.87	2963.12
410.07	3084.83
410.26	2918.65
410.45	2963.12
410.64	3089.51
410.83	3124.62
411.02	3035.67
411.21	3180.79
411.40	3117.59
411.59	3192.49
411.78	3283.77
411.98	3185.47
412.17	3405.48
412.36	3407.82
412.55	3351.65
412.74	3414.84
412.93	3391.44
413.12	3318.88
413.31	3545.91
413.50	3613.79
413.69	3520.17
413.88	3646.55
414.07	3625.49
414.26	3674.64
414.45	3648.90
414.64	3655.92
414.83	3733.15
415.02	3789.33
415.22	3946.14
415.41	4011.68
415.60	3953.16
415.79	3983.59
415.98	4014.02
416.17	4014.02
416.36	4037.42
416.55	3985.93
416.74	4128.70
416.93	4142.75
417.12	4119.34
417.31	4217.65
417.50	4196.58
417.69	4264.46
417.88	4154.45
418.07	4334.67
418.26	4245.73
418.45	4435.32
418.64	4486.81
418.83	4376.80
419.02	4472.76
419.21	4627.24
419.39	4624.90
419.58	4505.53
419.77	4571.07
419.96	4589.79
420.15	4699.80
420.34	4575.75
420.53	4503.19
420.72	4767.67
420.91	4657.67
421.10	4985.34
421.29	4781.71
421.48	4805.12
421.67	4777.03
421.86	4964.28
422.05	4924.49
422.24	4924.49
422.43	5015.77
422.61	4812.14
422.80	5013.43
422.99	4873.00
423.18	5032.15
423.37	5043.85
423.56	5018.11
423.75	4945.55
423.94	4891.72
424.13	4603.83
424.32	4805.12
424.50	4943.21
424.69	5097.69
424.88	5074.28
425.07	4884.70
425.26	4929.17
425.45	5118.75
425.64	4873.00
425.83	4968.96
426.01	5008.75
426.20	5022.79
426.39	5090.67
426.58	5015.77
426.77	5132.79
426.96	5200.67
427.15	5200.67
427.33	5233.44
427.52	5240.46
427.71	5331.74
427.90	5280.25
428.09	5439.40
428.28	5425.36
428.46	5357.49
428.65	5406.64
428.84	5502.60
429.03	5479.19
429.22	5177.26
429.40	5483.88
429.59	5383.23
429.78	5268.55
429.97	5490.90
430.16	5589.20
430.34	5638.35
430.53	5837.30
430.72	5647.71
430.91	5858.36
431.10	5579.84
431.28	5795.17
431.47	5884.11
431.66	5834.96
431.85	5942.62
432.03	5865.38
432.22	5951.98
432.41	6066.67
432.60	5944.96
432.79	5970.71
432.97	6071.35
433.16	6001.13
433.35	5975.39
433.54	6097.10
433.72	5944.96
433.91	6207.10
434.10	6057.31
434.28	6038.58
434.47	6160.29
434.66	6368.60
434.85	6363.92
435.03	6209.44
435.22	6356.90
435.41	6342.85
435.59	6464.56
435.78	6274.98
435.97	6656.48
436.16	6616.69
436.34	6417.75
436.53	6438.81
436.72	6597.97
436.90	6520.73
437.09	6609.67
437.28	6581.59
437.46	6712.66
437.65	6637.76
437.84	6883.52
438.02	6771.17
438.21	6864.79
438.40	6885.86
438.58	7108.21
438.77	7070.76
438.96	7110.55
439.14	7133.95
439.33	7243.96
439.52	7311.83
439.70	7330.56
439.89	7478.01
440.08	7332.90
440.26	7595.04
440.45	7368.01
440.63	7548.23
440.82	7744.83
441.01	7552.91
441.19	7702.70
441.38	7779.94
441.57	8006.97
441.75	7840.79
441.94	7833.77
442.12	7777.60
442.31	8058.46
442.50	8334.65
442.68	8039.74
442.87	8077.19
443.05	7976.55
443.24	8367.42
443.43	8290.18
443.61	8250.39
443.80	8437.63
443.98	8013.99
444.17	8004.63
444.35	8116.98
444.54	8454.02
444.73	8596.79
444.91	8161.45
445.10	8601.47
445.28	8503.17
445.47	8255.07
445.65	8491.46
445.84	8526.57
446.02	8554.66
446.21	8339.33
446.39	8500.83
446.58	8580.40
446.77	8578.06
446.95	8589.77
447.14	8498.49
447.32	8704.45
447.51	8526.57
447.69	8456.36
447.88	8751.26
448.06	8596.79
448.25	8676.37
448.43	8566.36
448.62	8542.96
448.80	8531.25
448.99	8730.20
449.17	8975.95
449.36	8706.79
449.54	9074.26
449.73	9125.75
449.91	9275.54
450.10	8915.10
450.28	9266.18
450.46	9151.49
450.65	9006.38
450.83	9273.20
451.02	9097.66
451.20	9451.08
451.39	9210.01
451.57	9432.36
451.76	9050.85
451.94	9301.29
452.13	9446.40
452.31	9338.74
452.49	9174.90
452.68	9458.10
452.86	9495.55
453.05	9317.67
453.23	9685.14
453.42	9577.47
453.60	9453.42
453.78	9879.40
453.97	9748.33
454.15	9598.54
454.34	9788.12
454.52	9816.21
454.70	9802.16
454.89	9958.98
455.07	9951.96
455.26	10211.76
455.44	9977.70
455.62	10068.98
455.81	10031.54
455.99	10146.22
456.17	10162.61
456.36	10043.24
456.54	10452.83
456.73	10415.38
456.91	10548.79
457.09	10466.88
457.28	10661.14
457.46	10824.98
457.64	10836.68
457.83	10623.69
458.01	10546.45
458.19	10904.56
458.38	10551.14
458.56	10939.66
458.74	10984.13
458.93	10703.27
459.11	10897.53
459.29	10810.93
459.48	11070.73
459.66	11000.52
459.84	10902.22
460.03	11171.38
460.21	11229.89
460.39	11199.46
460.57	11049.67
460.76	11297.77
460.94	11463.94
461.12	11482.67
461.31	11211.17
461.49	11286.06
461.67	11463.94
461.85	11667.57
462.04	11494.37
462.22	11655.87
462.40	11903.96
462.59	11566.93
462.77	11606.72
462.95	11751.83
463.13	11510.75
463.32	11674.59
463.50	11913.33
463.68	11822.05
463.86	11906.31
464.05	11721.40
464.23	11894.60
464.41	12091.21
464.59	11857.15
464.78	12264.41
464.96	12049.08
465.14	12053.76
465.32	12166.10
465.50	12334.62
465.69	12327.60
465.87	12304.20
466.05	12229.30
466.23	12147.38
466.41	12542.93
466.60	12666.98
466.78	12259.73
466.96	12266.75
467.14	12404.84
467.32	12453.99
467.51	12828.48
467.69	12432.93
467.87	12732.51
468.05	12692.73
468.23	12704.43
468.41	12622.51
468.60	12856.56
468.78	12973.59
468.96	12713.79
469.14	12844.86
469.32	13261.48
469.50	12905.71
469.69	13018.06
469.87	13331.69
470.05	13256.79
470.23	13420.63
470.41	13322.33
470.59	13497.87
470.77	13348.08
470.95	13118.70
471.14	13762.35
471.32	13158.49
471.50	13792.78
471.68	13774.05
471.86	13605.53
472.04	13879.38
472.22	14281.95
472.40	13963.64
472.58	13877.04
472.77	14244.50
472.95	14303.01
473.13	14745.38
473.31	14485.58
473.49	14352.16
473.67	14314.72
473.85	14499.62
474.03	14698.56
474.21	14956.02
474.39	14593.24
474.57	15012.20
474.75	14953.68
474.93	15061.35
475.12	15229.87
475.30	15428.81
475.48	15126.88
475.66	15321.15
475.84	15447.54
476.02	15644.14
476.20	15377.32
476.38	15756.49
476.56	16081.82
476.74	15936.71
476.92	16072.46
477.10	16077.14
477.28	16320.56
477.46	16308.85
477.64	16521.84
477.82	16624.83
478.00	16858.88
478.18	17284.86
478.36	17095.27
478.54	17205.28
478.72	17465.08
478.90	17879.35
479.08	18064.25
479.26	17832.54
479.44	17949.57
479.62	17919.14
479.80	18221.07
479.98	18492.57
480.16	18747.69
480.34	18450.44
480.52	18644.71
480.70	18656.41
480.88	18567.47
481.06	18855.36
481.24	19176.01
481.41	19091.75
481.59	19730.72
481.77	19477.94
481.95	20004.56
482.13	19915.62
482.31	19740.08
482.49	20442.24
482.67	20486.71
482.85	20631.82
483.03	21036.74
483.21	21453.35
483.39	21238.02
483.57	21083.55
483.74	21465.05
483.92	21642.93
484.10	21490.80
484.28	21741.24
484.46	22349.78
484.64	22363.82
484.82	22209.34
485.00	22696.17
485.18	23096.41
485.35	23051.94
485.53	22824.90
485.71	23220.45
485.89	23672.18
486.07	23431.10
486.25	23576.22
486.43	24137.94
486.61	23960.06
486.78	24524.13
486.96	24837.76
487.14	24767.55
487.32	24971.18
487.50	25291.83
487.68	25453.33
487.85	25425.24
488.03	26127.40
488.21	25942.50
488.39	26242.09
488.57	26438.69
488.75	26621.25
488.92	26670.40
489.10	27063.61
489.28	27082.34
489.46	27428.74
489.64	27571.51
489.81	27798.54
489.99	27889.82
490.17	28233.88
490.35	28580.28
490.53	28411.76
490.70	28884.55
490.88	28547.51
491.06	29120.95
491.24	29099.88
491.41	29495.43
491.59	29694.38
491.77	29865.24
491.95	29858.21
492.13	30272.49
492.30	30618.89
492.48	30092.27
492.66	30192.91
492.84	30679.74
493.01	30969.97
493.19	30504.20
493.37	31424.03
493.54	31232.11
493.72	32194.07
493.90	31948.31
494.08	31957.67
494.25	32418.76
494.43	32669.20
494.61	32458.55
494.79	33380.72
494.96	33022.62
495.14	32891.55
495.32	33699.03
495.49	33497.75
495.67	33479.02
495.85	34043.09
496.02	34167.14
496.20	34267.78
496.38	34714.83
496.55	34513.54
496.73	35318.68
496.91	35054.20
497.09	35311.66
497.26	35541.03
497.44	35353.79
497.62	35742.32
497.79	36240.86
497.97	36034.89
498.14	36360.22
498.32	36947.70
498.50	36390.65
498.67	36971.10
498.85	36907.91
499.03	37649.86
499.20	36842.37
499.38	37357.29
499.56	37411.12
499.73	37745.82
499.91	37647.52
500.08	37832.42
500.26	37799.65
500.44	37572.62
500.61	38497.13
500.79	38281.80
500.97	38485.43
501.14	38581.39
501.32	39002.69
501.49	38780.34
501.67	39063.54
501.84	39388.88
502.02	39014.39
502.20	39606.55
502.37	39938.90
502.55	39812.51
502.72	39901.45
502.90	40184.66
503.07	40306.37
503.25	40591.91
503.43	40360.20
503.60	40657.45
503.78	40727.66
503.95	41099.81
504.13	40793.20
504.30	40875.12
504.48	41106.83
504.65	41153.64
504.83	41640.47
505.01	41060.02
505.18	41680.26
505.36	42026.66
505.53	41500.04
505.71	42295.82
505.88	42625.84
506.06	41813.67
506.23	42115.60
506.41	42590.73
506.58	42628.18
506.76	42939.47
506.93	43257.78
507.11	42674.99
507.28	42969.90
507.46	43143.09
507.63	43325.66
507.81	43700.14
507.98	43702.48
508.16	43524.60
508.33	43643.97
508.50	44011.43
508.68	44439.75
508.85	44121.44
509.03	44055.90
509.20	44477.20
509.38	45228.51
509.55	44722.96
509.73	44648.06
509.90	45134.89
510.08	45165.32
510.25	45202.77
510.42	45200.43
510.60	45567.89
510.77	45598.32
510.95	45940.04
511.12	45638.11
511.30	45593.64
511.47	45841.73
511.64	45986.85
511.82	45909.61
511.99	46220.90
512.17	46597.73
512.34	46415.16
512.51	46777.95
512.69	46820.08
512.86	46646.88
513.04	46672.62
513.21	47440.32
513.38	47372.44
513.56	47697.78
513.73	47009.66
513.90	47669.69
514.08	47543.30
514.25	47292.86
514.43	47863.96
514.60	47997.37
514.77	48236.10
514.95	48313.34
515.12	48006.73
515.29	47959.92
515.47	48549.73
515.64	48671.44
515.81	48313.34
515.99	48418.66
516.16	48940.60
516.33	48690.16
516.51	48800.17
516.68	49169.97
516.85	48680.80
517.03	49027.20
517.20	49656.81
517.37	49380.62
517.54	49345.51
517.72	49663.83
517.89	49394.67
518.06	49223.81
518.24	49499.99
518.41	49588.93
518.58	49855.75
518.75	49710.64
518.93	50099.17
519.10	49846.39
519.27	49769.15
519.45	49942.35
519.62	50309.82
519.79	50258.32
519.96	50164.70
520.14	50506.42
520.31	50588.34
520.48	50967.51
520.65	50504.08
520.83	50878.57
521.00	50939.42
521.17	51007.29
521.34	51433.27
521.52	51040.06
521.69	51498.81
521.86	51391.14
522.03	51482.42
522.20	51634.56
522.38	51987.98
522.55	51676.69
522.72	51686.05
522.89	51433.27
523.07	51826.48
523.24	52093.30
523.41	52137.77
523.58	51746.90
523.75	52329.70
523.92	51934.15
524.10	52678.44
524.27	52413.96
524.44	52346.08
524.61	52460.77
524.78	52617.58
524.96	52507.58
525.13	52783.76
525.30	52940.58
525.47	52938.24
525.64	52643.33
525.81	53013.13
525.98	52961.64
526.16	52858.66
526.33	53230.80
526.50	53254.21
526.67	53134.84
526.84	53263.57
527.01	53581.88
527.18	53125.48
527.36	53275.27
527.53	53228.46
527.70	53715.29
527.87	53811.26
528.04	53361.87
528.21	53792.53
528.38	53872.11
528.55	53914.24
528.72	54078.08
528.89	53780.83
529.07	53647.42
529.24	53801.89
529.41	54157.66
529.58	53979.78
529.75	54057.01
529.92	54110.85
530.09	54312.13
530.26	54190.42
530.43	54298.09
530.60	54155.32
530.77	54082.76
530.94	54504.06
531.11	54188.08
531.28	54632.78
531.46	54611.72
531.63	54644.49
531.80	54501.71
531.97	54939.39
532.14	54923.01
532.31	54684.28
532.48	54941.74
532.65	55042.38
532.82	54796.62
532.99	55096.21
533.16	54796.62
533.33	55033.02
533.50	55423.89
533.67	55061.10
533.84	55016.63
534.01	55358.35
534.18	55124.30
534.35	55550.27
534.52	55281.11
534.69	55494.10
534.86	55599.43
535.03	55379.42
535.20	55494.10
535.37	55173.45
535.54	55540.91
535.71	55257.71
535.88	55922.42
536.05	55922.42
536.22	55971.57
536.38	55657.94
536.55	56016.04
536.72	55793.69
536.89	55796.03
537.06	55789.01
537.23	56238.39
537.40	55891.99
537.57	56219.67
537.74	56076.90
537.91	56177.54
538.08	56324.99
538.25	56172.86
538.42	56444.36
538.59	56353.08
538.75	56259.46
538.92	56278.18
539.09	56535.64
539.26	56439.68
539.43	56554.36
539.60	56481.81
539.77	56596.49
539.94	56697.14
540.11	56657.35
540.28	56856.29
540.44	56849.27
540.61	56846.93
540.78	56467.76
540.95	56671.39
541.12	56575.43
541.29	56486.49
541.46	56734.59
541.62	56851.61
541.79	56940.55
541.96	56657.35
542.13	56938.21
542.30	56729.90
542.47	57212.06
542.63	57003.75
542.80	57116.09
542.97	57354.83
543.14	57483.56
543.31	57244.82
543.48	57420.36
543.64	57729.31
543.81	57609.95
543.98	57705.91
544.15	57642.71
544.32	57757.40
544.48	57755.06
544.65	57930.60
544.82	57787.83
544.99	57439.09
545.16	57890.81
545.32	57652.08
545.49	57853.36
545.66	57982.09
545.83	57808.89
546.00	57783.15
546.16	57914.22
546.33	57759.74
546.50	57921.24
546.67	58066.35
546.83	57719.95
547.00	58169.33
547.17	58293.38
547.34	58099.12
547.50	58190.40
547.67	58284.02
547.84	58183.38
548.00	58391.68
548.17	58766.17
548.34	58485.31
548.51	58482.97
548.67	58571.91
548.84	58513.39
549.01	58431.47
549.18	58473.60
549.34	58508.71
549.51	58628.08
549.68	58752.13
549.84	58527.44
550.01	58546.16
550.18	58487.65
550.34	58667.87
550.51	58759.15
550.68	58564.88
550.84	58513.39
551.01	58906.60
551.18	58894.90
551.34	58791.92
551.51	58894.90
551.68	58777.87
551.84	58885.54
552.01	58698.30
552.18	59040.01
552.34	58782.55
552.51	59032.99
552.68	58981.50
552.84	59023.63
553.01	59107.89
553.18	59161.72
553.34	59152.36
553.51	58908.94
553.67	59112.57
553.84	59194.49
554.01	59271.73
554.17	59150.02
554.34	59288.11
554.51	59147.68
554.67	59400.46
554.84	59372.37
555.00	59185.13
555.17	59278.75
555.33	59447.27
555.50	59147.68
555.67	59358.33
555.83	59428.54
556.00	59327.90
556.16	59693.02
556.33	59641.53
556.50	59327.90
556.66	59622.81
556.83	59227.26
556.99	59587.70
557.16	59571.32
557.32	59910.69
557.49	60027.72
557.65	59629.83
557.82	59707.07
557.98	59625.15
558.15	59667.28
558.32	59784.30
558.48	59606.42
558.65	59774.94
558.81	59873.24
558.98	59901.33
559.14	59870.90
559.31	59882.61
559.47	59948.14
559.64	59980.91
559.80	60062.83
559.97	59859.20
560.13	59852.18
560.30	59910.69
560.46	59847.50
560.63	60058.15
560.79	60170.49
560.96	60013.68
561.12	60193.90
561.29	60257.09
561.45	60149.43
561.61	60051.12
561.78	60039.42
561.94	60060.49
562.11	59983.25
562.27	60193.90
562.44	59978.57
562.60	60163.47
562.77	60217.30
562.93	59980.91
563.10	60177.51
563.26	60107.30
563.42	60659.66
563.59	60406.89
563.75	60296.88
563.92	60264.11
564.08	60182.19
564.24	60472.42
564.41	60317.95
564.57	60313.26
564.74	60385.82
564.90	60523.91
565.07	60257.09
565.23	60444.33
565.39	60308.58
565.56	60390.50
565.72	60495.83
565.88	60360.08
566.05	60467.74
566.21	60437.31
566.38	60458.38
566.54	60477.10
566.70	60566.04
566.87	60790.73
567.03	60243.05
567.19	60491.15
567.36	60589.45
567.52	60704.13
567.68	60734.56
567.85	60694.77
568.01	60666.69
568.17	60472.42
568.34	60764.99
568.50	60594.13
568.66	60542.64
568.83	60708.82
568.99	60647.96
569.15	60528.59
569.32	60816.48
569.48	60470.08
569.64	60734.56
569.81	60732.22
569.97	60587.11
570.13	60701.79
570.30	60722.86
570.46	60692.43
570.62	60706.47
570.78	60708.82
570.95	60809.46
571.11	60884.36
571.27	60828.18
571.43	60769.67
571.60	60912.44
571.76	60676.05
571.92	60893.72
572.09	60814.14
572.25	60872.65
572.41	60896.06
572.57	60786.05
572.74	61062.24
572.90	60940.53
573.06	60886.70
573.22	60844.57
573.38	60865.63
573.55	60795.42
573.71	61106.71
573.87	60966.27
574.03	60818.82
574.20	60917.12
574.36	60919.46
574.52	61097.34
574.68	61015.43
574.84	61034.15
575.01	60762.65
575.17	60947.55
575.33	60837.54
575.49	61003.72
575.65	61057.56
575.82	60954.57
575.98	61006.06
576.14	61169.90
576.30	61020.11
576.46	60917.12
576.62	60867.97
576.79	60903.08
576.95	60912.44
577.11	61247.14
577.27	61069.26
577.43	61165.22
577.59	60889.04
577.75	61003.72
577.92	60963.93
578.08	61102.03
578.24	61106.71
578.40	61235.44
578.56	61090.32
578.72	61062.24
578.88	61052.87
579.04	61371.19
579.21	61240.12
579.37	61169.90
579.53	61317.35
579.69	60874.99
579.85	61183.94
580.01	61116.07
580.17	61052.87
580.33	61109.05
580.49	61347.78
580.65	61233.10
580.82	61167.56
580.98	60879.67
581.14	60945.21
581.30	61312.67
581.46	61247.14
581.62	61162.88
581.78	61078.62
581.94	61275.22
582.10	61289.27
582.26	60968.61
582.42	61216.71
582.58	61179.26
582.74	61106.71
582.90	61109.05
583.06	61279.91
583.22	60975.64
583.38	61303.31
583.54	61237.78
583.70	61256.50
583.86	61160.54
584.02	60933.51
584.18	61263.52
584.34	61197.99
584.50	61338.42
584.66	60989.68
584.82	60914.78
584.98	61230.75
585.14	61219.05
585.30	61064.58
585.46	61251.82
585.62	61359.48
585.78	61324.38
585.94	61179.26
586.10	61219.05
586.26	61354.80
586.42	61155.86
586.58	61469.49
586.74	61277.57
586.90	61317.35
587.06	61352.46
587.22	61286.93
587.38	61403.95
587.54	61567.79
587.70	61389.91
587.86	61434.38
588.02	61373.53
588.18	61422.68
588.34	61396.93
588.49	61331.40
588.65	61193.31
588.81	61380.55
588.97	61443.74
589.13	61408.64
589.29	61506.94
589.45	61544.39
589.61	61532.68
589.77	61717.59
589.93	61579.49
590.08	61574.81
590.24	61549.07
590.40	61666.09
590.56	61740.99
590.72	61441.40
590.88	61485.87
591.04	61492.89
591.20	61656.73
591.35	61626.31
591.51	61853.34
591.67	61602.90
591.83	61602.90
591.99	61499.92
592.15	61584.18
592.31	61684.82
592.46	61691.84
592.62	61549.07
592.78	61813.55
592.94	61792.48
593.10	61675.46
593.26	61843.98
593.41	61565.45
593.57	61581.84
593.73	61628.65
593.89	62045.26
594.05	61916.53
594.20	61464.81
594.36	61853.34
594.52	61635.67
594.68	61633.33
594.84	61712.91
594.99	61890.79
595.15	61787.80
595.31	61684.82
595.47	61565.45
595.62	61605.24
595.78	61715.25
595.94	61834.61
596.10	62031.22
596.25	62010.15
596.41	61914.19
596.57	61808.87
596.73	61900.15
596.88	61736.31
597.04	61876.74
597.20	61972.70
597.36	61953.98
597.51	62035.90
597.67	61811.21
597.83	61839.29
597.99	62054.62
598.14	61900.15
598.30	62054.62
598.46	61970.36
598.61	62021.86
598.77	61949.30
598.93	61951.64
599.09	61666.09
599.24	62134.20
599.40	62045.26
599.56	61853.34
599.71	61834.61
599.87	62017.17
600.03	61986.75
600.18	61902.49
600.34	61890.79
600.50	62071.01
600.65	61993.77
600.81	62024.20
600.97	62148.24
601.12	61998.45
601.28	61963.34
601.44	61944.62
601.59	62012.49
601.75	61921.21
601.91	61986.75
602.06	62075.69
602.22	62237.19
602.37	62206.76
602.53	62117.82
602.69	62021.86
602.84	61972.70
603.00	61923.55
603.16	61923.55
603.31	61895.47
603.47	62131.86
603.62	62047.60
603.78	62033.56
603.94	61883.76
604.09	62099.09
604.25	62010.15
604.40	62040.58
604.56	62005.47
604.71	62265.27
604.87	62026.54
605.03	61982.07
605.18	61982.07
605.34	62199.74
605.49	61846.32
605.65	62218.46
605.80	61958.66
605.96	62298.04
606.12	61937.60
606.27	62010.15
606.43	61822.91
606.58	62188.03
606.74	61858.02
606.89	61975.05
607.05	62085.05
607.20	62155.27
607.36	61982.07
607.51	61989.09
607.67	61860.36
607.82	61958.66
607.98	62017.17
608.13	61792.48
608.29	61860.36
608.44	61944.62
608.60	61843.98
608.75	61822.91
608.91	61776.10
609.06	61621.62
609.22	61935.26
609.37	61846.32
609.53	61989.09
609.68	61867.38
609.84	61825.25
609.99	61949.30
610.15	62152.93
610.30	61984.41
610.46	61968.02
610.61	62014.83
610.76	62068.67
610.92	61797.16
611.07	61982.07
611.23	61666.09
611.38	61815.89
611.54	61743.33
611.69	61829.93
611.84	61928.23
612.00	61902.49
612.15	61595.88
612.31	61836.95
612.46	61549.07
612.62	61663.75
612.77	61614.60
612.92	61904.83
613.08	61523.32
613.23	61570.13
613.39	61684.82
613.54	61495.24
613.69	61787.80
613.85	61722.27
614.00	61855.68
614.15	61638.01
614.31	61593.54
614.46	61862.70
614.62	61588.86
614.77	61661.41
614.92	61684.82
615.08	61492.89
615.23	61563.11
615.38	61630.99
615.54	61645.03
615.69	61630.99
615.84	61553.75
616.00	61598.22
616.15	61635.67
616.30	61621.62
616.46	61408.64
616.61	61558.43
616.76	61565.45
616.92	61153.52
617.07	61425.02
617.22	61361.82
617.37	61455.45
617.53	61773.76
617.68	61588.86
617.83	61595.88
617.99	61621.62
618.14	61460.13
618.29	61492.89
618.45	61375.87
618.60	61312.67
618.75	61249.48
618.90	61286.93
619.06	61535.02
619.21	61460.13
619.36	61488.21
619.51	61439.06
619.67	61228.41
619.82	61361.82
619.97	61483.53
620.12	61352.46
620.28	61305.65
620.43	61317.35
620.58	61272.88
620.73	60985.00
620.89	61352.46
621.04	61408.64
621.19	61116.07
621.34	61202.67
621.49	61233.10
621.65	61146.50
621.80	61366.51
621.95	60999.04
622.10	61244.80
622.25	61139.47
622.41	61272.88
622.56	61127.77
622.71	61102.03
622.86	60940.53
623.01	61256.50
623.16	61045.85
623.32	61003.72
623.47	61223.73
623.62	60896.06
623.77	60874.99
623.92	60992.02
624.07	61197.99
624.23	61052.87
624.38	60968.61
624.53	60905.42
624.68	60786.05
624.83	61043.51
624.98	61097.34
625.13	61036.49
625.29	61022.45
625.44	60788.39
625.59	60725.20
625.74	60678.39
625.89	60795.42
626.04	60781.37
626.19	60575.40
626.34	60652.64
626.49	60526.25
626.65	60472.42
626.80	61006.06
626.95	60533.28
627.10	60678.39
627.25	60753.29
627.40	60697.11
627.55	60451.36
627.70	60591.79
627.85	60535.62
628.00	60624.56
628.15	60509.87
628.30	60549.66
628.45	60362.42
628.60	60409.23
628.76	60369.44
628.91	60526.25
629.06	60507.53
629.21	60697.11
629.36	60362.42
629.51	60505.19
629.66	60324.97
629.81	60121.34
629.96	60245.39
630.11	60378.80
630.26	60547.32
630.41	60418.59
630.56	60331.99
630.71	60434.97
630.86	60472.42
631.01	60336.67
631.16	60385.82
631.31	60126.02
631.46	60116.66
631.61	60257.09
631.76	60360.08
631.91	60207.94
632.06	60299.22
632.21	60378.80
632.36	60219.64
632.51	59817.07
632.66	60128.36
632.81	60144.75
632.96	60449.02
633.10	60177.51
633.25	60184.54
633.40	60165.81
633.55	60116.66
633.70	60060.49
633.85	60016.02
634.00	59882.61
634.15	59880.27
634.30	59971.55
634.45	59910.69
634.60	60179.85
634.75	60259.43
634.90	59887.29
635.05	59887.29
635.19	59891.97
635.34	60027.72
635.49	59873.24
635.64	60079.21
635.79	59891.97
635.94	60046.44
636.09	59833.46
636.24	59760.90
636.39	59723.45
636.53	60001.97
636.68	59760.90
636.83	59716.43
636.98	59774.94
637.13	59416.84
637.28	59714.09
637.43	59943.46
637.57	59686.00
637.72	59597.06
637.87	59597.06
638.02	59700.04
638.17	59674.30
638.32	59629.83
638.46	59517.48
638.61	59779.62
638.76	59407.48
638.91	59578.34
639.06	59477.69
639.20	59245.98
639.35	59412.16
639.50	59360.67
639.65	59440.24
639.80	59753.88
639.94	59363.01
640.09	59456.63
640.24	59503.44
640.39	59175.76
640.54	59311.52
640.68	59346.62
640.83	59400.46
640.98	59096.19
641.13	59182.79
641.27	59461.31
641.42	59398.12
641.57	59236.62
641.72	59210.87
641.86	59124.27
642.01	59128.95
642.16	59124.27
642.31	59007.25
642.45	59327.90
642.60	59217.89
642.75	59278.75
642.90	59435.56
643.04	59330.24
643.19	59093.85
643.34	59133.63
643.48	59147.68
643.63	59124.27
643.78	59018.95
643.93	59124.27
644.07	58951.07
644.22	59164.06
644.37	58852.77
644.51	59070.44
644.66	59044.69
644.81	58871.49
644.95	58969.80
645.10	59023.63
645.25	58892.56
645.39	58960.44
645.54	58752.13
645.69	58890.22
645.83	58824.68
645.98	58614.04
646.13	58937.03
646.27	58864.47
646.42	58569.57
646.57	58604.67
646.71	58827.02
646.86	58789.58
647.00	58937.03
647.15	58674.89
647.30	58478.28
647.44	58773.19
647.59	58939.37
647.74	58745.11
647.88	58710.00
648.03	58845.75
648.17	58691.27
648.32	58604.67
648.47	58557.86
648.61	58571.91
648.76	58534.46
648.90	58674.89
649.05	58522.76
649.20	58780.21
649.34	58569.57
649.49	58681.91
649.63	58658.51
649.78	58506.37
649.92	58394.03
650.07	58660.85
650.21	58377.64
650.36	58410.41
650.51	58319.13
650.65	58511.05
650.80	58674.89
650.94	58277.00
651.09	58188.06
651.23	57935.28
651.38	58361.26
651.52	58253.59
651.67	58237.21
651.81	58260.62
651.96	57939.96
652.10	58157.63
652.25	58342.53
652.39	58026.56
652.54	58047.63
652.68	57872.09
652.83	58080.39
652.97	58241.89
653.12	57977.41
653.26	57972.73
653.41	58300.40
653.55	58281.68
653.70	57965.71
653.84	58082.73
653.99	58017.20
654.13	57930.60
654.27	58073.37
654.42	57848.68
654.56	57972.73
654.71	58012.52
654.85	58192.74
655.00	58071.03
655.14	57881.45
655.29	57663.78
655.43	57783.15
655.57	57743.36
655.72	57708.25
655.86	57895.49
656.01	57719.95
656.15	57764.42
656.30	57844.00
656.44	57872.09
656.58	57787.83
656.73	57982.09
656.87	57607.61
657.01	57764.42
657.16	57719.95
657.30	57855.70
657.45	57408.66
657.59	57748.04
657.73	57174.61
657.88	57425.04
658.02	57207.37
658.16	57560.79
658.31	57202.69
658.45	57305.68
658.60	57378.23
658.74	57343.12
658.88	57483.56
659.03	57167.58
659.17	57291.63
659.31	57275.25
659.46	57242.48
659.60	57132.48
659.74	57277.59
659.89	57151.20
660.03	57017.79
660.17	57237.80
660.32	56959.28
660.46	57062.26
660.60	56914.81
660.74	56987.36
660.89	57104.39
661.03	56907.79
661.17	56755.65
661.32	56655.01
661.46	56643.30
661.60	56694.80
661.74	56647.99
661.89	56549.68
662.03	56523.94
662.17	56425.64
662.31	56418.61
662.46	56765.01
662.60	56573.09
662.74	56633.94
662.88	56692.46
663.03	56371.80
663.17	56355.42
663.31	56037.11
663.45	56346.06
663.60	55976.25
663.74	55849.86
663.88	56086.26
664.02	56037.11
664.17	56280.52
664.31	55901.36
664.45	56025.40
664.59	56046.47
664.73	55959.87
664.88	55931.78
665.02	55360.69
665.16	55313.88
665.30	55767.94
665.44	55533.89
665.59	55739.86
665.73	55650.92
665.87	55313.88
666.01	55571.34
666.15	55590.06
666.29	55494.10
666.44	55842.84
666.58	55210.90
666.72	55145.36
666.86	55238.98
667.00	55215.58
667.14	55091.53
667.28	54983.86
667.43	54859.82
667.57	54976.84
667.71	54901.95
667.85	54665.55
667.99	55124.30
668.13	55157.06
668.27	54761.51
668.41	55096.21
668.56	54581.29
668.70	54911.31
668.84	54518.10
668.98	54761.51
669.12	54623.42
669.26	54993.23
669.40	54394.05
669.54	54522.78
669.68	54482.99
669.82	54192.76
669.96	54433.84
670.10	54279.36
670.25	54506.40
670.39	54291.07
670.53	54148.29
670.67	54073.40
670.81	54260.64
670.95	54113.19
671.09	53858.07
671.23	53794.87
671.37	53661.46
671.51	53780.83
671.65	54038.29
671.79	53715.29
671.93	53762.11
672.07	53820.62
672.21	53258.89
672.35	53027.18
672.49	53141.86
672.63	52846.96
672.77	53284.64
672.91	52994.41
673.05	52931.22
673.19	52893.77
673.33	52650.35
673.47	52816.53
673.61	52938.24
673.75	52718.23
673.89	52706.52
674.03	52523.96
674.17	52559.07
674.31	52280.55
674.45	52079.26
674.59	52432.68
674.73	52065.22
674.87	51875.63
675.01	51711.80
675.15	52060.54
675.29	51770.31
675.43	51852.23
675.56	51704.77
675.70	51306.88
675.84	51669.67
675.98	50298.11
676.12	51271.78
676.26	51447.32
676.40	51215.60
676.54	51143.05
676.68	51442.63
676.82	50281.73
676.96	50806.01
677.10	50508.76
677.23	50351.94
677.37	50174.06
677.51	50588.34
677.65	50038.31
677.79	49265.94
677.93	49399.35
678.07	49794.90
678.21	49158.27
678.34	49357.22
678.48	49144.23
678.62	49097.42
678.76	48896.13
678.90	48985.07
679.04	48697.19
679.18	49209.76
679.31	48432.71
679.45	48318.02
679.59	48395.26
679.73	48987.41
679.87	48151.84
680.00	47770.33
680.14	47786.72
680.28	47632.24
680.42	47608.84
680.56	47257.76
680.70	47065.83
680.83	47063.49
680.97	46761.56
681.11	47351.38
681.25	47241.37
681.39	46869.23
681.52	47351.38
681.66	46822.42
681.80	46497.08
681.94	46089.83
682.07	46080.47
682.21	45785.56
682.35	45633.42
682.49	45516.40
682.62	45525.76
682.76	46106.21
682.90	45720.02
683.04	45301.07
683.17	45233.19
683.31	44957.01
683.45	45045.95
683.59	45052.97
683.72	44626.99
683.86	44804.88
684.00	44271.23
684.13	44685.51
684.27	44147.18
684.41	44184.63
684.55	43735.25
684.68	44072.29
684.82	43856.96
684.96	43208.63
685.09	43484.81
685.23	43168.84
685.37	42880.95
685.50	43033.09
685.64	42518.17
685.78	43068.20
685.91	42553.28
686.05	42314.55
686.19	42057.09
686.32	42043.04
686.46	41654.51
686.60	41188.75
686.73	41411.10
686.87	41345.56
687.01	41401.74
687.14	40589.57
687.28	40730.00
687.42	40673.83
687.55	40760.43
687.69	40776.81
687.82	40484.25
687.96	40020.82
688.10	39842.94
688.23	40388.28
688.37	39700.17
688.50	39761.02
688.64	39688.46
688.78	39206.31
688.91	38827.15
689.05	38738.21
689.18	38794.38
689.32	38139.03
689.46	38007.96
689.59	38370.74
689.73	37958.81
689.86	37872.21
690.00	37694.33
690.13	38089.88
690.27	37921.36
690.41	37647.52
690.54	37439.21
690.68	37151.32
690.81	37223.88
690.95	36870.46
691.08	37287.07
691.22	36935.99
691.35	36779.18
691.49	36245.54
691.62	36683.22
691.76	36261.92
691.89	35704.87
692.03	35751.68
692.16	35707.21
692.30	35641.68
692.43	35620.61
692.57	35030.80
692.70	34689.08
692.84	34948.88
692.97	34644.61
693.11	34831.85
693.24	34534.60
693.38	34419.92
693.51	33989.26
693.65	33991.60
693.78	33596.05
693.92	34143.74
694.05	33972.88
694.19	33352.63
694.32	33680.31
694.45	33198.16
694.59	33364.34
694.72	32713.67
694.86	33251.99
694.99	32341.52
695.13	32931.34
695.26	32142.58
695.39	31805.54
695.53	32098.11
695.66	31960.02
695.80	31967.04
695.93	31342.11
696.07	31377.22
696.20	30801.45
696.33	30920.82
696.47	31023.80
696.60	31140.83
696.73	30946.56
696.87	30829.54
697.00	30600.16
697.14	30459.73
697.27	30279.51
697.40	30373.13
697.54	29682.67
697.67	29848.85
697.80	29638.20
697.94	29603.10
698.07	29151.37
698.21	29539.90
698.34	29476.71
698.47	29060.09
698.61	28395.38
698.74	28879.87
698.87	28711.35
699.01	28308.78
699.14	28584.96
699.27	28063.02
699.40	28545.17
699.54	28383.68
699.67	28060.68
699.80	27880.46
699.94	27615.98
700.07	27711.94
700.20	27260.22
700.34	26852.97
700.47	26852.97
700.60	26749.98
700.73	26361.45
700.87	26422.31
701.00	25956.54
701.13	26108.68
701.26	26307.62
701.40	26066.55
701.53	25867.60
701.66	26134.42
701.79	25411.20
701.93	25406.52
702.06	25163.10
702.19	24650.52
702.32	25425.24
702.46	25064.80
702.59	24940.75
702.72	24617.75
702.85	24966.49
702.99	24596.69
703.12	24350.93
703.25	24379.02
703.38	24034.96
703.51	24053.69
703.65	23744.73
703.78	23704.95
703.91	23426.42
704.04	23538.77
704.17	23531.75
704.31	23236.84
704.44	23356.21
704.57	23044.91
704.70	23044.91
704.83	22387.22
704.96	22445.74
705.10	22359.14
705.23	22569.79
>>>>>End Processed Spectral Data<<<<<
