SpectraSuite Data File
++++++++++++++++++++++++++++++++++++
Date: Fri Oct 25 10:43:32 EDT 2013
User: price-jones
Dark Spectrum Present: No
Reference Spectrum Present: No
Number of Sampled Component Spectra: 1
Spectrometers: USB2+H05261
Integration Time (usec): 100000 (USB2+H05261)
Spectra Averaged: 1 (USB2+H05261)
Boxcar Smoothing: 0 (USB2+H05261)
Correct for Electrical Dark: No (USB2+H05261)
Strobe/Lamp Enabled: No (USB2+H05261)
Correct for Detector Non-linearity: No (USB2+H05261)
Correct for Stray Light: No (USB2+H05261)
Number of Pixels in Processed Spectrum: 2048
>>>>>Begin Processed Spectral Data<<<<<
365.73	110.01
365.92	110.01
366.12	110.01
366.32	58.51
366.52	44.47
366.72	58.51
366.91	56.17
367.11	46.81
367.31	0.00
367.51	42.13
367.70	46.81
367.90	0.00
368.10	7.02
368.30	18.72
368.49	0.00
368.69	58.51
368.89	23.41
369.09	39.79
369.28	18.72
369.48	30.43
369.68	93.62
369.87	67.88
370.07	119.37
370.27	177.88
370.47	262.14
370.66	355.76
370.86	418.96
371.06	507.90
371.25	411.93
371.45	404.91
371.65	454.06
371.84	444.70
372.04	444.70
372.24	479.81
372.44	519.60
372.63	503.22
372.83	475.13
373.03	517.26
373.22	482.15
373.42	540.66
373.62	510.24
373.81	489.17
374.01	608.54
374.21	547.69
374.40	482.15
374.60	554.71
374.79	575.77
374.99	496.19
375.19	571.09
375.38	655.35
375.58	526.62
375.78	631.94
375.97	608.54
376.17	606.20
376.37	613.22
376.56	624.92
376.76	599.18
376.95	657.69
377.15	634.29
377.35	622.58
377.54	606.20
377.74	613.22
377.93	627.26
378.13	671.73
378.33	683.44
378.52	662.37
378.72	690.46
378.91	716.20
379.11	737.27
379.31	620.24
379.50	730.25
379.70	667.05
379.89	660.03
380.09	748.97
380.28	744.29
380.48	688.12
380.68	674.07
380.87	636.63
381.07	753.65
381.26	713.86
381.46	713.86
381.65	692.80
381.85	697.48
382.04	741.95
382.24	692.80
382.43	688.12
382.63	702.16
382.83	781.74
383.02	713.86
383.22	812.17
383.41	664.71
383.61	741.95
383.80	763.01
384.00	744.29
384.19	758.33
384.39	812.17
384.58	753.65
384.78	777.06
384.97	760.67
385.17	805.14
385.36	847.27
385.56	814.51
385.75	774.72
385.95	821.53
386.14	819.19
386.34	837.91
386.53	793.44
386.72	812.17
386.92	835.57
387.11	884.72
387.31	938.55
387.50	868.34
387.70	826.21
387.89	805.14
388.09	835.57
388.28	866.00
388.48	908.13
388.67	889.40
388.86	912.81
389.06	968.98
389.25	1015.79
389.45	926.85
389.64	947.92
389.84	976.00
390.03	976.00
390.22	1097.71
390.42	1022.81
390.61	1008.77
390.81	1011.11
391.00	1146.86
391.19	1006.43
391.39	1109.41
391.58	997.07
391.78	1081.33
391.97	1050.90
392.16	1004.09
392.36	1078.99
392.55	1081.33
392.75	966.64
392.94	976.00
393.13	1069.62
393.33	1006.43
393.52	1013.45
393.71	1074.31
393.91	1203.04
394.10	1027.50
394.29	1219.42
394.49	1128.14
394.68	1186.65
394.88	1163.25
395.07	1256.87
395.26	1163.25
395.46	1301.34
395.65	1268.57
395.84	1268.57
396.04	1224.10
396.23	1217.08
396.42	1095.37
396.62	1090.69
396.81	1266.23
397.00	1313.04
397.19	1266.23
397.39	1221.76
397.58	1387.94
397.77	1329.42
397.97	1366.87
398.16	1390.28
398.35	1500.28
398.55	1434.75
398.74	1493.26
398.93	1572.84
399.12	1500.28
399.32	1563.48
399.51	1472.20
399.70	1582.20
399.90	1605.61
400.09	1511.99
400.28	1551.78
400.47	1579.86
400.67	1631.35
400.86	1626.67
401.05	1593.90
401.24	1614.97
401.44	1703.91
401.63	1722.63
401.82	1647.74
402.01	1720.29
402.21	1687.53
402.40	1764.76
402.59	1762.42
402.78	1830.30
402.97	1757.74
403.17	1748.38
403.36	1874.77
403.55	1811.57
403.74	1806.89
403.93	1863.07
404.13	1905.20
404.32	1809.23
404.51	1820.94
404.70	2005.84
404.89	1846.68
405.09	1998.82
405.28	1884.13
405.47	1975.41
405.66	1935.62
405.85	1991.80
406.05	1923.92
406.24	1907.54
406.43	1987.11
406.62	2024.56
406.81	2073.71
407.00	2047.97
407.20	2057.33
407.39	2064.35
407.58	2045.63
407.77	2115.84
407.96	2153.29
408.15	2267.98
408.34	2120.53
408.54	2244.57
408.73	2260.96
408.92	2169.68
409.11	2249.25
409.30	2289.04
409.49	2256.28
409.68	2211.81
409.87	2207.13
410.07	2253.94
410.26	2370.96
410.45	2387.35
410.64	2445.86
410.83	2394.37
411.02	2457.56
411.21	2576.93
411.40	2523.10
411.59	2572.25
411.78	2569.91
411.98	2593.31
412.17	2696.30
412.36	2696.30
412.55	2612.04
412.74	2750.13
412.93	2703.32
413.12	2586.29
413.31	2806.30
413.50	2750.13
413.69	2799.28
413.88	2796.94
414.07	2951.42
414.26	2899.92
414.45	2839.07
414.64	3108.23
414.83	3012.27
415.02	3042.70
415.22	3119.93
415.41	3126.96
415.60	3012.27
415.79	3117.59
415.98	3302.50
416.17	3243.98
416.36	3143.34
416.55	3148.02
416.74	3159.72
416.93	3297.81
417.12	3375.05
417.31	3260.37
417.50	3251.00
417.69	3431.23
417.88	3426.54
418.07	3339.94
418.26	3372.71
418.45	3461.65
418.64	3571.66
418.83	3468.67
419.02	3461.65
419.21	3538.89
419.39	3559.95
419.58	3513.14
419.77	3552.93
419.96	3765.92
420.15	3768.26
420.34	3618.47
420.53	3679.32
420.72	3871.25
420.91	3894.65
421.10	3845.50
421.29	3786.99
421.48	3786.99
421.67	3857.20
421.86	3782.31
422.05	3803.37
422.24	3789.33
422.43	3840.82
422.61	3845.50
422.80	3716.77
422.99	3950.82
423.18	3887.63
423.37	3976.57
423.56	3822.09
423.75	3913.38
423.94	3831.46
424.13	3648.90
424.32	3728.47
424.50	3950.82
424.69	4100.62
424.88	3911.04
425.07	3913.38
425.26	3843.16
425.45	3815.07
425.64	3794.01
425.83	3953.16
426.01	3985.93
426.20	4018.70
426.39	4014.02
426.58	3882.95
426.77	3922.74
426.96	3929.76
427.15	3957.85
427.33	4011.68
427.52	4128.70
427.71	4163.81
427.90	4124.02
428.09	4135.73
428.28	4126.36
428.46	4154.45
428.65	4180.20
428.84	4114.66
429.03	4142.75
429.22	4077.21
429.40	4149.77
429.59	4044.45
429.78	3889.97
429.97	3922.74
430.16	4070.19
430.34	4084.23
430.53	4032.74
430.72	4198.92
430.91	4234.03
431.10	4250.41
431.28	4227.01
431.47	4617.88
431.66	4496.17
431.85	4428.29
432.03	4589.79
432.22	4807.46
432.41	4559.36
432.60	4550.00
432.79	4690.43
432.97	4662.35
433.16	4755.97
433.35	4685.75
433.54	4610.86
433.72	4652.98
433.91	4587.45
434.10	4662.35
434.28	4732.56
434.47	4779.37
434.66	4896.40
434.85	4940.87
435.03	4940.87
435.22	4802.78
435.41	5123.43
435.59	5135.14
435.78	5034.49
435.97	5151.52
436.16	5116.41
436.34	5093.01
436.53	5259.18
436.72	5191.31
436.90	5107.05
437.09	5109.39
437.28	5121.09
437.46	5165.56
437.65	5078.96
437.84	5172.58
438.02	4985.34
438.21	5060.24
438.40	4987.68
438.58	5329.40
438.77	5334.08
438.96	5430.04
439.14	5621.97
439.33	5664.10
439.52	5437.06
439.70	5570.48
439.89	5802.19
440.08	5788.14
440.26	5570.48
440.45	5696.86
440.63	5795.17
440.82	5949.64
441.01	5841.98
441.19	5870.06
441.38	6043.26
441.57	6230.51
441.75	6155.61
441.94	6099.44
442.12	6303.06
442.31	6211.78
442.50	6282.00
442.68	6216.46
442.87	6200.08
443.05	6377.96
443.24	6298.38
443.43	6396.68
443.61	6265.61
443.80	6642.44
443.98	6366.26
444.17	6148.59
444.35	6553.50
444.54	6572.22
444.73	6560.52
444.91	6258.59
445.10	6413.07
445.28	6431.79
445.47	6338.17
445.65	6328.81
445.84	6445.84
446.02	6455.20
446.21	6429.45
446.39	6534.78
446.58	6553.50
446.77	6555.84
446.95	6424.77
447.14	6600.31
447.32	6778.19
447.51	6607.33
447.69	6672.87
447.88	6558.18
448.06	6799.26
448.25	6485.62
448.43	6754.79
448.62	6731.38
448.80	6619.04
448.99	6658.82
449.17	6874.15
449.36	6689.25
449.54	6883.52
449.73	7005.22
449.91	6991.18
450.10	7148.00
450.28	7098.84
450.46	7241.62
450.65	7262.68
450.83	7166.72
451.02	7162.04
451.20	7330.56
451.39	7056.72
451.57	7269.70
451.76	7007.56
451.94	7159.70
452.13	7311.83
452.31	7030.97
452.49	6920.96
452.68	7133.95
452.86	7253.32
453.05	7269.70
453.23	7346.94
453.42	7211.19
453.60	7232.26
453.78	7529.50
453.97	7290.77
454.15	7524.82
454.34	7337.58
454.52	7545.89
454.70	7524.82
454.89	7466.31
455.07	7571.63
455.26	7487.37
455.44	7702.70
455.62	7763.56
455.81	7765.90
455.99	7599.72
456.17	7819.73
456.36	7644.19
456.54	7871.22
456.73	7871.22
456.91	8046.76
457.09	7957.82
457.28	8156.77
457.46	7981.23
457.64	8044.42
457.83	7925.05
458.01	7831.43
458.19	8049.10
458.38	7969.52
458.56	8009.31
458.74	8325.29
458.93	8119.32
459.11	8002.29
459.29	8217.62
459.48	8458.70
459.66	8297.20
459.84	8442.31
460.03	8477.42
460.21	8388.48
460.39	8383.80
460.57	8245.71
460.76	8505.51
460.94	8739.56
461.12	8554.66
461.31	8652.96
461.49	8636.58
461.67	8477.42
461.85	8685.73
462.04	8807.44
462.22	9380.87
462.40	8926.80
462.59	8861.27
462.77	8800.41
462.95	8994.68
463.13	8676.37
463.32	8887.01
463.50	8767.65
463.68	8833.18
463.86	8901.06
464.05	8950.21
464.23	8982.98
464.41	8945.53
464.59	8795.73
464.78	9142.13
464.96	9011.06
465.14	8975.95
465.32	9177.24
465.50	9071.92
465.69	9336.40
465.87	9144.47
466.05	9212.35
466.23	9160.86
466.41	9034.47
466.60	9343.42
466.78	9128.09
466.96	9170.22
467.14	9172.56
467.32	9233.41
467.51	9336.40
467.69	9219.37
467.87	9137.45
468.05	9502.58
468.23	9296.61
468.41	9387.89
468.60	9458.10
468.78	9748.33
468.96	9525.98
469.14	9682.80
469.32	9783.44
469.50	9474.49
469.69	9678.12
469.87	9647.69
470.05	9877.06
470.23	9816.21
470.41	9858.34
470.59	9685.14
470.77	9727.27
470.95	9958.98
471.14	9963.66
471.32	10031.54
471.50	10218.78
471.68	10239.84
471.86	10317.08
472.04	10263.25
472.22	10464.54
472.40	10087.71
472.58	10363.89
472.77	10518.37
472.95	10513.69
473.13	10850.72
473.31	10403.68
473.49	10518.37
473.67	10637.73
473.85	10544.11
474.03	10813.28
474.21	10963.07
474.39	11059.03
474.57	10675.18
474.75	11157.33
474.93	11192.44
475.12	11169.04
475.30	11452.24
475.48	10942.00
475.66	11192.44
475.84	11133.93
476.02	11332.87
476.20	11143.29
476.38	11456.92
476.56	11634.80
476.74	11529.48
476.92	11630.12
477.10	11744.81
477.28	11861.84
477.46	12039.72
477.64	12142.70
477.82	12278.45
478.00	12365.05
478.18	12432.93
478.36	12425.90
478.54	12484.42
478.72	12545.27
478.90	12945.50
479.08	13062.53
479.26	12823.80
479.44	13121.04
479.62	13006.36
479.80	13186.58
479.98	13334.03
480.16	13420.63
480.34	13460.42
480.52	13593.83
480.70	13453.40
480.88	13584.47
481.06	13771.71
481.24	13862.99
481.41	14284.29
481.59	14221.10
481.77	14225.78
481.95	14176.62
482.13	14630.69
482.31	14473.87
482.49	14654.09
482.67	14532.39
482.85	15033.26
483.03	15250.93
483.21	15044.96
483.39	15269.66
483.57	15335.19
483.74	15363.28
483.92	15667.55
484.10	15295.40
484.28	15452.22
484.46	15840.75
484.64	16025.65
484.82	15983.52
485.00	16250.34
485.18	16259.70
485.35	16444.60
485.53	16105.23
485.71	15962.45
485.89	16128.63
486.07	16346.30
486.25	16400.13
486.43	16655.25
486.61	17186.55
486.78	17294.22
486.96	17266.13
487.14	17436.99
487.32	17769.35
487.50	17600.83
487.68	17975.31
487.85	18415.34
488.03	18242.14
488.21	18740.67
488.39	18218.73
488.57	18513.64
488.75	18604.92
488.92	18813.23
489.10	19136.22
489.28	19332.82
489.46	19431.13
489.64	19697.95
489.81	20156.69
489.99	20233.93
490.17	20135.63
490.35	20182.44
490.53	20418.83
490.70	20257.34
490.88	20114.56
491.06	20741.83
491.24	20465.64
491.41	20613.10
491.59	20631.82
491.77	20664.59
491.95	20798.00
492.13	21057.80
492.30	21359.73
492.48	21511.86
492.66	21743.58
492.84	21748.26
493.01	21862.94
493.19	22134.45
493.37	22207.00
493.54	22078.27
493.72	21891.03
493.90	22574.47
494.08	22618.94
494.25	22939.59
494.43	22965.34
494.61	23302.37
494.79	23449.83
494.96	23381.95
495.14	23295.35
495.32	23618.35
495.49	23442.81
495.67	23480.25
495.85	23775.16
496.02	24196.46
496.20	24287.74
496.38	24079.43
496.55	24173.05
496.73	24645.84
496.91	24519.45
497.09	24652.86
497.26	24645.84
497.44	24947.77
497.62	25209.91
497.79	24966.49
497.97	25289.49
498.14	25359.70
498.32	25238.00
498.50	25598.44
498.67	25914.41
498.85	25738.87
499.03	26279.54
499.20	25935.48
499.38	26141.44
499.56	26066.55
499.73	25778.66
499.91	26178.89
500.08	26597.85
500.26	26389.54
500.44	26228.04
500.61	26504.23
500.79	26466.78
500.97	26742.96
501.14	27002.76
501.32	26745.30
501.49	26857.65
501.67	27080.00
501.84	26962.97
502.02	26911.48
502.20	27679.18
502.37	27681.52
502.55	27337.46
502.72	27630.02
502.90	28126.22
503.07	27828.97
503.25	28006.85
503.43	27690.88
503.60	28039.62
503.78	27969.40
503.95	27676.83
504.13	28063.02
504.30	28610.71
504.48	28332.18
504.65	28570.92
504.83	29055.41
505.01	28648.16
505.18	29064.77
505.36	29099.88
505.53	29017.96
505.71	29273.08
505.88	29483.73
506.06	29453.30
506.23	29329.25
506.41	29242.65
506.58	29479.05
506.76	29495.43
506.93	29486.07
507.11	29479.05
507.28	29785.66
507.46	29628.84
507.63	29905.02
507.81	29832.47
507.98	29677.99
508.16	29923.75
508.33	30352.07
508.50	30646.97
508.68	30412.92
508.85	31075.29
509.03	30574.42
509.20	30785.07
509.38	31087.00
509.55	31192.32
509.73	31033.16
509.90	31126.78
510.08	30857.62
510.25	31597.23
510.42	31342.11
510.60	31522.34
510.77	31276.58
510.95	31711.92
511.12	31534.04
511.30	31924.91
511.47	31880.44
511.64	32187.05
511.82	32168.32
511.99	31740.00
512.17	32290.03
512.34	32030.23
512.51	32154.28
512.69	32301.73
512.86	32531.11
513.04	32402.38
513.21	32655.15
513.38	32540.47
513.56	32610.68
513.73	32603.66
513.90	32713.67
514.08	32753.46
514.25	32727.71
514.43	33088.15
514.60	32994.53
514.77	33083.47
514.95	33167.73
515.12	33205.18
515.29	33483.70
515.47	33404.13
515.64	33696.69
515.81	33270.72
515.99	33670.95
516.16	33233.27
516.33	33357.32
516.51	33572.64
516.68	32940.70
516.85	32919.63
517.03	33296.46
517.20	33687.33
517.37	34057.14
517.54	34284.17
517.72	33888.62
517.89	33551.58
518.06	33528.17
518.24	33776.27
518.41	34092.24
518.58	34246.72
518.75	34174.16
518.93	34693.76
519.10	34377.79
519.27	34391.83
519.45	34918.45
519.62	35110.38
519.79	35016.75
519.96	35285.92
520.14	35157.19
520.31	35030.80
520.48	35208.68
520.65	35297.62
520.83	35248.47
521.00	35810.20
521.17	35314.00
521.34	35571.46
521.52	35824.24
521.69	36264.26
521.86	36086.38
522.03	36341.50
522.20	36367.24
522.38	36282.98
522.55	36168.30
522.72	36318.09
522.89	36187.02
523.07	36643.43
523.24	36460.87
523.41	36837.69
523.58	36446.82
523.75	36875.14
523.92	36940.68
524.10	36751.09
524.27	36957.06
524.44	36975.78
524.61	36856.42
524.78	37284.73
524.96	37261.33
525.13	37528.15
525.30	37060.04
525.47	37495.38
525.64	37394.74
525.81	37581.98
525.98	37144.30
526.16	37085.79
526.33	37462.61
526.50	37361.97
526.67	37008.55
526.84	37148.98
527.01	37233.24
527.18	37315.16
527.36	38073.49
527.53	38007.96
527.70	38092.22
527.87	37839.44
528.04	38050.09
528.21	38012.64
528.38	38375.42
528.55	38424.57
528.72	37982.21
528.89	38738.21
529.07	38497.13
529.24	38270.10
529.41	38649.27
529.58	38197.54
529.75	38604.80
529.92	38511.17
530.09	38417.55
530.26	38621.18
530.43	38965.24
530.60	38726.50
530.77	38829.49
530.94	39243.76
531.11	39065.88
531.28	39241.42
531.46	39161.84
531.63	39337.38
531.80	38934.81
531.97	39089.29
532.14	38885.66
532.31	38895.02
532.48	39260.15
532.65	39222.70
532.82	39260.15
532.99	39356.11
533.16	39393.56
533.33	39796.13
533.50	40112.10
533.67	39311.64
533.84	39337.38
534.01	39728.25
534.18	39742.30
534.35	40245.51
534.52	39910.82
534.69	40128.48
534.86	40306.37
535.03	40095.72
535.20	40650.42
535.37	40549.78
535.54	40730.00
535.71	40123.80
535.88	40612.98
536.05	40184.66
536.22	40580.21
536.38	40336.79
536.55	40285.30
536.72	40453.82
536.89	40233.81
537.06	40444.46
537.23	41141.94
537.40	40940.65
537.57	40641.06
537.74	41104.49
537.91	40921.93
538.08	40762.77
538.25	40727.66
538.42	41127.89
538.59	41085.76
538.75	40919.59
538.92	41249.60
539.09	41572.60
539.26	41511.74
539.43	40942.99
539.60	40849.37
539.77	41109.17
539.94	41460.25
540.11	40566.16
540.28	41181.73
540.44	41312.80
540.61	41003.85
540.78	41081.08
540.95	40919.59
541.12	41148.96
541.29	41179.39
541.46	41930.70
541.62	42057.09
541.79	41677.92
541.96	41364.29
542.13	41944.74
542.30	41916.65
542.47	41839.42
542.63	41841.76
542.80	41668.56
542.97	41972.83
543.14	42429.23
543.31	42314.55
543.48	42478.38
543.64	42880.95
543.81	42663.28
543.98	42340.29
544.15	42579.03
544.32	42497.11
544.48	42787.33
544.65	42508.81
544.82	42586.05
544.99	42445.62
545.16	42541.58
545.32	42756.91
545.49	42925.42
545.66	42918.40
545.83	43021.39
546.00	42707.76
546.16	42733.50
546.33	42983.94
546.50	42408.17
546.67	42831.80
546.83	42780.31
547.00	43098.62
547.17	43049.47
547.34	42946.49
547.50	43377.15
547.67	43332.68
547.84	43203.95
548.00	43665.03
548.17	43412.26
548.34	43323.32
548.51	43765.68
548.67	43629.93
548.84	43803.13
549.01	43505.88
549.18	43318.64
549.34	43725.89
549.51	43840.57
549.68	43517.58
549.84	43629.93
550.01	43861.64
550.18	43388.85
550.34	43545.67
550.51	43840.57
550.68	43606.52
550.84	43276.51
551.01	43838.23
551.18	43360.76
551.34	43758.66
551.51	44182.29
551.68	43789.08
551.84	43957.60
552.01	43522.26
552.18	43955.26
552.34	43674.40
552.51	44163.57
552.68	43906.11
552.84	44091.01
553.01	44519.33
553.18	43821.85
553.34	44336.77
553.51	44273.57
553.67	44467.84
553.84	44182.29
554.01	44341.45
554.17	44664.44
554.34	44470.18
554.51	44182.29
554.67	44580.18
554.84	44381.24
555.00	44360.17
555.17	44364.85
555.33	44732.32
555.50	44596.57
555.67	44282.94
555.83	44484.22
556.00	44474.86
556.16	44659.76
556.33	44638.70
556.50	44399.96
556.66	44514.65
556.83	43910.79
556.99	44666.78
557.16	44271.23
557.32	44690.19
557.49	44964.03
557.65	44645.72
557.82	44889.13
557.98	44945.31
558.15	44928.92
558.32	45006.16
558.48	44493.58
558.65	44935.95
558.81	44540.39
558.98	44236.12
559.14	45139.57
559.31	44949.99
559.47	44575.50
559.64	45038.93
559.80	45230.85
559.97	44722.96
560.13	44706.57
560.30	44996.80
560.46	44942.97
560.63	45205.11
560.79	45574.91
560.96	45495.33
561.12	45148.93
561.29	45345.54
561.45	44816.58
561.61	44790.83
561.78	44697.21
561.94	45141.91
562.11	44652.74
562.27	45090.42
562.44	45153.62
562.60	45539.80
562.77	45553.85
562.93	45284.68
563.10	45059.99
563.26	44786.15
563.42	45436.82
563.59	45144.25
563.75	45134.89
563.92	45617.04
564.08	45607.68
564.24	45652.15
564.41	45467.25
564.57	45514.06
564.74	45102.12
564.90	44989.78
565.07	45551.51
565.23	45495.33
565.39	45209.79
565.56	45366.60
565.72	45397.03
565.88	44900.84
566.05	45052.97
566.21	45055.31
566.38	45382.99
566.54	45158.30
566.70	45703.64
566.87	45588.95
567.03	45443.84
567.19	45734.07
567.36	45944.72
567.52	45766.84
567.68	45404.05
567.85	45162.98
568.01	45380.65
568.17	45375.97
568.34	45801.94
568.50	45242.56
568.66	45214.47
568.83	45298.73
568.99	45298.73
569.15	45600.66
569.32	45504.70
569.48	45605.34
569.64	45687.26
569.81	45371.28
569.97	45415.76
570.13	45855.78
570.30	45492.99
570.46	45523.42
570.62	45429.80
570.78	45230.85
570.95	45399.37
571.11	45464.91
571.27	45263.62
571.43	45518.74
571.60	45336.18
571.76	45553.85
571.92	46031.32
572.09	45916.63
572.25	46040.68
572.41	45792.58
572.57	45811.31
572.74	46061.74
572.90	45745.77
573.06	45799.60
573.22	45492.99
573.38	45862.80
573.55	45610.02
573.71	45869.82
573.87	45579.59
574.03	45350.22
574.20	45621.72
574.36	45624.06
574.52	45986.85
574.68	45813.65
574.84	45539.80
575.01	45457.88
575.17	45823.01
575.33	45228.51
575.49	45364.26
575.65	45851.09
575.82	45815.99
575.98	45546.82
576.14	45708.32
576.30	45736.41
576.46	45268.30
576.62	45553.85
576.79	45303.41
576.95	45406.39
577.11	45759.81
577.27	45591.30
577.43	45659.17
577.59	45476.61
577.75	45860.46
577.92	45588.95
578.08	45352.56
578.24	45441.50
578.40	45724.71
578.56	45769.18
578.72	45579.59
578.88	46087.49
579.04	45925.99
579.21	45446.18
579.37	45837.05
579.53	45801.94
579.69	45600.66
579.85	45565.55
580.01	45804.28
580.17	45830.03
580.33	45521.08
580.49	45837.05
580.65	46028.98
580.82	45743.43
580.98	45965.78
581.14	45240.21
581.30	46110.89
581.46	45574.91
581.62	45797.26
581.78	45940.04
581.94	46279.41
582.10	45937.69
582.26	45771.52
582.42	45661.51
582.58	45846.41
582.74	45787.90
582.90	46038.34
583.06	46471.34
583.22	46244.30
583.38	46174.09
583.54	46113.23
583.70	45670.87
583.86	45921.31
584.02	45902.59
584.18	45881.52
584.34	45925.99
584.50	46021.95
584.66	45823.01
584.82	45741.09
584.98	46005.57
585.14	46103.87
585.30	45860.46
585.46	45837.05
585.62	45514.06
585.78	45984.51
585.94	45399.37
586.10	45673.21
586.26	45661.51
586.42	45909.61
586.58	46143.66
586.74	45867.48
586.90	45944.72
587.06	45940.04
587.22	45778.54
587.38	45663.85
587.54	45867.48
587.70	45916.63
587.86	46092.17
588.02	45593.64
588.18	46176.43
588.34	45579.59
588.49	45366.60
588.65	45275.32
588.81	45507.04
588.97	45523.42
589.13	45504.70
589.29	45177.02
589.45	45249.58
589.61	45993.87
589.77	46021.95
589.93	46146.00
590.08	46024.29
590.24	46440.91
590.40	46211.54
590.56	46380.06
590.72	46464.32
590.88	45984.51
591.04	45909.61
591.20	46469.00
591.35	46295.80
591.51	46150.68
591.67	45888.54
591.83	46087.49
591.99	45827.69
592.15	46050.04
592.31	46012.59
592.46	45942.38
592.62	45893.22
592.78	46178.77
592.94	46031.32
593.10	45893.22
593.26	46387.08
593.41	45560.87
593.57	45865.14
593.73	45710.66
593.89	46267.71
594.05	46089.83
594.20	45940.04
594.36	46073.45
594.52	45897.91
594.68	46267.71
594.84	46202.18
594.99	46469.00
595.15	45998.55
595.31	46129.62
595.47	46007.91
595.62	45881.52
595.78	46368.35
595.94	46192.81
596.10	46225.58
596.25	45855.78
596.41	46054.72
596.57	46024.29
596.73	45916.63
596.88	45911.95
597.04	46174.09
597.20	45696.62
597.36	46050.04
597.51	46307.50
597.67	45925.99
597.83	45986.85
597.99	46447.93
598.14	46040.68
598.30	45930.67
598.46	45450.86
598.61	46321.54
598.77	46157.70
598.93	46321.54
599.09	45806.62
599.24	46202.18
599.40	46396.44
599.56	46279.41
599.71	45982.16
599.87	46244.30
600.03	46239.62
600.18	45846.41
600.34	46038.34
600.50	45759.81
600.65	45745.77
600.81	46251.33
600.97	46291.12
601.12	46307.50
601.28	46309.84
601.44	45745.77
601.59	46000.89
601.75	45666.19
601.91	45979.82
602.06	45757.47
602.22	46026.63
602.37	46028.98
602.53	46169.41
602.69	46167.07
602.84	45729.39
603.00	45998.55
603.16	45930.67
603.31	45965.78
603.47	46230.26
603.62	46003.23
603.78	46167.07
603.94	46270.05
604.09	46204.52
604.25	45815.99
604.40	46019.61
604.56	46036.00
604.71	46508.79
604.87	45654.49
605.03	45755.13
605.18	45949.40
605.34	45694.28
605.49	45666.19
605.65	45961.10
605.80	45734.07
605.96	45713.00
606.12	45825.35
606.27	45682.58
606.43	45343.20
606.58	45815.99
606.74	45783.22
606.89	45797.26
607.05	45762.15
607.20	46075.79
607.36	45790.24
607.51	46073.45
607.67	46279.41
607.82	45965.78
607.98	45492.99
608.13	45759.81
608.29	45593.64
608.44	45268.30
608.60	45207.45
608.75	45595.98
608.91	46010.25
609.06	45771.52
609.22	46281.75
609.37	45441.50
609.53	45785.56
609.68	45509.38
609.84	45485.97
609.99	45340.86
610.15	45244.90
610.30	45010.84
610.46	45272.98
610.61	45411.07
610.76	45352.56
610.92	45556.19
611.07	45923.65
611.23	45752.79
611.38	45837.05
611.54	45748.11
611.69	45284.68
611.84	45139.57
612.00	45329.16
612.15	45537.46
612.31	45305.75
612.46	44975.73
612.62	45357.24
612.77	44917.22
612.92	45565.55
613.08	44891.48
613.23	45071.70
613.39	44692.53
613.54	44603.59
613.69	44692.53
613.85	45006.16
614.00	45031.91
614.15	45298.73
614.31	44835.30
614.46	45305.75
614.62	45045.95
614.77	44917.22
614.92	45116.17
615.08	45319.79
615.23	44350.81
615.38	44884.45
615.54	44865.73
615.69	44395.28
615.84	44842.32
616.00	44245.49
616.15	44924.24
616.30	44903.18
616.46	44280.60
616.61	44563.80
616.76	44631.68
616.92	44472.52
617.07	44336.77
617.22	44123.78
617.37	44336.77
617.53	44170.59
617.68	44603.59
617.83	44416.35
617.99	44039.52
618.14	44301.66
618.29	44182.29
618.45	43955.26
618.60	44280.60
618.75	44039.52
618.90	43955.26
619.06	44385.92
619.21	44074.63
619.36	44217.40
619.51	43978.67
619.67	43973.98
619.82	44114.42
619.97	43763.34
620.12	43824.19
620.28	43700.14
620.43	43466.09
620.58	43646.31
620.73	43416.94
620.89	43878.02
621.04	43943.56
621.19	43981.01
621.34	43927.17
621.49	43620.56
621.65	43487.15
621.80	43578.43
621.95	43746.95
622.10	43613.54
622.25	43335.02
622.41	43730.57
622.56	43342.04
622.71	43749.29
622.86	43269.48
623.01	43398.21
623.16	43742.27
623.32	43564.39
623.47	43349.06
623.62	43435.66
623.77	43510.56
623.92	43643.97
624.07	42852.87
624.23	43335.02
624.38	43077.56
624.53	43290.55
624.68	43112.67
624.83	43302.25
624.98	43105.65
625.13	42965.21
625.29	43171.18
625.44	43016.71
625.59	42574.34
625.74	42672.65
625.89	42824.78
626.04	42731.16
626.19	42501.79
626.34	43316.29
626.49	42892.66
626.65	42843.51
626.80	43342.04
626.95	42216.24
627.10	42752.23
627.25	42621.16
627.40	42387.10
627.55	42337.95
627.70	42429.23
627.85	42572.00
628.00	42492.43
628.15	42604.77
628.30	42141.35
628.45	42632.86
628.60	42417.53
628.76	42822.44
628.91	42539.24
629.06	41546.85
629.21	41993.89
629.36	42354.33
629.51	42513.49
629.66	42239.65
629.81	41975.17
629.96	41724.73
630.11	42064.11
630.26	42244.33
630.41	42459.66
630.56	42216.24
630.71	42225.60
630.86	42518.17
631.01	41804.31
631.16	41998.57
631.31	41687.28
631.46	41504.72
631.61	42139.00
631.76	41750.48
631.91	41904.95
632.06	42096.88
632.21	42164.75
632.36	41862.82
632.51	41350.24
632.66	41722.39
632.81	41404.08
632.96	41951.76
633.10	41785.58
633.25	41713.03
633.40	41516.42
633.55	42197.52
633.70	41635.79
633.85	41649.83
634.00	41808.99
634.15	41415.78
634.30	41336.20
634.45	41240.24
634.60	41432.16
634.75	41144.28
634.90	41003.85
635.05	40992.14
635.19	41415.78
635.34	41385.35
635.49	41083.42
635.64	40973.42
635.79	41078.74
635.94	41289.39
636.09	40891.50
636.24	40928.95
636.39	40512.33
636.53	40910.22
636.68	40584.89
636.83	40954.69
636.98	41083.42
637.13	41017.89
637.28	41219.17
637.43	41078.74
637.57	40790.86
637.72	40416.37
637.87	41146.62
638.02	40624.68
638.17	40825.96
638.32	40671.49
638.46	40392.97
638.61	40215.08
638.76	40205.72
638.91	40671.49
639.06	40308.71
639.20	40533.40
639.35	40608.29
639.50	40582.55
639.65	40767.45
639.80	40493.61
639.94	40151.89
640.09	40165.93
640.24	40322.75
640.39	39725.91
640.54	40027.84
640.68	40264.24
640.83	40203.38
640.98	39948.26
641.13	39810.17
641.27	40179.98
641.42	39835.92
641.57	40252.53
641.72	40301.68
641.86	40055.93
642.01	39510.58
642.16	40084.01
642.31	38817.78
642.45	40025.50
642.60	39662.72
642.75	39929.54
642.90	40280.62
643.04	39831.24
643.19	39405.26
643.34	39683.78
643.48	39583.14
643.63	39618.25
643.78	39751.66
643.93	39629.95
644.07	39386.54
644.22	39473.13
644.37	39541.01
644.51	39386.54
644.66	39821.87
644.81	39871.03
644.95	39721.23
645.10	39672.08
645.25	39555.05
645.39	39201.63
645.54	39477.82
645.69	39112.69
645.83	39360.79
645.98	39070.56
646.13	39344.41
646.27	39391.22
646.42	38747.57
646.57	38993.32
646.71	38944.17
646.86	39538.67
647.00	39164.18
647.15	39100.99
647.30	38892.68
647.44	38583.73
647.59	38665.65
647.74	38433.94
647.88	38600.12
648.03	38831.83
648.17	38831.83
648.32	38752.25
648.47	38927.79
648.61	38719.48
648.76	38939.49
648.90	38930.13
649.05	38576.71
649.20	38995.67
649.34	38976.94
649.49	38377.76
649.63	38377.76
649.78	39079.92
649.92	38368.40
650.07	38876.30
650.21	38398.83
650.36	38990.98
650.51	38768.63
650.65	38979.28
650.80	39342.06
650.94	38864.60
651.09	38031.36
651.23	38129.67
651.38	38295.85
651.52	38129.67
651.67	38157.75
651.81	38066.47
651.96	38307.55
652.10	38064.13
652.25	38036.05
652.39	38391.81
652.54	38574.37
652.68	38263.08
652.83	38742.89
652.97	38492.45
653.12	38209.25
653.26	38026.68
653.41	37780.93
653.55	38232.65
653.70	38092.22
653.84	38073.49
653.99	37785.61
654.13	38188.18
654.27	37565.60
654.42	37654.54
654.56	37553.90
654.71	37874.55
654.85	37736.46
655.00	37909.66
655.14	37734.12
655.29	37357.29
655.43	36804.92
655.57	36926.63
655.72	37209.84
655.86	37085.79
656.01	36519.38
656.15	36790.88
656.30	36954.72
656.44	37088.13
656.58	37111.53
656.73	37109.19
656.87	37046.00
657.01	37102.17
657.16	36397.67
657.30	36404.69
657.45	36723.01
657.59	36975.78
657.73	36952.38
657.88	37352.61
658.02	37109.19
658.16	37237.92
658.31	37467.30
658.45	37120.90
658.60	36744.07
658.74	36994.51
658.88	37137.28
659.03	36641.09
659.17	36463.21
659.31	36877.48
659.46	36591.94
659.60	36575.55
659.74	36149.57
659.89	36070.00
660.03	36620.02
660.17	36886.84
660.32	36610.66
660.46	36367.24
660.60	36364.90
660.74	36390.65
660.89	36519.38
661.03	36004.46
661.17	36388.31
661.32	36233.83
661.46	35805.52
661.60	35892.12
661.74	35985.74
661.89	36109.78
662.03	36119.15
662.17	36128.51
662.31	35859.35
662.46	36140.21
662.60	36077.02
662.74	35887.43
662.88	35690.83
663.03	35526.99
663.17	35562.10
663.31	35189.95
663.45	35651.04
663.60	35606.57
663.74	35810.20
663.88	35395.92
664.02	34815.47
664.17	34909.09
664.31	34944.20
664.45	34824.83
664.59	35012.07
664.73	34593.12
664.88	35253.15
665.02	34345.02
665.16	34195.23
665.30	34106.29
665.44	34560.35
665.59	34653.97
665.73	34443.32
665.87	34204.59
666.01	34204.59
666.15	34543.97
666.29	34071.18
666.44	34565.03
666.58	34466.73
666.72	34333.32
666.86	34230.33
667.00	34094.58
667.14	34307.57
667.28	33935.43
667.43	33914.36
667.57	33984.58
667.71	33930.75
667.85	33996.28
667.99	33872.23
668.13	34022.03
668.27	34033.73
668.41	33738.82
668.56	33902.66
668.70	33895.64
668.84	33305.82
668.98	33802.02
669.12	33312.84
669.26	33380.72
669.40	32692.60
669.54	33455.62
669.68	33013.26
669.82	32950.06
669.96	32568.55
670.10	32669.20
670.25	33336.25
670.39	32587.28
670.53	32849.42
670.67	32217.47
670.81	32804.95
670.95	33029.64
671.09	32563.87
671.23	32165.98
671.37	32498.34
671.51	32474.93
671.65	32357.91
671.79	32154.28
671.93	32395.35
672.07	32018.53
672.21	31782.13
672.35	32158.96
672.49	31646.38
672.63	31960.02
672.77	31854.69
672.91	31527.02
673.05	31835.97
673.19	31690.85
673.33	31494.25
673.47	31395.95
673.61	31299.98
673.75	31351.48
673.89	30965.29
674.03	31002.74
674.17	30918.48
674.31	30939.54
674.45	31112.74
674.59	31077.63
674.73	31531.70
674.87	31091.68
675.01	31168.91
675.15	30752.30
675.29	31000.40
675.43	30689.10
675.56	30551.01
675.70	30749.96
675.84	30506.54
675.98	29296.49
676.12	30417.60
676.26	30134.40
676.40	30513.56
676.54	30038.44
676.68	29930.77
676.82	29560.97
676.96	29322.23
677.10	29853.53
677.23	29785.66
677.37	29429.90
677.51	29252.02
677.65	29219.25
677.79	28786.25
677.93	29420.53
678.07	28842.42
678.21	28840.08
678.34	28531.13
678.48	28491.34
678.62	28704.33
678.76	28526.45
678.90	28332.18
679.04	28044.30
679.18	28107.49
679.31	27854.72
679.45	28105.15
679.59	27936.63
679.73	28044.30
679.87	27704.92
680.00	27821.95
680.14	27548.11
680.28	27564.49
680.42	27295.33
680.56	27379.59
680.70	27550.45
680.83	27367.88
680.97	27318.73
681.11	27236.81
681.25	27456.82
681.39	26703.17
681.52	27091.70
681.66	26953.61
681.80	26611.89
681.94	26651.68
682.07	26244.43
682.21	26103.99
682.35	26127.40
682.49	26242.09
682.62	26183.57
682.76	26068.89
682.90	26092.29
683.04	26284.22
683.17	25916.75
683.31	25710.78
683.45	25654.61
683.59	25558.65
683.72	25764.62
683.86	25495.46
684.00	25230.98
684.13	25422.90
684.27	25043.73
684.41	25039.05
684.55	24678.61
684.68	25048.41
684.82	24847.13
684.96	24622.44
685.09	24559.24
685.23	24397.74
685.37	24650.52
685.50	24290.08
685.64	24414.13
685.78	24201.14
685.91	24034.96
686.05	23941.34
686.19	23840.70
686.32	23744.73
686.46	23740.05
686.60	23175.98
686.73	23164.28
686.87	23208.75
687.01	23051.94
687.14	22904.48
687.28	22977.04
687.42	22852.99
687.55	22827.24
687.69	22874.06
687.82	22778.09
687.96	22750.01
688.10	22424.67
688.23	22548.72
688.37	22483.19
688.50	22335.73
688.64	22515.95
688.78	22525.32
688.91	22260.84
689.05	21858.26
689.18	21998.70
689.32	21490.80
689.46	21654.64
689.59	21720.17
689.73	22211.68
689.86	21942.52
690.00	21504.84
690.13	21479.10
690.27	21696.77
690.41	21352.71
690.54	21076.52
690.68	21170.15
690.81	20931.41
690.95	21294.19
691.08	21057.80
691.22	21282.49
691.35	20592.03
691.49	20982.90
691.62	20561.61
691.76	21132.70
691.89	20482.03
692.03	20262.02
692.16	20573.31
692.30	19983.49
692.43	20240.95
692.57	20070.09
692.70	20081.80
692.84	19784.55
692.97	19761.14
693.11	19562.20
693.24	19740.08
693.38	19445.17
693.51	19658.16
693.65	19616.03
693.78	19349.21
693.92	19164.31
694.05	19129.20
694.19	19192.39
694.32	19190.05
694.45	19049.62
694.59	19173.67
694.72	19023.87
694.86	18635.35
694.99	18513.64
695.13	18808.54
695.26	18845.99
695.39	18597.90
695.53	18576.83
695.66	18258.52
695.80	18274.90
695.93	18384.91
696.07	18349.80
696.20	18340.44
696.33	17851.27
696.47	18092.34
696.60	18029.15
696.73	17804.46
696.87	17905.10
697.00	17626.57
697.14	17259.11
697.27	17465.08
697.40	17418.27
697.54	17245.07
697.67	17184.21
697.80	16982.93
697.94	17011.01
698.07	17111.66
698.21	16992.29
698.34	17015.69
698.47	17071.87
698.61	16830.79
698.74	16688.02
698.87	16524.18
699.01	16360.34
699.14	16306.51
699.27	16194.17
699.40	16613.12
699.54	16374.39
699.67	16430.56
699.80	16140.33
699.94	15747.12
700.07	15913.30
700.20	16255.02
700.34	15894.58
700.47	15896.92
700.60	15658.18
700.73	15676.91
700.87	15707.34
701.00	15552.86
701.13	15452.22
701.26	15370.30
701.40	15365.62
701.53	15115.18
701.66	15152.63
701.79	15136.24
701.93	14951.34
702.06	14752.40
702.19	14801.55
702.32	14799.21
702.46	14841.34
702.59	14820.27
702.72	14658.78
702.85	14604.94
702.99	14548.77
703.12	14424.72
703.25	14317.06
703.38	14574.52
703.51	14537.07
703.65	14064.28
703.78	13930.87
703.91	13900.44
704.04	13858.31
704.17	13963.64
704.31	13724.90
704.44	13729.58
704.57	13806.82
704.70	13642.98
704.83	13872.36
704.96	13729.58
705.10	13600.85
705.23	13439.36
>>>>>End Processed Spectral Data<<<<<
