SpectraSuite Data File
++++++++++++++++++++++++++++++++++++
Date: Fri Oct 25 11:25:13 EDT 2013
User: price-jones
Dark Spectrum Present: No
Reference Spectrum Present: No
Number of Sampled Component Spectra: 1
Spectrometers: USB2+H05261
Integration Time (usec): 100000 (USB2+H05261)
Spectra Averaged: 1 (USB2+H05261)
Boxcar Smoothing: 0 (USB2+H05261)
Correct for Electrical Dark: No (USB2+H05261)
Strobe/Lamp Enabled: No (USB2+H05261)
Correct for Detector Non-linearity: No (USB2+H05261)
Correct for Stray Light: No (USB2+H05261)
Number of Pixels in Processed Spectrum: 2048
>>>>>Begin Processed Spectral Data<<<<<
365.73	248.10
365.92	248.10
366.12	248.10
366.32	166.18
366.52	102.98
366.72	170.86
366.91	196.60
367.11	152.13
367.31	142.77
367.51	173.20
367.70	156.82
367.90	168.52
368.10	110.01
368.30	133.41
368.49	177.88
368.69	170.86
368.89	187.24
369.09	56.17
369.28	159.16
369.48	51.49
369.68	180.22
369.87	170.86
370.07	154.48
370.27	180.22
370.47	334.70
370.66	592.16
370.86	690.46
371.06	627.26
371.25	688.12
371.45	706.84
371.65	723.23
371.84	669.39
372.04	631.94
372.24	674.07
372.44	664.71
372.63	744.29
372.83	791.10
373.03	716.20
373.22	744.29
373.42	802.80
373.62	746.63
373.81	842.59
374.01	791.10
374.21	781.74
374.40	772.38
374.60	823.87
374.79	840.25
374.99	802.80
375.19	847.27
375.38	763.01
375.58	798.12
375.78	854.30
375.97	856.64
376.17	861.32
376.37	849.61
376.56	873.02
376.76	828.55
376.95	875.36
377.15	894.08
377.35	884.72
377.54	929.19
377.74	849.61
377.93	833.23
378.13	929.19
378.33	954.94
378.52	896.43
378.72	877.70
378.91	863.66
379.11	919.83
379.31	936.21
379.50	1011.11
379.70	987.71
379.89	959.62
380.09	1004.09
380.28	887.06
380.48	931.53
380.68	1025.15
380.87	938.55
381.07	1055.58
381.26	999.41
381.46	983.02
381.65	1102.39
381.85	964.30
382.04	1097.71
382.24	1022.81
382.43	1109.41
382.63	1130.48
382.83	1053.24
383.02	1095.37
383.22	1090.69
383.41	1095.37
383.61	1057.92
383.80	1156.22
384.00	1118.78
384.19	971.32
384.39	990.05
384.58	1088.35
384.78	1135.16
384.97	1132.82
385.17	1160.91
385.36	1156.22
385.56	1097.71
385.75	1118.78
385.95	1174.95
386.14	1242.82
386.34	1177.29
386.53	1196.01
386.72	1224.10
386.92	1221.76
387.11	1247.51
387.31	1184.31
387.50	1263.89
387.70	1226.44
387.89	1203.04
388.09	1254.53
388.28	1329.42
388.48	1174.95
388.67	1249.85
388.86	1306.02
389.06	1313.04
389.25	1357.51
389.45	1303.68
389.64	1355.17
389.84	1394.96
390.03	1404.32
390.22	1282.61
390.42	1416.02
390.61	1350.49
390.81	1383.26
391.00	1350.49
391.19	1434.75
391.39	1455.81
391.58	1455.81
391.78	1418.36
391.97	1460.49
392.16	1502.62
392.36	1465.18
392.55	1453.47
392.75	1521.35
392.94	1460.49
393.13	1371.55
393.33	1462.83
393.52	1507.30
393.71	1551.78
393.91	1605.61
394.10	1540.07
394.29	1500.28
394.49	1577.52
394.68	1607.95
394.88	1519.01
395.07	1605.61
395.26	1692.21
395.46	1565.82
395.65	1696.89
395.84	1626.67
396.04	1771.79
396.23	1746.04
396.42	1652.42
396.62	1729.66
396.81	1722.63
397.00	1643.06
397.19	1689.87
397.39	1811.57
397.58	1668.80
397.77	1867.75
397.97	1877.11
398.16	1893.49
398.35	1935.62
398.55	1860.73
398.74	1968.39
398.93	1928.60
399.12	1886.47
399.32	1940.30
399.51	1914.56
399.70	2022.22
399.90	2038.61
400.09	2024.56
400.28	2054.99
400.47	2003.50
400.67	2040.95
400.86	2017.54
401.05	2118.18
401.24	2015.20
401.44	2120.53
401.63	2190.74
401.82	2141.59
402.01	2174.36
402.21	2153.29
402.40	2190.74
402.59	2216.49
402.78	2272.66
402.97	2279.68
403.17	2319.47
403.36	2176.70
403.55	2375.64
403.74	2256.28
403.93	2300.75
404.13	2401.39
404.32	2242.23
404.51	2345.22
404.70	2417.77
404.89	2459.90
405.09	2382.67
405.28	2417.77
405.47	2377.98
405.66	2389.69
405.85	2473.95
406.05	2581.61
406.24	2509.05
406.43	2466.92
406.62	2656.51
406.81	2595.65
407.00	2640.12
407.20	2605.02
407.39	2558.21
407.58	2605.02
407.77	2689.28
407.96	2654.17
408.15	2818.00
408.34	2637.78
408.54	2857.79
408.73	2829.71
408.92	2736.09
409.11	2963.12
409.30	2909.29
409.49	2860.13
409.68	2857.79
409.87	2867.16
410.07	2892.90
410.26	2951.42
410.45	2942.05
410.64	3052.06
410.83	3066.10
411.02	3014.61
411.21	3009.93
411.40	3073.12
411.59	3262.71
411.78	3187.81
411.98	3157.38
412.17	3286.11
412.36	3239.30
412.55	3290.79
412.74	3323.56
412.93	3442.93
413.12	3171.43
413.31	3412.50
413.50	3527.19
413.69	3459.31
413.88	3531.87
414.07	3590.38
414.26	3543.57
414.45	3669.96
414.64	3662.94
414.83	3698.05
415.02	3765.92
415.22	3840.82
415.41	3786.99
415.60	3819.75
415.79	3770.60
415.98	4063.17
416.17	3934.44
416.36	3939.12
416.55	3899.33
416.74	3983.59
416.93	3985.93
417.12	4025.72
417.31	4100.62
417.50	4189.56
417.69	4311.27
417.88	4252.75
418.07	4177.86
418.26	4257.43
418.45	4269.14
418.64	4388.50
418.83	4294.88
419.02	4341.69
419.21	4528.94
419.39	4451.70
419.58	4416.59
419.77	4414.25
419.96	4557.02
420.15	4507.87
420.34	4500.85
420.53	4603.83
420.72	4622.56
420.91	4531.28
421.10	4660.01
421.29	4634.26
421.48	4589.79
421.67	4641.28
421.86	4638.94
422.05	4791.08
422.24	4809.80
422.43	4926.83
422.61	4887.04
422.80	4896.40
422.99	4858.95
423.18	4896.40
423.37	4994.70
423.56	4912.78
423.75	4922.15
423.94	4816.82
424.13	4596.81
424.32	4603.83
424.50	4863.63
424.69	5081.30
424.88	4978.32
425.07	4959.60
425.26	4805.12
425.45	4835.55
425.64	4912.78
425.83	4854.27
426.01	4971.30
426.20	4947.89
426.39	4917.47
426.58	5029.81
426.77	4933.85
426.96	5057.90
427.15	5128.11
427.33	5029.81
427.52	5018.11
427.71	5191.31
427.90	5111.73
428.09	5343.44
428.28	5287.27
428.46	5387.91
428.65	5315.36
428.84	5448.77
429.03	5598.56
429.22	5153.86
429.40	5301.31
429.59	5514.30
429.78	5210.03
429.97	5167.90
430.16	5432.38
430.34	5537.71
430.53	5717.93
430.72	5729.63
430.91	5666.44
431.10	5357.49
431.28	5650.05
431.47	5621.97
431.66	5816.23
431.85	5652.39
432.03	5774.10
432.22	5893.47
432.41	5839.64
432.60	5884.11
432.79	5902.83
432.97	5966.03
433.16	5933.26
433.35	5954.32
433.54	5989.43
433.72	6125.18
433.91	6155.61
434.10	6148.59
434.28	5968.37
434.47	6239.87
434.66	6188.38
434.85	6260.93
435.03	6160.29
435.22	6083.05
435.41	6417.75
435.59	6338.17
435.78	6368.60
435.97	6382.64
436.16	6319.45
436.34	6424.77
436.53	6441.15
436.72	6600.31
436.90	6471.58
437.09	6511.37
437.28	6363.92
437.46	6640.10
437.65	6612.01
437.84	6803.94
438.02	6846.07
438.21	6537.12
438.40	6633.08
438.58	6942.03
438.77	6946.71
438.96	6925.65
439.14	6963.09
439.33	7016.93
439.52	7155.02
439.70	7056.72
439.89	7433.54
440.08	7197.15
440.26	7171.40
440.45	7321.20
440.63	7515.46
440.82	7562.27
441.01	7461.63
441.19	7344.60
441.38	7590.36
441.57	7604.40
441.75	7772.92
441.94	7918.03
442.12	8006.97
442.31	8070.17
442.50	7964.84
442.68	8070.17
442.87	7915.69
443.05	8032.72
443.24	8222.30
443.43	8049.10
443.61	8023.36
443.80	8355.71
443.98	8030.38
444.17	7852.50
444.35	8266.77
444.54	8245.71
444.73	8308.90
444.91	8257.41
445.10	8210.60
445.28	8362.73
445.47	8248.05
445.65	8320.60
445.84	8500.83
446.02	8390.82
446.21	8182.51
446.39	8341.67
446.58	8360.39
446.77	8411.89
446.95	8306.56
447.14	8231.66
447.32	8458.70
447.51	8341.67
447.69	8402.52
447.88	8327.63
448.06	8695.09
448.25	8320.60
448.43	8421.25
448.62	8592.11
448.80	8484.44
448.99	8564.02
449.17	8535.93
449.36	8706.79
449.54	8760.63
449.73	8980.64
449.91	8985.32
450.10	8730.20
450.28	8938.51
450.46	8982.98
450.65	8954.89
450.83	8863.61
451.02	8957.23
451.20	9050.85
451.39	8954.89
451.57	9123.41
451.76	8879.99
451.94	8957.23
452.13	9104.68
452.31	9116.39
452.49	8994.68
452.68	9128.09
452.86	9320.01
453.05	9369.16
453.23	9266.18
453.42	9324.69
453.60	9277.88
453.78	9390.23
453.97	9331.72
454.15	9479.17
454.34	9341.08
454.52	9635.99
454.70	9650.03
454.89	9565.77
455.07	9549.39
455.26	9886.42
455.44	9767.06
455.62	9827.91
455.81	9811.53
455.99	9991.75
456.17	9902.81
456.36	9846.63
456.54	10068.98
456.73	10094.73
456.91	10490.28
457.09	10071.33
457.28	10328.78
457.46	10260.91
457.64	10471.56
457.83	10647.10
458.01	10307.72
458.19	10637.73
458.38	10588.58
458.56	10663.48
458.74	10628.37
458.93	10452.83
459.11	10710.29
459.29	10658.80
459.48	10834.34
459.66	10707.95
459.84	10731.36
460.03	10820.30
460.21	10682.20
460.39	11066.05
460.57	10792.21
460.76	11030.94
460.94	11047.33
461.12	10984.13
461.31	10951.37
461.49	11068.39
461.67	11054.35
461.85	11211.17
462.04	11119.89
462.22	11763.53
462.40	11555.22
462.59	11353.94
462.77	11318.83
462.95	11543.52
463.13	11625.44
463.32	11485.01
463.50	11637.14
463.68	11620.76
463.86	11705.02
464.05	11587.99
464.23	11761.19
464.41	11833.75
464.59	11492.03
464.78	12259.73
464.96	11997.59
465.14	11847.79
465.32	11913.33
465.50	11943.75
465.69	12182.49
465.87	12053.76
466.05	11817.36
466.23	12180.15
466.41	12332.28
466.60	12273.77
466.78	12013.97
466.96	12114.61
467.14	12212.92
467.32	12306.54
467.51	12648.26
467.69	12006.95
467.87	12432.93
468.05	12294.83
468.23	12278.45
468.41	12500.80
468.60	12552.29
468.78	12737.20
468.96	12552.29
469.14	12725.49
469.32	12737.20
469.50	12306.54
469.69	13004.02
469.87	12863.58
470.05	12858.90
470.23	13146.79
470.41	13001.68
470.59	13083.59
470.77	12938.48
470.95	13121.04
471.14	13429.99
471.32	13104.66
471.50	13535.32
471.68	13437.02
471.86	13572.77
472.04	13628.94
472.22	13809.16
472.40	13521.27
472.58	13657.03
472.77	13764.69
472.95	14225.78
473.13	14366.21
473.31	13874.70
473.49	13958.96
473.67	14075.98
473.85	14221.10
474.03	14616.65
474.21	14567.49
474.39	14850.70
474.57	14420.04
474.75	14607.28
474.93	14850.70
475.12	14726.65
475.30	14995.81
475.48	14920.92
475.66	15122.20
475.84	15339.87
476.02	15044.96
476.20	15257.95
476.38	15683.93
476.56	15861.81
476.74	15700.31
476.92	15887.56
477.10	15798.62
477.28	15941.39
477.46	16025.65
477.64	15910.96
477.82	16308.85
478.00	16643.55
478.18	16613.12
478.36	16659.93
478.54	17067.19
478.72	16842.50
478.90	17509.55
479.08	17462.74
479.26	17584.44
479.44	17685.09
479.62	17701.47
479.80	17797.43
479.98	18169.58
480.16	18267.88
480.34	18127.45
480.52	18916.21
480.70	18569.81
480.88	18075.96
481.06	18445.76
481.24	18452.78
481.41	19236.86
481.59	19374.95
481.77	19473.26
481.95	19630.07
482.13	19730.72
482.31	19482.62
482.49	19903.92
482.67	19924.98
482.85	20285.42
483.03	20442.24
483.21	20713.74
483.39	20648.21
483.57	20823.75
483.74	20879.92
483.92	21345.69
484.10	21006.31
484.28	21156.10
484.46	21642.93
484.64	22190.62
484.82	21806.77
485.00	22150.83
485.18	22841.29
485.35	22892.78
485.53	22944.27
485.71	22721.92
485.89	23253.22
486.07	23307.05
486.25	23302.37
486.43	23545.79
486.61	23557.49
486.78	23686.22
486.96	23885.17
487.14	24266.67
487.32	24411.79
487.50	24547.54
487.68	24746.48
487.85	25085.86
488.03	25343.32
488.21	25446.30
488.39	25605.46
488.57	25879.30
488.75	25937.82
488.92	26251.45
489.10	26373.16
489.28	26817.86
489.46	26951.27
489.64	26544.02
489.81	27531.72
489.99	27435.76
490.17	27566.83
490.35	28343.89
490.53	28100.47
490.70	28261.97
490.88	28081.75
491.06	28610.71
491.24	28542.83
491.41	28758.16
491.59	29259.04
491.77	29193.50
491.95	29422.87
492.13	29525.86
492.30	29549.26
492.48	29860.55
492.66	29874.60
492.84	30462.07
493.01	30134.40
493.19	30380.15
493.37	30562.72
493.54	30883.37
493.72	31381.90
493.90	31164.23
494.08	31686.17
494.25	31920.23
494.43	31721.28
494.61	31950.65
494.79	32341.52
494.96	32697.28
495.14	32783.88
495.32	32919.63
495.49	32905.59
495.67	32936.02
495.85	33378.38
496.02	33404.13
496.20	33507.11
496.38	33446.26
496.55	33584.35
496.73	34740.57
496.91	34103.95
497.09	34181.18
497.26	34375.45
497.44	34471.41
497.62	35342.09
497.79	35690.83
497.97	35328.05
498.14	35615.93
498.32	35779.77
498.50	35653.38
498.67	36233.83
498.85	35992.76
499.03	36566.19
499.20	36407.03
499.38	36833.01
499.56	36533.42
499.73	36521.72
499.91	36776.84
500.08	37041.32
500.26	37343.25
500.44	37350.27
500.61	37450.91
500.79	37071.75
500.97	37979.87
501.14	38281.80
501.32	38405.85
501.49	38127.33
501.67	38408.19
501.84	38581.39
502.02	38665.65
502.20	38817.78
502.37	38527.56
502.55	39049.50
502.72	39145.46
502.90	39306.96
503.07	38972.26
503.25	39421.64
503.43	39681.44
503.60	39463.77
503.78	39585.48
503.95	39803.15
504.13	40039.54
504.30	40210.40
504.48	40275.94
504.65	40238.49
504.83	40479.57
505.01	40797.88
505.18	40947.67
505.36	41378.33
505.53	40753.41
505.71	41354.93
505.88	41691.96
506.06	41010.87
506.23	42218.58
506.41	41507.06
506.58	41418.12
506.76	41963.46
506.93	42103.90
507.11	41839.42
507.28	42579.03
507.46	42234.97
507.63	42644.56
507.81	42646.90
507.98	42450.30
508.16	43115.01
508.33	42852.87
508.50	42955.85
508.68	42948.83
508.85	43676.74
509.03	43540.99
509.20	43489.49
509.38	44023.14
509.55	43646.31
509.73	43835.89
509.90	44025.48
510.08	44346.13
510.25	44201.02
510.42	44362.51
510.60	44896.16
510.77	44968.71
510.95	44992.12
511.12	45125.53
511.30	44865.73
511.47	45120.85
511.64	45043.61
511.82	45530.44
511.99	45165.32
512.17	45528.10
512.34	45504.70
512.51	45680.24
512.69	45872.16
512.86	46117.92
513.04	46316.86
513.21	46241.96
513.38	46445.59
513.56	46333.24
513.73	46543.89
513.90	46667.94
514.08	46773.27
514.25	46958.17
514.43	46960.51
514.60	47012.00
514.77	47313.93
514.95	47150.09
515.12	47552.66
515.29	47405.21
515.47	47650.97
515.64	47679.05
515.81	47622.88
515.99	47779.70
516.16	47903.74
516.33	47784.38
516.51	48519.31
516.68	48390.58
516.85	48231.42
517.03	48435.05
517.20	48685.48
517.37	48325.04
517.54	48395.26
517.72	48685.48
517.89	48587.18
518.06	49092.74
518.24	48767.40
518.41	48996.77
518.58	49317.43
518.75	48758.04
518.93	49104.44
519.10	49059.97
519.27	49326.79
519.45	49457.86
519.62	49467.22
519.79	49762.13
519.96	49670.85
520.14	49848.73
520.31	49745.75
520.48	49895.54
520.65	49937.67
520.83	50225.56
521.00	50485.36
521.17	50012.57
521.34	50356.63
521.52	50693.66
521.69	50019.59
521.86	50550.89
522.03	50806.01
522.20	51339.65
522.38	51199.22
522.55	50618.77
522.72	51030.70
522.89	51182.84
523.07	51243.69
523.24	51419.23
523.41	51435.61
523.58	51166.45
523.75	51395.82
523.92	51381.78
524.10	51702.43
524.27	51746.90
524.44	51828.82
524.61	51508.17
524.78	51807.76
524.96	52086.28
525.13	51875.63
525.30	52083.94
525.47	52444.38
525.64	52381.19
525.81	52271.18
525.98	52100.32
526.16	52149.48
526.33	52507.58
526.50	52793.12
526.67	52514.60
526.84	52645.67
527.01	52308.63
527.18	52596.52
527.36	52479.49
527.53	52655.03
527.70	53305.70
527.87	53134.84
528.04	52985.05
528.21	53195.70
528.38	53071.65
528.55	53506.99
528.72	53125.48
528.89	53045.90
529.07	52963.98
529.24	53083.35
529.41	53567.84
529.58	53535.07
529.75	53443.79
529.92	53249.53
530.09	53591.25
530.26	53743.38
530.43	53710.61
530.60	53659.12
530.77	53724.66
530.94	53743.38
531.11	53635.72
531.28	53797.21
531.46	53982.12
531.63	54171.70
531.80	53881.47
531.97	53993.82
532.14	54176.38
532.31	53991.48
532.48	54258.30
532.65	54138.93
532.82	54096.80
532.99	54351.92
533.16	54178.72
533.33	54461.93
533.50	54866.84
533.67	54703.00
533.84	54363.62
534.01	54522.78
534.18	54646.83
534.35	54915.99
534.52	54749.81
534.69	54873.86
534.86	55007.27
535.03	54674.91
535.20	55044.72
535.37	55311.54
535.54	55093.87
535.71	54913.65
535.88	55089.19
536.05	55147.70
536.22	55412.18
536.38	55348.99
536.55	55468.36
536.72	55412.18
536.89	55068.12
537.06	55311.54
537.23	55435.59
537.40	55253.03
537.57	55585.38
537.74	55634.53
537.91	55931.78
538.08	55526.87
538.25	55606.45
538.42	55847.52
538.59	55821.78
538.75	55552.62
538.92	55781.99
539.09	55973.91
539.26	55716.45
539.43	55819.44
539.60	55980.93
539.77	56133.07
539.94	56203.28
540.11	56137.75
540.28	56086.26
540.44	56172.86
540.61	56121.37
540.78	56231.37
540.95	56271.16
541.12	56425.64
541.29	56081.58
541.46	56175.20
541.62	56121.37
541.79	56301.59
541.96	56140.09
542.13	56254.78
542.30	56584.79
542.47	56561.39
542.63	56533.30
542.80	56748.63
542.97	56802.46
543.14	57024.81
543.31	57118.43
543.48	57064.60
543.64	57008.43
543.81	57181.63
543.98	56987.36
544.15	57392.28
544.32	57116.09
544.48	57261.21
544.65	57233.12
544.82	57219.08
544.99	57083.33
545.16	57331.42
545.32	57165.24
545.49	57392.28
545.66	57485.90
545.83	57481.22
546.00	57371.21
546.16	57509.30
546.33	57418.02
546.50	57331.42
546.67	57577.18
546.83	57109.07
547.00	57612.29
547.17	57310.36
547.34	57614.63
547.50	57668.46
547.67	57935.28
547.84	57649.74
548.00	57930.60
548.17	57846.34
548.34	57806.55
548.51	57993.79
548.67	58064.01
548.84	57986.77
549.01	57949.32
549.18	57858.04
549.34	58089.76
549.51	58216.14
549.68	58120.18
549.84	58071.03
550.01	58103.80
550.18	58007.84
550.34	58471.26
550.51	58223.17
550.68	58113.16
550.84	58190.40
551.01	58330.83
551.18	58237.21
551.34	58253.59
551.51	58394.03
551.68	58377.64
551.84	58269.98
552.01	58230.19
552.18	58501.69
552.34	58190.40
552.51	58394.03
552.68	58277.00
552.84	58471.26
553.01	58529.78
553.18	58656.17
553.34	58848.09
553.51	58625.74
553.67	58614.04
553.84	58539.14
554.01	58637.44
554.17	58885.54
554.34	58820.00
554.51	58677.23
554.67	58829.37
554.84	58679.57
555.00	58749.79
555.17	58740.42
555.33	58883.20
555.50	58707.66
555.67	58745.11
555.83	58798.94
556.00	59037.67
556.16	59227.26
556.33	59185.13
556.50	58981.50
556.66	59199.17
556.83	59082.14
556.99	59089.16
557.16	59540.89
557.32	59377.05
557.49	59451.95
557.65	59063.42
557.82	59030.65
557.98	59161.72
558.15	59330.24
558.32	59414.50
558.48	59435.56
558.65	59274.07
558.81	59274.07
558.98	59309.18
559.14	59320.88
559.31	59334.92
559.47	59547.91
559.64	59522.16
559.80	59501.10
559.97	59487.06
560.13	59531.53
560.30	59473.01
560.46	59590.04
560.63	59753.88
560.79	59367.69
560.96	59756.22
561.12	59540.89
561.29	59810.05
561.45	59779.62
561.61	59566.63
561.78	59671.96
561.94	59531.53
562.11	59583.02
562.27	59716.43
562.44	59784.30
562.60	59838.14
562.77	59877.93
562.93	59634.51
563.10	59854.52
563.26	59788.98
563.42	59901.33
563.59	59812.39
563.75	59608.76
563.92	59875.58
564.08	59891.97
564.24	60058.15
564.41	59826.43
564.57	59934.10
564.74	60065.17
564.90	59791.33
565.07	59896.65
565.23	60037.08
565.39	59976.23
565.56	59915.37
565.72	59845.16
565.88	60116.66
566.05	59915.37
566.21	59870.90
566.38	59948.14
566.54	60090.91
566.70	60278.16
566.87	60086.23
567.03	59969.21
567.19	60212.62
567.36	60086.23
567.52	60175.17
567.68	60161.13
567.85	60186.88
568.01	60350.71
568.17	60119.00
568.34	60402.21
568.50	60058.15
568.66	60076.87
568.83	60231.35
568.99	60271.14
569.15	60079.21
569.32	60102.62
569.48	60189.22
569.64	60350.71
569.81	60313.26
569.97	60217.30
570.13	60200.92
570.30	60299.22
570.46	60341.35
570.62	60168.15
570.78	60320.29
570.95	60369.44
571.11	60399.86
571.27	60292.20
571.43	60322.63
571.60	60498.17
571.76	60463.06
571.92	60392.84
572.09	60327.31
572.25	60521.57
572.41	60439.65
572.57	60397.52
572.74	60439.65
572.90	60264.11
573.06	60430.29
573.22	60472.42
573.38	60292.20
573.55	60533.28
573.71	60608.17
573.87	60552.00
574.03	60481.78
574.20	60626.90
574.36	60533.28
574.52	60388.16
574.68	60413.91
574.84	60605.83
575.01	60617.53
575.17	60509.87
575.33	60329.65
575.49	60280.50
575.65	60430.29
575.82	60486.46
575.98	60533.28
576.14	60690.09
576.30	60603.49
576.46	60608.17
576.62	60584.77
576.79	60362.42
576.95	60528.59
577.11	60676.05
577.27	60669.03
577.43	60533.28
577.59	60568.38
577.75	60376.46
577.92	60341.35
578.08	60619.88
578.24	60664.35
578.40	60697.11
578.56	60802.44
578.72	60757.97
578.88	60837.54
579.04	60678.39
579.21	60774.35
579.37	60839.89
579.53	60589.45
579.69	60549.66
579.85	60748.60
580.01	60474.76
580.17	60470.08
580.33	60856.27
580.49	60884.36
580.65	60767.33
580.82	60769.67
580.98	60669.03
581.14	60542.64
581.30	60825.84
581.46	60605.83
581.62	60746.26
581.78	60807.12
581.94	60685.41
582.10	60662.00
582.26	60750.94
582.42	60734.56
582.58	60781.37
582.74	60800.10
582.90	60830.52
583.06	60720.52
583.22	60783.71
583.38	60889.04
583.54	60884.36
583.70	60804.78
583.86	60638.60
584.02	60657.32
584.18	60987.34
584.34	60734.56
584.50	60706.47
584.66	60640.94
584.82	60530.93
584.98	60914.78
585.14	60903.08
585.30	60640.94
585.46	60977.98
585.62	61013.08
585.78	61006.06
585.94	60743.92
586.10	60952.23
586.26	60685.41
586.42	60856.27
586.58	61059.90
586.74	60610.51
586.90	60818.82
587.06	60788.39
587.22	60914.78
587.38	60816.48
587.54	61083.30
587.70	61111.39
587.86	60788.39
588.02	60715.84
588.18	60954.57
588.34	60725.20
588.49	61071.60
588.65	60715.84
588.81	61001.38
588.97	61034.15
589.13	60823.50
589.29	61013.08
589.45	61116.07
589.61	60996.70
589.77	61148.84
589.93	61251.82
590.08	61020.11
590.24	61071.60
590.40	61275.22
590.56	61254.16
590.72	61116.07
590.88	61057.56
591.04	61120.75
591.20	61329.06
591.35	61389.91
591.51	61406.30
591.67	61265.86
591.83	61132.45
591.99	61141.81
592.15	61038.83
592.31	61249.48
592.46	61043.51
592.62	61247.14
592.78	61282.25
592.94	61326.72
593.10	61181.60
593.26	61235.44
593.41	61176.92
593.57	61364.17
593.73	61228.41
593.89	61469.49
594.05	61422.68
594.20	61336.08
594.36	61401.61
594.52	61270.54
594.68	61104.37
594.84	61221.39
594.99	61312.67
595.15	61385.23
595.31	61380.55
595.47	61343.10
595.62	61272.88
595.78	61305.65
595.94	61410.98
596.10	61581.84
596.25	61420.34
596.41	61609.92
596.57	61373.53
596.73	61410.98
596.88	61476.51
597.04	61520.98
597.20	61528.00
597.36	61371.19
597.51	61553.75
597.67	61336.08
597.83	61441.40
597.99	61460.13
598.14	61448.42
598.30	61392.25
598.46	61443.74
598.61	61429.70
598.77	61319.70
598.93	61378.21
599.09	61607.58
599.24	61797.16
599.40	61572.47
599.56	61485.87
599.71	61776.10
599.87	61808.87
600.03	61729.29
600.18	61520.98
600.34	61471.83
600.50	61579.49
600.65	61420.34
600.81	61544.39
600.97	61560.77
601.12	61577.15
601.28	61471.83
601.44	61385.23
601.59	61385.23
601.75	61443.74
601.91	61801.85
602.06	61539.71
602.22	61853.34
602.37	61593.54
602.53	61586.52
602.69	61726.95
602.84	61410.98
603.00	61600.56
603.16	61530.34
603.31	61577.15
603.47	61577.15
603.62	61560.77
603.78	61530.34
603.94	61518.64
604.09	61605.24
604.25	61495.24
604.40	61495.24
604.56	61691.84
604.71	61841.63
604.87	61446.08
605.03	61605.24
605.18	61694.18
605.34	61579.49
605.49	61343.10
605.65	61656.73
605.80	61364.17
605.96	61649.71
606.12	61698.86
606.27	61659.07
606.43	61387.57
606.58	61502.26
606.74	61462.47
606.89	61352.46
607.05	61469.49
607.20	61705.88
607.36	61408.64
607.51	61373.53
607.67	61436.72
607.82	61441.40
607.98	61715.25
608.13	61535.02
608.29	61413.32
608.44	61471.83
608.60	61286.93
608.75	61439.06
608.91	61478.85
609.06	61141.81
609.22	61640.35
609.37	61343.10
609.53	61364.17
609.68	61446.08
609.84	61289.27
609.99	61460.13
610.15	61380.55
610.30	61588.86
610.46	61502.26
610.61	61581.84
610.76	61464.81
610.92	61319.70
611.07	61336.08
611.23	61331.40
611.38	61457.79
611.54	61289.27
611.69	61364.17
611.84	61420.34
612.00	61279.91
612.15	61209.69
612.31	61485.87
612.46	61373.53
612.62	61268.20
612.77	61380.55
612.92	61638.01
613.08	61282.25
613.23	61237.78
613.39	61219.05
613.54	61104.37
613.69	61226.07
613.85	61118.41
614.00	61361.82
614.15	61457.79
614.31	61406.30
614.46	61446.08
614.62	61354.80
614.77	61240.12
614.92	61270.54
615.08	61139.47
615.23	61315.01
615.38	61340.76
615.54	61331.40
615.69	61148.84
615.84	61296.29
616.00	61272.88
616.15	60940.53
616.30	61195.65
616.46	61013.08
616.61	61083.30
616.76	61123.09
616.92	61116.07
617.07	61106.71
617.22	60959.25
617.37	61024.79
617.53	61158.20
617.68	61205.01
617.83	61020.11
617.99	61132.45
618.14	60811.80
618.29	60961.59
618.45	60757.97
618.60	60989.68
618.75	60849.25
618.90	60900.74
619.06	60975.64
619.21	61139.47
619.36	61127.77
619.51	60996.70
619.67	60652.64
619.82	60828.18
619.97	60851.59
620.12	60764.99
620.28	60624.56
620.43	60837.54
620.58	60711.16
620.73	60626.90
620.89	60952.23
621.04	61006.06
621.19	60814.14
621.34	60725.20
621.49	60683.07
621.65	60870.31
621.80	60996.70
621.95	60704.13
622.10	60954.57
622.25	60839.89
622.41	60495.83
622.56	60804.78
622.71	60891.38
622.86	60732.22
623.01	60430.29
623.16	60619.88
623.32	60598.81
623.47	60985.00
623.62	60505.19
623.77	60610.51
623.92	60699.45
624.07	60673.71
624.23	60626.90
624.38	60456.04
624.53	60444.33
624.68	60390.50
624.83	60460.72
624.98	60685.41
625.13	60303.90
625.29	60486.46
625.44	60388.16
625.59	60383.48
625.74	60666.69
625.89	60339.01
626.04	60259.43
626.19	60399.86
626.34	60193.90
626.49	60343.69
626.65	60135.38
626.80	60519.23
626.95	60289.86
627.10	60163.47
627.25	60163.47
627.40	59950.48
627.55	60292.20
627.70	60250.07
627.85	60163.47
628.00	60062.83
628.15	60200.92
628.30	60034.74
628.45	60051.12
628.60	60058.15
628.76	60163.47
628.91	60226.66
629.06	60126.02
629.21	60151.77
629.36	59950.48
629.51	60011.34
629.66	60104.96
629.81	60086.23
629.96	59751.54
630.11	59868.56
630.26	59924.74
630.41	60006.65
630.56	60072.19
630.71	59700.04
630.86	60018.36
631.01	59812.39
631.16	60025.38
631.31	59803.03
631.46	59653.23
631.61	59709.41
631.76	59854.52
631.91	59994.95
632.06	59903.67
632.21	59821.75
632.36	59891.97
632.51	59484.72
632.66	59819.41
632.81	59566.63
632.96	59618.13
633.10	59470.67
633.25	59690.68
633.40	59531.53
633.55	59566.63
633.70	59686.00
633.85	59557.27
634.00	59477.69
634.15	59461.31
634.30	59435.56
634.45	59636.85
634.60	59601.74
634.75	59423.86
634.90	59405.14
635.05	59540.89
635.19	59503.44
635.34	59526.84
635.49	59447.27
635.64	59393.43
635.79	59454.29
635.94	59536.21
636.09	59449.61
636.24	59470.67
636.39	59243.64
636.53	59451.95
636.68	59175.76
636.83	59498.76
636.98	59473.01
637.13	59182.79
637.28	59332.58
637.43	59285.77
637.57	59386.41
637.72	59030.65
637.87	59187.47
638.02	59164.06
638.17	59465.99
638.32	59302.15
638.46	59250.66
638.61	59267.05
638.76	59159.38
638.91	59138.32
639.06	59032.99
639.20	59145.34
639.35	58852.77
639.50	58862.13
639.65	58997.88
639.80	59164.06
639.94	59077.46
640.09	58922.99
640.24	58899.58
640.39	58913.62
640.54	58763.83
640.68	58930.01
640.83	58981.50
640.98	58756.81
641.13	58742.77
641.27	58955.75
641.42	58925.33
641.57	58810.64
641.72	58810.64
641.86	58686.59
642.01	58471.26
642.16	58810.64
642.31	58599.99
642.45	58911.28
642.60	58775.53
642.75	58836.39
642.90	58791.92
643.04	58688.93
643.19	58660.85
643.34	58698.30
643.48	58569.57
643.63	58548.50
643.78	58646.80
643.93	58628.08
644.07	58642.12
644.22	58527.44
644.37	58202.10
644.51	58499.35
644.66	58719.36
644.81	58337.85
644.95	58415.09
645.10	58550.84
645.25	58405.73
645.39	58403.39
645.54	58309.77
645.69	58370.62
645.83	58440.84
645.98	58454.88
646.13	58471.26
646.27	58454.88
646.42	58253.59
646.57	58452.54
646.71	58520.41
646.86	58358.92
647.00	58342.53
647.15	58152.95
647.30	58204.44
647.44	58227.85
647.59	58424.45
647.74	58379.98
647.88	58344.87
648.03	58351.90
648.17	58178.70
648.32	58120.18
648.47	58410.41
648.61	57846.34
648.76	58274.66
648.90	58017.20
649.05	58162.31
649.20	58323.81
649.34	58033.58
649.49	58117.84
649.63	58251.25
649.78	58330.83
649.92	57998.48
650.07	58382.32
650.21	57867.40
650.36	57972.73
650.51	58003.16
650.65	58127.20
650.80	58026.56
650.94	57764.42
651.09	58052.31
651.23	57584.20
651.38	57801.87
651.52	57614.63
651.67	57783.15
651.81	57829.96
651.96	57755.06
652.10	57773.78
652.25	57776.12
652.39	57752.72
652.54	57509.30
652.68	57476.54
652.83	57429.72
652.97	57626.33
653.12	57631.01
653.26	57724.63
653.41	57750.38
653.55	57691.86
653.70	57757.40
653.84	57862.72
653.99	57502.28
654.13	57357.17
654.27	57682.50
654.42	57467.17
654.56	57338.44
654.71	57642.71
654.85	57668.46
655.00	57481.22
655.14	57345.47
655.29	57464.83
655.43	57481.22
655.57	57523.35
655.72	57258.87
655.86	57385.25
656.01	57523.35
656.15	57261.21
656.30	57312.70
656.44	57350.15
656.58	57345.47
656.73	57366.53
656.87	57263.55
657.01	57366.53
657.16	57298.65
657.30	57008.43
657.45	57041.20
657.59	57059.92
657.73	56856.29
657.88	57221.42
658.02	57080.98
658.16	56975.66
658.31	57031.83
658.45	56797.78
658.60	56940.55
658.74	57095.03
658.88	57059.92
659.03	56697.14
659.17	56914.81
659.31	56786.08
659.46	56912.47
659.60	56729.90
659.74	56734.59
659.89	56809.48
660.03	56711.18
660.17	56779.06
660.32	56299.25
660.46	56683.09
660.60	56547.34
660.74	56743.95
660.89	56692.46
661.03	56168.18
661.17	56051.15
661.32	56093.28
661.46	56289.88
661.60	56383.51
661.74	56537.98
661.89	56179.88
662.03	56310.95
662.17	56161.15
662.31	56135.41
662.46	56348.40
662.60	56320.31
662.74	55936.46
662.88	55810.07
663.03	55725.81
663.17	55931.78
663.31	55767.94
663.45	55737.52
663.60	55585.38
663.74	55540.91
663.88	55585.38
664.02	55772.63
664.17	55564.32
664.31	55531.55
664.45	55437.93
664.59	55564.32
664.73	55323.24
664.88	55255.37
665.02	55075.15
665.16	55203.88
665.30	55433.25
665.44	54967.48
665.59	55011.95
665.73	55124.30
665.87	55133.66
666.01	55131.32
666.15	54974.50
666.29	55201.53
666.44	55253.03
666.58	54798.96
666.72	54986.21
666.86	54597.68
667.00	54920.67
667.14	54438.52
667.28	54330.86
667.43	54600.02
667.57	54232.55
667.71	54457.24
667.85	54541.50
667.99	54255.96
668.13	54433.84
668.27	54274.68
668.41	54314.47
668.56	53991.48
668.70	54113.19
668.84	53851.05
668.98	53829.98
669.12	54298.09
669.26	54288.73
669.40	54099.14
669.54	53837.00
669.68	54003.18
669.82	53698.91
669.96	53968.07
670.10	53956.37
670.25	53858.07
670.39	53415.71
670.53	53734.02
670.67	53595.93
670.81	54005.52
670.95	53506.99
671.09	53460.18
671.23	53343.15
671.37	53368.90
671.51	53104.41
671.65	53563.16
671.79	53272.93
671.93	52832.91
672.07	53083.35
672.21	52697.16
672.35	52755.68
672.49	52760.36
672.63	52626.95
672.77	52849.30
672.91	52327.36
673.05	52442.04
673.19	52495.88
673.33	52439.70
673.47	52175.22
673.61	52142.45
673.75	52093.30
673.89	51484.76
674.03	51636.90
674.17	51522.21
674.31	51372.42
674.45	51405.19
674.59	51426.25
674.73	51547.96
674.87	51447.32
675.01	51201.56
675.15	51297.52
675.29	51309.22
675.43	51114.96
675.56	51224.96
675.70	51213.26
675.84	50754.52
675.98	50096.83
676.12	50564.93
676.26	50726.43
676.40	50688.98
676.54	50497.06
676.68	50143.64
676.82	49738.72
676.96	50349.60
677.10	49972.78
677.23	49612.34
677.37	49516.37
677.51	49605.31
677.65	49055.29
677.79	48846.98
677.93	49048.27
678.07	48809.53
678.21	48531.01
678.34	48907.83
678.48	48589.52
678.62	48142.48
678.76	48456.11
678.90	48505.26
679.04	48357.81
679.18	48184.61
679.31	47613.52
679.45	47688.42
679.59	48016.09
679.73	47489.47
679.87	47344.36
680.00	46899.65
680.14	46824.76
680.28	47068.17
680.42	46880.93
680.56	46440.91
680.70	46080.47
680.83	46710.07
680.97	46663.26
681.11	46986.25
681.25	46323.88
681.39	45865.14
681.52	46129.62
681.66	46000.89
681.80	45455.54
681.94	45598.32
682.07	45610.02
682.21	44893.82
682.35	45064.67
682.49	45127.87
682.62	45083.40
682.76	45457.88
682.90	44765.09
683.04	44783.81
683.17	44524.01
683.31	44210.38
683.45	43658.01
683.59	44062.93
683.72	43601.84
683.86	43536.30
684.00	43997.39
684.13	44016.11
684.27	43761.00
684.41	44046.54
684.55	43171.18
684.68	43648.65
684.82	43007.34
684.96	42653.92
685.09	42667.97
685.23	42309.86
685.37	42347.31
685.50	42143.69
685.64	41923.68
685.78	42127.30
685.91	42043.04
686.05	41427.48
686.19	41284.71
686.32	41563.23
686.46	40751.07
686.60	40861.07
686.73	40767.45
686.87	40285.30
687.01	40507.65
687.14	40601.27
687.28	39913.16
687.42	39374.83
687.55	39845.28
687.69	40053.59
687.82	39615.91
687.96	39658.04
688.10	39428.66
688.23	39660.38
688.37	39587.82
688.50	38892.68
688.64	38939.49
688.78	38330.95
688.91	38005.62
689.05	38281.80
689.18	38424.57
689.32	37254.31
689.46	37535.17
689.59	37383.04
689.73	37235.58
689.86	36772.16
690.00	36968.76
690.13	37394.74
690.27	37406.44
690.41	37551.56
690.54	36765.14
690.68	36067.66
690.81	36547.47
690.95	36297.03
691.08	36039.57
691.22	35573.80
691.35	35995.10
691.49	36163.62
691.62	35782.11
691.76	35487.20
691.89	34946.54
692.03	35136.12
692.16	35309.32
692.30	35084.63
692.43	35269.53
692.57	34417.58
692.70	34560.35
692.84	34316.93
692.97	34763.98
693.11	33888.62
693.24	34099.26
693.38	33797.34
693.51	33670.95
693.65	33399.44
693.78	33151.35
693.92	33277.74
694.05	33146.67
694.19	33177.09
694.32	32563.87
694.45	32671.54
694.59	32556.85
694.72	32168.32
694.86	32261.94
694.99	32292.37
695.13	32009.17
695.26	31435.74
695.39	31545.74
695.53	31782.13
695.66	31538.72
695.80	31365.52
695.93	31225.09
696.07	30771.02
696.20	30190.57
696.33	30501.86
696.47	30476.12
696.60	30600.16
696.73	30209.29
696.87	30089.93
697.00	29792.68
697.14	30129.72
697.27	29682.67
697.40	29645.23
697.54	29429.90
697.67	29572.67
697.80	29179.46
697.94	29142.01
698.07	28889.23
698.21	28493.68
698.34	29078.82
698.47	28439.85
698.61	27697.90
698.74	28252.61
698.87	28470.28
699.01	27861.74
699.14	27885.14
699.27	27950.68
699.40	27615.98
699.54	27850.03
699.67	27592.58
699.80	27131.49
699.94	27225.11
700.07	27463.85
700.20	26958.29
700.34	26740.62
700.47	26565.08
700.60	26349.75
700.73	26183.57
700.87	25675.68
701.00	25912.07
701.13	25818.45
701.26	25839.51
701.40	25921.43
701.53	25429.92
701.66	25380.77
701.79	25305.87
701.93	24786.27
702.06	24999.26
702.19	24833.08
702.32	24858.83
702.46	24849.47
702.59	24133.26
702.72	24421.15
702.85	24460.94
702.99	24133.26
703.12	24112.20
703.25	23929.64
703.38	23545.79
703.51	23536.43
703.65	23517.70
703.78	23035.55
703.91	22918.53
704.04	23358.55
704.17	23307.05
704.31	22838.95
704.44	22256.15
704.57	22661.07
704.70	22567.45
704.83	22403.61
704.96	22216.36
705.10	22309.99
705.23	22057.21
>>>>>End Processed Spectral Data<<<<<
