SpectraSuite Data File
++++++++++++++++++++++++++++++++++++
Date: Fri Oct 25 11:25:19 EDT 2013
User: price-jones
Dark Spectrum Present: No
Reference Spectrum Present: No
Number of Sampled Component Spectra: 1
Spectrometers: USB2+H05261
Integration Time (usec): 100000 (USB2+H05261)
Spectra Averaged: 1 (USB2+H05261)
Boxcar Smoothing: 0 (USB2+H05261)
Correct for Electrical Dark: No (USB2+H05261)
Strobe/Lamp Enabled: No (USB2+H05261)
Correct for Detector Non-linearity: No (USB2+H05261)
Correct for Stray Light: No (USB2+H05261)
Number of Pixels in Processed Spectrum: 2048
>>>>>Begin Processed Spectral Data<<<<<
365.73	262.14
365.92	262.14
366.12	262.14
366.32	163.84
366.52	126.39
366.72	182.56
366.91	133.41
367.11	128.73
367.31	72.56
367.51	159.16
367.70	187.24
367.90	156.82
368.10	163.84
368.30	180.22
368.49	191.92
368.69	117.03
368.89	177.88
369.09	163.84
369.28	173.20
369.48	166.18
369.68	184.90
369.87	283.20
370.07	241.08
370.27	238.73
370.47	327.68
370.66	557.05
370.86	561.73
371.06	739.61
371.25	683.44
371.45	688.12
371.65	739.61
371.84	613.22
372.04	667.05
372.24	716.20
372.44	692.80
372.63	734.93
372.83	814.51
373.03	713.86
373.22	753.65
373.42	786.42
373.62	777.06
373.81	741.95
374.01	758.33
374.21	786.42
374.40	844.93
374.60	823.87
374.79	816.85
374.99	807.48
375.19	812.17
375.38	882.38
375.58	840.25
375.78	805.14
375.97	849.61
376.17	947.92
376.37	938.55
376.56	905.79
376.76	821.53
376.95	915.15
377.15	844.93
377.35	863.66
377.54	894.08
377.74	875.36
377.93	863.66
378.13	919.83
378.33	891.74
378.52	976.00
378.72	919.83
378.91	919.83
379.11	858.98
379.31	971.32
379.50	835.57
379.70	880.04
379.89	1008.77
380.09	943.24
380.28	947.92
380.48	912.81
380.68	922.17
380.87	992.39
381.07	1095.37
381.26	961.96
381.46	964.30
381.65	987.71
381.85	1008.77
382.04	1046.22
382.24	1057.92
382.43	1053.24
382.63	1118.78
382.83	1149.20
383.02	1093.03
383.22	1167.93
383.41	1086.01
383.61	1121.12
383.80	1121.12
384.00	1114.10
384.19	1181.97
384.39	1048.56
384.58	1081.33
384.78	1034.52
384.97	1170.27
385.17	1160.91
385.36	1132.82
385.56	1118.78
385.75	1160.91
385.95	1163.25
386.14	1184.31
386.34	1233.46
386.53	1179.63
386.72	1191.33
386.92	1163.25
387.11	1203.04
387.31	1193.67
387.50	1289.64
387.70	1261.55
387.89	1266.23
388.09	1252.19
388.28	1315.38
388.48	1280.27
388.67	1369.21
388.86	1329.42
389.06	1373.89
389.25	1362.19
389.45	1373.89
389.64	1366.87
389.84	1394.96
390.03	1394.96
390.22	1446.45
390.42	1378.58
390.61	1392.62
390.81	1352.83
391.00	1399.64
391.19	1373.89
391.39	1420.71
391.58	1462.83
391.78	1526.03
391.97	1483.90
392.16	1423.05
392.36	1500.28
392.55	1516.67
392.75	1647.74
392.94	1465.18
393.13	1535.39
393.33	1425.39
393.52	1579.86
393.71	1558.80
393.91	1619.65
394.10	1575.18
394.29	1542.41
394.49	1551.78
394.68	1643.06
394.88	1631.35
395.07	1671.14
395.26	1675.82
395.46	1685.19
395.65	1603.27
395.84	1610.29
396.04	1816.26
396.23	1699.23
396.42	1736.68
396.62	1823.28
396.81	1832.64
397.00	1720.29
397.19	1727.32
397.39	1739.02
397.58	1856.04
397.77	1806.89
397.97	1914.56
398.16	1865.41
398.35	1888.81
398.55	1837.32
398.74	1909.88
398.93	1912.22
399.12	1942.64
399.32	1858.39
399.51	1944.99
399.70	2008.18
399.90	1860.73
400.09	1879.45
400.28	2122.87
400.47	1912.22
400.67	2043.29
400.86	2094.78
401.05	2090.10
401.24	2120.53
401.44	2066.69
401.63	2181.38
401.82	2286.70
402.01	2071.37
402.21	2237.55
402.40	2134.57
402.59	2141.59
402.78	2193.08
402.97	2181.38
403.17	2176.70
403.36	2218.83
403.55	2326.49
403.74	2340.54
403.93	2314.79
404.13	2319.47
404.32	2340.54
404.51	2406.07
404.70	2445.86
404.89	2406.07
405.09	2415.43
405.28	2392.03
405.47	2445.86
405.66	2527.78
405.85	2513.74
406.05	2558.21
406.24	2567.57
406.43	2623.74
406.62	2569.91
406.81	2827.37
407.00	2574.59
407.20	2485.65
407.39	2558.21
407.58	2745.45
407.77	2576.93
407.96	2745.45
408.15	2752.47
408.34	2630.76
408.54	2839.07
408.73	2836.73
408.92	2696.30
409.11	2890.56
409.30	2801.62
409.49	2937.37
409.68	2897.58
409.87	2913.97
410.07	2958.44
410.26	2960.78
410.45	2970.14
410.64	3040.36
410.83	3073.12
411.02	3005.25
411.21	3169.09
411.40	3089.51
411.59	3246.32
411.78	3133.98
411.98	3150.36
412.17	3073.12
412.36	3358.67
412.55	3269.73
412.74	3410.16
412.93	3309.52
413.12	3225.26
413.31	3346.97
413.50	3414.84
413.69	3454.63
413.88	3595.06
414.07	3412.50
414.26	3485.06
414.45	3562.30
414.64	3665.28
414.83	3623.15
415.02	3662.94
415.22	3808.05
415.41	3768.26
415.60	3815.07
415.79	3854.86
415.98	3988.27
416.17	4028.06
416.36	4025.72
416.55	3943.80
416.74	4088.92
416.93	4070.19
417.12	4177.86
417.31	4004.66
417.50	4255.09
417.69	4259.78
417.88	4166.15
418.07	4243.39
418.26	4241.05
418.45	4231.69
418.64	4418.93
418.83	4341.69
419.02	4458.72
419.21	4390.84
419.39	4432.97
419.58	4395.53
419.77	4376.80
419.96	4627.24
420.15	4601.49
420.34	4575.75
420.53	4603.83
420.72	4568.73
420.91	4704.48
421.10	4706.82
421.29	4683.41
421.48	4638.94
421.67	4599.15
421.86	4685.75
422.05	4847.25
422.24	4777.03
422.43	4755.97
422.61	4781.71
422.80	4919.81
422.99	4919.81
423.18	4887.04
423.37	5055.56
423.56	4990.02
423.75	5083.64
423.94	4786.40
424.13	4690.43
424.32	4676.39
424.50	4908.10
424.69	5142.16
424.88	5060.24
425.07	5064.92
425.26	4847.25
425.45	4915.12
425.64	4917.47
425.83	4961.94
426.01	4966.62
426.20	5011.09
426.39	4877.68
426.58	4877.68
426.77	5062.58
426.96	5102.37
427.15	5137.48
427.33	5123.43
427.52	5142.16
427.71	5284.93
427.90	5191.31
428.09	5434.72
428.28	5277.91
428.46	5500.26
428.65	5298.97
428.84	5434.72
429.03	5570.48
429.22	5343.44
429.40	5444.09
429.59	5315.36
429.78	5296.63
429.97	5238.12
430.16	5378.55
430.34	5537.71
430.53	5760.06
430.72	5680.48
430.91	5628.99
431.10	5507.28
431.28	5750.70
431.47	5832.62
431.66	5781.12
431.85	5776.44
432.03	5802.19
432.22	5895.81
432.41	5987.09
432.60	5928.58
432.79	5675.80
432.97	5851.34
433.16	5982.41
433.35	5930.92
433.54	5994.11
433.72	6174.33
433.91	6019.86
434.10	6181.35
434.28	5994.11
434.47	6267.95
434.66	6164.97
434.85	6296.04
435.03	6279.66
435.22	6319.45
435.41	6298.38
435.59	6225.82
435.78	6523.07
435.97	6455.20
436.16	6373.28
436.34	6171.99
436.53	6441.15
436.72	6619.04
436.90	6520.73
437.09	6602.65
437.28	6293.70
437.46	6506.69
437.65	6696.27
437.84	6661.16
438.02	6696.27
438.21	6546.48
438.40	6607.33
438.58	7059.06
438.77	6895.22
438.96	7002.88
439.14	7026.29
439.33	7063.74
439.52	7173.74
439.70	7150.34
439.89	7178.42
440.08	7250.98
440.26	7269.70
440.45	7510.78
440.63	7365.67
440.82	7597.38
441.01	7438.22
441.19	7588.02
441.38	7611.42
441.57	7702.70
441.75	7702.70
441.94	7789.30
442.12	7964.84
442.31	7992.93
442.50	8126.34
442.68	7784.62
442.87	8030.38
443.05	7962.50
443.24	8168.47
443.43	8175.49
443.61	7983.57
443.80	8346.35
443.98	7906.33
444.17	7838.45
444.35	8351.03
444.54	8177.83
444.73	8264.43
444.91	8360.39
445.10	8454.02
445.28	8304.22
445.47	8077.19
445.65	8215.28
445.84	8491.46
446.02	8451.67
446.21	8526.57
446.39	8358.05
446.58	8472.74
446.77	8393.16
446.95	8262.09
447.14	8379.12
447.32	8210.60
447.51	8463.38
447.69	8496.14
447.88	8299.54
448.06	8348.69
448.25	8458.70
448.43	8421.25
448.62	8524.23
448.80	8503.17
448.99	8351.03
449.17	8580.40
449.36	8585.08
449.54	8924.46
449.73	8884.67
449.91	8879.99
450.10	8994.68
450.28	8978.30
450.46	9036.81
450.65	8884.67
450.83	8856.59
451.02	8833.18
451.20	9291.93
451.39	9100.00
451.57	8938.51
451.76	9043.83
451.94	9083.62
452.13	9100.00
452.31	9308.31
452.49	8973.61
452.68	9350.44
452.86	9100.00
453.05	9345.76
453.23	9266.18
453.42	9315.33
453.60	9167.88
453.78	9394.91
453.97	9291.93
454.15	9455.76
454.34	9476.83
454.52	9558.75
454.70	9542.36
454.89	9659.39
455.07	9762.37
455.26	9806.84
455.44	9783.44
455.62	9621.94
455.81	9954.30
455.99	9912.17
456.17	9881.74
456.36	9984.73
456.54	10001.11
456.73	10052.60
456.91	10441.13
457.09	10394.32
457.28	10408.36
457.46	10408.36
457.64	10368.57
457.83	10202.40
458.01	10200.05
458.19	10581.56
458.38	10340.49
458.56	10789.87
458.74	10743.06
458.93	10604.97
459.11	10626.03
459.29	10637.73
459.48	10637.73
459.66	10726.68
459.84	10602.63
460.03	10803.91
460.21	10949.03
460.39	10665.82
460.57	10967.75
460.76	11047.33
460.94	10944.34
461.12	11302.45
461.31	10949.03
461.49	11103.50
461.67	10993.50
461.85	11328.19
462.04	11393.73
462.22	11604.38
462.40	11492.03
462.59	11506.07
462.77	11611.40
462.95	11393.73
463.13	11477.99
463.32	11386.71
463.50	11508.41
463.68	11520.12
463.86	11988.22
464.05	11272.02
464.23	11662.89
464.41	11932.05
464.59	11473.31
464.78	12184.83
464.96	11805.66
465.14	11744.81
465.32	11901.62
465.50	11932.05
465.69	11915.67
465.87	12072.48
466.05	11978.86
466.23	12116.95
466.41	12053.76
466.60	12425.90
466.78	12219.94
466.96	11974.18
467.14	12030.35
467.32	12126.32
467.51	12711.45
467.69	12037.38
467.87	12201.21
468.05	12554.63
468.23	12184.83
468.41	12203.55
468.60	12556.97
468.78	12547.61
468.96	12772.30
469.14	12718.47
469.32	12802.73
469.50	12414.20
469.69	12877.63
469.87	13146.79
470.05	13231.05
470.23	12982.95
470.41	12968.91
470.59	13275.52
470.77	13034.44
470.95	13053.17
471.14	13507.23
471.32	13158.49
471.50	13308.29
471.68	13479.15
471.86	13603.19
472.04	13673.41
472.22	14036.19
472.40	13336.37
472.58	13717.88
472.77	14015.13
472.95	14298.33
473.13	14492.60
473.31	14026.83
473.49	14150.88
473.67	14134.50
473.85	14274.93
474.03	14335.78
474.21	14518.34
474.39	14574.52
474.57	14707.93
474.75	14750.06
474.93	14846.02
475.12	14813.25
475.30	14874.10
475.48	14916.23
475.66	15250.93
475.84	15021.56
476.02	15187.74
476.20	15180.71
476.38	15681.59
476.56	15803.30
476.74	15859.47
476.92	15751.81
477.10	15676.91
477.28	16072.46
477.46	15939.05
477.64	16044.37
477.82	16189.49
478.00	16711.42
478.18	16933.78
478.36	17071.87
478.54	16919.73
478.72	17067.19
478.90	17240.39
479.08	17252.09
479.26	17671.04
479.44	17507.21
479.62	17767.01
479.80	17930.84
479.98	17825.52
480.16	18415.34
480.34	18267.88
480.52	18361.50
480.70	18490.23
480.88	18298.31
481.06	18789.82
481.24	18909.19
481.41	18974.72
481.59	19187.71
481.77	19407.72
481.95	19510.71
482.13	19697.95
482.31	19742.42
482.49	20130.95
482.67	19740.08
482.85	20280.74
483.03	20519.48
483.21	20561.61
483.39	20905.66
483.57	20758.21
483.74	21156.10
483.92	21219.30
484.10	21081.21
484.28	21401.86
484.46	21497.82
484.64	22394.25
484.82	21818.47
485.00	22082.95
485.18	22670.43
485.35	22600.21
485.53	22707.88
485.71	22764.05
485.89	23428.76
486.07	23082.36
486.25	23161.94
486.43	23447.49
486.61	23681.54
486.78	23758.78
486.96	23957.72
487.14	24233.91
487.32	24645.84
487.50	24559.24
487.68	24755.85
487.85	25151.40
488.03	25144.38
488.21	25820.79
488.39	25802.07
488.57	26022.08
488.75	25816.11
488.92	26094.63
489.10	26541.68
489.28	26359.11
489.46	26607.21
489.64	26927.86
489.81	27026.17
489.99	27398.31
490.17	26998.08
490.35	27915.57
490.53	27873.44
490.70	28254.95
490.88	28369.63
491.06	28547.51
491.24	28725.39
491.41	28620.07
491.59	29202.86
491.77	29291.80
491.95	29060.09
492.13	29773.95
492.30	30043.12
492.48	29500.11
492.66	30120.35
492.84	30263.13
493.01	30452.71
493.19	30251.42
493.37	30668.04
493.54	31119.76
493.72	31278.92
493.90	31370.20
494.08	31285.94
494.25	31819.58
494.43	31770.43
494.61	31999.80
494.79	32294.71
494.96	32320.46
495.14	32624.73
495.32	32884.53
495.49	33055.39
495.67	32823.67
495.85	32966.45
496.02	33640.52
496.20	33682.65
496.38	33610.09
496.55	34068.84
496.73	34623.54
496.91	34656.31
497.09	34466.73
497.26	35084.63
497.44	34735.89
497.62	35070.59
497.79	35690.83
497.97	35021.44
498.14	35695.51
498.32	36053.61
498.50	35852.33
498.67	36477.25
498.85	36112.13
499.03	36636.41
499.20	36229.15
499.38	36781.52
499.56	37062.38
499.73	36690.24
499.91	37008.55
500.08	37195.79
500.26	37275.37
500.44	37457.93
500.61	37558.58
500.79	37617.09
500.97	37696.67
501.14	37926.04
501.32	38265.42
501.49	38380.10
501.67	38628.20
501.84	38712.46
502.02	38752.25
502.20	39028.43
502.37	38843.53
502.55	39253.12
502.72	39328.02
502.90	39456.75
503.07	39028.43
503.25	39269.51
503.43	39365.47
503.60	39695.49
503.78	40098.06
503.95	39924.86
504.13	40170.61
504.30	40137.85
504.48	40465.52
504.65	40266.58
504.83	40746.39
505.01	41352.58
505.18	40809.58
505.36	41134.92
505.53	40891.50
505.71	41261.30
505.88	41717.71
506.06	41275.35
506.23	41848.78
506.41	41600.68
506.58	41921.34
506.76	41556.21
506.93	42029.00
507.11	42101.56
507.28	41996.23
507.46	42298.16
507.63	42431.57
507.81	42831.80
507.98	42658.60
508.16	42934.79
508.33	43091.60
508.50	43536.30
508.68	43648.65
508.85	43545.67
509.03	43126.71
509.20	43562.05
509.38	44179.95
509.55	43875.68
509.73	44657.42
509.90	44526.35
510.08	44294.64
510.25	44474.86
510.42	44673.81
510.60	44397.62
510.77	44905.52
510.95	45144.25
511.12	44748.70
511.30	44947.65
511.47	45275.32
511.64	45048.29
511.82	45357.24
511.99	45162.98
512.17	45294.05
512.34	45474.27
512.51	46122.60
512.69	45900.25
512.86	46094.51
513.04	46316.86
513.21	46611.77
513.38	46206.86
513.56	46972.21
513.73	46335.59
513.90	46703.05
514.08	46794.33
514.25	47306.91
514.43	46930.08
514.60	47035.41
514.77	46969.87
514.95	47136.05
515.12	47199.24
515.29	47342.02
515.47	47466.06
515.64	47962.26
515.81	47847.57
515.99	47826.51
516.16	48238.44
516.33	48156.52
516.51	48350.79
516.68	48423.34
516.85	48203.33
517.03	48697.19
517.20	48402.28
517.37	48030.13
517.54	48704.21
517.72	48821.23
517.89	48910.17
518.06	48971.03
518.24	49261.26
518.41	48938.26
518.58	49099.76
518.75	48797.83
518.93	49261.26
519.10	49069.33
519.27	49532.76
519.45	49434.45
519.62	49654.47
519.79	49518.71
519.96	49855.75
520.14	49839.37
520.31	50047.68
520.48	50045.33
520.65	50040.65
520.83	50115.55
521.00	50511.10
521.17	50220.87
521.34	50494.72
521.52	50831.75
521.69	50564.93
521.86	50770.90
522.03	50770.90
522.20	51126.66
522.38	51217.94
522.55	51304.54
522.72	50979.21
522.89	51086.87
523.07	51657.96
523.24	51351.35
523.41	51056.45
523.58	51030.70
523.75	51730.52
523.92	51550.30
524.10	51945.85
524.27	51969.26
524.44	51842.87
524.61	52079.26
524.78	52107.35
524.96	51999.68
525.13	52137.77
525.30	52016.07
525.47	52315.65
525.64	52163.52
525.81	52463.11
525.98	52481.83
526.16	52289.91
526.33	52046.49
526.50	52783.76
526.67	52629.29
526.84	52853.98
527.01	52692.48
527.18	52533.32
527.36	52736.95
527.53	52648.01
527.70	53249.53
527.87	53254.21
528.04	52905.47
528.21	53331.45
528.38	53151.23
528.55	53329.11
528.72	52975.69
528.89	53350.17
529.07	53464.86
529.24	53315.06
529.41	53382.94
529.58	53329.11
529.75	53457.84
529.92	53570.18
530.09	53525.71
530.26	53464.86
530.43	53923.60
530.60	53661.46
530.77	53413.37
530.94	53801.89
531.11	53879.13
531.28	54033.61
531.46	53930.62
531.63	54035.95
531.80	53930.62
531.97	53928.28
532.14	54354.26
532.31	54167.02
532.48	54597.68
532.65	54401.07
532.82	53984.46
532.99	54464.27
533.16	54309.79
533.33	54700.66
533.50	54560.23
533.67	54742.79
533.84	54672.57
534.01	54733.43
534.18	54735.77
534.35	55004.93
534.52	54688.96
534.69	54953.44
534.86	55042.38
535.03	54843.43
535.20	55164.09
535.37	55281.11
535.54	54965.14
535.71	54930.03
535.88	55353.67
536.05	54897.27
536.22	55330.26
536.38	55620.49
536.55	55337.29
536.72	55561.98
536.89	55573.68
537.06	55388.78
537.23	55416.86
537.40	55494.10
537.57	55625.17
537.74	55648.58
537.91	55854.54
538.08	55540.91
538.25	55707.09
538.42	55704.75
538.59	55936.46
538.75	55714.11
538.92	55697.73
539.09	56126.05
539.26	56067.53
539.43	55971.57
539.60	56004.34
539.77	55866.25
539.94	56200.94
540.11	56214.99
540.28	56315.63
540.44	56006.68
540.61	56222.01
540.78	56362.44
540.95	56278.18
541.12	56140.09
541.29	56224.35
541.46	56324.99
541.62	56645.65
541.79	56530.96
541.96	56116.68
542.13	56231.37
542.30	56479.47
542.47	56584.79
542.63	56858.63
542.80	56617.56
542.97	56949.92
543.14	56999.07
543.31	56673.73
543.48	57162.90
543.64	57312.70
543.81	57095.03
543.98	57216.74
544.15	56779.06
544.32	57279.93
544.48	57343.12
544.65	57176.95
544.82	57333.76
544.99	57212.06
545.16	57303.34
545.32	57139.50
545.49	57565.48
545.66	57677.82
545.83	57593.56
546.00	57460.15
546.16	57284.61
546.33	57350.15
546.50	57450.79
546.67	57771.44
546.83	57233.12
547.00	57434.41
547.17	57443.77
547.34	57574.84
547.50	57836.98
547.67	57815.91
547.84	57731.65
548.00	57949.32
548.17	58056.99
548.34	57778.46
548.51	58007.84
548.67	57989.11
548.84	57874.43
549.01	57858.04
549.18	57930.60
549.34	58241.89
549.51	58244.23
549.68	58159.97
549.84	58295.72
550.01	58157.63
550.18	57928.26
550.34	58239.55
550.51	58361.26
550.68	58258.27
550.84	57942.30
551.01	58501.69
551.18	58288.70
551.34	58382.32
551.51	58340.19
551.68	58379.98
551.84	58342.53
552.01	58298.06
552.18	58515.73
552.34	58401.05
552.51	58461.90
552.68	58185.72
552.84	58679.57
553.01	58794.26
553.18	58375.30
553.34	58639.78
553.51	58396.37
553.67	58628.08
553.84	58822.34
554.01	58796.60
554.17	58979.16
554.34	58728.72
554.51	58710.00
554.67	58688.93
554.84	58742.77
555.00	58740.42
555.17	58794.26
555.33	59042.35
555.50	58899.58
555.67	58885.54
555.83	58602.33
556.00	58843.41
556.16	59028.31
556.33	59065.76
556.50	59157.04
556.66	59194.49
556.83	59086.82
556.99	59461.31
557.16	59360.67
557.32	59295.13
557.49	59559.61
557.65	59084.48
557.82	59215.55
557.98	59112.57
558.15	59238.96
558.32	59405.14
558.48	59220.23
558.65	59306.83
558.81	59377.05
558.98	59238.96
559.14	59426.20
559.31	59440.24
559.47	59475.35
559.64	59435.56
559.80	59545.57
559.97	59482.37
560.13	59360.67
560.30	59377.05
560.46	59416.84
560.63	59545.57
560.79	59531.53
560.96	59714.09
561.12	59646.21
561.29	59735.15
561.45	59803.03
561.61	59805.37
561.78	59721.11
561.94	59681.32
562.11	59779.62
562.27	59590.04
562.44	59723.45
562.60	59915.37
562.77	59952.82
562.93	59671.96
563.10	59770.26
563.26	59882.61
563.42	60086.23
563.59	59639.19
563.75	59999.63
563.92	59838.14
564.08	59765.58
564.24	60034.74
564.41	59971.55
564.57	60097.94
564.74	59948.14
564.90	60018.36
565.07	60041.76
565.23	59983.25
565.39	60001.97
565.56	60196.24
565.72	59950.48
565.88	60046.44
566.05	60088.57
566.21	60055.81
566.38	59924.74
566.54	59938.78
566.70	60121.34
566.87	60261.77
567.03	59978.57
567.19	60294.54
567.36	60097.94
567.52	60041.76
567.68	60287.52
567.85	60226.66
568.01	60303.90
568.17	60128.36
568.34	60168.15
568.50	60104.96
568.66	60217.30
568.83	60334.33
568.99	60243.05
569.15	60212.62
569.32	60331.99
569.48	60104.96
569.64	60259.43
569.81	60163.47
569.97	60207.94
570.13	60196.24
570.30	60343.69
570.46	60322.63
570.62	60229.01
570.78	60392.84
570.95	60229.01
571.11	60540.30
571.27	60264.11
571.43	60205.60
571.60	60549.66
571.76	60453.70
571.92	60231.35
572.09	60467.74
572.25	60645.62
572.41	60250.07
572.57	60371.78
572.74	60608.17
572.90	60474.76
573.06	60643.28
573.22	60444.33
573.38	60514.55
573.55	60322.63
573.71	60591.79
573.87	60594.13
574.03	60275.82
574.20	60577.75
574.36	60493.49
574.52	60626.90
574.68	60542.64
574.84	60725.20
575.01	60753.29
575.17	60603.49
575.33	60509.87
575.49	60453.70
575.65	60460.72
575.82	60746.26
575.98	60662.00
576.14	60910.10
576.30	60652.64
576.46	60584.77
576.62	60367.10
576.79	60617.53
576.95	60339.01
577.11	60795.42
577.27	60528.59
577.43	60685.41
577.59	60360.08
577.75	60514.55
577.92	60589.45
578.08	60605.83
578.24	60640.94
578.40	60629.24
578.56	60814.14
578.72	60669.03
578.88	60821.16
579.04	60800.10
579.21	60666.69
579.37	60554.34
579.53	60769.67
579.69	60654.98
579.85	60495.83
580.01	60678.39
580.17	60563.70
580.33	60706.47
580.49	60898.40
580.65	60907.76
580.82	60467.74
580.98	60643.28
581.14	60708.82
581.30	60772.01
581.46	60622.22
581.62	60739.24
581.78	60659.66
581.94	60973.30
582.10	60818.82
582.26	60701.79
582.42	60853.93
582.58	60786.05
582.74	60788.39
582.90	60764.99
583.06	60617.53
583.22	60638.60
583.38	60779.03
583.54	60837.54
583.70	60842.23
583.86	60846.91
584.02	60741.58
584.18	61064.58
584.34	60989.68
584.50	60891.38
584.66	60739.24
584.82	60732.22
584.98	60879.67
585.14	60811.80
585.30	60669.03
585.46	60987.34
585.62	60870.31
585.78	60879.67
585.94	60535.62
586.10	60849.25
586.26	60816.48
586.42	60779.03
586.58	60924.14
586.74	60811.80
586.90	60921.80
587.06	60811.80
587.22	60973.30
587.38	60797.76
587.54	61069.26
587.70	61029.47
587.86	60872.65
588.02	60947.55
588.18	61062.24
588.34	60860.95
588.49	60743.92
588.65	60823.50
588.81	61036.49
588.97	61022.45
589.13	61066.92
589.29	60952.23
589.45	61172.24
589.61	61109.05
589.77	61275.22
589.93	61104.37
590.08	61317.35
590.24	61293.95
590.40	61329.06
590.56	61476.51
590.72	61359.48
590.88	61027.13
591.04	61027.13
591.20	61223.73
591.35	61305.65
591.51	61343.10
591.67	61357.14
591.83	61268.20
591.99	61268.20
592.15	61366.51
592.31	61230.75
592.46	61268.20
592.62	61179.26
592.78	61296.29
592.94	61392.25
593.10	61357.14
593.26	61235.44
593.41	61293.95
593.57	61251.82
593.73	61399.27
593.89	61642.69
594.05	61506.94
594.20	61307.99
594.36	61516.30
594.52	61457.79
594.68	61153.52
594.84	61158.20
594.99	61520.98
595.15	61303.31
595.31	61399.27
595.47	61300.97
595.62	61347.78
595.78	61235.44
595.94	61422.68
596.10	61560.77
596.25	61579.49
596.41	61380.55
596.57	61258.84
596.73	61408.64
596.88	61436.72
597.04	61432.04
597.20	61422.68
597.36	61649.71
597.51	61806.53
597.67	61371.19
597.83	61343.10
597.99	61602.90
598.14	61600.56
598.30	61455.45
598.46	61478.85
598.61	61460.13
598.77	61628.65
598.93	61448.42
599.09	61539.71
599.24	61609.92
599.40	61588.86
599.56	61586.52
599.71	61572.47
599.87	61715.25
600.03	61392.25
600.18	61476.51
600.34	61357.14
600.50	61558.43
600.65	61581.84
600.81	61633.33
600.97	61743.33
601.12	61528.00
601.28	61549.07
601.44	61352.46
601.59	61542.05
601.75	61469.49
601.91	61790.14
602.06	61638.01
602.22	61815.89
602.37	61630.99
602.53	61506.94
602.69	61450.77
602.84	61523.32
603.00	61446.08
603.16	61537.36
603.31	61523.32
603.47	61628.65
603.62	61455.45
603.78	61563.11
603.94	61535.02
604.09	61717.59
604.25	61656.73
604.40	61542.05
604.56	61647.37
604.71	61661.41
604.87	61609.92
605.03	61726.95
605.18	61663.75
605.34	61317.35
605.49	61368.85
605.65	61715.25
605.80	61581.84
605.96	61764.40
606.12	61628.65
606.27	61682.48
606.43	61506.94
606.58	61593.54
606.74	61551.41
606.89	61579.49
607.05	61396.93
607.20	61628.65
607.36	61588.86
607.51	61478.85
607.67	61195.65
607.82	61429.70
607.98	61359.48
608.13	61542.05
608.29	61731.63
608.44	61558.43
608.60	61502.26
608.75	61616.94
608.91	61415.66
609.06	61450.77
609.22	61563.11
609.37	61347.78
609.53	61228.41
609.68	61399.27
609.84	61326.72
609.99	61523.32
610.15	61638.01
610.30	61546.73
610.46	61265.86
610.61	61455.45
610.76	61453.11
610.92	61336.08
611.07	61331.40
611.23	61364.17
611.38	61446.08
611.54	61488.21
611.69	61556.09
611.84	61413.32
612.00	61408.64
612.15	61219.05
612.31	61286.93
612.46	61408.64
612.62	61483.53
612.77	61340.76
612.92	61420.34
613.08	61354.80
613.23	61279.91
613.39	61134.79
613.54	61188.63
613.69	61455.45
613.85	61331.40
614.00	61446.08
614.15	61366.51
614.31	61326.72
614.46	61219.05
614.62	61352.46
614.77	61263.52
614.92	61249.48
615.08	61242.46
615.23	61324.38
615.38	61134.79
615.54	61153.52
615.69	61212.03
615.84	61125.43
616.00	61188.63
616.15	61221.39
616.30	61331.40
616.46	61038.83
616.61	61066.92
616.76	61422.68
616.92	61069.26
617.07	61006.06
617.22	61059.90
617.37	61165.22
617.53	61230.75
617.68	61123.09
617.83	60968.61
617.99	61277.57
618.14	61048.19
618.29	60907.76
618.45	61073.94
618.60	60919.46
618.75	61069.26
618.90	60846.91
619.06	61038.83
619.21	60896.06
619.36	61123.09
619.51	61195.65
619.67	60694.77
619.82	60832.86
619.97	61050.53
620.12	60802.44
620.28	60790.73
620.43	60699.45
620.58	60659.66
620.73	60708.82
620.89	60917.12
621.04	60994.36
621.19	60699.45
621.34	60734.56
621.49	60690.09
621.65	60762.65
621.80	60919.46
621.95	60638.60
622.10	61001.38
622.25	60748.60
622.41	60760.31
622.56	60729.88
622.71	60811.80
622.86	60559.02
623.01	60615.19
623.16	60657.32
623.32	60615.19
623.47	60769.67
623.62	60760.31
623.77	60739.24
623.92	60697.11
624.07	60699.45
624.23	60493.49
624.38	60542.64
624.53	60369.44
624.68	60336.67
624.83	60685.41
624.98	60350.71
625.13	60472.42
625.29	60678.39
625.44	60425.61
625.59	60465.40
625.74	60533.28
625.89	60296.88
626.04	60231.35
626.19	60193.90
626.34	60399.86
626.49	60212.62
626.65	60172.83
626.80	60369.44
626.95	60310.92
627.10	60065.17
627.25	60072.19
627.40	60037.08
627.55	60137.72
627.70	60128.36
627.85	59955.16
628.00	60034.74
628.15	60275.82
628.30	60072.19
628.45	60093.25
628.60	60030.06
628.76	60076.87
628.91	60362.42
629.06	60081.55
629.21	60048.78
629.36	59959.84
629.51	59887.29
629.66	59870.90
629.81	59994.95
629.96	59800.69
630.11	59934.10
630.26	59950.48
630.41	59950.48
630.56	59910.69
630.71	59931.76
630.86	59866.22
631.01	59920.05
631.16	59966.87
631.31	59669.62
631.46	59491.74
631.61	59760.90
631.76	59866.22
631.91	59625.15
632.06	59838.14
632.21	59824.09
632.36	59681.32
632.51	59332.58
632.66	59709.41
632.81	59655.57
632.96	59681.32
633.10	59821.75
633.25	59849.84
633.40	59803.03
633.55	59725.79
633.70	59494.08
633.85	59435.56
634.00	59433.22
634.15	59412.16
634.30	59557.27
634.45	59634.51
634.60	59756.22
634.75	59543.23
634.90	59337.26
635.05	59409.82
635.19	59449.61
635.34	59697.70
635.49	59367.69
635.64	59578.34
635.79	59288.11
635.94	59482.37
636.09	59419.18
636.24	59428.54
636.39	59545.57
636.53	59655.57
636.68	59231.94
636.83	59355.99
636.98	59597.06
637.13	59320.88
637.28	59262.36
637.43	59442.59
637.57	59320.88
637.72	58948.73
637.87	59187.47
638.02	59227.26
638.17	59185.13
638.32	59323.22
638.46	59257.68
638.61	59255.34
638.76	58993.20
638.91	59025.97
639.06	59157.04
639.20	59157.04
639.35	58990.86
639.50	58862.13
639.65	59147.68
639.80	59299.81
639.94	58766.17
640.09	59058.74
640.24	59028.31
640.39	59009.59
640.54	58862.13
640.68	58922.99
640.83	59063.42
640.98	58894.90
641.13	58862.13
641.27	59283.43
641.42	58864.47
641.57	58988.52
641.72	58913.62
641.86	58632.76
642.01	58674.89
642.16	58569.57
642.31	58555.52
642.45	58983.84
642.60	58927.67
642.75	58693.61
642.90	58941.71
643.04	58775.53
643.19	58688.93
643.34	58670.21
643.48	58499.35
643.63	58599.99
643.78	58604.67
643.93	58677.23
644.07	58602.33
644.22	58553.18
644.37	58237.21
644.51	58623.40
644.66	58887.88
644.81	58684.25
644.95	58443.18
645.10	58583.61
645.25	58436.16
645.39	58323.81
645.54	58319.13
645.69	58344.87
645.83	58387.00
645.98	58508.71
646.13	58403.39
646.27	58337.85
646.42	58216.14
646.57	58473.60
646.71	58279.34
646.86	58321.47
647.00	58609.35
647.15	58389.34
647.30	58330.83
647.44	58497.01
647.59	58557.86
647.74	58253.59
647.88	58195.08
648.03	58464.24
648.17	58347.21
648.32	58218.49
648.47	58333.17
648.61	58010.18
648.76	58169.33
648.90	58171.67
649.05	57939.96
649.20	58312.11
649.34	57944.64
649.49	58122.52
649.63	58159.97
649.78	58459.56
649.92	57991.45
650.07	58272.32
650.21	57958.69
650.36	57932.94
650.51	57839.32
650.65	58012.52
650.80	58064.01
650.94	57977.41
651.09	57808.89
651.23	57595.90
651.38	57799.53
651.52	57757.40
651.67	57609.95
651.81	57523.35
651.96	57836.98
652.10	57794.85
652.25	57631.01
652.39	57893.15
652.54	57574.84
652.68	57394.62
652.83	57560.79
652.97	57645.05
653.12	57750.38
653.26	57549.09
653.41	57776.12
653.55	57668.46
653.70	57303.34
653.84	57638.03
653.99	57614.63
654.13	57602.92
654.27	57425.04
654.42	57399.30
654.56	57378.23
654.71	57415.68
654.85	57586.54
655.00	57523.35
655.14	57354.83
655.29	57357.17
655.43	57181.63
655.57	57144.18
655.72	57687.18
655.86	57226.10
656.01	57326.74
656.15	57378.23
656.30	57570.16
656.44	57539.73
656.58	57380.57
656.73	57289.29
656.87	57193.33
657.01	57162.90
657.16	57427.38
657.30	56970.98
657.45	56931.19
657.59	57109.07
657.73	56858.63
657.88	56980.34
658.02	56891.40
658.16	57116.09
658.31	57073.96
658.45	56982.68
658.60	56942.89
658.74	57064.60
658.88	56963.96
659.03	56868.00
659.17	56933.53
659.31	57017.79
659.46	56793.10
659.60	56917.15
659.74	56800.12
659.89	56655.01
660.03	56556.70
660.17	56889.06
660.32	56500.53
660.46	56647.99
660.60	56507.55
660.74	56877.36
660.89	56772.03
661.03	56322.65
661.17	56205.62
661.32	56280.52
661.46	56343.72
661.60	56137.75
661.74	56334.35
661.89	56179.88
662.03	56498.19
662.17	56226.69
662.31	55985.61
662.46	56392.87
662.60	56128.39
662.74	56203.28
662.88	56268.82
663.03	55910.72
663.17	56104.98
663.31	55814.76
663.45	55920.08
663.60	55653.26
663.74	55451.97
663.88	55636.87
664.02	55702.41
664.17	55840.50
664.31	55613.47
664.45	55522.19
664.59	55533.89
664.73	55494.10
664.88	55379.42
665.02	55178.13
665.16	55267.07
665.30	55508.14
665.44	55386.44
665.59	55171.11
665.73	55519.85
665.87	54960.46
666.01	55107.91
666.15	54993.23
666.29	55044.72
666.44	55231.96
666.58	54805.98
666.72	54621.08
666.86	54656.19
667.00	54986.21
667.14	54508.74
667.28	54454.90
667.43	54618.74
667.57	54653.85
667.71	54564.91
667.85	54419.80
667.99	54452.56
668.13	54356.60
668.27	54494.69
668.41	54398.73
668.56	54328.52
668.70	54148.29
668.84	53996.16
668.98	53895.52
669.12	54157.66
669.26	54038.29
669.40	54295.75
669.54	53949.35
669.68	53984.46
669.82	53752.74
669.96	53914.24
670.10	53858.07
670.25	53799.55
670.39	54031.27
670.53	53642.74
670.67	53640.40
670.81	53827.64
670.95	53778.49
671.09	53460.18
671.23	53064.63
671.37	53240.17
671.51	53226.12
671.65	53134.84
671.79	53364.21
671.93	53127.82
672.07	53155.91
672.21	52631.63
672.35	52622.26
672.49	52584.82
672.63	52142.45
672.77	52622.26
672.91	52484.17
673.05	52198.63
673.19	52236.08
673.33	52362.46
673.47	52376.51
673.61	52493.54
673.75	52219.69
673.89	51906.06
674.03	51817.12
674.17	51526.89
674.31	51391.14
674.45	51468.38
674.59	51341.99
674.73	51482.42
674.87	51540.94
675.01	51466.04
675.15	51033.04
675.29	51320.93
675.43	51339.65
675.56	50794.31
675.70	51065.81
675.84	50857.50
675.98	49708.30
676.12	51000.27
676.26	50461.95
676.40	50520.46
676.54	50548.55
676.68	50688.98
676.82	50031.29
676.96	49989.16
677.10	49949.37
677.23	50033.63
677.37	49806.60
677.51	49364.24
677.65	49350.20
677.79	48690.16
677.93	48797.83
678.07	49186.36
678.21	48879.75
678.34	48741.66
678.48	48605.91
678.62	48722.93
678.76	48701.87
678.90	48156.52
679.04	48570.80
679.18	48428.02
679.31	47807.78
679.45	47697.78
679.59	48217.38
679.73	47859.27
679.87	47337.33
680.00	47295.21
680.14	46829.44
680.28	46990.94
680.42	46693.69
680.56	46452.61
680.70	46522.83
680.83	46410.48
680.97	46232.60
681.11	46719.43
681.25	46405.80
681.39	46038.34
681.52	46363.67
681.66	45867.48
681.80	45853.44
681.94	45411.07
682.07	45518.74
682.21	45141.91
682.35	45460.23
682.49	44636.36
682.62	45333.84
682.76	44847.00
682.90	45090.42
683.04	44893.82
683.17	44343.79
683.31	43920.15
683.45	44212.72
683.59	44051.22
683.72	43835.89
683.86	43833.55
684.00	43800.79
684.13	44013.77
684.27	43105.65
684.41	43849.94
684.55	43679.08
684.68	43229.69
684.82	43356.08
684.96	42586.05
685.09	42670.31
685.23	42389.44
685.37	42155.39
685.50	42073.47
685.64	42136.66
685.78	42122.62
685.91	42171.77
686.05	41390.03
686.19	41256.62
686.32	41549.19
686.46	40886.82
686.60	40334.45
686.73	40542.76
686.87	40650.42
687.01	40615.32
687.14	40718.30
687.28	40289.98
687.42	40069.97
687.55	39611.23
687.69	39856.98
687.82	39777.40
687.96	39917.84
688.10	39550.37
688.23	39754.00
688.37	39419.30
688.50	38485.43
688.64	38967.58
688.78	38857.57
688.91	38541.60
689.05	38782.68
689.18	38253.72
689.32	37455.59
689.46	37397.08
689.59	37696.67
689.73	37511.77
689.86	37083.45
690.00	37158.34
690.13	37081.11
690.27	37624.11
690.41	37457.93
690.54	37064.72
690.68	36629.38
690.81	36580.23
690.95	36442.14
691.08	36266.60
691.22	35828.92
691.35	35903.82
691.49	35840.62
691.62	35784.45
691.76	35674.45
691.89	35250.81
692.03	35522.31
692.16	34979.31
692.30	34972.28
692.43	34923.13
692.57	34408.22
692.70	34684.40
692.84	34295.87
692.97	34597.80
693.11	34469.07
693.24	34080.54
693.38	33560.94
693.51	33738.82
693.65	33230.93
693.78	33521.15
693.92	33516.47
694.05	33261.35
694.19	32734.73
694.32	32811.97
694.45	32439.82
694.59	32437.48
694.72	32498.34
694.86	32226.84
694.99	31789.16
695.13	31700.22
695.26	31367.86
695.39	31489.57
695.53	31672.13
695.66	31838.31
695.80	31281.26
695.93	30981.67
696.07	30551.01
696.20	30663.36
696.33	30141.42
696.47	30572.08
696.60	30712.51
696.73	30281.85
696.87	30469.09
697.00	30195.25
697.14	30054.82
697.27	29605.44
697.40	29572.67
697.54	29247.33
697.67	29638.20
697.80	29144.35
697.94	29106.90
698.07	28680.92
698.21	28444.53
698.34	28683.27
698.47	28706.67
698.61	28187.07
698.74	28430.49
698.87	28528.79
699.01	27723.65
699.14	28187.07
699.27	27772.80
699.40	28142.60
699.54	28065.36
699.67	27321.07
699.80	27590.24
699.94	27215.75
700.07	27098.72
700.20	26712.53
700.34	26841.26
700.47	26438.69
700.60	26214.00
700.73	26188.25
700.87	26396.56
701.00	25729.51
701.13	25841.85
701.26	26190.59
701.40	25954.20
701.53	25963.56
701.66	25408.86
701.79	25273.10
701.93	24826.06
702.06	24882.24
702.19	24823.72
702.32	24744.14
702.46	24795.64
702.59	24397.74
702.72	24215.18
702.85	24285.40
702.99	24210.50
703.12	23976.45
703.25	23730.69
703.38	23718.99
703.51	23763.46
703.65	23152.58
703.78	23178.33
703.91	23138.54
704.04	23288.33
704.17	23330.46
704.31	22913.84
704.44	22583.83
704.57	22792.14
704.70	22340.41
704.83	22382.54
704.96	22522.98
705.10	22064.23
705.23	22132.11
>>>>>End Processed Spectral Data<<<<<
