SpectraSuite Data File
++++++++++++++++++++++++++++++++++++
Date: Fri Oct 25 10:44:52 EDT 2013
User: price-jones
Dark Spectrum Present: No
Reference Spectrum Present: No
Number of Sampled Component Spectra: 1
Spectrometers: USB2+H05261
Integration Time (usec): 100000 (USB2+H05261)
Spectra Averaged: 1 (USB2+H05261)
Boxcar Smoothing: 0 (USB2+H05261)
Correct for Electrical Dark: No (USB2+H05261)
Strobe/Lamp Enabled: No (USB2+H05261)
Correct for Detector Non-linearity: No (USB2+H05261)
Correct for Stray Light: No (USB2+H05261)
Number of Pixels in Processed Spectrum: 2048
>>>>>Begin Processed Spectral Data<<<<<
365.73	93.62
365.92	93.62
366.12	93.62
366.32	0.00
366.52	16.38
366.72	63.19
366.91	53.83
367.11	28.09
367.31	18.72
367.51	77.24
367.70	93.62
367.90	53.83
368.10	0.00
368.30	56.17
368.49	0.00
368.69	98.30
368.89	39.79
369.09	77.24
369.28	9.36
369.48	42.13
369.68	63.19
369.87	46.81
370.07	65.54
370.27	60.85
370.47	194.26
370.66	367.46
370.86	451.72
371.06	433.00
371.25	435.34
371.45	411.93
371.65	477.47
371.84	421.30
372.04	409.59
372.24	433.00
372.44	458.74
372.63	482.15
372.83	538.32
373.03	421.30
373.22	463.43
373.42	498.53
373.62	463.43
373.81	587.47
374.01	571.09
374.21	552.37
374.40	500.87
374.60	505.56
374.79	496.19
374.99	517.26
375.19	575.77
375.38	610.88
375.58	533.64
375.78	601.52
375.97	528.96
376.17	580.45
376.37	533.64
376.56	559.39
376.76	610.88
376.95	559.39
377.15	589.82
377.35	489.17
377.54	585.13
377.74	575.77
377.93	627.26
378.13	622.58
378.33	571.09
378.52	594.50
378.72	634.29
378.91	573.43
379.11	650.67
379.31	571.09
379.50	564.07
379.70	655.35
379.89	550.03
380.09	624.92
380.28	678.76
380.48	629.60
380.68	650.67
380.87	629.60
381.07	629.60
381.26	688.12
381.46	667.05
381.65	671.73
381.85	667.05
382.04	716.20
382.24	690.46
382.43	748.97
382.63	678.76
382.83	585.13
383.02	727.91
383.22	713.86
383.41	713.86
383.61	657.69
383.80	720.88
384.00	697.48
384.19	732.59
384.39	748.97
384.58	800.46
384.78	751.31
384.97	732.59
385.17	699.82
385.36	779.40
385.56	770.04
385.75	711.52
385.95	741.95
386.14	854.30
386.34	709.18
386.53	720.88
386.72	791.10
386.92	786.42
387.11	763.01
387.31	765.36
387.50	840.25
387.70	772.38
387.89	791.10
388.09	835.57
388.28	770.04
388.48	774.72
388.67	868.34
388.86	800.46
389.06	786.42
389.25	873.02
389.45	931.53
389.64	835.57
389.84	940.90
390.03	1071.97
390.22	966.64
390.42	954.94
390.61	903.45
390.81	943.24
391.00	936.21
391.19	1041.54
391.39	1001.75
391.58	945.58
391.78	952.60
391.97	1004.09
392.16	976.00
392.36	971.32
392.55	933.87
392.75	854.30
392.94	999.41
393.13	990.05
393.33	917.49
393.52	1011.11
393.71	1050.90
393.91	1048.56
394.10	1043.88
394.29	1067.28
394.49	1015.79
394.68	1011.11
394.88	1191.33
395.07	1111.75
395.26	1132.82
395.46	1029.84
395.65	1086.01
395.84	1205.38
396.04	1165.59
396.23	1144.52
396.42	1118.78
396.62	1100.05
396.81	1128.14
397.00	1111.75
397.19	1226.44
397.39	1233.46
397.58	1259.21
397.77	1273.25
397.97	1200.69
398.16	1217.08
398.35	1359.85
398.55	1273.25
398.74	1277.93
398.93	1355.17
399.12	1362.19
399.32	1376.24
399.51	1327.08
399.70	1324.74
399.90	1380.92
400.09	1366.87
400.28	1397.30
400.47	1409.00
400.67	1383.26
400.86	1385.60
401.05	1420.71
401.24	1401.98
401.44	1540.07
401.63	1544.75
401.82	1500.28
402.01	1572.84
402.21	1563.48
402.40	1575.18
402.59	1521.35
402.78	1528.37
402.97	1565.82
403.17	1600.93
403.36	1584.54
403.55	1570.50
403.74	1612.63
403.93	1687.53
404.13	1764.76
404.32	1612.63
404.51	1673.48
404.70	1675.82
404.89	1612.63
405.09	1680.50
405.28	1741.36
405.47	1818.60
405.66	1736.68
405.85	1736.68
406.05	1781.15
406.24	1764.76
406.43	1823.28
406.62	1879.45
406.81	1916.90
407.00	1872.43
407.20	1795.19
407.39	1872.43
407.58	1905.20
407.77	2033.93
407.96	1895.83
408.15	1872.43
408.34	2064.35
408.54	2054.99
408.73	2005.84
408.92	2026.90
409.11	2040.95
409.30	2197.76
409.49	2012.86
409.68	1973.07
409.87	2080.74
410.07	2122.87
410.26	2153.29
410.45	2047.97
410.64	2181.38
410.83	2230.53
411.02	2232.87
411.21	2375.64
411.40	2235.21
411.59	2195.42
411.78	2307.77
411.98	2270.32
412.17	2296.07
412.36	2356.92
412.55	2349.90
412.74	2497.35
412.93	2487.99
413.12	2583.95
413.31	2436.50
413.50	2499.69
413.69	2520.76
413.88	2612.04
414.07	2565.23
414.26	2719.70
414.45	2656.51
414.64	2595.65
414.83	2649.49
415.02	2850.77
415.22	2738.43
415.41	2869.50
415.60	2780.56
415.79	2808.64
415.98	2855.45
416.17	2911.63
416.36	2850.77
416.55	2792.26
416.74	2951.42
416.93	2897.58
417.12	2942.05
417.31	3002.91
417.50	3038.02
417.69	2993.55
417.88	3162.06
418.07	3014.61
418.26	3033.33
418.45	3070.78
418.64	3258.03
418.83	3166.74
419.02	3054.40
419.21	3166.74
419.39	3365.69
419.58	3274.41
419.77	3136.32
419.96	3152.70
420.15	3178.45
420.34	3328.24
420.53	3274.41
420.72	3316.54
420.91	3393.78
421.10	3365.69
421.29	3454.63
421.48	3403.14
421.67	3407.82
421.86	3386.76
422.05	3510.80
422.24	3283.77
422.43	3447.61
422.61	3454.63
422.80	3499.10
422.99	3478.04
423.18	3562.30
423.37	3602.08
423.56	3681.66
423.75	3616.13
423.94	3475.70
424.13	3309.52
424.32	3445.27
424.50	3665.28
424.69	3503.78
424.88	3641.87
425.07	3454.63
425.26	3480.38
425.45	3524.85
425.64	3597.40
425.83	3548.25
426.01	3611.45
426.20	3676.98
426.39	3719.11
426.58	3775.28
426.77	3527.19
426.96	3616.13
427.15	3503.78
427.33	3707.41
427.52	3765.92
427.71	3728.47
427.90	3747.20
428.09	3772.94
428.28	3789.33
428.46	3782.31
428.65	3819.75
428.84	3751.88
429.03	3742.52
429.22	3775.28
429.40	3770.60
429.59	3761.24
429.78	3653.58
429.97	3644.21
430.16	3791.67
430.34	3882.95
430.53	3901.67
430.72	3868.91
430.91	3836.14
431.10	4002.32
431.28	4079.55
431.47	4276.16
431.66	4098.28
431.85	4032.74
432.03	4353.40
432.22	4301.90
432.41	4156.79
432.60	4049.13
432.79	4257.43
432.97	4257.43
433.16	4301.90
433.35	4184.88
433.54	4297.22
433.72	4187.22
433.91	4353.40
434.10	4334.67
434.28	4360.42
434.47	4308.93
434.66	4416.59
434.85	4547.66
435.03	4432.97
435.22	4514.89
435.41	4559.36
435.59	4568.73
435.78	4634.26
435.97	4704.48
436.16	4678.73
436.34	4711.50
436.53	4631.92
436.72	4779.37
436.90	4690.43
437.09	4688.09
437.28	4671.71
437.46	4638.94
437.65	4678.73
437.84	4636.60
438.02	4753.63
438.21	4664.69
438.40	4589.79
438.58	4880.02
438.77	4901.08
438.96	4929.17
439.14	5006.41
439.33	5186.63
439.52	5135.14
439.70	5191.31
439.89	5172.58
440.08	5146.84
440.26	5268.55
440.45	5181.95
440.63	5214.71
440.82	5334.08
441.01	5345.78
441.19	5474.51
441.38	5301.31
441.57	5507.28
441.75	5605.58
441.94	5596.22
442.12	5589.20
442.31	5706.23
442.50	5680.48
442.68	5675.80
442.87	5713.25
443.05	5657.07
443.24	5701.54
443.43	5905.17
443.61	5846.66
443.80	5870.06
443.98	5617.29
444.17	5427.70
444.35	5930.92
444.54	5959.00
444.73	5930.92
444.91	5905.17
445.10	5884.11
445.28	5820.91
445.47	5825.59
445.65	5888.79
445.84	5898.15
446.02	5994.11
446.21	5998.79
446.39	6033.90
446.58	5942.62
446.77	6001.13
446.95	5977.73
447.14	5926.24
447.32	6106.46
447.51	5790.49
447.69	5989.43
447.88	5921.56
448.06	5949.64
448.25	6153.27
448.43	5973.05
448.62	6040.92
448.80	5947.30
448.99	6050.28
449.17	6122.84
449.36	6251.57
449.54	6228.17
449.73	6216.46
449.91	6389.66
450.10	6438.81
450.28	6469.24
450.46	6506.69
450.65	6532.44
450.83	6581.59
451.02	6558.18
451.20	6579.25
451.39	6497.33
451.57	6356.90
451.76	6476.26
451.94	6478.60
452.13	6588.61
452.31	6473.92
452.49	6361.58
452.68	6569.88
452.86	6441.15
453.05	6654.14
453.23	6750.10
453.42	6422.43
453.60	6679.89
453.78	6593.29
453.97	6717.34
454.15	6771.17
454.34	6677.55
454.52	6633.08
454.70	6782.87
454.89	6663.51
455.07	6827.34
455.26	6827.34
455.44	7009.90
455.62	6920.96
455.81	6841.39
455.99	6970.12
456.17	7087.14
456.36	7148.00
456.54	7026.29
456.73	7307.15
456.91	7250.98
457.09	7325.88
457.28	7503.76
457.46	7279.07
457.64	7442.90
457.83	7431.20
458.01	7407.80
458.19	7529.50
458.38	7356.30
458.56	7468.65
458.74	7442.90
458.93	7552.91
459.11	7564.61
459.29	7393.75
459.48	7559.93
459.66	7578.65
459.84	7597.38
460.03	7721.43
460.21	7611.42
460.39	7709.72
460.57	7658.23
460.76	7602.06
460.94	7946.12
461.12	7983.57
461.31	7791.64
461.49	7786.96
461.67	7768.24
461.85	8163.79
462.04	7864.20
462.22	8002.29
462.40	8056.12
462.59	8023.36
462.77	7936.76
462.95	7925.05
463.13	8079.53
463.32	7929.74
463.50	8163.79
463.68	8056.12
463.86	8297.20
464.05	8018.68
464.23	8126.34
464.41	8395.50
464.59	8135.70
464.78	8266.77
464.96	8266.77
465.14	8131.02
465.32	8470.40
465.50	8540.61
465.69	8468.06
465.87	8367.42
466.05	8374.44
466.23	8454.02
466.41	8306.56
466.60	8496.14
466.78	8297.20
466.96	8397.84
467.14	8606.15
467.32	8484.44
467.51	8643.60
467.69	8351.03
467.87	8531.25
468.05	8549.98
468.23	8779.35
468.41	8564.02
468.60	8725.52
468.78	8753.60
468.96	8908.08
469.14	8940.85
469.32	8755.94
469.50	8718.50
469.69	8821.48
469.87	8851.91
470.05	8720.84
470.23	8980.64
470.41	9015.74
470.59	9104.68
470.77	9011.06
470.95	9139.79
471.14	9315.33
471.32	9114.05
471.50	9493.21
471.68	9273.20
471.86	9490.87
472.04	9434.70
472.22	9460.45
472.40	9383.21
472.58	9486.19
472.77	9643.01
472.95	9518.96
473.13	9832.59
473.31	9650.03
473.49	9645.35
473.67	9788.12
473.85	9657.05
474.03	10043.24
474.21	9900.47
474.39	10054.94
474.57	9963.66
474.75	10251.55
474.93	10221.12
475.12	10080.69
475.30	10111.11
475.48	10249.21
475.66	10471.56
475.84	10190.69
476.02	10286.65
476.20	10342.83
476.38	10541.77
476.56	10628.37
476.74	10827.32
476.92	10626.03
477.10	10839.02
477.28	11089.46
477.46	11199.46
477.64	10953.71
477.82	11131.59
478.00	11307.13
478.18	11463.94
478.36	11400.75
478.54	11482.67
478.72	11634.80
478.90	11939.07
479.08	11878.22
479.26	11985.88
479.44	11742.47
479.62	12217.60
479.80	12077.16
479.98	12367.39
480.16	12425.90
480.34	12327.60
480.52	12423.56
480.70	12482.08
480.88	12414.20
481.06	12622.51
481.24	12631.87
481.41	12985.29
481.59	13046.15
481.77	13163.17
481.95	12886.99
482.13	13448.72
482.31	13490.85
482.49	13682.77
482.67	13458.08
482.85	13575.11
483.03	13745.97
483.21	13537.66
483.39	13998.74
483.57	14047.90
483.74	14281.95
483.92	14513.66
484.10	14375.57
484.28	14668.14
484.46	14813.25
484.64	15171.35
484.82	14867.08
485.00	14679.84
485.18	15009.86
485.35	15152.63
485.53	14904.53
485.71	14890.49
485.89	15103.48
486.07	15211.14
486.25	15594.99
486.43	15992.88
486.61	15571.58
486.78	16081.82
486.96	16112.25
487.14	16173.10
487.32	16311.19
487.50	16645.89
487.68	16606.10
487.85	16924.41
488.03	16884.62
488.21	17191.23
488.39	17275.49
488.57	17111.66
488.75	17511.89
488.92	17666.36
489.10	17951.91
489.28	17977.65
489.46	17898.08
489.64	17844.24
489.81	18263.20
489.99	18251.50
490.17	18637.69
490.35	18597.90
490.53	18813.23
490.70	18789.82
490.88	18838.97
491.06	19159.63
491.24	18941.96
491.41	19159.63
491.59	19232.18
491.77	19021.53
491.95	19711.99
492.13	19686.25
492.30	19882.85
492.48	20027.96
492.66	19939.02
492.84	20306.49
493.01	20299.47
493.19	20306.49
493.37	20472.67
493.54	20631.82
493.72	20727.78
493.90	20959.50
494.08	21053.12
494.25	21476.76
494.43	21369.09
494.61	21635.91
494.79	21572.72
494.96	21631.23
495.14	21507.18
495.32	21834.86
495.49	21837.20
495.67	21998.70
495.85	22237.43
496.02	22143.81
496.20	22305.31
496.38	22616.60
496.55	22670.43
496.73	23269.61
496.91	22813.20
497.09	22885.76
497.26	22876.40
497.44	22906.82
497.62	23171.30
497.79	23592.60
497.97	23349.18
498.14	23501.32
498.32	23917.93
498.50	23552.81
498.67	23999.85
498.85	23828.99
499.03	24280.72
499.20	24161.35
499.38	23899.21
499.56	24135.60
499.73	24491.37
499.91	24505.41
500.08	24367.32
500.26	24472.64
500.44	24854.15
500.61	24428.17
500.79	24613.07
500.97	24886.92
501.14	25521.20
501.32	25338.64
501.49	25408.86
501.67	25144.38
501.84	25570.35
502.02	25142.03
502.20	25685.04
502.37	25537.59
502.55	25671.00
502.72	25757.60
502.90	26155.49
503.07	26094.63
503.25	25848.88
503.43	26001.01
503.60	26249.11
503.78	26146.12
503.95	26253.79
504.13	26499.55
504.30	26588.49
504.48	26714.87
504.65	26834.24
504.83	27267.24
505.01	26925.52
505.18	27058.93
505.36	27412.35
505.53	27447.46
505.71	27543.42
505.88	27646.41
506.06	27089.36
506.23	27683.86
506.41	27358.52
506.58	27711.94
506.76	27831.31
506.93	27885.14
507.11	27924.93
507.28	28025.57
507.46	27962.38
507.63	28180.05
507.81	28402.40
507.98	28135.58
508.16	28346.23
508.33	28664.54
508.50	28587.30
508.68	28929.02
508.85	28835.40
509.03	28980.51
509.20	29076.48
509.38	29048.39
509.55	29394.79
509.73	29088.18
509.90	29062.43
510.08	29076.48
510.25	29343.30
510.42	29422.87
510.60	29621.82
510.77	29780.98
510.95	29846.51
511.12	29858.21
511.30	29876.94
511.47	30099.29
511.64	30185.89
511.82	30403.56
511.99	30228.02
512.17	30841.24
512.34	30040.78
512.51	30501.86
512.69	30721.87
512.86	30742.94
513.04	30918.48
513.21	30993.37
513.38	30806.13
513.56	30670.38
513.73	30644.63
513.90	30895.07
514.08	30841.24
514.25	31021.46
514.43	31330.41
514.60	31197.00
514.77	31339.77
514.95	31227.43
515.12	31632.34
515.29	31103.38
515.47	31674.47
515.64	31880.44
515.81	31398.29
515.99	31721.28
516.16	32037.25
516.33	31742.35
516.51	31826.60
516.68	31524.68
516.85	31924.91
517.03	31697.88
517.20	31854.69
517.37	32283.01
517.54	32297.05
517.72	32215.13
517.89	32093.43
518.06	32212.79
518.24	32088.74
518.41	32341.52
518.58	32226.84
518.75	32741.75
518.93	32816.65
519.10	32896.23
519.27	33071.77
519.45	32907.93
519.62	33273.06
519.79	32933.68
519.96	33364.34
520.14	33432.21
520.31	33125.60
520.48	33118.58
520.65	33050.70
520.83	33481.36
521.00	34029.05
521.17	33509.45
521.34	33958.83
521.52	33820.74
521.69	34139.05
521.86	34382.47
522.03	34401.19
522.20	34403.53
522.38	34319.28
522.55	34066.50
522.72	34452.69
522.89	34394.17
523.07	34749.93
523.24	34305.23
523.41	34707.80
523.58	34733.55
523.75	34979.31
523.92	34862.28
524.10	35117.40
524.27	35211.02
524.44	35079.95
524.61	35454.44
524.78	34986.33
524.96	35335.07
525.13	35260.17
525.30	35512.95
525.47	35470.82
525.64	35435.71
525.81	35590.19
525.98	35791.47
526.16	35208.68
526.33	35213.36
526.50	35831.26
526.67	35246.13
526.84	35447.41
527.01	35620.61
527.18	35899.14
527.36	36079.36
527.53	36156.60
527.70	36201.07
527.87	36444.48
528.04	36409.37
528.21	36130.85
528.38	36404.69
528.55	36367.24
528.72	36449.16
528.89	36594.28
529.07	36290.01
529.24	36669.17
529.41	36737.05
529.58	36622.36
529.75	36849.39
529.92	36917.27
530.09	37013.23
530.26	36589.59
530.43	37153.66
530.60	36875.14
530.77	36753.43
530.94	37153.66
531.11	37078.77
531.28	37165.37
531.46	37170.05
531.63	37462.61
531.80	37394.74
531.97	36971.10
532.14	37586.66
532.31	37184.09
532.48	37223.88
532.65	37745.82
532.82	37488.36
532.99	37441.55
533.16	37600.71
533.33	37528.15
533.50	38337.98
533.67	37897.95
533.84	37673.26
534.01	38054.77
534.18	37785.61
534.35	38190.52
534.52	37902.64
534.69	38258.40
534.86	38377.76
535.03	37652.20
535.20	38588.41
535.37	38801.40
535.54	38672.67
535.71	38370.74
535.88	38122.65
536.05	38363.72
536.22	38513.52
536.38	38581.39
536.55	38433.94
536.72	38813.10
536.89	38312.23
537.06	38719.48
537.23	38726.50
537.40	38616.50
537.57	39105.67
537.74	38974.60
537.91	39065.88
538.08	39489.52
538.25	38637.56
538.42	38930.13
538.59	38824.81
538.75	38520.54
538.92	39283.55
539.09	39157.16
539.26	39421.64
539.43	39168.87
539.60	39669.74
539.77	39578.46
539.94	39147.80
540.11	39089.29
540.28	39494.20
540.44	39519.95
540.61	39402.92
540.78	39763.36
540.95	39487.18
541.12	39285.89
541.29	39653.36
541.46	39309.30
541.62	39517.60
541.79	39772.72
541.96	39751.66
542.13	39854.64
542.30	39660.38
542.47	39859.32
542.63	40261.90
542.80	40126.14
542.97	40264.24
543.14	40608.29
543.31	40641.06
543.48	40512.33
543.64	41352.58
543.81	40893.84
543.98	40781.49
544.15	40898.52
544.32	40701.92
544.48	41453.23
544.65	40903.20
544.82	41127.89
544.99	40868.09
545.16	41041.29
545.32	40992.14
545.49	40961.72
545.66	41219.17
545.83	41139.60
546.00	41170.02
546.16	41151.30
546.33	40737.02
546.50	40638.72
546.67	40947.67
546.83	40989.80
547.00	40896.18
547.17	41158.32
547.34	41310.46
547.50	40961.72
547.67	42106.24
547.84	40933.63
548.00	41076.40
548.17	41851.12
548.34	41546.85
548.51	41897.93
548.67	42012.62
548.84	42024.32
549.01	41600.68
549.18	41811.33
549.34	41820.69
549.51	41818.35
549.68	41677.92
549.84	42101.56
550.01	41930.70
550.18	41572.60
550.34	42122.62
550.51	41783.24
550.68	41916.65
550.84	41759.84
551.01	42307.52
551.18	41979.85
551.34	42085.17
551.51	42033.68
551.68	42171.77
551.84	42457.32
552.01	42010.28
552.18	42178.79
552.34	42174.11
552.51	42326.25
552.68	42593.07
552.84	42834.14
553.01	42459.66
553.18	42134.32
553.34	42157.73
553.51	42019.64
553.67	42672.65
553.84	42927.77
554.01	42717.12
554.17	43049.47
554.34	42717.12
554.51	42555.62
554.67	42761.59
554.84	42539.24
555.00	42579.03
555.17	42773.29
555.33	42951.17
555.50	42883.30
555.67	42469.02
555.83	42808.40
556.00	42871.59
556.16	42967.55
556.33	42871.59
556.50	42700.73
556.66	42902.02
556.83	42501.79
556.99	43402.89
557.16	43335.02
557.32	43295.23
557.49	43208.63
557.65	42916.06
557.82	42955.85
557.98	43372.47
558.15	43150.12
558.32	43372.47
558.48	43442.68
558.65	43016.71
558.81	43016.71
558.98	43019.05
559.14	43070.54
559.31	43526.94
559.47	43115.01
559.64	43477.79
559.80	43438.00
559.97	43409.92
560.13	43302.25
560.30	43318.64
560.46	43660.35
560.63	43522.26
560.79	43686.10
560.96	43590.14
561.12	43421.62
561.29	43548.01
561.45	43817.17
561.61	43728.23
561.78	43522.26
561.94	43763.34
562.11	43320.98
562.27	43618.22
562.44	43798.44
562.60	43955.26
562.77	43924.83
562.93	43615.88
563.10	44156.55
563.26	43599.50
563.42	43973.98
563.59	43377.15
563.75	43981.01
563.92	44250.17
564.08	44004.41
564.24	43896.75
564.41	43718.87
564.57	43697.80
564.74	43360.76
564.90	44140.16
565.07	43714.19
565.23	43997.39
565.39	43716.53
565.56	43845.26
565.72	43402.89
565.88	43562.05
566.05	43716.53
566.21	43952.92
566.38	44102.71
566.54	44041.86
566.70	44210.38
566.87	44481.88
567.03	43992.71
567.19	43950.58
567.36	44135.48
567.52	43852.28
567.68	44353.15
567.85	43934.20
568.01	44100.37
568.17	44107.40
568.34	44376.56
568.50	44123.78
568.66	44027.82
568.83	44334.43
568.99	43999.73
569.15	44156.55
569.32	44126.12
569.48	44083.99
569.64	44332.09
569.81	44229.10
569.97	44273.57
570.13	44247.83
570.30	43978.67
570.46	43753.97
570.62	44208.04
570.78	44119.10
570.95	44208.04
571.11	44133.14
571.27	44179.95
571.43	43990.37
571.60	44519.33
571.76	44545.08
571.92	44243.15
572.09	44266.55
572.25	44584.86
572.41	44236.12
572.57	44734.66
572.74	44830.62
572.90	44516.99
573.06	44711.25
573.22	44048.88
573.38	44203.36
573.55	44109.74
573.71	44692.53
573.87	43702.48
574.03	44072.29
574.20	44114.42
574.36	44306.34
574.52	44332.09
574.68	44397.62
574.84	44638.70
575.01	44619.97
575.17	44069.95
575.33	44208.04
575.49	44130.80
575.65	44746.36
575.82	44261.87
575.98	44205.70
576.14	44296.98
576.30	44390.60
576.46	44526.35
576.62	44758.06
576.79	44397.62
576.95	44463.16
577.11	44671.46
577.27	44643.38
577.43	44694.87
577.59	44296.98
577.75	44591.89
577.92	44397.62
578.08	44458.48
578.24	44395.28
578.40	44053.56
578.56	44362.51
578.72	44514.65
578.88	44598.91
579.04	44505.29
579.21	44306.34
579.37	44837.64
579.53	44582.52
579.69	44512.31
579.85	44428.05
580.01	44505.29
580.17	44949.99
580.33	44748.70
580.49	44371.88
580.65	44704.23
580.82	44563.80
580.98	44292.30
581.14	44409.32
581.30	44821.26
581.46	44545.08
581.62	44739.34
581.78	44451.45
581.94	44919.56
582.10	44570.82
582.26	44362.51
582.42	44430.39
582.58	44638.70
582.74	44254.85
582.90	44718.28
583.06	44844.66
583.22	44533.37
583.38	44954.67
583.54	44931.26
583.70	44664.44
583.86	44516.99
584.02	44091.01
584.18	44414.01
584.34	44500.61
584.50	44535.71
584.66	44172.93
584.82	44062.93
584.98	44781.47
585.14	44414.01
585.30	44421.03
585.46	44793.17
585.62	44472.52
585.78	44041.86
585.94	44584.86
586.10	44491.24
586.26	44577.84
586.42	44776.79
586.58	44912.54
586.74	44830.62
586.90	44435.07
587.06	44411.67
587.22	44687.85
587.38	44287.62
587.54	44348.47
587.70	44790.83
587.86	44650.40
588.02	44624.65
588.18	45034.25
588.34	44414.01
588.49	43955.26
588.65	43704.82
588.81	44261.87
588.97	44498.26
589.13	44495.92
589.29	44388.26
589.45	44715.93
589.61	44566.14
589.77	44720.62
589.93	44809.56
590.08	44643.38
590.24	45148.93
590.40	45153.62
590.56	45411.07
590.72	44921.90
590.88	44699.55
591.04	44587.21
591.20	45600.66
591.35	45177.02
591.51	44924.24
591.67	45062.33
591.83	44664.44
591.99	44690.19
592.15	44952.33
592.31	44975.73
592.46	45125.53
592.62	45006.16
592.78	44928.92
592.94	45179.36
593.10	44685.51
593.26	44987.44
593.41	44617.63
593.57	44638.70
593.73	44959.35
593.89	44912.54
594.05	45209.79
594.20	44732.32
594.36	44678.49
594.52	45008.50
594.68	44926.58
594.84	44776.79
594.99	44973.39
595.15	44732.32
595.31	45003.82
595.47	44748.70
595.62	45120.85
595.78	44538.05
595.94	44851.69
596.10	45165.32
596.25	45277.66
596.41	45137.23
596.57	44573.16
596.73	44996.80
596.88	44601.25
597.04	44917.22
597.20	44900.84
597.36	44851.69
597.51	45244.90
597.67	45453.20
597.83	45696.62
597.99	45294.05
598.14	45329.16
598.30	44816.58
598.46	44877.43
598.61	45029.57
598.77	45088.08
598.93	44814.24
599.09	45029.57
599.24	45652.15
599.40	45352.56
599.56	45502.35
599.71	44968.71
599.87	45464.91
600.03	44844.66
600.18	45088.08
600.34	45392.35
600.50	45212.13
600.65	44942.97
600.81	45212.13
600.97	44992.12
601.12	45038.93
601.28	45525.76
601.44	45034.25
601.59	44814.24
601.75	45207.45
601.91	45067.02
602.06	44884.45
602.22	44769.77
602.37	45055.31
602.53	45067.02
602.69	45022.54
602.84	44664.44
603.00	45132.55
603.16	44947.65
603.31	44449.11
603.47	45118.51
603.62	44634.02
603.78	45059.99
603.94	45294.05
604.09	45387.67
604.25	45338.52
604.40	45219.15
604.56	44889.13
604.71	44811.90
604.87	44744.02
605.03	44940.63
605.18	44765.09
605.34	44760.40
605.49	45186.38
605.65	44844.66
605.80	45137.23
605.96	44816.58
606.12	45106.80
606.27	44884.45
606.43	44514.65
606.58	44839.98
606.74	44713.59
606.89	44318.04
607.05	44816.58
607.20	45214.47
607.36	44748.70
607.51	44643.38
607.67	44512.31
607.82	44807.22
607.98	44832.96
608.13	44659.76
608.29	44437.41
608.44	44186.97
608.60	44481.88
608.75	44268.89
608.91	44280.60
609.06	45113.83
609.22	44760.40
609.37	44212.72
609.53	44481.88
609.68	44495.92
609.84	44315.70
609.99	44612.95
610.15	44528.69
610.30	44154.21
610.46	44397.62
610.61	44526.35
610.76	44378.90
610.92	44704.23
611.07	44594.23
611.23	44655.08
611.38	44509.97
611.54	44025.48
611.69	44294.64
611.84	44414.01
612.00	44142.50
612.15	44046.54
612.31	44318.04
612.46	44023.14
612.62	44416.35
612.77	44030.16
612.92	44355.49
613.08	44051.22
613.23	44531.03
613.39	44037.18
613.54	43739.93
613.69	44339.11
613.85	44163.57
614.00	44306.34
614.15	43978.67
614.31	44205.70
614.46	44023.14
614.62	44292.30
614.77	44086.33
614.92	44547.42
615.08	43665.03
615.23	43899.09
615.38	43655.67
615.54	43449.70
615.69	43714.19
615.84	43711.84
616.00	44088.67
616.15	43927.17
616.30	44161.23
616.46	43477.79
616.61	43400.55
616.76	43356.08
616.92	42904.36
617.07	43131.39
617.22	42756.91
617.37	43409.92
617.53	43529.28
617.68	43674.40
617.83	43693.12
617.99	43407.58
618.14	43519.92
618.29	43615.88
618.45	43292.89
618.60	43648.65
618.75	43414.60
618.90	43753.97
619.06	43435.66
619.21	43641.63
619.36	43812.49
619.51	43337.36
619.67	43512.90
619.82	43632.27
619.97	43222.67
620.12	43065.86
620.28	42880.95
620.43	43145.44
620.58	43370.13
620.73	42969.90
620.89	43159.48
621.04	42932.45
621.19	42878.61
621.34	43026.07
621.49	42843.51
621.65	42714.78
621.80	43136.07
621.95	42644.56
622.10	42696.05
622.25	42770.95
622.41	42740.52
622.56	42471.36
622.71	42665.63
622.86	42834.14
623.01	42621.16
623.16	42436.25
623.32	42658.60
623.47	42674.99
623.62	42623.50
623.77	42384.76
623.92	42913.72
624.07	42670.31
624.23	42419.87
624.38	42204.54
624.53	42045.38
624.68	42525.19
624.83	42129.64
624.98	42391.78
625.13	42660.94
625.29	42443.27
625.44	42246.67
625.59	42171.77
625.74	42036.02
625.89	41750.48
626.04	42099.22
626.19	41806.65
626.34	42349.65
626.49	42347.31
626.65	42202.20
626.80	42639.88
626.95	42415.19
627.10	41921.34
627.25	42101.56
627.40	41621.75
627.55	41511.74
627.70	41378.33
627.85	41816.01
628.00	41441.53
628.15	41610.04
628.30	41378.33
628.45	41560.89
628.60	41588.98
628.76	42005.59
628.91	41860.48
629.06	41528.13
629.21	41621.75
629.36	41390.03
629.51	41251.94
629.66	41572.60
629.81	41642.81
629.96	41109.17
630.11	41481.31
630.26	41649.83
630.41	41565.57
630.56	41148.96
630.71	41830.05
630.86	41130.23
631.01	40772.13
631.16	41095.13
631.31	40825.96
631.46	40842.35
631.61	40921.93
631.76	40842.35
631.91	41350.24
632.06	40919.59
632.21	41331.52
632.36	41507.06
632.51	40912.56
632.66	41186.41
632.81	41001.50
632.96	41020.23
633.10	40650.42
633.25	40938.31
633.40	41034.27
633.55	40776.81
633.70	41137.26
633.85	40399.99
634.00	40428.07
634.15	41095.13
634.30	40765.11
634.45	40395.31
634.60	40690.21
634.75	40610.64
634.90	40474.88
635.05	40587.23
635.19	40191.68
635.34	40507.65
635.49	40587.23
635.64	40472.54
635.79	40282.96
635.94	40645.74
636.09	40346.15
636.24	40109.76
636.39	39796.13
636.53	40098.06
636.68	40297.00
636.83	40233.81
636.98	40514.67
637.13	39896.77
637.28	40734.68
637.43	40526.38
637.57	40617.66
637.72	40055.93
637.87	39838.26
638.02	40137.85
638.17	39847.62
638.32	40414.03
638.46	39854.64
638.61	39789.11
638.76	40147.21
638.91	39866.34
639.06	39786.77
639.20	40304.02
639.35	39777.40
639.50	39983.37
639.65	40329.77
639.80	39913.16
639.94	39810.17
640.09	39742.30
640.24	39405.26
640.39	39140.78
640.54	39278.87
640.68	39618.25
640.83	39693.15
640.98	39452.07
641.13	38862.26
641.27	40016.14
641.42	39150.14
641.57	39456.75
641.72	39566.76
641.86	39246.10
642.01	39306.96
642.16	38974.60
642.31	38712.46
642.45	39185.25
642.60	39105.67
642.75	39489.52
642.90	39159.50
643.04	39241.42
643.19	38909.07
643.34	38888.00
643.48	39077.58
643.63	38733.53
643.78	38948.85
643.93	38845.87
644.07	39241.42
644.22	38785.02
644.37	38532.24
644.51	38890.34
644.66	39199.29
644.81	39220.36
644.95	39140.78
645.10	39140.78
645.25	39194.61
645.39	38880.98
645.54	38920.77
645.69	38810.76
645.83	38506.49
645.98	38630.54
646.13	39103.33
646.27	38705.44
646.42	38918.43
646.57	38944.17
646.71	38550.96
646.86	38974.60
647.00	38511.17
647.15	38838.85
647.30	38665.65
647.44	38747.57
647.59	38773.31
647.74	38312.23
647.88	38176.48
648.03	38501.81
648.17	38288.82
648.32	38038.39
648.47	38464.36
648.61	38160.09
648.76	38621.18
648.90	38333.29
649.05	38000.94
649.20	38043.07
649.34	38307.55
649.49	38007.96
649.63	37673.26
649.78	38230.31
649.92	38043.07
650.07	38696.08
650.21	37567.94
650.36	37916.68
650.51	38068.81
650.65	38382.45
650.80	38284.14
650.94	37914.34
651.09	38188.18
651.23	37640.50
651.38	37961.15
651.52	37565.60
651.67	37947.11
651.81	37537.51
651.96	37748.16
652.10	37467.30
652.25	37488.36
652.39	37523.47
652.54	37764.54
652.68	37354.95
652.83	37748.16
652.97	37951.79
653.12	37380.70
653.26	37261.33
653.41	37528.15
653.55	37097.49
653.70	37273.03
653.84	37378.36
653.99	37170.05
654.13	37579.64
654.27	37310.48
654.42	37289.42
654.56	37060.04
654.71	37387.72
654.85	37464.96
655.00	37319.84
655.14	36491.29
655.29	36844.71
655.43	37270.69
655.57	36854.08
655.72	36814.29
655.86	36554.49
656.01	36568.53
656.15	36907.91
656.30	36781.52
656.44	36856.42
656.58	36811.95
656.73	36811.95
656.87	36596.62
657.01	36879.82
657.16	36666.83
657.30	37095.15
657.45	36650.45
657.59	36666.83
657.73	36264.26
657.88	36514.70
658.02	36797.90
658.16	37024.93
658.31	36680.88
658.45	36701.94
658.60	36446.82
658.74	36622.36
658.88	36219.79
659.03	36584.91
659.17	36224.47
659.31	35868.71
659.46	36247.88
659.60	36456.18
659.74	36151.91
659.89	35564.44
660.03	36147.23
660.17	35711.89
660.32	35786.79
660.46	36119.15
660.60	35730.62
660.74	35868.71
660.89	35857.01
661.03	35915.52
661.17	35407.62
661.32	35519.97
661.46	35641.68
661.60	35173.57
661.74	35440.39
661.89	35145.48
662.03	35594.87
662.17	35559.76
662.31	35241.45
662.46	35395.92
662.60	35377.20
662.74	35264.85
662.88	35234.42
663.03	35409.96
663.17	34834.19
663.31	34707.80
663.45	34864.62
663.60	34672.70
663.74	34548.65
663.88	34843.56
664.02	34710.14
664.17	35129.10
664.31	34443.32
664.45	34656.31
664.59	34820.15
664.73	34305.23
664.88	34527.58
665.02	33923.72
665.16	34277.15
665.30	34670.36
665.44	34267.78
665.59	34167.14
665.73	33816.06
665.87	34064.16
666.01	34359.06
666.15	33912.02
666.29	33963.51
666.44	34153.10
666.58	33802.02
666.72	33958.83
666.86	34146.08
667.00	33745.84
667.14	33806.70
667.28	33383.06
667.43	33273.06
667.57	33486.04
667.71	33502.43
667.85	33584.35
667.99	33563.28
668.13	33345.61
668.27	33502.43
668.41	33589.03
668.56	33340.93
668.70	33572.64
668.84	33116.24
668.98	32929.00
669.12	32980.49
669.26	32964.10
669.40	32952.40
669.54	32470.25
669.68	32510.04
669.82	32528.77
669.96	32514.72
670.10	32683.24
670.25	32685.58
670.39	32519.40
670.53	32517.06
670.67	32224.50
670.81	32458.55
670.95	32416.42
671.09	32430.46
671.23	31997.46
671.37	32133.21
671.51	32322.80
671.65	31674.47
671.79	31847.67
671.93	31405.31
672.07	32027.89
672.21	32180.03
672.35	31571.49
672.49	31751.71
672.63	31922.57
672.77	31564.46
672.91	31627.66
673.05	31431.05
673.19	31440.42
673.33	31281.26
673.47	30871.67
673.61	30759.32
673.75	30981.67
673.89	30637.61
674.03	30869.33
674.17	30712.51
674.31	30782.73
674.45	30710.17
674.59	30703.15
674.73	30888.05
674.87	30574.42
675.01	30588.46
675.15	30536.97
675.29	30419.94
675.43	30593.14
675.56	30249.08
675.70	29968.22
675.84	30045.46
675.98	29256.70
676.12	30167.16
676.26	29991.62
676.40	29769.27
676.54	29668.63
676.68	29804.38
676.82	29277.76
676.96	29743.53
677.10	29544.58
677.23	29455.64
677.37	29523.52
677.51	29099.88
677.65	28903.28
677.79	28554.54
677.93	28395.38
678.07	28685.61
678.21	28610.71
678.34	28418.78
678.48	28451.55
678.62	28051.32
678.76	27548.11
678.90	27740.03
679.04	28133.24
679.18	28109.83
679.31	27585.55
679.45	27812.59
679.59	27316.39
679.73	27124.47
679.87	27321.07
680.00	26864.67
680.14	27374.91
680.28	27316.39
680.42	27292.99
680.56	27281.28
680.70	27171.28
680.83	27400.65
680.97	26941.91
681.11	27239.15
681.25	26829.56
681.39	26651.68
681.52	27054.25
681.66	26415.29
681.80	26616.57
681.94	26670.40
682.07	26529.97
682.21	26204.64
682.35	26244.43
682.49	26096.97
682.62	26464.44
682.76	25916.75
682.90	26146.12
683.04	25675.68
683.17	25551.63
683.31	25418.22
683.45	25130.33
683.59	25102.25
683.72	25310.55
683.86	25132.67
684.00	24800.32
684.13	25142.03
684.27	25305.87
684.41	24685.63
684.55	24718.40
684.68	24692.65
684.82	25135.01
684.96	24758.19
685.09	24442.21
685.23	24584.99
685.37	24339.23
685.50	24573.28
685.64	24259.65
685.78	24095.82
685.91	23955.38
686.05	23662.82
686.19	23667.50
686.32	23548.13
686.46	23311.74
686.60	23019.17
686.73	23491.96
686.87	22895.12
687.01	23084.70
687.14	22955.97
687.28	22764.05
687.42	23049.60
687.55	22895.12
687.69	22986.40
687.82	22693.83
687.96	22883.42
688.10	22836.61
688.23	22207.00
688.37	22298.28
688.50	21951.88
688.64	22410.63
688.78	22293.60
688.91	21909.75
689.05	22286.58
689.18	21921.46
689.32	21811.45
689.46	21633.57
689.59	22036.14
689.73	21876.99
689.86	21685.06
690.00	21556.33
690.13	21631.23
690.27	21163.12
690.41	21420.58
690.54	21135.04
690.68	21081.21
690.81	20727.78
690.95	20739.49
691.08	20634.16
691.22	20980.56
691.35	20760.55
691.49	20779.28
691.62	20790.98
691.76	20769.91
691.89	20304.15
692.03	20372.02
692.16	20496.07
692.30	20126.27
692.43	20109.88
692.57	19660.50
692.70	19866.47
692.84	19983.49
692.97	19559.86
693.11	19569.22
693.24	19372.61
693.38	19508.37
693.51	18930.25
693.65	19550.49
693.78	19604.33
693.92	19456.87
694.05	19541.13
694.19	19208.78
694.32	19037.92
694.45	18726.63
694.59	18719.60
694.72	18630.66
694.86	18504.28
694.99	18562.79
695.13	18721.95
695.26	18515.98
695.39	18347.46
695.53	18394.27
695.66	18286.61
695.80	18520.66
695.93	18412.99
696.07	18134.47
696.20	17977.65
696.33	17865.31
696.47	17855.95
696.60	17748.28
696.73	17373.80
696.87	17734.24
697.00	17628.92
697.14	17432.31
697.27	17554.02
697.40	17118.68
697.54	17111.66
697.67	16987.61
697.80	17195.92
697.94	16781.64
698.07	16791.00
698.21	16765.26
698.34	16774.62
698.47	16734.83
698.61	16271.40
698.74	16318.22
698.87	16130.97
699.01	15819.68
699.14	16152.04
699.27	16077.14
699.40	16135.65
699.54	16173.10
699.67	15899.26
699.80	15693.29
699.94	15646.48
700.07	15782.23
700.20	15843.09
700.34	15585.63
700.47	15625.42
700.60	15836.06
700.73	15803.30
700.87	15604.35
701.00	15452.22
701.13	15358.60
701.26	15159.65
701.40	15426.47
701.53	15073.05
701.66	15169.01
701.79	14867.08
701.93	14920.92
702.06	14539.41
702.19	15021.56
702.32	14724.31
702.46	14595.58
702.59	14422.38
702.72	14773.46
702.85	14787.50
702.99	14609.62
703.12	14415.36
703.25	14218.75
703.38	14003.43
703.51	14169.60
703.65	13963.64
703.78	14033.85
703.91	14204.71
704.04	13799.80
704.17	13809.16
704.31	13965.98
704.44	13760.01
704.57	13900.44
704.70	13865.33
704.83	13628.94
704.96	13614.90
705.10	13270.84
705.23	13645.32
>>>>>End Processed Spectral Data<<<<<
