SpectraSuite Data File
++++++++++++++++++++++++++++++++++++
Date: Fri Oct 25 11:26:22 EDT 2013
User: price-jones
Dark Spectrum Present: No
Reference Spectrum Present: No
Number of Sampled Component Spectra: 1
Spectrometers: USB2+H05261
Integration Time (usec): 100000 (USB2+H05261)
Spectra Averaged: 1 (USB2+H05261)
Boxcar Smoothing: 0 (USB2+H05261)
Correct for Electrical Dark: No (USB2+H05261)
Strobe/Lamp Enabled: No (USB2+H05261)
Correct for Detector Non-linearity: No (USB2+H05261)
Correct for Stray Light: No (USB2+H05261)
Number of Pixels in Processed Spectrum: 2048
>>>>>Begin Processed Spectral Data<<<<<
365.73	201.29
365.92	201.29
366.12	201.29
366.32	81.92
366.52	95.96
366.72	205.97
366.91	161.50
367.11	182.56
367.31	149.79
367.51	74.90
367.70	133.41
367.90	149.79
368.10	60.85
368.30	81.92
368.49	60.85
368.69	205.97
368.89	187.24
369.09	152.13
369.28	156.82
369.48	198.95
369.68	210.65
369.87	243.42
370.07	182.56
370.27	212.99
370.47	360.44
370.66	547.69
370.86	622.58
371.06	690.46
371.25	741.95
371.45	697.48
371.65	741.95
371.84	699.82
372.04	697.48
372.24	681.10
372.44	786.42
372.63	833.23
372.83	765.36
373.03	723.23
373.22	791.10
373.42	770.04
373.62	763.01
373.81	786.42
374.01	814.51
374.21	889.40
374.40	760.67
374.60	840.25
374.79	788.76
374.99	858.98
375.19	922.17
375.38	861.32
375.58	917.49
375.78	898.77
375.97	856.64
376.17	898.77
376.37	910.47
376.56	891.74
376.76	887.06
376.95	854.30
377.15	884.72
377.35	922.17
377.54	936.21
377.74	912.81
377.93	814.51
378.13	910.47
378.33	854.30
378.52	938.55
378.72	877.70
378.91	851.96
379.11	905.79
379.31	959.62
379.50	957.28
379.70	1018.13
379.89	987.71
380.09	957.28
380.28	987.71
380.48	915.15
380.68	961.96
380.87	966.64
381.07	1100.05
381.26	1011.11
381.46	978.34
381.65	1020.47
381.85	1041.54
382.04	1025.15
382.24	1130.48
382.43	1137.50
382.63	1036.86
382.83	1004.09
383.02	1071.97
383.22	1086.01
383.41	1090.69
383.61	1086.01
383.80	1076.65
384.00	1055.58
384.19	1076.65
384.39	1153.88
384.58	1233.46
384.78	1188.99
384.97	1191.33
385.17	1069.62
385.36	1123.46
385.56	1196.01
385.75	1179.63
385.95	1219.42
386.14	1179.63
386.34	1179.63
386.53	1153.88
386.72	1245.16
386.92	1270.91
387.11	1238.14
387.31	1254.53
387.50	1242.82
387.70	1324.74
387.89	1266.23
388.09	1301.34
388.28	1291.98
388.48	1259.21
388.67	1355.17
388.86	1228.78
389.06	1268.57
389.25	1378.58
389.45	1313.04
389.64	1303.68
389.84	1378.58
390.03	1385.60
390.22	1308.36
390.42	1380.92
390.61	1385.60
390.81	1423.05
391.00	1444.11
391.19	1474.54
391.39	1460.49
391.58	1441.77
391.78	1366.87
391.97	1394.96
392.16	1406.66
392.36	1530.71
392.55	1493.26
392.75	1572.84
392.94	1605.61
393.13	1474.54
393.33	1434.75
393.52	1540.07
393.71	1544.75
393.91	1528.37
394.10	1502.62
394.29	1612.63
394.49	1556.46
394.68	1565.82
394.88	1647.74
395.07	1771.79
395.26	1643.06
395.46	1668.80
395.65	1771.79
395.84	1661.78
396.04	1809.23
396.23	1818.60
396.42	1710.93
396.62	1694.55
396.81	1802.21
397.00	1818.60
397.19	1757.74
397.39	1778.81
397.58	1741.36
397.77	1802.21
397.97	1888.81
398.16	1764.76
398.35	1884.13
398.55	1867.75
398.74	1940.30
398.93	1956.69
399.12	1963.71
399.32	1891.15
399.51	1975.41
399.70	2012.86
399.90	2003.50
400.09	1996.48
400.28	2024.56
400.47	1966.05
400.67	2143.93
400.86	2062.01
401.05	2176.70
401.24	2038.61
401.44	2094.78
401.63	2036.27
401.82	2136.91
402.01	2043.29
402.21	2162.66
402.40	2263.30
402.59	2160.31
402.78	2179.04
402.97	2232.87
403.17	2263.30
403.36	2083.08
403.55	2415.43
403.74	2307.77
403.93	2340.54
404.13	2385.01
404.32	2354.58
404.51	2445.86
404.70	2359.26
404.89	2333.51
405.09	2469.27
405.28	2558.21
405.47	2438.84
405.66	2455.22
405.85	2466.92
406.05	2478.63
406.24	2576.93
406.43	2579.27
406.62	2527.78
406.81	2700.98
407.00	2581.61
407.20	2597.99
407.39	2686.94
407.58	2705.66
407.77	2672.89
407.96	2633.10
408.15	2574.59
408.34	2686.94
408.54	2705.66
408.73	2888.22
408.92	2710.34
409.11	2857.79
409.30	2839.07
409.49	2869.50
409.68	2860.13
409.87	2928.01
410.07	3159.72
410.26	2928.01
410.45	2850.77
410.64	2888.22
410.83	3073.12
411.02	3112.91
411.21	3246.32
411.40	2897.58
411.59	3243.98
411.78	3063.76
411.98	3243.98
412.17	3321.22
412.36	3255.69
412.55	3403.14
412.74	3410.16
412.93	3358.67
413.12	3180.79
413.31	3639.53
413.50	3529.53
413.69	3468.67
413.88	3616.13
414.07	3536.55
414.26	3576.34
414.45	3681.66
414.64	3595.06
414.83	3728.47
415.02	3672.30
415.22	3674.64
415.41	3777.62
415.60	3758.90
415.79	3810.39
415.98	3932.10
416.17	3847.84
416.36	3847.84
416.55	3953.16
416.74	3946.14
416.93	3992.95
417.12	4049.13
417.31	4154.45
417.50	4198.92
417.69	4212.96
417.88	4301.90
418.07	4168.49
418.26	4154.45
418.45	4229.35
418.64	4397.87
418.83	4376.80
419.02	4325.31
419.21	4542.98
419.39	4486.81
419.58	4500.85
419.77	4276.16
419.96	4617.88
420.15	4533.62
420.34	4486.81
420.53	4564.04
420.72	4660.01
420.91	4737.24
421.10	4699.80
421.29	4784.06
421.48	4601.49
421.67	4671.71
421.86	4645.96
422.05	4720.86
422.24	4767.67
422.43	4805.12
422.61	4938.53
422.80	4840.23
422.99	4945.55
423.18	4828.53
423.37	4849.59
423.56	4910.44
423.75	4971.30
423.94	4791.08
424.13	4585.11
424.32	4709.16
424.50	4858.95
424.69	5167.90
424.88	5011.09
425.07	4840.23
425.26	4954.91
425.45	4954.91
425.64	4781.71
425.83	4929.17
426.01	5125.77
426.20	4968.96
426.39	5085.98
426.58	5060.24
426.77	5083.64
426.96	4990.02
427.15	5029.81
427.33	5118.75
427.52	4980.66
427.71	5177.26
427.90	5214.71
428.09	5453.45
428.28	5362.17
428.46	5413.66
428.65	5270.89
428.84	5334.08
429.03	5399.62
429.22	5369.19
429.40	5540.05
429.59	5242.80
429.78	5303.65
429.97	5219.39
430.16	5341.10
430.34	5474.51
430.53	5572.82
430.72	5507.28
430.91	5401.96
431.10	5558.77
431.28	5706.23
431.47	5682.82
431.66	5717.93
431.85	5668.78
432.03	5961.34
432.22	5996.45
432.41	5912.19
432.60	5724.95
432.79	5863.04
432.97	5916.87
433.16	5802.19
433.35	5830.27
433.54	6033.90
433.72	6071.35
433.91	5849.00
434.10	5898.15
434.28	6005.81
434.47	6179.01
434.66	6274.98
434.85	6282.00
435.03	6216.46
435.22	6345.19
435.41	6370.94
435.59	6399.02
435.78	6396.68
435.97	6546.48
436.16	6476.26
436.34	6342.85
436.53	6410.73
436.72	6719.68
436.90	6373.28
437.09	6466.90
437.28	6457.54
437.46	6483.28
437.65	6696.27
437.84	6736.06
438.02	6726.70
438.21	6747.76
438.40	6628.40
438.58	6909.26
438.77	6860.11
438.96	6810.96
439.14	7082.46
439.33	7211.19
439.52	7077.78
439.70	7112.89
439.89	7297.79
440.08	7267.36
440.26	7246.30
440.45	7461.63
440.63	7431.20
440.82	7541.21
441.01	7466.31
441.19	7623.12
441.38	7599.72
441.57	7735.47
441.75	7737.81
441.94	7801.01
442.12	7775.26
442.31	7997.61
442.50	7887.61
442.68	8018.68
442.87	7962.50
443.05	7981.23
443.24	8226.98
443.43	8042.08
443.61	8060.80
443.80	8355.71
443.98	8126.34
444.17	7620.78
444.35	8025.70
444.54	8182.51
444.73	8203.58
444.91	8147.40
445.10	8360.39
445.28	8243.37
445.47	8035.06
445.65	8290.18
445.84	8383.80
446.02	8512.53
446.21	8135.70
446.39	8217.62
446.58	8554.66
446.77	8507.85
446.95	8152.09
447.14	8470.40
447.32	8601.47
447.51	8416.57
447.69	8327.63
447.88	8559.34
448.06	8341.67
448.25	8395.50
448.43	8545.30
448.62	8524.23
448.80	8514.87
448.99	8578.06
449.17	8795.73
449.36	8566.36
449.54	8777.01
449.73	8676.37
449.91	8898.72
450.10	8933.82
450.28	9144.47
450.46	9004.04
450.65	9092.98
450.83	9055.53
451.02	9050.85
451.20	9217.03
451.39	9123.41
451.57	9029.79
451.76	8971.27
451.94	9167.88
452.13	9128.09
452.31	9228.73
452.49	9015.74
452.68	9320.01
452.86	9132.77
453.05	9224.05
453.23	9437.04
453.42	9282.56
453.60	9254.48
453.78	9355.12
453.97	9252.14
454.15	9624.28
454.34	9423.00
454.52	9722.59
454.70	9540.02
454.89	9542.36
455.07	9769.40
455.26	9750.67
455.44	9837.27
455.62	9879.40
455.81	9909.83
455.99	9874.72
456.17	10010.47
456.36	9980.04
456.54	10141.54
456.73	10307.72
456.91	10441.13
457.09	10326.44
457.28	10586.24
457.46	10171.97
457.64	10399.00
457.83	10560.50
458.01	10345.17
458.19	10509.01
458.38	10635.39
458.56	10523.05
458.74	10539.43
458.93	10527.73
459.11	10761.78
459.29	10780.51
459.48	10644.76
459.66	10724.33
459.84	10775.83
460.03	10972.43
460.21	10986.47
460.39	10855.40
460.57	10937.32
460.76	10813.28
460.94	11185.42
461.12	11363.30
461.31	11140.95
461.49	11073.07
461.67	11140.95
461.85	11386.71
462.04	11164.36
462.22	11693.32
462.40	11545.86
462.59	11461.60
462.77	11213.51
462.95	11442.88
463.13	11492.03
463.32	11595.01
463.50	11686.29
463.68	11613.74
463.86	11492.03
464.05	11389.05
464.23	11555.22
464.41	11967.16
464.59	11473.31
464.78	11960.14
464.96	12100.57
465.14	11688.64
465.32	11882.90
465.50	11756.51
465.69	11955.46
465.87	12046.74
466.05	11906.31
466.23	12011.63
466.41	12053.76
466.60	12554.63
466.78	11969.50
466.96	11995.25
467.14	12180.15
467.32	12463.35
467.51	12369.73
467.69	12175.47
467.87	12196.53
468.05	12545.27
468.23	12156.74
468.41	12264.41
468.60	12554.63
468.78	12512.50
468.96	12346.33
469.14	12767.62
469.32	12901.03
469.50	12561.66
469.69	12980.61
469.87	12837.84
470.05	12964.23
470.23	13064.87
470.41	13081.25
470.59	13200.62
470.77	12975.93
470.95	13090.62
471.14	13455.74
471.32	13125.72
471.50	13427.65
471.68	13561.06
471.86	13605.53
472.04	13511.91
472.22	13755.33
472.40	13673.41
472.58	13722.56
472.77	13776.39
472.95	13970.66
473.13	14417.70
473.31	13982.36
473.49	14106.41
473.67	14015.13
473.85	14363.87
474.03	14661.12
474.21	14635.37
474.39	14572.18
474.57	14576.86
474.75	14689.20
474.93	14829.63
475.12	14862.40
475.30	15037.94
475.48	14766.44
475.66	15005.17
475.84	14960.70
476.02	15129.22
476.20	15208.80
476.38	15599.67
476.56	15829.04
476.74	15819.68
476.92	15714.36
477.10	15506.05
477.28	15906.28
477.46	16194.17
477.64	16123.95
477.82	16507.80
478.00	16685.68
478.18	16699.72
478.36	16800.37
478.54	17041.44
478.72	17343.37
478.90	17191.23
479.08	17226.34
479.26	17493.16
479.44	17708.49
479.62	17511.89
479.80	17846.58
479.98	17930.84
480.16	18466.83
480.34	18162.56
480.52	18597.90
480.70	18211.71
480.88	18260.86
481.06	18352.14
481.24	18630.66
481.41	18902.17
481.59	19264.95
481.77	19309.42
481.95	19049.62
482.13	19599.65
482.31	19889.87
482.49	20098.18
482.67	19929.66
482.85	20240.95
483.03	20294.79
483.21	20517.14
483.39	20968.86
483.57	20699.70
483.74	21132.70
483.92	21474.42
484.10	21018.01
484.28	21458.03
484.46	21736.56
484.64	21963.59
484.82	21708.47
485.00	21977.63
485.18	22345.09
485.35	22625.96
485.53	22625.96
485.71	22625.96
485.89	23349.18
486.07	22796.82
486.25	23433.44
486.43	23700.26
486.61	23531.75
486.78	23969.43
486.96	24098.16
487.14	24135.60
487.32	24205.82
487.50	24783.93
487.68	25003.94
487.85	24943.09
488.03	25495.46
488.21	25523.54
488.39	25436.94
488.57	25734.19
488.75	26146.12
488.92	26316.98
489.10	26574.44
489.28	26328.69
489.46	27147.87
489.64	26960.63
489.81	27065.96
489.99	27248.52
490.17	27676.83
490.35	27889.82
490.53	28196.43
490.70	28081.75
490.88	27700.24
491.06	28428.15
491.24	28645.82
491.41	28559.22
491.59	29102.22
491.77	28762.84
491.95	29156.05
492.13	29399.47
492.30	29640.54
492.48	29720.12
492.66	29603.10
492.84	30209.29
493.01	30551.01
493.19	30412.92
493.37	31061.25
493.54	30876.35
493.72	31454.46
493.90	31285.94
494.08	31740.00
494.25	31770.43
494.43	31922.57
494.61	31793.84
494.79	32465.57
494.96	32147.26
495.14	32608.34
495.32	32472.59
495.49	32730.05
495.67	32816.65
495.85	33270.72
496.02	33156.03
496.20	33809.04
496.38	33851.17
496.55	33464.98
496.73	34742.91
496.91	34288.85
497.09	34494.82
497.26	34518.22
497.44	34541.63
497.62	34705.46
497.79	35695.51
497.97	35089.31
498.14	35517.63
498.32	35669.76
498.50	35641.68
498.67	36229.15
498.85	35892.12
499.03	36275.96
499.20	36514.70
499.38	36683.22
499.56	36613.00
499.73	36842.37
499.91	37134.94
500.08	37186.43
500.26	36980.46
500.44	37462.61
500.61	37516.45
500.79	37469.64
500.97	37591.34
501.14	38183.50
501.32	38216.27
501.49	38017.32
501.67	38288.82
501.84	38625.86
502.02	38426.92
502.20	38946.51
502.37	39255.46
502.55	38845.87
502.72	39196.95
502.90	39468.45
503.07	39210.99
503.25	39189.93
503.43	39555.05
503.60	40144.87
503.78	39583.14
503.95	39896.77
504.13	40374.24
504.30	40261.90
504.48	40273.60
504.65	40236.15
504.83	40411.69
505.01	40849.37
505.18	40856.39
505.36	41230.88
505.53	41076.40
505.71	41137.26
505.88	41432.16
506.06	41069.38
506.23	41649.83
506.41	41364.29
506.58	41631.11
506.76	41762.18
506.93	42012.62
507.11	41808.99
507.28	42007.94
507.46	42300.50
507.63	42740.52
507.81	43086.92
507.98	42574.34
508.16	42859.89
508.33	42815.42
508.50	42969.90
508.68	43377.15
508.85	43302.25
509.03	43337.36
509.20	43395.87
509.38	43782.06
509.55	43770.36
509.73	44292.30
509.90	44046.54
510.08	44304.00
510.25	44158.89
510.42	44194.00
510.60	44411.67
510.77	45148.93
510.95	44872.75
511.12	44987.44
511.30	44802.53
511.47	45043.61
511.64	45027.23
511.82	45277.66
511.99	45212.13
512.17	45574.91
512.34	45869.82
512.51	46078.13
512.69	45844.07
512.86	45998.55
513.04	46209.20
513.21	46162.39
513.38	46288.77
513.56	46494.74
513.73	46485.38
513.90	46735.82
514.08	46454.95
514.25	47105.62
514.43	47210.95
514.60	47220.31
514.77	46988.60
514.95	47143.07
515.12	47058.81
515.29	46979.23
515.47	47365.42
515.64	47657.99
515.81	47517.56
515.99	47915.45
516.16	47669.69
516.33	47999.71
516.51	48233.76
516.68	48196.31
516.85	48006.73
517.03	48472.49
517.20	49081.03
517.37	48444.41
517.54	48149.50
517.72	48788.47
517.89	48926.56
518.06	48917.20
518.24	49296.36
518.41	48893.79
518.58	49184.02
518.75	48851.66
518.93	49078.69
519.10	49104.44
519.27	49579.57
519.45	49364.24
519.62	49705.96
519.79	49558.50
519.96	49539.78
520.14	49963.42
520.31	49762.13
520.48	49727.02
520.65	49947.03
520.83	50150.66
521.00	50679.62
521.17	50363.65
521.34	50150.66
521.52	50766.22
521.69	50438.54
521.86	50548.55
522.03	51021.34
522.20	50852.82
522.38	51044.74
522.55	50717.07
522.72	50862.18
522.89	51019.00
523.07	51187.52
523.24	51374.76
523.41	51522.21
523.58	51381.78
523.75	51363.06
523.92	51536.26
524.10	51662.64
524.27	51533.92
524.44	51753.93
524.61	52100.32
524.78	51817.12
524.96	51927.13
525.13	51873.29
525.30	52053.51
525.47	52205.65
525.64	52200.97
525.81	52402.25
525.98	52402.25
526.16	52378.85
526.33	52708.86
526.50	52748.65
526.67	52725.25
526.84	52849.30
527.01	52605.88
527.18	52652.69
527.36	52704.18
527.53	52624.60
527.70	52938.24
527.87	53006.11
528.04	52999.09
528.21	53029.52
528.38	53181.65
528.55	53380.60
528.72	53265.91
528.89	53036.54
529.07	53109.10
529.24	53062.29
529.41	53422.73
529.58	53701.25
529.75	53368.90
529.92	53715.29
530.09	53883.81
530.26	53616.99
530.43	53827.64
530.60	53317.40
530.77	53640.40
530.94	53598.27
531.11	53633.38
531.28	53900.20
531.46	54169.36
531.63	54113.19
531.80	53680.19
531.97	54026.59
532.14	53925.94
532.31	54384.69
532.48	54349.58
532.65	54499.37
532.82	54134.25
532.99	54571.93
533.16	54384.69
533.33	54447.88
533.50	54651.51
533.67	54691.30
533.84	54295.75
534.01	54719.38
534.18	54813.01
534.35	54901.95
534.52	54695.98
534.69	54878.54
534.86	54719.38
535.03	54562.57
535.20	54838.75
535.37	55014.29
535.54	55236.64
535.71	55028.34
535.88	55107.91
536.05	55063.44
536.22	55468.36
536.38	55054.08
536.55	55386.44
536.72	55423.89
536.89	55449.63
537.06	55231.96
537.23	55519.85
537.40	55451.97
537.57	55419.20
537.74	55536.23
537.91	55789.01
538.08	55695.39
538.25	55480.06
538.42	55676.66
538.59	55840.50
538.75	55845.18
538.92	55917.74
539.09	55784.33
539.26	55835.82
539.43	55992.64
539.60	55990.30
539.77	56142.43
539.94	56224.35
540.11	56179.88
540.28	56126.05
540.44	55891.99
540.61	55948.17
540.78	56217.33
540.95	56273.50
541.12	56212.65
541.29	56240.73
541.46	56217.33
541.62	56236.05
541.79	56818.84
541.96	56048.81
542.13	56191.58
542.30	56299.25
542.47	56671.39
542.63	56640.96
542.80	56699.48
542.97	56774.37
543.14	57010.77
543.31	57064.60
543.48	56868.00
543.64	57078.64
543.81	57099.71
543.98	57165.24
544.15	57062.26
544.32	57219.08
544.48	57176.95
544.65	57172.27
544.82	57205.03
544.99	57057.58
545.16	57446.11
545.32	57251.84
545.49	57544.41
545.66	57659.10
545.83	57357.17
546.00	57387.60
546.16	57396.96
546.33	57324.40
546.50	57083.33
546.67	57560.79
546.83	57296.31
547.00	57631.01
547.17	57504.62
547.34	57457.81
547.50	57717.61
547.67	57724.63
547.84	57750.38
548.00	57954.00
548.17	57902.51
548.34	57836.98
548.51	57968.05
548.67	58064.01
548.84	57565.48
549.01	57862.72
549.18	57865.06
549.34	57984.43
549.51	58007.84
549.68	58110.82
549.84	58007.84
550.01	58213.80
550.18	58197.42
550.34	58265.30
550.51	58145.93
550.68	58178.70
550.84	57897.83
551.01	58241.89
551.18	58314.45
551.34	58190.40
551.51	58246.57
551.68	58337.85
551.84	58277.00
552.01	58213.80
552.18	58178.70
552.34	58419.77
552.51	58412.75
552.68	58117.84
552.84	58372.96
553.01	58539.14
553.18	58623.40
553.34	58714.68
553.51	58525.10
553.67	58614.04
553.84	58738.08
554.01	58663.19
554.17	58796.60
554.34	58913.62
554.51	58712.34
554.67	58820.00
554.84	58731.06
555.00	58894.90
555.17	58677.23
555.33	58843.41
555.50	58932.35
555.67	58805.96
555.83	58571.91
556.00	58876.18
556.16	59131.29
556.33	59084.48
556.50	59035.33
556.66	59180.45
556.83	58972.14
556.99	59290.45
557.16	59257.68
557.32	59339.60
557.49	59402.80
557.65	59203.85
557.82	59304.49
557.98	59075.12
558.15	59096.19
558.32	59220.23
558.48	58958.09
558.65	59386.41
558.81	59344.28
558.98	59384.07
559.14	59374.71
559.31	59433.22
559.47	59465.99
559.64	59339.60
559.80	59292.79
559.97	59594.72
560.13	59260.02
560.30	59419.18
560.46	59714.09
560.63	59585.36
560.79	59524.50
560.96	59894.31
561.12	59611.10
561.29	59650.89
561.45	59648.55
561.61	59601.74
561.78	59831.11
561.94	59365.35
562.11	59552.59
562.27	59800.69
562.44	59735.15
562.60	59863.88
562.77	59866.22
562.93	59510.46
563.10	59920.05
563.26	59709.41
563.42	60114.32
563.59	59810.05
563.75	59707.07
563.92	59793.67
564.08	59922.40
564.24	59978.57
564.41	59781.96
564.57	59997.29
564.74	59917.71
564.90	59966.87
565.07	59924.74
565.23	59983.25
565.39	60065.17
565.56	59910.69
565.72	59894.31
565.88	59812.39
566.05	59812.39
566.21	59994.95
566.38	59943.46
566.54	59924.74
566.70	60020.70
566.87	60287.52
567.03	59894.31
567.19	60193.90
567.36	60051.12
567.52	60097.94
567.68	60512.21
567.85	60109.64
568.01	60210.28
568.17	60149.43
568.34	60109.64
568.50	60041.76
568.66	60203.26
568.83	60189.22
568.99	59983.25
569.15	60271.14
569.32	60154.11
569.48	60062.83
569.64	60158.79
569.81	60378.80
569.97	60177.51
570.13	60402.21
570.30	60130.70
570.46	60273.48
570.62	60207.94
570.78	60296.88
570.95	60357.74
571.11	60301.56
571.27	60212.62
571.43	60346.03
571.60	60308.58
571.76	60456.04
571.92	60505.19
572.09	60549.66
572.25	60360.08
572.41	60149.43
572.57	60378.80
572.74	60542.64
572.90	60257.09
573.06	60486.46
573.22	60285.18
573.38	60399.86
573.55	60519.23
573.71	60594.13
573.87	60505.19
574.03	60240.71
574.20	60577.75
574.36	60570.72
574.52	60484.12
574.68	60552.00
574.84	60451.36
575.01	60449.02
575.17	60458.38
575.33	60390.50
575.49	60479.44
575.65	60711.16
575.82	60605.83
575.98	60587.11
576.14	60692.43
576.30	60748.60
576.46	60528.59
576.62	60720.52
576.79	60514.55
576.95	60350.71
577.11	60582.43
577.27	60708.82
577.43	60502.85
577.59	60458.38
577.75	60619.88
577.92	60654.98
578.08	60577.75
578.24	60680.73
578.40	60769.67
578.56	60790.73
578.72	60676.05
578.88	60687.75
579.04	60680.73
579.21	60645.62
579.37	60715.84
579.53	60678.39
579.69	60423.27
579.85	60610.51
580.01	60659.66
580.17	60537.96
580.33	60671.37
580.49	60919.46
580.65	60697.11
580.82	60715.84
580.98	60521.57
581.14	60701.79
581.30	60809.46
581.46	60645.62
581.62	60650.30
581.78	60631.58
581.94	60959.25
582.10	60633.92
582.26	60582.43
582.42	60687.75
582.58	60839.89
582.74	60804.78
582.90	60608.17
583.06	60755.63
583.22	60533.28
583.38	60601.15
583.54	60750.94
583.70	60734.56
583.86	60699.45
584.02	60671.37
584.18	60884.36
584.34	60795.42
584.50	60666.69
584.66	60664.35
584.82	60566.04
584.98	61001.38
585.14	60996.70
585.30	60727.54
585.46	60896.06
585.62	60764.99
585.78	60905.42
585.94	60537.96
586.10	60865.63
586.26	60762.65
586.42	60928.83
586.58	60874.99
586.74	60823.50
586.90	60914.78
587.06	60748.60
587.22	60903.08
587.38	61008.40
587.54	60982.66
587.70	61020.11
587.86	60818.82
588.02	61069.26
588.18	60945.21
588.34	60893.72
588.49	60900.74
588.65	60645.62
588.81	61059.90
588.97	60963.93
589.13	61055.21
589.29	60977.98
589.45	61155.86
589.61	60963.93
589.77	61226.07
589.93	61235.44
590.08	61095.00
590.24	61272.88
590.40	61169.90
590.56	61193.31
590.72	61223.73
590.88	61104.37
591.04	61207.35
591.20	61116.07
591.35	61106.71
591.51	61539.71
591.67	61272.88
591.83	61338.42
591.99	61406.30
592.15	60966.27
592.31	61240.12
592.46	61237.78
592.62	61162.88
592.78	61226.07
592.94	61244.80
593.10	61050.53
593.26	61221.39
593.41	61200.33
593.57	61333.74
593.73	61254.16
593.89	61530.34
594.05	61336.08
594.20	61345.44
594.36	61410.98
594.52	61317.35
594.68	61286.93
594.84	61167.56
594.99	61354.80
595.15	61305.65
595.31	61272.88
595.47	61352.46
595.62	61429.70
595.78	61188.63
595.94	61244.80
596.10	61410.98
596.25	61354.80
596.41	61415.66
596.57	61235.44
596.73	61483.53
596.88	61319.70
597.04	61593.54
597.20	61499.92
597.36	61490.55
597.51	61605.24
597.67	61406.30
597.83	61469.49
597.99	61453.11
598.14	61429.70
598.30	61574.81
598.46	61392.25
598.61	61619.28
598.77	61415.66
598.93	61399.27
599.09	61520.98
599.24	61820.57
599.40	61598.22
599.56	61595.88
599.71	61485.87
599.87	61740.99
600.03	61715.25
600.18	61537.36
600.34	61499.92
600.50	61715.25
600.65	61677.80
600.81	61638.01
600.97	61523.32
601.12	61516.30
601.28	61535.02
601.44	61158.20
601.59	61682.48
601.75	61542.05
601.91	61581.84
602.06	61446.08
602.22	61813.55
602.37	61434.38
602.53	61579.49
602.69	61537.36
602.84	61577.15
603.00	61684.82
603.16	61614.60
603.31	61612.26
603.47	61595.88
603.62	61595.88
603.78	61691.84
603.94	61366.51
604.09	61759.72
604.25	61715.25
604.40	61499.92
604.56	61621.62
604.71	61701.20
604.87	61425.02
605.03	61530.34
605.18	61537.36
605.34	61638.01
605.49	61446.08
605.65	61551.41
605.80	61682.48
605.96	61719.93
606.12	61638.01
606.27	61724.61
606.43	61553.75
606.58	61736.31
606.74	61563.11
606.89	61490.55
607.05	61661.41
607.20	61464.81
607.36	61490.55
607.51	61359.48
607.67	61418.00
607.82	61350.12
607.98	61492.89
608.13	61518.64
608.29	61523.32
608.44	61418.00
608.60	61432.04
608.75	61551.41
608.91	61406.30
609.06	61499.92
609.22	61591.20
609.37	61394.59
609.53	61345.44
609.68	61591.20
609.84	61343.10
609.99	61499.92
610.15	61516.30
610.30	61467.15
610.46	61116.07
610.61	61251.82
610.76	61399.27
610.92	61212.03
611.07	61270.54
611.23	61188.63
611.38	61289.27
611.54	61401.61
611.69	61347.78
611.84	61333.74
612.00	61389.91
612.15	61247.14
612.31	61357.14
612.46	61209.69
612.62	61293.95
612.77	61464.81
612.92	61385.23
613.08	61366.51
613.23	61457.79
613.39	61181.60
613.54	61015.43
613.69	61347.78
613.85	61209.69
614.00	61436.72
614.15	61347.78
614.31	61230.75
614.46	61279.91
614.62	60947.55
614.77	61043.51
614.92	61352.46
615.08	61212.03
615.23	60985.00
615.38	61251.82
615.54	61385.23
615.69	61113.73
615.84	61151.18
616.00	61202.67
616.15	61071.60
616.30	61359.48
616.46	61062.24
616.61	60903.08
616.76	61244.80
616.92	61069.26
617.07	61165.22
617.22	60917.12
617.37	61085.64
617.53	61052.87
617.68	61186.28
617.83	61113.73
617.99	61069.26
618.14	61137.13
618.29	60949.89
618.45	60821.16
618.60	60907.76
618.75	60912.44
618.90	60886.70
619.06	61151.18
619.21	61003.72
619.36	60956.91
619.51	60992.02
619.67	60664.35
619.82	60933.51
619.97	60949.89
620.12	60874.99
620.28	60715.84
620.43	61027.13
620.58	60994.36
620.73	60718.18
620.89	60919.46
621.04	61095.00
621.19	60662.00
621.34	60870.31
621.49	60776.69
621.65	60537.96
621.80	60743.92
621.95	60633.92
622.10	60741.58
622.25	60793.07
622.41	60638.60
622.56	60657.32
622.71	60905.42
622.86	60528.59
623.01	60472.42
623.16	60392.84
623.32	60582.43
623.47	60823.50
623.62	60605.83
623.77	60582.43
623.92	60725.20
624.07	60720.52
624.23	60636.26
624.38	60465.40
624.53	60322.63
624.68	60434.97
624.83	60544.98
624.98	60502.85
625.13	60502.85
625.29	60474.76
625.44	60434.97
625.59	60582.43
625.74	60523.91
625.89	60357.74
626.04	60341.35
626.19	60310.92
626.34	60434.97
626.49	60226.66
626.65	60119.00
626.80	60467.74
626.95	60229.01
627.10	60107.30
627.25	60114.32
627.40	60339.01
627.55	60257.09
627.70	60214.96
627.85	60030.06
628.00	60065.17
628.15	60219.64
628.30	59969.21
628.45	59884.95
628.60	59973.89
628.76	60184.54
628.91	60390.50
629.06	59924.74
629.21	60067.51
629.36	59920.05
629.51	59854.52
629.66	59955.16
629.81	59477.69
629.96	59992.61
630.11	59950.48
630.26	60044.10
630.41	59838.14
630.56	59962.18
630.71	59910.69
630.86	59833.46
631.01	59723.45
631.16	59854.52
631.31	59580.68
631.46	59550.25
631.61	59831.11
631.76	59817.07
631.91	59910.69
632.06	59887.29
632.21	59690.68
632.36	59716.43
632.51	59620.47
632.66	59662.60
632.81	59295.13
632.96	59758.56
633.10	59763.24
633.25	59894.31
633.40	59760.90
633.55	59711.75
633.70	59501.10
633.85	59398.12
634.00	59494.08
634.15	59409.82
634.30	59428.54
634.45	59643.87
634.60	59650.89
634.75	59463.65
634.90	59501.10
635.05	59348.96
635.19	59248.32
635.34	59550.25
635.49	59248.32
635.64	59465.99
635.79	59278.75
635.94	59414.50
636.09	59515.14
636.24	59192.15
636.39	59505.78
636.53	59554.93
636.68	59283.43
636.83	59473.01
636.98	59458.97
637.13	59159.38
637.28	59196.83
637.43	59253.00
637.57	59171.08
637.72	59157.04
637.87	59470.67
638.02	59435.56
638.17	59341.94
638.32	59086.82
638.46	59056.40
638.61	59231.94
638.76	59348.96
638.91	59150.02
639.06	59131.29
639.20	59040.01
639.35	58965.12
639.50	58756.81
639.65	59070.44
639.80	59135.98
639.94	59065.76
640.09	59084.48
640.24	59007.25
640.39	59021.29
640.54	58922.99
640.68	58726.38
640.83	58906.60
640.98	58712.34
641.13	58791.92
641.27	59245.98
641.42	58836.39
641.57	58838.73
641.72	58667.87
641.86	58602.33
642.01	58482.97
642.16	58637.44
642.31	58836.39
642.45	58922.99
642.60	58396.37
642.75	58899.58
642.90	58798.94
643.04	58693.61
643.19	58721.70
643.34	58611.70
643.48	58628.08
643.63	58705.32
643.78	58522.76
643.93	58555.52
644.07	58836.39
644.22	58557.86
644.37	58244.23
644.51	58199.76
644.66	58532.12
644.81	58592.97
644.95	58614.04
645.10	58372.96
645.25	58419.77
645.39	58262.96
645.54	58363.60
645.69	58251.25
645.83	58482.97
645.98	58351.90
646.13	58532.12
646.27	58611.70
646.42	58267.64
646.57	58398.71
646.71	58328.49
646.86	58494.67
647.00	58342.53
647.15	58424.45
647.30	58209.12
647.44	58101.46
647.59	58326.15
647.74	58216.14
647.88	58515.73
648.03	58157.63
648.17	58424.45
648.32	58169.33
648.47	57993.79
648.61	58052.31
648.76	58190.40
648.90	58007.84
649.05	57951.66
649.20	58113.16
649.34	58049.97
649.49	58279.34
649.63	58206.78
649.78	58237.21
649.92	58148.27
650.07	58131.89
650.21	57944.64
650.36	58099.12
650.51	58007.84
650.65	58279.34
650.80	57911.88
650.94	57691.86
651.09	57719.95
651.23	57446.11
651.38	57972.73
651.52	57691.86
651.67	57726.97
651.81	57469.51
651.96	57820.59
652.10	57909.53
652.25	57755.06
652.39	57427.38
652.54	57495.26
652.68	57549.09
652.83	57291.63
652.97	57736.34
653.12	57544.41
653.26	57623.99
653.41	57680.16
653.55	57682.50
653.70	57516.32
653.84	57478.88
653.99	57450.79
654.13	57574.84
654.27	57656.76
654.42	57263.55
654.56	57293.97
654.71	57476.54
654.85	57516.32
655.00	57387.60
655.14	57464.83
655.29	57214.40
655.43	57284.61
655.57	57415.68
655.72	57560.79
655.86	57467.17
656.01	57310.36
656.15	57106.73
656.30	57268.23
656.44	57488.24
656.58	57212.06
656.73	57322.06
656.87	57228.44
657.01	57148.86
657.16	57270.57
657.30	57008.43
657.45	56961.62
657.59	57326.74
657.73	56755.65
657.88	57099.71
658.02	57013.11
658.16	57017.79
658.31	56963.96
658.45	57078.64
658.60	57092.69
658.74	57172.27
658.88	56989.70
659.03	56858.63
659.17	56804.80
659.31	56790.76
659.46	56956.94
659.60	56987.36
659.74	56697.14
659.89	56587.13
660.03	56652.67
660.17	56781.40
660.32	56498.19
660.46	56605.86
660.60	56570.75
660.74	56528.62
660.89	56795.44
661.03	56453.72
661.17	56411.59
661.32	56076.90
661.46	56217.33
661.60	56329.67
661.74	56100.30
661.89	56231.37
662.03	55948.17
662.17	56168.18
662.31	56065.19
662.46	56362.44
662.60	55957.53
662.74	56168.18
662.88	55751.56
663.03	55620.49
663.17	56037.11
663.31	55599.43
663.45	55777.31
663.60	55728.16
663.74	55711.77
663.88	55585.38
664.02	55571.34
664.17	55566.66
664.31	55632.19
664.45	55533.89
664.59	55440.27
664.73	55327.92
664.88	55381.76
665.02	55049.40
665.16	55496.44
665.30	55271.75
665.44	55246.00
665.59	55288.13
665.73	55192.17
665.87	55037.70
666.01	55377.08
666.15	55098.55
666.29	55159.41
666.44	55114.94
666.58	54831.73
666.72	54478.31
666.86	54450.22
667.00	54885.56
667.14	54637.47
667.28	54663.21
667.43	54581.29
667.57	54691.30
667.71	54703.00
667.85	54473.63
667.99	54391.71
668.13	54092.12
668.27	54115.53
668.41	54237.23
668.56	54017.22
668.70	53918.92
668.84	53762.11
668.98	53837.00
669.12	54209.15
669.26	53865.09
669.40	53991.48
669.54	54129.57
669.68	53977.43
669.82	53790.19
669.96	54049.99
670.10	53750.40
670.25	53902.54
670.39	53675.51
670.53	53694.23
670.67	53656.78
670.81	53876.79
670.95	53371.24
671.09	53352.51
671.23	53132.50
671.37	53350.17
671.51	53310.38
671.65	53174.63
671.79	53240.17
671.93	53191.01
672.07	53336.13
672.21	52942.92
672.35	52718.23
672.49	52465.45
672.63	52458.43
672.77	52673.76
672.91	52172.88
673.05	52266.50
673.19	52254.80
673.33	52025.43
673.47	51931.81
673.61	52442.04
673.75	52341.40
673.89	51501.15
674.03	51917.76
674.17	51655.62
674.31	51704.77
674.45	51367.74
674.59	51199.22
674.73	51388.80
674.87	51672.01
675.01	51299.86
675.15	51260.07
675.29	51227.31
675.43	51311.56
675.56	51030.70
675.70	51040.06
675.84	50773.24
675.98	50176.40
676.12	50841.12
676.26	50597.70
676.40	50447.91
676.54	50265.34
676.68	50696.00
676.82	49787.88
676.96	50038.31
677.10	49921.29
677.23	49296.36
677.37	49661.49
677.51	49684.89
677.65	48973.37
677.79	48303.98
677.93	48744.00
678.07	48917.20
678.21	48907.83
678.34	48655.06
678.48	48484.20
678.62	48278.23
678.76	48397.60
678.90	48584.84
679.04	48355.47
679.18	48521.65
679.31	47555.00
679.45	47611.18
679.59	47728.20
679.73	48020.77
679.87	47426.28
680.00	47325.63
680.14	46810.71
680.28	47217.97
680.42	46791.99
680.56	46454.95
680.70	46206.86
680.83	46658.58
680.97	46148.34
681.11	46447.93
681.25	46188.13
681.39	46436.23
681.52	45495.33
681.66	46195.15
681.80	45897.91
681.94	45055.31
682.07	45661.51
682.21	45265.96
682.35	45310.43
682.49	44872.75
682.62	45193.40
682.76	44648.06
682.90	44783.81
683.04	44811.90
683.17	44453.79
683.31	44245.49
683.45	44229.10
683.59	44128.46
683.72	43718.87
683.86	43784.40
684.00	43784.40
684.13	43978.67
684.27	43779.72
684.41	43988.03
684.55	43335.02
684.68	43421.62
684.82	42595.41
684.96	42682.01
685.09	42569.66
685.23	42366.04
685.37	42590.73
685.50	42153.05
685.64	41956.44
685.78	42220.92
685.91	42164.75
686.05	41425.14
686.19	41385.35
686.32	41436.84
686.46	41207.47
686.60	40856.39
686.73	40580.21
686.87	40678.51
687.01	40655.11
687.14	40395.31
687.28	40084.01
687.42	40243.17
687.55	39695.49
687.69	40055.93
687.82	39388.88
687.96	39145.46
688.10	39299.94
688.23	39421.64
688.37	38747.57
688.50	38632.88
688.64	38616.50
688.78	38869.28
688.91	37963.49
689.05	38555.64
689.18	38700.76
689.32	37446.23
689.46	37586.66
689.59	37970.51
689.73	37553.90
689.86	36732.37
690.00	36821.31
690.13	37567.94
690.27	36863.44
690.41	37163.03
690.54	36460.87
690.68	36500.65
690.81	36802.58
690.95	35938.93
691.08	35990.42
691.22	35592.53
691.35	35772.75
691.49	35908.50
691.62	35660.40
691.76	35173.57
691.89	35218.04
692.03	34876.32
692.16	35311.66
692.30	34976.97
692.43	35220.38
692.57	34939.52
692.70	34281.83
692.84	34356.72
692.97	34190.55
693.11	33961.17
693.24	33755.21
693.38	33647.54
693.51	33436.89
693.65	33340.93
693.78	33123.26
693.92	33149.01
694.05	33144.33
694.19	32847.08
694.32	33017.94
694.45	32959.42
694.59	32538.13
694.72	32348.54
694.86	31955.33
694.99	32037.25
695.13	31665.11
695.26	31824.26
695.39	31241.47
695.53	31878.10
695.66	31620.64
695.80	31201.68
695.93	31267.22
696.07	30462.07
696.20	30433.99
696.33	30396.54
696.47	30976.99
696.60	30934.86
696.73	30291.21
696.87	30228.02
697.00	30288.87
697.14	29806.72
697.27	29799.70
697.40	29750.55
697.54	29289.46
697.67	29427.56
697.80	28966.47
697.94	29032.00
698.07	28879.87
698.21	28690.29
698.34	29109.24
698.47	28662.20
698.61	28439.85
698.74	28313.46
698.87	28435.17
699.01	27592.58
699.14	28048.98
699.27	28058.34
699.40	28034.94
699.54	27854.72
699.67	27468.53
699.80	27145.53
699.94	27070.64
700.07	27185.32
700.20	26955.95
700.34	26529.97
700.47	26637.64
700.60	26022.08
700.73	26419.97
700.87	25879.30
701.00	25659.29
701.13	25867.60
701.26	25972.92
701.40	25898.03
701.53	25432.26
701.66	25589.08
701.79	25020.33
701.93	24734.78
702.06	24823.72
702.19	25123.31
702.32	25071.82
702.46	24795.64
702.59	24393.06
702.72	24294.76
702.85	23992.83
702.99	24236.25
703.12	24011.56
703.25	24063.05
703.38	23810.27
703.51	23536.43
703.65	23068.32
703.78	23323.44
703.91	23178.33
704.04	23248.54
704.17	23147.90
704.31	22703.20
704.44	22991.08
704.57	22745.33
704.70	22567.45
704.83	22422.33
704.96	22008.06
705.10	22274.88
705.23	21860.60
>>>>>End Processed Spectral Data<<<<<
