SpectraSuite Data File
++++++++++++++++++++++++++++++++++++
Date: Fri Oct 25 11:22:52 EDT 2013
User: price-jones
Dark Spectrum Present: No
Reference Spectrum Present: No
Number of Sampled Component Spectra: 1
Spectrometers: USB2+H05261
Integration Time (usec): 100000 (USB2+H05261)
Spectra Averaged: 1 (USB2+H05261)
Boxcar Smoothing: 0 (USB2+H05261)
Correct for Electrical Dark: No (USB2+H05261)
Strobe/Lamp Enabled: No (USB2+H05261)
Correct for Detector Non-linearity: No (USB2+H05261)
Correct for Stray Light: No (USB2+H05261)
Number of Pixels in Processed Spectrum: 2048
>>>>>Begin Processed Spectral Data<<<<<
365.73	259.80
365.92	259.80
366.12	259.80
366.32	98.30
366.52	149.79
366.72	119.37
366.91	117.03
367.11	156.82
367.31	60.85
367.51	100.64
367.70	95.96
367.90	177.88
368.10	138.09
368.30	140.43
368.49	98.30
368.69	119.37
368.89	145.11
369.09	126.39
369.28	152.13
369.48	208.31
369.68	191.92
369.87	208.31
370.07	131.07
370.27	224.69
370.47	360.44
370.66	589.82
370.86	589.82
371.06	557.05
371.25	734.93
371.45	645.99
371.65	685.78
371.84	678.76
372.04	594.50
372.24	744.29
372.44	699.82
372.63	732.59
372.83	667.05
373.03	702.16
373.22	692.80
373.42	704.50
373.62	765.36
373.81	753.65
374.01	809.83
374.21	837.91
374.40	765.36
374.60	793.44
374.79	826.21
374.99	786.42
375.19	807.48
375.38	861.32
375.58	793.44
375.78	929.19
375.97	863.66
376.17	877.70
376.37	880.04
376.56	844.93
376.76	819.19
376.95	849.61
377.15	786.42
377.35	819.19
377.54	912.81
377.74	954.94
377.93	964.30
378.13	931.53
378.33	929.19
378.52	973.66
378.72	936.21
378.91	894.08
379.11	936.21
379.31	922.17
379.50	854.30
379.70	1053.24
379.89	1046.22
380.09	940.90
380.28	1027.50
380.48	976.00
380.68	983.02
380.87	954.94
381.07	1071.97
381.26	1071.97
381.46	931.53
381.65	1001.75
381.85	1046.22
382.04	1015.79
382.24	1011.11
382.43	999.41
382.63	1020.47
382.83	1064.94
383.02	1111.75
383.22	1062.60
383.41	1083.67
383.61	1125.80
383.80	1104.73
384.00	1088.35
384.19	1095.37
384.39	1130.48
384.58	1039.20
384.78	1172.61
384.97	1203.04
385.17	1233.46
385.36	1186.65
385.56	1184.31
385.75	1160.91
385.95	1156.22
386.14	1200.69
386.34	1273.25
386.53	1207.72
386.72	1205.38
386.92	1207.72
387.11	1249.85
387.31	1240.48
387.50	1291.98
387.70	1287.29
387.89	1301.34
388.09	1317.72
388.28	1240.48
388.48	1212.40
388.67	1277.93
388.86	1289.64
389.06	1291.98
389.25	1247.51
389.45	1378.58
389.64	1387.94
389.84	1376.24
390.03	1362.19
390.22	1437.09
390.42	1341.13
390.61	1397.30
390.81	1334.11
391.00	1453.47
391.19	1352.83
391.39	1411.34
391.58	1479.22
391.78	1444.11
391.97	1453.47
392.16	1453.47
392.36	1533.05
392.55	1526.03
392.75	1514.33
392.94	1528.37
393.13	1579.86
393.33	1514.33
393.52	1596.25
393.71	1500.28
393.91	1535.39
394.10	1572.84
394.29	1551.78
394.49	1589.22
394.68	1507.30
394.88	1603.27
395.07	1629.01
395.26	1734.34
395.46	1650.08
395.65	1694.55
395.84	1703.91
396.04	1701.57
396.23	1685.19
396.42	1804.55
396.62	1832.64
396.81	1671.14
397.00	1832.64
397.19	1722.63
397.39	1832.64
397.58	1935.62
397.77	1963.71
397.97	1914.56
398.16	1762.42
398.35	1830.30
398.55	1837.32
398.74	1877.11
398.93	1874.77
399.12	1860.73
399.32	1954.35
399.51	1942.64
399.70	2026.90
399.90	1858.39
400.09	1975.41
400.28	2036.27
400.47	2038.61
400.67	2078.40
400.86	2040.95
401.05	2127.55
401.24	2118.18
401.44	2111.16
401.63	2099.46
401.82	2165.00
402.01	2125.21
402.21	2207.13
402.40	2253.94
402.59	2214.15
402.78	2111.16
402.97	2209.47
403.17	2354.58
403.36	2207.13
403.55	2284.36
403.74	2392.03
403.93	2366.28
404.13	2396.71
404.32	2345.22
404.51	2314.79
404.70	2448.20
404.89	2342.88
405.09	2518.42
405.28	2492.67
405.47	2415.43
405.66	2495.01
405.85	2544.16
406.05	2579.27
406.24	2623.74
406.43	2506.71
406.62	2609.70
406.81	2612.04
407.00	2597.99
407.20	2565.23
407.39	2635.44
407.58	2820.35
407.77	2768.85
407.96	2878.86
408.15	2759.49
408.34	2778.22
408.54	2876.52
408.73	2888.22
408.92	2775.88
409.11	2888.22
409.30	2953.76
409.49	2970.14
409.68	2979.50
409.87	2895.24
410.07	2986.52
410.26	3028.65
410.45	3030.99
410.64	3012.27
410.83	2991.20
411.02	2944.39
411.21	3080.14
411.40	3162.06
411.59	3236.96
411.78	3169.09
411.98	3133.98
412.17	3276.75
412.36	3281.43
412.55	3330.58
412.74	3379.73
412.93	3449.95
413.12	3377.39
413.31	3431.23
413.50	3403.14
413.69	3447.61
413.88	3648.90
414.07	3684.00
414.26	3646.55
414.45	3571.66
414.64	3658.26
414.83	3796.35
415.02	3691.02
415.22	3777.62
415.41	3911.04
415.60	3866.56
415.79	3887.63
415.98	4028.06
416.17	3976.57
416.36	4121.68
416.55	3976.57
416.74	3920.40
416.93	4009.34
417.12	4147.43
417.31	4276.16
417.50	4283.18
417.69	4271.48
417.88	4304.25
418.07	4245.73
418.26	4355.74
418.45	4201.26
418.64	4449.36
418.83	4528.94
419.02	4355.74
419.21	4561.70
419.39	4557.02
419.58	4454.04
419.77	4545.32
419.96	4615.54
420.15	4734.90
420.34	4631.92
420.53	4669.37
420.72	4727.88
420.91	4730.22
421.10	4823.84
421.29	4837.89
421.48	4720.86
421.67	4826.18
421.86	4847.25
422.05	4861.29
422.24	4870.65
422.43	4915.12
422.61	5041.51
422.80	4978.32
422.99	4936.19
423.18	4807.46
423.37	5015.77
423.56	4985.34
423.75	5039.17
423.94	4894.06
424.13	4552.34
424.32	4643.62
424.50	5102.37
424.69	5270.89
424.88	5188.97
425.07	5046.20
425.26	4980.66
425.45	5074.28
425.64	4978.32
425.83	5043.85
426.01	5186.63
426.20	5022.79
426.39	4985.34
426.58	5132.79
426.77	5235.78
426.96	5074.28
427.15	5160.88
427.33	5305.99
427.52	5097.69
427.71	5500.26
427.90	5179.61
428.09	5348.12
428.28	5371.53
428.46	5242.80
428.65	5385.57
428.84	5540.05
429.03	5547.07
429.22	5313.02
429.40	5640.69
429.59	5486.22
429.78	5238.12
429.97	5373.87
430.16	5518.98
430.34	5643.03
430.53	5612.60
430.72	5694.52
430.91	5741.33
431.10	5628.99
431.28	5827.93
431.47	5881.77
431.66	5881.77
431.85	5776.44
432.03	5914.53
432.22	6005.81
432.41	5771.76
432.60	5933.26
432.79	5994.11
432.97	6052.63
433.16	6216.46
433.35	6214.12
433.54	6155.61
433.72	6019.86
433.91	6106.46
434.10	6298.38
434.28	6129.86
434.47	6235.19
434.66	6232.85
434.85	6352.21
435.03	6303.06
435.22	6260.93
435.41	6614.35
435.59	6431.79
435.78	6485.62
435.97	6604.99
436.16	6443.49
436.34	6558.18
436.53	6487.96
436.72	6703.29
436.90	6506.69
437.09	6715.00
437.28	6387.32
437.46	6656.48
437.65	6616.69
437.84	6829.68
438.02	6782.87
438.21	6665.85
438.40	6649.46
438.58	7152.68
438.77	6998.20
438.96	6927.99
439.14	7272.04
439.33	7080.12
439.52	7330.56
439.70	7248.64
439.89	7452.27
440.08	7155.02
440.26	7412.48
440.45	7431.20
440.63	7618.44
440.82	7613.76
441.01	7700.36
441.19	7571.63
441.38	7772.92
441.57	7861.86
441.75	7934.42
441.94	7950.80
442.12	8063.15
442.31	8238.69
442.50	8065.49
442.68	7934.42
442.87	8152.09
443.05	8266.77
443.24	8152.09
443.43	8269.11
443.61	8138.04
443.80	8421.25
443.98	8109.96
444.17	7873.56
444.35	8306.56
444.54	8498.49
444.73	8386.14
444.91	8318.26
445.10	8322.94
445.28	8351.03
445.47	8393.16
445.65	8344.01
445.84	8388.48
446.02	8535.93
446.21	8681.05
446.39	8491.46
446.58	8547.64
446.77	8613.17
446.95	8402.52
447.14	8603.81
447.32	8716.16
447.51	8411.89
447.69	8454.02
447.88	8592.11
448.06	8547.64
448.25	8472.74
448.43	8823.82
448.62	8720.84
448.80	8557.00
448.99	8725.52
449.17	8800.41
449.36	8662.32
449.54	9053.19
449.73	9170.22
449.91	9090.64
450.10	9050.85
450.28	8943.19
450.46	8954.89
450.65	9123.41
450.83	9191.28
451.02	9242.78
451.20	9296.61
451.39	9238.09
451.57	9242.78
451.76	9167.88
451.94	9446.40
452.13	9474.49
452.31	9331.72
452.49	9308.31
452.68	9376.19
452.86	9432.36
453.05	9530.66
453.23	9633.64
453.42	9224.05
453.60	9366.82
453.78	9614.92
453.97	9617.26
454.15	9579.81
454.34	9481.51
454.52	9774.08
454.70	9788.12
454.89	9818.55
455.07	9858.34
455.26	9774.08
455.44	9958.98
455.62	9900.47
455.81	10059.62
455.99	9926.21
456.17	10122.82
456.36	10078.35
456.54	10211.76
456.73	10272.61
456.91	10593.26
457.09	10572.20
457.28	10691.57
457.46	10466.88
457.64	10839.02
457.83	10595.61
458.01	10516.03
458.19	10703.27
458.38	10764.12
458.56	10581.56
458.74	10911.58
458.93	10782.85
459.11	10841.36
459.29	11070.73
459.48	10965.41
459.66	10874.13
459.84	10780.51
460.03	11213.51
460.21	11098.82
460.39	10998.18
460.57	11201.80
460.76	11185.42
460.94	11311.81
461.12	11241.59
461.31	11204.14
461.49	11129.25
461.67	11239.25
461.85	11499.05
462.04	11386.71
462.22	11873.54
462.40	11613.74
462.59	11789.28
462.77	11520.12
462.95	11695.66
463.13	11494.37
463.32	11679.27
463.50	11974.18
463.68	11690.98
463.86	11726.08
464.05	11667.57
464.23	11868.86
464.41	11819.71
464.59	11674.59
464.78	12123.98
464.96	12215.26
465.14	12091.21
465.32	12325.26
465.50	12161.42
465.69	12362.71
465.87	12250.36
466.05	12285.47
466.23	12477.40
466.41	12362.71
466.60	12662.30
466.78	12226.96
466.96	12365.05
467.14	12343.99
467.32	12484.42
467.51	12727.83
467.69	12044.40
467.87	12648.26
468.05	12643.57
468.23	12512.50
468.41	12461.01
468.60	12683.36
468.78	12971.25
468.96	12702.09
469.14	12746.56
469.32	12835.50
469.50	12652.94
469.69	13144.45
469.87	13125.72
470.05	13224.03
470.23	13242.75
470.41	13067.21
470.59	13446.38
470.77	13305.95
470.95	13495.53
471.14	13528.30
471.32	13252.11
471.50	13540.00
471.68	13757.67
471.86	13703.84
472.04	13806.82
472.22	14047.90
472.40	13689.79
472.58	13968.32
472.77	13940.23
472.95	14359.19
473.13	14628.35
473.31	14050.24
473.49	14040.87
473.67	14251.52
473.85	14614.30
474.03	14731.33
474.21	14618.99
474.39	14548.77
474.57	14747.72
474.75	14913.89
474.93	15255.61
475.12	14710.27
475.30	15192.42
475.48	15295.40
475.66	15384.34
475.84	15199.44
476.02	15599.67
476.20	15531.80
476.38	15403.07
476.56	16044.37
476.74	16128.63
476.92	15885.22
477.10	16065.44
477.28	16044.37
477.46	16313.53
477.64	16783.98
477.82	16786.32
478.00	17144.42
478.18	16725.47
478.36	17053.14
478.54	17202.94
478.72	17205.28
478.90	17607.85
479.08	17783.39
479.26	17462.74
479.44	17685.09
479.62	17989.36
479.80	18340.44
479.98	18092.34
480.16	18778.12
480.34	18415.34
480.52	18857.70
480.70	18853.02
480.88	18101.70
481.06	18785.14
481.24	18998.13
481.41	19393.68
481.59	19545.81
481.77	19419.42
481.95	19829.02
482.13	19934.34
482.31	19768.16
482.49	20453.94
482.67	20290.10
482.85	20624.80
483.03	20748.85
483.21	20475.01
483.39	21259.09
483.57	20861.19
483.74	21612.51
483.92	21231.00
484.10	21240.36
484.28	21778.68
484.46	22155.51
484.64	22370.84
484.82	22188.28
485.00	22487.87
485.18	22703.20
485.35	23168.96
485.53	22764.05
485.71	23307.05
485.89	23859.42
486.07	23232.16
486.25	23463.87
486.43	23704.95
486.61	23805.59
486.78	24219.86
486.96	24437.53
487.14	24383.70
487.32	24823.72
487.50	24912.66
487.68	25069.48
487.85	25500.14
488.03	25287.15
488.21	25926.11
488.39	25968.24
488.57	26249.11
488.75	26265.49
488.92	26417.63
489.10	26810.84
489.28	26499.55
489.46	27473.21
489.64	27304.69
489.81	27632.36
489.99	27934.29
490.17	27634.71
490.35	28535.81
490.53	28219.84
490.70	28563.90
490.88	28563.90
491.06	28992.22
491.24	28830.72
491.41	29008.60
491.59	29872.26
491.77	29401.81
491.95	30085.25
492.13	30497.18
492.30	30015.03
492.48	30213.98
492.66	30452.71
492.84	30487.82
493.01	31054.23
493.19	30600.16
493.37	31178.28
493.54	31271.90
493.72	31536.38
493.90	31690.85
494.08	31864.05
494.25	32350.88
494.43	32280.67
494.61	32610.68
494.79	32943.04
494.96	32545.15
495.14	32982.83
495.32	33029.64
495.49	33071.77
495.67	33354.97
495.85	33780.95
496.02	33656.90
496.20	34319.28
496.38	34525.24
496.55	34064.16
496.73	34562.69
496.91	34696.10
497.09	35328.05
497.26	35044.84
497.44	35304.64
497.62	35775.09
497.79	35845.30
497.97	35601.89
498.14	36229.15
498.32	36395.33
498.50	36411.71
498.67	36844.71
498.85	36568.53
499.03	37013.23
499.20	36828.33
499.38	36732.37
499.56	37717.73
499.73	37574.96
499.91	36905.57
500.08	37935.40
500.26	37624.11
500.44	37724.75
500.61	37691.99
500.79	37832.42
500.97	38085.20
501.14	38302.87
501.32	38967.58
501.49	39129.08
501.67	38878.64
501.84	39409.94
502.02	38923.11
502.20	39115.03
502.37	39234.40
502.55	39438.03
502.72	39667.40
502.90	39840.60
503.07	39620.59
503.25	40133.17
503.43	39929.54
503.60	40582.55
503.78	40669.15
503.95	40357.86
504.13	40311.05
504.30	40636.38
504.48	40385.94
504.65	41326.84
504.83	41460.25
505.01	41771.54
505.18	41647.49
505.36	41827.71
505.53	41507.06
505.71	41780.90
505.88	42092.19
506.06	41612.38
506.23	41968.15
506.41	42202.20
506.58	42066.45
506.76	42146.03
506.93	42794.36
507.11	42553.28
507.28	43068.20
507.46	42953.51
507.63	43522.26
507.81	43440.34
507.98	43089.26
508.16	43133.73
508.33	43571.41
508.50	43793.76
508.68	44210.38
508.85	44353.15
509.03	44034.84
509.20	44657.42
509.38	44582.52
509.55	45022.54
509.73	44823.60
509.90	45088.08
510.08	45048.29
510.25	45195.74
510.42	44350.81
510.60	45233.19
510.77	45717.68
510.95	45696.62
511.12	45418.10
511.30	45549.17
511.47	45666.19
511.64	45785.56
511.82	46174.09
511.99	46010.25
512.17	46052.38
512.34	46267.71
512.51	46707.73
512.69	46148.34
512.86	46476.02
513.04	46506.44
513.21	46803.69
513.38	46700.71
513.56	47210.95
513.73	47068.17
513.90	47164.14
514.08	47243.71
514.25	47779.70
514.43	47447.34
514.60	47695.44
514.77	47330.31
514.95	47835.87
515.12	47814.80
515.29	47962.26
515.47	47999.71
515.64	48580.16
515.81	47943.53
515.99	48385.89
516.16	48774.42
516.33	48744.00
516.51	48645.69
516.68	48814.21
516.85	48746.34
517.03	48952.30
517.20	49024.86
517.37	48589.52
517.54	48985.07
517.72	49296.36
517.89	49455.52
518.06	49499.99
518.24	49612.34
518.41	49518.71
518.58	49572.55
518.75	49113.80
518.93	50099.17
519.10	49535.10
519.27	49755.11
519.45	50103.85
519.62	50260.66
519.79	50160.02
519.96	50190.45
520.14	50841.12
520.31	50181.09
520.48	50555.57
520.65	50328.54
520.83	50815.37
521.00	50920.70
521.17	51187.52
521.34	50719.41
521.52	51185.18
521.69	51049.42
521.86	51217.94
522.03	51150.07
522.20	51496.47
522.38	51672.01
522.55	51260.07
522.72	51569.02
522.89	51625.20
523.07	51859.25
523.24	51601.79
523.41	51917.76
523.58	51826.48
523.75	52128.41
523.92	52189.27
524.10	52083.94
524.27	52144.80
524.44	52355.44
524.61	52549.71
524.78	52301.61
524.96	52390.55
525.13	52512.26
525.30	52521.62
525.47	52811.85
525.64	52879.72
525.81	52949.94
525.98	53006.11
526.16	53020.16
526.33	52875.04
526.50	53076.33
526.67	52900.79
526.84	53387.62
527.01	53076.33
527.18	52949.94
527.36	53027.18
527.53	53118.46
527.70	53563.16
527.87	53382.94
528.04	53584.22
528.21	53521.03
528.38	53567.84
528.55	53834.66
528.72	53471.88
528.89	53621.67
529.07	53572.52
529.24	53560.82
529.41	53942.33
529.58	54206.81
529.75	53848.71
529.92	53813.60
530.09	54152.97
530.26	54291.07
530.43	53951.69
530.60	54169.36
530.77	54003.18
530.94	54321.49
531.11	54064.03
531.28	54248.94
531.46	54389.37
531.63	54384.69
531.80	54405.75
531.97	54365.96
532.14	54464.27
532.31	54686.62
532.48	54595.34
532.65	54789.60
532.82	54850.45
532.99	55056.42
533.16	54869.18
533.33	55075.15
533.50	55121.96
533.67	55042.38
533.84	54908.97
534.01	55290.48
534.18	55152.38
534.35	55306.86
534.52	55407.50
534.69	55540.91
534.86	55487.08
535.03	55426.23
535.20	55475.38
535.37	55339.63
535.54	55302.18
535.71	55477.72
535.88	55662.62
536.05	55618.15
536.22	55814.76
536.38	55952.85
536.55	55707.09
536.72	55870.93
536.89	55618.15
537.06	55725.81
537.23	55798.37
537.40	55770.28
537.57	55891.99
537.74	55814.76
537.91	56119.02
538.08	56062.85
538.25	55927.10
538.42	56397.55
538.59	56411.59
538.75	56161.15
538.92	56301.59
539.09	56404.57
539.26	56243.07
539.43	56289.88
539.60	56292.22
539.77	56418.61
539.94	56563.73
540.11	56706.50
540.28	56640.96
540.44	56743.95
540.61	56509.89
540.78	56594.15
540.95	56603.52
541.12	56512.23
541.29	56860.97
541.46	56753.31
541.62	56811.82
541.79	56933.53
541.96	56521.60
542.13	56753.31
542.30	56865.66
542.47	56931.19
542.63	56949.92
542.80	57057.58
542.97	57219.08
543.14	57642.71
543.31	57403.98
543.48	57415.68
543.64	57682.50
543.81	57411.00
543.98	57558.45
544.15	57495.26
544.32	57542.07
544.48	57792.51
544.65	57368.87
544.82	57844.00
544.99	57324.40
545.16	57577.18
545.32	57757.40
545.49	57776.12
545.66	57963.37
545.83	57829.96
546.00	57939.96
546.16	57581.86
546.33	57846.34
546.50	57701.23
546.67	57696.55
546.83	57530.37
547.00	57984.43
547.17	58026.56
547.34	57865.06
547.50	58305.09
547.67	58365.94
547.84	58206.78
548.00	58321.47
548.17	58459.56
548.34	58277.00
548.51	58468.92
548.67	58422.11
548.84	58277.00
549.01	58286.36
549.18	58269.98
549.34	58272.32
549.51	58585.95
549.68	58417.43
549.84	58417.43
550.01	58782.55
550.18	58408.07
550.34	58717.02
550.51	58820.00
550.68	58742.77
550.84	58302.74
551.01	58621.06
551.18	58632.76
551.34	58665.53
551.51	58670.21
551.68	58590.63
551.84	58766.17
552.01	58756.81
552.18	58852.77
552.34	58611.70
552.51	58901.92
552.68	58791.92
552.84	58599.99
553.01	59014.27
553.18	59082.14
553.34	59147.68
553.51	58859.79
553.67	59138.32
553.84	59082.14
554.01	58972.14
554.17	59178.10
554.34	59220.23
554.51	59171.08
554.67	59292.79
554.84	59145.34
555.00	59154.70
555.17	59002.56
555.33	59285.77
555.50	59096.19
555.67	59299.81
555.83	59182.79
556.00	59283.43
556.16	59552.59
556.33	59348.96
556.50	59327.90
556.66	59522.16
556.83	59187.47
556.99	59686.00
557.16	59690.68
557.32	59473.01
557.49	59896.65
557.65	59571.32
557.82	59512.80
557.98	59697.70
558.15	59426.20
558.32	59863.88
558.48	59550.25
558.65	59721.11
558.81	59728.13
558.98	59561.95
559.14	59840.48
559.31	59718.77
559.47	59793.67
559.64	59948.14
559.80	59826.43
559.97	59985.59
560.13	59681.32
560.30	59781.96
560.46	59917.71
560.63	60196.24
560.79	59943.46
560.96	60027.72
561.12	60149.43
561.29	59856.86
561.45	60205.60
561.61	59826.43
561.78	59936.44
561.94	59997.29
562.11	60004.31
562.27	60111.98
562.44	60111.98
562.60	60100.28
562.77	60088.57
562.93	59992.61
563.10	60142.41
563.26	60027.72
563.42	60369.44
563.59	60062.83
563.75	60128.36
563.92	60175.17
564.08	60221.98
564.24	60308.58
564.41	60219.64
564.57	60252.41
564.74	60172.83
564.90	60434.97
565.07	60268.79
565.23	60418.59
565.39	60142.41
565.56	60594.13
565.72	60149.43
565.88	60392.84
566.05	60425.61
566.21	60320.29
566.38	60573.06
566.54	60488.80
566.70	60491.15
566.87	60640.94
567.03	60432.63
567.19	60652.64
567.36	60456.04
567.52	60355.39
567.68	60764.99
567.85	60488.80
568.01	60692.43
568.17	60516.89
568.34	60650.30
568.50	60500.51
568.66	60568.38
568.83	60772.01
568.99	60537.96
569.15	60715.84
569.32	60582.43
569.48	60547.32
569.64	60566.04
569.81	60624.56
569.97	60549.66
570.13	60608.17
570.30	60757.97
570.46	60764.99
570.62	60830.52
570.78	60687.75
570.95	60589.45
571.11	60832.86
571.27	60678.39
571.43	60687.75
571.60	60952.23
571.76	60619.88
571.92	60809.46
572.09	60772.01
572.25	60687.75
572.41	60764.99
572.57	60762.65
572.74	60996.70
572.90	60849.25
573.06	60743.92
573.22	60917.12
573.38	60781.37
573.55	60687.75
573.71	60945.21
573.87	60844.57
574.03	60797.76
574.20	60891.38
574.36	60942.87
574.52	60825.84
574.68	61132.45
574.84	61055.21
575.01	61031.81
575.17	60919.46
575.33	60931.17
575.49	60867.97
575.65	60999.04
575.82	60856.27
575.98	60985.00
576.14	61263.52
576.30	61153.52
576.46	60734.56
576.62	60933.51
576.79	61127.77
576.95	60940.53
577.11	61137.13
577.27	61062.24
577.43	60879.67
577.59	60921.80
577.75	60921.80
577.92	60999.04
578.08	61113.73
578.24	61015.43
578.40	60970.96
578.56	61169.90
578.72	61017.77
578.88	61038.83
579.04	61118.41
579.21	61190.97
579.37	61055.21
579.53	61062.24
579.69	60767.33
579.85	60956.91
580.01	61153.52
580.17	60966.27
580.33	61132.45
580.49	60985.00
580.65	61071.60
580.82	61055.21
580.98	61031.81
581.14	60907.76
581.30	61254.16
581.46	60945.21
581.62	61076.28
581.78	61055.21
581.94	61144.16
582.10	60999.04
582.26	61059.90
582.42	61158.20
582.58	61125.43
582.74	61190.97
582.90	60973.30
583.06	61099.68
583.22	61013.08
583.38	60940.53
583.54	61258.84
583.70	61139.47
583.86	61167.56
584.02	61073.94
584.18	61345.44
584.34	60966.27
584.50	61029.47
584.66	61038.83
584.82	61092.66
584.98	61275.22
585.14	61221.39
585.30	60912.44
585.46	61235.44
585.62	61214.37
585.78	61394.59
585.94	61261.18
586.10	61258.84
586.26	61228.41
586.42	61291.61
586.58	61125.43
586.74	61073.94
586.90	61158.20
587.06	61146.50
587.22	61162.88
587.38	61240.12
587.54	61364.17
587.70	61453.11
587.86	61197.99
588.02	61315.01
588.18	61516.30
588.34	61216.71
588.49	61305.65
588.65	61090.32
588.81	61310.33
588.97	61401.61
589.13	61258.84
589.29	61329.06
589.45	61565.45
589.61	61399.27
589.77	61518.64
589.93	61460.13
590.08	61586.52
590.24	61511.62
590.40	61581.84
590.56	61495.24
590.72	61338.42
590.88	61403.95
591.04	61286.93
591.20	61642.69
591.35	61497.58
591.51	61661.41
591.67	61602.90
591.83	61661.41
591.99	61565.45
592.15	61485.87
592.31	61567.79
592.46	61539.71
592.62	61689.50
592.78	61352.46
592.94	61614.60
593.10	61607.58
593.26	61654.39
593.41	61511.62
593.57	61432.04
593.73	61467.15
593.89	61729.29
594.05	61542.05
594.20	61623.96
594.36	61635.67
594.52	61698.86
594.68	61659.07
594.84	61518.64
594.99	61797.16
595.15	61436.72
595.31	61764.40
595.47	61696.52
595.62	61523.32
595.78	61520.98
595.94	61888.45
596.10	61701.20
596.25	61567.79
596.41	61738.65
596.57	61762.06
596.73	61724.61
596.88	61836.95
597.04	61755.03
597.20	61787.80
597.36	61792.48
597.51	61860.36
597.67	61773.76
597.83	61623.96
597.99	61928.23
598.14	61827.59
598.30	61815.89
598.46	61748.01
598.61	61911.85
598.77	61619.28
598.93	61825.25
599.09	61712.91
599.24	62082.71
599.40	61982.07
599.56	61951.64
599.71	61799.50
599.87	61925.89
600.03	62162.29
600.18	61848.66
600.34	61766.74
600.50	61787.80
600.65	61872.06
600.81	61916.53
600.97	61881.42
601.12	62045.26
601.28	61771.42
601.44	61918.87
601.59	61900.15
601.75	61928.23
601.91	61996.11
602.06	61975.05
602.22	62120.16
602.37	62000.79
602.53	61799.50
602.69	61783.12
602.84	61836.95
603.00	61799.50
603.16	61897.81
603.31	61909.51
603.47	61989.09
603.62	61965.68
603.78	61949.30
603.94	62164.63
604.09	61956.32
604.25	61858.02
604.40	61916.53
604.56	61984.41
604.71	62040.58
604.87	61986.75
605.03	61949.30
605.18	61743.33
605.34	62045.26
605.49	61907.17
605.65	61710.56
605.80	61991.43
605.96	62120.16
606.12	61932.92
606.27	62148.24
606.43	61909.51
606.58	62047.60
606.74	61836.95
606.89	61511.62
607.05	62038.24
607.20	62157.61
607.36	61921.21
607.51	61888.45
607.67	61883.76
607.82	61656.73
607.98	61942.28
608.13	61918.87
608.29	61815.89
608.44	61792.48
608.60	61813.55
608.75	61963.34
608.91	61563.11
609.06	61539.71
609.22	62045.26
609.37	61918.87
609.53	61858.02
609.68	61780.78
609.84	61757.38
609.99	61801.85
610.15	61951.64
610.30	61874.40
610.46	61724.61
610.61	61904.83
610.76	61769.08
610.92	61806.53
611.07	61600.56
611.23	61638.01
611.38	61567.79
611.54	61659.07
611.69	61602.90
611.84	61900.15
612.00	61586.52
612.15	61513.96
612.31	61853.34
612.46	61539.71
612.62	61628.65
612.77	61759.72
612.92	61719.93
613.08	61488.21
613.23	61616.94
613.39	61551.41
613.54	61434.38
613.69	61509.28
613.85	61593.54
614.00	61558.43
614.15	61698.86
614.31	61410.98
614.46	61663.75
614.62	61495.24
614.77	61483.53
614.92	61504.60
615.08	61469.49
615.23	61357.14
615.38	61546.73
615.54	61457.79
615.69	61315.01
615.84	61565.45
616.00	61537.36
616.15	61579.49
616.30	61600.56
616.46	61513.96
616.61	61460.13
616.76	61343.10
616.92	61354.80
617.07	61307.99
617.22	61394.59
617.37	61509.28
617.53	61581.84
617.68	61579.49
617.83	61460.13
617.99	61535.02
618.14	61296.29
618.29	61485.87
618.45	61354.80
618.60	61209.69
618.75	61235.44
618.90	61333.74
619.06	61389.91
619.21	61286.93
619.36	61441.40
619.51	61389.91
619.67	61286.93
619.82	61286.93
619.97	61448.42
620.12	61134.79
620.28	61221.39
620.43	61345.44
620.58	61368.85
620.73	60952.23
620.89	61205.01
621.04	61261.18
621.19	61183.94
621.34	61066.92
621.49	60814.14
621.65	61102.03
621.80	61249.48
621.95	61027.13
622.10	61174.58
622.25	60982.66
622.41	61010.74
622.56	61092.66
622.71	61020.11
622.86	60872.65
623.01	60788.39
623.16	60940.53
623.32	60905.42
623.47	61102.03
623.62	60956.91
623.77	60807.12
623.92	61041.17
624.07	60900.74
624.23	61069.26
624.38	60996.70
624.53	60769.67
624.68	60828.18
624.83	60987.34
624.98	60858.61
625.13	60732.22
625.29	60907.76
625.44	61031.81
625.59	60601.15
625.74	60753.29
625.89	60552.00
626.04	60439.65
626.19	60596.47
626.34	60669.03
626.49	60465.40
626.65	60521.57
626.80	60713.50
626.95	60399.86
627.10	60467.74
627.25	60535.62
627.40	60547.32
627.55	60554.34
627.70	60521.57
627.85	60402.21
628.00	60420.93
628.15	60559.02
628.30	60444.33
628.45	60385.82
628.60	60622.22
628.76	60425.61
628.91	60530.93
629.06	60336.67
629.21	60357.74
629.36	60418.59
629.51	60254.75
629.66	60240.71
629.81	60097.94
629.96	60301.56
630.11	60210.28
630.26	60336.67
630.41	60259.43
630.56	60126.02
630.71	60238.37
630.86	60360.08
631.01	60114.32
631.16	60275.82
631.31	60147.09
631.46	60100.28
631.61	60200.92
631.76	60196.24
631.91	60390.50
632.06	60317.95
632.21	59994.95
632.36	60231.35
632.51	59737.49
632.66	60107.30
632.81	60140.07
632.96	60402.21
633.10	60170.49
633.25	60285.18
633.40	60020.70
633.55	59898.99
633.70	59791.33
633.85	59854.52
634.00	59924.74
634.15	60023.04
634.30	59812.39
634.45	60016.02
634.60	60147.09
634.75	60076.87
634.90	59840.48
635.05	59901.33
635.19	60006.65
635.34	60088.57
635.49	59657.91
635.64	59966.87
635.79	59906.01
635.94	59751.54
636.09	59721.11
636.24	59519.82
636.39	59814.73
636.53	59915.37
636.68	59498.76
636.83	59760.90
636.98	59805.37
637.13	59597.06
637.28	59592.38
637.43	59681.32
637.57	59819.41
637.72	59545.57
637.87	59648.55
638.02	59449.61
638.17	59447.27
638.32	59845.16
638.46	59409.82
638.61	59498.76
638.76	59442.59
638.91	59426.20
639.06	59419.18
639.20	59264.70
639.35	59255.34
639.50	59107.89
639.65	59374.71
639.80	59264.70
639.94	59402.80
640.09	59379.39
640.24	59288.11
640.39	59281.09
640.54	59316.20
640.68	59475.35
640.83	59290.45
640.98	59056.40
641.13	59079.80
641.27	59444.93
641.42	59133.63
641.57	59121.93
641.72	59152.36
641.86	58965.12
642.01	58990.86
642.16	59206.19
642.31	59044.69
642.45	59224.92
642.60	58901.92
642.75	59096.19
642.90	59070.44
643.04	59157.04
643.19	58979.16
643.34	59171.08
643.48	59054.06
643.63	59147.68
643.78	59016.61
643.93	58944.05
644.07	59011.93
644.22	58827.02
644.37	58850.43
644.51	58740.42
644.66	59159.38
644.81	58864.47
644.95	58993.20
645.10	59063.42
645.25	58897.24
645.39	58801.28
645.54	58798.94
645.69	58691.27
645.83	58745.11
645.98	58705.32
646.13	58611.70
646.27	58894.90
646.42	58770.85
646.57	58670.21
646.71	58632.76
646.86	58967.46
647.00	58796.60
647.15	58801.28
647.30	58602.33
647.44	58763.83
647.59	58599.99
647.74	58820.00
647.88	58688.93
648.03	58733.40
648.17	58625.74
648.32	58216.14
648.47	58410.41
648.61	58522.76
648.76	58445.52
648.90	58384.66
649.05	58611.70
649.20	58628.08
649.34	58693.61
649.49	58405.73
649.63	58415.09
649.78	58644.46
649.92	58272.32
650.07	58625.74
650.21	58358.92
650.36	58403.39
650.51	58492.33
650.65	58525.10
650.80	58564.88
650.94	58190.40
651.09	58136.57
651.23	57825.28
651.38	58120.18
651.52	58087.42
651.67	58316.79
651.81	58092.10
651.96	57897.83
652.10	58232.53
652.25	58178.70
652.39	58122.52
652.54	57968.05
652.68	57832.30
652.83	57963.37
652.97	57972.73
653.12	57811.23
653.26	57975.07
653.41	58096.78
653.55	57935.28
653.70	57621.65
653.84	57956.35
653.99	57996.13
654.13	57567.82
654.27	57874.43
654.42	57921.24
654.56	57726.97
654.71	57776.12
654.85	57874.43
655.00	58000.82
655.14	57865.06
655.29	57506.96
655.43	57876.77
655.57	57766.76
655.72	57691.86
655.86	57588.88
656.01	57635.69
656.15	57602.92
656.30	57813.57
656.44	57860.38
656.58	57645.05
656.73	57666.12
656.87	57565.48
657.01	57729.31
657.16	57593.56
657.30	57528.03
657.45	57528.03
657.59	57263.55
657.73	57301.00
657.88	57373.55
658.02	57378.23
658.16	57467.17
658.31	57413.34
658.45	57460.15
658.60	57296.31
658.74	57467.17
658.88	57382.91
659.03	56938.21
659.17	57013.11
659.31	57188.65
659.46	56978.00
659.60	56877.36
659.74	57144.18
659.89	56809.48
660.03	56690.12
660.17	57022.47
660.32	56879.70
660.46	56802.46
660.60	56561.39
660.74	56858.63
660.89	56996.73
661.03	56769.69
661.17	56701.82
661.32	56577.77
661.46	56662.03
661.60	56860.97
661.74	56818.84
661.89	56486.49
662.03	56563.73
662.17	56453.72
662.31	56306.27
662.46	56774.37
662.60	56472.45
662.74	56460.74
662.88	56512.23
663.03	56189.24
663.17	56285.20
663.31	55856.88
663.45	56128.39
663.60	55922.42
663.74	55664.96
663.88	56039.45
664.02	55917.74
664.17	55966.89
664.31	55641.56
664.45	55976.25
664.59	56023.06
664.73	55817.10
664.88	55721.13
665.02	55311.54
665.16	55746.88
665.30	55810.07
665.44	55339.63
665.59	55697.73
665.73	55547.93
665.87	55428.57
666.01	55543.25
666.15	55627.51
666.29	55426.23
666.44	55571.34
666.58	55255.37
666.72	55409.84
666.86	54986.21
667.00	55131.32
667.14	54700.66
667.28	54553.21
667.43	54855.14
667.57	55243.66
667.71	54927.69
667.85	54906.63
667.99	54892.58
668.13	54983.86
668.27	54632.78
668.41	54925.35
668.56	54555.55
668.70	54691.30
668.84	54726.41
668.98	54415.11
669.12	54536.82
669.26	54630.44
669.40	54422.14
669.54	54604.70
669.68	54148.29
669.82	53659.12
669.96	54143.61
670.10	54244.26
670.25	54419.80
670.39	54131.91
670.53	54237.23
670.67	54017.22
670.81	54405.75
670.95	53975.09
671.09	53656.78
671.23	53347.83
671.37	53579.54
671.51	53724.66
671.65	53670.82
671.79	53680.19
671.93	53404.00
672.07	53602.95
672.21	53258.89
672.35	53062.29
672.49	53076.33
672.63	53120.80
672.77	52662.05
672.91	53329.11
673.05	52603.54
673.19	52765.04
673.33	52678.44
673.47	52491.19
673.61	52711.20
673.75	52573.11
673.89	52643.33
674.03	52516.94
674.17	52404.59
674.31	52336.72
674.45	52245.44
674.59	52130.75
674.73	52151.82
674.87	51866.27
675.01	51594.77
675.15	51753.93
675.29	51917.76
675.43	51873.29
675.56	51185.18
675.70	51379.44
675.84	51400.50
675.98	50604.72
676.12	51536.26
676.26	51487.10
676.40	51255.39
676.54	51030.70
676.68	50934.74
676.82	50073.42
676.96	50440.89
677.10	49918.95
677.23	50527.48
677.37	50293.43
677.51	50082.78
677.65	49886.18
677.79	48978.05
677.93	49205.08
678.07	49397.01
678.21	49258.91
678.34	49560.84
678.48	49024.86
678.62	48992.09
678.76	49177.00
678.90	48872.73
679.04	48645.69
679.18	48732.29
679.31	48472.49
679.45	48285.25
679.59	48533.35
679.73	48416.32
679.87	47938.85
680.00	47606.50
680.14	47196.90
680.28	47772.67
680.42	47154.77
680.56	47599.47
680.70	46773.27
680.83	47164.14
680.97	46763.90
681.11	46993.28
681.25	46796.67
681.39	46759.22
681.52	46548.57
681.66	46518.15
681.80	46604.75
681.94	45993.87
682.07	46057.06
682.21	45766.84
682.35	45773.86
682.49	45628.74
682.62	45450.86
682.76	45455.54
682.90	45532.78
683.04	45275.32
683.17	45202.77
683.31	45031.91
683.45	44987.44
683.59	44570.82
683.72	44374.22
683.86	44823.60
684.00	44395.28
684.13	44229.10
684.27	43828.87
684.41	43557.37
684.55	43798.44
684.68	43875.68
684.82	43540.99
684.96	43414.60
685.09	43140.75
685.23	42562.64
685.37	42909.04
685.50	42988.62
685.64	42768.61
685.78	42590.73
685.91	42997.98
686.05	42394.12
686.19	41855.80
686.32	41596.00
686.46	41329.18
686.60	40966.40
686.73	40968.74
686.87	41024.91
687.01	41308.11
687.14	41031.93
687.28	40652.76
687.42	40800.22
687.55	40818.94
687.69	40994.48
687.82	40119.12
687.96	40123.80
688.10	40172.96
688.23	39964.65
688.37	39585.48
688.50	39288.23
688.64	39147.80
688.78	39267.17
688.91	38815.44
689.05	38859.91
689.18	38658.63
689.32	38239.67
689.46	37851.14
689.59	38396.49
689.73	38087.54
689.86	37916.68
690.00	37804.33
690.13	37916.68
690.27	37940.08
690.41	37525.81
690.54	37546.87
690.68	36921.95
690.81	37244.94
690.95	36683.22
691.08	36802.58
691.22	36598.96
691.35	36381.29
691.49	36734.71
691.62	36329.80
691.76	36004.46
691.89	36130.85
692.03	35704.87
692.16	35173.57
692.30	35321.02
692.43	35662.74
692.57	35222.72
692.70	34850.58
692.84	35056.54
692.97	34719.51
693.11	34682.06
693.24	34422.26
693.38	34230.33
693.51	33935.43
693.65	34277.15
693.78	33394.76
693.92	33998.62
694.05	33703.71
694.19	33216.88
694.32	33298.80
694.45	33287.10
694.59	32774.52
694.72	32818.99
694.86	32701.96
694.99	32540.47
695.13	32559.19
695.26	32341.52
695.39	31960.02
695.53	31751.71
695.66	31929.59
695.80	31857.03
695.93	31821.92
696.07	31323.39
696.20	30677.40
696.33	30822.51
696.47	30773.36
696.60	30820.17
696.73	30389.52
696.87	30724.21
697.00	30197.59
697.14	30485.48
697.27	30096.95
697.40	30148.44
697.54	30223.34
697.67	29888.64
697.80	29621.82
697.94	29244.99
698.07	29310.53
698.21	29020.30
698.34	29163.08
698.47	29118.60
698.61	28362.61
698.74	28268.99
698.87	28603.69
699.01	28505.38
699.14	28154.30
699.27	27826.63
699.40	28016.21
699.54	28226.86
699.67	27800.88
699.80	27885.14
699.94	27328.10
700.07	27674.49
700.20	27276.60
700.34	26941.91
700.47	26984.04
700.60	26455.08
700.73	26363.79
700.87	26522.95
701.00	25933.14
701.13	26195.28
701.26	25848.88
701.40	26230.38
701.53	25944.84
701.66	26265.49
701.79	25046.07
701.93	25296.51
702.06	25317.57
702.19	24882.24
702.32	25158.42
702.46	24922.02
702.59	24774.57
702.72	24844.79
702.85	24694.99
702.99	24865.85
703.12	24318.17
703.25	24208.16
703.38	23934.32
703.51	23903.89
703.65	23964.75
703.78	23655.79
703.91	23627.71
704.04	23208.75
704.17	23199.39
704.31	23344.50
704.44	23267.27
704.57	22977.04
704.70	23073.00
704.83	22754.69
704.96	22403.61
705.10	22726.60
705.23	21781.03
>>>>>End Processed Spectral Data<<<<<
