SpectraSuite Data File
++++++++++++++++++++++++++++++++++++
Date: Fri Oct 25 10:48:31 EDT 2013
User: price-jones
Dark Spectrum Present: No
Reference Spectrum Present: No
Number of Sampled Component Spectra: 1
Spectrometers: USB2+H05261
Integration Time (usec): 100000 (USB2+H05261)
Spectra Averaged: 1 (USB2+H05261)
Boxcar Smoothing: 0 (USB2+H05261)
Correct for Electrical Dark: No (USB2+H05261)
Strobe/Lamp Enabled: No (USB2+H05261)
Correct for Detector Non-linearity: No (USB2+H05261)
Correct for Stray Light: No (USB2+H05261)
Number of Pixels in Processed Spectrum: 2048
>>>>>Begin Processed Spectral Data<<<<<
365.73	152.13
365.92	152.13
366.12	152.13
366.32	46.81
366.52	0.00
366.72	86.60
366.91	0.00
367.11	56.17
367.31	25.75
367.51	63.19
367.70	98.30
367.90	67.88
368.10	51.49
368.30	51.49
368.49	46.81
368.69	35.11
368.89	86.60
369.09	46.81
369.28	30.43
369.48	11.70
369.68	28.09
369.87	74.90
370.07	149.79
370.27	184.90
370.47	205.97
370.66	442.36
370.86	472.79
371.06	507.90
371.25	552.37
371.45	437.68
371.65	435.34
371.84	517.26
372.04	498.53
372.24	507.90
372.44	465.77
372.63	505.56
372.83	564.07
373.03	575.77
373.22	545.34
373.42	526.62
373.62	533.64
373.81	561.73
374.01	643.65
374.21	603.86
374.40	559.39
374.60	526.62
374.79	578.11
374.99	587.47
375.19	645.99
375.38	608.54
375.58	606.20
375.78	629.60
375.97	638.97
376.17	706.84
376.37	669.39
376.56	566.41
376.76	592.16
376.95	594.50
377.15	723.23
377.35	592.16
377.54	648.33
377.74	697.48
377.93	660.03
378.13	664.71
378.33	692.80
378.52	643.65
378.72	695.14
378.91	678.76
379.11	685.78
379.31	709.18
379.50	662.37
379.70	704.50
379.89	692.80
380.09	685.78
380.28	681.10
380.48	676.41
380.68	823.87
380.87	676.41
381.07	746.63
381.26	826.21
381.46	662.37
381.65	741.95
381.85	765.36
382.04	704.50
382.24	770.04
382.43	730.25
382.63	709.18
382.83	802.80
383.02	767.70
383.22	734.93
383.41	828.55
383.61	767.70
383.80	858.98
384.00	730.25
384.19	823.87
384.39	819.19
384.58	809.83
384.78	842.59
384.97	849.61
385.17	877.70
385.36	805.14
385.56	795.78
385.75	795.78
385.95	840.25
386.14	791.10
386.34	802.80
386.53	915.15
386.72	837.91
386.92	823.87
387.11	884.72
387.31	905.79
387.50	873.02
387.70	950.26
387.89	940.90
388.09	957.28
388.28	912.81
388.48	896.43
388.67	1022.81
388.86	943.24
389.06	1011.11
389.25	987.71
389.45	1046.22
389.64	873.02
389.84	1144.52
390.03	1020.47
390.22	1090.69
390.42	985.37
390.61	1111.75
390.81	1139.84
391.00	1071.97
391.19	1132.82
391.39	985.37
391.58	1083.67
391.78	1069.62
391.97	1132.82
392.16	1034.52
392.36	1146.86
392.55	1062.60
392.75	1060.26
392.94	1011.11
393.13	999.41
393.33	1039.20
393.52	1067.28
393.71	1130.48
393.91	1095.37
394.10	1184.31
394.29	1125.80
394.49	1177.29
394.68	1231.12
394.88	1245.16
395.07	1299.00
395.26	1263.89
395.46	1394.96
395.65	1240.48
395.84	1214.74
396.04	1308.36
396.23	1064.94
396.42	1170.27
396.62	1228.78
396.81	1299.00
397.00	1308.36
397.19	1324.74
397.39	1320.06
397.58	1425.39
397.77	1404.32
397.97	1437.09
398.16	1488.58
398.35	1399.64
398.55	1348.15
398.74	1507.30
398.93	1584.54
399.12	1554.12
399.32	1533.05
399.51	1575.18
399.70	1514.33
399.90	1661.78
400.09	1582.20
400.28	1675.82
400.47	1664.12
400.67	1722.63
400.86	1668.80
401.05	1710.93
401.24	1680.50
401.44	1729.66
401.63	1898.17
401.82	1790.51
402.01	1715.61
402.21	1760.08
402.40	1788.17
402.59	1872.43
402.78	1818.60
402.97	1816.26
403.17	1886.47
403.36	1825.62
403.55	1994.14
403.74	1935.62
403.93	1954.35
404.13	1949.67
404.32	1928.60
404.51	1930.94
404.70	1970.73
404.89	1935.62
405.09	1937.96
405.28	1952.01
405.47	1919.24
405.66	1940.30
405.85	2057.33
406.05	2043.29
406.24	2085.42
406.43	2001.16
406.62	2181.38
406.81	2129.89
407.00	2148.61
407.20	2050.31
407.39	2059.67
407.58	2190.74
407.77	2214.15
407.96	2326.49
408.15	2223.51
408.34	2237.55
408.54	2272.66
408.73	2300.75
408.92	2305.43
409.11	2356.92
409.30	2420.11
409.49	2312.45
409.68	2370.96
409.87	2298.41
410.07	2363.94
410.26	2476.29
410.45	2434.16
410.64	2462.24
410.83	2532.46
411.02	2537.14
411.21	2583.95
411.40	2520.76
411.59	2703.32
411.78	2640.12
411.98	2513.74
412.17	2677.57
412.36	2661.19
412.55	2813.32
412.74	2656.51
412.93	2764.17
413.12	2920.99
413.31	2778.22
413.50	2883.54
413.69	2946.73
413.88	2939.71
414.07	3023.97
414.26	2944.39
414.45	3007.59
414.64	2986.52
414.83	3059.08
415.02	3075.46
415.22	3091.85
415.41	3150.36
415.60	3300.16
415.79	3232.28
415.98	3403.14
416.17	3215.90
416.36	3131.64
416.55	3215.90
416.74	3316.54
416.93	3269.73
417.12	3337.60
417.31	3393.78
417.50	3417.18
417.69	3517.83
417.88	3559.95
418.07	3414.84
418.26	3421.86
418.45	3576.34
418.64	3662.94
418.83	3595.06
419.02	3658.26
419.21	3709.75
419.39	3709.75
419.58	3616.13
419.77	3513.14
419.96	3693.37
420.15	3861.88
420.34	3686.34
420.53	3740.18
420.72	3817.41
420.91	3854.86
421.10	3936.78
421.29	3929.76
421.48	3765.92
421.67	3859.54
421.86	3801.03
422.05	3875.93
422.24	3740.18
422.43	3838.48
422.61	3829.12
422.80	3894.65
422.99	4051.47
423.18	4025.72
423.37	3955.51
423.56	3971.89
423.75	3896.99
423.94	4124.02
424.13	3758.90
424.32	3880.61
424.50	3999.98
424.69	4201.26
424.88	4271.48
425.07	4011.68
425.26	3878.27
425.45	3960.19
425.64	3859.54
425.83	4070.19
426.01	4107.64
426.20	4032.74
426.39	4018.70
426.58	3969.55
426.77	3974.23
426.96	4072.53
427.15	4009.34
427.33	4170.83
427.52	4238.71
427.71	4250.41
427.90	4133.39
428.09	4147.43
428.28	4264.46
428.46	4119.34
428.65	4259.78
428.84	4390.84
429.03	4376.80
429.22	4212.96
429.40	4280.84
429.59	4170.83
429.78	3880.61
429.97	3918.06
430.16	4021.04
430.34	4105.30
430.53	4248.07
430.72	4339.35
430.91	4166.15
431.10	4416.59
431.28	4643.62
431.47	4510.21
431.66	4667.03
431.85	4617.88
432.03	4732.56
432.22	4702.14
432.41	4664.69
432.60	4791.08
432.79	4835.55
432.97	4896.40
433.16	4788.74
433.35	4542.98
433.54	4819.16
433.72	4746.61
433.91	4912.78
434.10	4798.10
434.28	4851.93
434.47	4945.55
434.66	4884.70
434.85	4964.28
435.03	4983.00
435.22	5013.43
435.41	5317.70
435.59	5284.93
435.78	5144.50
435.97	5165.56
436.16	5153.86
436.34	5177.26
436.53	5144.50
436.72	5310.68
436.90	5104.71
437.09	5242.80
437.28	5214.71
437.46	5334.08
437.65	5071.94
437.84	5308.34
438.02	5219.39
438.21	5451.11
438.40	5345.78
438.58	5472.17
438.77	5582.18
438.96	5413.66
439.14	5713.25
439.33	5621.97
439.52	5544.73
439.70	5708.57
439.89	5685.16
440.08	5804.53
440.26	5746.02
440.45	5879.43
440.63	5886.45
440.82	6078.37
441.01	5860.70
441.19	6024.54
441.38	6146.25
441.57	6083.05
441.75	6258.59
441.94	6523.07
442.12	6174.33
442.31	6464.56
442.50	6462.22
442.68	6562.86
442.87	6326.47
443.05	6548.82
443.24	6452.86
443.43	6483.28
443.61	6633.08
443.80	6733.72
443.98	6450.52
444.17	6384.98
444.35	6473.92
444.54	6806.28
444.73	6731.38
444.91	6443.49
445.10	6595.63
445.28	6686.91
445.47	6530.09
445.65	6574.56
445.84	6530.09
446.02	6745.42
446.21	6827.34
446.39	6712.66
446.58	6647.12
446.77	6787.55
446.95	6693.93
447.14	6832.02
447.32	6766.49
447.51	6675.21
447.69	6658.82
447.88	6855.43
448.06	6871.81
448.25	6892.88
448.43	6916.28
448.62	6672.87
448.80	6876.49
448.99	6832.02
449.17	6874.15
449.36	6942.03
449.54	7045.01
449.73	7241.62
449.91	7466.31
450.10	7227.57
450.28	7180.76
450.46	7208.85
450.65	7382.05
450.83	7190.13
451.02	7389.07
451.20	7548.23
451.39	7328.22
451.57	7442.90
451.76	7335.24
451.94	7199.49
452.13	7246.30
452.31	7384.39
452.49	7138.63
452.68	7358.64
452.86	7213.53
453.05	7456.95
453.23	7304.81
453.42	7274.38
453.60	7410.14
453.78	7604.40
453.97	7428.86
454.15	7389.07
454.34	7342.26
454.52	7644.19
454.70	7571.63
454.89	7627.81
455.07	7637.17
455.26	7651.21
455.44	7859.52
455.62	8114.64
455.81	7929.74
455.99	7948.46
456.17	7864.20
456.36	7754.19
456.54	7857.18
456.73	7999.95
456.91	8308.90
457.09	8245.71
457.28	8329.97
457.46	8133.36
457.64	8353.37
457.83	8259.75
458.01	8163.79
458.19	8482.10
458.38	8358.05
458.56	8514.87
458.74	8283.16
458.93	8234.00
459.11	8477.42
459.29	8269.11
459.48	8379.12
459.66	8505.51
459.84	8404.86
460.03	8645.94
460.21	8603.81
460.39	8737.22
460.57	8564.02
460.76	8727.86
460.94	8716.16
461.12	8781.69
461.31	8849.57
461.49	8648.28
461.67	8629.56
461.85	8997.02
462.04	8865.95
462.22	9310.65
462.40	9184.26
462.59	9020.42
462.77	8997.02
462.95	8954.89
463.13	9149.15
463.32	8978.30
463.50	9121.07
463.68	9242.78
463.86	9261.50
464.05	8980.64
464.23	8968.93
464.41	9235.75
464.59	9015.74
464.78	9495.55
464.96	9366.82
465.14	9118.73
465.32	9320.01
465.50	9390.23
465.69	9509.60
465.87	9280.22
466.05	9359.80
466.23	9277.88
466.41	9420.66
466.60	9554.07
466.78	9481.51
466.96	9331.72
467.14	9366.82
467.32	9528.32
467.51	9593.86
467.69	9224.05
467.87	9462.79
468.05	9549.39
468.23	9586.83
468.41	9366.82
468.60	9467.47
468.78	9738.97
468.96	9680.46
469.14	9755.35
469.32	9837.27
469.50	9577.47
469.69	10115.80
469.87	10019.83
470.05	9795.14
470.23	9818.55
470.41	9916.85
470.59	9830.25
470.77	9867.70
470.95	10045.58
471.14	10232.82
471.32	10274.95
471.50	10281.97
471.68	10546.45
471.86	10525.39
472.04	10384.96
472.22	10768.80
472.40	10331.12
472.58	10551.14
472.77	10548.79
472.95	10869.45
473.13	11147.97
473.31	10623.69
473.49	10740.72
473.67	10761.78
473.85	10892.85
474.03	11169.04
474.21	10984.13
474.39	11201.80
474.57	11290.74
474.75	11346.92
474.93	11288.40
475.12	11290.74
475.30	11424.15
475.48	11375.00
475.66	11517.78
475.84	11487.35
476.02	11550.54
476.20	11517.78
476.38	11864.18
476.56	11927.37
476.74	11913.33
476.92	12077.16
477.10	11976.52
477.28	12163.76
477.46	12341.64
477.64	12348.67
477.82	12725.49
478.00	12629.53
478.18	12863.58
478.36	12582.72
478.54	12683.36
478.72	12929.12
478.90	13132.75
479.08	13247.43
479.26	13303.60
479.44	13165.51
479.62	13542.34
479.80	13383.18
479.98	13631.28
480.16	13579.79
480.34	13743.63
480.52	14181.31
480.70	13881.72
480.88	13968.32
481.06	14193.01
481.24	14104.07
481.41	14218.75
481.59	14604.94
481.77	14588.56
481.95	14792.19
482.13	14504.30
482.31	14836.66
482.49	14780.48
482.67	15171.35
482.85	15428.81
483.03	15009.86
483.21	15541.16
483.39	15667.55
483.57	15496.69
483.74	15740.10
483.92	15824.36
484.10	15676.91
484.28	15932.03
484.46	16182.46
484.64	16552.27
484.82	16273.74
485.00	16449.28
485.18	16552.27
485.35	16786.32
485.53	16283.11
485.71	16390.77
485.89	16730.15
486.07	16648.23
486.25	16835.47
486.43	17383.16
486.61	17003.99
486.78	17680.41
486.96	17675.73
487.14	17937.87
487.32	18104.04
487.50	18139.15
487.68	18132.13
487.85	18609.60
488.03	18466.83
488.21	19115.16
488.39	18686.84
488.57	18862.38
488.75	18981.74
488.92	19506.02
489.10	19723.69
489.28	19728.38
489.46	19983.49
489.64	20135.63
489.81	20563.95
489.99	20491.39
490.17	20695.02
490.35	20704.38
490.53	20620.12
490.70	20858.85
490.88	20636.50
491.06	20982.90
491.24	20896.30
491.41	21193.55
491.59	21160.78
491.77	21359.73
491.95	21345.69
492.13	21593.78
492.30	22078.27
492.48	21865.28
492.66	22099.34
492.84	21888.69
493.01	22794.48
493.19	22127.42
493.37	22455.10
493.54	22677.45
493.72	22904.48
493.90	23040.23
494.08	23131.51
494.25	23171.30
494.43	23515.36
494.61	23894.53
494.79	23803.25
494.96	23962.40
495.14	23845.38
495.32	24159.01
495.49	24142.63
495.67	24175.39
495.85	24470.30
496.02	25029.69
496.20	24713.72
496.38	24886.92
496.55	24788.61
496.73	25479.07
496.91	25184.16
497.09	24982.88
497.26	25649.93
497.44	25170.12
497.62	25467.37
497.79	25839.51
497.97	25446.30
498.14	25748.23
498.32	25921.43
498.50	26019.74
498.67	26125.06
498.85	26878.71
499.03	26497.20
499.20	26864.67
499.38	26768.71
499.56	26857.65
499.73	26939.57
499.91	27063.61
500.08	27360.86
500.26	26588.49
500.44	26902.12
500.61	26955.95
500.79	27077.66
500.97	27400.65
501.14	27662.79
501.32	27412.35
501.49	27325.75
501.67	27623.00
501.84	28065.36
502.02	27917.91
502.20	28065.36
502.37	28189.41
502.55	28116.86
502.72	28301.76
502.90	28577.94
503.07	28491.34
503.25	28772.21
503.43	28678.58
503.60	28662.20
503.78	28650.50
503.95	28858.81
504.13	29139.67
504.30	29626.50
504.48	29125.63
504.65	29443.94
504.83	29420.53
505.01	29888.64
505.18	29607.78
505.36	30068.86
505.53	29762.25
505.71	30270.15
505.88	30260.79
506.06	29858.21
506.23	30038.44
506.41	29949.50
506.58	30235.04
506.76	30441.01
506.93	30794.43
507.11	30597.82
507.28	30398.88
507.46	30661.02
507.63	30417.60
507.81	30693.79
507.98	30586.12
508.16	30642.29
508.33	31016.78
508.50	30981.67
508.68	30962.95
508.85	31505.95
509.03	31405.31
509.20	31580.85
509.38	31360.84
509.55	31857.03
509.73	31627.66
509.90	31779.79
510.08	31702.56
510.25	31510.63
510.42	32212.79
510.60	32151.94
510.77	32381.31
510.95	32112.15
511.12	32268.97
511.30	32950.06
511.47	33226.24
511.64	32610.68
511.82	32685.58
511.99	32573.24
512.17	33193.48
512.34	32636.43
512.51	33397.10
512.69	32992.19
512.86	32877.51
513.04	33666.27
513.21	33464.98
513.38	33598.39
513.56	33795.00
513.73	33450.94
513.90	33273.06
514.08	33418.17
514.25	33947.13
514.43	33570.30
514.60	33539.88
514.77	33832.44
514.95	34216.29
515.12	33785.63
515.29	34195.23
515.47	34478.43
515.64	34911.43
515.81	34197.57
515.99	34263.10
516.16	34359.06
516.33	34003.30
516.51	34031.39
516.68	34059.48
516.85	34050.11
517.03	33717.76
517.20	34508.86
517.37	35000.37
517.54	35225.06
517.72	34679.72
517.89	34991.01
518.06	34665.67
518.24	34906.75
518.41	34621.20
518.58	34998.03
518.75	35290.60
518.93	35342.09
519.10	35346.77
519.27	35690.83
519.45	35466.14
519.62	35913.18
519.79	35461.46
519.96	36102.76
520.14	35995.10
520.31	36002.12
520.48	36102.76
520.65	36142.55
520.83	36212.77
521.00	36549.81
521.17	36526.40
521.34	36432.78
521.52	36659.81
521.69	36720.66
521.86	37184.09
522.03	37088.13
522.20	36856.42
522.38	37053.02
522.55	37134.94
522.72	37111.53
522.89	37214.52
523.07	36903.23
523.24	36935.99
523.41	37961.15
523.58	37305.80
523.75	37628.79
523.92	37570.28
524.10	37801.99
524.27	37773.91
524.44	38148.39
524.61	37848.80
524.78	38246.69
524.96	38389.47
525.13	38307.55
525.30	38270.10
525.47	38010.30
525.64	37919.02
525.81	38443.30
525.98	38363.72
526.16	37785.61
526.33	37975.19
526.50	38438.62
526.67	38349.68
526.84	38579.05
527.01	38476.07
527.18	38143.71
527.36	38794.38
527.53	38778.00
527.70	38855.23
527.87	39072.90
528.04	38955.88
528.21	39316.32
528.38	38913.75
528.55	39557.39
528.72	39779.74
528.89	39964.65
529.07	39342.06
529.24	39491.86
529.41	39213.34
529.58	39138.44
529.75	39208.65
529.92	39646.33
530.09	39936.56
530.26	39601.86
530.43	39674.42
530.60	39660.38
530.77	39697.83
530.94	40334.45
531.11	39681.44
531.28	39941.24
531.46	40275.94
531.63	40657.45
531.80	39966.99
531.97	40039.54
532.14	40006.78
532.31	39924.86
532.48	40140.19
532.65	40612.98
532.82	40652.76
532.99	40715.96
533.16	40540.42
533.33	40509.99
533.50	40924.27
533.67	40935.97
533.84	40383.60
534.01	40938.31
534.18	40783.83
534.35	41067.04
534.52	40362.54
534.69	40732.34
534.86	41097.47
535.03	40825.96
535.20	41216.83
535.37	41794.95
535.54	41724.73
535.71	41202.79
535.88	41078.74
536.05	41179.39
536.22	41518.76
536.38	41467.27
536.55	41099.81
536.72	41446.21
536.89	41387.69
537.06	41165.34
537.23	42192.84
537.40	41432.16
537.57	41773.88
537.74	41432.16
537.91	42075.81
538.08	42031.34
538.25	41715.37
538.42	41553.87
538.59	42134.32
538.75	41457.91
538.92	41984.53
539.09	42298.16
539.26	42043.04
539.43	41855.80
539.60	41982.19
539.77	41893.25
539.94	42143.69
540.11	41799.63
540.28	41937.72
540.44	42260.71
540.61	42204.54
540.78	41977.51
540.95	42492.43
541.12	42410.51
541.29	42850.53
541.46	42487.74
541.62	42564.98
541.79	42569.66
541.96	42328.59
542.13	42307.52
542.30	42953.51
542.47	43037.77
542.63	42462.00
542.80	43026.07
542.97	43255.44
543.14	43194.59
543.31	43650.99
543.48	43318.64
543.64	44055.90
543.81	43732.91
543.98	43264.80
544.15	43828.87
544.32	43861.64
544.48	44105.06
544.65	43634.61
544.82	43709.50
544.99	43491.83
545.16	43821.85
545.32	43482.47
545.49	43924.83
545.66	43894.41
545.83	43908.45
546.00	44081.65
546.16	44392.94
546.33	43819.51
546.50	43704.82
546.67	44233.78
546.83	43328.00
547.00	43973.98
547.17	43599.50
547.34	43718.87
547.50	44416.35
547.67	44435.07
547.84	44465.50
548.00	44179.95
548.17	44154.21
548.34	44545.08
548.51	44638.70
548.67	44882.11
548.84	44652.74
549.01	44329.75
549.18	44491.24
549.34	44729.98
549.51	44442.09
549.68	44425.71
549.84	44685.51
550.01	44762.75
550.18	43908.45
550.34	44636.36
550.51	44762.75
550.68	44493.58
550.84	44477.20
551.01	45024.89
551.18	44727.64
551.34	44781.47
551.51	45001.48
551.68	44886.79
551.84	44989.78
552.01	44643.38
552.18	44802.53
552.34	44598.91
552.51	45137.23
552.68	45113.83
552.84	45167.66
553.01	45469.59
553.18	45015.52
553.34	45151.27
553.51	45237.87
553.67	45134.89
553.84	45284.68
554.01	45118.51
554.17	45593.64
554.34	45317.45
554.51	45516.40
554.67	45762.15
554.84	45137.23
555.00	45071.70
555.17	45298.73
555.33	45839.39
555.50	45687.26
555.67	45588.95
555.83	45439.16
556.00	45221.49
556.16	46183.45
556.33	45600.66
556.50	45614.70
556.66	45446.18
556.83	45284.68
556.99	45853.44
557.16	46171.75
557.32	45610.02
557.49	45668.53
557.65	45212.13
557.82	45638.11
557.98	45645.13
558.15	46024.29
558.32	45687.26
558.48	45694.28
558.65	45488.31
558.81	45902.59
558.98	45542.14
559.14	45975.14
559.31	45989.19
559.47	46033.66
559.64	46321.54
559.80	46227.92
559.97	46000.89
560.13	46075.79
560.30	45904.93
560.46	46295.80
560.63	46316.86
560.79	46382.40
560.96	46328.56
561.12	46307.50
561.29	46532.19
561.45	46564.96
561.61	46185.79
561.78	46190.47
561.94	46216.22
562.11	46155.36
562.27	46464.32
562.44	46387.08
562.60	46782.63
562.77	46330.90
562.93	46564.96
563.10	46719.43
563.26	46321.54
563.42	46571.98
563.59	46447.93
563.75	46326.22
563.92	46454.95
564.08	46300.48
564.24	46752.20
564.41	46621.13
564.57	46789.65
564.74	46487.72
564.90	46712.41
565.07	46513.47
565.23	46656.24
565.39	46279.41
565.56	46986.25
565.72	46225.58
565.88	46176.43
566.05	46396.44
566.21	46497.08
566.38	46342.61
566.54	46469.00
566.70	46698.37
566.87	47079.88
567.03	46646.88
567.19	47309.25
567.36	46490.06
567.52	46579.00
567.68	46562.62
567.85	46316.86
568.01	46770.93
568.17	46192.81
568.34	46541.55
568.50	46281.75
568.66	46665.60
568.83	47007.32
568.99	46464.32
569.15	46555.60
569.32	46373.03
569.48	46476.02
569.64	46794.33
569.81	46902.00
569.97	46724.11
570.13	46614.11
570.30	46588.36
570.46	46244.30
570.62	46195.15
570.78	46632.83
570.95	46312.18
571.11	46745.18
571.27	46539.21
571.43	46763.90
571.60	46899.65
571.76	46693.69
571.92	46569.64
572.09	47091.58
572.25	46836.46
572.41	46796.67
572.57	46473.68
572.74	47533.94
572.90	47119.66
573.06	46586.02
573.22	47257.76
573.38	46906.68
573.55	46609.43
573.71	47388.83
573.87	46918.38
574.03	46876.25
574.20	46993.28
574.36	46836.46
574.52	47253.08
574.68	46761.56
574.84	46784.97
575.01	47070.51
575.17	46871.57
575.33	46848.16
575.49	46894.97
575.65	47468.40
575.82	47084.56
575.98	46803.69
576.14	47152.43
576.30	47215.63
576.46	46799.01
576.62	46646.88
576.79	46677.30
576.95	46436.23
577.11	46813.05
577.27	46806.03
577.43	46911.36
577.59	46948.81
577.75	46887.95
577.92	46735.82
578.08	46471.34
578.24	46265.37
578.40	46450.27
578.56	46756.88
578.72	46710.07
578.88	47035.41
579.04	46944.12
579.21	47182.86
579.37	46845.82
579.53	46782.63
579.69	47194.56
579.85	46766.24
580.01	46871.57
580.17	46904.34
580.33	47356.06
580.49	46988.60
580.65	47187.54
580.82	46799.01
580.98	46869.23
581.14	47180.52
581.30	46897.31
581.46	47138.39
581.62	47112.64
581.78	46770.93
581.94	47384.15
582.10	47239.03
582.26	47374.78
582.42	46946.47
582.58	47323.29
582.74	46906.68
582.90	47126.69
583.06	46880.93
583.22	47110.30
583.38	47129.03
583.54	47150.09
583.70	46937.10
583.86	47274.14
584.02	47117.32
584.18	47203.92
584.34	47136.05
584.50	47454.36
584.66	46836.46
584.82	46918.38
584.98	47702.46
585.14	47201.58
585.30	46529.85
585.46	46878.59
585.62	46789.65
585.78	47000.30
585.94	46738.16
586.10	46932.42
586.26	46967.53
586.42	46864.55
586.58	47089.24
586.74	47299.89
586.90	46560.28
587.06	46906.68
587.22	46911.36
587.38	46920.72
587.54	47281.16
587.70	47452.02
587.86	47358.40
588.02	47480.11
588.18	47161.79
588.34	47133.71
588.49	46586.02
588.65	46614.11
588.81	46593.04
588.97	46813.05
589.13	46267.71
589.29	46349.63
589.45	46939.44
589.61	46700.71
589.77	47215.63
589.93	47180.52
590.08	47505.85
590.24	47306.91
590.40	47047.11
590.56	47232.01
590.72	47227.33
590.88	46848.16
591.04	47164.14
591.20	47175.84
591.35	47524.58
591.51	47704.80
591.67	47232.01
591.83	46948.81
591.99	47175.84
592.15	46710.07
592.31	47283.50
592.46	47367.76
592.62	46913.70
592.78	46969.87
592.94	47538.62
593.10	46501.76
593.26	47021.36
593.41	47206.26
593.57	46754.54
593.73	47496.49
593.89	47342.02
594.05	47086.90
594.20	46913.70
594.36	47356.06
594.52	47189.88
594.68	47386.49
594.84	47416.91
594.99	47232.01
595.15	47487.13
595.31	47030.72
595.47	46768.58
595.62	47070.51
595.78	47524.58
595.94	47236.69
596.10	47533.94
596.25	47746.93
596.41	47320.95
596.57	46876.25
596.73	47735.23
596.88	47454.36
597.04	47285.84
597.20	47222.65
597.36	47122.01
597.51	47377.12
597.67	47325.63
597.83	47543.30
597.99	47416.91
598.14	47480.11
598.30	46986.25
598.46	47157.11
598.61	46909.02
598.77	47662.67
598.93	47281.16
599.09	47377.12
599.24	47587.77
599.40	47175.84
599.56	47519.90
599.71	47295.21
599.87	47526.92
600.03	47374.78
600.18	47456.70
600.34	47239.03
600.50	47374.78
600.65	47110.30
600.81	47590.11
600.97	47580.75
601.12	47571.39
601.28	47124.35
601.44	47367.76
601.59	47103.28
601.75	47047.11
601.91	47147.75
602.06	47100.94
602.22	47227.33
602.37	47447.34
602.53	47182.86
602.69	47147.75
602.84	46909.02
603.00	47203.92
603.16	46878.59
603.31	47398.19
603.47	46780.29
603.62	47316.27
603.78	47494.15
603.94	47196.90
604.09	47138.39
604.25	47349.04
604.40	47187.54
604.56	47110.30
604.71	47367.76
604.87	47026.04
605.03	47000.30
605.18	46897.31
605.34	47033.07
605.49	46773.27
605.65	47131.37
605.80	46677.30
605.96	46997.96
606.12	46918.38
606.27	47236.69
606.43	47133.71
606.58	47091.58
606.74	46904.34
606.89	47019.02
607.05	46969.87
607.20	47260.10
607.36	47224.99
607.51	47388.83
607.67	46923.06
607.82	47316.27
607.98	46923.06
608.13	47093.92
608.29	47210.95
608.44	46944.12
608.60	46677.30
608.75	46660.92
608.91	46490.06
609.06	46464.32
609.22	46829.44
609.37	46394.10
609.53	46665.60
609.68	46906.68
609.84	47058.81
609.99	46377.72
610.15	46263.03
610.30	46773.27
610.46	46546.23
610.61	46520.49
610.76	46174.09
610.92	46363.67
611.07	46789.65
611.23	46691.35
611.38	46611.77
611.54	46602.41
611.69	46202.18
611.84	46576.66
612.00	46124.94
612.15	46579.00
612.31	46766.24
612.46	46314.52
612.62	46408.14
612.77	46230.26
612.92	46646.88
613.08	46452.61
613.23	46536.87
613.39	46026.63
613.54	45921.31
613.69	46153.02
613.85	46302.82
614.00	46260.69
614.15	46499.42
614.31	46157.70
614.46	46579.00
614.62	46181.11
614.77	46045.36
614.92	46162.39
615.08	45804.28
615.23	46071.10
615.38	45757.47
615.54	45521.08
615.69	45755.13
615.84	45333.84
616.00	45907.27
616.15	46021.95
616.30	45694.28
616.46	45270.64
616.61	45244.90
616.76	45584.27
616.92	45361.92
617.07	45560.87
617.22	45221.49
617.37	45762.15
617.53	45780.88
617.68	45453.20
617.83	45879.18
617.99	45963.44
618.14	45663.85
618.29	45797.26
618.45	45556.19
618.60	45249.58
618.75	45064.67
618.90	45560.87
619.06	45387.67
619.21	45029.57
619.36	45305.75
619.51	45146.59
619.67	45614.70
619.82	45488.31
619.97	45928.33
620.12	45167.66
620.28	45230.85
620.43	44701.89
620.58	45193.40
620.73	45282.34
620.89	44935.95
621.04	45399.37
621.19	45048.29
621.34	45029.57
621.49	45125.53
621.65	44935.95
621.80	44706.57
621.95	44399.96
622.10	45294.05
622.25	44664.44
622.41	44910.20
622.56	44582.52
622.71	44715.93
622.86	44753.38
623.01	44971.05
623.16	44781.47
623.32	44921.90
623.47	45088.08
623.62	44685.51
623.77	44570.82
623.92	45148.93
624.07	44093.35
624.23	44107.40
624.38	44409.32
624.53	44687.85
624.68	44348.47
624.83	44648.06
624.98	44540.39
625.13	44451.45
625.29	44994.46
625.44	44308.68
625.59	44154.21
625.74	43962.28
625.89	43650.99
626.04	43353.74
626.19	44109.74
626.34	43999.73
626.49	44236.12
626.65	44055.90
626.80	44205.70
626.95	43920.15
627.10	43536.30
627.25	43590.14
627.40	43522.26
627.55	43658.01
627.70	43093.94
627.85	43798.44
628.00	43791.42
628.15	43875.68
628.30	43583.12
628.45	43650.99
628.60	43751.63
628.76	43395.87
628.91	43655.67
629.06	43957.60
629.21	43555.03
629.36	43442.68
629.51	43262.46
629.66	43171.18
629.81	42852.87
629.96	43215.65
630.11	42965.21
630.26	43449.70
630.41	43557.37
630.56	43285.87
630.71	43269.48
630.86	43131.39
631.01	43412.26
631.16	42873.93
631.31	43096.28
631.46	42710.10
631.61	43250.76
631.76	43056.50
631.91	43393.53
632.06	43164.16
632.21	43498.86
632.36	43220.33
632.51	42682.01
632.66	43496.52
632.81	42513.49
632.96	42703.07
633.10	42864.57
633.25	42319.23
633.40	42831.80
633.55	42979.26
633.70	43016.71
633.85	42733.50
634.00	42993.30
634.15	42314.55
634.30	42754.57
634.45	42707.76
634.60	42443.27
634.75	42726.48
634.90	42628.18
635.05	42756.91
635.19	42459.66
635.34	42813.08
635.49	42635.20
635.64	42239.65
635.79	42321.57
635.94	42131.98
636.09	42359.02
636.24	42351.99
636.39	41825.37
636.53	42246.67
636.68	42101.56
636.83	42195.18
636.98	42281.78
637.13	42227.95
637.28	42218.58
637.43	42272.42
637.57	42410.51
637.72	42316.89
637.87	41855.80
638.02	42202.20
638.17	41876.86
638.32	41996.23
638.46	41048.32
638.61	42017.30
638.76	41619.41
638.91	41949.42
639.06	41734.09
639.20	41696.64
639.35	41853.46
639.50	41553.87
639.65	42415.19
639.80	41701.32
639.94	42113.26
640.09	41448.55
640.24	41537.49
640.39	41261.30
640.54	41626.43
640.68	41488.34
640.83	41425.14
640.98	41698.98
641.13	41076.40
641.27	41301.09
641.42	41287.05
641.57	41563.23
641.72	41497.70
641.86	41134.92
642.01	40683.19
642.16	41111.51
642.31	40905.54
642.45	41081.08
642.60	40664.47
642.75	41193.43
642.90	41317.48
643.04	41233.22
643.19	41134.92
643.34	41163.00
643.48	40800.22
643.63	41303.43
643.78	40802.56
643.93	40964.06
644.07	40409.35
644.22	40376.58
644.37	40222.11
644.51	40465.52
644.66	40811.92
644.81	40825.96
644.95	40739.36
645.10	40615.32
645.25	40889.16
645.39	41076.40
645.54	40821.28
645.69	40685.53
645.83	40299.34
645.98	40765.11
646.13	40580.21
646.27	40837.67
646.42	40133.17
646.57	40229.13
646.71	39952.94
646.86	40109.76
647.00	40346.15
647.15	40294.66
647.30	40341.47
647.44	40156.57
647.59	39882.73
647.74	39793.79
647.88	39814.85
648.03	39704.85
648.17	40215.08
648.32	40044.23
648.47	39824.22
648.61	39810.17
648.76	40474.88
648.90	39988.05
649.05	40388.28
649.20	39765.70
649.34	40231.47
649.49	40133.17
649.63	39676.76
649.78	39957.63
649.92	39512.92
650.07	40027.84
650.21	39573.78
650.36	39800.81
650.51	39899.11
650.65	40299.34
650.80	40289.98
650.94	40006.78
651.09	39817.19
651.23	39655.70
651.38	39665.06
651.52	39337.38
651.67	39349.09
651.81	39718.89
651.96	38937.15
652.10	39115.03
652.25	39281.21
652.39	38969.92
652.54	39187.59
652.68	39522.29
652.83	39625.27
652.97	39615.91
653.12	39459.09
653.26	39166.52
653.41	39112.69
653.55	39178.23
653.70	38778.00
653.84	39246.10
653.99	38965.24
654.13	38864.60
654.27	39117.37
654.42	39136.10
654.56	39014.39
654.71	39058.86
654.85	38932.47
655.00	38689.06
655.14	38675.01
655.29	38333.29
655.43	38550.96
655.57	38789.70
655.72	37869.87
655.86	38113.28
656.01	38061.79
656.15	38333.29
656.30	38277.12
656.44	38628.20
656.58	38265.42
656.73	38309.89
656.87	38164.78
657.01	37993.92
657.16	38132.01
657.30	38122.65
657.45	37731.78
657.59	38185.84
657.73	37993.92
657.88	38309.89
658.02	38263.08
658.16	38190.52
658.31	38529.90
658.45	38480.75
658.60	38192.86
658.74	37947.11
658.88	37895.61
659.03	37982.21
659.17	38265.42
659.31	37825.40
659.46	37273.03
659.60	37766.88
659.74	37546.87
659.89	37801.99
660.03	37851.14
660.17	37881.57
660.32	37612.41
660.46	37577.30
660.60	37998.60
660.74	38108.60
660.89	37544.53
661.03	37378.36
661.17	37207.50
661.32	36680.88
661.46	37378.36
661.60	36823.65
661.74	37163.03
661.89	36769.82
662.03	37181.75
662.17	36889.18
662.31	36837.69
662.46	37074.09
662.60	37043.66
662.74	37041.32
662.88	37053.02
663.03	36531.08
663.17	36715.98
663.31	36318.09
663.45	36851.73
663.60	36690.24
663.74	36547.47
663.88	36392.99
664.02	36315.75
664.17	36524.06
664.31	35791.47
664.45	36123.83
664.59	36187.02
664.73	36229.15
664.88	36196.38
665.02	35875.73
665.16	36119.15
665.30	36002.12
665.44	36353.20
665.59	35091.65
665.73	35866.37
665.87	35337.41
666.01	35754.02
666.15	35365.49
666.29	35672.10
666.44	34946.54
666.58	35276.55
666.72	35611.25
666.86	35686.15
667.00	35821.90
667.14	35353.79
667.28	35346.77
667.43	34419.92
667.57	35234.42
667.71	34672.70
667.85	34930.16
667.99	35021.44
668.13	34550.99
668.27	34426.94
668.41	34799.08
668.56	34431.62
668.70	34190.55
668.84	34754.61
668.98	34237.36
669.12	34464.39
669.26	34307.57
669.40	34242.04
669.54	34391.83
669.68	34370.77
669.82	34225.65
669.96	34108.63
670.10	33855.85
670.25	34457.37
670.39	34181.18
670.53	33673.29
670.67	34148.42
670.81	34125.01
670.95	33834.78
671.09	34117.99
671.23	33778.61
671.37	33809.04
671.51	33603.07
671.65	33586.69
671.79	33251.99
671.93	32823.67
672.07	32898.57
672.21	33326.89
672.35	32945.38
672.49	32746.44
672.63	33141.99
672.77	33022.62
672.91	32758.14
673.05	32762.82
673.19	32655.15
673.33	32699.62
673.47	32294.71
673.61	32224.50
673.75	32287.69
673.89	31922.57
674.03	31960.02
674.17	32180.03
674.31	32077.04
674.45	31714.26
674.59	32418.76
674.73	32154.28
674.87	32037.25
675.01	31831.29
675.15	32044.27
675.29	31948.31
675.43	31763.41
675.56	31709.58
675.70	31421.69
675.84	31260.20
675.98	30328.66
676.12	31459.14
676.26	30911.46
676.40	30944.22
676.54	31044.87
676.68	30799.11
676.82	30260.79
676.96	30635.27
677.10	30288.87
677.23	30602.50
677.37	30497.18
677.51	30485.48
677.65	30462.07
677.79	29895.66
677.93	30368.45
678.07	29905.02
678.21	29420.53
678.34	29933.11
678.48	29715.44
678.62	29369.04
678.76	29177.12
678.90	29596.07
679.04	29546.92
679.18	29483.73
679.31	29275.42
679.45	29275.42
679.59	28706.67
679.73	28973.49
679.87	28893.91
680.00	29046.05
680.14	28627.09
680.28	28481.98
680.42	28575.60
680.56	28189.41
680.70	27997.49
680.83	28041.96
680.97	28144.94
681.11	27850.03
681.25	27779.82
681.39	27580.87
681.52	27630.02
681.66	28147.28
681.80	27758.75
681.94	27714.28
682.07	27318.73
682.21	27351.50
682.35	27494.27
682.49	27271.92
682.62	27473.21
682.76	27236.81
682.90	26944.25
683.04	26909.14
683.17	26993.40
683.31	26436.35
683.45	26883.39
683.59	26920.84
683.72	26206.98
683.86	26122.72
684.00	25872.28
684.13	26375.50
684.27	26476.14
684.41	26281.88
684.55	25926.11
684.68	25678.02
684.82	25610.14
684.96	25607.80
685.09	25785.68
685.23	25324.60
685.37	25652.27
685.50	25294.17
685.64	25216.93
685.78	25095.22
685.91	25010.96
686.05	25338.64
686.19	24807.34
686.32	24847.13
686.46	24606.05
686.60	23981.13
686.73	23969.43
686.87	23882.83
687.01	23929.64
687.14	23805.59
687.28	23592.60
687.42	23882.83
687.55	23751.76
687.69	23323.44
687.82	23812.61
687.96	23613.66
688.10	23374.93
688.23	23255.56
688.37	22843.63
688.50	23087.04
688.64	22963.00
688.78	22977.04
688.91	22780.43
689.05	22759.37
689.18	22827.24
689.32	22319.35
689.46	22473.82
689.59	22640.00
689.73	22593.19
689.86	22759.37
690.00	22555.74
690.13	22408.29
690.27	21881.67
690.41	22363.82
690.54	22111.04
690.68	21820.81
690.81	21731.87
690.95	21713.15
691.08	21479.10
691.22	21696.77
691.35	21715.49
691.49	21659.32
691.62	21568.04
691.76	21689.74
691.89	21242.70
692.03	21467.39
692.16	21029.71
692.30	21151.42
692.43	20783.96
692.57	20805.02
692.70	20882.26
692.84	20697.36
692.97	20365.00
693.11	20580.33
693.24	20056.05
693.38	20365.00
693.51	19960.09
693.65	20311.17
693.78	19917.96
693.92	20205.84
694.05	19747.10
694.19	19501.34
694.32	19857.10
694.45	19882.85
694.59	19754.12
694.72	19609.01
694.86	19449.85
694.99	19351.55
695.13	19035.58
695.26	19119.84
695.39	18864.72
695.53	19108.13
695.66	19159.63
695.80	18913.87
695.93	18452.78
696.07	18546.40
696.20	18871.74
696.33	18841.31
696.47	18628.32
696.60	18455.12
696.73	18412.99
696.87	18431.72
697.00	18396.61
697.14	18380.23
697.27	18043.19
697.40	18092.34
697.54	17956.59
697.67	17834.88
697.80	17820.84
697.94	17692.11
698.07	17467.42
698.21	17507.21
698.34	17483.80
698.47	17352.73
698.61	17401.88
698.74	16854.20
698.87	17315.28
699.01	17268.47
699.14	16798.02
699.27	16910.37
699.40	16549.93
699.54	16627.17
699.67	16554.61
699.80	16739.51
699.94	16791.00
700.07	16477.37
700.20	16446.94
700.34	16290.13
700.47	16161.40
700.60	16437.58
700.73	16517.16
700.87	16465.67
701.00	15852.45
701.13	15976.50
701.26	16290.13
701.40	15454.56
701.53	15440.51
701.66	15913.30
701.79	15559.88
701.93	15456.90
702.06	15559.88
702.19	15257.95
702.32	15328.17
702.46	15190.08
702.59	15178.37
702.72	15286.04
702.85	15084.75
702.99	15133.90
703.12	15117.52
703.25	14995.81
703.38	14808.57
703.51	14635.37
703.65	14747.72
703.78	14682.18
703.91	14862.40
704.04	14815.59
704.17	14548.77
704.31	14272.59
704.44	14340.46
704.57	14099.39
704.70	14181.31
704.83	14097.05
704.96	13930.87
705.10	14104.07
705.23	14361.53
>>>>>End Processed Spectral Data<<<<<
