SpectraSuite Data File
++++++++++++++++++++++++++++++++++++
Date: Fri Oct 25 11:23:19 EDT 2013
User: price-jones
Dark Spectrum Present: No
Reference Spectrum Present: No
Number of Sampled Component Spectra: 1
Spectrometers: USB2+H05261
Integration Time (usec): 100000 (USB2+H05261)
Spectra Averaged: 1 (USB2+H05261)
Boxcar Smoothing: 0 (USB2+H05261)
Correct for Electrical Dark: No (USB2+H05261)
Strobe/Lamp Enabled: No (USB2+H05261)
Correct for Detector Non-linearity: No (USB2+H05261)
Correct for Stray Light: No (USB2+H05261)
Number of Pixels in Processed Spectrum: 2048
>>>>>Begin Processed Spectral Data<<<<<
365.73	196.60
365.92	196.60
366.12	196.60
366.32	140.43
366.52	124.05
366.72	156.82
366.91	56.17
367.11	79.58
367.31	147.45
367.51	152.13
367.70	102.98
367.90	105.32
368.10	105.32
368.30	133.41
368.49	203.63
368.69	140.43
368.89	51.49
369.09	114.69
369.28	128.73
369.48	100.64
369.68	161.50
369.87	156.82
370.07	191.92
370.27	205.97
370.47	320.65
370.66	629.60
370.86	664.71
371.06	688.12
371.25	674.07
371.45	653.01
371.65	819.19
371.84	678.76
372.04	690.46
372.24	772.38
372.44	713.86
372.63	699.82
372.83	786.42
373.03	786.42
373.22	734.93
373.42	688.12
373.62	753.65
373.81	828.55
374.01	856.64
374.21	814.51
374.40	835.57
374.60	828.55
374.79	772.38
374.99	767.70
375.19	844.93
375.38	819.19
375.58	812.17
375.78	847.27
375.97	856.64
376.17	837.91
376.37	837.91
376.56	917.49
376.76	919.83
376.95	866.00
377.15	908.13
377.35	908.13
377.54	896.43
377.74	837.91
377.93	901.11
378.13	898.77
378.33	959.62
378.52	898.77
378.72	922.17
378.91	959.62
379.11	1004.09
379.31	987.71
379.50	954.94
379.70	1008.77
379.89	983.02
380.09	983.02
380.28	1067.28
380.48	1018.13
380.68	1062.60
380.87	1032.18
381.07	943.24
381.26	1027.50
381.46	994.73
381.65	992.39
381.85	1015.79
382.04	1060.26
382.24	1018.13
382.43	1041.54
382.63	1090.69
382.83	1034.52
383.02	1165.59
383.22	1137.50
383.41	1071.97
383.61	1107.07
383.80	1090.69
384.00	1111.75
384.19	1160.91
384.39	1149.20
384.58	1139.84
384.78	1207.72
384.97	1095.37
385.17	1158.57
385.36	1144.52
385.56	1200.69
385.75	1146.86
385.95	1224.10
386.14	1249.85
386.34	1188.99
386.53	1179.63
386.72	1238.14
386.92	1310.70
387.11	1205.38
387.31	1291.98
387.50	1289.64
387.70	1245.16
387.89	1287.29
388.09	1287.29
388.28	1259.21
388.48	1280.27
388.67	1331.76
388.86	1249.85
389.06	1289.64
389.25	1401.98
389.45	1380.92
389.64	1299.00
389.84	1423.05
390.03	1474.54
390.22	1299.00
390.42	1376.24
390.61	1327.08
390.81	1418.36
391.00	1500.28
391.19	1441.77
391.39	1425.39
391.58	1425.39
391.78	1378.58
391.97	1490.92
392.16	1526.03
392.36	1526.03
392.55	1502.62
392.75	1554.12
392.94	1621.99
393.13	1570.50
393.33	1469.86
393.52	1610.29
393.71	1516.67
393.91	1519.01
394.10	1575.18
394.29	1687.53
394.49	1521.35
394.68	1652.42
394.88	1631.35
395.07	1689.87
395.26	1701.57
395.46	1570.50
395.65	1713.27
395.84	1767.10
396.04	1865.41
396.23	1767.10
396.42	1717.95
396.62	1750.72
396.81	1771.79
397.00	1776.47
397.19	1851.36
397.39	1806.89
397.58	1762.42
397.77	1827.96
397.97	1975.41
398.16	1898.17
398.35	1827.96
398.55	1891.15
398.74	1921.58
398.93	2071.37
399.12	1856.04
399.32	1900.52
399.51	1940.30
399.70	2026.90
399.90	2008.18
400.09	1956.69
400.28	2010.52
400.47	1998.82
400.67	2104.14
400.86	2167.34
401.05	2111.16
401.24	2197.76
401.44	2106.48
401.63	2038.61
401.82	2183.72
402.01	2139.25
402.21	2134.57
402.40	2216.49
402.59	2176.70
402.78	2209.47
402.97	2200.10
403.17	2265.64
403.36	2176.70
403.55	2235.21
403.74	2492.67
403.93	2377.98
404.13	2338.20
404.32	2389.69
404.51	2349.90
404.70	2373.30
404.89	2366.28
405.09	2541.82
405.28	2394.37
405.47	2487.99
405.66	2450.54
405.85	2532.46
406.05	2544.16
406.24	2605.02
406.43	2544.16
406.62	2555.86
406.81	2675.23
407.00	2661.19
407.20	2630.76
407.39	2677.57
407.58	2768.85
407.77	2752.47
407.96	2759.49
408.15	2796.94
408.34	2778.22
408.54	2850.77
408.73	2860.13
408.92	2944.39
409.11	2871.84
409.30	2986.52
409.49	2939.71
409.68	2979.50
409.87	2916.31
410.07	3087.17
410.26	3014.61
410.45	3138.66
410.64	2977.16
410.83	3227.60
411.02	3276.75
411.21	3215.90
411.40	3049.72
411.59	3236.96
411.78	3192.49
411.98	3150.36
412.17	3119.93
412.36	3337.60
412.55	3379.73
412.74	3398.46
412.93	3456.97
413.12	3396.12
413.31	3452.29
413.50	3501.44
413.69	3499.10
413.88	3646.55
414.07	3639.53
414.26	3681.66
414.45	3763.58
414.64	3735.50
414.83	3737.84
415.02	3840.82
415.22	3833.80
415.41	3831.46
415.60	3868.91
415.79	3948.48
415.98	4025.72
416.17	4002.32
416.36	3906.35
416.55	4133.39
416.74	4180.20
416.93	3976.57
417.12	4210.62
417.31	4294.88
417.50	4217.65
417.69	4313.61
417.88	4397.87
418.07	4351.06
418.26	4358.08
418.45	4290.20
418.64	4554.68
418.83	4521.92
419.02	4496.17
419.21	4603.83
419.39	4461.06
419.58	4414.25
419.77	4465.74
419.96	4470.42
420.15	4669.37
420.34	4676.39
420.53	4702.14
420.72	4746.61
420.91	4699.80
421.10	4805.12
421.29	4887.04
421.48	4922.15
421.67	4793.42
421.86	4919.81
422.05	4809.80
422.24	4891.72
422.43	4847.25
422.61	5013.43
422.80	5109.39
422.99	5018.11
423.18	4919.81
423.37	5020.45
423.56	5062.58
423.75	4898.74
423.94	4924.49
424.13	4645.96
424.32	4908.10
424.50	5100.03
424.69	5233.44
424.88	5041.51
425.07	4952.57
425.26	5102.37
425.45	5083.64
425.64	5053.22
425.83	5085.98
426.01	5022.79
426.20	5116.41
426.39	5100.03
426.58	4980.66
426.77	5053.22
426.96	5130.45
427.15	5172.58
427.33	5210.03
427.52	5118.75
427.71	5320.04
427.90	5366.85
428.09	5282.59
428.28	5406.64
428.46	5472.17
428.65	5490.90
428.84	5617.29
429.03	5458.13
429.22	5275.57
429.40	5476.85
429.59	5626.65
429.78	5413.66
429.97	5313.02
430.16	5483.88
430.34	5549.41
430.53	5694.52
430.72	5816.23
430.91	5781.12
431.10	5736.65
431.28	5900.49
431.47	5947.30
431.66	5874.74
431.85	5968.37
432.03	5951.98
432.22	5870.06
432.41	6047.94
432.60	6040.92
432.79	5991.77
432.97	5959.00
433.16	5984.75
433.35	5989.43
433.54	6171.99
433.72	6120.50
433.91	6284.34
434.10	6188.38
434.28	6193.06
434.47	6160.29
434.66	6258.59
434.85	6305.40
435.03	6335.83
435.22	6244.55
435.41	6511.37
435.59	6642.44
435.78	6420.09
435.97	6406.05
436.16	6445.84
436.34	6476.26
436.53	6600.31
436.72	6600.31
436.90	6525.41
437.09	6810.96
437.28	6579.25
437.46	6747.76
437.65	6752.45
437.84	6960.75
438.02	6768.83
438.21	6897.56
438.40	6789.89
438.58	6899.90
438.77	7054.37
438.96	6993.52
439.14	7360.98
439.33	7220.55
439.52	7295.45
439.70	7274.38
439.89	7379.71
440.08	7405.46
440.26	7501.42
440.45	7372.69
440.63	7527.16
440.82	7573.97
441.01	7456.95
441.19	7611.42
441.38	7901.65
441.57	7854.84
441.75	8032.72
441.94	8102.93
442.12	8086.55
442.31	8203.58
442.50	8035.06
442.68	7943.78
442.87	8070.17
443.05	8334.65
443.24	8386.14
443.43	8344.01
443.61	8358.05
443.80	8617.85
443.98	8294.86
444.17	8025.70
444.35	8428.27
444.54	8533.59
444.73	8390.82
444.91	8404.86
445.10	8472.74
445.28	8313.58
445.47	8404.86
445.65	8465.72
445.84	8631.90
446.02	8526.57
446.21	8762.97
446.39	8379.12
446.58	8655.30
446.77	8533.59
446.95	8336.99
447.14	8430.61
447.32	8718.50
447.51	8657.64
447.69	8613.17
447.88	8842.54
448.06	8374.44
448.25	8631.90
448.43	8734.88
448.62	8608.49
448.80	8489.12
448.99	8872.97
449.17	8933.82
449.36	8791.05
449.54	8973.61
449.73	9104.68
449.91	9254.48
450.10	8947.87
450.28	9144.47
450.46	8992.34
450.65	8985.32
450.83	9338.74
451.02	9245.12
451.20	9376.19
451.39	9362.14
451.57	9055.53
451.76	9121.07
451.94	9240.44
452.13	9500.23
452.31	9448.74
452.49	9511.94
452.68	9345.76
452.86	9322.35
453.05	9563.43
453.23	9605.56
453.42	9437.04
453.60	9441.72
453.78	9626.62
453.97	9551.73
454.15	9523.64
454.34	9547.05
454.52	9860.68
454.70	9813.87
454.89	9858.34
455.07	9856.00
455.26	9874.72
455.44	9881.74
455.62	10012.81
455.81	9900.47
455.99	10073.67
456.17	10143.88
456.36	10141.54
456.54	10356.87
456.73	10438.79
456.91	10619.01
457.09	10537.09
457.28	10661.14
457.46	10401.34
457.64	10654.12
457.83	10501.98
458.01	10497.30
458.19	10590.92
458.38	10839.02
458.56	10885.83
458.74	10934.98
458.93	10780.51
459.11	11033.29
459.29	10771.15
459.48	11040.31
459.66	11047.33
459.84	11014.56
460.03	10970.09
460.21	11150.31
460.39	11091.80
460.57	11122.23
460.76	11290.74
460.94	11108.18
461.12	11492.03
461.31	11485.01
461.49	11253.30
461.67	11480.33
461.85	11674.59
462.04	11386.71
462.22	11815.02
462.40	11714.38
462.59	11630.12
462.77	11646.51
462.95	11747.15
463.13	11887.58
463.32	11693.32
463.50	11903.96
463.68	11700.34
463.86	12145.04
464.05	11616.08
464.23	12011.63
464.41	11997.59
464.59	11578.63
464.78	12287.81
464.96	11817.36
465.14	12102.91
465.32	12201.21
465.50	12423.56
465.69	12489.10
465.87	12372.07
466.05	12297.17
466.23	12360.37
466.41	12306.54
466.60	12755.92
466.78	12135.68
466.96	12327.60
467.14	12346.33
467.32	12498.46
467.51	12753.58
467.69	12145.04
467.87	12606.13
468.05	12650.60
468.23	12620.17
468.41	12475.06
468.60	12781.67
468.78	12798.05
468.96	12795.71
469.14	12765.28
469.32	13099.98
469.50	12725.49
469.69	13252.11
469.87	13043.81
470.05	13259.13
470.23	13263.82
470.41	13142.11
470.59	13383.18
470.77	13217.01
470.95	13458.08
471.14	13832.57
471.32	13137.43
471.50	13668.73
471.68	13902.78
471.86	13809.16
472.04	13923.85
472.22	14047.90
472.40	13816.18
472.58	14090.02
472.77	14429.40
472.95	14363.87
473.13	14752.40
473.31	13998.74
473.49	14237.48
473.67	14249.18
473.85	14527.71
474.03	14565.15
474.21	14937.30
474.39	15063.69
474.57	14871.76
474.75	14869.42
474.93	14927.94
475.12	15124.54
475.30	15248.59
475.48	15281.36
475.66	15496.69
475.84	15208.80
476.02	15517.75
476.20	15723.72
476.38	15812.66
476.56	16269.06
476.74	16142.67
476.92	16112.25
477.10	15784.57
477.28	16290.13
477.46	16308.85
477.64	16301.83
477.82	16512.48
478.00	17097.61
478.18	16971.22
478.36	16978.25
478.54	17226.34
478.72	17715.51
478.90	17657.00
479.08	17762.33
479.26	18008.08
479.44	18001.06
479.62	17757.64
479.80	18436.40
479.98	18565.13
480.16	18843.65
480.34	18558.11
480.52	18799.18
480.70	18705.56
480.88	18607.26
481.06	18902.17
481.24	19211.12
481.41	19103.45
481.59	19260.27
481.77	19524.75
481.95	19910.94
482.13	20100.52
482.31	19950.73
482.49	20264.36
482.67	20477.35
482.85	20489.05
483.03	20900.98
483.21	20961.84
483.39	21240.36
483.57	21249.72
483.74	21364.41
483.92	21813.79
484.10	21333.98
484.28	22148.49
484.46	22068.91
484.64	22586.17
484.82	22127.42
485.00	22705.54
485.18	22494.89
485.35	22878.74
485.53	23154.92
485.71	23370.25
485.89	23508.34
486.07	23988.15
486.25	23442.81
486.43	23906.23
486.61	24053.69
486.78	24336.89
486.96	24386.04
487.14	24842.45
487.32	24924.36
487.50	25373.75
487.68	25373.75
487.85	25511.84
488.03	25696.74
488.21	26228.04
488.39	25916.75
488.57	26522.95
488.75	26562.74
488.92	26764.03
489.10	26918.50
489.28	27119.79
489.46	27435.76
489.64	27260.22
489.81	27608.96
489.99	28018.55
490.17	28201.11
490.35	28645.82
490.53	28458.57
490.70	28790.93
490.88	28503.04
491.06	29380.74
491.24	29212.23
491.41	28968.81
491.59	29378.40
491.77	29511.81
491.95	29886.30
492.13	30422.28
492.30	30572.08
492.48	30497.18
492.66	30703.15
492.84	30525.27
493.01	30951.24
493.19	30960.61
493.37	31456.80
493.54	31667.45
493.72	32442.17
493.90	31503.61
494.08	32364.93
494.25	32222.16
494.43	32184.71
494.61	32437.48
494.79	32664.52
494.96	32910.27
495.14	32996.87
495.32	33743.50
495.49	33289.44
495.67	33479.02
495.85	33844.15
496.02	34043.09
496.20	34504.18
496.38	34368.43
496.55	34445.66
496.73	35115.06
496.91	34803.77
497.09	34895.05
497.26	35379.54
497.44	35129.10
497.62	35648.70
497.79	35976.37
497.97	36091.06
498.14	36341.50
498.32	36797.90
498.50	36357.88
498.67	36732.37
498.85	37036.64
499.03	36842.37
499.20	36943.02
499.38	37015.57
499.56	37500.06
499.73	37502.40
499.91	37937.74
500.08	37867.53
500.26	38213.93
500.44	38197.54
500.61	38405.85
500.79	38014.98
500.97	38284.14
501.14	39030.77
501.32	38969.92
501.49	39049.50
501.67	39133.76
501.84	39990.39
502.02	39283.55
502.20	39541.01
502.37	39634.63
502.55	39620.59
502.72	39941.24
502.90	39672.08
503.07	40102.74
503.25	40053.59
503.43	39875.71
503.60	40526.38
503.78	40444.46
503.95	40554.46
504.13	41167.68
504.30	41345.56
504.48	40809.58
504.65	41291.73
504.83	41158.32
505.01	41581.96
505.18	41455.57
505.36	41918.99
505.53	41511.74
505.71	42108.58
505.88	41911.97
506.06	41734.09
506.23	42513.49
506.41	42490.09
506.58	42691.37
506.76	42485.40
506.93	43126.71
507.11	42506.47
507.28	43187.56
507.46	43065.86
507.63	43236.72
507.81	43952.92
507.98	43618.22
508.16	43620.56
508.33	43955.26
508.50	43672.06
508.68	44453.79
508.85	44177.61
509.03	44648.06
509.20	44163.57
509.38	44411.67
509.55	44697.21
509.73	44900.84
509.90	44924.24
510.08	45090.42
510.25	45170.00
510.42	45453.20
510.60	45385.33
510.77	45530.44
510.95	45813.65
511.12	45635.77
511.30	45584.27
511.47	45797.26
511.64	46012.59
511.82	46356.65
511.99	45825.35
512.17	46452.61
512.34	46256.01
512.51	46550.91
512.69	47002.64
512.86	46880.93
513.04	46887.95
513.21	46588.36
513.38	47316.27
513.56	47627.56
513.73	47061.15
513.90	47538.62
514.08	47400.53
514.25	48055.88
514.43	47746.93
514.60	47555.00
514.77	47866.30
514.95	48083.97
515.12	48254.82
515.29	48259.51
515.47	48446.75
515.64	48336.74
515.81	48198.65
515.99	48596.54
516.16	49020.18
516.33	48652.72
516.51	49249.55
516.68	48842.30
516.85	49137.21
517.03	49254.23
517.20	49380.62
517.37	49099.76
517.54	49191.04
517.72	49205.08
517.89	49558.50
518.06	49631.06
518.24	49380.62
518.41	49481.27
518.58	49890.86
518.75	49485.95
518.93	50162.36
519.10	49909.58
519.27	50099.17
519.45	50314.50
519.62	50082.78
519.79	50265.34
519.96	50391.73
520.14	50490.04
520.31	50513.44
520.48	50735.79
520.65	50581.32
520.83	50990.91
521.00	51402.85
521.17	50948.78
521.34	51068.15
521.52	51044.74
521.69	50932.40
521.86	51585.41
522.03	51475.40
522.20	51873.29
522.38	51681.37
522.55	51744.56
522.72	51847.55
522.89	51821.80
523.07	51987.98
523.24	51721.16
523.41	52231.40
523.58	51866.27
523.75	51927.13
523.92	52299.27
524.10	52420.98
524.27	52395.23
524.44	52317.99
524.61	52378.85
524.78	52680.78
524.96	52786.10
525.13	52582.48
525.30	52802.49
525.47	52673.76
525.64	53027.18
525.81	53092.71
525.98	53160.59
526.16	53076.33
526.33	52942.92
526.50	53382.94
526.67	53375.92
526.84	53350.17
527.01	53275.27
527.18	53322.08
527.36	53425.07
527.53	53551.46
527.70	53619.33
527.87	53502.31
528.04	53396.98
528.21	53668.48
528.38	53471.88
528.55	54216.17
528.72	53656.78
528.89	53787.85
529.07	53586.57
529.24	53741.04
529.41	53846.36
529.58	54138.93
529.75	53918.92
529.92	53998.50
530.09	54129.57
530.26	54033.61
530.43	54309.79
530.60	53918.92
530.77	54134.25
530.94	54532.14
531.11	54452.56
531.28	54354.26
531.46	54595.34
531.63	54679.60
531.80	54616.40
531.97	54749.81
532.14	54649.17
532.31	55018.97
532.48	54546.18
532.65	55114.94
532.82	54766.20
532.99	54946.42
533.16	54625.76
533.33	54995.57
533.50	55182.81
533.67	54934.71
533.84	55150.04
534.01	55213.24
534.18	55421.55
534.35	55473.04
534.52	55398.14
534.69	55353.67
534.86	55545.59
535.03	55461.33
535.20	55494.10
535.37	55578.36
535.54	55643.90
535.71	55414.52
535.88	55669.64
536.05	55962.21
536.22	55828.80
536.38	55945.83
536.55	55798.37
536.72	55863.91
536.89	56083.92
537.06	56011.36
537.23	56158.81
537.40	55917.74
537.57	55987.95
537.74	56102.64
537.91	56294.56
538.08	56282.86
538.25	56339.04
538.42	56119.02
538.59	56488.83
538.75	56172.86
538.92	56495.85
539.09	56214.99
539.26	56481.81
539.43	56566.07
539.60	56383.51
539.77	56346.06
539.94	56811.82
540.11	56537.98
540.28	56697.14
540.44	56685.43
540.61	56802.46
540.78	56636.28
540.95	56844.59
541.12	56821.19
541.29	56699.48
541.46	56797.78
541.62	56877.36
541.79	56947.57
541.96	56584.79
542.13	56743.95
542.30	56987.36
542.47	57127.80
542.63	57179.29
542.80	57326.74
542.97	57275.25
543.14	57322.06
543.31	57485.90
543.48	57677.82
543.64	57785.49
543.81	57745.70
543.98	57537.39
544.15	57621.65
544.32	57797.19
544.48	57872.09
544.65	57675.48
544.82	57853.36
544.99	57453.13
545.16	57902.51
545.32	57748.04
545.49	57829.96
545.66	58028.90
545.83	57984.43
546.00	57876.77
546.16	57874.43
546.33	57886.13
546.50	57560.79
546.67	57918.90
546.83	57673.14
547.00	58152.95
547.17	58007.84
547.34	58237.21
547.50	58284.02
547.67	58232.53
547.84	58232.53
548.00	58305.09
548.17	58499.35
548.34	58321.47
548.51	58445.52
548.67	58342.53
548.84	58195.08
549.01	58387.00
549.18	58377.64
549.34	58576.59
549.51	58677.23
549.68	58658.51
549.84	58808.30
550.01	58710.00
550.18	58459.56
550.34	58890.22
550.51	58712.34
550.68	58988.52
550.84	58567.23
551.01	58820.00
551.18	58740.42
551.34	58644.46
551.51	58859.79
551.68	58773.19
551.84	58986.18
552.01	58855.11
552.18	58831.71
552.34	58862.13
552.51	58906.60
552.68	58663.19
552.84	58831.71
553.01	59178.10
553.18	59063.42
553.34	59086.82
553.51	58962.78
553.67	59119.59
553.84	59281.09
554.01	59107.89
554.17	59243.64
554.34	59309.18
554.51	59309.18
554.67	59405.14
554.84	59365.35
555.00	59318.54
555.17	59194.49
555.33	59194.49
555.50	59157.04
555.67	59079.80
555.83	59465.99
556.00	59491.74
556.16	59810.05
556.33	59524.50
556.50	59608.76
556.66	59538.55
556.83	59384.07
556.99	59781.96
557.16	59686.00
557.32	59704.73
557.49	59842.82
557.65	59540.89
557.82	59690.68
557.98	59503.44
558.15	59613.44
558.32	59592.38
558.48	59550.25
558.65	59686.00
558.81	59707.07
558.98	60027.72
559.14	59835.80
559.31	59924.74
559.47	59922.40
559.64	60119.00
559.80	60046.44
559.97	60023.04
560.13	59966.87
560.30	60093.25
560.46	59920.05
560.63	59920.05
560.79	59999.63
560.96	60193.90
561.12	60065.17
561.29	60264.11
561.45	60058.15
561.61	60083.89
561.78	60308.58
561.94	59903.67
562.11	59980.91
562.27	60016.02
562.44	60069.85
562.60	60285.18
562.77	60243.05
562.93	59959.84
563.10	60205.60
563.26	60142.41
563.42	60395.18
563.59	60306.24
563.75	60282.84
563.92	60233.69
564.08	60186.88
564.24	60406.89
564.41	60355.39
564.57	60360.08
564.74	60374.12
564.90	60420.93
565.07	60479.44
565.23	60278.16
565.39	60666.69
565.56	60425.61
565.72	60477.10
565.88	60533.28
566.05	60161.13
566.21	60605.83
566.38	60603.49
566.54	60458.38
566.70	60711.16
566.87	60441.99
567.03	60399.86
567.19	60554.34
567.36	60694.77
567.52	60446.68
567.68	60601.15
567.85	60587.11
568.01	60547.32
568.17	60500.51
568.34	60657.32
568.50	60580.09
568.66	60577.75
568.83	60615.19
568.99	60509.87
569.15	60654.98
569.32	60676.05
569.48	60643.28
569.64	60544.98
569.81	60638.60
569.97	60673.71
570.13	60786.05
570.30	60493.49
570.46	60898.40
570.62	60893.72
570.78	60837.54
570.95	60671.37
571.11	60898.40
571.27	60720.52
571.43	60851.59
571.60	60804.78
571.76	60750.94
571.92	60877.33
572.09	60945.21
572.25	60832.86
572.41	60907.76
572.57	60746.26
572.74	60977.98
572.90	60956.91
573.06	60926.49
573.22	60849.25
573.38	60912.44
573.55	60912.44
573.71	60928.83
573.87	60786.05
574.03	60748.60
574.20	60884.36
574.36	60994.36
574.52	60952.23
574.68	60926.49
574.84	61003.72
575.01	60891.38
575.17	60851.59
575.33	61066.92
575.49	60970.96
575.65	60963.93
575.82	61083.30
575.98	61043.51
576.14	61076.28
576.30	61048.19
576.46	60832.86
576.62	61048.19
576.79	60954.57
576.95	60968.61
577.11	61055.21
577.27	61013.08
577.43	61045.85
577.59	60994.36
577.75	61036.49
577.92	60776.69
578.08	60975.64
578.24	61031.81
578.40	61190.97
578.56	61188.63
578.72	61165.22
578.88	61174.58
579.04	61148.84
579.21	61298.63
579.37	61193.31
579.53	61375.87
579.69	61043.51
579.85	61169.90
580.01	61209.69
580.17	61027.13
580.33	61226.07
580.49	61141.81
580.65	61059.90
580.82	61125.43
580.98	61008.40
581.14	61099.68
581.30	61268.20
581.46	61092.66
581.62	61282.25
581.78	61130.11
581.94	61132.45
582.10	61207.35
582.26	61132.45
582.42	61228.41
582.58	61382.89
582.74	61329.06
582.90	61130.11
583.06	61066.92
583.22	61242.46
583.38	61216.71
583.54	61235.44
583.70	61340.76
583.86	61382.89
584.02	61148.84
584.18	61155.86
584.34	61284.59
584.50	61090.32
584.66	61181.60
584.82	61151.18
584.98	61457.79
585.14	61375.87
585.30	61118.41
585.46	61300.97
585.62	61221.39
585.78	61474.17
585.94	61146.50
586.10	61317.35
586.26	61148.84
586.42	61418.00
586.58	61289.27
586.74	61307.99
586.90	61190.97
587.06	61315.01
587.22	61560.77
587.38	61284.59
587.54	61261.18
587.70	61373.53
587.86	61237.78
588.02	61336.08
588.18	61457.79
588.34	61209.69
588.49	61497.58
588.65	61120.75
588.81	61186.28
588.97	61546.73
589.13	61460.13
589.29	61581.84
589.45	61757.38
589.61	61413.32
589.77	61687.16
589.93	61670.78
590.08	61453.11
590.24	61600.56
590.40	61661.41
590.56	61694.18
590.72	61705.88
590.88	61469.49
591.04	61485.87
591.20	61792.48
591.35	61710.56
591.51	61673.12
591.67	61588.86
591.83	61661.41
591.99	61745.67
592.15	61584.18
592.31	61766.74
592.46	61556.09
592.62	61619.28
592.78	61668.44
592.94	61607.58
593.10	61748.01
593.26	61680.14
593.41	61551.41
593.57	61652.05
593.73	61616.94
593.89	61965.68
594.05	61806.53
594.20	61832.27
594.36	61822.91
594.52	61867.38
594.68	61661.41
594.84	61698.86
594.99	61858.02
595.15	61633.33
595.31	61820.57
595.47	61546.73
595.62	61586.52
595.78	61769.08
595.94	61874.40
596.10	62000.79
596.25	61736.31
596.41	61965.68
596.57	61738.65
596.73	61633.33
596.88	61736.31
597.04	61787.80
597.20	62052.28
597.36	61623.96
597.51	61923.55
597.67	61780.78
597.83	61705.88
597.99	62019.52
598.14	61790.14
598.30	61783.12
598.46	61914.19
598.61	61975.05
598.77	61504.60
598.93	61928.23
599.09	62028.88
599.24	62143.56
599.40	61998.45
599.56	61989.09
599.71	61993.77
599.87	62045.26
600.03	62131.86
600.18	61904.83
600.34	61872.06
600.50	61937.60
600.65	62138.88
600.81	62082.71
600.97	61918.87
601.12	61930.58
601.28	61902.49
601.44	61932.92
601.59	62115.48
601.75	61829.93
601.91	62260.59
602.06	62094.41
602.22	62099.09
602.37	61904.83
602.53	61961.00
602.69	62054.62
602.84	61797.16
603.00	62000.79
603.16	62042.92
603.31	62012.49
603.47	62035.90
603.62	61914.19
603.78	61897.81
603.94	62042.92
604.09	61932.92
604.25	62120.16
604.40	61895.47
604.56	62085.05
604.71	62197.40
604.87	61939.94
605.03	61904.83
605.18	62059.30
605.34	62166.97
605.49	61846.32
605.65	62040.58
605.80	61925.89
605.96	62096.75
606.12	62106.12
606.27	62220.80
606.43	61846.32
606.58	62026.54
606.74	61815.89
606.89	62096.75
607.05	61740.99
607.20	62000.79
607.36	62056.96
607.51	61965.68
607.67	61762.06
607.82	61794.82
607.98	61797.16
608.13	61876.74
608.29	61757.38
608.44	61829.93
608.60	61921.21
608.75	61860.36
608.91	61928.23
609.06	61698.86
609.22	62080.37
609.37	61897.81
609.53	62031.22
609.68	61684.82
609.84	61951.64
609.99	61883.76
610.15	61888.45
610.30	61876.74
610.46	62007.81
610.61	61858.02
610.76	61687.16
610.92	61792.48
611.07	61638.01
611.23	61928.23
611.38	61984.41
611.54	61785.46
611.69	61602.90
611.84	61846.32
612.00	61755.03
612.15	61764.40
612.31	61827.59
612.46	61740.99
612.62	61647.37
612.77	61792.48
612.92	61769.08
613.08	61694.18
613.23	61890.79
613.39	61588.86
613.54	61429.70
613.69	61745.67
613.85	61661.41
614.00	61729.29
614.15	61661.41
614.31	61513.96
614.46	61764.40
614.62	61530.34
614.77	61544.39
614.92	61731.63
615.08	61520.98
615.23	61343.10
615.38	61696.52
615.54	61460.13
615.69	61659.07
615.84	61375.87
616.00	61661.41
616.15	61570.13
616.30	61560.77
616.46	61401.61
616.61	61455.45
616.76	61560.77
616.92	61401.61
617.07	61647.37
617.22	61530.34
617.37	61462.47
617.53	61680.14
617.68	61549.07
617.83	61453.11
617.99	61439.06
618.14	61448.42
618.29	61492.89
618.45	61488.21
618.60	61315.01
618.75	61237.78
618.90	61256.50
619.06	61392.25
619.21	61490.55
619.36	61368.85
619.51	61326.72
619.67	61080.96
619.82	61139.47
619.97	61408.64
620.12	61132.45
620.28	61092.66
620.43	61226.07
620.58	61247.14
620.73	61289.27
620.89	61460.13
621.04	61235.44
621.19	61146.50
621.34	61200.33
621.49	61293.95
621.65	61364.17
621.80	61258.84
621.95	61017.77
622.10	61183.94
622.25	61137.13
622.41	61083.30
622.56	61106.71
622.71	61169.90
622.86	61027.13
623.01	61003.72
623.16	61130.11
623.32	60975.64
623.47	61153.52
623.62	61188.63
623.77	60992.02
623.92	61006.06
624.07	61118.41
624.23	61080.96
624.38	61024.79
624.53	60877.33
624.68	60748.60
624.83	61179.26
624.98	61092.66
625.13	60760.31
625.29	61109.05
625.44	60938.19
625.59	60924.14
625.74	60650.30
625.89	60638.60
626.04	60573.06
626.19	60713.50
626.34	60697.11
626.49	60584.77
626.65	60310.92
626.80	60643.28
626.95	60694.77
627.10	60481.78
627.25	60615.19
627.40	60486.46
627.55	60430.29
627.70	60587.11
627.85	60477.10
628.00	60559.02
628.15	60479.44
628.30	60427.95
628.45	60662.00
628.60	60315.61
628.76	60521.57
628.91	60563.70
629.06	60458.38
629.21	60521.57
629.36	60367.10
629.51	60472.42
629.66	60427.95
629.81	60292.20
629.96	60261.77
630.11	60221.98
630.26	60313.26
630.41	60348.37
630.56	60329.65
630.71	60245.39
630.86	60322.63
631.01	60182.19
631.16	60282.84
631.31	60011.34
631.46	59950.48
631.61	60224.32
631.76	60219.64
631.91	60505.19
632.06	60299.22
632.21	60144.75
632.36	60109.64
632.51	59962.18
632.66	60126.02
632.81	59980.91
632.96	60226.66
633.10	60233.69
633.25	60088.57
633.40	60088.57
633.55	60095.60
633.70	60149.43
633.85	59913.03
634.00	59943.46
634.15	59873.24
634.30	59973.89
634.45	59987.93
634.60	60193.90
634.75	60289.86
634.90	59704.73
635.05	59765.58
635.19	59891.97
635.34	60032.40
635.49	59793.67
635.64	59929.42
635.79	59847.50
635.94	59791.33
636.09	59826.43
636.24	59824.09
636.39	59868.56
636.53	59695.36
636.68	59688.34
636.83	59753.88
636.98	59992.61
637.13	59686.00
637.28	59580.68
637.43	59641.53
637.57	59606.42
637.72	59646.21
637.87	59573.66
638.02	59526.84
638.17	59611.10
638.32	59618.13
638.46	59613.44
638.61	59648.55
638.76	59449.61
638.91	59613.44
639.06	59360.67
639.20	59407.48
639.35	59365.35
639.50	59428.54
639.65	59611.10
639.80	59423.86
639.94	59253.00
640.09	59447.27
640.24	59274.07
640.39	59353.65
640.54	59260.02
640.68	59288.11
640.83	59430.88
640.98	59398.12
641.13	59131.29
641.27	59674.30
641.42	59194.49
641.57	59255.34
641.72	59194.49
641.86	59070.44
642.01	59056.40
642.16	59245.98
642.31	58918.31
642.45	59264.70
642.60	59077.46
642.75	59302.15
642.90	59306.83
643.04	59131.29
643.19	59128.95
643.34	58920.65
643.48	59194.49
643.63	59238.96
643.78	58997.88
643.93	59004.91
644.07	58904.26
644.22	59103.21
644.37	58679.57
644.51	58766.17
644.66	59068.10
644.81	58754.47
644.95	58894.90
645.10	59000.22
645.25	58752.13
645.39	58894.90
645.54	58787.24
645.69	58637.44
645.83	58852.77
645.98	58761.49
646.13	58784.90
646.27	58834.05
646.42	58534.46
646.57	58803.62
646.71	58695.95
646.86	58974.48
647.00	58747.45
647.15	58752.13
647.30	58670.21
647.44	58616.38
647.59	58866.81
647.74	58812.98
647.88	58714.68
648.03	58899.58
648.17	58796.60
648.32	58628.08
648.47	58953.41
648.61	58539.14
648.76	58691.27
648.90	58660.85
649.05	58424.45
649.20	58595.31
649.34	58457.22
649.49	58534.46
649.63	58695.95
649.78	58653.82
649.92	58445.52
650.07	58419.77
650.21	58166.99
650.36	58468.92
650.51	58220.83
650.65	58621.06
650.80	58326.15
650.94	58382.32
651.09	58164.65
651.23	58148.27
651.38	58452.54
651.52	58136.57
651.67	58192.74
651.81	58101.46
651.96	58071.03
652.10	58124.86
652.25	58129.54
652.39	58005.50
652.54	57925.92
652.68	57918.90
652.83	58024.22
652.97	58174.02
653.12	58059.33
653.26	58089.76
653.41	58171.67
653.55	58040.60
653.70	58078.05
653.84	57893.15
653.99	57876.77
654.13	57799.53
654.27	57654.42
654.42	57724.63
654.56	57841.66
654.71	57790.17
654.85	57783.15
655.00	58017.20
655.14	57970.39
655.29	57598.24
655.43	57869.75
655.57	57804.21
655.72	58047.63
655.86	57815.91
656.01	57876.77
656.15	57600.58
656.30	57846.34
656.44	57818.25
656.58	57563.14
656.73	57656.76
656.87	57666.12
657.01	57628.67
657.16	57825.28
657.30	57509.30
657.45	57666.12
657.59	57563.14
657.73	57469.51
657.88	57518.67
658.02	57371.21
658.16	57436.75
658.31	57350.15
658.45	57375.89
658.60	57324.40
658.74	57574.84
658.88	57411.00
659.03	57024.81
659.17	57123.11
659.31	57254.18
659.46	57139.50
659.60	57034.17
659.74	57090.35
659.89	57048.22
660.03	56851.61
660.17	57123.11
660.32	57001.41
660.46	56970.98
660.60	56804.80
660.74	56868.00
660.89	57088.01
661.03	56687.78
661.17	56809.48
661.32	56619.90
661.46	56765.01
661.60	56809.48
661.74	56694.80
661.89	56912.47
662.03	56673.73
662.17	56540.32
662.31	56694.80
662.46	56746.29
662.60	56481.81
662.74	56371.80
662.88	56435.00
663.03	56378.82
663.17	56378.82
663.31	56055.83
663.45	56203.28
663.60	56039.45
663.74	55735.18
663.88	55990.30
664.02	56186.90
664.17	56083.92
664.31	55891.99
664.45	55870.93
664.59	55781.99
664.73	56016.04
664.88	56018.38
665.02	55480.06
665.16	55730.50
665.30	55641.56
665.44	55796.03
665.59	55583.04
665.73	55365.37
665.87	55447.29
666.01	55461.33
666.15	55704.75
666.29	55175.79
666.44	55604.11
666.58	55515.17
666.72	55227.28
666.86	55145.36
667.00	55341.97
667.14	55044.72
667.28	55002.59
667.43	54880.88
667.57	55318.56
667.71	54742.79
667.85	54948.76
667.99	54740.45
668.13	54873.86
668.27	54705.34
668.41	54841.09
668.56	54665.55
668.70	54585.97
668.84	54529.80
668.98	54377.67
669.12	54677.25
669.26	54513.42
669.40	54197.44
669.54	54719.38
669.68	54468.95
669.82	54096.80
669.96	54576.61
670.10	54415.11
670.25	54302.77
670.39	54092.12
670.53	54190.42
670.67	53970.41
670.81	54431.50
670.95	54117.87
671.09	53848.71
671.23	53729.34
671.37	53762.11
671.51	53827.64
671.65	54075.74
671.79	53640.40
671.93	53514.01
672.07	53661.46
672.21	53441.45
672.35	53380.60
672.49	52692.48
672.63	52933.56
672.77	53331.45
672.91	53116.12
673.05	52980.37
673.19	53027.18
673.33	52797.80
673.47	52725.25
673.61	52825.89
673.75	52741.63
673.89	52486.51
674.03	52343.74
674.17	52273.52
674.31	52425.66
674.45	51840.53
674.59	52392.89
674.73	52149.48
674.87	52137.77
675.01	51920.10
675.15	51744.56
675.29	51657.96
675.43	52013.73
675.56	51531.57
675.70	51409.87
675.84	51400.50
675.98	50497.06
676.12	51562.00
676.26	51344.33
676.40	51304.54
676.54	50918.35
676.68	50932.40
676.82	50312.16
676.96	50555.57
677.10	50410.46
677.23	50312.16
677.37	50625.79
677.51	50363.65
677.65	49886.18
677.79	49492.97
677.93	49581.91
678.07	49179.34
678.21	49507.01
678.34	49434.45
678.48	49043.59
678.62	48966.35
678.76	49165.29
678.90	48680.80
679.04	48975.71
679.18	49095.08
679.31	48346.11
679.45	48633.99
679.59	48453.77
679.73	48486.54
679.87	48112.05
680.00	47866.30
680.14	47419.25
680.28	47978.64
680.42	47519.90
680.56	47154.77
680.70	47072.85
680.83	46677.30
680.97	46913.70
681.11	47604.16
681.25	46993.28
681.39	46618.79
681.52	46703.05
681.66	46508.79
681.80	46323.88
681.94	46382.40
682.07	46312.18
682.21	45603.00
682.35	45720.02
682.49	45471.93
682.62	45745.77
682.76	45853.44
682.90	45652.15
683.04	45511.72
683.17	45177.02
683.31	44877.43
683.45	45181.70
683.59	44870.41
683.72	44516.99
683.86	44247.83
684.00	44905.52
684.13	44376.56
684.27	44030.16
684.41	43531.62
684.55	44046.54
684.68	43948.24
684.82	43466.09
684.96	43494.18
685.09	43136.07
685.23	43206.29
685.37	42646.90
685.50	43012.02
685.64	42728.82
685.78	42642.22
685.91	42902.02
686.05	42555.62
686.19	41518.76
686.32	41837.08
686.46	41574.94
686.60	41383.01
686.73	41064.70
686.87	41202.79
687.01	41368.97
687.14	41172.36
687.28	40650.42
687.42	40198.70
687.55	40692.55
687.69	41228.54
687.82	40240.83
687.96	39978.69
688.10	40107.42
688.23	40184.66
688.37	39632.29
688.50	39349.09
688.64	40100.40
688.78	39323.34
688.91	38909.07
689.05	38794.38
689.18	38651.61
689.32	38075.84
689.46	38110.94
689.59	37794.97
689.73	38075.84
689.86	38251.38
690.00	37570.28
690.13	37958.81
690.27	37766.88
690.41	37589.00
690.54	37085.79
690.68	37214.52
690.81	37270.69
690.95	37017.91
691.08	37024.93
691.22	36353.20
691.35	36201.07
691.49	36645.77
691.62	36437.46
691.76	36320.43
691.89	35613.59
692.03	36013.82
692.16	35608.91
692.30	35143.14
692.43	35601.89
692.57	35335.07
692.70	35002.71
692.84	35054.20
692.97	34771.00
693.11	34944.20
693.24	34272.46
693.38	34803.77
693.51	33982.24
693.65	34110.97
693.78	33670.95
693.92	34246.72
694.05	33549.24
694.19	33757.55
694.32	33546.90
694.45	33205.18
694.59	33139.65
694.72	33249.65
694.86	32425.78
694.99	32512.38
695.13	32741.75
695.26	32226.84
695.39	31679.15
695.53	31992.78
695.66	32381.31
695.80	31992.78
695.93	31552.76
696.07	31377.22
696.20	30815.49
696.33	30960.61
696.47	31079.97
696.60	30962.95
696.73	30747.62
696.87	30820.17
697.00	30403.56
697.14	30459.73
697.27	29965.88
697.40	30235.04
697.54	29977.58
697.67	30155.46
697.80	29614.80
697.94	29584.37
698.07	29186.48
698.21	28905.62
698.34	29521.18
698.47	28589.64
698.61	28224.52
698.74	28905.62
698.87	28666.88
699.01	28175.37
699.14	28463.25
699.27	28180.05
699.40	28430.49
699.54	28313.46
699.67	28046.64
699.80	27723.65
699.94	27723.65
700.07	27995.15
700.20	27597.26
700.34	27136.17
700.47	27206.39
700.60	27068.30
700.73	26792.11
700.87	26228.04
701.00	26160.17
701.13	26246.77
701.26	26265.49
701.40	25839.51
701.53	25930.80
701.66	25975.27
701.79	25727.17
701.93	25142.03
702.06	25324.60
702.19	24950.11
702.32	25193.53
702.46	24795.64
702.59	24875.21
702.72	24570.94
702.85	24790.95
702.99	24872.87
703.12	24390.72
703.25	24009.22
703.38	23800.91
703.51	23948.36
703.65	23803.25
703.78	23662.82
703.91	23655.79
704.04	23506.00
704.17	23393.65
704.31	23498.98
704.44	23131.51
704.57	23190.03
704.70	22925.55
704.83	22820.22
704.96	22675.11
705.10	22199.98
705.23	22382.54
>>>>>End Processed Spectral Data<<<<<
