SpectraSuite Data File
++++++++++++++++++++++++++++++++++++
Date: Fri Oct 25 11:26:02 EDT 2013
User: price-jones
Dark Spectrum Present: No
Reference Spectrum Present: No
Number of Sampled Component Spectra: 1
Spectrometers: USB2+H05261
Integration Time (usec): 100000 (USB2+H05261)
Spectra Averaged: 1 (USB2+H05261)
Boxcar Smoothing: 0 (USB2+H05261)
Correct for Electrical Dark: No (USB2+H05261)
Strobe/Lamp Enabled: No (USB2+H05261)
Correct for Detector Non-linearity: No (USB2+H05261)
Correct for Stray Light: No (USB2+H05261)
Number of Pixels in Processed Spectrum: 2048
>>>>>Begin Processed Spectral Data<<<<<
365.73	276.18
365.92	276.18
366.12	276.18
366.32	117.03
366.52	156.82
366.72	163.84
366.91	182.56
367.11	147.45
367.31	135.75
367.51	238.73
367.70	131.07
367.90	145.11
368.10	93.62
368.30	110.01
368.49	152.13
368.69	163.84
368.89	248.10
369.09	156.82
369.28	187.24
369.48	180.22
369.68	187.24
369.87	212.99
370.07	140.43
370.27	243.42
370.47	325.33
370.66	589.82
370.86	550.03
371.06	634.29
371.25	580.45
371.45	725.57
371.65	702.16
371.84	650.67
372.04	650.67
372.24	737.27
372.44	760.67
372.63	746.63
372.83	730.25
373.03	770.04
373.22	739.61
373.42	833.23
373.62	676.41
373.81	791.10
374.01	823.87
374.21	826.21
374.40	814.51
374.60	875.36
374.79	767.70
374.99	739.61
375.19	795.78
375.38	826.21
375.58	816.85
375.78	847.27
375.97	891.74
376.17	908.13
376.37	823.87
376.56	910.47
376.76	903.45
376.95	905.79
377.15	896.43
377.35	910.47
377.54	887.06
377.74	887.06
377.93	898.77
378.13	889.40
378.33	887.06
378.52	1001.75
378.72	950.26
378.91	976.00
379.11	894.08
379.31	917.49
379.50	912.81
379.70	978.34
379.89	1004.09
380.09	992.39
380.28	990.05
380.48	1034.52
380.68	1008.77
380.87	1060.26
381.07	980.68
381.26	1076.65
381.46	1025.15
381.65	1090.69
381.85	1013.45
382.04	1064.94
382.24	1128.14
382.43	1074.31
382.63	1137.50
382.83	1086.01
383.02	1095.37
383.22	1095.37
383.41	1100.05
383.61	1060.26
383.80	1128.14
384.00	1071.97
384.19	1057.92
384.39	1109.41
384.58	1181.97
384.78	1198.35
384.97	1214.74
385.17	1064.94
385.36	1132.82
385.56	1210.06
385.75	1111.75
385.95	1254.53
386.14	1207.72
386.34	1235.80
386.53	1203.04
386.72	1210.06
386.92	1249.85
387.11	1287.29
387.31	1212.40
387.50	1315.38
387.70	1299.00
387.89	1184.31
388.09	1252.19
388.28	1308.36
388.48	1350.49
388.67	1261.55
388.86	1277.93
389.06	1336.45
389.25	1364.53
389.45	1397.30
389.64	1357.51
389.84	1418.36
390.03	1409.00
390.22	1409.00
390.42	1287.29
390.61	1343.47
390.81	1397.30
391.00	1394.96
391.19	1455.81
391.39	1397.30
391.58	1472.20
391.78	1462.83
391.97	1490.92
392.16	1476.88
392.36	1533.05
392.55	1469.86
392.75	1577.52
392.94	1472.20
393.13	1607.95
393.33	1437.09
393.52	1509.65
393.71	1638.38
393.91	1511.99
394.10	1605.61
394.29	1652.42
394.49	1528.37
394.68	1661.78
394.88	1612.63
395.07	1748.38
395.26	1661.78
395.46	1654.76
395.65	1715.61
395.84	1771.79
396.04	1741.36
396.23	1837.32
396.42	1689.87
396.62	1724.97
396.81	1823.28
397.00	1811.57
397.19	1734.34
397.39	1834.98
397.58	1837.32
397.77	1874.77
397.97	1856.04
398.16	1916.90
398.35	1980.09
398.55	1811.57
398.74	1928.60
398.93	2069.03
399.12	2001.16
399.32	1907.54
399.51	1912.22
399.70	2064.35
399.90	1952.01
400.09	2031.58
400.28	1991.80
400.47	2071.37
400.67	2050.31
400.86	2022.22
401.05	2232.87
401.24	2160.31
401.44	2193.08
401.63	2141.59
401.82	2204.78
402.01	2186.06
402.21	2115.84
402.40	2125.21
402.59	2263.30
402.78	2209.47
402.97	2211.81
403.17	2239.89
403.36	2230.53
403.55	2286.70
403.74	2363.94
403.93	2429.48
404.13	2291.38
404.32	2396.71
404.51	2246.91
404.70	2370.96
404.89	2469.27
405.09	2469.27
405.28	2459.90
405.47	2532.46
405.66	2551.18
405.85	2410.75
406.05	2495.01
406.24	2551.18
406.43	2551.18
406.62	2656.51
406.81	2651.83
407.00	2459.90
407.20	2654.17
407.39	2715.02
407.58	2614.38
407.77	2813.32
407.96	2729.06
408.15	2810.98
408.34	2806.30
408.54	2775.88
408.73	2738.43
408.92	2766.51
409.11	2799.28
409.30	2902.26
409.49	2965.46
409.68	2979.50
409.87	3000.57
410.07	3059.08
410.26	2951.42
410.45	2920.99
410.64	2991.20
410.83	3047.38
411.02	3136.32
411.21	3162.06
411.40	3061.42
411.59	3171.43
411.78	3197.17
411.98	3194.83
412.17	3295.47
412.36	3424.20
412.55	3272.07
412.74	3372.71
412.93	3365.69
413.12	3421.86
413.31	3442.93
413.50	3552.93
413.69	3508.46
413.88	3623.15
414.07	3555.27
414.26	3630.17
414.45	3700.39
414.64	3756.56
414.83	3815.07
415.02	3730.81
415.22	3803.37
415.41	3875.93
415.60	3871.25
415.79	3936.78
415.98	3913.38
416.17	3852.52
416.36	3971.89
416.55	3845.50
416.74	4149.77
416.93	4004.66
417.12	4170.83
417.31	4102.96
417.50	4198.92
417.69	4255.09
417.88	4236.37
418.07	4320.63
418.26	4128.70
418.45	4334.67
418.64	4493.83
418.83	4440.00
419.02	4341.69
419.21	4348.72
419.39	4564.04
419.58	4404.89
419.77	4353.40
419.96	4521.92
420.15	4540.64
420.34	4594.47
420.53	4564.04
420.72	4624.90
420.91	4538.30
421.10	4758.31
421.29	4802.78
421.48	4685.75
421.67	4718.52
421.86	4858.95
422.05	4725.54
422.24	4798.10
422.43	4947.89
422.61	4954.91
422.80	4894.06
422.99	4826.18
423.18	4959.60
423.37	4854.27
423.56	4823.84
423.75	4873.00
423.94	4851.93
424.13	4585.11
424.32	4793.42
424.50	4975.98
424.69	5142.16
424.88	5078.96
425.07	4971.30
425.26	4947.89
425.45	4919.81
425.64	4952.57
425.83	5048.54
426.01	5095.35
426.20	5130.45
426.39	4971.30
426.58	4964.28
426.77	4898.74
426.96	4983.00
427.15	5013.43
427.33	5207.69
427.52	5366.85
427.71	5329.40
427.90	5172.58
428.09	5462.81
428.28	5423.02
428.46	5291.95
428.65	5315.36
428.84	5430.04
429.03	5551.75
429.22	5256.84
429.40	5469.83
429.59	5420.68
429.78	5411.32
429.97	5336.42
430.16	5554.09
430.34	5699.20
430.53	5507.28
430.72	5774.10
430.91	5666.44
431.10	5710.91
431.28	5865.38
431.47	5867.72
431.66	5839.64
431.85	5830.27
432.03	5790.49
432.22	5968.37
432.41	5891.13
432.60	5951.98
432.79	5891.13
432.97	6059.65
433.16	6061.99
433.35	5930.92
433.54	6024.54
433.72	6071.35
433.91	6183.70
434.10	6169.65
434.28	6113.48
434.47	6181.35
434.66	6092.41
434.85	6464.56
435.03	6228.17
435.22	6263.27
435.41	6380.30
435.59	6544.14
435.78	6417.75
435.97	6490.31
436.16	6282.00
436.34	6413.07
436.53	6588.61
436.72	6548.82
436.90	6448.18
437.09	6562.86
437.28	6387.32
437.46	6513.71
437.65	6469.24
437.84	6621.38
438.02	6705.63
438.21	6710.32
438.40	6593.29
438.58	6832.02
438.77	7035.65
438.96	6920.96
439.14	7061.40
439.33	6906.92
439.52	7311.83
439.70	7260.34
439.89	7379.71
440.08	7365.67
440.26	7449.93
440.45	7222.89
440.63	7557.59
440.82	7536.52
441.01	7520.14
441.19	7723.77
441.38	7552.91
441.57	7831.43
441.75	7906.33
441.94	7962.50
442.12	7976.55
442.31	8133.36
442.50	8042.08
442.68	7978.89
442.87	8009.31
443.05	7981.23
443.24	8234.00
443.43	8095.91
443.61	8147.40
443.80	8332.31
443.98	8138.04
444.17	7875.90
444.35	8236.35
444.54	8535.93
444.73	8271.45
444.91	8332.31
445.10	8301.88
445.28	8313.58
445.47	8313.58
445.65	8219.96
445.84	8379.12
446.02	8463.38
446.21	8367.42
446.39	8500.83
446.58	8657.64
446.77	8313.58
446.95	8311.24
447.14	8409.54
447.32	8585.08
447.51	8542.96
447.69	8510.19
447.88	8524.23
448.06	8383.80
448.25	8486.78
448.43	8699.77
448.62	8652.96
448.80	8477.42
448.99	8659.98
449.17	8652.96
449.36	8601.47
449.54	8856.59
449.73	9055.53
449.91	8922.12
450.10	8999.36
450.28	9034.47
450.46	9170.22
450.65	9219.37
450.83	9043.83
451.02	9144.47
451.20	9025.11
451.39	9195.96
451.57	9334.06
451.76	9193.62
451.94	9198.31
452.13	9392.57
452.31	9439.38
452.49	9097.66
452.68	9399.59
452.86	9296.61
453.05	9547.05
453.23	9575.13
453.42	9556.41
453.60	9352.78
453.78	9722.59
453.97	9467.47
454.15	9259.16
454.34	9472.15
454.52	9741.31
454.70	9673.43
454.89	9743.65
455.07	9701.52
455.26	9657.05
455.44	9874.72
455.62	9874.72
455.81	9825.57
455.99	10087.71
456.17	10036.22
456.36	10064.30
456.54	10153.24
456.73	10167.29
456.91	10553.48
457.09	10487.94
457.28	10539.43
457.46	10237.50
457.64	10417.72
457.83	10455.17
458.01	10324.10
458.19	10593.26
458.38	10544.11
458.56	10801.57
458.74	10494.96
458.93	10555.82
459.11	10743.06
459.29	10712.63
459.48	10630.71
459.66	10731.36
459.84	10848.38
460.03	11016.90
460.21	10970.09
460.39	11087.12
460.57	10909.24
460.76	11190.10
460.94	11199.46
461.12	10965.41
461.31	10970.09
461.49	11218.19
461.67	11290.74
461.85	11620.76
462.04	11042.65
462.22	12025.67
462.40	11623.10
462.59	11517.78
462.77	11590.33
462.95	11627.78
463.13	11669.91
463.32	11669.91
463.50	11800.98
463.68	11936.73
463.86	11800.98
464.05	11660.55
464.23	11618.42
464.41	12060.78
464.59	11791.62
464.78	12109.93
464.96	12145.04
465.14	11726.08
465.32	11843.11
465.50	12191.85
465.69	12215.26
465.87	12299.52
466.05	12135.68
466.23	12341.64
466.41	12121.63
466.60	12444.63
466.78	12184.83
466.96	12079.50
467.14	12250.36
467.32	12360.37
467.51	12437.61
467.69	12203.55
467.87	12453.99
468.05	12685.70
468.23	12517.18
468.41	12547.61
468.60	12395.48
468.78	12559.31
468.96	12620.17
469.14	12699.75
469.32	13062.53
469.50	12552.29
469.69	13116.36
469.87	12954.87
470.05	12954.87
470.23	13011.04
470.41	13107.00
470.59	13355.10
470.77	13334.03
470.95	13266.16
471.14	13523.62
471.32	13352.76
471.50	13626.60
471.68	13584.47
471.86	13593.83
472.04	13745.97
472.22	13820.86
472.40	13621.92
472.58	13568.09
472.77	13970.66
472.95	14071.30
473.13	14508.98
473.31	14080.66
473.49	14239.82
473.67	14090.02
473.85	14260.88
474.03	14682.18
474.21	14553.45
474.39	14663.46
474.57	14675.16
474.75	14747.72
474.93	14834.32
475.12	14927.94
475.30	15030.92
475.48	15023.90
475.66	15044.96
475.84	15063.69
476.02	15351.57
476.20	15475.62
476.38	15822.02
476.56	15836.06
476.74	15728.40
476.92	15812.66
477.10	16009.26
477.28	16159.06
477.46	16210.55
477.64	16208.21
477.82	16585.04
478.00	16968.88
478.18	16699.72
478.36	16922.07
478.54	17001.65
478.72	17050.80
478.90	17539.97
479.08	17551.68
479.26	17792.75
479.44	17341.03
479.62	17565.72
479.80	18031.49
479.98	18017.44
480.16	18403.63
480.34	18162.56
480.52	18597.90
480.70	18511.30
480.88	18174.26
481.06	18415.34
481.24	18775.78
481.41	19021.53
481.59	18995.79
481.77	19489.64
481.95	19337.51
482.13	19557.52
482.31	19798.59
482.49	20063.07
482.67	20325.21
482.85	20657.57
483.03	20563.95
483.21	20514.80
483.39	20840.13
483.57	20744.17
483.74	21074.18
483.92	21441.65
484.10	21259.09
484.28	21600.80
484.46	21778.68
484.64	22218.71
484.82	22134.45
485.00	22272.54
485.18	22668.09
485.35	22941.93
485.53	22733.62
485.71	23285.99
485.89	23377.27
486.07	23374.93
486.25	23351.52
486.43	23903.89
486.61	23861.76
486.78	24009.22
486.96	23838.36
487.14	24453.92
487.32	24386.04
487.50	24418.81
487.68	24950.11
487.85	25256.72
488.03	25546.95
488.21	26031.44
488.39	25544.61
488.57	25963.56
488.75	26302.94
488.92	26354.43
489.10	26551.04
489.28	26490.18
489.46	27260.22
489.64	26864.67
489.81	27353.84
489.99	27730.67
490.17	27632.36
490.35	27974.08
490.53	28098.13
490.70	28561.56
490.88	27988.13
491.06	29027.32
491.24	28936.04
491.41	28807.31
491.59	29158.39
491.77	29046.05
491.95	29579.69
492.13	29563.31
492.30	30216.32
492.48	29635.86
492.66	30199.93
492.84	30122.69
493.01	30644.63
493.19	30773.36
493.37	30836.56
493.54	31262.54
493.72	31344.45
493.90	31103.38
494.08	31789.16
494.25	32055.98
494.43	32048.96
494.61	31735.32
494.79	32531.11
494.96	32486.64
495.14	32879.85
495.32	33172.41
495.49	33071.77
495.67	32912.61
495.85	33462.64
496.02	33600.73
496.20	33944.79
496.38	33961.17
496.55	34438.64
496.73	34972.28
496.91	34513.54
497.09	34937.18
497.26	34745.25
497.44	35124.42
497.62	35194.64
497.79	35810.20
497.97	35779.77
498.14	35772.75
498.32	36385.97
498.50	36240.86
498.67	36575.55
498.85	36638.75
499.03	37074.09
499.20	36528.74
499.38	36989.83
499.56	36830.67
499.73	37022.59
499.91	37303.46
500.08	37500.06
500.26	37003.87
500.44	37373.67
500.61	37600.71
500.79	37717.73
500.97	38253.72
501.14	38602.46
501.32	38012.64
501.49	38506.49
501.67	38644.59
501.84	38979.28
502.02	38841.19
502.20	38752.25
502.37	39051.84
502.55	39395.90
502.72	39557.39
502.90	39234.40
503.07	39271.85
503.25	39840.60
503.43	39751.66
503.60	39725.91
503.78	39931.88
503.95	40547.44
504.13	40315.73
504.30	40549.78
504.48	40226.79
504.65	40865.75
504.83	40957.03
505.01	41380.67
505.18	41085.76
505.36	41411.10
505.53	41415.78
505.71	41116.19
505.88	41628.77
506.06	41495.36
506.23	42021.98
506.41	41612.38
506.58	41909.63
506.76	42309.86
506.93	42499.45
507.11	42412.85
507.28	42740.52
507.46	43112.67
507.63	42887.98
507.81	42815.42
507.98	42656.26
508.16	42803.72
508.33	43365.45
508.50	43449.70
508.68	43545.67
508.85	44016.11
509.03	43686.10
509.20	44095.69
509.38	44308.68
509.55	44367.20
509.73	44107.40
509.90	44865.73
510.08	44788.49
510.25	44648.06
510.42	44758.06
510.60	45303.41
510.77	45162.98
510.95	45368.94
511.12	45223.83
511.30	44996.80
511.47	45298.73
511.64	45338.52
511.82	45614.70
511.99	45137.23
512.17	46108.55
512.34	45689.60
512.51	46017.27
512.69	46218.56
512.86	46291.12
513.04	46312.18
513.21	46602.41
513.38	46567.30
513.56	46976.89
513.73	46845.82
513.90	46920.72
514.08	46656.24
514.25	47147.75
514.43	47646.29
514.60	47299.89
514.77	47309.25
514.95	47182.86
515.12	47217.97
515.29	47601.82
515.47	47707.14
515.64	48044.18
515.81	47641.60
515.99	48058.22
516.16	48636.33
516.33	47969.28
516.51	48559.09
516.68	48158.86
516.85	48758.04
517.03	49050.61
517.20	48978.05
517.37	48676.12
517.54	48774.42
517.72	48762.72
517.89	49205.08
518.06	49158.27
518.24	49158.27
518.41	49062.31
518.58	48720.59
518.75	49378.28
518.93	49535.10
519.10	49565.52
519.27	49844.05
519.45	49584.25
519.62	49628.72
519.79	50014.91
519.96	50255.98
520.14	50075.76
520.31	49947.03
520.48	50447.91
520.65	50274.71
520.83	50518.12
521.00	50651.53
521.17	50492.38
521.34	50454.93
521.52	50681.96
521.69	50410.46
521.86	51016.66
522.03	50770.90
522.20	50878.57
522.38	51344.33
522.55	51346.67
522.72	51000.27
522.89	51648.60
523.07	51695.41
523.24	51374.76
523.41	51641.58
523.58	51229.65
523.75	51779.67
523.92	51662.64
524.10	51854.57
524.27	52034.79
524.44	52097.98
524.61	51767.97
524.78	52062.88
524.96	52037.13
525.13	52266.50
525.30	52233.74
525.47	52390.55
525.64	52303.95
525.81	52493.54
525.98	52758.02
526.16	52722.91
526.33	52451.41
526.50	52523.96
526.67	52956.96
526.84	53073.99
527.01	52875.04
527.18	52729.93
527.36	52914.83
527.53	53158.25
527.70	53389.96
527.87	53258.89
528.04	53001.43
528.21	53179.31
528.38	53137.18
528.55	53408.68
528.72	53081.01
528.89	53183.99
529.07	53275.27
529.24	53165.27
529.41	53511.67
529.58	53602.95
529.75	53460.18
529.92	53481.24
530.09	53687.21
530.26	53858.07
530.43	53635.72
530.60	53893.18
530.77	53752.74
530.94	53921.26
531.11	54000.84
531.28	54157.66
531.46	54302.77
531.63	54270.00
531.80	54150.63
531.97	54258.30
532.14	54380.01
532.31	54174.04
532.48	54497.03
532.65	54513.42
532.82	54284.04
532.99	54880.88
533.16	54541.50
533.33	54597.68
533.50	54873.86
533.67	54878.54
533.84	54550.87
534.01	55105.57
534.18	55065.78
534.35	55295.16
534.52	54869.18
534.69	55014.29
534.86	55072.81
535.03	55058.76
535.20	55035.36
535.37	55267.07
535.54	55388.78
535.71	55327.92
535.88	55348.99
536.05	55547.93
536.22	55540.91
536.38	55489.42
536.55	55405.16
536.72	55468.36
536.89	55576.02
537.06	55578.36
537.23	55901.36
537.40	55409.84
537.57	55587.72
537.74	55557.30
537.91	56114.34
538.08	55798.37
538.25	55693.05
538.42	56123.71
538.59	55646.24
538.75	55779.65
538.92	56133.07
539.09	56392.87
539.26	55908.38
539.43	55828.80
539.60	56142.43
539.77	56261.80
539.94	56542.66
540.11	56350.74
540.28	56329.67
540.44	56584.79
540.61	56552.02
540.78	56451.38
540.95	56350.74
541.12	56395.21
541.29	56357.76
541.46	56699.48
541.62	56554.36
541.79	56519.26
541.96	56458.40
542.13	56666.71
542.30	56287.54
542.47	56800.12
542.63	56896.08
542.80	56720.54
542.97	57144.18
543.14	57134.82
543.31	57165.24
543.48	57113.75
543.64	57354.83
543.81	57340.78
543.98	57478.88
544.15	57340.78
544.32	57167.58
544.48	57574.84
544.65	57270.57
544.82	57223.76
544.99	57301.00
545.16	57528.03
545.32	57385.25
545.49	57687.18
545.66	57771.44
545.83	57584.20
546.00	57659.10
546.16	57546.75
546.33	57244.82
546.50	57546.75
546.67	57764.42
546.83	57385.25
547.00	57607.61
547.17	57528.03
547.34	57598.24
547.50	58059.33
547.67	57996.13
547.84	57844.00
548.00	58113.16
548.17	58204.44
548.34	57902.51
548.51	58225.51
548.67	58162.31
548.84	58190.40
549.01	57897.83
549.18	58087.42
549.34	58220.83
549.51	58251.25
549.68	58389.34
549.84	58450.20
550.01	58253.59
550.18	58127.20
550.34	58260.62
550.51	58417.43
550.68	58323.81
550.84	57982.09
551.01	58206.78
551.18	58410.41
551.34	58398.71
551.51	58497.01
551.68	58592.97
551.84	58494.67
552.01	58461.90
552.18	58569.57
552.34	58316.79
552.51	58735.74
552.68	58557.86
552.84	58555.52
553.01	58871.49
553.18	58749.79
553.34	58857.45
553.51	58866.81
553.67	58873.84
553.84	58915.96
554.01	58763.83
554.17	58958.09
554.34	58859.79
554.51	58939.37
554.67	58915.96
554.84	59110.23
555.00	59014.27
555.17	58937.03
555.33	58953.41
555.50	59178.10
555.67	58983.84
555.83	59032.99
556.00	59288.11
556.16	59344.28
556.33	59229.60
556.50	59077.46
556.66	59334.92
556.83	59098.53
556.99	59449.61
557.16	59451.95
557.32	59414.50
557.49	59650.89
557.65	59269.39
557.82	59255.34
557.98	59250.66
558.15	59388.75
558.32	59599.40
558.48	59437.90
558.65	59449.61
558.81	59330.24
558.98	59475.35
559.14	59547.91
559.31	59627.49
559.47	59529.19
559.64	59583.02
559.80	59601.74
559.97	59669.62
560.13	59625.15
560.30	59749.20
560.46	59606.42
560.63	59810.05
560.79	59765.58
560.96	59835.80
561.12	59711.75
561.29	59796.01
561.45	59681.32
561.61	59725.79
561.78	59840.48
561.94	59650.89
562.11	59812.39
562.27	59927.08
562.44	60046.44
562.60	59931.76
562.77	59695.36
562.93	59763.24
563.10	59934.10
563.26	59805.37
563.42	60116.66
563.59	59934.10
563.75	59868.56
563.92	59955.16
564.08	60046.44
564.24	60009.00
564.41	59931.76
564.57	59875.58
564.74	60172.83
564.90	60074.53
565.07	60006.65
565.23	60182.19
565.39	60006.65
565.56	60299.22
565.72	60081.55
565.88	60046.44
566.05	60034.74
566.21	60191.56
566.38	60020.70
566.54	60079.21
566.70	60369.44
566.87	60268.79
567.03	60023.04
567.19	60200.92
567.36	60334.33
567.52	60186.88
567.68	60563.70
567.85	59997.29
568.01	60371.78
568.17	60186.88
568.34	60299.22
568.50	60287.52
568.66	60175.17
568.83	60369.44
568.99	60140.07
569.15	60556.68
569.32	60278.16
569.48	60296.88
569.64	60411.57
569.81	60238.37
569.97	60418.59
570.13	60397.52
570.30	60200.92
570.46	60313.26
570.62	60549.66
570.78	60357.74
570.95	60392.84
571.11	60523.91
571.27	60369.44
571.43	60584.77
571.60	60776.69
571.76	60334.33
571.92	60463.06
572.09	60537.96
572.25	60446.68
572.41	60285.18
572.57	60608.17
572.74	60748.60
572.90	60432.63
573.06	60472.42
573.22	60526.25
573.38	60493.49
573.55	60605.83
573.71	60772.01
573.87	60776.69
574.03	60537.96
574.20	60683.07
574.36	60645.62
574.52	60781.37
574.68	60582.43
574.84	60910.10
575.01	60757.97
575.17	60874.99
575.33	60582.43
575.49	60692.43
575.65	60662.00
575.82	60877.33
575.98	60659.66
576.14	60874.99
576.30	60809.46
576.46	60713.50
576.62	60797.76
576.79	60783.71
576.95	60701.79
577.11	60757.97
577.27	60996.70
577.43	60851.59
577.59	60664.35
577.75	60774.35
577.92	60584.77
578.08	60767.33
578.24	60938.19
578.40	60879.67
578.56	60933.51
578.72	60669.03
578.88	60926.49
579.04	60856.27
579.21	60816.48
579.37	60994.36
579.53	60963.93
579.69	60692.43
579.85	60563.70
580.01	60594.13
580.17	60692.43
580.33	60928.83
580.49	60900.74
580.65	60903.08
580.82	60889.04
580.98	60809.46
581.14	60882.02
581.30	60989.68
581.46	60790.73
581.62	60914.78
581.78	60811.80
581.94	61057.56
582.10	60718.18
582.26	60891.38
582.42	60963.93
582.58	61102.03
582.74	60870.31
582.90	60954.57
583.06	60851.59
583.22	60816.48
583.38	60914.78
583.54	60753.29
583.70	61181.60
583.86	61013.08
584.02	60802.44
584.18	61024.79
584.34	60886.70
584.50	61031.81
584.66	60860.95
584.82	60858.61
584.98	61087.98
585.14	60994.36
585.30	60823.50
585.46	61106.71
585.62	60898.40
585.78	61087.98
585.94	60788.39
586.10	60924.14
586.26	60933.51
586.42	61071.60
586.58	61078.62
586.74	61020.11
586.90	60919.46
587.06	60945.21
587.22	61109.05
587.38	61139.47
587.54	61228.41
587.70	61013.08
587.86	61050.53
588.02	61153.52
588.18	61195.65
588.34	60992.02
588.49	61045.85
588.65	60935.85
588.81	60975.64
588.97	61169.90
589.13	61141.81
589.29	61167.56
589.45	61205.01
589.61	61300.97
589.77	61237.78
589.93	61263.52
590.08	61373.53
590.24	61132.45
590.40	61640.35
590.56	61368.85
590.72	61429.70
590.88	61174.58
591.04	61188.63
591.20	61303.31
591.35	61279.91
591.51	61602.90
591.67	61352.46
591.83	61504.60
591.99	61205.01
592.15	61230.75
592.31	61298.63
592.46	61394.59
592.62	61401.61
592.78	61446.08
592.94	61492.89
593.10	61366.51
593.26	61277.57
593.41	61265.86
593.57	61371.19
593.73	61476.51
593.89	61572.47
594.05	61530.34
594.20	61282.25
594.36	61520.98
594.52	61553.75
594.68	61469.49
594.84	61396.93
594.99	61436.72
595.15	61399.27
595.31	61556.09
595.47	61310.33
595.62	61244.80
595.78	61331.40
595.94	61535.02
596.10	61738.65
596.25	61605.24
596.41	61755.03
596.57	61361.82
596.73	61546.73
596.88	61567.79
597.04	61612.26
597.20	61593.54
597.36	61792.48
597.51	61932.92
597.67	61352.46
597.83	61378.21
597.99	61598.22
598.14	61443.74
598.30	61724.61
598.46	61492.89
598.61	61719.93
598.77	61467.15
598.93	61614.60
599.09	61715.25
599.24	61832.27
599.40	61612.26
599.56	61544.39
599.71	61752.69
599.87	61886.10
600.03	61759.72
600.18	61680.14
600.34	61560.77
600.50	61574.81
600.65	61719.93
600.81	61715.25
600.97	61886.10
601.12	61705.88
601.28	61600.56
601.44	61635.67
601.59	61586.52
601.75	61736.31
601.91	61879.08
602.06	61696.52
602.22	62019.52
602.37	61851.00
602.53	61846.32
602.69	61865.04
602.84	61609.92
603.00	61703.54
603.16	61853.34
603.31	61869.72
603.47	61834.61
603.62	61640.35
603.78	61928.23
603.94	61825.25
604.09	61705.88
604.25	61785.46
604.40	61724.61
604.56	61740.99
604.71	61630.99
604.87	61656.73
605.03	61787.80
605.18	61731.63
605.34	61846.32
605.49	61588.86
605.65	61797.16
605.80	61630.99
605.96	61808.87
606.12	61799.50
606.27	61759.72
606.43	61595.88
606.58	61944.62
606.74	61865.04
606.89	61762.06
607.05	61710.56
607.20	61745.67
607.36	61553.75
607.51	61668.44
607.67	61481.19
607.82	61511.62
607.98	61560.77
608.13	61595.88
608.29	61715.25
608.44	61497.58
608.60	61666.09
608.75	61647.37
608.91	61525.66
609.06	61371.19
609.22	61836.95
609.37	61485.87
609.53	61598.22
609.68	61380.55
609.84	61373.53
609.99	61635.67
610.15	61490.55
610.30	61680.14
610.46	61516.30
610.61	61518.64
610.76	61504.60
610.92	61371.19
611.07	61701.20
611.23	61389.91
611.38	61762.06
611.54	61432.04
611.69	61420.34
611.84	61483.53
612.00	61535.02
612.15	61464.81
612.31	61577.15
612.46	61329.06
612.62	61563.11
612.77	61422.68
612.92	61666.09
613.08	61532.68
613.23	61471.83
613.39	61535.02
613.54	61242.46
613.69	61652.05
613.85	61364.17
614.00	61357.14
614.15	61478.85
614.31	61235.44
614.46	61558.43
614.62	61385.23
614.77	61399.27
614.92	61338.42
615.08	60989.68
615.23	61303.31
615.38	61565.45
615.54	61333.74
615.69	61209.69
615.84	61251.82
616.00	61408.64
616.15	61347.78
616.30	61345.44
616.46	61104.37
616.61	61158.20
616.76	61165.22
616.92	61006.06
617.07	61209.69
617.22	61057.56
617.37	61179.26
617.53	61413.32
617.68	61029.47
617.83	61010.74
617.99	61315.01
618.14	61193.31
618.29	61247.14
618.45	61010.74
618.60	61008.40
618.75	60870.31
618.90	61057.56
619.06	61017.77
619.21	61125.43
619.36	61305.65
619.51	61256.50
619.67	61027.13
619.82	60898.40
619.97	61226.07
620.12	60832.86
620.28	60961.59
620.43	60926.49
620.58	60977.98
620.73	60863.29
620.89	61062.24
621.04	61111.39
621.19	60924.14
621.34	60900.74
621.49	60898.40
621.65	60956.91
621.80	61052.87
621.95	60669.03
622.10	60919.46
622.25	60807.12
622.41	60940.53
622.56	60837.54
622.71	60996.70
622.86	60699.45
623.01	60650.30
623.16	60664.35
623.32	60811.80
623.47	60835.20
623.62	60676.05
623.77	60673.71
623.92	60977.98
624.07	61022.45
624.23	60893.72
624.38	60687.75
624.53	60619.88
624.68	60360.08
624.83	60643.28
624.98	60701.79
625.13	60535.62
625.29	60596.47
625.44	60685.41
625.59	60610.51
625.74	60491.15
625.89	60605.83
626.04	60362.42
626.19	60411.57
626.34	60362.42
626.49	60399.86
626.65	60434.97
626.80	60411.57
626.95	60224.32
627.10	60364.76
627.25	60254.75
627.40	60299.22
627.55	60224.32
627.70	60533.28
627.85	60294.54
628.00	60097.94
628.15	60271.14
628.30	60205.60
628.45	60357.74
628.60	60097.94
628.76	60381.14
628.91	60420.93
629.06	60163.47
629.21	60346.03
629.36	60294.54
629.51	60090.91
629.66	60055.81
629.81	59906.01
629.96	59889.63
630.11	60076.87
630.26	60102.62
630.41	60271.14
630.56	60016.02
630.71	59922.40
630.86	59985.59
631.01	59950.48
631.16	60046.44
631.31	59671.96
631.46	59730.47
631.61	59723.45
631.76	60163.47
631.91	60011.34
632.06	60163.47
632.21	60013.68
632.36	60074.53
632.51	59458.97
632.66	59978.57
632.81	59681.32
632.96	59882.61
633.10	59845.16
633.25	59917.71
633.40	59814.73
633.55	59920.05
633.70	59700.04
633.85	59660.26
634.00	59629.83
634.15	59437.90
634.30	59552.59
634.45	59796.01
634.60	59828.77
634.75	59606.42
634.90	59318.54
635.05	59503.44
635.19	59543.23
635.34	59873.24
635.49	59742.17
635.64	59718.77
635.79	59625.15
635.94	59578.34
636.09	59484.72
636.24	59437.90
636.39	59508.12
636.53	59615.79
636.68	59454.29
636.83	59568.97
636.98	59730.47
637.13	59421.52
637.28	59412.16
637.43	59412.16
637.57	59241.30
637.72	59442.59
637.87	59262.36
638.02	59423.86
638.17	59395.77
638.32	59508.12
638.46	59140.66
638.61	59227.26
638.76	59199.17
638.91	59140.66
639.06	59175.76
639.20	59014.27
639.35	59159.38
639.50	58948.73
639.65	59032.99
639.80	59189.81
639.94	58913.62
640.09	59304.49
640.24	59213.21
640.39	58913.62
640.54	59021.29
640.68	59025.97
640.83	59114.91
640.98	59236.62
641.13	58637.44
641.27	59213.21
641.42	58908.94
641.57	58908.94
641.72	58829.37
641.86	58873.84
642.01	58754.47
642.16	58981.50
642.31	58707.66
642.45	59171.08
642.60	58782.55
642.75	58892.56
642.90	58850.43
643.04	58960.44
643.19	58614.04
643.34	58852.77
643.48	58752.13
643.63	58773.19
643.78	58773.19
643.93	58578.93
644.07	58885.54
644.22	58684.25
644.37	58459.56
644.51	58553.18
644.66	58522.76
644.81	58557.86
644.95	58532.12
645.10	58562.54
645.25	58487.65
645.39	58569.57
645.54	58571.91
645.69	58429.13
645.83	58595.31
645.98	58564.88
646.13	58602.33
646.27	58300.40
646.42	58457.22
646.57	58550.84
646.71	58583.61
646.86	58499.35
647.00	58501.69
647.15	58340.19
647.30	58174.02
647.44	58482.97
647.59	58279.34
647.74	58475.94
647.88	58625.74
648.03	58578.93
648.17	58436.16
648.32	58314.45
648.47	58328.49
648.61	58190.40
648.76	58328.49
648.90	58010.18
649.05	58372.96
649.20	58389.34
649.34	58082.73
649.49	58148.27
649.63	58382.32
649.78	58497.01
649.92	58298.06
650.07	58508.71
650.21	58033.58
650.36	58269.98
650.51	58061.67
650.65	58209.12
650.80	58206.78
650.94	58188.06
651.09	58136.57
651.23	57638.03
651.38	58021.88
651.52	57783.15
651.67	57958.69
651.81	57897.83
651.96	57897.83
652.10	58049.97
652.25	57558.45
652.39	57748.04
652.54	57705.91
652.68	57621.65
652.83	57621.65
652.97	57848.68
653.12	57876.77
653.26	57614.63
653.41	57726.97
653.55	57783.15
653.70	57836.98
653.84	57801.87
653.99	57741.02
654.13	57675.48
654.27	57609.95
654.42	57448.45
654.56	57537.39
654.71	57818.25
654.85	58005.50
655.00	57797.19
655.14	57530.37
655.29	57528.03
655.43	57539.73
655.57	57432.07
655.72	57256.53
655.86	57544.41
656.01	57378.23
656.15	57478.88
656.30	57560.79
656.44	57537.39
656.58	57598.24
656.73	57502.28
656.87	57441.43
657.01	57291.63
657.16	57474.20
657.30	57284.61
657.45	57216.74
657.59	57308.02
657.73	57155.88
657.88	57268.23
658.02	57263.55
658.16	57151.20
658.31	57319.72
658.45	57132.48
658.60	57242.48
658.74	57148.86
658.88	57027.15
659.03	56924.17
659.17	56821.19
659.31	57006.09
659.46	57027.15
659.60	56886.72
659.74	56750.97
659.89	56795.44
660.03	56807.14
660.17	57111.41
660.32	56704.16
660.46	56891.40
660.60	56999.07
660.74	57008.43
660.89	56842.25
661.03	56467.76
661.17	56743.95
661.32	56397.55
661.46	56528.62
661.60	56781.40
661.74	56371.80
661.89	56339.04
662.03	56404.57
662.17	56193.92
662.31	56067.53
662.46	56355.42
662.60	56126.05
662.74	55889.65
662.88	55805.39
663.03	55922.42
663.17	55941.14
663.31	55826.46
663.45	55913.06
663.60	55655.60
663.74	55636.87
663.88	55583.04
664.02	55566.66
664.17	55917.74
664.31	55702.41
664.45	55566.66
664.59	55681.34
664.73	55529.21
664.88	55859.23
665.02	55222.60
665.16	55320.90
665.30	55257.71
665.44	55285.79
665.59	55379.42
665.73	55295.16
665.87	55250.69
666.01	55341.97
666.15	55182.81
666.29	55166.43
666.44	55353.67
666.58	55047.06
666.72	54962.80
666.86	54679.60
667.00	54817.69
667.14	54972.16
667.28	54571.93
667.43	54522.78
667.57	54906.63
667.71	54915.99
667.85	54759.17
667.99	54508.74
668.13	54571.93
668.27	54604.70
668.41	54450.22
668.56	54195.10
668.70	54134.25
668.84	54005.52
668.98	54078.08
669.12	54319.15
669.26	54607.04
669.40	54354.26
669.54	54085.10
669.68	53982.12
669.82	53862.75
669.96	53895.52
670.10	54124.89
670.25	54129.57
670.39	53897.86
670.53	53811.26
670.67	53829.98
670.81	53841.68
670.95	53757.42
671.09	53668.48
671.23	53413.37
671.37	53558.48
671.51	53415.71
671.65	53455.50
671.79	53062.29
671.93	53251.87
672.07	53226.12
672.21	52931.22
672.35	52849.30
672.49	52633.97
672.63	52533.32
672.77	52598.86
672.91	52507.58
673.05	52652.69
673.19	52378.85
673.33	52121.39
673.47	52547.37
673.61	52582.48
673.75	52308.63
673.89	51990.32
674.03	52182.24
674.17	51814.78
674.31	51597.11
674.45	51695.41
674.59	51341.99
674.73	51767.97
674.87	51391.14
675.01	51454.34
675.15	51381.78
675.29	51407.53
675.43	51608.81
675.56	51405.19
675.70	51107.94
675.84	51047.08
675.98	49841.71
676.12	50834.10
676.26	50855.16
676.40	50326.20
676.54	50752.18
676.68	50955.80
676.82	50255.98
676.96	50468.97
677.10	50127.25
677.23	49951.71
677.37	49888.52
677.51	49858.09
677.65	49446.16
677.79	48755.70
677.93	48924.22
678.07	48870.39
678.21	48835.28
678.34	48856.34
678.48	49013.16
678.62	48783.79
678.76	48470.15
678.90	48217.38
679.04	48725.27
679.18	48512.28
679.31	47814.80
679.45	47910.77
679.59	48409.30
679.73	48163.54
679.87	47805.44
680.00	47138.39
680.14	47194.56
680.28	47234.35
680.42	46986.25
680.56	47145.41
680.70	46653.90
680.83	46918.38
680.97	46586.02
681.11	47021.36
681.25	46609.43
681.39	46270.05
681.52	46333.24
681.66	45930.67
681.80	45904.93
681.94	45385.33
682.07	45382.99
682.21	45495.33
682.35	45649.81
682.49	45237.87
682.62	45366.60
682.76	45275.32
682.90	45127.87
683.04	45045.95
683.17	44788.49
683.31	44189.31
683.45	44201.02
683.59	44196.34
683.72	44027.82
683.86	43981.01
684.00	44128.46
684.13	44128.46
684.27	43732.91
684.41	43988.03
684.55	43856.96
684.68	43519.92
684.82	43119.69
684.96	42693.71
685.09	42607.11
685.23	42761.59
685.37	42684.35
685.50	42440.93
685.64	42522.85
685.78	42204.54
685.91	42234.97
686.05	41495.36
686.19	41308.11
686.32	41368.97
686.46	40966.40
686.60	40814.26
686.73	40348.50
686.87	40687.87
687.01	40938.31
687.14	40535.74
687.28	40346.15
687.42	40353.18
687.55	40201.04
687.69	40053.59
687.82	39856.98
687.96	39721.23
688.10	39746.98
688.23	40128.48
688.37	39328.02
688.50	39054.18
688.64	38808.42
688.78	39033.11
688.91	38525.22
689.05	38480.75
689.18	38359.04
689.32	37392.40
689.46	37759.86
689.59	38012.64
689.73	37827.74
689.86	37619.43
690.00	37137.28
690.13	37420.48
690.27	37315.16
690.41	37670.92
690.54	37099.83
690.68	36865.78
690.81	36563.85
690.95	36250.22
691.08	36175.32
691.22	35964.67
691.35	35882.75
691.49	36395.33
691.62	35849.99
691.76	35503.59
691.89	35290.60
692.03	35079.95
692.16	35285.92
692.30	35269.53
692.43	35077.61
692.57	34562.69
692.70	34623.54
692.84	34810.79
692.97	34632.91
693.11	34066.50
693.24	34167.14
693.38	33862.87
693.51	33865.21
693.65	33296.46
693.78	33780.95
693.92	33464.98
694.05	33172.41
694.19	32957.08
694.32	33043.68
694.45	32840.06
694.59	33024.96
694.72	32577.92
694.86	32226.84
694.99	32011.51
695.13	32058.32
695.26	31756.39
695.39	31695.53
695.53	31658.09
695.66	31824.26
695.80	31747.03
695.93	31292.96
696.07	30735.92
696.20	30611.87
696.33	30387.18
696.47	30672.72
696.60	30443.35
696.73	30478.46
696.87	30326.32
697.00	30015.03
697.14	29834.81
697.27	29895.66
697.40	29415.85
697.54	29846.51
697.67	29362.02
697.80	29668.63
697.94	29294.14
698.07	29057.75
698.21	29024.98
698.34	29156.05
698.47	28863.49
698.61	28128.56
698.74	28411.76
698.87	28526.45
699.01	27941.32
699.14	28013.87
699.27	27658.11
699.40	27906.21
699.54	28074.73
699.67	28063.02
699.80	27524.70
699.94	27505.98
700.07	27632.36
700.20	26742.96
700.34	27133.83
700.47	26721.90
700.60	26295.92
700.73	26520.61
700.87	25830.15
701.00	25916.75
701.13	25703.76
701.26	25977.61
701.40	25792.70
701.53	25652.27
701.66	25701.42
701.79	24985.22
701.93	25017.99
702.06	25638.23
702.19	24830.74
702.32	24938.41
702.46	24676.27
702.59	24592.01
702.72	24290.08
702.85	24304.12
702.99	24334.55
703.12	24081.77
703.25	23686.22
703.38	23651.11
703.51	23709.63
703.65	23295.35
703.78	23276.63
703.91	23110.45
704.04	23225.14
704.17	23461.53
704.31	22888.10
704.44	22841.29
704.57	22850.65
704.70	22757.03
704.83	22492.55
704.96	22162.53
705.10	22143.81
705.23	22143.81
>>>>>End Processed Spectral Data<<<<<
