SpectraSuite Data File
++++++++++++++++++++++++++++++++++++
Date: Fri Oct 25 11:23:10 EDT 2013
User: price-jones
Dark Spectrum Present: No
Reference Spectrum Present: No
Number of Sampled Component Spectra: 1
Spectrometers: USB2+H05261
Integration Time (usec): 100000 (USB2+H05261)
Spectra Averaged: 1 (USB2+H05261)
Boxcar Smoothing: 0 (USB2+H05261)
Correct for Electrical Dark: No (USB2+H05261)
Strobe/Lamp Enabled: No (USB2+H05261)
Correct for Detector Non-linearity: No (USB2+H05261)
Correct for Stray Light: No (USB2+H05261)
Number of Pixels in Processed Spectrum: 2048
>>>>>Begin Processed Spectral Data<<<<<
365.73	248.10
365.92	248.10
366.12	248.10
366.32	170.86
366.52	159.16
366.72	145.11
366.91	133.41
367.11	156.82
367.31	72.56
367.51	100.64
367.70	67.88
367.90	102.98
368.10	105.32
368.30	102.98
368.49	0.00
368.69	152.13
368.89	168.52
369.09	126.39
369.28	140.43
369.48	156.82
369.68	194.26
369.87	180.22
370.07	198.95
370.27	177.88
370.47	365.12
370.66	629.60
370.86	641.31
371.06	667.05
371.25	727.91
371.45	587.47
371.65	664.71
371.84	594.50
372.04	688.12
372.24	685.78
372.44	676.41
372.63	774.72
372.83	716.20
373.03	706.84
373.22	681.10
373.42	837.91
373.62	788.76
373.81	821.53
374.01	830.89
374.21	863.66
374.40	840.25
374.60	781.74
374.79	870.68
374.99	814.51
375.19	793.44
375.38	870.68
375.58	854.30
375.78	772.38
375.97	760.67
376.17	880.04
376.37	875.36
376.56	915.15
376.76	889.40
376.95	835.57
377.15	908.13
377.35	814.51
377.54	898.77
377.74	828.55
377.93	922.17
378.13	952.60
378.33	968.98
378.52	957.28
378.72	863.66
378.91	926.85
379.11	994.73
379.31	882.38
379.50	964.30
379.70	933.87
379.89	976.00
380.09	961.96
380.28	964.30
380.48	997.07
380.68	954.94
380.87	976.00
381.07	1036.86
381.26	985.37
381.46	1027.50
381.65	1100.05
381.85	1067.28
382.04	1083.67
382.24	1060.26
382.43	1149.20
382.63	1069.62
382.83	1067.28
383.02	1184.31
383.22	1090.69
383.41	1071.97
383.61	1097.71
383.80	1114.10
384.00	1214.74
384.19	1114.10
384.39	1088.35
384.58	1114.10
384.78	1097.71
384.97	1228.78
385.17	1100.05
385.36	1160.91
385.56	1153.88
385.75	1125.80
385.95	1191.33
386.14	1102.39
386.34	1277.93
386.53	1203.04
386.72	1186.65
386.92	1170.27
387.11	1226.44
387.31	1263.89
387.50	1254.53
387.70	1203.04
387.89	1315.38
388.09	1299.00
388.28	1275.59
388.48	1268.57
388.67	1282.61
388.86	1245.16
389.06	1322.40
389.25	1413.68
389.45	1366.87
389.64	1287.29
389.84	1430.07
390.03	1401.98
390.22	1453.47
390.42	1385.60
390.61	1411.34
390.81	1348.15
391.00	1399.64
391.19	1394.96
391.39	1441.77
391.58	1432.41
391.78	1474.54
391.97	1416.02
392.16	1413.68
392.36	1474.54
392.55	1537.73
392.75	1549.43
392.94	1504.96
393.13	1488.58
393.33	1542.41
393.52	1556.46
393.71	1593.90
393.91	1537.73
394.10	1652.42
394.29	1640.72
394.49	1633.69
394.68	1664.12
394.88	1647.74
395.07	1687.53
395.26	1598.59
395.46	1680.50
395.65	1746.04
395.84	1764.76
396.04	1795.19
396.23	1778.81
396.42	1792.85
396.62	1727.32
396.81	1799.87
397.00	1802.21
397.19	1654.76
397.39	1827.96
397.58	1865.41
397.77	1825.62
397.97	1867.75
398.16	1832.64
398.35	1961.37
398.55	1884.13
398.74	1914.56
398.93	1975.41
399.12	1874.77
399.32	1856.04
399.51	1865.41
399.70	2052.65
399.90	2071.37
400.09	2036.27
400.28	2057.33
400.47	2062.01
400.67	2071.37
400.86	2099.46
401.05	2029.24
401.24	2188.40
401.44	2122.87
401.63	2174.36
401.82	2157.97
402.01	2078.40
402.21	2174.36
402.40	2101.80
402.59	2223.51
402.78	2246.91
402.97	2209.47
403.17	2331.17
403.36	2225.85
403.55	2396.71
403.74	2368.62
403.93	2331.17
404.13	2333.51
404.32	2417.77
404.51	2380.32
404.70	2487.99
404.89	2338.20
405.09	2551.18
405.28	2401.39
405.47	2523.10
405.66	2382.67
405.85	2532.46
406.05	2579.27
406.24	2635.44
406.43	2609.70
406.62	2661.19
406.81	2621.40
407.00	2640.12
407.20	2574.59
407.39	2637.78
407.58	2712.68
407.77	2693.96
407.96	2689.28
408.15	2780.56
408.34	2773.53
408.54	2757.15
408.73	2853.11
408.92	2862.48
409.11	2970.14
409.30	2860.13
409.49	2972.48
409.68	3005.25
409.87	3016.95
410.07	3056.74
410.26	3056.74
410.45	3068.44
410.64	3052.06
410.83	3098.87
411.02	3183.13
411.21	3192.49
411.40	3038.02
411.59	3276.75
411.78	3276.75
411.98	3197.17
412.17	3253.34
412.36	3410.16
412.55	3304.84
412.74	3487.40
412.93	3384.41
413.12	3361.01
413.31	3515.48
413.50	3473.36
413.69	3574.00
413.88	3590.38
414.07	3674.64
414.26	3784.65
414.45	3693.37
414.64	3602.08
414.83	3801.03
415.02	3838.48
415.22	3934.44
415.41	3847.84
415.60	4016.36
415.79	3779.97
415.98	4046.79
416.17	4117.00
416.36	3969.55
416.55	4042.11
416.74	3967.21
416.93	4159.13
417.12	4021.04
417.31	4219.99
417.50	4170.83
417.69	4294.88
417.88	4210.62
418.07	4208.28
418.26	4341.69
418.45	4348.72
418.64	4709.16
418.83	4393.19
419.02	4477.44
419.21	4491.49
419.39	4674.05
419.58	4482.13
419.77	4678.73
419.96	4578.09
420.15	4674.05
420.34	4603.83
420.53	4732.56
420.72	4753.63
420.91	4535.96
421.10	4821.50
421.29	4840.23
421.48	4812.14
421.67	4734.90
421.86	4702.14
422.05	4849.59
422.24	4865.97
422.43	4868.31
422.61	4905.76
422.80	4877.68
422.99	4990.02
423.18	4954.91
423.37	5048.54
423.56	4978.32
423.75	4936.19
423.94	4901.08
424.13	4777.03
424.32	4713.84
424.50	5018.11
424.69	5210.03
424.88	5078.96
425.07	5018.11
425.26	4973.64
425.45	4903.42
425.64	5039.17
425.83	4999.38
426.01	5100.03
426.20	5034.49
426.39	5006.41
426.58	5097.69
426.77	5107.05
426.96	5235.78
427.15	5074.28
427.33	5261.52
427.52	5249.82
427.71	5423.02
427.90	5191.31
428.09	5282.59
428.28	5439.40
428.46	5280.25
428.65	5434.72
428.84	5636.01
429.03	5411.32
429.22	5336.42
429.40	5544.73
429.59	5549.41
429.78	5437.06
429.97	5350.46
430.16	5432.38
430.34	5565.79
430.53	5746.02
430.72	5846.66
430.91	5708.57
431.10	5605.58
431.28	5790.49
431.47	5830.27
431.66	5933.26
431.85	5785.80
432.03	6026.88
432.22	5935.60
432.41	5970.71
432.60	5928.58
432.79	6090.07
432.97	6087.73
433.16	6083.05
433.35	6146.25
433.54	6111.14
433.72	6197.74
433.91	6270.30
434.10	6186.04
434.28	6263.27
434.47	6181.35
434.66	6349.87
434.85	6356.90
435.03	6314.77
435.22	6230.51
435.41	6469.24
435.59	6392.00
435.78	6483.28
435.97	6445.84
436.16	6504.35
436.34	6464.56
436.53	6553.50
436.72	6691.59
436.90	6487.96
437.09	6817.98
437.28	6497.33
437.46	6485.62
437.65	6834.36
437.84	6853.09
438.02	6773.51
438.21	6724.36
438.40	6864.79
438.58	6902.24
438.77	7232.26
438.96	6953.73
439.14	7185.44
439.33	7232.26
439.52	7311.83
439.70	7190.13
439.89	7389.07
440.08	7449.93
440.26	7508.44
440.45	7316.51
440.63	7548.23
440.82	7627.81
441.01	7632.49
441.19	7777.60
441.38	7749.51
441.57	7981.23
441.75	7861.86
441.94	8084.21
442.12	7981.23
442.31	8086.55
442.50	8084.21
442.68	8004.63
442.87	8063.15
443.05	8056.12
443.24	8182.51
443.43	8327.63
443.61	8294.86
443.80	8458.70
443.98	8142.72
444.17	7747.17
444.35	8423.59
444.54	8489.12
444.73	8372.10
444.91	8463.38
445.10	8379.12
445.28	8311.24
445.47	8542.96
445.65	8386.14
445.84	8498.49
446.02	8496.14
446.21	8435.29
446.39	8549.98
446.58	8571.04
446.77	8507.85
446.95	8507.85
447.14	8559.34
447.32	8744.24
447.51	8664.66
447.69	8627.21
447.88	8470.40
448.06	8383.80
448.25	8578.06
448.43	8521.89
448.62	8622.53
448.80	8755.94
448.99	8870.63
449.17	8784.03
449.36	8741.90
449.54	8842.54
449.73	8933.82
449.91	8966.59
450.10	9036.81
450.28	9200.65
450.46	9076.60
450.65	9184.26
450.83	9050.85
451.02	9228.73
451.20	9235.75
451.39	9064.89
451.57	9158.52
451.76	9231.07
451.94	9118.73
452.13	9434.70
452.31	9310.65
452.49	9357.46
452.68	9617.26
452.86	9275.54
453.05	9586.83
453.23	9507.26
453.42	9483.85
453.60	9268.52
453.78	9565.77
453.97	9441.72
454.15	9570.45
454.34	9430.02
454.52	9717.90
454.70	9778.76
454.89	9741.31
455.07	9809.19
455.26	9818.55
455.44	10031.54
455.62	10052.60
455.81	9905.15
455.99	10043.24
456.17	10207.08
456.36	10106.43
456.54	10228.14
456.73	10466.88
456.91	10506.66
457.09	10373.25
457.28	10731.36
457.46	10281.97
457.64	10724.33
457.83	10595.61
458.01	10614.33
458.19	10789.87
458.38	10839.02
458.56	10616.67
458.74	10712.63
458.93	10927.96
459.11	10684.55
459.29	10967.75
459.48	10806.25
459.66	11009.88
459.84	11000.52
460.03	11222.87
460.21	11037.97
460.39	10951.37
460.57	10965.41
460.76	11363.30
460.94	11389.05
461.12	11283.72
461.31	11318.83
461.49	11265.00
461.67	11405.43
461.85	11297.77
462.04	11365.64
462.22	11555.22
462.40	11878.22
462.59	11508.41
462.77	11412.45
462.95	11927.37
463.13	11922.69
463.32	11721.40
463.50	11829.07
463.68	11992.90
463.86	11981.20
464.05	11700.34
464.23	12056.10
464.41	11815.02
464.59	11590.33
464.78	12320.58
464.96	12081.85
465.14	11999.93
465.32	12486.76
465.50	12266.75
465.69	12224.62
465.87	12152.06
466.05	12210.57
466.23	12180.15
466.41	12461.01
466.60	12428.24
466.78	12215.26
466.96	12400.16
467.14	12542.93
467.32	12489.10
467.51	12631.87
467.69	12224.62
467.87	12479.74
468.05	12573.36
468.23	12517.18
468.41	12545.27
468.60	12753.58
468.78	12835.50
468.96	12659.96
469.14	12791.03
469.32	12943.16
469.50	12716.13
469.69	12959.55
469.87	13397.23
470.05	13146.79
470.23	13303.60
470.41	13252.11
470.59	13359.78
470.77	13308.29
470.95	13235.73
471.14	13577.45
471.32	13172.54
471.50	13413.61
471.68	13631.28
471.86	13776.39
472.04	13612.56
472.22	14139.18
472.40	13795.12
472.58	13956.61
472.77	14335.78
472.95	14174.28
473.13	14843.68
473.31	14221.10
473.49	14366.21
473.67	14239.82
473.85	14415.36
474.03	14682.18
474.21	14497.28
474.39	14850.70
474.57	14853.04
474.75	14984.11
474.93	14885.81
475.12	15047.30
475.30	15143.27
475.48	15091.77
475.66	15676.91
475.84	15417.11
476.02	15697.97
476.20	15569.24
476.38	15995.22
476.56	16135.65
476.74	16222.25
476.92	15815.00
477.10	16067.78
477.28	16475.03
477.46	16479.71
477.64	16702.06
477.82	16662.27
478.00	17214.64
478.18	16587.38
478.36	16903.35
478.54	17174.85
478.72	17394.86
478.90	17736.58
479.08	17514.23
479.26	17926.16
479.44	17795.09
479.62	18120.43
479.80	18370.86
479.98	18291.29
480.16	18686.84
480.34	18412.99
480.52	19033.24
480.70	18691.52
480.88	18546.40
481.06	18972.38
481.24	19115.16
481.41	19077.71
481.59	19653.48
481.77	19428.79
481.95	19894.55
482.13	20025.62
482.31	19740.08
482.49	20240.95
482.67	20484.37
482.85	20505.43
483.03	20856.51
483.21	21085.89
483.39	21088.23
483.57	21069.50
483.74	21125.68
483.92	21549.31
484.10	21277.81
484.28	21579.74
484.46	22288.92
484.64	22471.48
484.82	22064.23
485.00	22295.94
485.18	22768.73
485.35	23154.92
485.53	23019.17
485.71	23325.78
485.89	23597.28
486.07	23702.61
486.25	23335.14
486.43	23524.72
486.61	24294.76
486.78	24187.10
486.96	24259.65
487.14	24517.11
487.32	24599.03
487.50	24905.64
487.68	25289.49
487.85	25652.27
488.03	26038.46
488.21	25846.54
488.39	25991.65
488.57	26263.15
488.75	26359.11
488.92	26824.88
489.10	26677.43
489.28	26838.92
489.46	27356.18
489.64	27487.25
489.81	27988.13
489.99	27957.70
490.17	27917.91
490.35	28907.96
490.53	28503.04
490.70	28325.16
490.88	28180.05
491.06	28746.46
491.24	29118.60
491.41	29144.35
491.59	29268.40
491.77	29291.80
491.95	29832.47
492.13	30045.46
492.30	30429.30
492.48	30417.60
492.66	30696.13
492.84	30471.43
493.01	30895.07
493.19	30731.23
493.37	31168.91
493.54	31278.92
493.72	31793.84
493.90	31896.82
494.08	31985.76
494.25	32219.81
494.43	32439.82
494.61	32577.92
494.79	32856.44
494.96	32816.65
495.14	32907.93
495.32	33446.26
495.49	33738.82
495.67	33448.60
495.85	33729.46
496.02	34092.24
496.20	34192.89
496.38	34635.25
496.55	34270.12
496.73	34782.70
496.91	35236.77
497.09	35173.57
497.26	35033.14
497.44	35388.90
497.62	35058.88
497.79	35833.60
497.97	36093.40
498.14	36510.02
498.32	36552.15
498.50	36271.28
498.67	37024.93
498.85	37001.53
499.03	37120.90
499.20	36727.69
499.38	37031.96
499.56	37324.52
499.73	37626.45
499.91	37612.41
500.08	37809.01
500.26	38106.26
500.44	38363.72
500.61	38061.79
500.79	38033.71
500.97	38272.44
501.14	38850.55
501.32	38855.23
501.49	38396.49
501.67	39033.11
501.84	39412.28
502.02	39384.19
502.20	39381.85
502.37	39548.03
502.55	39391.22
502.72	39342.06
502.90	39814.85
503.07	39910.82
503.25	40233.81
503.43	40046.57
503.60	40339.13
503.78	40505.31
503.95	40432.75
504.13	40746.39
504.30	40664.47
504.48	41064.70
504.65	40980.44
504.83	41148.96
505.01	41556.21
505.18	41572.60
505.36	42005.59
505.53	41507.06
505.71	42103.90
505.88	42256.03
506.06	41766.86
506.23	42632.86
506.41	41902.61
506.58	42183.48
506.76	43002.66
506.93	42501.79
507.11	42859.89
507.28	43040.11
507.46	42789.67
507.63	43021.39
507.81	43639.29
507.98	42710.10
508.16	43812.49
508.33	43615.88
508.50	44079.31
508.68	44086.33
508.85	44182.29
509.03	44039.52
509.20	44245.49
509.38	44987.44
509.55	44886.79
509.73	44486.56
509.90	45233.19
510.08	44505.29
510.25	44952.33
510.42	45425.12
510.60	45525.76
510.77	45855.78
510.95	45530.44
511.12	45221.49
511.30	45549.17
511.47	45614.70
511.64	45666.19
511.82	46190.47
511.99	45874.50
512.17	46361.33
512.34	46394.10
512.51	46658.58
512.69	46953.49
512.86	46621.13
513.04	47100.94
513.21	46859.87
513.38	47229.67
513.56	47239.03
513.73	47150.09
513.90	47019.02
514.08	47316.27
514.25	47599.47
514.43	47866.30
514.60	47686.07
514.77	47934.17
514.95	48095.67
515.12	48004.39
515.29	47777.36
515.47	48318.02
515.64	48243.12
515.81	48409.30
515.99	48350.79
516.16	48629.31
516.33	48800.17
516.51	49123.16
516.68	48830.60
516.85	49191.04
517.03	49113.80
517.20	49394.67
517.37	48804.85
517.54	49598.29
517.72	49357.22
517.89	49380.62
518.06	49801.92
518.24	49097.42
518.41	49645.10
518.58	49694.25
518.75	49694.25
518.93	50021.93
519.10	49879.16
519.27	50061.72
519.45	49918.95
519.62	50190.45
519.79	50365.99
519.96	50265.34
520.14	50316.84
520.31	50384.71
520.48	50836.44
520.65	51037.72
520.83	51033.04
521.00	50829.41
521.17	50911.33
521.34	51110.28
521.52	51091.55
521.69	50946.44
521.86	51313.90
522.03	51613.49
522.20	51765.63
522.38	51714.14
522.55	51723.50
522.72	51632.22
522.89	51578.39
523.07	51899.04
523.24	51821.80
523.41	51997.34
523.58	51805.42
523.75	52470.13
523.92	51997.34
524.10	52390.55
524.27	52435.02
524.44	52481.83
524.61	52779.08
524.78	52676.10
524.96	52390.55
525.13	52750.99
525.30	52814.19
525.47	53006.11
525.64	52444.38
525.81	53073.99
525.98	52959.30
526.16	52910.15
526.33	53020.16
526.50	53043.56
526.67	53277.61
526.84	53282.30
527.01	52982.71
527.18	53242.51
527.36	53385.28
527.53	53317.40
527.70	53787.85
527.87	53373.58
528.04	53392.30
528.21	53778.49
528.38	53666.14
528.55	53799.55
528.72	53673.16
528.89	53783.17
529.07	53612.31
529.24	53698.91
529.41	54057.01
529.58	53923.60
529.75	54042.97
529.92	54087.44
530.09	54199.79
530.26	54342.56
530.43	54244.26
530.60	53848.71
530.77	54262.98
530.94	54494.69
531.11	54316.81
531.28	54415.11
531.46	54450.22
531.63	54693.64
531.80	54686.62
531.97	55077.49
532.14	54770.88
532.31	54773.22
532.48	54946.42
532.65	54805.98
532.82	54810.67
532.99	55105.57
533.16	54733.43
533.33	54974.50
533.50	55105.57
533.67	54813.01
533.84	54906.63
534.01	55018.97
534.18	55276.43
534.35	55531.55
534.52	55311.54
534.69	55384.10
534.86	55824.12
535.03	55433.25
535.20	55627.51
535.37	55330.26
535.54	55711.77
535.71	55454.31
535.88	55545.59
536.05	55456.65
536.22	55922.42
536.38	55920.08
536.55	55774.97
536.72	55941.14
536.89	55718.79
537.06	55959.87
537.23	56065.19
537.40	55718.79
537.57	55948.17
537.74	56191.58
537.91	56205.62
538.08	56037.11
538.25	56032.42
538.42	55950.51
538.59	56540.32
538.75	56062.85
538.92	56381.16
539.09	56376.48
539.26	56481.81
539.43	56500.53
539.60	56341.38
539.77	56664.37
539.94	56598.83
540.11	56533.30
540.28	56828.21
540.44	56736.93
540.61	56617.56
540.78	56584.79
540.95	56652.67
541.12	56687.78
541.29	56498.19
541.46	56823.53
541.62	56676.07
541.79	56795.44
541.96	56643.30
542.13	56781.40
542.30	56963.96
542.47	57038.86
542.63	57223.76
542.80	57202.69
542.97	57518.67
543.14	57354.83
543.31	57467.17
543.48	57446.11
543.64	57469.51
543.81	57488.24
543.98	57286.95
544.15	57553.77
544.32	57822.93
544.48	57790.17
544.65	57453.13
544.82	57710.59
544.99	57413.34
545.16	57773.78
545.32	57705.91
545.49	57769.10
545.66	57900.17
545.83	57886.13
546.00	57834.64
546.16	57946.98
546.33	57827.62
546.50	57659.10
546.67	57682.50
546.83	57581.86
547.00	57991.45
547.17	58148.27
547.34	57970.39
547.50	58026.56
547.67	58426.79
547.84	57958.69
548.00	58269.98
548.17	58616.38
548.34	58475.94
548.51	58426.79
548.67	58447.86
548.84	58185.72
549.01	58433.81
549.18	58415.09
549.34	58485.31
549.51	58452.54
549.68	58487.65
549.84	58539.14
550.01	58674.89
550.18	58557.86
550.34	58707.66
550.51	58532.12
550.68	58607.01
550.84	58571.91
551.01	58820.00
551.18	58735.74
551.34	58719.36
551.51	58775.53
551.68	58951.07
551.84	58590.63
552.01	58562.54
552.18	59061.08
552.34	58656.17
552.51	58869.15
552.68	58726.38
552.84	58710.00
553.01	59245.98
553.18	58726.38
553.34	58969.80
553.51	58890.22
553.67	59199.17
553.84	59037.67
554.01	59150.02
554.17	59262.36
554.34	59255.34
554.51	59285.77
554.67	59416.84
554.84	59292.79
555.00	59285.77
555.17	59185.13
555.33	59220.23
555.50	59093.85
555.67	59159.38
555.83	59255.34
556.00	59281.09
556.16	59447.27
556.33	59587.70
556.50	59599.40
556.66	59496.42
556.83	59440.24
556.99	59468.33
557.16	59714.09
557.32	59599.40
557.49	59831.11
557.65	59409.82
557.82	59683.66
557.98	59561.95
558.15	59529.19
558.32	59625.15
558.48	59615.79
558.65	59751.54
558.81	59721.11
558.98	59716.43
559.14	59824.09
559.31	59763.24
559.47	59826.43
559.64	60025.38
559.80	60011.34
559.97	60044.10
560.13	59751.54
560.30	59927.08
560.46	60140.07
560.63	60032.40
560.79	60013.68
560.96	60151.77
561.12	59840.48
561.29	59861.54
561.45	60030.06
561.61	60100.28
561.78	59882.61
561.94	60151.77
562.11	60074.53
562.27	60030.06
562.44	60104.96
562.60	60172.83
562.77	60177.51
562.93	60039.42
563.10	60072.19
563.26	60186.88
563.42	60523.91
563.59	60154.11
563.75	60203.26
563.92	60264.11
564.08	60264.11
564.24	60217.30
564.41	60198.58
564.57	60275.82
564.74	60390.50
564.90	60402.21
565.07	60247.73
565.23	60212.62
565.39	60193.90
565.56	60470.08
565.72	60156.45
565.88	60320.29
566.05	60404.55
566.21	60434.97
566.38	60371.78
566.54	60313.26
566.70	60500.51
566.87	60645.62
567.03	60322.63
567.19	60683.07
567.36	60303.90
567.52	60413.91
567.68	60725.20
567.85	60776.69
568.01	60570.72
568.17	60467.74
568.34	60406.89
568.50	60540.30
568.66	60516.89
568.83	60697.11
568.99	60488.80
569.15	60463.06
569.32	60552.00
569.48	60563.70
569.64	60554.34
569.81	60825.84
569.97	60563.70
570.13	60617.53
570.30	60446.68
570.46	60797.76
570.62	60757.97
570.78	60846.91
570.95	60697.11
571.11	60659.66
571.27	60640.94
571.43	60788.39
571.60	60970.96
571.76	60757.97
571.92	60573.06
572.09	60874.99
572.25	60781.37
572.41	60739.24
572.57	60692.43
572.74	60982.66
572.90	60603.49
573.06	60921.80
573.22	60870.31
573.38	60956.91
573.55	60755.63
573.71	60935.85
573.87	60893.72
574.03	60577.75
574.20	60959.25
574.36	61017.77
574.52	60837.54
574.68	60767.33
574.84	60940.53
575.01	60872.65
575.17	60933.51
575.33	60795.42
575.49	60739.24
575.65	60832.86
575.82	61001.38
575.98	60975.64
576.14	61174.58
576.30	61071.60
576.46	60797.76
576.62	60961.59
576.79	60842.23
576.95	60910.10
577.11	61055.21
577.27	60914.78
577.43	60662.00
577.59	60809.46
577.75	61116.07
577.92	60987.34
578.08	61003.72
578.24	61036.49
578.40	61212.03
578.56	60851.59
578.72	61015.43
578.88	61034.15
579.04	61310.33
579.21	61052.87
579.37	61195.65
579.53	61148.84
579.69	60961.59
579.85	61020.11
580.01	61193.31
580.17	61066.92
580.33	61375.87
580.49	61249.48
580.65	61057.56
580.82	61102.03
580.98	60872.65
581.14	60959.25
581.30	61261.18
581.46	61165.22
581.62	61139.47
581.78	61015.43
581.94	61083.30
582.10	61263.52
582.26	60968.61
582.42	61022.45
582.58	61095.00
582.74	61066.92
582.90	61104.37
583.06	61144.16
583.22	61034.15
583.38	61205.01
583.54	60952.23
583.70	61141.81
583.86	61125.43
584.02	61008.40
584.18	61202.67
584.34	61497.58
584.50	61153.52
584.66	61205.01
584.82	61048.19
584.98	61258.84
585.14	61251.82
585.30	61095.00
585.46	61345.44
585.62	61268.20
585.78	61469.49
585.94	61118.41
586.10	61153.52
586.26	61179.26
586.42	61322.04
586.58	61293.95
586.74	61205.01
586.90	61277.57
587.06	61155.86
587.22	61476.51
587.38	61106.71
587.54	61296.29
587.70	61263.52
587.86	61307.99
588.02	61300.97
588.18	61233.10
588.34	61249.48
588.49	61429.70
588.65	61139.47
588.81	61539.71
588.97	61329.06
589.13	61378.21
589.29	61560.77
589.45	61588.86
589.61	61630.99
589.77	61598.22
589.93	61726.95
590.08	61441.40
590.24	61605.24
590.40	61694.18
590.56	61661.41
590.72	61834.61
590.88	61502.26
591.04	61570.13
591.20	61827.59
591.35	61684.82
591.51	61914.19
591.67	61544.39
591.83	61614.60
591.99	61502.26
592.15	61525.66
592.31	61843.98
592.46	61654.39
592.62	61642.69
592.78	61684.82
592.94	61790.14
593.10	61757.38
593.26	61731.63
593.41	61726.95
593.57	61797.16
593.73	61502.26
593.89	61794.82
594.05	61539.71
594.20	61675.46
594.36	61455.45
594.52	61415.66
594.68	61528.00
594.84	61581.84
594.99	61848.66
595.15	61595.88
595.31	61755.03
595.47	61542.05
595.62	61528.00
595.78	61668.44
595.94	61799.50
596.10	61986.75
596.25	61872.06
596.41	61759.72
596.57	61778.44
596.73	61792.48
596.88	61787.80
597.04	61879.08
597.20	61832.27
597.36	61682.48
597.51	62049.94
597.67	61797.16
597.83	61696.52
597.99	61900.15
598.14	61853.34
598.30	61853.34
598.46	61829.93
598.61	62071.01
598.77	61769.08
598.93	61893.13
599.09	61921.21
599.24	62005.47
599.40	61806.53
599.56	62026.54
599.71	61874.40
599.87	61911.85
600.03	61984.41
600.18	61729.29
600.34	61701.20
600.50	62066.33
600.65	61965.68
600.81	61879.08
600.97	62035.90
601.12	61946.96
601.28	61909.51
601.44	61797.16
601.59	62035.90
601.75	61932.92
601.91	62253.57
602.06	61939.94
602.22	62085.05
602.37	61848.66
602.53	61918.87
602.69	61755.03
602.84	61984.41
603.00	61958.66
603.16	62138.88
603.31	61909.51
603.47	61890.79
603.62	61942.28
603.78	62028.88
603.94	62024.20
604.09	61989.09
604.25	61914.19
604.40	61785.46
604.56	61944.62
604.71	62223.14
604.87	61832.27
605.03	62085.05
605.18	61961.00
605.34	62026.54
605.49	61696.52
605.65	62075.69
605.80	62185.69
605.96	61982.07
606.12	62014.83
606.27	62171.65
606.43	61780.78
606.58	62204.42
606.74	61659.07
606.89	61895.47
607.05	62087.39
607.20	61825.25
607.36	61783.12
607.51	61827.59
607.67	61750.35
607.82	61717.59
607.98	61731.63
608.13	62096.75
608.29	61890.79
608.44	61698.86
608.60	61799.50
608.75	61757.38
608.91	61815.89
609.06	61511.62
609.22	61909.51
609.37	61762.06
609.53	61872.06
609.68	61647.37
609.84	62005.47
609.99	61654.39
610.15	61986.75
610.30	62124.84
610.46	61773.76
610.61	61872.06
610.76	61855.68
610.92	61860.36
611.07	61839.29
611.23	61771.42
611.38	61785.46
611.54	61729.29
611.69	61743.33
611.84	61799.50
612.00	61717.59
612.15	61799.50
612.31	61661.41
612.46	61717.59
612.62	61832.27
612.77	61745.67
612.92	61867.38
613.08	61794.82
613.23	61776.10
613.39	61677.80
613.54	61577.15
613.69	61656.73
613.85	61577.15
614.00	61736.31
614.15	61684.82
614.31	61434.38
614.46	61600.56
614.62	61518.64
614.77	61448.42
614.92	61586.52
615.08	61633.33
615.23	61460.13
615.38	61537.36
615.54	61361.82
615.69	61448.42
615.84	61469.49
616.00	61474.17
616.15	61525.66
616.30	61600.56
616.46	61394.59
616.61	61406.30
616.76	61408.64
616.92	61291.61
617.07	61427.36
617.22	61371.19
617.37	61432.04
617.53	61726.95
617.68	61429.70
617.83	61553.75
617.99	61563.11
618.14	61399.27
618.29	61366.51
618.45	61312.67
618.60	61293.95
618.75	61212.03
618.90	61359.48
619.06	61441.40
619.21	61113.73
619.36	61490.55
619.51	61385.23
619.67	61071.60
619.82	61307.99
619.97	61244.80
620.12	61183.94
620.28	61095.00
620.43	61275.22
620.58	61130.11
620.73	61300.97
620.89	61181.60
621.04	61382.89
621.19	61071.60
621.34	61090.32
621.49	61186.28
621.65	61137.13
621.80	61223.73
621.95	61055.21
622.10	61045.85
622.25	60924.14
622.41	61059.90
622.56	61008.40
622.71	61123.09
622.86	60872.65
623.01	61022.45
623.16	60938.19
623.32	60949.89
623.47	61038.83
623.62	61158.20
623.77	60835.20
623.92	61153.52
624.07	61057.56
624.23	60889.04
624.38	60956.91
624.53	60802.44
624.68	60774.35
624.83	60865.63
624.98	60851.59
625.13	60802.44
625.29	60713.50
625.44	60966.27
625.59	60900.74
625.74	60683.07
625.89	60589.45
626.04	60647.96
626.19	60636.26
626.34	60673.71
626.49	60521.57
626.65	60397.52
626.80	60865.63
626.95	60575.40
627.10	60430.29
627.25	60486.46
627.40	60456.04
627.55	60530.93
627.70	60676.05
627.85	60526.25
628.00	60376.46
628.15	60701.79
628.30	60488.80
628.45	60509.87
628.60	60341.35
628.76	60404.55
628.91	60404.55
629.06	60430.29
629.21	60367.10
629.36	60458.38
629.51	60397.52
629.66	60432.63
629.81	60458.38
629.96	60341.35
630.11	60137.72
630.26	60371.78
630.41	60339.01
630.56	60341.35
630.71	60530.93
630.86	60324.97
631.01	60212.62
631.16	60200.92
631.31	60133.04
631.46	60041.76
631.61	60149.43
631.76	60170.49
631.91	60453.70
632.06	60200.92
632.21	60296.88
632.36	60095.60
632.51	59714.09
632.66	59943.46
632.81	59973.89
632.96	60378.80
633.10	60158.79
633.25	60137.72
633.40	59945.80
633.55	60081.55
633.70	59976.23
633.85	60191.56
634.00	60025.38
634.15	59835.80
634.30	59840.48
634.45	60111.98
634.60	59985.59
634.75	59976.23
634.90	59884.95
635.05	59952.82
635.19	59901.33
635.34	59957.50
635.49	59868.56
635.64	59999.63
635.79	59725.79
635.94	59936.44
636.09	59650.89
636.24	59774.94
636.39	59618.13
636.53	59723.45
636.68	59494.08
636.83	59821.75
636.98	59927.08
637.13	59634.51
637.28	59573.66
637.43	59695.36
637.57	59650.89
637.72	59503.44
637.87	59604.08
638.02	59545.57
638.17	59700.04
638.32	59824.09
638.46	59421.52
638.61	59519.82
638.76	59421.52
638.91	59690.68
639.06	59447.27
639.20	59323.22
639.35	59341.94
639.50	59112.57
639.65	59311.52
639.80	59250.66
639.94	59442.59
640.09	59318.54
640.24	59409.82
640.39	59245.98
640.54	59440.24
640.68	59227.26
640.83	59391.09
640.98	59114.91
641.13	59143.00
641.27	59421.52
641.42	59384.07
641.57	59075.12
641.72	59168.74
641.86	59234.28
642.01	58756.81
642.16	59358.33
642.31	59040.01
642.45	59208.53
642.60	59222.58
642.75	59365.35
642.90	59133.63
643.04	59135.98
643.19	58927.67
643.34	59063.42
643.48	59171.08
643.63	59100.87
643.78	58824.68
643.93	59084.48
644.07	58838.73
644.22	59208.53
644.37	58702.98
644.51	58679.57
644.66	58974.48
644.81	58834.05
644.95	58731.06
645.10	58983.84
645.25	59016.61
645.39	58738.08
645.54	58838.73
645.69	58848.09
645.83	58852.77
645.98	58581.27
646.13	58789.58
646.27	58815.32
646.42	58796.60
646.57	58628.08
646.71	58681.91
646.86	58789.58
647.00	58707.66
647.15	58707.66
647.30	58543.82
647.44	58611.70
647.59	58885.54
647.74	58599.99
647.88	58705.32
648.03	58841.07
648.17	58735.74
648.32	58532.12
648.47	58639.78
648.61	58585.95
648.76	58494.67
648.90	58536.80
649.05	58691.27
649.20	58712.34
649.34	58520.41
649.49	58440.84
649.63	58773.19
649.78	58564.88
649.92	58522.76
650.07	58471.26
650.21	58305.09
650.36	58459.56
650.51	58372.96
650.65	58487.65
650.80	58396.37
650.94	58094.44
651.09	57862.72
651.23	57970.39
651.38	58375.30
651.52	58171.67
651.67	58363.60
651.81	58080.39
651.96	58260.62
652.10	58241.89
652.25	57888.47
652.39	58209.12
652.54	57836.98
652.68	57874.43
652.83	57804.21
652.97	58075.71
653.12	58007.84
653.26	58096.78
653.41	58094.44
653.55	58028.90
653.70	57939.96
653.84	57996.13
653.99	58038.26
654.13	57818.25
654.27	57771.44
654.42	57874.43
654.56	57893.15
654.71	57989.11
654.85	57986.77
655.00	58064.01
655.14	57752.72
655.29	57635.69
655.43	57918.90
655.57	57979.75
655.72	57762.08
655.86	57869.75
656.01	57731.65
656.15	57649.74
656.30	57539.73
656.44	57799.53
656.58	57829.96
656.73	57888.47
656.87	57542.07
657.01	57766.76
657.16	57701.23
657.30	57588.88
657.45	57350.15
657.59	57715.27
657.73	57118.43
657.88	57205.03
658.02	57408.66
658.16	57462.49
658.31	57497.60
658.45	57411.00
658.60	57375.89
658.74	57471.85
658.88	57366.53
659.03	57155.88
659.17	57233.12
659.31	57261.21
659.46	57223.76
659.60	57256.53
659.74	57066.94
659.89	56835.23
660.03	57132.48
660.17	57069.28
660.32	57205.03
660.46	57095.03
660.60	56959.28
660.74	56889.06
660.89	56865.66
661.03	56720.54
661.17	56701.82
661.32	56657.35
661.46	56741.61
661.60	56652.67
661.74	56734.59
661.89	56577.77
662.03	56601.18
662.17	56549.68
662.31	56413.93
662.46	56722.88
662.60	56371.80
662.74	56418.61
662.88	56306.27
663.03	56362.44
663.17	56332.01
663.31	56376.48
663.45	56329.67
663.60	56076.90
663.74	55945.83
663.88	56058.17
664.02	56065.19
664.17	56083.92
664.31	55807.73
664.45	55973.91
664.59	55903.70
664.73	55641.56
664.88	55751.56
665.02	55629.85
665.16	55611.13
665.30	55428.57
665.44	55753.90
665.59	55784.33
665.73	55503.46
665.87	55484.74
666.01	55442.61
666.15	55267.07
666.29	55400.48
666.44	55625.17
666.58	55138.34
666.72	55341.97
666.86	55351.33
667.00	55072.81
667.14	54944.08
667.28	55213.24
667.43	55150.04
667.57	54911.31
667.71	54859.82
667.85	54967.48
667.99	54763.85
668.13	54880.88
668.27	54934.71
668.41	54878.54
668.56	54494.69
668.70	54550.87
668.84	54475.97
668.98	54389.37
669.12	54583.63
669.26	54497.03
669.40	54401.07
669.54	54499.37
669.68	54412.77
669.82	54192.76
669.96	54569.59
670.10	54302.77
670.25	54365.96
670.39	54068.72
670.53	54021.90
670.67	53872.11
670.81	54298.09
670.95	54096.80
671.09	53958.71
671.23	53722.32
671.37	53537.41
671.51	53666.14
671.65	53450.81
671.79	53118.46
671.93	53457.84
672.07	53581.88
672.21	53263.57
672.35	53123.14
672.49	53277.61
672.63	53106.76
672.77	52999.09
672.91	53155.91
673.05	52755.68
673.19	52587.16
673.33	52666.73
673.47	52643.33
673.61	52800.15
673.75	52711.20
673.89	52662.05
674.03	52669.08
674.17	52530.98
674.31	52119.05
674.45	51819.46
674.59	51798.40
674.73	52207.99
674.87	51700.09
675.01	51711.80
675.15	51976.28
675.29	51760.95
675.43	51454.34
675.56	51416.89
675.70	51428.59
675.84	51597.11
675.98	50192.79
676.12	51187.52
676.26	51456.68
676.40	51037.72
676.54	51068.15
676.68	51114.96
676.82	50490.04
676.96	50550.89
677.10	50756.86
677.23	50216.19
677.37	50183.43
677.51	50218.53
677.65	50085.12
677.79	49380.62
677.93	49446.16
678.07	49598.29
678.21	49303.38
678.34	49422.75
678.48	49099.76
678.62	49261.26
678.76	48837.62
678.90	48921.88
679.04	48956.99
679.18	49137.21
679.31	48076.94
679.45	48055.88
679.59	48608.25
679.73	48584.84
679.87	48264.19
680.00	48121.41
680.14	47437.98
680.28	47838.21
680.42	47615.86
680.56	47445.00
680.70	46710.07
680.83	47426.28
680.97	47131.37
681.11	47484.79
681.25	46672.62
681.39	46717.09
681.52	46686.67
681.66	46403.46
681.80	46307.50
681.94	46286.43
682.07	46476.02
682.21	45823.01
682.35	45839.39
682.49	45958.76
682.62	45911.95
682.76	46021.95
682.90	45525.76
683.04	45500.01
683.17	45518.74
683.31	44809.56
683.45	44573.16
683.59	44985.10
683.72	44044.20
683.86	44271.23
684.00	44795.51
684.13	44292.30
684.27	44247.83
684.41	44203.36
684.55	43927.17
684.68	43957.60
684.82	43859.30
684.96	43349.06
685.09	43283.53
685.23	42792.01
685.37	42649.24
685.50	42866.91
685.64	42700.73
685.78	42986.28
685.91	42593.07
686.05	42007.94
686.19	41853.46
686.32	41471.95
686.46	41270.67
686.60	41214.49
686.73	41233.22
686.87	40900.86
687.01	41528.13
687.14	41134.92
687.28	40851.71
687.42	40502.97
687.55	40151.89
687.69	40704.26
687.82	40526.38
687.96	40025.50
688.10	39681.44
688.23	40041.88
688.37	39541.01
688.50	39189.93
688.64	39407.60
688.78	39599.52
688.91	38976.94
689.05	38398.83
689.18	38829.49
689.32	38607.14
689.46	38326.27
689.59	37975.19
689.73	38281.80
689.86	37647.52
690.00	37567.94
690.13	37937.74
690.27	37715.39
690.41	37504.74
690.54	37156.00
690.68	37092.81
690.81	37024.93
690.95	37177.07
691.08	36767.48
691.22	36282.98
691.35	36301.71
691.49	36430.44
691.62	36252.56
691.76	36165.96
691.89	35777.43
692.03	35543.38
692.16	35737.64
692.30	35297.62
692.43	35590.19
692.57	35150.17
692.70	34976.97
692.84	34782.70
692.97	35187.61
693.11	34668.02
693.24	34600.14
693.38	34841.21
693.51	33790.31
693.65	34150.76
693.78	33912.02
693.92	33766.91
694.05	33682.65
694.19	33289.44
694.32	33834.78
694.45	33137.30
694.59	32917.29
694.72	32699.62
694.86	32891.55
694.99	32147.26
695.13	32517.06
695.26	32151.94
695.39	31702.56
695.53	31681.49
695.66	31899.16
695.80	31852.35
695.93	31346.79
696.07	31482.55
696.20	31019.12
696.33	31091.68
696.47	30838.90
696.60	31112.74
696.73	30438.67
696.87	30555.69
697.00	30431.65
697.14	30328.66
697.27	30281.85
697.40	30366.11
697.54	30249.08
697.67	29729.48
697.80	29909.71
697.94	29387.77
698.07	29207.55
698.21	29074.13
698.34	29507.13
698.47	28748.80
698.61	28535.81
698.74	28727.74
698.87	28666.88
699.01	27974.08
699.14	28446.87
699.27	28610.71
699.40	28130.90
699.54	27875.78
699.67	28182.39
699.80	27707.26
699.94	27513.00
700.07	27779.82
700.20	27051.91
700.34	27344.48
700.47	26764.03
700.60	26862.33
700.73	26464.44
700.87	26249.11
701.00	26045.48
701.13	26288.90
701.26	25818.45
701.40	25921.43
701.53	25795.04
701.66	25883.98
701.79	25432.26
701.93	25156.08
702.06	25085.86
702.19	24959.47
702.32	25273.10
702.46	24755.85
702.59	24439.87
702.72	24460.94
702.85	24453.92
702.99	24952.45
703.12	24718.40
703.25	24128.58
703.38	23920.28
703.51	23814.95
703.65	23826.65
703.78	23585.58
703.91	23456.85
704.04	23597.28
704.17	23393.65
704.31	23412.38
704.44	22637.66
704.57	22684.47
704.70	22735.96
704.83	22991.08
704.96	22637.66
705.10	22508.93
705.23	22239.77
>>>>>End Processed Spectral Data<<<<<
