SpectraSuite Data File
++++++++++++++++++++++++++++++++++++
Date: Fri Oct 25 11:23:35 EDT 2013
User: price-jones
Dark Spectrum Present: No
Reference Spectrum Present: No
Number of Sampled Component Spectra: 1
Spectrometers: USB2+H05261
Integration Time (usec): 100000 (USB2+H05261)
Spectra Averaged: 1 (USB2+H05261)
Boxcar Smoothing: 0 (USB2+H05261)
Correct for Electrical Dark: No (USB2+H05261)
Strobe/Lamp Enabled: No (USB2+H05261)
Correct for Detector Non-linearity: No (USB2+H05261)
Correct for Stray Light: No (USB2+H05261)
Number of Pixels in Processed Spectrum: 2048
>>>>>Begin Processed Spectral Data<<<<<
365.73	231.71
365.92	231.71
366.12	231.71
366.32	220.01
366.52	156.82
366.72	156.82
366.91	138.09
367.11	149.79
367.31	131.07
367.51	156.82
367.70	91.28
367.90	102.98
368.10	79.58
368.30	86.60
368.49	110.01
368.69	182.56
368.89	154.48
369.09	100.64
369.28	142.77
369.48	131.07
369.68	128.73
369.87	184.90
370.07	191.92
370.27	212.99
370.47	330.02
370.66	627.26
370.86	608.54
371.06	655.35
371.25	711.52
371.45	641.31
371.65	720.88
371.84	732.59
372.04	636.63
372.24	730.25
372.44	622.58
372.63	777.06
372.83	828.55
373.03	734.93
373.22	704.50
373.42	755.99
373.62	732.59
373.81	788.76
374.01	758.33
374.21	842.59
374.40	784.08
374.60	777.06
374.79	882.38
374.99	854.30
375.19	849.61
375.38	821.53
375.58	833.23
375.78	814.51
375.97	919.83
376.17	957.28
376.37	844.93
376.56	781.74
376.76	854.30
376.95	957.28
377.15	835.57
377.35	866.00
377.54	915.15
377.74	926.85
377.93	894.08
378.13	889.40
378.33	898.77
378.52	912.81
378.72	961.96
378.91	1011.11
379.11	912.81
379.31	819.19
379.50	861.32
379.70	1001.75
379.89	959.62
380.09	922.17
380.28	1027.50
380.48	1060.26
380.68	999.41
380.87	1020.47
381.07	1011.11
381.26	1032.18
381.46	1004.09
381.65	978.34
381.85	1039.20
382.04	1046.22
382.24	1006.43
382.43	1104.73
382.63	1088.35
382.83	1032.18
383.02	1137.50
383.22	1137.50
383.41	983.02
383.61	1076.65
383.80	1121.12
384.00	1083.67
384.19	992.39
384.39	1135.16
384.58	1118.78
384.78	1100.05
384.97	1156.22
385.17	1177.29
385.36	1121.12
385.56	1235.80
385.75	1188.99
385.95	1228.78
386.14	1249.85
386.34	1177.29
386.53	1205.38
386.72	1219.42
386.92	1217.08
387.11	1275.59
387.31	1277.93
387.50	1331.76
387.70	1261.55
387.89	1322.40
388.09	1284.95
388.28	1249.85
388.48	1268.57
388.67	1315.38
388.86	1320.06
389.06	1350.49
389.25	1357.51
389.45	1411.34
389.64	1313.04
389.84	1355.17
390.03	1411.34
390.22	1401.98
390.42	1331.76
390.61	1427.73
390.81	1423.05
391.00	1406.66
391.19	1453.47
391.39	1446.45
391.58	1448.79
391.78	1486.24
391.97	1462.83
392.16	1558.80
392.36	1497.94
392.55	1556.46
392.75	1563.48
392.94	1458.15
393.13	1509.65
393.33	1535.39
393.52	1547.09
393.71	1554.12
393.91	1549.43
394.10	1542.41
394.29	1565.82
394.49	1727.32
394.68	1591.56
394.88	1657.10
395.07	1694.55
395.26	1619.65
395.46	1629.01
395.65	1696.89
395.84	1621.99
396.04	1806.89
396.23	1823.28
396.42	1743.70
396.62	1863.07
396.81	1792.85
397.00	1799.87
397.19	1851.36
397.39	1764.76
397.58	1858.39
397.77	1802.21
397.97	1827.96
398.16	1858.39
398.35	1804.55
398.55	1851.36
398.74	1923.92
398.93	1959.03
399.12	1870.09
399.32	1926.26
399.51	1792.85
399.70	1942.64
399.90	1867.75
400.09	2010.52
400.28	2052.65
400.47	1944.99
400.67	2115.84
400.86	2073.71
401.05	2153.29
401.24	2073.71
401.44	2099.46
401.63	2120.53
401.82	2150.95
402.01	2062.01
402.21	2216.49
402.40	2211.81
402.59	2239.89
402.78	2155.63
402.97	2258.62
403.17	2277.34
403.36	2267.98
403.55	2303.09
403.74	2436.50
403.93	2394.37
404.13	2368.62
404.32	2270.32
404.51	2427.14
404.70	2326.49
404.89	2408.41
405.09	2429.48
405.28	2551.18
405.47	2450.54
405.66	2471.61
405.85	2413.09
406.05	2630.76
406.24	2548.84
406.43	2661.19
406.62	2576.93
406.81	2537.14
407.00	2551.18
407.20	2553.52
407.39	2569.91
407.58	2731.41
407.77	2789.92
407.96	2794.60
408.15	2843.75
408.34	2832.05
408.54	2794.60
408.73	2799.28
408.92	2787.58
409.11	2906.95
409.30	2850.77
409.49	2902.26
409.68	2911.63
409.87	3019.29
410.07	2960.78
410.26	3101.21
410.45	2881.20
410.64	3075.46
410.83	3101.21
411.02	3082.49
411.21	3056.74
411.40	3159.72
411.59	3311.86
411.78	3187.81
411.98	3239.30
412.17	3307.18
412.36	3386.76
412.55	3276.75
412.74	3447.61
412.93	3421.86
413.12	3323.56
413.31	3496.76
413.50	3375.05
413.69	3433.57
413.88	3676.98
414.07	3592.72
414.26	3646.55
414.45	3618.47
414.64	3693.37
414.83	3747.20
415.02	3843.16
415.22	3885.29
415.41	3967.21
415.60	3918.06
415.79	4016.36
415.98	3971.89
416.17	3974.23
416.36	4053.81
416.55	4152.11
416.74	4063.17
416.93	3941.46
417.12	4117.00
417.31	4248.07
417.50	4163.81
417.69	4238.71
417.88	4346.37
418.07	4311.27
418.26	4241.05
418.45	4369.78
418.64	4552.34
418.83	4496.17
419.02	4379.14
419.21	4447.02
419.39	4531.28
419.58	4498.51
419.77	4631.92
419.96	4479.79
420.15	4683.41
420.34	4641.28
420.53	4657.67
420.72	4702.14
420.91	4587.45
421.10	4681.07
421.29	4800.44
421.48	4699.80
421.67	4741.93
421.86	4809.80
422.05	4807.46
422.24	4805.12
422.43	4812.14
422.61	4887.04
422.80	4933.85
422.99	4954.91
423.18	4954.91
423.37	4877.68
423.56	4945.55
423.75	5027.47
423.94	4863.63
424.13	4575.75
424.32	4730.22
424.50	5025.13
424.69	5217.05
424.88	5111.73
425.07	5034.49
425.26	4961.94
425.45	4978.32
425.64	5041.51
425.83	5064.92
426.01	5048.54
426.20	5132.79
426.39	5074.28
426.58	5128.11
426.77	5064.92
426.96	4987.68
427.15	4973.64
427.33	5224.08
427.52	5259.18
427.71	5273.23
427.90	5219.39
428.09	5277.91
428.28	5282.59
428.46	5394.93
428.65	5526.00
428.84	5542.39
429.03	5624.31
429.22	5301.31
429.40	5390.25
429.59	5479.19
429.78	5217.05
429.97	5430.04
430.16	5458.13
430.34	5654.73
430.53	5610.26
430.72	5792.83
430.91	5575.16
431.10	5628.99
431.28	5689.84
431.47	5851.34
431.66	5933.26
431.85	5849.00
432.03	6104.12
432.22	5961.34
432.41	5813.89
432.60	5994.11
432.79	5774.10
432.97	5907.51
433.16	6113.48
433.35	5980.07
433.54	6132.20
433.72	5989.43
433.91	6190.72
434.10	6214.12
434.28	6022.20
434.47	6244.55
434.66	6155.61
434.85	6450.52
435.03	6560.52
435.22	6249.23
435.41	6368.60
435.59	6417.75
435.78	6340.51
435.97	6593.29
436.16	6387.32
436.34	6333.49
436.53	6633.08
436.72	6654.14
436.90	6569.88
437.09	6850.75
437.28	6537.12
437.46	6663.51
437.65	6672.87
437.84	6998.20
438.02	6771.17
438.21	6972.46
438.40	6651.80
438.58	7028.63
438.77	7014.59
438.96	7014.59
439.14	6953.73
439.33	7124.59
439.52	7208.85
439.70	7054.37
439.89	7414.82
440.08	7368.01
440.26	7473.33
440.45	7473.33
440.63	7358.64
440.82	7578.65
441.01	7386.73
441.19	7655.89
441.38	7695.68
441.57	7595.04
441.75	7871.22
441.94	8105.28
442.12	7974.21
442.31	8088.89
442.50	8093.57
442.68	8098.25
442.87	8140.38
443.05	8177.83
443.24	8226.98
443.43	8149.75
443.61	8217.62
443.80	8491.46
443.98	8063.15
444.17	7836.11
444.35	8145.06
444.54	8252.73
444.73	8226.98
444.91	8351.03
445.10	8517.21
445.28	8468.06
445.47	8252.73
445.65	8461.04
445.84	8430.61
446.02	8463.38
446.21	8344.01
446.39	8332.31
446.58	8564.02
446.77	8325.29
446.95	8236.35
447.14	8231.66
447.32	8510.19
447.51	8512.53
447.69	8456.36
447.88	8592.11
448.06	8629.56
448.25	8454.02
448.43	8587.43
448.62	8629.56
448.80	8711.47
448.99	8840.20
449.17	8662.32
449.36	8573.38
449.54	8898.72
449.73	8896.38
449.91	9107.02
450.10	9041.49
450.28	9170.22
450.46	9100.00
450.65	9097.66
450.83	9036.81
451.02	9179.58
451.20	9041.49
451.39	9188.94
451.57	9341.08
451.76	9137.45
451.94	9212.35
452.13	9362.14
452.31	9364.48
452.49	9036.81
452.68	9502.58
452.86	9408.95
453.05	9322.35
453.23	9472.15
453.42	9397.25
453.60	9444.06
453.78	9458.10
453.97	9540.02
454.15	9654.71
454.34	9530.66
454.52	9645.35
454.70	9589.17
454.89	9762.37
455.07	9886.42
455.26	9844.29
455.44	10003.45
455.62	10029.20
455.81	9764.72
455.99	10064.30
456.17	10141.54
456.36	9987.07
456.54	10157.92
456.73	10373.25
456.91	10590.92
457.09	10324.10
457.28	10530.07
457.46	10305.38
457.64	10473.90
457.83	10668.16
458.01	10286.65
458.19	10839.02
458.38	10399.00
458.56	10600.29
458.74	10815.62
458.93	10747.74
459.11	10853.06
459.29	10801.57
459.48	10839.02
459.66	10810.93
459.84	11117.54
460.03	11026.26
460.21	11129.25
460.39	10991.16
460.57	11082.44
460.76	11176.06
460.94	11293.08
461.12	11220.53
461.31	11183.08
461.49	11098.82
461.67	11213.51
461.85	11365.64
462.04	11358.62
462.22	11875.88
462.40	11492.03
462.59	11393.73
462.77	11482.67
462.95	11524.80
463.13	11688.64
463.32	11576.29
463.50	11838.43
463.68	11896.94
463.86	11822.05
464.05	11559.91
464.23	11545.86
464.41	11751.83
464.59	11803.32
464.78	12241.00
464.96	11906.31
465.14	11763.53
465.32	12226.96
465.50	12418.88
465.69	12154.40
465.87	12358.03
466.05	12100.57
466.23	12383.77
466.41	12498.46
466.60	12477.40
466.78	12210.57
466.96	12191.85
467.14	12135.68
467.32	12585.06
467.51	12573.36
467.69	12327.60
467.87	12578.04
468.05	12681.02
468.23	12416.54
468.41	12613.15
468.60	12807.41
468.78	12786.35
468.96	12479.74
469.14	13074.23
469.32	13069.55
469.50	12800.39
469.69	13209.98
469.87	12959.55
470.05	13198.28
470.23	13308.29
470.41	13078.91
470.59	13565.74
470.77	13273.18
470.95	13256.79
471.14	13427.65
471.32	13252.11
471.50	13411.27
471.68	13804.48
471.86	13500.21
472.04	13776.39
472.22	14083.00
472.40	13891.08
472.58	13881.72
472.77	14150.88
472.95	14342.80
473.13	14569.83
473.31	14104.07
473.49	14279.61
473.67	14293.65
473.85	14237.48
474.03	14881.13
474.21	14750.06
474.39	14843.68
474.57	14857.72
474.75	14944.32
474.93	14918.57
475.12	15122.20
475.30	14939.64
475.48	15199.44
475.66	15382.00
475.84	15248.59
476.02	15548.18
476.20	15344.55
476.38	15796.28
476.56	16107.57
476.74	16060.76
476.92	15779.89
477.10	15894.58
477.28	16133.31
477.46	16266.72
477.64	16451.63
477.82	16503.12
478.00	16800.37
478.18	16966.54
478.36	16966.54
478.54	17132.72
478.72	17146.76
478.90	17387.84
479.08	17469.76
479.26	17862.97
479.44	17752.96
479.62	17865.31
479.80	18033.83
479.98	18260.86
480.16	18520.66
480.34	18291.29
480.52	18642.37
480.70	18787.48
480.88	18218.73
481.06	18834.29
481.24	18941.96
481.41	19007.49
481.59	19248.57
481.77	19585.60
481.95	19721.35
482.13	19852.42
482.31	19669.86
482.49	20428.20
482.67	20374.36
482.85	20570.97
483.03	20622.46
483.21	21027.37
483.39	20695.02
483.57	20519.48
483.74	21113.97
483.92	21514.20
484.10	21315.26
484.28	21659.32
484.46	22071.25
484.64	22560.42
484.82	22221.05
485.00	22391.91
485.18	22518.29
485.35	23325.78
485.53	22724.26
485.71	23061.30
485.89	23405.36
486.07	23236.84
486.25	23805.59
486.43	23693.24
486.61	23962.40
486.78	24100.50
486.96	24374.34
487.14	24767.55
487.32	24737.12
487.50	25050.75
487.68	25029.69
487.85	25317.57
488.03	25504.82
488.21	25862.92
488.39	25853.56
488.57	26190.59
488.75	26214.00
488.92	26455.08
489.10	26948.93
489.28	26998.08
489.46	27218.09
489.64	27012.12
489.81	27634.71
489.99	27721.30
490.17	28048.98
490.35	28341.55
490.53	28355.59
490.70	28458.57
490.88	28400.06
491.06	28690.29
491.24	28676.24
491.41	29230.95
491.59	29326.91
491.77	29579.69
491.95	29687.36
492.13	29649.91
492.30	30160.14
492.48	29961.20
492.66	30209.29
492.84	30649.32
493.01	30789.75
493.19	30864.64
493.37	31189.98
493.54	31007.42
493.72	31744.69
493.90	31676.81
494.08	32196.41
494.25	32081.72
494.43	32264.28
494.61	32285.35
494.79	32921.98
494.96	32718.35
495.14	32636.43
495.32	33546.90
495.49	33305.82
495.67	33254.33
495.85	33441.57
496.02	33577.33
496.20	33802.02
496.38	34012.66
496.55	34071.18
496.73	35168.89
496.91	34763.98
497.09	34712.49
497.26	35161.87
497.44	35012.07
497.62	35140.80
497.79	35826.58
497.97	35489.54
498.14	36140.21
498.32	36563.85
498.50	36392.99
498.67	36268.94
498.85	36624.70
499.03	36666.83
499.20	37010.89
499.38	36903.23
499.56	37144.30
499.73	37181.75
499.91	37553.90
500.08	37956.47
500.26	37535.17
500.44	37654.54
500.61	37989.24
500.79	37825.40
500.97	38230.31
501.14	38845.87
501.32	38693.74
501.49	38829.49
501.67	38955.88
501.84	39042.48
502.02	38967.58
502.20	38817.78
502.37	39339.72
502.55	39386.54
502.72	39604.20
502.90	39966.99
503.07	39618.25
503.25	40383.60
503.43	39908.47
503.60	39934.22
503.78	40486.59
503.95	40100.40
504.13	40509.99
504.30	40589.57
504.48	40835.33
504.65	41043.63
504.83	41359.61
505.01	41584.30
505.18	41429.82
505.36	41577.28
505.53	41394.71
505.71	41518.76
505.88	42078.15
506.06	41888.57
506.23	42000.91
506.41	41926.02
506.58	42579.03
506.76	42265.39
506.93	42820.10
507.11	42312.20
507.28	42801.38
507.46	43129.05
507.63	43035.43
507.81	43026.07
507.98	42808.40
508.16	43632.27
508.33	43562.05
508.50	43407.58
508.68	43838.23
508.85	43681.42
509.03	43955.26
509.20	43842.92
509.38	44252.51
509.55	44598.91
509.73	44521.67
509.90	44589.55
510.08	44589.55
510.25	44935.95
510.42	44914.88
510.60	45123.19
510.77	45563.21
510.95	45368.94
511.12	45301.07
511.30	45413.41
511.47	45530.44
511.64	45387.67
511.82	46176.43
511.99	45691.94
512.17	46101.53
512.34	46150.68
512.51	46246.65
512.69	46270.05
512.86	46497.08
513.04	46932.42
513.21	46571.98
513.38	46841.14
513.56	47007.32
513.73	47021.36
513.90	47512.88
514.08	47047.11
514.25	47555.00
514.43	47648.63
514.60	47744.59
514.77	47683.73
514.95	47945.87
515.12	47906.08
515.29	47718.84
515.47	48039.50
515.64	47889.70
515.81	48025.45
515.99	48795.49
516.16	48961.67
516.33	48385.89
516.51	49338.49
516.68	48432.71
516.85	48402.28
517.03	48664.42
517.20	49209.76
517.37	49179.34
517.54	49212.10
517.72	49228.49
517.89	49275.30
518.06	49546.80
518.24	49425.09
518.41	49315.09
518.58	49593.61
518.75	49418.07
518.93	49762.13
519.10	49731.70
519.27	50085.12
519.45	50071.08
519.62	49982.14
519.79	49947.03
519.96	49979.80
520.14	50377.69
520.31	50019.59
520.48	50731.11
520.65	50632.81
520.83	50728.77
521.00	50983.89
521.17	50848.14
521.34	50583.66
521.52	50855.16
521.69	50813.03
521.86	50927.72
522.03	51297.52
522.20	51409.87
522.38	51459.02
522.55	51576.04
522.72	51320.93
522.89	51632.22
523.07	51683.71
523.24	51444.98
523.41	51985.64
523.58	51821.80
523.75	51779.67
523.92	51910.74
524.10	51922.44
524.27	52032.45
524.44	52336.72
524.61	52114.37
524.78	52299.27
524.96	52163.52
525.13	52175.22
525.30	52493.54
525.47	52657.37
525.64	52456.09
525.81	52882.06
525.98	52619.92
526.16	52582.48
526.33	52645.67
526.50	53104.41
526.67	53045.90
526.84	52959.30
527.01	53038.88
527.18	53165.27
527.36	53095.05
527.53	52971.00
527.70	53385.28
527.87	53434.43
528.04	53113.78
528.21	53357.19
528.38	53251.87
528.55	53635.72
528.72	53394.64
528.89	53492.94
529.07	53762.11
529.24	53565.50
529.41	53542.10
529.58	53759.76
529.75	53525.71
529.92	53764.45
530.09	53783.17
530.26	54075.74
530.43	53895.52
530.60	53900.20
530.77	53932.96
530.94	54246.60
531.11	54099.14
531.28	54358.94
531.46	54272.34
531.63	54506.40
531.80	54274.68
531.97	54307.45
532.14	54417.46
532.31	54328.52
532.48	54410.43
532.65	54576.61
532.82	54508.74
532.99	55040.04
533.16	54623.42
533.33	54981.52
533.50	54906.63
533.67	55061.10
533.84	54578.95
534.01	55084.51
534.18	55058.76
534.35	55152.38
534.52	55033.02
534.69	55297.50
534.86	55372.39
535.03	55028.34
535.20	55564.32
535.37	55540.91
535.54	55557.30
535.71	55306.86
535.88	55327.92
536.05	55428.57
536.22	55767.94
536.38	55538.57
536.55	55824.12
536.72	55613.47
536.89	55501.12
537.06	55669.64
537.23	55941.14
537.40	55716.45
537.57	55739.86
537.74	55821.78
537.91	56109.66
538.08	56076.90
538.25	55700.07
538.42	55938.80
538.59	56175.20
538.75	55884.97
538.92	56041.79
539.09	56114.34
539.26	56439.68
539.43	56002.00
539.60	56193.92
539.77	56369.46
539.94	56587.13
540.11	56554.36
540.28	56549.68
540.44	56500.53
540.61	56552.02
540.78	56413.93
540.95	56549.68
541.12	56701.82
541.29	56378.82
541.46	56767.35
541.62	56673.73
541.79	57022.47
541.96	56442.02
542.13	56474.79
542.30	56893.74
542.47	57205.03
542.63	56966.30
542.80	56912.47
542.97	57235.46
543.14	57291.63
543.31	57432.07
543.48	57441.43
543.64	57450.79
543.81	57432.07
543.98	57422.70
544.15	57366.53
544.32	57579.52
544.48	57581.86
544.65	57509.30
544.82	57476.54
544.99	57326.74
545.16	57563.14
545.32	57556.11
545.49	57682.50
545.66	57818.25
545.83	57783.15
546.00	57696.55
546.16	57848.68
546.33	57572.50
546.50	57691.86
546.67	57705.91
546.83	57546.75
547.00	58150.61
547.17	57930.60
547.34	57977.41
547.50	58049.97
547.67	58185.72
547.84	58122.52
548.00	58328.49
548.17	58344.87
548.34	58061.67
548.51	58326.15
548.67	58232.53
548.84	58251.25
549.01	58092.10
549.18	58101.46
549.34	58349.56
549.51	58571.91
549.68	58578.93
549.84	58405.73
550.01	58569.57
550.18	58379.98
550.34	58513.39
550.51	58724.04
550.68	58550.84
550.84	58379.98
551.01	58625.74
551.18	58590.63
551.34	58628.08
551.51	58618.72
551.68	58520.41
551.84	58632.76
552.01	58599.99
552.18	58721.70
552.34	58623.40
552.51	58702.98
552.68	58782.55
552.84	58777.87
553.01	59056.40
553.18	58827.02
553.34	58934.69
553.51	58796.60
553.67	58822.34
553.84	58829.37
554.01	58892.56
554.17	59203.85
554.34	59086.82
554.51	59072.78
554.67	59288.11
554.84	59072.78
555.00	59173.42
555.17	59150.02
555.33	59180.45
555.50	59093.85
555.67	58904.26
555.83	59201.51
556.00	59337.26
556.16	59426.20
556.33	59299.81
556.50	59292.79
556.66	59253.00
556.83	59096.19
556.99	59461.31
557.16	59545.57
557.32	59737.49
557.49	59655.57
557.65	59355.99
557.82	59381.73
557.98	59487.06
558.15	59491.74
558.32	59664.94
558.48	59365.35
558.65	59501.10
558.81	59620.47
558.98	59716.43
559.14	59678.98
559.31	59847.50
559.47	59543.23
559.64	59913.03
559.80	59470.67
559.97	60030.06
560.13	59608.76
560.30	59753.88
560.46	59873.24
560.63	59756.22
560.79	59760.90
560.96	60004.31
561.12	59985.59
561.29	59831.11
561.45	59920.05
561.61	59955.16
561.78	59901.33
561.94	60144.75
562.11	59955.16
562.27	59934.10
562.44	59896.65
562.60	60306.24
562.77	60102.62
562.93	59831.11
563.10	60334.33
563.26	60076.87
563.42	60299.22
563.59	59976.23
563.75	60100.28
563.92	60011.34
564.08	59924.74
564.24	60381.14
564.41	60233.69
564.57	60243.05
564.74	60362.42
564.90	60156.45
565.07	60191.56
565.23	60250.07
565.39	60355.39
565.56	60097.94
565.72	60074.53
565.88	60076.87
566.05	60214.96
566.21	60221.98
566.38	60441.99
566.54	60430.29
566.70	60383.48
566.87	60411.57
567.03	60257.09
567.19	60697.11
567.36	60224.32
567.52	60336.67
567.68	60692.43
567.85	60418.59
568.01	60561.36
568.17	60327.31
568.34	60416.25
568.50	60229.01
568.66	60446.68
568.83	60364.76
568.99	60287.52
569.15	60439.65
569.32	60650.30
569.48	60598.81
569.64	60362.42
569.81	60566.04
569.97	60399.86
570.13	60509.87
570.30	60383.48
570.46	60512.21
570.62	60654.98
570.78	60650.30
570.95	60664.35
571.11	60851.59
571.27	60610.51
571.43	60519.23
571.60	60788.39
571.76	60757.97
571.92	60697.11
572.09	60743.92
572.25	60762.65
572.41	60615.19
572.57	60748.60
572.74	60903.08
572.90	60657.32
573.06	60652.64
573.22	60659.66
573.38	60772.01
573.55	60750.94
573.71	60804.78
573.87	60886.70
574.03	60706.47
574.20	60622.22
574.36	60683.07
574.52	60844.57
574.68	60956.91
574.84	60863.29
575.01	60886.70
575.17	60828.18
575.33	60781.37
575.49	60842.23
575.65	60940.53
575.82	60811.80
575.98	60713.50
576.14	61062.24
576.30	61038.83
576.46	60877.33
576.62	60786.05
576.79	60769.67
576.95	60704.13
577.11	61132.45
577.27	60931.17
577.43	60907.76
577.59	60856.27
577.75	60860.95
577.92	60924.14
578.08	60959.25
578.24	60999.04
578.40	61010.74
578.56	61020.11
578.72	60825.84
578.88	60975.64
579.04	61146.50
579.21	60954.57
579.37	61188.63
579.53	61151.18
579.69	60678.39
579.85	60949.89
580.01	60839.89
580.17	60921.80
580.33	60912.44
580.49	61092.66
580.65	61176.92
580.82	60874.99
580.98	60851.59
581.14	61137.13
581.30	60985.00
581.46	60919.46
581.62	61130.11
581.78	60966.27
581.94	61048.19
582.10	61057.56
582.26	60893.72
582.42	60853.93
582.58	60779.03
582.74	61010.74
582.90	60870.31
583.06	60973.30
583.22	60910.10
583.38	61029.47
583.54	61008.40
583.70	61221.39
583.86	60912.44
584.02	60851.59
584.18	61048.19
584.34	61013.08
584.50	61073.94
584.66	61097.34
584.82	60877.33
584.98	61425.02
585.14	61277.57
585.30	60926.49
585.46	61090.32
585.62	61188.63
585.78	61244.80
585.94	60926.49
586.10	61062.24
586.26	61375.87
586.42	61125.43
586.58	61064.58
586.74	61073.94
586.90	60996.70
587.06	61020.11
587.22	61291.61
587.38	61130.11
587.54	61244.80
587.70	61329.06
587.86	61151.18
588.02	60992.02
588.18	61272.88
588.34	61097.34
588.49	61097.34
588.65	61099.68
588.81	61055.21
588.97	61228.41
589.13	61338.42
589.29	61375.87
589.45	61265.86
589.61	61174.58
589.77	61535.02
589.93	61359.48
590.08	61579.49
590.24	61415.66
590.40	61542.05
590.56	61488.21
590.72	61464.81
590.88	61312.67
591.04	61293.95
591.20	61616.94
591.35	61647.37
591.51	61656.73
591.67	61549.07
591.83	61506.94
591.99	61483.53
592.15	61333.74
592.31	61600.56
592.46	61441.40
592.62	61542.05
592.78	61286.93
592.94	61666.09
593.10	61488.21
593.26	61750.35
593.41	61497.58
593.57	61530.34
593.73	61551.41
593.89	61766.74
594.05	61560.77
594.20	61488.21
594.36	61717.59
594.52	61675.46
594.68	61347.78
594.84	61446.08
594.99	61598.22
595.15	61638.01
595.31	61656.73
595.47	61511.62
595.62	61460.13
595.78	61640.35
595.94	61579.49
596.10	61818.23
596.25	61668.44
596.41	61740.99
596.57	61666.09
596.73	61750.35
596.88	61453.11
597.04	61703.54
597.20	61797.16
597.36	61731.63
597.51	61900.15
597.67	61453.11
597.83	61413.32
597.99	61511.62
598.14	61705.88
598.30	61815.89
598.46	61726.95
598.61	61764.40
598.77	61717.59
598.93	61710.56
599.09	61581.84
599.24	61886.10
599.40	61855.68
599.56	61890.79
599.71	61759.72
599.87	62162.29
600.03	61766.74
600.18	61729.29
600.34	61876.74
600.50	62026.54
600.65	61886.10
600.81	61731.63
600.97	61855.68
601.12	61846.32
601.28	61729.29
601.44	61762.06
601.59	61876.74
601.75	61661.41
601.91	62195.06
602.06	61993.77
602.22	62096.75
602.37	61696.52
602.53	61918.87
602.69	61811.21
602.84	61916.53
603.00	61806.53
603.16	61876.74
603.31	61860.36
603.47	62038.24
603.62	61780.78
603.78	61825.25
603.94	61811.21
604.09	61827.59
604.25	61799.50
604.40	61846.32
604.56	61855.68
604.71	62031.22
604.87	61499.92
605.03	61778.44
605.18	62028.88
605.34	61851.00
605.49	61769.08
605.65	61801.85
605.80	61804.19
605.96	61930.58
606.12	61890.79
606.27	61918.87
606.43	61801.85
606.58	61743.33
606.74	61705.88
606.89	61759.72
607.05	61759.72
607.20	61942.28
607.36	61630.99
607.51	61832.27
607.67	61549.07
607.82	61661.41
607.98	61689.50
608.13	61719.93
608.29	61932.92
608.44	61724.61
608.60	61619.28
608.75	61759.72
608.91	61593.54
609.06	61605.24
609.22	61825.25
609.37	61406.30
609.53	61879.08
609.68	61673.12
609.84	61858.02
609.99	61619.28
610.15	61712.91
610.30	61792.48
610.46	61813.55
610.61	61623.96
610.76	61640.35
610.92	61509.28
611.07	61605.24
611.23	61492.89
611.38	61740.99
611.54	61689.50
611.69	61642.69
611.84	61825.25
612.00	61616.94
612.15	61530.34
612.31	61497.58
612.46	61530.34
612.62	61759.72
612.77	61661.41
612.92	61790.14
613.08	61572.47
613.23	61598.22
613.39	61563.11
613.54	61324.38
613.69	61614.60
613.85	61399.27
614.00	61602.90
614.15	61750.35
614.31	61333.74
614.46	61680.14
614.62	61600.56
614.77	61492.89
614.92	61446.08
615.08	61361.82
615.23	61366.51
615.38	61577.15
615.54	61354.80
615.69	61546.73
615.84	61347.78
616.00	61553.75
616.15	61455.45
616.30	61375.87
616.46	61312.67
616.61	61123.09
616.76	61368.85
616.92	61265.86
617.07	61277.57
617.22	61195.65
617.37	61256.50
617.53	61577.15
617.68	61453.11
617.83	61371.19
617.99	61317.35
618.14	61385.23
618.29	61310.33
618.45	61155.86
618.60	61109.05
618.75	61396.93
618.90	61254.16
619.06	61109.05
619.21	61179.26
619.36	61352.46
619.51	61340.76
619.67	61186.28
619.82	61034.15
619.97	61113.73
620.12	61179.26
620.28	60996.70
620.43	61106.71
620.58	61076.28
620.73	60907.76
620.89	61034.15
621.04	61282.25
621.19	61123.09
621.34	60945.21
621.49	60900.74
621.65	61036.49
621.80	61179.26
621.95	60860.95
622.10	61095.00
622.25	60886.70
622.41	61024.79
622.56	60917.12
622.71	60886.70
622.86	60825.84
623.01	60872.65
623.16	60605.83
623.32	60865.63
623.47	61029.47
623.62	60926.49
623.77	60956.91
623.92	60823.50
624.07	61272.88
624.23	60867.97
624.38	60809.46
624.53	60676.05
624.68	60669.03
624.83	60970.96
624.98	60973.30
625.13	60788.39
625.29	60713.50
625.44	60776.69
625.59	60643.28
625.74	60502.85
625.89	60495.83
626.04	60561.36
626.19	60521.57
626.34	60528.59
626.49	60580.09
626.65	60346.03
626.80	60608.17
626.95	60350.71
627.10	60364.76
627.25	60376.46
627.40	60308.58
627.55	60334.33
627.70	60449.02
627.85	60367.10
628.00	60348.37
628.15	60343.69
628.30	60376.46
628.45	60353.05
628.60	60165.81
628.76	60299.22
628.91	60542.64
629.06	60346.03
629.21	60413.91
629.36	60210.28
629.51	60299.22
629.66	60247.73
629.81	60334.33
629.96	60074.53
630.11	60053.47
630.26	60149.43
630.41	60355.39
630.56	60264.11
630.71	60320.29
630.86	60247.73
631.01	60226.66
631.16	60292.20
631.31	59959.84
631.46	59824.09
631.61	60004.31
631.76	60109.64
631.91	60135.38
632.06	60030.06
632.21	60090.91
632.36	60158.79
632.51	59714.09
632.66	59870.90
632.81	59896.65
632.96	60123.68
633.10	59976.23
633.25	60083.89
633.40	59962.18
633.55	59889.63
633.70	59779.62
633.85	59891.97
634.00	59561.95
634.15	59587.70
634.30	59714.09
634.45	59957.50
634.60	59849.84
634.75	59891.97
634.90	59463.65
635.05	59657.91
635.19	59959.84
635.34	59824.09
635.49	59772.60
635.64	59854.52
635.79	59753.88
635.94	59613.44
636.09	59505.78
636.24	59484.72
636.39	59573.66
636.53	59529.19
636.68	59540.89
636.83	59568.97
636.98	59828.77
637.13	59412.16
637.28	59470.67
637.43	59437.90
637.57	59686.00
637.72	59519.82
637.87	59594.72
638.02	59442.59
638.17	59554.93
638.32	59451.95
638.46	59421.52
638.61	59262.36
638.76	59264.70
638.91	59379.39
639.06	59517.48
639.20	59217.89
639.35	59398.12
639.50	59147.68
639.65	59264.70
639.80	59353.65
639.94	59391.09
640.09	59320.88
640.24	59217.89
640.39	59257.68
640.54	59089.16
640.68	59381.73
640.83	59068.10
640.98	59147.68
641.13	58925.33
641.27	59386.41
641.42	59093.85
641.57	58946.39
641.72	58934.69
641.86	58948.73
642.01	59110.23
642.16	58930.01
642.31	58871.49
642.45	59325.56
642.60	58876.18
642.75	59217.89
642.90	59089.16
643.04	59091.51
643.19	58906.60
643.34	59028.31
643.48	59086.82
643.63	59049.38
643.78	58803.62
643.93	58761.49
644.07	58955.75
644.22	58836.39
644.37	58775.53
644.51	58482.97
644.66	58747.45
644.81	58915.96
644.95	58897.24
645.10	58883.20
645.25	58756.81
645.39	58506.37
645.54	58908.94
645.69	58663.19
645.83	58681.91
645.98	58649.14
646.13	58653.82
646.27	58761.49
646.42	58489.99
646.57	58712.34
646.71	58646.80
646.86	58782.55
647.00	58731.06
647.15	58459.56
647.30	58262.96
647.44	58527.44
647.59	58698.30
647.74	58604.67
647.88	58742.77
648.03	58644.46
648.17	58829.37
648.32	58440.84
648.47	58616.38
648.61	58506.37
648.76	58513.39
648.90	58471.26
649.05	58351.90
649.20	58482.97
649.34	58363.60
649.49	58181.04
649.63	58452.54
649.78	58553.18
649.92	58412.75
650.07	58642.12
650.21	58211.46
650.36	58356.58
650.51	58321.47
650.65	58443.18
650.80	58197.42
650.94	58237.21
651.09	58054.65
651.23	57895.49
651.38	58028.90
651.52	58017.20
651.67	57783.15
651.81	58073.37
651.96	57958.69
652.10	57925.92
652.25	57954.00
652.39	57918.90
652.54	57813.57
652.68	57733.99
652.83	57738.68
652.97	57909.53
653.12	57942.30
653.26	57996.13
653.41	57963.37
653.55	57993.79
653.70	57776.12
653.84	57991.45
653.99	57851.02
654.13	57750.38
654.27	57654.42
654.42	57663.78
654.56	57481.22
654.71	57675.48
654.85	57773.78
655.00	57872.09
655.14	57518.67
655.29	57670.80
655.43	57858.04
655.57	57572.50
655.72	57602.92
655.86	57598.24
656.01	57778.46
656.15	57364.19
656.30	57750.38
656.44	57846.34
656.58	57680.16
656.73	57701.23
656.87	57780.81
657.01	57485.90
657.16	57829.96
657.30	57331.42
657.45	57492.92
657.59	57240.14
657.73	56914.81
657.88	57169.93
658.02	57272.91
658.16	57291.63
658.31	57305.68
658.45	57310.36
658.60	57368.87
658.74	57256.53
658.88	57350.15
659.03	56811.82
659.17	57134.82
659.31	57230.78
659.46	57085.67
659.60	56900.76
659.74	56783.74
659.89	56865.66
660.03	56802.46
660.17	57083.33
660.32	56933.53
660.46	56715.86
660.60	56537.98
660.74	56659.69
660.89	56884.38
661.03	56589.47
661.17	56535.64
661.32	56074.55
661.46	56765.01
661.60	56793.10
661.74	56683.09
661.89	56493.51
662.03	56540.32
662.17	56463.08
662.31	56435.00
662.46	56622.24
662.60	56317.97
662.74	56079.24
662.88	56306.27
663.03	55978.59
663.17	56207.97
663.31	56030.08
663.45	56002.00
663.60	55840.50
663.74	55695.39
663.88	55856.88
664.02	55676.66
664.17	56060.51
664.31	55592.40
664.45	55814.76
664.59	55924.76
664.73	55618.15
664.88	55847.52
665.02	55061.10
665.16	55629.85
665.30	55489.42
665.44	55578.36
665.59	55360.69
665.73	55384.10
665.87	55430.91
666.01	55346.65
666.15	55346.65
666.29	55334.95
666.44	55430.91
666.58	55196.85
666.72	54915.99
666.86	54997.91
667.00	55077.49
667.14	54913.65
667.28	54763.85
667.43	54810.67
667.57	54827.05
667.71	54731.09
667.85	54677.25
667.99	54578.95
668.13	54658.53
668.27	54642.15
668.41	54347.24
668.56	54286.39
668.70	54424.48
668.84	54468.95
668.98	54454.90
669.12	54480.65
669.26	54380.01
669.40	54354.26
669.54	54321.49
669.68	54284.04
669.82	53890.83
669.96	54342.56
670.10	54190.42
670.25	54422.14
670.39	54197.44
670.53	54124.89
670.67	53773.81
670.81	54155.32
670.95	53996.16
671.09	53546.78
671.23	53488.26
671.37	53956.37
671.51	53888.49
671.65	53677.85
671.79	53736.36
671.93	53542.10
672.07	53462.52
672.21	53382.94
672.35	53015.47
672.49	52729.93
672.63	52755.68
672.77	52540.35
672.91	52800.15
673.05	52683.12
673.19	52491.19
673.33	52523.96
673.47	52332.04
673.61	52605.88
673.75	52629.29
673.89	51885.00
674.03	52200.97
674.17	52261.82
674.31	51796.06
674.45	51854.57
674.59	51653.28
674.73	52009.04
674.87	51873.29
675.01	51526.89
675.15	51430.93
675.29	51634.56
675.43	51707.12
675.56	51269.43
675.70	51229.65
675.84	51320.93
675.98	50209.17
676.12	51262.41
676.26	51110.28
676.40	50960.48
676.54	50908.99
676.68	50979.21
676.82	49975.12
676.96	50550.89
677.10	50284.07
677.23	49961.08
677.37	49879.16
677.51	49773.83
677.65	49471.90
677.79	49258.91
677.93	49219.13
678.07	49509.35
678.21	49235.51
678.34	48954.64
678.48	48982.73
678.62	48568.46
678.76	49191.04
678.90	48624.63
679.04	48456.11
679.18	48816.55
679.31	48165.88
679.45	47990.34
679.59	48137.80
679.73	48294.61
679.87	47437.98
680.00	47463.72
680.14	47143.07
680.28	47452.02
680.42	47236.69
680.56	46885.61
680.70	46726.46
680.83	47122.01
680.97	46890.29
681.11	47243.71
681.25	46890.29
681.39	46586.02
681.52	46859.87
681.66	46506.44
681.80	46167.07
681.94	46103.87
682.07	45794.92
682.21	45481.29
682.35	45258.94
682.49	45579.59
682.62	45359.58
682.76	45361.92
682.90	45404.05
683.04	45471.93
683.17	44987.44
683.31	44683.17
683.45	44758.06
683.59	45062.33
683.72	44128.46
683.86	43957.60
684.00	44219.74
684.13	43952.92
684.27	43959.94
684.41	44308.68
684.55	43948.24
684.68	43613.54
684.82	43711.84
684.96	42724.14
685.09	43166.50
685.23	42572.00
685.37	42717.12
685.50	42677.33
685.64	42454.98
685.78	42965.21
685.91	42600.09
686.05	41834.74
686.19	41432.16
686.32	41572.60
686.46	41003.85
686.60	40898.52
686.73	40980.44
686.87	41092.79
687.01	41116.19
687.14	40992.14
687.28	40830.65
687.42	40573.19
687.55	40472.54
687.69	40809.58
687.82	40301.68
687.96	39761.02
688.10	39667.40
688.23	40116.78
688.37	39910.82
688.50	39704.85
688.64	39723.57
688.78	39075.24
688.91	38705.44
689.05	38286.48
689.18	38569.69
689.32	37848.80
689.46	37853.48
689.59	38204.56
689.73	38022.00
689.86	37804.33
690.00	37780.93
690.13	37607.73
690.27	38022.00
690.41	37455.59
690.54	36851.73
690.68	37486.02
690.81	36821.31
690.95	36594.28
691.08	36573.21
691.22	36931.31
691.35	36175.32
691.49	36400.01
691.62	35957.65
691.76	35765.73
691.89	35466.14
692.03	35267.19
692.16	35747.00
692.30	35304.64
692.43	35377.20
692.57	34789.72
692.70	34967.60
692.84	34808.45
692.97	34436.30
693.11	34127.35
693.24	34209.27
693.38	34043.09
693.51	33961.17
693.65	33535.20
693.78	33504.77
693.92	33472.00
694.05	33338.59
694.19	33603.07
694.32	33486.04
694.45	33050.70
694.59	33078.79
694.72	32957.08
694.86	33125.60
694.99	32004.49
695.13	31992.78
695.26	31812.56
695.39	31405.31
695.53	32006.83
695.66	31997.46
695.80	31807.88
695.93	31307.01
696.07	30820.17
696.20	30593.14
696.33	30799.11
696.47	31000.40
696.60	30862.30
696.73	30590.80
696.87	30885.71
697.00	29975.24
697.14	30110.99
697.27	30148.44
697.40	30075.88
697.54	29876.94
697.67	29752.89
697.80	29380.74
697.94	29509.47
698.07	29170.10
698.21	28898.59
698.34	28718.37
698.47	28716.03
698.61	28074.73
698.74	28327.50
698.87	28350.91
699.01	27981.10
699.14	28276.01
699.27	28266.65
699.40	27831.31
699.54	27630.02
699.67	27824.29
699.80	27501.29
699.94	27625.34
700.07	27288.31
700.20	27171.28
700.34	26843.60
700.47	26457.42
700.60	26845.94
700.73	26232.72
700.87	26089.95
701.00	25851.22
701.13	26202.30
701.26	25862.92
701.40	26136.76
701.53	25930.80
701.66	25811.43
701.79	25490.77
701.93	25699.08
702.06	24823.72
702.19	24769.89
702.32	25057.78
702.46	24849.47
702.59	24713.72
702.72	24348.59
702.85	24631.80
702.99	24996.92
703.12	24149.65
703.25	24299.44
703.38	23796.23
703.51	23688.56
703.65	23770.48
703.78	23531.75
703.91	23520.04
704.04	23433.44
704.17	23594.94
704.31	23103.43
704.44	23150.24
704.57	22721.92
704.70	22848.31
704.83	22169.55
704.96	22396.59
705.10	22588.51
705.23	22174.24
>>>>>End Processed Spectral Data<<<<<
