SpectraSuite Data File
++++++++++++++++++++++++++++++++++++
Date: Fri Oct 25 11:22:34 EDT 2013
User: price-jones
Dark Spectrum Present: No
Reference Spectrum Present: No
Number of Sampled Component Spectra: 1
Spectrometers: USB2+H05261
Integration Time (usec): 100000 (USB2+H05261)
Spectra Averaged: 1 (USB2+H05261)
Boxcar Smoothing: 0 (USB2+H05261)
Correct for Electrical Dark: No (USB2+H05261)
Strobe/Lamp Enabled: No (USB2+H05261)
Correct for Detector Non-linearity: No (USB2+H05261)
Correct for Stray Light: No (USB2+H05261)
Number of Pixels in Processed Spectrum: 2048
>>>>>Begin Processed Spectral Data<<<<<
365.73	196.60
365.92	196.60
366.12	196.60
366.32	95.96
366.52	100.64
366.72	201.29
366.91	74.90
367.11	107.66
367.31	60.85
367.51	58.51
367.70	163.84
367.90	105.32
368.10	88.94
368.30	114.69
368.49	98.30
368.69	205.97
368.89	88.94
369.09	84.26
369.28	187.24
369.48	128.73
369.68	131.07
369.87	191.92
370.07	173.20
370.27	147.45
370.47	318.31
370.66	627.26
370.86	526.62
371.06	648.33
371.25	662.37
371.45	664.71
371.65	737.27
371.84	685.78
372.04	645.99
372.24	765.36
372.44	788.76
372.63	760.67
372.83	723.23
373.03	819.19
373.22	744.29
373.42	763.01
373.62	718.54
373.81	798.12
374.01	840.25
374.21	830.89
374.40	802.80
374.60	877.70
374.79	741.95
374.99	779.40
375.19	760.67
375.38	873.02
375.58	856.64
375.78	823.87
375.97	802.80
376.17	933.87
376.37	858.98
376.56	814.51
376.76	828.55
376.95	840.25
377.15	922.17
377.35	884.72
377.54	844.93
377.74	884.72
377.93	915.15
378.13	877.70
378.33	964.30
378.52	931.53
378.72	973.66
378.91	1071.97
379.11	866.00
379.31	990.05
379.50	866.00
379.70	968.98
379.89	978.34
380.09	992.39
380.28	929.19
380.48	959.62
380.68	983.02
380.87	976.00
381.07	1015.79
381.26	1057.92
381.46	983.02
381.65	1034.52
381.85	976.00
382.04	1086.01
382.24	997.07
382.43	1102.39
382.63	957.28
382.83	1088.35
383.02	1174.95
383.22	1149.20
383.41	1025.15
383.61	1053.24
383.80	1139.84
384.00	1118.78
384.19	1156.22
384.39	1153.88
384.58	1060.26
384.78	1165.59
384.97	1214.74
385.17	1207.72
385.36	1156.22
385.56	1212.40
385.75	1186.65
385.95	1128.14
386.14	1231.12
386.34	1233.46
386.53	1114.10
386.72	1212.40
386.92	1240.48
387.11	1203.04
387.31	1210.06
387.50	1198.35
387.70	1193.67
387.89	1210.06
388.09	1259.21
388.28	1327.08
388.48	1348.15
388.67	1334.11
388.86	1308.36
389.06	1369.21
389.25	1425.39
389.45	1343.47
389.64	1282.61
389.84	1437.09
390.03	1299.00
390.22	1483.90
390.42	1409.00
390.61	1439.43
390.81	1355.17
391.00	1387.94
391.19	1416.02
391.39	1479.22
391.58	1488.58
391.78	1493.26
391.97	1495.60
392.16	1511.99
392.36	1511.99
392.55	1519.01
392.75	1549.43
392.94	1523.69
393.13	1596.25
393.33	1540.07
393.52	1540.07
393.71	1689.87
393.91	1652.42
394.10	1621.99
394.29	1631.35
394.49	1572.84
394.68	1654.76
394.88	1652.42
395.07	1729.66
395.26	1671.14
395.46	1607.95
395.65	1610.29
395.84	1785.83
396.04	1816.26
396.23	1706.25
396.42	1816.26
396.62	1713.27
396.81	1774.13
397.00	1853.70
397.19	1736.68
397.39	1797.53
397.58	1820.94
397.77	1778.81
397.97	1870.09
398.16	1863.07
398.35	2038.61
398.55	1778.81
398.74	1895.83
398.93	2012.86
399.12	1977.75
399.32	1919.24
399.51	1959.03
399.70	2108.82
399.90	1900.52
400.09	2099.46
400.28	2057.33
400.47	1982.43
400.67	2127.55
400.86	2122.87
401.05	2050.31
401.24	2050.31
401.44	2050.31
401.63	2106.48
401.82	2162.66
402.01	2176.70
402.21	2214.15
402.40	2101.80
402.59	2237.55
402.78	2251.60
402.97	2230.53
403.17	2399.05
403.36	2265.64
403.55	2370.96
403.74	2298.41
403.93	2396.71
404.13	2401.39
404.32	2331.17
404.51	2345.22
404.70	2457.56
404.89	2389.69
405.09	2609.70
405.28	2420.11
405.47	2544.16
405.66	2415.43
405.85	2548.84
406.05	2541.82
406.24	2464.58
406.43	2612.04
406.62	2647.15
406.81	2778.22
407.00	2609.70
407.20	2675.23
407.39	2630.76
407.58	2712.68
407.77	2860.13
407.96	2764.17
408.15	2764.17
408.34	2794.60
408.54	2827.37
408.73	2853.11
408.92	2860.13
409.11	2836.73
409.30	2899.92
409.49	3026.31
409.68	3016.95
409.87	3007.59
410.07	2942.05
410.26	3122.27
410.45	3108.23
410.64	3136.32
410.83	2981.84
411.02	3164.40
411.21	3145.68
411.40	3152.70
411.59	3269.73
411.78	3361.01
411.98	3262.71
412.17	3253.34
412.36	3300.16
412.55	3391.44
412.74	3466.33
412.93	3487.40
413.12	3445.27
413.31	3604.42
413.50	3534.21
413.69	3412.50
413.88	3721.45
414.07	3620.81
414.26	3651.24
414.45	3648.90
414.64	3693.37
414.83	3730.81
415.02	3700.39
415.22	3976.57
415.41	3936.78
415.60	3955.51
415.79	3950.82
415.98	4030.40
416.17	4117.00
416.36	3936.78
416.55	4007.00
416.74	4161.47
416.93	4203.60
417.12	4142.75
417.31	4152.11
417.50	4203.60
417.69	4346.37
417.88	4402.55
418.07	4294.88
418.26	4353.40
418.45	4360.42
418.64	4547.66
418.83	4461.06
419.02	4423.61
419.21	4486.81
419.39	4638.94
419.58	4430.63
419.77	4613.20
419.96	4526.60
420.15	4610.86
420.34	4505.53
420.53	4615.54
420.72	4819.16
420.91	4737.24
421.10	4720.86
421.29	4814.48
421.48	4596.81
421.67	4816.82
421.86	4800.44
422.05	4884.70
422.24	4847.25
422.43	4896.40
422.61	4898.74
422.80	4894.06
422.99	4940.87
423.18	4938.53
423.37	4983.00
423.56	5071.94
423.75	5004.07
423.94	4947.89
424.13	4557.02
424.32	4826.18
424.50	5083.64
424.69	5078.96
424.88	5200.67
425.07	5069.60
425.26	4926.83
425.45	4929.17
425.64	4931.51
425.83	5036.83
426.01	5032.15
426.20	5064.92
426.39	5055.56
426.58	5013.43
426.77	5093.01
426.96	5254.50
427.15	5207.69
427.33	5137.48
427.52	5088.32
427.71	5252.16
427.90	5165.56
428.09	5289.61
428.28	5416.00
428.46	5284.93
428.65	5427.70
428.84	5530.69
429.03	5472.17
429.22	5432.38
429.40	5544.73
429.59	5584.52
429.78	5322.38
429.97	5446.43
430.16	5650.05
430.34	5556.43
430.53	5783.46
430.72	5607.92
430.91	5776.44
431.10	5584.52
431.28	5783.46
431.47	5888.79
431.66	5935.60
431.85	5792.83
432.03	5949.64
432.22	5881.77
432.41	6106.46
432.60	6010.50
432.79	6061.99
432.97	6073.69
433.16	6071.35
433.35	6101.78
433.54	6225.82
433.72	6251.57
433.91	6298.38
434.10	6115.82
434.28	5959.00
434.47	6324.13
434.66	6434.13
434.85	6478.60
435.03	6333.49
435.22	6319.45
435.41	6551.16
435.59	6534.78
435.78	6375.62
435.97	6516.05
436.16	6520.73
436.34	6616.69
436.53	6338.17
436.72	6700.95
436.90	6471.58
437.09	6855.43
437.28	6630.74
437.46	6630.74
437.65	6633.08
437.84	6817.98
438.02	6888.20
438.21	6829.68
438.40	6935.01
438.58	7162.04
438.77	7164.38
438.96	7009.90
439.14	7115.23
439.33	7342.26
439.52	7227.57
439.70	7246.30
439.89	7417.16
440.08	7463.97
440.26	7428.86
440.45	7492.05
440.63	7679.30
440.82	7637.17
441.01	7597.38
441.19	7857.18
441.38	7712.07
441.57	7859.52
441.75	7974.21
441.94	8016.33
442.12	8028.04
442.31	8147.40
442.50	8245.71
442.68	8079.53
442.87	8119.32
443.05	8248.05
443.24	8201.24
443.43	8322.94
443.61	8344.01
443.80	8517.21
443.98	8018.68
444.17	7793.98
444.35	8191.88
444.54	8344.01
444.73	8491.46
444.91	8341.67
445.10	8435.29
445.28	8367.42
445.47	8421.25
445.65	8451.67
445.84	8479.76
446.02	8615.51
446.21	8531.25
446.39	8458.70
446.58	8706.79
446.77	8613.17
446.95	8339.33
447.14	8318.26
447.32	8650.62
447.51	8442.31
447.69	8421.25
447.88	8585.08
448.06	8624.87
448.25	8573.38
448.43	8678.71
448.62	8732.54
448.80	8493.80
448.99	8741.90
449.17	8667.00
449.36	8784.03
449.54	8975.95
449.73	9125.75
449.91	9004.04
450.10	9156.18
450.28	9041.49
450.46	9142.13
450.65	9170.22
450.83	9334.06
451.02	9135.11
451.20	9362.14
451.39	9413.63
451.57	9102.34
451.76	9273.20
451.94	9233.41
452.13	9479.17
452.31	9465.13
452.49	9404.27
452.68	9394.91
452.86	9331.72
453.05	9591.52
453.23	9558.75
453.42	9446.40
453.60	9357.46
453.78	9465.13
453.97	9514.28
454.15	9680.46
454.34	9460.45
454.52	9790.46
454.70	9738.97
454.89	9958.98
455.07	10003.45
455.26	9991.75
455.44	10239.84
455.62	10097.07
455.81	9973.02
455.99	10274.95
456.17	10153.24
456.36	10059.62
456.54	10345.17
456.73	10284.31
456.91	10796.89
457.09	10516.03
457.28	10651.78
457.46	10324.10
457.64	10637.73
457.83	10600.29
458.01	10352.19
458.19	10553.48
458.38	10864.77
458.56	10846.04
458.74	10897.53
458.93	10768.80
459.11	10937.32
459.29	10822.64
459.48	10850.72
459.66	10846.04
459.84	11009.88
460.03	11243.93
460.21	10946.69
460.39	10974.77
460.57	11000.52
460.76	11131.59
460.94	11372.66
461.12	11445.22
461.31	11248.61
461.49	11103.50
461.67	11351.60
461.85	11709.70
462.04	11241.59
462.22	11847.79
462.40	11541.18
462.59	11534.16
462.77	11660.55
462.95	11892.26
463.13	11733.11
463.32	11782.26
463.50	11974.18
463.68	12025.67
463.86	12074.82
464.05	11815.02
464.23	11880.56
464.41	11826.73
464.59	11831.41
464.78	11920.35
464.96	12035.03
465.14	11756.51
465.32	11962.48
465.50	12362.71
465.69	12383.77
465.87	12409.52
466.05	12446.97
466.23	12306.54
466.41	12346.33
466.60	12566.34
466.78	12283.13
466.96	12411.86
467.14	12629.53
467.32	12711.45
467.51	12692.73
467.69	12444.63
467.87	12538.25
468.05	12898.69
468.23	12521.87
468.41	12697.41
468.60	12896.35
468.78	12999.34
468.96	12774.64
469.14	12699.75
469.32	13090.62
469.50	12929.12
469.69	13357.44
469.87	13530.64
470.05	13116.36
470.23	13245.09
470.41	13294.24
470.59	13287.22
470.77	13263.82
470.95	13355.10
471.14	13717.88
471.32	13273.18
471.50	13745.97
471.68	13720.22
471.86	13930.87
472.04	13998.74
472.22	14260.88
472.40	13891.08
472.58	13902.78
472.77	14075.98
472.95	14321.74
473.13	14574.52
473.31	14319.40
473.49	14071.30
473.67	14284.29
473.85	14263.22
474.03	14932.62
474.21	14906.87
474.39	14853.04
474.57	14792.19
474.75	14864.74
474.93	15344.55
475.12	14998.15
475.30	15234.55
475.48	15030.92
475.66	15218.16
475.84	15435.83
476.02	15672.23
476.20	15506.05
476.38	15815.00
476.56	16032.67
476.74	16187.14
476.92	16177.78
477.10	16217.57
477.28	16297.15
477.46	16568.65
477.64	16409.50
477.82	16912.71
478.00	17240.39
478.18	16915.05
478.36	17053.14
478.54	17511.89
478.72	17287.20
478.90	17642.96
479.08	17750.62
479.26	17806.80
479.44	17867.65
479.62	18031.49
479.80	18239.79
479.98	18251.50
480.16	18429.38
480.34	18347.46
480.52	18773.44
480.70	18831.95
480.88	18583.85
481.06	19080.05
481.24	19321.12
481.41	19260.27
481.59	19871.15
481.77	19948.39
481.95	19843.06
482.13	20044.35
482.31	19997.54
482.49	20652.89
482.67	20292.44
482.85	20657.57
483.03	21130.36
483.21	20952.48
483.39	21179.51
483.57	21071.84
483.74	21268.45
483.92	21968.27
484.10	21542.29
484.28	22087.64
484.46	22253.81
484.64	22258.49
484.82	22232.75
485.00	22452.76
485.18	22782.77
485.35	23527.06
485.53	23080.02
485.71	23374.93
485.89	23651.11
486.07	23772.82
486.25	23431.10
486.43	24072.41
486.61	24056.03
486.78	24519.45
486.96	24400.08
487.14	25149.06
487.32	25013.31
487.50	25544.61
487.68	25055.43
487.85	25535.24
488.03	25699.08
488.21	26111.02
488.39	26047.82
488.57	26560.40
488.75	26384.86
488.92	26998.08
489.10	26890.41
489.28	26859.99
489.46	27250.86
489.64	27447.46
489.81	27782.16
489.99	28039.62
490.17	28322.82
490.35	28858.81
490.53	28701.99
490.70	28369.63
490.88	28720.71
491.06	28966.47
491.24	29252.02
491.41	29181.80
491.59	29605.44
491.77	29638.20
491.95	30008.01
492.13	30288.87
492.30	30431.65
492.48	30326.32
492.66	30682.08
492.84	30581.44
493.01	30913.80
493.19	30850.60
493.37	31295.30
493.54	31290.62
493.72	31819.58
493.90	31934.27
494.08	32119.17
494.25	32268.97
494.43	32107.47
494.61	32613.02
494.79	32762.82
494.96	32664.52
495.14	33479.02
495.32	33443.91
495.49	33701.37
495.67	34038.41
495.85	34387.15
496.02	34265.44
496.20	34394.17
496.38	34691.42
496.55	34410.56
496.73	35264.85
496.91	34600.14
497.09	35164.21
497.26	35393.58
497.44	35248.47
497.62	35707.21
497.79	36348.52
497.97	36009.14
498.14	36322.77
498.32	36591.94
498.50	36495.97
498.67	36982.80
498.85	36706.62
499.03	37167.71
499.20	37109.19
499.38	37027.28
499.56	37378.36
499.73	37944.76
499.91	37787.95
500.08	38064.13
500.26	37797.31
500.44	37907.32
500.61	38227.97
500.79	38010.30
500.97	38431.60
501.14	38808.42
501.32	38801.40
501.49	39122.05
501.67	39456.75
501.84	39707.19
502.02	39351.43
502.20	39636.97
502.37	39625.27
502.55	39421.64
502.72	39894.43
502.90	39922.52
503.07	39903.79
503.25	40374.24
503.43	40261.90
503.60	40708.94
503.78	40896.18
503.95	41031.93
504.13	41134.92
504.30	41034.27
504.48	40942.99
504.65	40701.92
504.83	41448.55
505.01	41825.37
505.18	41680.26
505.36	42249.01
505.53	41890.91
505.71	41839.42
505.88	42075.81
506.06	42141.35
506.23	42265.39
506.41	42424.55
506.58	42483.06
506.76	42609.45
506.93	42787.33
507.11	42490.09
507.28	43194.59
507.46	43400.55
507.63	43793.76
507.81	43262.46
507.98	43585.46
508.16	43681.42
508.33	43929.51
508.50	43995.05
508.68	43903.77
508.85	44493.58
509.03	44348.47
509.20	44774.45
509.38	44949.99
509.55	45034.25
509.73	45010.84
509.90	45095.10
510.08	44669.12
510.25	44910.20
510.42	45593.64
510.60	45436.82
510.77	45223.83
510.95	45773.86
511.12	45790.24
511.30	45415.76
511.47	45787.90
511.64	45860.46
511.82	46305.16
511.99	46375.37
512.17	46410.48
512.34	46529.85
512.51	46532.19
512.69	47091.58
512.86	46944.12
513.04	46787.31
513.21	46511.13
513.38	47224.99
513.56	47407.55
513.73	47114.98
513.90	47332.65
514.08	47372.44
514.25	47672.03
514.43	47807.78
514.60	47641.60
514.77	47988.00
514.95	48011.41
515.12	48018.43
515.29	47882.68
515.47	48273.55
515.64	48706.55
515.81	48512.28
515.99	48846.98
516.16	48788.47
516.33	48762.72
516.51	48910.17
516.68	49242.53
516.85	48748.68
517.03	49296.36
517.20	49130.19
517.37	49361.90
517.54	48947.62
517.72	49666.17
517.89	49521.05
518.06	49808.94
518.24	49890.86
518.41	49619.36
518.58	49790.22
518.75	49668.51
518.93	50127.25
519.10	49762.13
519.27	50272.37
519.45	50302.79
519.62	50103.85
519.79	49958.73
519.96	50461.95
520.14	50827.07
520.31	50347.26
520.48	51077.51
520.65	50574.30
520.83	51208.58
521.00	51011.98
521.17	50899.63
521.34	51098.58
521.52	51171.13
521.69	51325.61
521.86	51264.75
522.03	51409.87
522.20	51444.98
522.38	51742.22
522.55	51672.01
522.72	51943.51
522.89	51681.37
523.07	51887.34
523.24	51882.66
523.41	52002.02
523.58	51973.94
523.75	52329.70
523.92	51938.83
524.10	52296.93
524.27	52376.51
524.44	52299.27
524.61	52177.56
524.78	52493.54
524.96	52430.34
525.13	52720.57
525.30	52598.86
525.47	52945.26
525.64	52814.19
525.81	53038.88
525.98	53010.79
526.16	52971.00
526.33	52947.60
526.50	53635.72
526.67	53073.99
526.84	53303.36
527.01	53202.72
527.18	53251.87
527.36	53406.34
527.53	53324.43
527.70	53602.95
527.87	53717.64
528.04	53624.01
528.21	53846.36
528.38	53471.88
528.55	54028.93
528.72	53844.02
528.89	53848.71
529.07	53961.05
529.24	53853.39
529.41	54199.79
529.58	53937.65
529.75	54251.28
529.92	54401.07
530.09	54035.95
530.26	54370.64
530.43	54457.24
530.60	54211.49
530.77	54267.66
530.94	54625.76
531.11	54457.24
531.28	54295.75
531.46	54426.82
531.63	54686.62
531.80	54677.25
531.97	54763.85
532.14	54944.08
532.31	54859.82
532.48	55173.45
532.65	55395.80
532.82	54546.18
532.99	54892.58
533.16	54864.50
533.33	55238.98
533.50	55269.41
533.67	55042.38
533.84	55011.95
534.01	55229.62
534.18	55505.80
534.35	55473.04
534.52	55405.16
534.69	55634.53
534.86	55302.18
535.03	55363.03
535.20	55473.04
535.37	55557.30
535.54	55709.43
535.71	55601.77
535.88	55959.87
536.05	55800.71
536.22	55531.55
536.38	55927.10
536.55	55751.56
536.72	55941.14
536.89	56009.02
537.06	55994.98
537.23	56292.22
537.40	56058.17
537.57	56034.77
537.74	56203.28
537.91	56229.03
538.08	56037.11
538.25	55870.93
538.42	56144.77
538.59	56580.11
538.75	56254.78
538.92	56247.75
539.09	56647.99
539.26	56086.26
539.43	56329.67
539.60	56690.12
539.77	56542.66
539.94	56757.99
540.11	56498.19
540.28	56708.84
540.44	56615.22
540.61	56797.78
540.78	56655.01
540.95	56776.72
541.12	56748.63
541.29	56736.93
541.46	57017.79
541.62	56978.00
541.79	57008.43
541.96	56809.48
542.13	57010.77
542.30	57078.64
542.47	57062.26
542.63	56917.15
542.80	57144.18
542.97	57469.51
543.14	57574.84
543.31	57460.15
543.48	57420.36
543.64	57598.24
543.81	57425.04
543.98	57623.99
544.15	57647.39
544.32	57719.95
544.48	57701.23
544.65	57584.20
544.82	57771.44
544.99	57649.74
545.16	57731.65
545.32	57490.58
545.49	57893.15
545.66	57961.03
545.83	58145.93
546.00	57937.62
546.16	58066.35
546.33	57733.99
546.50	57680.16
546.67	57900.17
546.83	57946.98
547.00	58178.70
547.17	58115.50
547.34	58059.33
547.50	58319.13
547.67	58379.98
547.84	58066.35
548.00	58349.56
548.17	58468.92
548.34	58377.64
548.51	58433.81
548.67	58382.32
548.84	58489.99
549.01	58424.45
549.18	58375.30
549.34	58415.09
549.51	58529.78
549.68	58464.24
549.84	58447.86
550.01	58504.03
550.18	58443.18
550.34	58745.11
550.51	58478.28
550.68	58796.60
550.84	58223.17
551.01	58937.03
551.18	58766.17
551.34	58564.88
551.51	58805.96
551.68	58885.54
551.84	58733.40
552.01	58735.74
552.18	58887.88
552.34	58798.94
552.51	58918.31
552.68	58848.09
552.84	59054.06
553.01	59222.58
553.18	59124.27
553.34	58960.44
553.51	59028.31
553.67	59063.42
553.84	59327.90
554.01	59014.27
554.17	59269.39
554.34	59358.33
554.51	59234.28
554.67	59309.18
554.84	59227.26
555.00	59386.41
555.17	59346.62
555.33	59128.95
555.50	59231.94
555.67	59440.24
555.83	59475.35
556.00	59302.15
556.16	59650.89
556.33	59653.23
556.50	59461.31
556.66	59412.16
556.83	59241.30
556.99	59664.94
557.16	59646.21
557.32	59655.57
557.49	59781.96
557.65	59573.66
557.82	59550.25
557.98	59646.21
558.15	59728.13
558.32	59496.42
558.48	59711.75
558.65	59760.90
558.81	59833.46
558.98	59849.84
559.14	59870.90
559.31	59873.24
559.47	59964.52
559.64	59976.23
559.80	60006.65
559.97	59978.57
560.13	59725.79
560.30	59976.23
560.46	59973.89
560.63	60296.88
560.79	60076.87
560.96	60245.39
561.12	60142.41
561.29	60170.49
561.45	60147.09
561.61	60030.06
561.78	60154.11
561.94	60172.83
562.11	59994.95
562.27	60268.79
562.44	60252.41
562.60	60210.28
562.77	60383.48
562.93	60114.32
563.10	60264.11
563.26	60205.60
563.42	60559.02
563.59	60287.52
563.75	60205.60
563.92	60402.21
564.08	60287.52
564.24	60474.76
564.41	60465.40
564.57	60280.50
564.74	60484.12
564.90	60535.62
565.07	60446.68
565.23	60324.97
565.39	60339.01
565.56	60329.65
565.72	60418.59
565.88	60411.57
566.05	60275.82
566.21	60364.76
566.38	60559.02
566.54	60516.89
566.70	60598.81
566.87	60626.90
567.03	60411.57
567.19	60743.92
567.36	60624.56
567.52	60552.00
567.68	60781.37
567.85	60669.03
568.01	60708.82
568.17	60540.30
568.34	60666.69
568.50	60664.35
568.66	60561.36
568.83	60654.98
568.99	60626.90
569.15	60622.22
569.32	60542.64
569.48	60463.06
569.64	60772.01
569.81	60865.63
569.97	60818.82
570.13	60722.86
570.30	60697.11
570.46	60795.42
570.62	60816.48
570.78	60807.12
570.95	60685.41
571.11	60858.61
571.27	60825.84
571.43	60800.10
571.60	60987.34
571.76	60821.16
571.92	60711.16
572.09	60914.78
572.25	60825.84
572.41	60659.66
572.57	60917.12
572.74	61167.56
572.90	60910.10
573.06	60949.89
573.22	60877.33
573.38	60919.46
573.55	60952.23
573.71	61003.72
573.87	60982.66
574.03	60893.72
574.20	60938.19
574.36	60893.72
574.52	61052.87
574.68	60849.25
574.84	61247.14
575.01	61020.11
575.17	60863.29
575.33	61041.17
575.49	60949.89
575.65	61104.37
575.82	61029.47
575.98	60926.49
576.14	61279.91
576.30	60956.91
576.46	60907.76
576.62	60919.46
576.79	61151.18
576.95	61071.60
577.11	61132.45
577.27	60956.91
577.43	60931.17
577.59	60938.19
577.75	60837.54
577.92	61045.85
578.08	60926.49
578.24	61010.74
578.40	61181.60
578.56	61343.10
578.72	61183.94
578.88	61219.05
579.04	61528.00
579.21	61073.94
579.37	61197.99
579.53	61357.14
579.69	60959.25
579.85	61127.77
580.01	61254.16
580.17	61102.03
580.33	61254.16
580.49	61354.80
580.65	61078.62
580.82	60970.96
580.98	61057.56
581.14	61109.05
581.30	61235.44
581.46	61165.22
581.62	61172.24
581.78	61055.21
581.94	61261.18
582.10	61066.92
582.26	61244.80
582.42	61331.40
582.58	61123.09
582.74	61137.13
582.90	61263.52
583.06	61134.79
583.22	61130.11
583.38	61125.43
583.54	61277.57
583.70	61326.72
583.86	61279.91
584.02	61078.62
584.18	61315.01
584.34	61268.20
584.50	61212.03
584.66	61097.34
584.82	61116.07
584.98	61406.30
585.14	61272.88
585.30	61158.20
585.46	61212.03
585.62	61333.74
585.78	61317.35
585.94	61158.20
586.10	61300.97
586.26	61305.65
586.42	61303.31
586.58	61422.68
586.74	61190.97
586.90	61485.87
587.06	61240.12
587.22	61307.99
587.38	61289.27
587.54	61506.94
587.70	61570.13
587.86	61382.89
588.02	61371.19
588.18	61418.00
588.34	61188.63
588.49	61209.69
588.65	61336.08
588.81	61439.06
588.97	61485.87
589.13	61389.91
589.29	61553.75
589.45	61460.13
589.61	61324.38
589.77	61806.53
589.93	61647.37
590.08	61588.86
590.24	61518.64
590.40	61776.10
590.56	61607.58
590.72	61696.52
590.88	61687.16
591.04	61504.60
591.20	61701.20
591.35	61748.01
591.51	61750.35
591.67	61717.59
591.83	61780.78
591.99	61584.18
592.15	61806.53
592.31	61752.69
592.46	61825.25
592.62	61647.37
592.78	61553.75
592.94	61705.88
593.10	61712.91
593.26	61895.47
593.41	61752.69
593.57	61752.69
593.73	61640.35
593.89	61953.98
594.05	61928.23
594.20	61640.35
594.36	61982.07
594.52	61694.18
594.68	61581.84
594.84	61825.25
594.99	61937.60
595.15	61750.35
595.31	61661.41
595.47	61829.93
595.62	61663.75
595.78	61722.27
595.94	61888.45
596.10	61886.10
596.25	61710.56
596.41	61738.65
596.57	61743.33
596.73	61684.82
596.88	61607.58
597.04	61757.38
597.20	61965.68
597.36	61853.34
597.51	62061.64
597.67	61684.82
597.83	61738.65
597.99	61923.55
598.14	61694.18
598.30	61843.98
598.46	61925.89
598.61	61939.94
598.77	61851.00
598.93	61989.09
599.09	62005.47
599.24	62120.16
599.40	62042.92
599.56	61834.61
599.71	61982.07
599.87	62113.14
600.03	62005.47
600.18	61902.49
600.34	61811.21
600.50	62096.75
600.65	61918.87
600.81	61909.51
600.97	61907.17
601.12	61897.81
601.28	62071.01
601.44	61841.63
601.59	61881.42
601.75	62021.86
601.91	62152.93
602.06	62054.62
602.22	62267.61
602.37	62117.82
602.53	61918.87
602.69	62047.60
602.84	61829.93
603.00	61897.81
603.16	62012.49
603.31	62173.99
603.47	62017.17
603.62	61900.15
603.78	62092.07
603.94	62019.52
604.09	62155.27
604.25	62106.12
604.40	62078.03
604.56	61977.39
604.71	62099.09
604.87	62026.54
605.03	62150.59
605.18	62220.80
605.34	62110.80
605.49	61792.48
605.65	62204.42
605.80	61989.09
605.96	62136.54
606.12	62155.27
606.27	62209.10
606.43	62096.75
606.58	62085.05
606.74	61977.39
606.89	61937.60
607.05	62071.01
607.20	62012.49
607.36	61806.53
607.51	61935.26
607.67	61818.23
607.82	61834.61
607.98	61998.45
608.13	62028.88
608.29	61846.32
608.44	61862.70
608.60	61771.42
608.75	61944.62
608.91	61993.77
609.06	61628.65
609.22	61970.36
609.37	61766.74
609.53	61740.99
609.68	61869.72
609.84	61890.79
609.99	61900.15
610.15	61895.47
610.30	61925.89
610.46	61958.66
610.61	62049.94
610.76	61865.04
610.92	61712.91
611.07	61607.58
611.23	61769.08
611.38	61736.31
611.54	61867.38
611.69	61740.99
611.84	62049.94
612.00	61743.33
612.15	61708.22
612.31	61970.36
612.46	61776.10
612.62	61778.44
612.77	61708.22
612.92	61729.29
613.08	61640.35
613.23	61759.72
613.39	61708.22
613.54	61509.28
613.69	61815.89
613.85	61609.92
614.00	61813.55
614.15	61928.23
614.31	61581.84
614.46	61745.67
614.62	61551.41
614.77	61560.77
614.92	61717.59
615.08	61446.08
615.23	61413.32
615.38	61513.96
615.54	61551.41
615.69	61476.51
615.84	61553.75
616.00	61586.52
616.15	61630.99
616.30	61539.71
616.46	61350.12
616.61	61399.27
616.76	61509.28
616.92	61443.74
617.07	61528.00
617.22	61305.65
617.37	61530.34
617.53	61623.96
617.68	61722.27
617.83	61474.17
617.99	61539.71
618.14	61481.19
618.29	61553.75
618.45	61418.00
618.60	61357.14
618.75	61195.65
618.90	61368.85
619.06	61247.14
619.21	61436.72
619.36	61457.79
619.51	61558.43
619.67	61172.24
619.82	61200.33
619.97	61406.30
620.12	61282.25
620.28	61394.59
620.43	61300.97
620.58	61418.00
620.73	61172.24
620.89	61216.71
621.04	61350.12
621.19	61134.79
621.34	61183.94
621.49	61169.90
621.65	61212.03
621.80	61293.95
621.95	61235.44
622.10	61247.14
622.25	61289.27
622.41	61197.99
622.56	61151.18
622.71	61160.54
622.86	61034.15
623.01	60903.08
623.16	60879.67
623.32	61132.45
623.47	61076.28
623.62	61155.86
623.77	60992.02
623.92	61017.77
624.07	61090.32
624.23	61111.39
624.38	60769.67
624.53	60952.23
624.68	60898.40
624.83	61017.77
624.98	60977.98
625.13	60708.82
625.29	61036.49
625.44	60835.20
625.59	60753.29
625.74	60867.97
625.89	60776.69
626.04	60638.60
626.19	60699.45
626.34	60776.69
626.49	60622.22
626.65	60514.55
626.80	60708.82
626.95	60591.79
627.10	60381.14
627.25	60587.11
627.40	60577.75
627.55	60622.22
627.70	60685.41
627.85	60720.52
628.00	60509.87
628.15	60671.37
628.30	60669.03
628.45	60704.13
628.60	60416.25
628.76	60437.31
628.91	60561.36
629.06	60456.04
629.21	60755.63
629.36	60650.30
629.51	60378.80
629.66	60360.08
629.81	60161.13
629.96	60390.50
630.11	60303.90
630.26	60488.80
630.41	60465.40
630.56	60514.55
630.71	60568.38
630.86	60441.99
631.01	60444.33
631.16	60371.78
631.31	60207.94
631.46	60016.02
631.61	60065.17
631.76	60355.39
631.91	60299.22
632.06	60449.02
632.21	60250.07
632.36	60165.81
632.51	59994.95
632.66	60278.16
632.81	60034.74
632.96	60303.90
633.10	59924.74
633.25	60200.92
633.40	60257.09
633.55	60058.15
633.70	60034.74
633.85	59936.44
634.00	59798.35
634.15	59920.05
634.30	59980.91
634.45	60018.36
634.60	60203.26
634.75	60004.31
634.90	59943.46
635.05	59835.80
635.19	60037.08
635.34	60095.60
635.49	59777.28
635.64	59955.16
635.79	59847.50
635.94	59969.21
636.09	59901.33
636.24	59599.40
636.39	59648.55
636.53	60135.38
636.68	59683.66
636.83	59840.48
636.98	59824.09
637.13	59650.89
637.28	59721.11
637.43	59847.50
637.57	59819.41
637.72	59660.26
637.87	59594.72
638.02	59646.21
638.17	59868.56
638.32	59735.15
638.46	59568.97
638.61	59695.36
638.76	59440.24
638.91	59465.99
639.06	59765.58
639.20	59442.59
639.35	59543.23
639.50	59309.18
639.65	59494.08
639.80	59519.82
639.94	59391.09
640.09	59260.02
640.24	59278.75
640.39	59358.33
640.54	59178.10
640.68	59379.39
640.83	59463.65
640.98	59262.36
641.13	59393.43
641.27	59583.02
641.42	59180.45
641.57	59320.88
641.72	59157.04
641.86	59082.14
642.01	59213.21
642.16	59372.37
642.31	59037.67
642.45	59475.35
642.60	59206.19
642.75	59409.82
642.90	59313.86
643.04	59009.59
643.19	59189.81
643.34	58908.94
643.48	59103.21
643.63	59288.11
643.78	58972.14
643.93	59236.62
644.07	59103.21
644.22	59044.69
644.37	58738.08
644.51	58958.09
644.66	59173.42
644.81	58988.52
644.95	59124.27
645.10	58983.84
645.25	59075.12
645.39	58761.49
645.54	58754.47
645.69	58857.45
645.83	58876.18
645.98	58808.30
646.13	58812.98
646.27	58838.73
646.42	58721.70
646.57	58843.41
646.71	58581.27
646.86	58864.47
647.00	58922.99
647.15	58773.19
647.30	58883.20
647.44	58614.04
647.59	58908.94
647.74	58700.64
647.88	58880.86
648.03	58885.54
648.17	58911.28
648.32	58464.24
648.47	58824.68
648.61	58660.85
648.76	58686.59
648.90	58450.20
649.05	58597.65
649.20	58656.17
649.34	58625.74
649.49	58506.37
649.63	58787.24
649.78	58688.93
649.92	58677.23
650.07	58387.00
650.21	58354.24
650.36	58375.30
650.51	58412.75
650.65	58707.66
650.80	58529.78
650.94	58291.04
651.09	58255.93
651.23	58096.78
651.38	58595.31
651.52	58080.39
651.67	58157.63
651.81	58082.73
651.96	57944.64
652.10	58389.34
652.25	58379.98
652.39	58246.57
652.54	57951.66
652.68	58035.92
652.83	58218.49
652.97	58094.44
653.12	57893.15
653.26	58251.25
653.41	58103.80
653.55	58166.99
653.70	57991.45
653.84	58045.29
653.99	58108.48
654.13	57811.23
654.27	58061.67
654.42	57797.19
654.56	57911.88
654.71	58218.49
654.85	57928.26
655.00	58300.40
655.14	57949.32
655.29	57687.18
655.43	57813.57
655.57	57579.52
655.72	57766.76
655.86	57825.28
656.01	57558.45
656.15	57741.02
656.30	57689.52
656.44	57956.35
656.58	57951.66
656.73	57942.30
656.87	57860.38
657.01	57876.77
657.16	57783.15
657.30	57918.90
657.45	57563.14
657.59	57310.36
657.73	57277.59
657.88	57303.34
658.02	57364.19
658.16	57602.92
658.31	57265.89
658.45	57535.05
658.60	57509.30
658.74	57460.15
658.88	57574.84
659.03	57090.35
659.17	57319.72
659.31	57221.42
659.46	56989.70
659.60	57031.83
659.74	57045.88
659.89	57127.80
660.03	57059.92
660.17	57148.86
660.32	57080.98
660.46	57062.26
660.60	56809.48
660.74	56992.04
660.89	56860.97
661.03	57057.58
661.17	56725.22
661.32	56617.56
661.46	56743.95
661.60	56760.33
661.74	56931.19
661.89	56802.46
662.03	56507.55
662.17	56537.98
662.31	56797.78
662.46	56982.68
662.60	56870.34
662.74	56507.55
662.88	56179.88
663.03	56481.81
663.17	56285.20
663.31	56310.95
663.45	56044.13
663.60	56083.92
663.74	55838.16
663.88	55987.95
664.02	56072.21
664.17	56076.90
664.31	55957.53
664.45	56055.83
664.59	55948.17
664.73	56149.45
664.88	55915.40
665.02	55547.93
665.16	55763.26
665.30	55753.90
665.44	55627.51
665.59	55356.01
665.73	55742.20
665.87	55566.66
666.01	55505.80
666.15	55639.22
666.29	55503.46
666.44	55461.33
666.58	55370.05
666.72	55395.80
666.86	55079.83
667.00	55246.00
667.14	55157.06
667.28	55157.06
667.43	55105.57
667.57	55339.63
667.71	54845.77
667.85	54787.26
667.99	55061.10
668.13	54983.86
668.27	54862.16
668.41	54815.35
668.56	54688.96
668.70	54878.54
668.84	54693.64
668.98	54686.62
669.12	54590.66
669.26	54894.92
669.40	54419.80
669.54	54693.64
669.68	54464.27
669.82	54274.68
669.96	54078.08
670.10	54148.29
670.25	54534.48
670.39	54096.80
670.53	54307.45
670.67	54019.56
670.81	54162.34
670.95	54288.73
671.09	53874.45
671.23	53638.06
671.37	53883.81
671.51	53928.28
671.65	53738.70
671.79	53694.23
671.93	53499.97
672.07	53645.08
672.21	53415.71
672.35	53193.36
672.49	53146.54
672.63	53092.71
672.77	53188.67
672.91	53069.31
673.05	53216.76
673.19	52968.66
673.33	52741.63
673.47	52327.36
673.61	52624.60
673.75	52671.42
673.89	52664.39
674.03	52575.45
674.17	52715.89
674.31	52224.37
674.45	52313.31
674.59	51576.04
674.73	52287.57
674.87	51924.78
675.01	51987.98
675.15	52062.88
675.29	52123.73
675.43	51810.10
675.56	51735.20
675.70	51267.09
675.84	51580.73
675.98	50501.74
676.12	51454.34
676.26	51444.98
676.40	51405.19
676.54	51227.31
676.68	51124.32
676.82	50337.90
676.96	50515.78
677.10	50773.24
677.23	50405.78
677.37	50239.60
677.51	50319.18
677.65	50384.71
677.79	49689.57
677.93	49303.38
678.07	49432.11
678.21	49429.77
678.34	49523.40
678.48	49045.93
678.62	48975.71
678.76	49118.48
678.90	49048.27
679.04	49188.70
679.18	49048.27
679.31	48449.09
679.45	48292.27
679.59	48615.27
679.73	48556.75
679.87	48289.93
680.00	47573.73
680.14	47730.54
680.28	47674.37
680.42	47430.96
680.56	47049.45
680.70	47325.63
680.83	47559.69
680.97	47136.05
681.11	47178.18
681.25	47028.38
681.39	47016.68
681.52	47096.26
681.66	46981.57
681.80	46902.00
681.94	46614.11
682.07	46632.83
682.21	46127.28
682.35	45764.49
682.49	45666.19
682.62	45567.89
682.76	45783.22
682.90	45890.88
683.04	45586.61
683.17	45123.19
683.31	45085.74
683.45	45390.01
683.59	44905.52
683.72	45055.31
683.86	44605.93
684.00	44568.48
684.13	44535.71
684.27	43920.15
684.41	44098.03
684.55	44009.09
684.68	43793.76
684.82	43545.67
684.96	43320.98
685.09	43650.99
685.23	43166.50
685.37	42555.62
685.50	43145.44
685.64	42679.67
685.78	43077.56
685.91	42665.63
686.05	42494.77
686.19	42040.70
686.32	42073.47
686.46	41172.36
686.60	41474.29
686.73	41317.48
686.87	40931.29
687.01	41521.10
687.14	41186.41
687.28	40772.13
687.42	40655.11
687.55	40423.39
687.69	40842.35
687.82	40456.16
687.96	40362.54
688.10	39964.65
688.23	40341.47
688.37	39861.66
688.50	39765.70
688.64	39910.82
688.78	39339.72
688.91	38710.12
689.05	39227.38
689.18	38822.47
689.32	38394.15
689.46	38099.24
689.59	38298.19
689.73	38202.22
689.86	38022.00
690.00	37577.30
690.13	38059.45
690.27	37844.12
690.41	37574.96
690.54	37663.90
690.68	37153.66
690.81	36898.55
690.95	37020.25
691.08	36673.85
691.22	36493.63
691.35	36460.87
691.49	36804.92
691.62	36825.99
691.76	36002.12
691.89	35515.29
692.03	35732.96
692.16	35936.59
692.30	35754.02
692.43	35871.05
692.57	35374.86
692.70	35213.36
692.84	34745.25
692.97	34976.97
693.11	35157.19
693.24	34920.79
693.38	34398.85
693.51	34139.05
693.65	34588.44
693.78	33567.96
693.92	34333.32
694.05	33394.76
694.19	33813.72
694.32	33490.73
694.45	33015.60
694.59	33163.05
694.72	33102.20
694.86	32624.73
694.99	32708.99
695.13	32315.78
695.26	32488.98
695.39	31637.02
695.53	31592.55
695.66	32058.32
695.80	31997.46
695.93	31335.09
696.07	31129.12
696.20	31194.66
696.33	30946.56
696.47	31119.76
696.60	31054.23
696.73	30565.06
696.87	31103.38
697.00	30431.65
697.14	30331.00
697.27	30426.96
697.40	30040.78
697.54	30017.37
697.67	30195.25
697.80	29888.64
697.94	29455.64
698.07	29469.69
698.21	29074.13
698.34	29024.98
698.47	29149.03
698.61	28173.03
698.74	28229.20
698.87	28538.15
699.01	28306.44
699.14	28168.35
699.27	27971.74
699.40	28336.87
699.54	28379.00
699.67	28252.61
699.80	28091.11
699.94	27850.03
700.07	27864.08
700.20	27459.16
700.34	26984.04
700.47	27075.32
700.60	26939.57
700.73	26419.97
700.87	26043.14
701.00	26197.62
701.13	26122.72
701.26	26101.65
701.40	25930.80
701.53	26190.59
701.66	26253.79
701.79	25469.71
701.93	25532.90
702.06	24807.34
702.19	25085.86
702.32	25390.13
702.46	25493.12
702.59	24713.72
702.72	24636.48
702.85	24854.15
702.99	24592.01
703.12	24549.88
703.25	24533.50
703.38	23999.85
703.51	24049.00
703.65	23700.26
703.78	23573.88
703.91	23257.90
704.04	23337.48
704.17	23534.09
704.31	23115.13
704.44	23199.39
704.57	22937.25
704.70	22869.37
704.83	22785.12
704.96	22438.72
705.10	22167.21
705.23	22572.13
>>>>>End Processed Spectral Data<<<<<
