SpectraSuite Data File
++++++++++++++++++++++++++++++++++++
Date: Fri Oct 25 11:25:06 EDT 2013
User: price-jones
Dark Spectrum Present: No
Reference Spectrum Present: No
Number of Sampled Component Spectra: 1
Spectrometers: USB2+H05261
Integration Time (usec): 100000 (USB2+H05261)
Spectra Averaged: 1 (USB2+H05261)
Boxcar Smoothing: 0 (USB2+H05261)
Correct for Electrical Dark: No (USB2+H05261)
Strobe/Lamp Enabled: No (USB2+H05261)
Correct for Detector Non-linearity: No (USB2+H05261)
Correct for Stray Light: No (USB2+H05261)
Number of Pixels in Processed Spectrum: 2048
>>>>>Begin Processed Spectral Data<<<<<
365.73	231.71
365.92	231.71
366.12	231.71
366.32	152.13
366.52	142.77
366.72	173.20
366.91	154.48
367.11	112.35
367.31	67.88
367.51	124.05
367.70	147.45
367.90	117.03
368.10	168.52
368.30	159.16
368.49	149.79
368.69	187.24
368.89	224.69
369.09	203.63
369.28	182.56
369.48	180.22
369.68	294.91
369.87	154.48
370.07	187.24
370.27	205.97
370.47	353.42
370.66	550.03
370.86	566.41
371.06	617.90
371.25	645.99
371.45	662.37
371.65	671.73
371.84	592.16
372.04	578.11
372.24	669.39
372.44	702.16
372.63	716.20
372.83	772.38
373.03	788.76
373.22	734.93
373.42	896.43
373.62	819.19
373.81	847.27
374.01	770.04
374.21	739.61
374.40	746.63
374.60	800.46
374.79	812.17
374.99	777.06
375.19	863.66
375.38	819.19
375.58	786.42
375.78	915.15
375.97	837.91
376.17	1013.45
376.37	814.51
376.56	884.72
376.76	968.98
376.95	1008.77
377.15	842.59
377.35	847.27
377.54	976.00
377.74	819.19
377.93	891.74
378.13	898.77
378.33	1001.75
378.52	854.30
378.72	987.71
378.91	952.60
379.11	961.96
379.31	961.96
379.50	910.47
379.70	954.94
379.89	1057.92
380.09	1025.15
380.28	936.21
380.48	980.68
380.68	1039.20
380.87	954.94
381.07	999.41
381.26	1067.28
381.46	1001.75
381.65	912.81
381.85	983.02
382.04	1046.22
382.24	1104.73
382.43	1064.94
382.63	1071.97
382.83	1043.88
383.02	1095.37
383.22	1036.86
383.41	1109.41
383.61	1137.50
383.80	1200.69
384.00	1090.69
384.19	1116.44
384.39	1174.95
384.58	1086.01
384.78	1193.67
384.97	1090.69
385.17	1137.50
385.36	1137.50
385.56	1132.82
385.75	1174.95
385.95	1114.10
386.14	1245.16
386.34	1125.80
386.53	1177.29
386.72	1196.01
386.92	1235.80
387.11	1291.98
387.31	1324.74
387.50	1275.59
387.70	1226.44
387.89	1310.70
388.09	1310.70
388.28	1252.19
388.48	1261.55
388.67	1263.89
388.86	1294.32
389.06	1324.74
389.25	1345.81
389.45	1390.28
389.64	1226.44
389.84	1406.66
390.03	1378.58
390.22	1376.24
390.42	1420.71
390.61	1416.02
390.81	1385.60
391.00	1430.07
391.19	1341.13
391.39	1437.09
391.58	1434.75
391.78	1444.11
391.97	1462.83
392.16	1446.45
392.36	1500.28
392.55	1495.60
392.75	1591.56
392.94	1523.69
393.13	1577.52
393.33	1568.16
393.52	1586.88
393.71	1502.62
393.91	1582.20
394.10	1626.67
394.29	1549.43
394.49	1516.67
394.68	1598.59
394.88	1668.80
395.07	1568.16
395.26	1675.82
395.46	1692.21
395.65	1795.19
395.84	1757.74
396.04	1846.68
396.23	1825.62
396.42	1708.59
396.62	1804.55
396.81	1792.85
397.00	1788.17
397.19	1804.55
397.39	1792.85
397.58	1764.76
397.77	1753.06
397.97	1933.28
398.16	1900.52
398.35	1935.62
398.55	1919.24
398.74	1811.57
398.93	1902.86
399.12	1937.96
399.32	1916.90
399.51	1982.43
399.70	1975.41
399.90	2080.74
400.09	2003.50
400.28	2022.22
400.47	1956.69
400.67	2008.18
400.86	2104.14
401.05	2073.71
401.24	2120.53
401.44	2143.93
401.63	2179.04
401.82	2062.01
402.01	2083.08
402.21	2186.06
402.40	2190.74
402.59	2242.23
402.78	2209.47
402.97	2282.02
403.17	2314.79
403.36	2193.08
403.55	2223.51
403.74	2312.45
403.93	2352.24
404.13	2436.50
404.32	2282.02
404.51	2392.03
404.70	2359.26
404.89	2314.79
405.09	2478.63
405.28	2525.44
405.47	2567.57
405.66	2406.07
405.85	2457.56
406.05	2499.69
406.24	2511.39
406.43	2619.06
406.62	2565.23
406.81	2745.45
407.00	2574.59
407.20	2562.89
407.39	2555.86
407.58	2738.43
407.77	2710.34
407.96	2722.04
408.15	2712.68
408.34	2670.55
408.54	2747.79
408.73	2743.11
408.92	2813.32
409.11	2834.39
409.30	2913.97
409.49	2839.07
409.68	2888.22
409.87	2846.09
410.07	3019.29
410.26	3026.31
410.45	3030.99
410.64	3047.38
410.83	3016.95
411.02	3131.64
411.21	3038.02
411.40	3089.51
411.59	3211.22
411.78	3150.36
411.98	3101.21
412.17	3173.77
412.36	3274.41
412.55	3269.73
412.74	3452.29
412.93	3262.71
413.12	3466.33
413.31	3566.98
413.50	3487.40
413.69	3311.86
413.88	3595.06
414.07	3529.53
414.26	3581.02
414.45	3679.32
414.64	3700.39
414.83	3754.22
415.02	3824.44
415.22	3742.52
415.41	3948.48
415.60	3819.75
415.79	3784.65
415.98	3887.63
416.17	3962.53
416.36	3992.95
416.55	3920.40
416.74	3906.35
416.93	4021.04
417.12	4060.83
417.31	4032.74
417.50	4037.42
417.69	4259.78
417.88	4299.56
418.07	4248.07
418.26	4407.23
418.45	4421.27
418.64	4372.12
418.83	4400.21
419.02	4608.51
419.21	4432.97
419.39	4528.94
419.58	4432.97
419.77	4601.49
419.96	4475.10
420.15	4613.20
420.34	4561.70
420.53	4554.68
420.72	4535.96
420.91	4720.86
421.10	4767.67
421.29	4688.09
421.48	4643.62
421.67	4807.46
421.86	4727.88
422.05	4936.19
422.24	4903.42
422.43	4765.33
422.61	4854.27
422.80	4880.02
422.99	4840.23
423.18	4887.04
423.37	4875.34
423.56	4966.62
423.75	4812.14
423.94	4851.93
424.13	4667.03
424.32	4800.44
424.50	4994.70
424.69	5095.35
424.88	4978.32
425.07	4985.34
425.26	4774.69
425.45	4891.72
425.64	4851.93
425.83	4943.21
426.01	5027.47
426.20	5046.20
426.39	4994.70
426.58	4966.62
426.77	5156.20
426.96	5018.11
427.15	5107.05
427.33	5186.63
427.52	5097.69
427.71	5467.49
427.90	5186.63
428.09	5224.08
428.28	5338.76
428.46	5270.89
428.65	5345.78
428.84	5411.32
429.03	5474.51
429.22	5266.21
429.40	5401.96
429.59	5362.17
429.78	5296.63
429.97	5006.41
430.16	5462.81
430.34	5600.90
430.53	5652.39
430.72	5643.03
430.91	5675.80
431.10	5607.92
431.28	5764.74
431.47	5813.89
431.66	5806.87
431.85	5605.58
432.03	5973.05
432.22	6033.90
432.41	5841.98
432.60	5781.12
432.79	5715.59
432.97	6029.22
433.16	6015.18
433.35	5760.06
433.54	5963.68
433.72	5970.71
433.91	6047.94
434.10	6104.12
434.28	6057.31
434.47	6342.85
434.66	6047.94
434.85	6122.84
435.03	6249.23
435.22	6399.02
435.41	6574.56
435.59	6448.18
435.78	6431.79
435.97	6583.93
436.16	6438.81
436.34	6389.66
436.53	6396.68
436.72	6616.69
436.90	6406.05
437.09	6579.25
437.28	6443.49
437.46	6431.79
437.65	6574.56
437.84	6698.61
438.02	6698.61
438.21	6773.51
438.40	6689.25
438.58	6918.62
438.77	7002.88
438.96	6902.24
439.14	7094.16
439.33	7070.76
439.52	7162.04
439.70	7286.09
439.89	7351.62
440.08	7419.50
440.26	7290.77
440.45	7344.60
440.63	7323.54
440.82	7679.30
441.01	7433.54
441.19	7569.29
441.38	7709.72
441.57	7651.21
441.75	7880.58
441.94	8030.38
442.12	7793.98
442.31	7943.78
442.50	8023.36
442.68	7896.97
442.87	8032.72
443.05	8016.33
443.24	8203.58
443.43	8116.98
443.61	8154.43
443.80	8208.26
443.98	8086.55
444.17	7791.64
444.35	8135.70
444.54	8290.18
444.73	8486.78
444.91	8339.33
445.10	8407.20
445.28	8423.59
445.47	8194.22
445.65	8231.66
445.84	8395.50
446.02	8428.27
446.21	8367.42
446.39	8297.20
446.58	8351.03
446.77	8444.65
446.95	8152.09
447.14	8423.59
447.32	8432.95
447.51	8454.02
447.69	8454.02
447.88	8777.01
448.06	8512.53
448.25	8461.04
448.43	8559.34
448.62	8442.31
448.80	8585.08
448.99	8688.07
449.17	8652.96
449.36	8594.45
449.54	8657.64
449.73	8830.84
449.91	9043.83
450.10	8954.89
450.28	9116.39
450.46	9062.55
450.65	9011.06
450.83	9085.96
451.02	9121.07
451.20	9053.19
451.39	8931.48
451.57	9097.66
451.76	8966.59
451.94	9245.12
452.13	9425.34
452.31	9350.44
452.49	9067.24
452.68	9287.25
452.86	9160.86
453.05	9364.48
453.23	9483.85
453.42	9537.68
453.60	9118.73
453.78	9509.60
453.97	9413.63
454.15	9483.85
454.34	9362.14
454.52	9757.69
454.70	9652.37
454.89	10073.67
455.07	9886.42
455.26	9851.31
455.44	9856.00
455.62	9949.62
455.81	9767.06
455.99	9809.19
456.17	9937.91
456.36	9984.73
456.54	10094.73
456.73	10207.08
456.91	10438.79
457.09	10356.87
457.28	10635.39
457.46	10040.90
457.64	10501.98
457.83	10616.67
458.01	10314.74
458.19	10501.98
458.38	10523.05
458.56	10532.41
458.74	10614.33
458.93	10626.03
459.11	10525.39
459.29	10530.07
459.48	10689.23
459.66	10846.04
459.84	10902.22
460.03	11126.91
460.21	10918.60
460.39	11087.12
460.57	11082.44
460.76	11246.27
460.94	10949.03
461.12	11279.04
461.31	11267.34
461.49	11028.60
461.67	11239.25
461.85	11398.41
462.04	11274.36
462.22	11712.04
462.40	11353.94
462.59	11391.39
462.77	11342.24
462.95	11571.61
463.13	11517.78
463.32	11634.80
463.50	11803.32
463.68	11676.93
463.86	11665.23
464.05	11627.78
464.23	11604.38
464.41	11735.45
464.59	11683.95
464.78	12241.00
464.96	11892.26
465.14	11882.90
465.32	12212.92
465.50	11894.60
465.69	11873.54
465.87	11999.93
466.05	12028.01
466.23	12028.01
466.41	12020.99
466.60	12430.59
466.78	11908.65
466.96	12250.36
467.14	12219.94
467.32	12425.90
467.51	12503.14
467.69	12105.25
467.87	12393.14
468.05	12336.96
468.23	12112.27
468.41	12390.80
468.60	12451.65
468.78	12596.76
468.96	12601.44
469.14	12664.64
469.32	12802.73
469.50	12760.60
469.69	12659.96
469.87	13088.28
470.05	12929.12
470.23	13053.17
470.41	12908.05
470.59	13364.46
470.77	13046.15
470.95	13104.66
471.14	13582.13
471.32	13184.24
471.50	13518.93
471.68	13511.91
471.86	13633.62
472.04	13481.49
472.22	13867.67
472.40	13633.62
472.58	13642.98
472.77	13879.38
472.95	14104.07
473.13	14270.25
473.31	13818.52
473.49	14256.20
473.67	14012.79
473.85	14099.39
474.03	14731.33
474.21	14750.06
474.39	14588.56
474.57	14609.62
474.75	14860.06
474.93	14904.53
475.12	14813.25
475.30	15000.49
475.48	14857.72
475.66	15094.11
475.84	15192.42
476.02	15351.57
476.20	15147.95
476.38	15723.72
476.56	15857.13
476.74	15943.73
476.92	16044.37
477.10	15798.62
477.28	16016.29
477.46	16039.69
477.64	16311.19
477.82	16381.41
478.00	16748.87
478.18	16664.61
478.36	16828.45
478.54	17071.87
478.72	17123.36
478.90	17334.01
479.08	17483.80
479.26	17549.34
479.44	17696.79
479.62	17881.69
479.80	18017.44
479.98	18176.60
480.16	18375.55
480.34	18073.62
480.52	18466.83
480.70	18661.09
480.88	18335.76
481.06	18412.99
481.24	18635.35
481.41	19257.93
481.59	19063.66
481.77	19318.78
481.95	19454.53
482.13	19393.68
482.31	19410.06
482.49	20563.95
482.67	19892.21
482.85	20170.74
483.03	20446.92
483.21	20830.77
483.39	20723.10
483.57	20790.98
483.74	21144.40
483.92	21336.32
484.10	21062.48
484.28	21422.92
484.46	21968.27
484.64	22214.02
484.82	21818.47
485.00	22279.56
485.18	22731.28
485.35	23016.83
485.53	22824.90
485.71	22934.91
485.89	23426.42
486.07	23356.21
486.25	23353.87
486.43	23461.53
486.61	23740.05
486.78	24039.64
486.96	24039.64
487.14	24521.79
487.32	24205.82
487.50	24842.45
487.68	24915.00
487.85	25104.59
488.03	25163.10
488.21	25465.03
488.39	25628.87
488.57	25759.94
488.75	25736.53
488.92	26321.66
489.10	26754.66
489.28	26595.51
489.46	27049.57
489.64	26911.48
489.81	27452.14
489.99	27356.18
490.17	27728.33
490.35	27988.13
490.53	28175.37
490.70	28238.56
490.88	28201.11
491.06	28683.27
491.24	28308.78
491.41	28833.06
491.59	29090.52
491.77	28957.11
491.95	29645.23
492.13	29546.92
492.30	29689.70
492.48	30113.33
492.66	29872.26
492.84	29921.41
493.01	30471.43
493.19	30333.34
493.37	30932.52
493.54	30976.99
493.72	31543.40
493.90	31147.85
494.08	31765.75
494.25	32149.60
494.43	31728.30
494.61	32299.39
494.79	32463.23
494.96	32299.39
495.14	32631.75
495.32	33095.18
495.49	33151.35
495.67	32882.19
495.85	33259.01
496.02	33560.94
496.20	33991.60
496.38	34047.77
496.55	34148.42
496.73	34859.94
496.91	34745.25
497.09	34562.69
497.26	34717.17
497.44	34700.78
497.62	35225.06
497.79	35688.49
497.97	35302.30
498.14	35997.44
498.32	36018.50
498.50	36236.17
498.67	36360.22
498.85	36165.96
499.03	36563.85
499.20	36519.38
499.38	36620.02
499.56	36882.16
499.73	36793.22
499.91	37038.98
500.08	37401.76
500.26	37092.81
500.44	37308.14
500.61	37600.71
500.79	37158.34
500.97	37514.11
501.14	38527.56
501.32	38637.56
501.49	38281.80
501.67	38157.75
501.84	38911.41
502.02	38724.16
502.20	38850.55
502.37	38993.32
502.55	38911.41
502.72	39269.51
502.90	39321.00
503.07	39416.96
503.25	39721.23
503.43	39988.05
503.60	39964.65
503.78	40044.23
503.95	40058.27
504.13	40423.39
504.30	40732.34
504.48	40367.22
504.65	40856.39
504.83	40907.88
505.01	40847.03
505.18	40748.73
505.36	41378.33
505.53	41237.90
505.71	41450.89
505.88	41661.54
506.06	41401.74
506.23	41544.51
506.41	41757.50
506.58	42005.59
506.76	42010.28
506.93	42546.26
507.11	42492.43
507.28	42403.49
507.46	42344.97
507.63	42447.96
507.81	42710.10
507.98	42494.77
508.16	43037.77
508.33	43042.45
508.50	43510.56
508.68	43271.82
508.85	44060.58
509.03	43601.84
509.20	43758.66
509.38	44147.18
509.55	44210.38
509.73	43924.83
509.90	44280.60
510.08	44034.84
510.25	44362.51
510.42	44423.37
510.60	44847.00
510.77	45125.53
510.95	45090.42
511.12	44926.58
511.30	45036.59
511.47	45579.59
511.64	45244.90
511.82	45476.61
511.99	45804.28
512.17	45841.73
512.34	45851.09
512.51	45947.06
512.69	46277.07
512.86	45989.19
513.04	46541.55
513.21	46473.68
513.38	46483.04
513.56	46747.52
513.73	46398.78
513.90	46880.93
514.08	46658.58
514.25	46958.17
514.43	47440.32
514.60	47718.84
514.77	47222.65
514.95	47662.67
515.12	47114.98
515.29	47643.94
515.47	47770.33
515.64	47906.08
515.81	47969.28
515.99	48308.66
516.16	48205.67
516.33	47896.72
516.51	48729.95
516.68	48224.40
516.85	48140.14
517.03	48692.50
517.20	48718.25
517.37	48615.27
517.54	48626.97
517.72	48659.74
517.89	48910.17
518.06	49092.74
518.24	49181.68
518.41	49205.08
518.58	49148.91
518.75	48905.49
518.93	49502.33
519.10	49570.21
519.27	49457.86
519.45	49736.38
519.62	49645.10
519.79	49879.16
519.96	49834.69
520.14	50031.29
520.31	49879.16
520.48	50305.13
520.65	50255.98
520.83	50344.92
521.00	50234.92
521.17	50153.00
521.34	50464.29
521.52	50880.91
521.69	50475.99
521.86	50927.72
522.03	51143.05
522.20	51016.66
522.38	51475.40
522.55	51231.99
522.72	51152.41
522.89	51222.62
523.07	51161.77
523.24	51227.31
523.41	51365.40
523.58	51597.11
523.75	51136.02
523.92	51723.50
524.10	51789.03
524.27	52097.98
524.44	51812.44
524.61	51803.08
524.78	52090.96
524.96	51908.40
525.13	52065.22
525.30	52109.69
525.47	52266.50
525.64	52062.88
525.81	52423.32
525.98	52444.38
526.16	52374.17
526.33	52420.98
526.50	52622.26
526.67	52680.78
526.84	52814.19
527.01	52507.58
527.18	52650.35
527.36	52940.58
527.53	52903.13
527.70	53308.04
527.87	53111.44
528.04	52903.13
528.21	53179.31
528.38	53268.25
528.55	53462.52
528.72	53256.55
528.89	53439.11
529.07	53282.30
529.24	53347.83
529.41	53504.65
529.58	53834.66
529.75	53661.46
529.92	53485.92
530.09	53780.83
530.26	53684.87
530.43	53865.09
530.60	53900.20
530.77	53619.33
530.94	53904.88
531.11	54057.01
531.28	53961.05
531.46	53963.39
531.63	54181.06
531.80	53939.99
531.97	54384.69
532.14	54267.66
532.31	54124.89
532.48	54415.11
532.65	54569.59
532.82	54232.55
532.99	54628.10
533.16	54553.21
533.33	54497.03
533.50	55000.25
533.67	54583.63
533.84	54459.58
534.01	54866.84
534.18	54602.36
534.35	55243.66
534.52	54988.55
534.69	54990.89
534.86	55196.85
535.03	54726.41
535.20	55196.85
535.37	55084.51
535.54	55175.79
535.71	55098.55
535.88	55260.05
536.05	55238.98
536.22	55313.88
536.38	55501.12
536.55	55496.44
536.72	55423.89
536.89	55444.95
537.06	55447.29
537.23	55676.66
537.40	55346.65
537.57	55765.60
537.74	55700.07
537.91	55924.76
538.08	55669.64
538.25	55653.26
538.42	55723.47
538.59	56119.02
538.75	55789.01
538.92	56128.39
539.09	56151.79
539.26	55791.35
539.43	55938.80
539.60	55798.37
539.77	55957.53
539.94	56189.24
540.11	56268.82
540.28	56402.23
540.44	56273.50
540.61	56184.56
540.78	56285.20
540.95	56362.44
541.12	56336.69
541.29	56369.46
541.46	56402.23
541.62	56626.92
541.79	56673.73
541.96	56413.93
542.13	56324.99
542.30	56580.11
542.47	56610.54
542.63	56905.44
542.80	56921.83
542.97	57050.56
543.14	56949.92
543.31	57017.79
543.48	57127.80
543.64	57279.93
543.81	57160.56
543.98	57310.36
544.15	57008.43
544.32	57389.94
544.48	57394.62
544.65	56933.53
544.82	57434.41
544.99	57057.58
545.16	57474.20
545.32	57425.04
545.49	57677.82
545.66	57600.58
545.83	57315.04
546.00	57787.83
546.16	57366.53
546.33	57322.06
546.50	57616.97
546.67	57584.20
546.83	57277.59
547.00	57645.05
547.17	57513.98
547.34	57757.40
547.50	57668.46
547.67	57923.58
547.84	57701.23
548.00	57965.71
548.17	58045.29
548.34	57916.56
548.51	58176.36
548.67	58110.82
548.84	58087.42
549.01	57876.77
549.18	58246.57
549.34	58113.16
549.51	58094.44
549.68	58202.10
549.84	58159.97
550.01	58059.33
550.18	58096.78
550.34	58255.93
550.51	58454.88
550.68	58216.14
550.84	58148.27
551.01	58192.74
551.18	58473.60
551.34	58333.17
551.51	58527.44
551.68	58433.81
551.84	58417.43
552.01	58291.04
552.18	58602.33
552.34	58157.63
552.51	58557.86
552.68	58415.09
552.84	58574.25
553.01	58850.43
553.18	58679.57
553.34	58904.26
553.51	58609.35
553.67	58915.96
553.84	58866.81
554.01	58960.44
554.17	59063.42
554.34	58960.44
554.51	58728.72
554.67	58862.13
554.84	58993.20
555.00	58962.78
555.17	58803.62
555.33	58834.05
555.50	58852.77
555.67	58827.02
555.83	58820.00
556.00	59044.69
556.16	59245.98
556.33	59131.29
556.50	59016.61
556.66	59185.13
556.83	59128.95
556.99	59292.79
557.16	59344.28
557.32	59306.83
557.49	59566.63
557.65	59175.76
557.82	59281.09
557.98	59374.71
558.15	59351.30
558.32	59365.35
558.48	59070.44
558.65	59529.19
558.81	59491.74
558.98	59302.15
559.14	59545.57
559.31	59465.99
559.47	59517.48
559.64	59693.02
559.80	59648.55
559.97	59749.20
560.13	59559.61
560.30	59777.28
560.46	59597.06
560.63	59796.01
560.79	59545.57
560.96	59657.91
561.12	59657.91
561.29	59767.92
561.45	59994.95
561.61	59723.45
561.78	59819.41
561.94	59473.01
562.11	59583.02
562.27	59821.75
562.44	59877.93
562.60	59990.27
562.77	59889.63
562.93	59849.84
563.10	60236.03
563.26	59718.77
563.42	59966.87
563.59	59798.35
563.75	59838.14
563.92	59859.20
564.08	59948.14
564.24	60081.55
564.41	60104.96
564.57	59966.87
564.74	59959.84
564.90	60149.43
565.07	59962.18
565.23	60006.65
565.39	59999.63
565.56	59964.52
565.72	59906.01
565.88	60023.04
566.05	60095.60
566.21	60238.37
566.38	60238.37
566.54	60009.00
566.70	60111.98
566.87	60280.50
567.03	60299.22
567.19	60210.28
567.36	60252.41
567.52	60172.83
567.68	60280.50
567.85	60292.20
568.01	60425.61
568.17	60224.32
568.34	60266.45
568.50	60299.22
568.66	60474.76
568.83	60430.29
568.99	60381.14
569.15	60177.51
569.32	60460.72
569.48	60360.08
569.64	60177.51
569.81	60425.61
569.97	60119.00
570.13	60266.45
570.30	60135.38
570.46	60355.39
570.62	60470.08
570.78	60523.91
570.95	60346.03
571.11	60397.52
571.27	60376.46
571.43	60423.27
571.60	60437.31
571.76	60296.88
571.92	60568.38
572.09	60437.31
572.25	60434.97
572.41	60542.64
572.57	60552.00
572.74	60800.10
572.90	60624.56
573.06	60477.10
573.22	60519.23
573.38	60575.40
573.55	60516.89
573.71	60664.35
573.87	60589.45
574.03	60427.95
574.20	60605.83
574.36	60563.70
574.52	60521.57
574.68	60577.75
574.84	60711.16
575.01	60769.67
575.17	60626.90
575.33	60491.15
575.49	60544.98
575.65	60563.70
575.82	60739.24
575.98	60800.10
576.14	60842.23
576.30	60977.98
576.46	60767.33
576.62	60676.05
576.79	60563.70
576.95	60554.34
577.11	60807.12
577.27	60755.63
577.43	60781.37
577.59	60767.33
577.75	60498.17
577.92	60413.91
578.08	60797.76
578.24	60743.92
578.40	61020.11
578.56	60853.93
578.72	60596.47
578.88	60846.91
579.04	60921.80
579.21	60900.74
579.37	60954.57
579.53	60839.89
579.69	60781.37
579.85	60619.88
580.01	60828.18
580.17	60561.36
580.33	60935.85
580.49	60956.91
580.65	60781.37
580.82	60596.47
580.98	60598.81
581.14	60741.58
581.30	60977.98
581.46	60917.12
581.62	60917.12
581.78	60605.83
581.94	60828.18
582.10	60783.71
582.26	60830.52
582.42	60669.03
582.58	60992.02
582.74	60779.03
582.90	60896.06
583.06	60952.23
583.22	60633.92
583.38	60725.20
583.54	60926.49
583.70	60903.08
583.86	60783.71
584.02	60753.29
584.18	60846.91
584.34	61008.40
584.50	60795.42
584.66	60872.65
584.82	60750.94
584.98	61052.87
585.14	61102.03
585.30	60757.97
585.46	60725.20
585.62	60872.65
585.78	60779.03
585.94	60910.10
586.10	60898.40
586.26	60802.44
586.42	60966.27
586.58	61052.87
586.74	60949.89
586.90	60830.52
587.06	60914.78
587.22	60959.25
587.38	60945.21
587.54	61132.45
587.70	60961.59
587.86	60910.10
588.02	61031.81
588.18	61331.40
588.34	60959.25
588.49	60940.53
588.65	61050.53
588.81	60926.49
588.97	61120.75
589.13	61172.24
589.29	61139.47
589.45	61251.82
589.61	61109.05
589.77	61223.73
589.93	61106.71
590.08	61116.07
590.24	61296.29
590.40	61436.72
590.56	61354.80
590.72	61401.61
590.88	60954.57
591.04	61176.92
591.20	61413.32
591.35	61212.03
591.51	61275.22
591.67	61516.30
591.83	61272.88
591.99	61169.90
592.15	61272.88
592.31	61265.86
592.46	61237.78
592.62	61462.47
592.78	61338.42
592.94	61296.29
593.10	61359.48
593.26	61446.08
593.41	61322.04
593.57	61244.80
593.73	61415.66
593.89	61715.25
594.05	61361.82
594.20	61352.46
594.36	61420.34
594.52	61382.89
594.68	61223.73
594.84	61385.23
594.99	61319.70
595.15	61427.36
595.31	61544.39
595.47	61315.01
595.62	61188.63
595.78	61209.69
595.94	61537.36
596.10	61656.73
596.25	61614.60
596.41	61464.81
596.57	61357.14
596.73	61506.94
596.88	61481.19
597.04	61687.16
597.20	61558.43
597.36	61415.66
597.51	61708.22
597.67	61478.85
597.83	61291.61
597.99	61670.78
598.14	61558.43
598.30	61595.88
598.46	61577.15
598.61	61757.38
598.77	61595.88
598.93	61567.79
599.09	61649.71
599.24	61834.61
599.40	61733.97
599.56	61677.80
599.71	61787.80
599.87	61780.78
600.03	61729.29
600.18	61513.96
600.34	61422.68
600.50	61614.60
600.65	61560.77
600.81	61771.42
600.97	61778.44
601.12	61602.90
601.28	61537.36
601.44	61649.71
601.59	61757.38
601.75	61408.64
601.91	61752.69
602.06	61551.41
602.22	61923.55
602.37	61827.59
602.53	61577.15
602.69	61755.03
602.84	61497.58
603.00	61462.47
603.16	61785.46
603.31	61532.68
603.47	61762.06
603.62	61549.07
603.78	61853.34
603.94	61612.26
604.09	61811.21
604.25	61848.66
604.40	61574.81
604.56	61731.63
604.71	61708.22
604.87	61570.13
605.03	61696.52
605.18	61645.03
605.34	61825.25
605.49	61696.52
605.65	61743.33
605.80	61769.08
605.96	61708.22
606.12	61696.52
606.27	61815.89
606.43	61703.54
606.58	61605.24
606.74	61560.77
606.89	61427.36
607.05	61656.73
607.20	61729.29
607.36	61425.02
607.51	61586.52
607.67	61502.26
607.82	61574.81
607.98	61556.09
608.13	61598.22
608.29	61666.09
608.44	61455.45
608.60	61607.58
608.75	61520.98
608.91	61427.36
609.06	61275.22
609.22	61757.38
609.37	61453.11
609.53	61565.45
609.68	61434.38
609.84	61396.93
609.99	61530.34
610.15	61499.92
610.30	61680.14
610.46	61455.45
610.61	61532.68
610.76	61485.87
610.92	61506.94
611.07	61502.26
611.23	61272.88
611.38	61516.30
611.54	61633.33
611.69	61366.51
611.84	61537.36
612.00	61544.39
612.15	61415.66
612.31	61453.11
612.46	61235.44
612.62	61462.47
612.77	61153.52
612.92	61432.04
613.08	61345.44
613.23	61319.70
613.39	61357.14
613.54	61315.01
613.69	61394.59
613.85	61291.61
614.00	61645.03
614.15	61663.75
614.31	61258.84
614.46	61464.81
614.62	61289.27
614.77	61338.42
614.92	61329.06
615.08	61193.31
615.23	61284.59
615.38	61389.91
615.54	61186.28
615.69	61242.46
615.84	61293.95
616.00	61242.46
616.15	61055.21
616.30	61315.01
616.46	61048.19
616.61	61240.12
616.76	61188.63
616.92	61020.11
617.07	61219.05
617.22	61097.34
617.37	61251.82
617.53	61277.57
617.68	61286.93
617.83	61193.31
617.99	61174.58
618.14	61158.20
618.29	61298.63
618.45	60795.42
618.60	61029.47
618.75	60987.34
618.90	60977.98
619.06	61202.67
619.21	61118.41
619.36	61209.69
619.51	61186.28
619.67	60973.30
619.82	60781.37
619.97	61361.82
620.12	60982.66
620.28	60970.96
620.43	60863.29
620.58	60907.76
620.73	60931.17
620.89	61041.17
621.04	60940.53
621.19	60683.07
621.34	60793.07
621.49	60701.79
621.65	60952.23
621.80	61137.13
621.95	60739.24
622.10	60938.19
622.25	60900.74
622.41	60736.90
622.56	60797.76
622.71	60762.65
622.86	60505.19
623.01	60842.23
623.16	60479.44
623.32	60720.52
623.47	60828.18
623.62	60748.60
623.77	60584.77
623.92	60865.63
624.07	60842.23
624.23	60762.65
624.38	60626.90
624.53	60453.70
624.68	60449.02
624.83	60575.40
624.98	60470.08
625.13	60292.20
625.29	60591.79
625.44	60647.96
625.59	60346.03
625.74	60556.68
625.89	60449.02
626.04	60308.58
626.19	60252.41
626.34	60399.86
626.49	60280.50
626.65	60102.62
626.80	60441.99
626.95	60310.92
627.10	60158.79
627.25	60439.65
627.40	60233.69
627.55	60252.41
627.70	60439.65
627.85	60165.81
628.00	60090.91
628.15	60388.16
628.30	60303.90
628.45	60079.21
628.60	60212.62
628.76	60247.73
628.91	60158.79
629.06	60109.64
629.21	60158.79
629.36	60001.97
629.51	60126.02
629.66	59971.55
629.81	60168.15
629.96	59910.69
630.11	59941.12
630.26	59891.97
630.41	60111.98
630.56	60088.57
630.71	59976.23
630.86	59943.46
631.01	59948.14
631.16	60065.17
631.31	59833.46
631.46	59657.91
631.61	59730.47
631.76	59934.10
631.91	59765.58
632.06	59941.12
632.21	59966.87
632.36	59847.50
632.51	59529.19
632.66	59686.00
632.81	59749.20
632.96	59664.94
633.10	59791.33
633.25	59873.24
633.40	59826.43
633.55	59538.55
633.70	59632.17
633.85	59583.02
634.00	59641.53
634.15	59536.21
634.30	59599.40
634.45	59707.07
634.60	59732.81
634.75	59686.00
634.90	59470.67
635.05	59465.99
635.19	59611.10
635.34	59578.34
635.49	59566.63
635.64	59625.15
635.79	59531.53
635.94	59552.59
636.09	59524.50
636.24	59416.84
636.39	59454.29
636.53	59405.14
636.68	59517.48
636.83	59533.87
636.98	59566.63
637.13	59346.62
637.28	59365.35
637.43	59526.84
637.57	59325.56
637.72	59288.11
637.87	59194.49
638.02	59271.73
638.17	59388.75
638.32	59281.09
638.46	59157.04
638.61	59311.52
638.76	59133.63
638.91	59196.83
639.06	59274.07
639.20	58927.67
639.35	59152.36
639.50	58901.92
639.65	59047.04
639.80	59299.81
639.94	58901.92
640.09	59011.93
640.24	59028.31
640.39	58986.18
640.54	58981.50
640.68	59065.76
640.83	58920.65
640.98	58995.54
641.13	58766.17
641.27	59192.15
641.42	59000.22
641.57	58808.30
641.72	58810.64
641.86	58838.73
642.01	58667.87
642.16	58974.48
642.31	58710.00
642.45	58740.42
642.60	58827.02
642.75	58906.60
642.90	59007.25
643.04	58922.99
643.19	58639.78
643.34	58717.02
643.48	58798.94
643.63	58670.21
643.78	58525.10
643.93	58887.88
644.07	58791.92
644.22	58569.57
644.37	58375.30
644.51	58695.95
644.66	58632.76
644.81	58616.38
644.95	58637.44
645.10	58553.18
645.25	58401.05
645.39	58398.71
645.54	58398.71
645.69	58557.86
645.83	58534.46
645.98	58457.22
646.13	58206.78
646.27	58443.18
646.42	58284.02
646.57	58202.10
646.71	58513.39
646.86	58326.15
647.00	58482.97
647.15	58277.00
647.30	58382.32
647.44	58372.96
647.59	58443.18
647.74	58375.30
647.88	58518.07
648.03	58267.64
648.17	58291.04
648.32	58061.67
648.47	58368.28
648.61	58389.34
648.76	58204.44
648.90	58295.72
649.05	58309.77
649.20	58216.14
649.34	58120.18
649.49	58164.65
649.63	58330.83
649.78	58389.34
649.92	58232.53
650.07	58375.30
650.21	58071.03
650.36	58195.08
650.51	57942.30
650.65	58384.66
650.80	57993.79
650.94	58120.18
651.09	57670.80
651.23	57656.76
651.38	57902.51
651.52	57755.06
651.67	58082.73
651.81	57956.35
651.96	57752.72
652.10	57886.13
652.25	57729.31
652.39	57874.43
652.54	57762.08
652.68	57598.24
652.83	57785.49
652.97	57806.55
653.12	57719.95
653.26	57724.63
653.41	57726.97
653.55	57656.76
653.70	57745.70
653.84	57822.93
653.99	57673.14
654.13	57469.51
654.27	57565.48
654.42	57457.81
654.56	57471.85
654.71	57525.69
654.85	57647.39
655.00	57663.78
655.14	57443.77
655.29	57455.47
655.43	57469.51
655.57	57329.08
655.72	57436.75
655.86	57511.64
656.01	57415.68
656.15	57392.28
656.30	57640.37
656.44	57469.51
656.58	57467.17
656.73	57443.77
656.87	57350.15
657.01	57160.56
657.16	57352.49
657.30	57244.82
657.45	57200.35
657.59	57226.10
657.73	57279.93
657.88	57015.45
658.02	57146.52
658.16	57059.92
658.31	56947.57
658.45	57071.62
658.60	56966.30
658.74	57069.28
658.88	57095.03
659.03	56823.53
659.17	56935.87
659.31	56931.19
659.46	56924.17
659.60	57064.60
659.74	56868.00
659.89	56701.82
660.03	56568.41
660.17	56786.08
660.32	56767.35
660.46	56793.10
660.60	56505.21
660.74	56830.55
660.89	56718.20
661.03	56629.26
661.17	56612.88
661.32	56271.16
661.46	56392.87
661.60	56465.42
661.74	56151.79
661.89	56252.44
662.03	56161.15
662.17	56041.79
662.31	56025.40
662.46	56378.82
662.60	56175.20
662.74	56161.15
662.88	55838.16
663.03	55889.65
663.17	55987.95
663.31	55929.44
663.45	55992.64
663.60	55774.97
663.74	55480.06
663.88	55599.43
664.02	55697.73
664.17	56016.04
664.31	55772.63
664.45	55545.59
664.59	55681.34
664.73	55168.77
664.88	55620.49
665.02	55241.32
665.16	55346.65
665.30	55346.65
665.44	55274.09
665.59	55295.16
665.73	55238.98
665.87	55178.13
666.01	55304.52
666.15	55353.67
666.29	55072.81
666.44	55320.90
666.58	55021.31
666.72	54878.54
666.86	54719.38
667.00	55047.06
667.14	54721.72
667.28	54820.03
667.43	54326.17
667.57	54705.34
667.71	54372.99
667.85	54564.91
667.99	54712.36
668.13	54878.54
668.27	54272.34
668.41	54525.12
668.56	54064.03
668.70	54075.74
668.84	53804.24
668.98	53820.62
669.12	54092.12
669.26	54396.39
669.40	54136.59
669.54	54211.49
669.68	54108.50
669.82	53822.96
669.96	54391.71
670.10	53867.43
670.25	54038.29
670.39	54047.65
670.53	53846.36
670.67	53464.86
670.81	54253.62
670.95	53595.93
671.09	53703.59
671.23	53385.28
671.37	53523.37
671.51	53368.90
671.65	53478.90
671.79	53188.67
671.93	53095.05
672.07	53155.91
672.21	53038.88
672.35	52886.74
672.49	52739.29
672.63	52846.96
672.77	53034.20
672.91	52783.76
673.05	52406.94
673.19	52570.77
673.33	52069.90
673.47	52313.31
673.61	52453.75
673.75	52189.27
673.89	51924.78
674.03	51995.00
674.17	51679.03
674.31	51606.47
674.45	51374.76
674.59	51686.05
674.73	51840.53
674.87	51629.88
675.01	51564.34
675.15	51323.27
675.29	51503.49
675.43	51540.94
675.56	51304.54
675.70	51016.66
675.84	51285.82
675.98	49911.92
676.12	50904.31
676.26	51070.49
676.40	50499.40
676.54	50691.32
676.68	50810.69
676.82	50230.24
676.96	50440.89
677.10	49881.50
677.23	49853.41
677.37	49787.88
677.51	49581.91
677.65	49467.22
677.79	48818.89
677.93	49214.44
678.07	49198.06
678.21	48795.49
678.34	49139.55
678.48	48694.85
678.62	48676.12
678.76	48846.98
678.90	48175.25
679.04	48182.27
679.18	48367.17
679.31	47758.63
679.45	48189.29
679.59	48016.09
679.73	48074.60
679.87	47311.59
680.00	47571.39
680.14	47124.35
680.28	47316.27
680.42	47014.34
680.56	46590.70
680.70	46408.14
680.83	46775.61
680.97	46323.88
681.11	46937.10
681.25	46375.37
681.39	46185.79
681.52	46447.93
681.66	45888.54
681.80	46248.99
681.94	45511.72
682.07	45450.86
682.21	45315.11
682.35	45029.57
682.49	45338.52
682.62	45151.27
682.76	45600.66
682.90	44641.04
683.04	44928.92
683.17	44708.91
683.31	44449.11
683.45	44306.34
683.59	43943.56
683.72	43859.30
683.86	43903.77
684.00	44208.04
684.13	44308.68
684.27	43496.52
684.41	43849.94
684.55	43297.57
684.68	43419.28
684.82	43023.73
684.96	42955.85
685.09	42639.88
685.23	42651.58
685.37	41982.19
685.50	42639.88
685.64	42272.42
685.78	42150.71
685.91	42293.48
686.05	41455.57
686.19	41165.34
686.32	41375.99
686.46	41060.02
686.60	40884.48
686.73	40444.46
686.87	40854.05
687.01	40877.46
687.14	40933.63
687.28	40301.68
687.42	40128.48
687.55	39892.09
687.69	40636.38
687.82	39679.10
687.96	39206.31
688.10	39438.03
688.23	39777.40
688.37	39365.47
688.50	38885.66
688.64	38888.00
688.78	38609.48
688.91	38326.27
689.05	38527.56
689.18	38508.83
689.32	37434.53
689.46	37404.10
689.59	37425.17
689.73	37699.01
689.86	37193.45
690.00	37212.18
690.13	37422.83
690.27	37663.90
690.41	37684.97
690.54	36589.59
690.68	36924.29
690.81	36470.23
690.95	36371.92
691.08	36065.31
691.22	35854.67
691.35	35562.10
691.49	35789.13
691.62	36573.21
691.76	35248.47
691.89	35449.75
692.03	35241.45
692.16	35196.98
692.30	35115.06
692.43	34969.94
692.57	34845.90
692.70	34752.27
692.84	34469.07
692.97	34464.39
693.11	33912.02
693.24	34031.39
693.38	33860.53
693.51	33713.08
693.65	33464.98
693.78	33631.16
693.92	33347.95
694.05	32936.02
694.19	33315.19
694.32	32940.70
694.45	32931.34
694.59	32620.05
694.72	32811.97
694.86	32659.84
694.99	31920.23
695.13	31971.72
695.26	31976.40
695.39	31732.98
695.53	31634.68
695.66	31585.53
695.80	31445.10
695.93	31178.28
696.07	30298.23
696.20	30543.99
696.33	30569.74
696.47	30827.20
696.60	30504.20
696.73	30513.56
696.87	30281.85
697.00	30443.35
697.14	30047.80
697.27	30256.11
697.40	29792.68
697.54	29652.25
697.67	29537.56
697.80	29247.33
697.94	29186.48
698.07	29184.14
698.21	29055.41
698.34	29127.97
698.47	28603.69
698.61	28140.26
698.74	28360.27
698.87	28147.28
699.01	28313.46
699.14	28315.80
699.27	27779.82
699.40	27997.49
699.54	27814.93
699.67	27775.14
699.80	27285.97
699.94	27253.20
700.07	27058.93
700.20	26848.29
700.34	26834.24
700.47	26525.29
700.60	26565.08
700.73	26293.58
700.87	26106.34
701.00	26103.99
701.13	25858.24
701.26	25773.98
701.40	25834.83
701.53	25668.66
701.66	25577.37
701.79	25448.64
701.93	25247.36
702.06	25256.72
702.19	25092.88
702.32	25284.81
702.46	24645.84
702.59	24322.85
702.72	24109.86
702.85	24184.76
702.99	24446.90
703.12	24297.10
703.25	23946.02
703.38	23798.57
703.51	23314.08
703.65	23246.20
703.78	23220.45
703.91	23304.71
704.04	23145.56
704.17	23405.36
704.31	23192.37
704.44	22773.41
704.57	22698.52
704.70	22794.48
704.83	22452.76
704.96	22506.59
705.10	22218.71
705.23	22815.54
>>>>>End Processed Spectral Data<<<<<
