SpectraSuite Data File
++++++++++++++++++++++++++++++++++++
Date: Fri Oct 25 11:26:21 EDT 2013
User: price-jones
Dark Spectrum Present: No
Reference Spectrum Present: No
Number of Sampled Component Spectra: 1
Spectrometers: USB2+H05261
Integration Time (usec): 100000 (USB2+H05261)
Spectra Averaged: 1 (USB2+H05261)
Boxcar Smoothing: 0 (USB2+H05261)
Correct for Electrical Dark: No (USB2+H05261)
Strobe/Lamp Enabled: No (USB2+H05261)
Correct for Detector Non-linearity: No (USB2+H05261)
Correct for Stray Light: No (USB2+H05261)
Number of Pixels in Processed Spectrum: 2048
>>>>>Begin Processed Spectral Data<<<<<
365.73	154.48
365.92	154.48
366.12	154.48
366.32	198.95
366.52	147.45
366.72	163.84
366.91	117.03
367.11	135.75
367.31	110.01
367.51	149.79
367.70	194.26
367.90	166.18
368.10	180.22
368.30	56.17
368.49	175.54
368.69	250.44
368.89	205.97
369.09	170.86
369.28	156.82
369.48	128.73
369.68	215.33
369.87	322.99
370.07	215.33
370.27	290.23
370.47	381.51
370.66	599.18
370.86	599.18
371.06	627.26
371.25	650.67
371.45	723.23
371.65	706.84
371.84	655.35
372.04	711.52
372.24	678.76
372.44	727.91
372.63	772.38
372.83	765.36
373.03	741.95
373.22	809.83
373.42	690.46
373.62	765.36
373.81	770.04
374.01	901.11
374.21	814.51
374.40	781.74
374.60	884.72
374.79	830.89
374.99	849.61
375.19	807.48
375.38	833.23
375.58	798.12
375.78	877.70
375.97	891.74
376.17	936.21
376.37	887.06
376.56	931.53
376.76	882.38
376.95	912.81
377.15	870.68
377.35	950.26
377.54	1095.37
377.74	978.34
377.93	929.19
378.13	933.87
378.33	1001.75
378.52	1001.75
378.72	943.24
378.91	1022.81
379.11	950.26
379.31	915.15
379.50	983.02
379.70	968.98
379.89	992.39
380.09	992.39
380.28	894.08
380.48	940.90
380.68	894.08
380.87	959.62
381.07	1022.81
381.26	1025.15
381.46	1004.09
381.65	1001.75
381.85	1069.62
382.04	1095.37
382.24	1043.88
382.43	1050.90
382.63	1046.22
382.83	1083.67
383.02	1069.62
383.22	1100.05
383.41	1067.28
383.61	1029.84
383.80	1097.71
384.00	1114.10
384.19	1107.07
384.39	1135.16
384.58	1107.07
384.78	1093.03
384.97	1196.01
385.17	1163.25
385.36	1081.33
385.56	1076.65
385.75	1179.63
385.95	1170.27
386.14	1231.12
386.34	1217.08
386.53	1277.93
386.72	1123.46
386.92	1289.64
387.11	1212.40
387.31	1238.14
387.50	1172.61
387.70	1245.16
387.89	1179.63
388.09	1259.21
388.28	1352.83
388.48	1254.53
388.67	1324.74
388.86	1233.46
389.06	1217.08
389.25	1359.85
389.45	1217.08
389.64	1324.74
389.84	1355.17
390.03	1359.85
390.22	1291.98
390.42	1481.56
390.61	1366.87
390.81	1437.09
391.00	1409.00
391.19	1376.24
391.39	1437.09
391.58	1476.88
391.78	1413.68
391.97	1504.96
392.16	1409.00
392.36	1483.90
392.55	1509.65
392.75	1565.82
392.94	1493.26
393.13	1563.48
393.33	1556.46
393.52	1526.03
393.71	1614.97
393.91	1584.54
394.10	1614.97
394.29	1605.61
394.49	1596.25
394.68	1710.93
394.88	1636.03
395.07	1652.42
395.26	1734.34
395.46	1629.01
395.65	1600.93
395.84	1650.08
396.04	1823.28
396.23	1760.08
396.42	1626.67
396.62	1699.23
396.81	1741.36
397.00	1727.32
397.19	1851.36
397.39	1856.04
397.58	1830.30
397.77	1743.70
397.97	1940.30
398.16	1825.62
398.35	1912.22
398.55	1776.47
398.74	1949.67
398.93	1970.73
399.12	1944.99
399.32	1872.43
399.51	1966.05
399.70	1940.30
399.90	1933.28
400.09	1970.73
400.28	2031.58
400.47	1968.39
400.67	2050.31
400.86	2097.12
401.05	2029.24
401.24	2108.82
401.44	2146.27
401.63	2179.04
401.82	2115.84
402.01	2139.25
402.21	2111.16
402.40	2195.42
402.59	2305.43
402.78	2148.61
402.97	2214.15
403.17	2289.04
403.36	2345.22
403.55	2307.77
403.74	2373.30
403.93	2335.85
404.13	2286.70
404.32	2333.51
404.51	2356.92
404.70	2338.20
404.89	2296.07
405.09	2525.44
405.28	2401.39
405.47	2459.90
405.66	2518.42
405.85	2487.99
406.05	2424.80
406.24	2497.35
406.43	2569.91
406.62	2579.27
406.81	2637.78
407.00	2642.46
407.20	2600.34
407.39	2626.08
407.58	2705.66
407.77	2691.62
407.96	2733.75
408.15	2761.83
408.34	2757.15
408.54	2799.28
408.73	2862.48
408.92	2949.08
409.11	2888.22
409.30	2771.19
409.49	2956.10
409.68	2839.07
409.87	2815.66
410.07	3042.70
410.26	3096.53
410.45	2923.33
410.64	2958.44
410.83	3136.32
411.02	3110.57
411.21	3232.28
411.40	3227.60
411.59	3185.47
411.78	3307.18
411.98	3236.96
412.17	3279.09
412.36	3236.96
412.55	3318.88
412.74	3440.59
412.93	3487.40
413.12	3269.73
413.31	3407.82
413.50	3475.70
413.69	3473.36
413.88	3700.39
414.07	3550.59
414.26	3758.90
414.45	3618.47
414.64	3674.64
414.83	3672.30
415.02	3758.90
415.22	3791.67
415.41	3852.52
415.60	3936.78
415.79	3847.84
415.98	3974.23
416.17	3960.19
416.36	3915.72
416.55	3889.97
416.74	3969.55
416.93	4002.32
417.12	4046.79
417.31	4093.60
417.50	4241.05
417.69	4112.32
417.88	4250.41
418.07	4285.52
418.26	4353.40
418.45	4397.87
418.64	4491.49
418.83	4456.38
419.02	4381.48
419.21	4390.84
419.39	4273.82
419.58	4582.77
419.77	4524.26
419.96	4606.17
420.15	4624.90
420.34	4542.98
420.53	4519.57
420.72	4505.53
420.91	4566.39
421.10	4755.97
421.29	4873.00
421.48	4655.33
421.67	4842.57
421.86	4739.58
422.05	4678.73
422.24	4629.58
422.43	4851.93
422.61	4873.00
422.80	4861.29
422.99	4858.95
423.18	4938.53
423.37	5022.79
423.56	5036.83
423.75	4966.62
423.94	4791.08
424.13	4589.79
424.32	4603.83
424.50	4863.63
424.69	5081.30
424.88	4961.94
425.07	4994.70
425.26	4975.98
425.45	4929.17
425.64	4903.42
425.83	4985.34
426.01	5083.64
426.20	4992.36
426.39	5231.10
426.58	5053.22
426.77	4870.65
426.96	4959.60
427.15	5240.46
427.33	5158.54
427.52	5156.20
427.71	5100.03
427.90	5160.88
428.09	5387.91
428.28	5394.93
428.46	5315.36
428.65	5322.38
428.84	5537.71
429.03	5357.49
429.22	5345.78
429.40	5472.17
429.59	5390.25
429.78	5371.53
429.97	5217.05
430.16	5315.36
430.34	5689.84
430.53	5617.29
430.72	5650.05
430.91	5715.59
431.10	5518.98
431.28	5650.05
431.47	5724.95
431.66	5659.42
431.85	5858.36
432.03	5921.56
432.22	5916.87
432.41	5764.74
432.60	5856.02
432.79	5935.60
432.97	5963.68
433.16	5921.56
433.35	6001.13
433.54	6120.50
433.72	6022.20
433.91	6024.54
434.10	6050.28
434.28	6017.52
434.47	6047.94
434.66	6090.07
434.85	6223.48
435.03	6274.98
435.22	6150.93
435.41	6462.22
435.59	6349.87
435.78	6335.83
435.97	6427.11
436.16	6516.05
436.34	6312.42
436.53	6586.27
436.72	6544.14
436.90	6452.86
437.09	6658.82
437.28	6403.71
437.46	6623.72
437.65	6801.60
437.84	6490.31
438.02	6567.54
438.21	6581.59
438.40	6827.34
438.58	6918.62
438.77	6895.22
438.96	6869.47
439.14	6946.71
439.33	7115.23
439.52	7148.00
439.70	7213.53
439.89	7360.98
440.08	7431.20
440.26	7199.49
440.45	7248.64
440.63	7508.44
440.82	7681.64
441.01	7595.04
441.19	7571.63
441.38	7569.29
441.57	7693.34
441.75	7583.34
441.94	7751.85
442.12	7908.67
442.31	7932.08
442.50	8044.42
442.68	7852.50
442.87	7948.46
443.05	8109.96
443.24	8301.88
443.43	8049.10
443.61	8131.02
443.80	8243.37
443.98	7941.44
444.17	7871.22
444.35	8177.83
444.54	8425.93
444.73	8367.42
444.91	8306.56
445.10	8290.18
445.28	8177.83
445.47	8198.90
445.65	8264.43
445.84	8423.59
446.02	8489.12
446.21	8428.27
446.39	8454.02
446.58	8531.25
446.77	8472.74
446.95	8376.78
447.14	8234.00
447.32	8439.97
447.51	8475.08
447.69	8376.78
447.88	8362.73
448.06	8559.34
448.25	8400.18
448.43	8353.37
448.62	8718.50
448.80	8446.99
448.99	8582.74
449.17	8561.68
449.36	8559.34
449.54	8791.05
449.73	8940.85
449.91	8704.45
450.10	8805.10
450.28	8982.98
450.46	8805.10
450.65	8699.77
450.83	9032.13
451.02	8997.02
451.20	8936.17
451.39	9048.51
451.57	9217.03
451.76	8950.21
451.94	9092.98
452.13	9174.90
452.31	9291.93
452.49	8957.23
452.68	9245.12
452.86	9212.35
453.05	9453.42
453.23	9362.14
453.42	9373.85
453.60	9366.82
453.78	9540.02
453.97	9397.25
454.15	9390.23
454.34	9479.17
454.52	9741.31
454.70	9474.49
454.89	9790.46
455.07	9692.16
455.26	9647.69
455.44	9872.38
455.62	10104.09
455.81	9785.78
455.99	9893.44
456.17	9830.25
456.36	10080.69
456.54	10036.22
456.73	10235.16
456.91	10511.35
457.09	10270.27
457.28	10399.00
457.46	10200.05
457.64	10558.16
457.83	10523.05
458.01	10354.53
458.19	10576.88
458.38	10363.89
458.56	10586.24
458.74	10604.97
458.93	10583.90
459.11	10478.58
459.29	10384.96
459.48	10534.75
459.66	10614.33
459.84	10946.69
460.03	11283.72
460.21	11143.29
460.39	10721.99
460.57	10963.07
460.76	10998.18
460.94	11232.23
461.12	11035.63
461.31	11047.33
461.49	11169.04
461.67	11173.72
461.85	11529.48
462.04	11241.59
462.22	11721.40
462.40	11576.29
462.59	11367.98
462.77	11290.74
462.95	11517.78
463.13	11627.78
463.32	11566.93
463.50	11903.96
463.68	11754.17
463.86	11492.03
464.05	11293.08
464.23	11669.91
464.41	11868.86
464.59	11513.10
464.78	12100.57
464.96	11833.75
465.14	11611.40
465.32	11747.15
465.50	11915.67
465.69	11950.78
465.87	12098.23
466.05	12032.69
466.23	12063.12
466.41	12091.21
466.60	12484.42
466.78	11988.22
466.96	11779.92
467.14	12023.33
467.32	12276.11
467.51	12482.08
467.69	12121.63
467.87	12397.82
468.05	12374.41
468.23	12173.13
468.41	12542.93
468.60	12482.08
468.78	12718.47
468.96	12449.31
469.14	12552.29
469.32	13039.12
469.50	12496.12
469.69	13029.76
469.87	13025.08
470.05	13125.72
470.23	12996.99
470.41	13008.70
470.59	13092.96
470.77	13186.58
470.95	13125.72
471.14	13628.94
471.32	13071.89
471.50	13422.97
471.68	13556.38
471.86	13563.40
472.04	13764.69
472.22	13743.63
472.40	13809.16
472.58	13596.17
472.77	13832.57
472.95	14054.92
473.13	14410.68
473.31	14143.86
473.49	13998.74
473.67	13956.61
473.85	14061.94
474.03	14284.29
474.21	14391.95
474.39	14771.12
474.57	14359.19
474.75	14710.27
474.93	15019.22
475.12	15103.48
475.30	15293.06
475.48	14738.35
475.66	15049.64
475.84	15070.71
476.02	15147.95
476.20	15349.23
476.38	15379.66
476.56	15784.57
476.74	15871.17
476.92	15906.28
477.10	15976.50
477.28	16156.72
477.46	16135.65
477.64	15995.22
477.82	16479.71
478.00	16886.97
478.18	16648.23
478.36	16786.32
478.54	16681.00
478.72	16971.22
478.90	17252.09
479.08	17493.16
479.26	17589.13
479.44	17645.30
479.62	17661.68
479.80	18005.74
479.98	18017.44
480.16	18380.23
480.34	18057.23
480.52	18518.32
480.70	18368.52
480.88	18157.88
481.06	18424.70
481.24	18644.71
481.41	18862.38
481.59	19438.15
481.77	19379.64
481.95	19243.88
482.13	19335.17
482.31	19679.22
482.49	20245.63
482.67	19917.96
482.85	20383.73
483.03	20568.63
483.21	20587.35
483.39	20943.11
483.57	20814.38
483.74	20830.77
483.92	21390.16
484.10	21106.95
484.28	21764.64
484.46	21806.77
484.64	22274.88
484.82	21968.27
485.00	22066.57
485.18	22366.16
485.35	22792.14
485.53	22860.01
485.71	22881.08
485.89	23475.57
486.07	23068.32
486.25	23138.54
486.43	23520.04
486.61	23840.70
486.78	24219.86
486.96	23793.89
487.14	24489.03
487.32	24470.30
487.50	24748.82
487.68	24917.34
487.85	25123.31
488.03	25230.98
488.21	25713.13
488.39	25434.60
488.57	26045.48
488.75	25989.31
488.92	25991.65
489.10	26885.73
489.28	26679.77
489.46	27122.13
489.64	26749.98
489.81	27019.14
489.99	27534.06
490.17	27721.30
490.35	27838.33
490.53	28074.73
490.70	28393.04
490.88	27971.74
491.06	28676.24
491.24	28350.91
491.41	28872.85
491.59	29275.42
491.77	29228.61
491.95	29376.06
492.13	29263.72
492.30	29965.88
492.48	29823.11
492.66	29874.60
492.84	29954.18
493.01	30155.46
493.19	30424.62
493.37	30705.49
493.54	31070.61
493.72	31386.58
493.90	31484.89
494.08	31398.29
494.25	31714.26
494.43	31674.47
494.61	31934.27
494.79	32327.48
494.96	32037.25
495.14	32325.14
495.32	33233.27
495.49	33064.75
495.67	33151.35
495.85	33184.12
496.02	33652.22
496.20	34040.75
496.38	33745.84
496.55	33928.41
496.73	34852.92
496.91	34380.13
497.09	34438.64
497.26	34717.17
497.44	34815.47
497.62	35246.13
497.79	35255.49
497.97	35414.65
498.14	35817.22
498.32	36261.92
498.50	35882.75
498.67	36154.26
498.85	36100.42
499.03	36428.10
499.20	36463.21
499.38	37013.23
499.56	36903.23
499.73	36818.97
499.91	36678.54
500.08	37801.99
500.26	37165.37
500.44	37141.96
500.61	37413.46
500.79	37600.71
500.97	37720.07
501.14	38602.46
501.32	38415.21
501.49	38569.69
501.67	38162.43
501.84	38948.85
502.02	38565.01
502.20	39152.48
502.37	38883.32
502.55	39159.50
502.72	39187.59
502.90	39112.69
503.07	38799.06
503.25	39550.37
503.43	39700.17
503.60	39531.65
503.78	40163.59
503.95	40023.16
504.13	40458.50
504.30	40364.88
504.48	39966.99
504.65	40224.45
504.83	40926.61
505.01	41221.52
505.18	40942.99
505.36	41237.90
505.53	40502.97
505.71	41471.95
505.88	41614.72
506.06	41284.71
506.23	41682.60
506.41	41680.26
506.58	41741.11
506.76	41958.78
506.93	42220.92
507.11	42321.57
507.28	42431.57
507.46	42181.13
507.63	42801.38
507.81	42721.80
507.98	42679.67
508.16	42878.61
508.33	42899.68
508.50	43133.73
508.68	43367.79
508.85	43585.46
509.03	43599.50
509.20	43899.09
509.38	44301.66
509.55	44062.93
509.73	43969.30
509.90	44296.98
510.08	44264.21
510.25	44481.88
510.42	44587.21
510.60	44980.42
510.77	45338.52
510.95	45434.48
511.12	44734.66
511.30	44776.79
511.47	45067.02
511.64	45404.05
511.82	45610.02
511.99	45434.48
512.17	45406.39
512.34	45600.66
512.51	46522.83
512.69	46148.34
512.86	46155.36
513.04	46473.68
513.21	46218.56
513.38	46340.27
513.56	46864.55
513.73	46497.08
513.90	46738.16
514.08	46356.65
514.25	46913.70
514.43	47004.98
514.60	47126.69
514.77	46822.42
514.95	47157.11
515.12	47143.07
515.29	47196.90
515.47	47587.77
515.64	47782.04
515.81	47765.65
515.99	48161.20
516.16	48200.99
516.33	48292.27
516.51	48135.46
516.68	47910.77
516.85	48346.11
517.03	48617.61
517.20	48538.03
517.37	48715.91
517.54	48832.94
517.72	48699.53
517.89	48678.46
518.06	48657.40
518.24	48779.10
518.41	48676.12
518.58	48870.39
518.75	48748.68
518.93	49773.83
519.10	49240.19
519.27	49272.96
519.45	49453.18
519.62	49230.83
519.79	49682.55
519.96	49729.36
520.14	49832.35
520.31	50099.17
520.48	50047.68
520.65	50183.43
520.83	50337.90
521.00	50436.20
521.17	50047.68
521.34	50387.05
521.52	50333.22
521.69	50525.14
521.86	50766.22
522.03	50965.17
522.20	51187.52
522.38	50944.10
522.55	50855.16
522.72	50857.50
522.89	51019.00
523.07	51402.85
523.24	51196.88
523.41	51522.21
523.58	50972.19
523.75	51782.01
523.92	51599.45
524.10	51517.53
524.27	51533.92
524.44	51725.84
524.61	51695.41
524.78	51861.59
524.96	52107.35
525.13	52102.67
525.30	52161.18
525.47	51885.00
525.64	52041.81
525.81	52144.80
525.98	52334.38
526.16	52439.70
526.33	52339.06
526.50	52680.78
526.67	52252.46
526.84	52861.00
527.01	52690.14
527.18	52512.26
527.36	52750.99
527.53	52868.02
527.70	53010.79
527.87	52982.71
528.04	52851.64
528.21	53244.85
528.38	53010.79
528.55	53268.25
528.72	53347.83
528.89	53013.13
529.07	52931.22
529.24	53155.91
529.41	53745.72
529.58	53296.34
529.75	53790.19
529.92	53502.31
530.09	53771.47
530.26	53914.24
530.43	53965.73
530.60	53516.35
530.77	53647.42
530.94	53794.87
531.11	53918.92
531.28	53965.73
531.46	53965.73
531.63	53991.48
531.80	54045.31
531.97	54061.69
532.14	54241.92
532.31	54239.57
532.48	54218.51
532.65	54621.08
532.82	54419.80
532.99	54595.34
533.16	54375.33
533.33	54721.72
533.50	54520.44
533.67	54686.62
533.84	54286.39
534.01	54688.96
534.18	54618.74
534.35	55119.62
534.52	54901.95
534.69	54972.16
534.86	55070.46
535.03	54918.33
535.20	55100.89
535.37	55114.94
535.54	55189.83
535.71	55185.15
535.88	55121.96
536.05	55180.47
536.22	55496.44
536.38	55428.57
536.55	55304.52
536.72	55466.02
536.89	55470.70
537.06	55426.23
537.23	55381.76
537.40	55444.95
537.57	55611.13
537.74	55454.31
537.91	55753.90
538.08	55875.61
538.25	55405.16
538.42	55662.62
538.59	55913.06
538.75	55765.60
538.92	56055.83
539.09	55952.85
539.26	55842.84
539.43	55983.27
539.60	56016.04
539.77	56135.41
539.94	56240.73
540.11	56238.39
540.28	56240.73
540.44	56341.38
540.61	56154.13
540.78	56257.12
540.95	56556.70
541.12	56360.10
541.29	56306.27
541.46	56704.16
541.62	56446.70
541.79	56608.20
541.96	56329.67
542.13	56353.08
542.30	56378.82
542.47	56456.06
542.63	56783.74
542.80	56804.80
542.97	56889.06
543.14	57221.42
543.31	56825.87
543.48	57036.51
543.64	57448.45
543.81	57244.82
543.98	57158.22
544.15	57219.08
544.32	57340.78
544.48	57233.12
544.65	57158.22
544.82	57380.57
544.99	57088.01
545.16	57455.47
545.32	57284.61
545.49	57504.62
545.66	57254.18
545.83	57392.28
546.00	57279.93
546.16	57530.37
546.33	57478.88
546.50	57418.02
546.67	57420.36
546.83	57319.72
547.00	57638.03
547.17	57614.63
547.34	57455.47
547.50	57925.92
547.67	58005.50
547.84	57645.05
548.00	58042.95
548.17	58019.54
548.34	57822.93
548.51	57944.64
548.67	57998.48
548.84	57755.06
549.01	57914.22
549.18	57970.39
549.34	58045.29
549.51	58113.16
549.68	58181.04
549.84	58120.18
550.01	58323.81
550.18	58145.93
550.34	58248.91
550.51	58351.90
550.68	58047.63
550.84	58145.93
551.01	58365.94
551.18	58553.18
551.34	58349.56
551.51	58234.87
551.68	58623.40
551.84	58487.65
552.01	58136.57
552.18	58548.50
552.34	58265.30
552.51	58571.91
552.68	58522.76
552.84	58485.31
553.01	58457.22
553.18	58698.30
553.34	58651.48
553.51	58693.61
553.67	58642.12
553.84	58766.17
554.01	58749.79
554.17	58782.55
554.34	58986.18
554.51	58782.55
554.67	59171.08
554.84	58815.32
555.00	58693.61
555.17	58901.92
555.33	58794.26
555.50	58721.70
555.67	58649.14
555.83	58880.86
556.00	58983.84
556.16	59299.81
556.33	59070.44
556.50	59112.57
556.66	59049.38
556.83	59054.06
556.99	59348.96
557.16	59262.36
557.32	59255.34
557.49	59566.63
557.65	59161.72
557.82	59180.45
557.98	59257.68
558.15	59288.11
558.32	59299.81
558.48	59189.81
558.65	59292.79
558.81	59358.33
558.98	59393.43
559.14	59505.78
559.31	59608.76
559.47	59533.87
559.64	59737.49
559.80	59381.73
559.97	59639.19
560.13	59489.40
560.30	59625.15
560.46	59627.49
560.63	59437.90
560.79	59774.94
560.96	59728.13
561.12	59772.60
561.29	59683.66
561.45	59550.25
561.61	59756.22
561.78	59707.07
561.94	59908.35
562.11	59662.60
562.27	59664.94
562.44	59648.55
562.60	59943.46
562.77	59737.49
562.93	59613.44
563.10	59770.26
563.26	59566.63
563.42	59999.63
563.59	59779.62
563.75	59753.88
563.92	59957.50
564.08	59693.02
564.24	60144.75
564.41	59906.01
564.57	60111.98
564.74	60037.08
564.90	60074.53
565.07	59976.23
565.23	59882.61
565.39	59978.57
565.56	59866.22
565.72	59973.89
565.88	59927.08
566.05	60025.38
566.21	59891.97
566.38	59973.89
566.54	60135.38
566.70	60460.72
566.87	60294.54
567.03	60058.15
567.19	60193.90
567.36	60275.82
567.52	60020.70
567.68	60472.42
567.85	60154.11
568.01	60357.74
568.17	59957.50
568.34	60303.90
568.50	60315.61
568.66	60179.85
568.83	60240.71
568.99	60161.13
569.15	60327.31
569.32	60425.61
569.48	60151.77
569.64	60362.42
569.81	60205.60
569.97	60102.62
570.13	60339.01
570.30	60200.92
570.46	60374.12
570.62	60069.85
570.78	60268.79
570.95	60271.14
571.11	60376.46
571.27	60336.67
571.43	60554.34
571.60	60425.61
571.76	60268.79
571.92	60308.58
572.09	60449.02
572.25	60320.29
572.41	60397.52
572.57	60289.86
572.74	60582.43
572.90	60549.66
573.06	60566.04
573.22	60413.91
573.38	60460.72
573.55	60486.46
573.71	60355.39
573.87	60535.62
574.03	60374.12
574.20	60669.03
574.36	60463.06
574.52	60608.17
574.68	60563.70
574.84	60603.49
575.01	60596.47
575.17	60509.87
575.33	60556.68
575.49	60610.51
575.65	60587.11
575.82	60654.98
575.98	60764.99
576.14	60809.46
576.30	60570.72
576.46	60598.81
576.62	60680.73
576.79	60715.84
576.95	60493.49
577.11	60573.06
577.27	60615.19
577.43	60776.69
577.59	60570.72
577.75	60631.58
577.92	60547.32
578.08	60610.51
578.24	60617.53
578.40	60914.78
578.56	60760.31
578.72	60760.31
578.88	60608.17
579.04	60809.46
579.21	60610.51
579.37	60905.42
579.53	60905.42
579.69	60530.93
579.85	60640.94
580.01	60872.65
580.17	60629.24
580.33	60781.37
580.49	60746.26
580.65	60860.95
580.82	60849.25
580.98	60746.26
581.14	60444.33
581.30	60821.16
581.46	60844.57
581.62	60650.30
581.78	60704.13
581.94	60807.12
582.10	60502.85
582.26	60673.71
582.42	60736.90
582.58	60779.03
582.74	60783.71
582.90	60795.42
583.06	60846.91
583.22	60708.82
583.38	60959.25
583.54	60797.76
583.70	60842.23
583.86	60886.70
584.02	60603.49
584.18	60924.14
584.34	60982.66
584.50	60842.23
584.66	60559.02
584.82	60690.09
584.98	60961.59
585.14	60935.85
585.30	60650.30
585.46	60935.85
585.62	60746.26
585.78	60987.34
585.94	60816.48
586.10	60886.70
586.26	60963.93
586.42	61022.45
586.58	60996.70
586.74	61029.47
586.90	60811.80
587.06	61029.47
587.22	60970.96
587.38	60725.20
587.54	60800.10
587.70	61174.58
587.86	60910.10
588.02	60823.50
588.18	60942.87
588.34	60917.12
588.49	60804.78
588.65	60973.30
588.81	60980.32
588.97	60970.96
589.13	60931.17
589.29	61237.78
589.45	61045.85
589.61	61048.19
589.77	61303.31
589.93	61050.53
590.08	61055.21
590.24	61307.99
590.40	61261.18
590.56	61420.34
590.72	61146.50
590.88	60989.68
591.04	61134.79
591.20	61396.93
591.35	61315.01
591.51	61368.85
591.67	61251.82
591.83	61378.21
591.99	61254.16
592.15	60989.68
592.31	61254.16
592.46	61137.13
592.62	61059.90
592.78	61256.50
592.94	61354.80
593.10	61282.25
593.26	61476.51
593.41	61190.97
593.57	61310.33
593.73	61254.16
593.89	61549.07
594.05	61481.19
594.20	61258.84
594.36	61488.21
594.52	61312.67
594.68	61347.78
594.84	61307.99
594.99	61286.93
595.15	61359.48
595.31	61410.98
595.47	61139.47
595.62	61418.00
595.78	61216.71
595.94	61640.35
596.10	61546.73
596.25	61628.65
596.41	61378.21
596.57	61380.55
596.73	61415.66
596.88	61630.99
597.04	61481.19
597.20	61439.06
597.36	61602.90
597.51	61612.26
597.67	61254.16
597.83	61326.72
597.99	61626.31
598.14	61410.98
598.30	61558.43
598.46	61563.11
598.61	61553.75
598.77	61485.87
598.93	61623.96
599.09	61607.58
599.24	61820.57
599.40	61694.18
599.56	61748.01
599.71	61799.50
599.87	61914.19
600.03	61598.22
600.18	61659.07
600.34	61626.31
600.50	61375.87
600.65	61565.45
600.81	61549.07
600.97	61595.88
601.12	61511.62
601.28	61436.72
601.44	61523.32
601.59	61703.54
601.75	61457.79
601.91	61506.94
602.06	61745.67
602.22	61815.89
602.37	61577.15
602.53	61551.41
602.69	61565.45
602.84	61483.53
603.00	61666.09
603.16	61549.07
603.31	61682.48
603.47	61701.20
603.62	61483.53
603.78	61630.99
603.94	61647.37
604.09	61752.69
604.25	61425.02
604.40	61509.28
604.56	61879.08
604.71	61696.52
604.87	61446.08
605.03	61764.40
605.18	61586.52
605.34	61851.00
605.49	61446.08
605.65	61818.23
605.80	61619.28
605.96	61586.52
606.12	61769.08
606.27	61520.98
606.43	61474.17
606.58	61647.37
606.74	61560.77
606.89	61511.62
607.05	61595.88
607.20	61661.41
607.36	61506.94
607.51	61450.77
607.67	61481.19
607.82	61413.32
607.98	61504.60
608.13	61429.70
608.29	61427.36
608.44	61556.09
608.60	61326.72
608.75	61546.73
608.91	61530.34
609.06	61275.22
609.22	61645.03
609.37	61457.79
609.53	61261.18
609.68	61448.42
609.84	61336.08
609.99	61373.53
610.15	61439.06
610.30	61518.64
610.46	61448.42
610.61	61436.72
610.76	61495.24
610.92	61471.83
611.07	61354.80
611.23	61389.91
611.38	61481.19
611.54	61474.17
611.69	61247.14
611.84	61380.55
612.00	61478.85
612.15	61371.19
612.31	61359.48
612.46	61331.40
612.62	61230.75
612.77	61249.48
612.92	61673.12
613.08	61380.55
613.23	61357.14
613.39	61153.52
613.54	61193.31
613.69	61394.59
613.85	61265.86
614.00	61450.77
614.15	61525.66
614.31	61258.84
614.46	61296.29
614.62	61221.39
614.77	61396.93
614.92	61183.94
615.08	61027.13
615.23	61240.12
615.38	61268.20
615.54	61130.11
615.69	61001.38
615.84	61317.35
616.00	61176.92
616.15	61205.01
616.30	61307.99
616.46	61085.64
616.61	61153.52
616.76	61286.93
616.92	61195.65
617.07	61125.43
617.22	61062.24
617.37	61076.28
617.53	61200.33
617.68	61109.05
617.83	61151.18
617.99	61031.81
618.14	61087.98
618.29	61188.63
618.45	60874.99
618.60	60935.85
618.75	60867.97
618.90	60935.85
619.06	61139.47
619.21	61055.21
619.36	61221.39
619.51	60954.57
619.67	60692.43
619.82	60966.27
619.97	61076.28
620.12	60926.49
620.28	60928.83
620.43	60917.12
620.58	60996.70
620.73	60783.71
620.89	61050.53
621.04	61176.92
621.19	60729.88
621.34	60809.46
621.49	60683.07
621.65	60786.05
621.80	60870.31
621.95	60706.47
622.10	60608.17
622.25	60713.50
622.41	60839.89
622.56	60676.05
622.71	60699.45
622.86	60470.08
623.01	60701.79
623.16	60519.23
623.32	60662.00
623.47	60757.97
623.62	60823.50
623.77	60645.62
623.92	60860.95
624.07	60725.20
624.23	60718.18
624.38	60638.60
624.53	60624.56
624.68	60423.27
624.83	60647.96
624.98	60617.53
625.13	60278.16
625.29	60399.86
625.44	60594.13
625.59	60374.12
625.74	60582.43
625.89	60456.04
626.04	60245.39
626.19	60240.71
626.34	60320.29
626.49	60432.63
626.65	60315.61
626.80	60306.24
626.95	60140.07
627.10	60088.57
627.25	60037.08
627.40	60168.15
627.55	60289.86
627.70	60236.03
627.85	60009.00
628.00	60130.70
628.15	60214.96
628.30	59849.84
628.45	60109.64
628.60	59936.44
628.76	60331.99
628.91	60254.75
629.06	60233.69
629.21	60093.25
629.36	59934.10
629.51	60130.70
629.66	60018.36
629.81	59796.01
629.96	59826.43
630.11	59997.29
630.26	59927.08
630.41	60027.72
630.56	59805.37
630.71	60210.28
630.86	60058.15
631.01	59842.82
631.16	59908.35
631.31	59906.01
631.46	59674.30
631.61	59767.92
631.76	59784.30
631.91	59938.78
632.06	59796.01
632.21	59753.88
632.36	59512.80
632.51	59447.27
632.66	59683.66
632.81	59667.28
632.96	59714.09
633.10	59805.37
633.25	59812.39
633.40	59686.00
633.55	59669.62
633.70	59786.64
633.85	59606.42
634.00	59683.66
634.15	59545.57
634.30	59512.80
634.45	59590.04
634.60	59531.53
634.75	59379.39
634.90	59250.66
635.05	59501.10
635.19	59393.43
635.34	59568.97
635.49	59615.79
635.64	59444.93
635.79	59435.56
635.94	59234.28
636.09	59451.95
636.24	59311.52
636.39	59447.27
636.53	59414.50
636.68	59370.03
636.83	59367.69
636.98	59608.76
637.13	59309.18
637.28	59302.15
637.43	59327.90
637.57	59316.20
637.72	59281.09
637.87	59278.75
638.02	59264.70
638.17	59316.20
638.32	59412.16
638.46	59283.43
638.61	59330.24
638.76	59189.81
638.91	59323.22
639.06	58941.71
639.20	59267.05
639.35	59119.59
639.50	59068.10
639.65	59042.35
639.80	59224.92
639.94	58951.07
640.09	59124.27
640.24	59037.67
640.39	58983.84
640.54	58988.52
640.68	58752.13
640.83	58995.54
640.98	58862.13
641.13	58717.02
641.27	59037.67
641.42	58969.80
641.57	58848.09
641.72	58787.24
641.86	58607.01
642.01	58494.67
642.16	58899.58
642.31	58880.86
642.45	59058.74
642.60	58637.44
642.75	59023.63
642.90	58796.60
643.04	58712.34
643.19	58494.67
643.34	58642.12
643.48	58670.21
643.63	58569.57
643.78	58663.19
643.93	58721.70
644.07	58412.75
644.22	58475.94
644.37	58227.85
644.51	58440.84
644.66	58585.95
644.81	58459.56
644.95	58316.79
645.10	58277.00
645.25	58466.58
645.39	58513.39
645.54	58468.92
645.69	58431.47
645.83	58445.52
645.98	58569.57
646.13	58553.18
646.27	58426.79
646.42	58333.17
646.57	58480.63
646.71	58389.34
646.86	58527.44
647.00	58323.81
647.15	58080.39
647.30	58178.70
647.44	58241.89
647.59	58410.41
647.74	58293.38
647.88	58541.48
648.03	58145.93
648.17	58300.40
648.32	58127.20
648.47	58347.21
648.61	58066.35
648.76	57993.79
648.90	58068.69
649.05	58040.60
649.20	58094.44
649.34	58099.12
649.49	58014.86
649.63	58185.72
649.78	58401.05
649.92	58136.57
650.07	58356.58
650.21	58166.99
650.36	57975.07
650.51	57902.51
650.65	57998.48
650.80	57986.77
650.94	57928.26
651.09	57698.89
651.23	57666.12
651.38	57914.22
651.52	57766.76
651.67	57888.47
651.81	57836.98
651.96	57829.96
652.10	58012.52
652.25	57946.98
652.39	57900.17
652.54	57558.45
652.68	57382.91
652.83	57649.74
652.97	57783.15
653.12	57619.31
653.26	57631.01
653.41	57883.79
653.55	57787.83
653.70	57659.10
653.84	57640.37
653.99	57682.50
654.13	57652.08
654.27	57558.45
654.42	57457.81
654.56	57448.45
654.71	57595.90
654.85	57528.03
655.00	57773.78
655.14	57396.96
655.29	57293.97
655.43	57387.60
655.57	57343.12
655.72	57364.19
655.86	57396.96
656.01	57352.49
656.15	57293.97
656.30	57389.94
656.44	57434.41
656.58	57614.63
656.73	57317.38
656.87	57293.97
657.01	57586.54
657.16	57301.00
657.30	57209.71
657.45	57041.20
657.59	57092.69
657.73	56921.83
657.88	57076.30
658.02	57020.13
658.16	57317.38
658.31	57090.35
658.45	57057.58
658.60	56985.02
658.74	57045.88
658.88	56809.48
659.03	57006.09
659.17	56772.03
659.31	56933.53
659.46	57059.92
659.60	56921.83
659.74	56743.95
659.89	56404.57
660.03	56697.14
660.17	56739.27
660.32	56566.07
660.46	56577.77
660.60	56509.89
660.74	56870.34
660.89	56729.90
661.03	56470.11
661.17	56226.69
661.32	56193.92
661.46	56390.53
661.60	56376.48
661.74	56151.79
661.89	56114.34
662.03	56039.45
662.17	56214.99
662.31	56233.71
662.46	56388.19
662.60	56102.64
662.74	56044.13
662.88	55828.80
663.03	55714.11
663.17	55791.35
663.31	55627.51
663.45	55751.56
663.60	55810.07
663.74	55416.86
663.88	55510.49
664.02	55487.08
664.17	55709.43
664.31	55356.01
664.45	55552.62
664.59	55564.32
664.73	55447.29
664.88	55334.95
665.02	55208.56
665.16	55285.79
665.30	55145.36
665.44	55056.42
665.59	54976.84
665.73	55166.43
665.87	54841.09
666.01	55208.56
666.15	55290.48
666.29	55178.13
666.44	55206.22
666.58	54829.39
666.72	54564.91
666.86	54700.66
667.00	54855.14
667.14	54672.57
667.28	54597.68
667.43	54810.67
667.57	54719.38
667.71	54576.61
667.85	54492.35
667.99	54501.71
668.13	54457.24
668.27	54272.34
668.41	54363.62
668.56	54174.04
668.70	53979.78
668.84	53839.34
668.98	53923.60
669.12	54361.28
669.26	54328.52
669.40	54082.76
669.54	54094.46
669.68	54145.95
669.82	53797.21
669.96	54040.63
670.10	53867.43
670.25	54049.99
670.39	53717.64
670.53	53963.39
670.67	53923.60
670.81	53708.27
670.95	53605.29
671.09	53502.31
671.23	53113.78
671.37	53277.61
671.51	53090.37
671.65	53010.79
671.79	53090.37
671.93	52945.26
672.07	53031.86
672.21	52966.32
672.35	52816.53
672.49	52465.45
672.63	52584.82
672.77	52528.64
672.91	52470.13
673.05	52395.23
673.19	52261.82
673.33	52161.18
673.47	52193.95
673.61	52371.83
673.75	52151.82
673.89	52048.83
674.03	51800.74
674.17	51835.84
674.31	51337.31
674.45	51288.16
674.59	51459.02
674.73	51767.97
674.87	51585.41
675.01	51632.22
675.15	51318.59
675.29	51222.62
675.43	51201.56
675.56	51084.53
675.70	51105.60
675.84	50908.99
675.98	49949.37
676.12	50714.73
676.26	50590.68
676.40	50319.18
676.54	50731.11
676.68	50487.70
676.82	49869.79
676.96	49925.97
677.10	49911.92
677.23	50199.81
677.37	49853.41
677.51	49869.79
677.65	49125.50
677.79	48774.42
677.93	48926.56
678.07	49158.27
678.21	49172.31
678.34	48528.67
678.48	48889.11
678.62	48531.01
678.76	48863.36
678.90	48275.89
679.04	48404.62
679.18	48406.96
679.31	47442.66
679.45	48002.05
679.59	47833.53
679.73	48154.18
679.87	47866.30
680.00	47164.14
680.14	47182.86
680.28	47327.97
680.42	47037.75
680.56	46916.04
680.70	46571.98
680.83	46639.86
680.97	46241.96
681.11	46363.67
681.25	46438.57
681.39	46038.34
681.52	46373.03
681.66	46028.98
681.80	45581.93
681.94	45500.01
682.07	45734.07
682.21	45317.45
682.35	45155.96
682.49	45188.72
682.62	44828.28
682.76	44748.70
682.90	44903.18
683.04	44935.95
683.17	44378.90
683.31	43875.68
683.45	44392.94
683.59	44051.22
683.72	43550.35
683.86	43908.45
684.00	43950.58
684.13	43716.53
684.27	43271.82
684.41	43433.32
684.55	43185.22
684.68	43416.94
684.82	43339.70
684.96	42724.14
685.09	42518.17
685.23	42153.05
685.37	42344.97
685.50	42670.31
685.64	42359.02
685.78	41762.18
685.91	41432.16
686.05	41741.11
686.19	41095.13
686.32	41504.72
686.46	40797.88
686.60	40849.37
686.73	40652.76
686.87	40329.77
687.01	40928.95
687.14	40582.55
687.28	39992.73
687.42	40023.16
687.55	39915.50
687.69	39959.97
687.82	39686.12
687.96	39536.33
688.10	39311.64
688.23	39721.23
688.37	39449.73
688.50	39063.54
688.64	38597.77
688.78	38522.88
688.91	38195.20
689.05	38895.02
689.18	37919.02
689.32	37682.62
689.46	37890.93
689.59	37794.97
689.73	37553.90
689.86	37069.40
690.00	37160.69
690.13	37649.86
690.27	37095.15
690.41	37303.46
690.54	36950.04
690.68	36610.66
690.81	36467.89
690.95	36290.01
691.08	36187.02
691.22	36170.64
691.35	35538.69
691.49	36233.83
691.62	35679.13
691.76	35409.96
691.89	35407.62
692.03	35147.82
692.16	35215.70
692.30	34705.46
692.43	35339.75
692.57	34555.67
692.70	34436.30
692.84	34005.64
692.97	34422.26
693.11	34054.79
693.24	34202.25
693.38	33598.39
693.51	33603.07
693.65	33560.94
693.78	33165.39
693.92	33457.96
694.05	33090.49
694.19	32931.34
694.32	32877.51
694.45	32800.27
694.59	32332.16
694.72	32308.76
694.86	32432.80
694.99	32371.95
695.13	31620.64
695.26	31599.57
695.39	31257.85
695.53	31496.59
695.66	31819.58
695.80	31468.50
695.93	31002.74
696.07	30553.35
696.20	30658.68
696.33	30515.90
696.47	30579.10
696.60	30429.30
696.73	30450.37
696.87	30314.62
697.00	30213.98
697.14	30356.75
697.27	29923.75
697.40	29855.87
697.54	29097.54
697.67	29048.39
697.80	29315.21
697.94	29003.92
698.07	28952.43
698.21	28701.99
698.34	29022.64
698.47	28402.40
698.61	28498.36
698.74	28175.37
698.87	28252.61
699.01	28086.43
699.14	27880.46
699.27	28037.28
699.40	28081.75
699.54	27749.39
699.67	27321.07
699.80	27555.13
699.94	27314.05
700.07	27239.15
700.20	26773.39
700.34	26586.15
700.47	26326.35
700.60	26043.14
700.73	26094.63
700.87	26174.21
701.00	26050.16
701.13	25537.59
701.26	25773.98
701.40	25977.61
701.53	25238.00
701.66	25458.01
701.79	25177.14
701.93	25172.46
702.06	25090.54
702.19	24680.95
702.32	24994.58
702.46	25130.33
702.59	24334.55
702.72	24023.26
702.85	24664.57
702.99	24332.21
703.12	24025.60
703.25	23782.18
703.38	23616.01
703.51	23606.64
703.65	23082.36
703.78	23105.77
703.91	23082.36
704.04	23061.30
704.17	23065.98
704.31	22899.80
704.44	22527.66
704.57	22923.21
704.70	22843.63
704.83	22471.48
704.96	22635.32
705.10	22302.96
705.23	22108.70
>>>>>End Processed Spectral Data<<<<<
