SpectraSuite Data File
++++++++++++++++++++++++++++++++++++
Date: Fri Oct 25 11:26:14 EDT 2013
User: price-jones
Dark Spectrum Present: No
Reference Spectrum Present: No
Number of Sampled Component Spectra: 1
Spectrometers: USB2+H05261
Integration Time (usec): 100000 (USB2+H05261)
Spectra Averaged: 1 (USB2+H05261)
Boxcar Smoothing: 0 (USB2+H05261)
Correct for Electrical Dark: No (USB2+H05261)
Strobe/Lamp Enabled: No (USB2+H05261)
Correct for Detector Non-linearity: No (USB2+H05261)
Correct for Stray Light: No (USB2+H05261)
Number of Pixels in Processed Spectrum: 2048
>>>>>Begin Processed Spectral Data<<<<<
365.73	262.14
365.92	262.14
366.12	262.14
366.32	170.86
366.52	117.03
366.72	156.82
366.91	166.18
367.11	98.30
367.31	117.03
367.51	161.50
367.70	182.56
367.90	159.16
368.10	182.56
368.30	142.77
368.49	114.69
368.69	131.07
368.89	126.39
369.09	180.22
369.28	163.84
369.48	177.88
369.68	229.37
369.87	152.13
370.07	210.65
370.27	243.42
370.47	344.06
370.66	613.22
370.86	641.31
371.06	751.31
371.25	603.86
371.45	629.60
371.65	606.20
371.84	669.39
372.04	720.88
372.24	755.99
372.44	692.80
372.63	737.27
372.83	636.63
373.03	781.74
373.22	760.67
373.42	746.63
373.62	779.40
373.81	781.74
374.01	788.76
374.21	858.98
374.40	835.57
374.60	896.43
374.79	858.98
374.99	755.99
375.19	767.70
375.38	905.79
375.58	802.80
375.78	833.23
375.97	917.49
376.17	903.45
376.37	870.68
376.56	884.72
376.76	866.00
376.95	875.36
377.15	861.32
377.35	912.81
377.54	891.74
377.74	819.19
377.93	905.79
378.13	908.13
378.33	851.96
378.52	976.00
378.72	997.07
378.91	1020.47
379.11	940.90
379.31	973.66
379.50	933.87
379.70	1011.11
379.89	980.68
380.09	1001.75
380.28	1043.88
380.48	961.96
380.68	880.04
380.87	959.62
381.07	992.39
381.26	1060.26
381.46	987.71
381.65	992.39
381.85	1060.26
382.04	1069.62
382.24	1102.39
382.43	1006.43
382.63	1064.94
382.83	1114.10
383.02	1067.28
383.22	1118.78
383.41	1057.92
383.61	1097.71
383.80	1146.86
384.00	1132.82
384.19	1128.14
384.39	1069.62
384.58	1022.81
384.78	1097.71
384.97	1153.88
385.17	1226.44
385.36	1191.33
385.56	1125.80
385.75	1177.29
385.95	1224.10
386.14	1198.35
386.34	1142.18
386.53	1160.91
386.72	1114.10
386.92	1289.64
387.11	1181.97
387.31	1233.46
387.50	1212.40
387.70	1345.81
387.89	1249.85
388.09	1289.64
388.28	1341.13
388.48	1320.06
388.67	1235.80
388.86	1289.64
389.06	1294.32
389.25	1378.58
389.45	1352.83
389.64	1322.40
389.84	1313.04
390.03	1301.34
390.22	1385.60
390.42	1425.39
390.61	1418.36
390.81	1345.81
391.00	1394.96
391.19	1519.01
391.39	1483.90
391.58	1554.12
391.78	1544.75
391.97	1465.18
392.16	1479.22
392.36	1483.90
392.55	1547.09
392.75	1493.26
392.94	1500.28
393.13	1504.96
393.33	1455.81
393.52	1526.03
393.71	1547.09
393.91	1565.82
394.10	1582.20
394.29	1528.37
394.49	1568.16
394.68	1633.69
394.88	1612.63
395.07	1689.87
395.26	1722.63
395.46	1591.56
395.65	1689.87
395.84	1647.74
396.04	1820.94
396.23	1776.47
396.42	1610.29
396.62	1720.29
396.81	1746.04
397.00	1769.44
397.19	1720.29
397.39	1832.64
397.58	1867.75
397.77	1743.70
397.97	1825.62
398.16	1977.75
398.35	1874.77
398.55	1816.26
398.74	1816.26
398.93	1905.20
399.12	1956.69
399.32	1797.53
399.51	1949.67
399.70	1959.03
399.90	1987.11
400.09	2026.90
400.28	2179.04
400.47	2026.90
400.67	2052.65
400.86	2071.37
401.05	2101.80
401.24	2165.00
401.44	2118.18
401.63	2085.42
401.82	2115.84
402.01	2160.31
402.21	2193.08
402.40	2265.64
402.59	2251.60
402.78	2148.61
402.97	2193.08
403.17	2211.81
403.36	2235.21
403.55	2197.76
403.74	2275.00
403.93	2347.56
404.13	2356.92
404.32	2377.98
404.51	2303.09
404.70	2342.88
404.89	2403.73
405.09	2420.11
405.28	2544.16
405.47	2483.31
405.66	2506.71
405.85	2471.61
406.05	2462.24
406.24	2546.50
406.43	2590.97
406.62	2719.70
406.81	2509.05
407.00	2572.25
407.20	2485.65
407.39	2590.97
407.58	2602.68
407.77	2832.05
407.96	2801.62
408.15	2743.11
408.34	2827.37
408.54	2871.84
408.73	2717.36
408.92	2775.88
409.11	2782.90
409.30	2911.63
409.49	2918.65
409.68	2878.86
409.87	2843.75
410.07	3101.21
410.26	2946.73
410.45	2984.18
410.64	3101.21
410.83	3026.31
411.02	3129.30
411.21	3028.65
411.40	3115.25
411.59	3152.70
411.78	3136.32
411.98	3232.28
412.17	3241.64
412.36	3201.85
412.55	3269.73
412.74	3442.93
412.93	3335.26
413.12	3316.54
413.31	3478.04
413.50	3517.83
413.69	3447.61
413.88	3536.55
414.07	3592.72
414.26	3662.94
414.45	3662.94
414.64	3585.70
414.83	3662.94
415.02	3791.67
415.22	3747.20
415.41	3896.99
415.60	3971.89
415.79	3939.12
415.98	3908.69
416.17	3955.51
416.36	3999.98
416.55	3873.59
416.74	4025.72
416.93	4074.87
417.12	4004.66
417.31	4161.47
417.50	4166.15
417.69	4229.35
417.88	4154.45
418.07	4072.53
418.26	4320.63
418.45	4287.86
418.64	4344.03
418.83	4283.18
419.02	4325.31
419.21	4578.09
419.39	4447.02
419.58	4390.84
419.77	4491.49
419.96	4542.98
420.15	4444.68
420.34	4585.11
420.53	4624.90
420.72	4486.81
420.91	4571.07
421.10	4755.97
421.29	4805.12
421.48	4713.84
421.67	4840.23
421.86	4755.97
422.05	4748.95
422.24	4816.82
422.43	4875.34
422.61	4903.42
422.80	4809.80
422.99	4854.27
423.18	4873.00
423.37	5078.96
423.56	4772.35
423.75	4870.65
423.94	4931.51
424.13	4624.90
424.32	4814.48
424.50	4952.57
424.69	5123.43
424.88	5071.94
425.07	4887.04
425.26	4903.42
425.45	4938.53
425.64	5001.72
425.83	4917.47
426.01	5128.11
426.20	5132.79
426.39	4968.96
426.58	5078.96
426.77	5013.43
426.96	5071.94
427.15	5041.51
427.33	5048.54
427.52	4990.02
427.71	5212.37
427.90	5125.77
428.09	5289.61
428.28	5313.02
428.46	5371.53
428.65	5322.38
428.84	5493.24
429.03	5556.43
429.22	5432.38
429.40	5430.04
429.59	5390.25
429.78	5366.85
429.97	5233.44
430.16	5434.72
430.34	5617.29
430.53	5603.24
430.72	5577.50
430.91	5643.03
431.10	5488.56
431.28	5650.05
431.47	5743.67
431.66	5767.08
431.85	5783.46
432.03	6031.56
432.22	6024.54
432.41	5982.41
432.60	6038.58
432.79	5916.87
432.97	5966.03
433.16	5767.08
433.35	5804.53
433.54	5968.37
433.72	6125.18
433.91	6040.92
434.10	6157.95
434.28	5919.21
434.47	5977.73
434.66	6256.25
434.85	6251.57
435.03	6333.49
435.22	6338.17
435.41	6382.64
435.59	6265.61
435.78	6326.47
435.97	6541.80
436.16	6258.59
436.34	6413.07
436.53	6562.86
436.72	6661.16
436.90	6340.51
437.09	6626.06
437.28	6438.81
437.46	6431.79
437.65	6595.63
437.84	6949.05
438.02	6813.30
438.21	6787.55
438.40	6710.32
438.58	6839.05
438.77	6932.67
438.96	6801.60
439.14	7045.01
439.33	7077.78
439.52	7197.15
439.70	7096.50
439.89	7452.27
440.08	7435.88
440.26	7140.97
440.45	7267.36
440.63	7557.59
440.82	7470.99
441.01	7290.77
441.19	7531.84
441.38	7765.90
441.57	7716.75
441.75	7737.81
441.94	7903.99
442.12	7791.64
442.31	8116.98
442.50	7943.78
442.68	7754.19
442.87	8128.68
443.05	8039.74
443.24	8072.51
443.43	8154.43
443.61	8262.09
443.80	8355.71
443.98	8191.88
444.17	7798.66
444.35	8191.88
444.54	8344.01
444.73	8257.41
444.91	8397.84
445.10	8222.30
445.28	8489.12
445.47	8203.58
445.65	8304.22
445.84	8334.65
446.02	8449.33
446.21	8531.25
446.39	8411.89
446.58	8496.14
446.77	8449.33
446.95	8348.69
447.14	8472.74
447.32	8479.76
447.51	8360.39
447.69	8348.69
447.88	8517.21
448.06	8641.26
448.25	8533.59
448.43	8606.15
448.62	8547.64
448.80	8528.91
448.99	8517.21
449.17	8676.37
449.36	8622.53
449.54	8781.69
449.73	8945.53
449.91	8954.89
450.10	8835.52
450.28	9088.30
450.46	9137.45
450.65	8793.39
450.83	9069.58
451.02	8943.19
451.20	9202.99
451.39	8971.27
451.57	9181.92
451.76	8933.82
451.94	9050.85
452.13	9177.24
452.31	9081.28
452.49	9022.77
452.68	9301.29
452.86	9460.45
453.05	9191.28
453.23	9320.01
453.42	9235.75
453.60	9144.47
453.78	9530.66
453.97	9455.76
454.15	9369.16
454.34	9376.19
454.52	9710.88
454.70	9596.20
454.89	9570.45
455.07	9699.18
455.26	9760.03
455.44	9865.36
455.62	9919.19
455.81	9844.29
455.99	9870.04
456.17	9968.34
456.36	10024.51
456.54	10265.59
456.73	10052.60
456.91	10483.26
457.09	10246.87
457.28	10443.47
457.46	10396.66
457.64	10443.47
457.83	10373.25
458.01	10223.46
458.19	10757.10
458.38	10527.73
458.56	10672.84
458.74	10595.61
458.93	10565.18
459.11	10614.33
459.29	10668.16
459.48	10600.29
459.66	10705.61
459.84	10878.81
460.03	11077.76
460.21	10829.66
460.39	10920.94
460.57	10883.49
460.76	11059.03
460.94	11143.29
461.12	11019.24
461.31	10979.45
461.49	11059.03
461.67	11049.67
461.85	11328.19
462.04	11225.21
462.22	11758.85
462.40	11602.04
462.59	11468.62
462.77	11253.30
462.95	11494.37
463.13	11445.22
463.32	11653.53
463.50	11726.08
463.68	11747.15
463.86	11576.29
464.05	11506.07
464.23	11737.79
464.41	11754.17
464.59	11646.51
464.78	12226.96
464.96	12032.69
465.14	11784.60
465.32	11932.05
465.50	12013.97
465.69	11983.54
465.87	12159.08
466.05	12067.80
466.23	12056.10
466.41	12306.54
466.60	12435.27
466.78	12147.38
466.96	12184.83
467.14	12297.17
467.32	12341.64
467.51	12617.83
467.69	12259.73
467.87	12435.27
468.05	12542.93
468.23	12397.82
468.41	12355.69
468.60	12510.16
468.78	12475.06
468.96	12498.46
469.14	12723.15
469.32	12924.44
469.50	12784.01
469.69	12896.35
469.87	12915.08
470.05	12765.28
470.23	13205.30
470.41	12912.74
470.59	13315.31
470.77	13029.76
470.95	13411.27
471.14	13336.37
471.32	12954.87
471.50	13476.80
471.68	13378.50
471.86	13624.26
472.04	13685.11
472.22	13853.63
472.40	13516.59
472.58	13745.97
472.77	13898.10
472.95	14143.86
473.13	14569.83
473.31	14059.60
473.49	13872.36
473.67	14015.13
473.85	14207.05
474.03	14677.50
474.21	14520.68
474.39	14721.97
474.57	14560.47
474.75	14586.22
474.93	14881.13
475.12	14607.28
475.30	15171.35
475.48	14941.98
475.66	15225.18
475.84	15101.14
476.02	15407.75
476.20	15171.35
476.38	15815.00
476.56	15868.83
476.74	16023.31
476.92	15534.14
477.10	15763.51
477.28	15925.00
477.46	16217.57
477.64	16203.53
477.82	16496.10
478.00	16589.72
478.18	16559.29
478.36	16791.00
478.54	17029.74
478.72	17057.82
478.90	17118.68
479.08	17357.41
479.26	17614.87
479.44	17493.16
479.62	18017.44
479.80	18197.67
479.98	17947.23
480.16	18384.91
480.34	18075.96
480.52	18693.86
480.70	18331.08
480.88	18492.57
481.06	18686.84
481.24	18878.76
481.41	18810.89
481.59	19442.83
481.77	19690.93
481.95	19644.12
482.13	19625.39
482.31	19459.21
482.49	20327.55
482.67	20081.80
482.85	20027.96
483.03	20592.03
483.21	20379.04
483.39	20877.58
483.57	21083.55
483.74	20940.77
483.92	20870.56
484.10	21015.67
484.28	21694.43
484.46	21605.49
484.64	22361.48
484.82	21764.64
485.00	22230.41
485.18	22375.52
485.35	22876.40
485.53	22801.50
485.71	22829.59
485.89	23428.76
486.07	23232.16
486.25	23220.45
486.43	23405.36
486.61	23800.91
486.78	23536.43
486.96	24280.72
487.14	24472.64
487.32	24514.77
487.50	24308.80
487.68	24739.46
487.85	25247.36
488.03	25553.97
488.21	25776.32
488.39	25797.38
488.57	25678.02
488.75	26375.50
488.92	26305.28
489.10	26265.49
489.28	26448.05
489.46	26820.20
489.64	26632.96
489.81	27482.57
489.99	27974.08
490.17	27683.86
490.35	27740.03
490.53	28243.24
490.70	28538.15
490.88	27889.82
491.06	28739.44
491.24	28566.24
491.41	29186.48
491.59	28847.10
491.77	28943.06
491.95	29331.59
492.13	29677.99
492.30	29907.37
492.48	29553.94
492.66	30274.83
492.84	29986.94
493.01	30478.46
493.19	30260.79
493.37	30703.15
493.54	31028.48
493.72	31271.90
493.90	31414.67
494.08	31660.43
494.25	31824.26
494.43	31590.21
494.61	32133.21
494.79	32231.52
494.96	32048.96
495.14	32610.68
495.32	32765.16
495.49	32788.56
495.67	33050.70
495.85	33467.32
496.02	33617.11
496.20	33607.75
496.38	33722.44
496.55	33900.32
496.73	34630.57
496.91	34150.76
497.09	34836.53
497.26	34740.57
497.44	34572.05
497.62	35337.41
497.79	35576.14
497.97	35545.72
498.14	36009.14
498.32	35775.09
498.50	36343.84
498.67	36254.90
498.85	36231.49
499.03	36802.58
499.20	36559.17
499.38	37029.62
499.56	36818.97
499.73	36980.46
499.91	37317.50
500.08	37134.94
500.26	37034.30
500.44	37301.12
500.61	37837.10
500.79	36938.33
500.97	38192.86
501.14	38195.20
501.32	38347.34
501.49	38323.93
501.67	38506.49
501.84	38871.62
502.02	39000.35
502.20	38782.68
502.37	39189.93
502.55	39423.98
502.72	39124.40
502.90	39281.21
503.07	39133.76
503.25	39723.57
503.43	39501.22
503.60	39618.25
503.78	39892.09
503.95	40027.84
504.13	40208.06
504.30	40577.87
504.48	40488.93
504.65	40353.18
504.83	40793.20
505.01	41219.17
505.18	41027.25
505.36	41422.80
505.53	41034.27
505.71	41392.37
505.88	41092.79
506.06	41315.14
506.23	41916.65
506.41	41315.14
506.58	41972.83
506.76	41792.61
506.93	42335.61
507.11	41972.83
507.28	42237.31
507.46	42440.93
507.63	42740.52
507.81	42923.08
507.98	42366.04
508.16	42576.69
508.33	42904.36
508.50	43590.14
508.68	43459.07
508.85	43426.30
509.03	43597.16
509.20	43636.95
509.38	44027.82
509.55	44196.34
509.73	44509.97
509.90	44339.11
510.08	43936.54
510.25	44018.46
510.42	44509.97
510.60	45219.15
510.77	45036.59
510.95	45399.37
511.12	44839.98
511.30	45015.52
511.47	45200.43
511.64	45198.09
511.82	45579.59
511.99	45378.31
512.17	45867.48
512.34	45418.10
512.51	46078.13
512.69	46031.32
512.86	45933.01
513.04	46220.90
513.21	46291.12
513.38	46431.55
513.56	46782.63
513.73	46342.61
513.90	46768.58
514.08	46518.15
514.25	47260.10
514.43	47171.16
514.60	47192.22
514.77	47075.19
514.95	47477.77
515.12	47566.71
515.29	47269.46
515.47	47817.14
515.64	47999.71
515.81	47690.76
515.99	47817.14
516.16	48250.14
516.33	48322.70
516.51	48509.94
516.68	48114.39
516.85	48264.19
517.03	48411.64
517.20	48767.40
517.37	48435.05
517.54	48727.61
517.72	48507.60
517.89	48624.63
518.06	49106.78
518.24	48701.87
518.41	49389.98
518.58	49148.91
518.75	49319.77
518.93	49322.11
519.10	49492.97
519.27	49708.30
519.45	49322.11
519.62	49755.11
519.79	49893.20
519.96	49743.41
520.14	49970.44
520.31	49743.41
520.48	50211.51
520.65	50099.17
520.83	50600.04
521.00	50192.79
521.17	50237.26
521.34	50494.72
521.52	50756.86
521.69	50672.60
521.86	50878.57
522.03	51105.60
522.20	50897.29
522.38	51470.72
522.55	50941.76
522.72	50976.87
522.89	51150.07
523.07	51330.29
523.24	51480.08
523.41	51554.98
523.58	51243.69
523.75	51650.94
523.92	51679.03
524.10	51849.89
524.27	51711.80
524.44	51973.94
524.61	51800.74
524.78	52023.09
524.96	52238.42
525.13	52062.88
525.30	52313.31
525.47	52109.69
525.64	52371.83
525.81	52575.45
525.98	52484.17
526.16	52439.70
526.33	52802.49
526.50	52804.83
526.67	53085.69
526.84	52603.54
527.01	52992.07
527.18	52861.00
527.36	52699.50
527.53	53001.43
527.70	52942.92
527.87	53305.70
528.04	53090.37
528.21	53256.55
528.38	53396.98
528.55	53446.13
528.72	53415.71
528.89	53551.46
529.07	53265.91
529.24	53366.55
529.41	53511.67
529.58	53219.10
529.75	53591.25
529.92	53712.95
530.09	53825.30
530.26	53841.68
530.43	53956.37
530.60	53549.12
530.77	53904.88
530.94	53829.98
531.11	53619.33
531.28	54007.86
531.46	53996.16
531.63	54075.74
531.80	54066.38
531.97	54080.42
532.14	54504.06
532.31	54237.23
532.48	54181.06
532.65	54490.01
532.82	54094.46
532.99	54485.33
533.16	54585.97
533.33	54677.25
533.50	54908.97
533.67	54710.02
533.84	54426.82
534.01	54829.39
534.18	54841.09
534.35	55145.36
534.52	55002.59
534.69	55231.96
534.86	55180.47
535.03	54787.26
535.20	55119.62
535.37	55363.03
535.54	55182.81
535.71	55089.19
535.88	54981.52
536.05	55316.22
536.22	55358.35
536.38	55016.63
536.55	55419.20
536.72	55367.71
536.89	55487.08
537.06	55154.72
537.23	55536.23
537.40	55348.99
537.57	55646.24
537.74	55784.33
537.91	55798.37
538.08	55508.14
538.25	55601.77
538.42	55817.10
538.59	56051.15
538.75	55936.46
538.92	56069.87
539.09	56060.51
539.26	56203.28
539.43	56114.34
539.60	55994.98
539.77	56079.24
539.94	56409.25
540.11	56112.00
540.28	56067.53
540.44	56430.32
540.61	55870.93
540.78	56097.96
540.95	56376.48
541.12	56299.25
541.29	56186.90
541.46	56427.98
541.62	56357.76
541.79	56568.41
541.96	56236.05
542.13	56423.29
542.30	56514.58
542.47	56638.62
542.63	56722.88
542.80	56865.66
542.97	56837.57
543.14	57202.69
543.31	57106.73
543.48	57167.58
543.64	57331.42
543.81	57078.64
543.98	56954.60
544.15	57127.80
544.32	57315.04
544.48	57495.26
544.65	57169.93
544.82	57326.74
544.99	57324.40
545.16	57499.94
545.32	57090.35
545.49	57551.43
545.66	57453.13
545.83	57371.21
546.00	57516.32
546.16	57633.35
546.33	57453.13
546.50	57684.84
546.67	57588.88
546.83	57551.43
547.00	57558.45
547.17	57656.76
547.34	57635.69
547.50	57684.84
547.67	57984.43
547.84	57827.62
548.00	57855.70
548.17	57946.98
548.34	58066.35
548.51	57993.79
548.67	58211.46
548.84	57925.92
549.01	58101.46
549.18	57991.45
549.34	58117.84
549.51	58054.65
549.68	58300.40
549.84	58115.50
550.01	58396.37
550.18	58431.47
550.34	58323.81
550.51	58436.16
550.68	58244.23
550.84	58335.51
551.01	58323.81
551.18	58382.32
551.34	58424.45
551.51	58679.57
551.68	58473.60
551.84	58532.12
552.01	58267.64
552.18	58384.66
552.34	58145.93
552.51	58616.38
552.68	58426.79
552.84	58333.17
553.01	58719.36
553.18	58649.14
553.34	58791.92
553.51	58447.86
553.67	58724.04
553.84	58920.65
554.01	58801.28
554.17	58866.81
554.34	58775.53
554.51	59047.04
554.67	58873.84
554.84	58904.26
555.00	58681.91
555.17	59007.25
555.33	58937.03
555.50	58829.37
555.67	58815.32
555.83	58880.86
556.00	58944.05
556.16	59260.02
556.33	59203.85
556.50	59072.78
556.66	59295.13
556.83	58925.33
556.99	59498.76
557.16	59248.32
557.32	59454.29
557.49	59522.16
557.65	59278.75
557.82	59140.66
557.98	59231.94
558.15	59334.92
558.32	59140.66
558.48	59213.21
558.65	59487.06
558.81	59313.86
558.98	59290.45
559.14	59487.06
559.31	59477.69
559.47	59465.99
559.64	59503.44
559.80	59386.41
559.97	59533.87
560.13	59344.28
560.30	59461.31
560.46	59763.24
560.63	59653.23
560.79	59561.95
560.96	59838.14
561.12	59669.62
561.29	59824.09
561.45	59781.96
561.61	59796.01
561.78	59519.82
561.94	59629.83
562.11	59758.56
562.27	59707.07
562.44	59803.03
562.60	59877.93
562.77	59992.61
562.93	59465.99
563.10	60086.23
563.26	59849.84
563.42	60114.32
563.59	59849.84
563.75	59955.16
563.92	59793.67
564.08	59777.28
564.24	60107.30
564.41	59828.77
564.57	60025.38
564.74	60067.51
564.90	59955.16
565.07	59812.39
565.23	59999.63
565.39	59959.84
565.56	59920.05
565.72	60004.31
565.88	60016.02
566.05	60102.62
566.21	60109.64
566.38	60151.77
566.54	60009.00
566.70	60130.70
566.87	60135.38
567.03	60200.92
567.19	60261.77
567.36	60238.37
567.52	60364.76
567.68	60430.29
567.85	60072.19
568.01	60299.22
568.17	60079.21
568.34	60439.65
568.50	60168.15
568.66	60151.77
568.83	60217.30
568.99	60280.50
569.15	60350.71
569.32	60329.65
569.48	60278.16
569.64	60477.10
569.81	60278.16
569.97	60392.84
570.13	60341.35
570.30	60259.43
570.46	60280.50
570.62	60413.91
570.78	60261.77
570.95	60336.67
571.11	60409.23
571.27	60432.63
571.43	60317.95
571.60	60446.68
571.76	60425.61
571.92	60350.71
572.09	60247.73
572.25	60404.55
572.41	60385.82
572.57	60285.18
572.74	60729.88
572.90	60205.60
573.06	60472.42
573.22	60488.80
573.38	60488.80
573.55	60453.70
573.71	60940.53
573.87	60622.22
574.03	60685.41
574.20	60542.64
574.36	60500.51
574.52	60559.02
574.68	60654.98
574.84	60729.88
575.01	60746.26
575.17	60617.53
575.33	60467.74
575.49	60470.08
575.65	60603.49
575.82	60701.79
575.98	60725.20
576.14	60917.12
576.30	60673.71
576.46	60640.94
576.62	60633.92
576.79	60673.71
576.95	60544.98
577.11	60652.64
577.27	60814.14
577.43	60874.99
577.59	60601.15
577.75	60776.69
577.92	60605.83
578.08	60662.00
578.24	60865.63
578.40	60858.61
578.56	60800.10
578.72	60680.73
578.88	60879.67
579.04	60987.34
579.21	60816.48
579.37	60797.76
579.53	60797.76
579.69	60629.24
579.85	60601.15
580.01	60746.26
580.17	60535.62
580.33	60498.17
580.49	60753.29
580.65	60779.03
580.82	60685.41
580.98	60650.30
581.14	60554.34
581.30	60968.61
581.46	60734.56
581.62	60928.83
581.78	60757.97
581.94	60802.44
582.10	60804.78
582.26	60832.86
582.42	60781.37
582.58	60718.18
582.74	60640.94
582.90	60645.62
583.06	60891.38
583.22	60781.37
583.38	60760.31
583.54	60849.25
583.70	60849.25
583.86	60774.35
584.02	60825.84
584.18	60954.57
584.34	60849.25
584.50	60973.30
584.66	60657.32
584.82	60502.85
584.98	61118.41
585.14	60893.72
585.30	60802.44
585.46	60788.39
585.62	60795.42
585.78	60835.20
585.94	60694.77
586.10	60917.12
586.26	60956.91
586.42	61085.64
586.58	60687.75
586.74	60907.76
586.90	60912.44
587.06	60802.44
587.22	60966.27
587.38	60870.31
587.54	61071.60
587.70	61076.28
587.86	60851.59
588.02	60865.63
588.18	61113.73
588.34	60945.21
588.49	60968.61
588.65	61022.45
588.81	60956.91
588.97	61160.54
589.13	60968.61
589.29	61057.56
589.45	61300.97
589.61	61291.61
589.77	61329.06
589.93	61087.98
590.08	61160.54
590.24	61244.80
590.40	61478.85
590.56	61284.59
590.72	61382.89
590.88	61015.43
591.04	61207.35
591.20	61291.61
591.35	61153.52
591.51	61614.60
591.67	61324.38
591.83	61345.44
591.99	61317.35
592.15	61193.31
592.31	61415.66
592.46	61279.91
592.62	61205.01
592.78	61230.75
592.94	61275.22
593.10	61265.86
593.26	61392.25
593.41	61228.41
593.57	61418.00
593.73	61357.14
593.89	61497.58
594.05	61469.49
594.20	61371.19
594.36	61410.98
594.52	61268.20
594.68	61160.54
594.84	61338.42
594.99	61389.91
595.15	61329.06
595.31	61448.42
595.47	61357.14
595.62	61226.07
595.78	61324.38
595.94	61661.41
596.10	61593.54
596.25	61565.45
596.41	61518.64
596.57	61270.54
596.73	61497.58
596.88	61399.27
597.04	61375.87
597.20	61616.94
597.36	61549.07
597.51	61745.67
597.67	61275.22
597.83	61333.74
597.99	61759.72
598.14	61511.62
598.30	61675.46
598.46	61476.51
598.61	61490.55
598.77	61518.64
598.93	61565.45
599.09	61506.94
599.24	61834.61
599.40	61794.82
599.56	61553.75
599.71	61586.52
599.87	61668.44
600.03	61630.99
600.18	61511.62
600.34	61556.09
600.50	61544.39
600.65	61432.04
600.81	61640.35
600.97	61806.53
601.12	61495.24
601.28	61574.81
601.44	61432.04
601.59	61516.30
601.75	61483.53
601.91	61584.18
602.06	61520.98
602.22	61630.99
602.37	61661.41
602.53	61593.54
602.69	61537.36
602.84	61675.46
603.00	61581.84
603.16	61757.38
603.31	61621.62
603.47	61666.09
603.62	61677.80
603.78	61862.70
603.94	61616.94
604.09	61616.94
604.25	61418.00
604.40	61546.73
604.56	61630.99
604.71	61799.50
604.87	61560.77
605.03	61769.08
605.18	61647.37
605.34	61612.26
605.49	61544.39
605.65	61799.50
605.80	61666.09
605.96	61783.12
606.12	61722.27
606.27	61719.93
606.43	61640.35
606.58	61703.54
606.74	61635.67
606.89	61509.28
607.05	61614.60
607.20	61764.40
607.36	61455.45
607.51	61476.51
607.67	61333.74
607.82	61394.59
607.98	61392.25
608.13	61560.77
608.29	61654.39
608.44	61598.22
608.60	61490.55
608.75	61661.41
608.91	61375.87
609.06	61544.39
609.22	61733.97
609.37	61446.08
609.53	61633.33
609.68	61429.70
609.84	61401.61
609.99	61361.82
610.15	61584.18
610.30	61478.85
610.46	61418.00
610.61	61516.30
610.76	61350.12
610.92	61413.32
611.07	61528.00
611.23	61221.39
611.38	61261.18
611.54	61492.89
611.69	61441.40
611.84	61420.34
612.00	61382.89
612.15	61595.88
612.31	61483.53
612.46	61333.74
612.62	61506.94
612.77	61549.07
612.92	61513.96
613.08	61284.59
613.23	61485.87
613.39	61270.54
613.54	61139.47
613.69	61495.24
613.85	61516.30
614.00	61371.19
614.15	61476.51
614.31	61305.65
614.46	61513.96
614.62	61422.68
614.77	61303.31
614.92	61146.50
615.08	61111.39
615.23	61226.07
615.38	61123.09
615.54	61127.77
615.69	61186.28
615.84	61476.51
616.00	61382.89
616.15	61219.05
616.30	61439.06
616.46	61064.58
616.61	61104.37
616.76	61385.23
616.92	61111.39
617.07	61155.86
617.22	61125.43
617.37	61024.79
617.53	61244.80
617.68	61226.07
617.83	61137.13
617.99	60900.74
618.14	61134.79
618.29	61020.11
618.45	61109.05
618.60	60975.64
618.75	60884.36
618.90	60886.70
619.06	61069.26
619.21	61162.88
619.36	61244.80
619.51	60996.70
619.67	60945.21
619.82	60727.54
619.97	61076.28
620.12	61003.72
620.28	60898.40
620.43	60755.63
620.58	60764.99
620.73	60898.40
620.89	60821.16
621.04	61141.81
621.19	60807.12
621.34	60959.25
621.49	60711.16
621.65	60853.93
621.80	60746.26
621.95	60772.01
622.10	60867.97
622.25	60846.91
622.41	60757.97
622.56	60662.00
622.71	60708.82
622.86	60690.09
623.01	60666.69
623.16	60636.26
623.32	60832.86
623.47	60839.89
623.62	60610.51
623.77	60692.43
623.92	60853.93
624.07	60713.50
624.23	60882.02
624.38	60671.37
624.53	60528.59
624.68	60388.16
624.83	60570.72
624.98	60608.17
625.13	60493.49
625.29	60647.96
625.44	60458.38
625.59	60594.13
625.74	60591.79
625.89	60336.67
626.04	60205.60
626.19	60346.03
626.34	60273.48
626.49	60126.02
626.65	60273.48
626.80	60535.62
626.95	60018.36
627.10	60090.91
627.25	60322.63
627.40	60149.43
627.55	60327.31
627.70	60301.56
627.85	60388.16
628.00	59992.61
628.15	60336.67
628.30	60364.76
628.45	60203.26
628.60	60179.85
628.76	60123.68
628.91	60048.78
629.06	60313.26
629.21	60156.45
629.36	60006.65
629.51	60065.17
629.66	59908.35
629.81	59807.71
629.96	59678.98
630.11	59840.48
630.26	60044.10
630.41	60135.38
630.56	60097.94
630.71	59945.80
630.86	60037.08
631.01	59922.40
631.16	59891.97
631.31	59831.11
631.46	59510.46
631.61	59962.18
631.76	60009.00
631.91	59847.50
632.06	60100.28
632.21	59868.56
632.36	59964.52
632.51	59627.49
632.66	59681.32
632.81	59730.47
632.96	59730.47
633.10	59592.38
633.25	59810.05
633.40	59821.75
633.55	59746.86
633.70	59648.55
633.85	59578.34
634.00	59568.97
634.15	59489.40
634.30	59571.32
634.45	59554.93
634.60	59650.89
634.75	59510.46
634.90	59318.54
635.05	59484.72
635.19	59608.76
635.34	59496.42
635.49	59594.72
635.64	59580.68
635.79	59650.89
635.94	59430.88
636.09	59524.50
636.24	59533.87
636.39	59444.93
636.53	59522.16
636.68	59332.58
636.83	59463.65
636.98	59550.25
637.13	59037.67
637.28	59105.55
637.43	59508.12
637.57	59510.46
637.72	59208.53
637.87	59292.79
638.02	59428.54
638.17	59508.12
638.32	59299.81
638.46	59124.27
638.61	59241.30
638.76	59217.89
638.91	59234.28
639.06	59173.42
639.20	59114.91
639.35	59023.63
639.50	59037.67
639.65	59110.23
639.80	59274.07
639.94	58981.50
640.09	59112.57
640.24	59035.33
640.39	58988.52
640.54	58974.48
640.68	59161.72
640.83	58815.32
640.98	58904.26
641.13	58981.50
641.27	58981.50
641.42	58848.09
641.57	58911.28
641.72	58817.66
641.86	58862.13
642.01	58555.52
642.16	58815.32
642.31	58719.36
642.45	58906.60
642.60	58836.39
642.75	58930.01
642.90	58695.95
643.04	58691.27
643.19	58562.54
643.34	58714.68
643.48	58550.84
643.63	58665.53
643.78	58702.98
643.93	58684.25
644.07	58618.72
644.22	58471.26
644.37	58188.06
644.51	58511.05
644.66	58588.29
644.81	58674.89
644.95	58337.85
645.10	58541.48
645.25	58518.07
645.39	58323.81
645.54	58398.71
645.69	58499.35
645.83	58543.82
645.98	58424.45
646.13	58454.88
646.27	58316.79
646.42	58581.27
646.57	58497.01
646.71	58401.05
646.86	58251.25
647.00	58450.20
647.15	58377.64
647.30	58459.56
647.44	58337.85
647.59	58665.53
647.74	58314.45
647.88	58396.37
648.03	58368.28
648.17	58379.98
648.32	58124.86
648.47	58536.80
648.61	58347.21
648.76	58197.42
648.90	58260.62
649.05	58288.70
649.20	58293.38
649.34	58265.30
649.49	58185.72
649.63	58068.69
649.78	58272.32
649.92	57979.75
650.07	58295.72
650.21	57970.39
650.36	58202.10
650.51	57979.75
650.65	58253.59
650.80	58021.88
650.94	57949.32
651.09	57895.49
651.23	57696.55
651.38	57883.79
651.52	57602.92
651.67	57703.57
651.81	57682.50
651.96	57799.53
652.10	57712.93
652.25	57783.15
652.39	57764.42
652.54	57446.11
652.68	57563.14
652.83	57570.16
652.97	57694.21
653.12	57544.41
653.26	57677.82
653.41	57869.75
653.55	57783.15
653.70	57605.26
653.84	58056.99
653.99	57504.62
654.13	57729.31
654.27	57476.54
654.42	57324.40
654.56	57598.24
654.71	57523.35
654.85	57673.14
655.00	57406.32
655.14	57352.49
655.29	57413.34
655.43	57509.30
655.57	57343.12
655.72	57464.83
655.86	57434.41
656.01	57382.91
656.15	57298.65
656.30	57448.45
656.44	57483.56
656.58	57464.83
656.73	57460.15
656.87	57490.58
657.01	57256.53
657.16	57427.38
657.30	57137.16
657.45	57193.33
657.59	57085.67
657.73	56987.36
657.88	56961.62
658.02	56985.02
658.16	56970.98
658.31	56793.10
658.45	57045.88
658.60	57099.71
658.74	56900.76
658.88	56879.70
659.03	56755.65
659.17	56926.51
659.31	56945.23
659.46	56891.40
659.60	56781.40
659.74	56743.95
659.89	56460.74
660.03	56956.94
660.17	56917.15
660.32	56643.30
660.46	56882.04
660.60	56879.70
660.74	56640.96
660.89	56809.48
661.03	56231.37
661.17	56149.45
661.32	56545.00
661.46	56224.35
661.60	56348.40
661.74	56261.80
661.89	56128.39
662.03	56264.14
662.17	56346.06
662.31	56119.02
662.46	56339.04
662.60	55962.21
662.74	55875.61
662.88	56154.13
663.03	55772.63
663.17	55990.30
663.31	55753.90
663.45	55856.88
663.60	55632.19
663.74	55683.69
663.88	55583.04
664.02	56062.85
664.17	55697.73
664.31	55564.32
664.45	55501.12
664.59	55777.31
664.73	55695.39
664.88	55608.79
665.02	55196.85
665.16	55194.51
665.30	55363.03
665.44	55442.61
665.59	55386.44
665.73	55236.64
665.87	55180.47
666.01	55388.78
666.15	55084.51
666.29	54925.35
666.44	55379.42
666.58	54927.69
666.72	54740.45
666.86	54642.15
667.00	54820.03
667.14	54798.96
667.28	54564.91
667.43	54588.31
667.57	54705.34
667.71	54658.53
667.85	54635.13
667.99	54459.58
668.13	54595.34
668.27	54403.41
668.41	54459.58
668.56	54218.51
668.70	54035.95
668.84	54108.50
668.98	54031.27
669.12	54274.68
669.26	54129.57
669.40	54354.26
669.54	54080.42
669.68	54117.87
669.82	53909.56
669.96	53811.26
670.10	53815.94
670.25	53851.05
670.39	53710.61
670.53	53961.05
670.67	53556.14
670.81	53932.96
670.95	53371.24
671.09	53542.10
671.23	53244.85
671.37	53331.45
671.51	53588.91
671.65	53160.59
671.79	53542.10
671.93	53169.95
672.07	53174.63
672.21	52875.04
672.35	52638.65
672.49	52753.33
672.63	52715.89
672.77	52816.53
672.91	52313.31
673.05	52367.15
673.19	52437.36
673.33	52444.38
673.47	52100.32
673.61	52470.13
673.75	52313.31
673.89	51812.44
674.03	51903.72
674.17	51824.14
674.31	52004.36
674.45	51704.77
674.59	51664.99
674.73	51646.26
674.87	51456.68
675.01	51444.98
675.15	51299.86
675.29	51243.69
675.43	51210.92
675.56	51220.28
675.70	50990.91
675.84	51164.11
675.98	49890.86
676.12	51042.40
676.26	50784.94
676.40	50513.44
676.54	50827.07
676.68	50803.67
676.82	50204.49
676.96	49970.44
677.10	50106.19
677.23	49736.38
677.37	49736.38
677.51	49595.95
677.65	49401.69
677.79	48685.48
677.93	49024.86
678.07	49095.08
678.21	48299.30
678.34	49109.12
678.48	49146.57
678.62	48587.18
678.76	48119.07
678.90	48318.02
679.04	48147.16
679.18	48460.79
679.31	48053.54
679.45	47695.44
679.59	47866.30
679.73	47959.92
679.87	47084.56
680.00	47583.09
680.14	46937.10
680.28	47274.14
680.42	46876.25
680.56	46700.71
680.70	46525.17
680.83	46777.95
680.97	46494.74
681.11	46344.95
681.25	46110.89
681.39	46380.06
681.52	46504.10
681.66	46010.25
681.80	45214.47
681.94	45610.02
682.07	45659.17
682.21	45078.72
682.35	45125.53
682.49	44964.03
682.62	45331.50
682.76	45095.10
682.90	45127.87
683.04	44830.62
683.17	44720.62
683.31	44945.31
683.45	44355.49
683.59	43952.92
683.72	43693.12
683.86	43718.87
684.00	43618.22
684.13	43564.39
684.27	43550.35
684.41	43775.04
684.55	43765.68
684.68	43339.70
684.82	42831.80
684.96	42543.92
685.09	42632.86
685.23	42763.93
685.37	42464.34
685.50	42141.35
685.64	42344.97
685.78	41865.16
685.91	41858.14
686.05	41530.47
686.19	40975.76
686.32	41326.84
686.46	40797.88
686.60	40924.27
686.73	40793.20
686.87	41088.10
687.01	40680.85
687.14	40552.12
687.28	39906.13
687.42	40194.02
687.55	39772.72
687.69	40746.39
687.82	39878.05
687.96	39213.34
688.10	39473.13
688.23	39508.24
688.37	39255.46
688.50	38873.96
688.64	38920.77
688.78	38490.11
688.91	38773.31
689.05	38426.92
689.18	38775.66
689.32	37546.87
689.46	37322.18
689.59	37474.32
689.73	37436.87
689.86	37441.55
690.00	37361.97
690.13	37249.63
690.27	37390.06
690.41	37881.57
690.54	36659.81
690.68	36573.21
690.81	36629.38
690.95	36432.78
691.08	36006.80
691.22	35793.81
691.35	35765.73
691.49	36308.73
691.62	35351.45
691.76	35227.40
691.89	35311.66
692.03	35346.77
692.16	35147.82
692.30	34670.36
692.43	34913.77
692.57	34457.37
692.70	34492.47
692.84	34532.26
692.97	34125.01
693.11	34108.63
693.24	33914.36
693.38	33977.56
693.51	33642.86
693.65	33249.65
693.78	33301.14
693.92	33830.10
694.05	32982.83
694.19	32542.81
694.32	33053.05
694.45	32861.12
694.59	32795.59
694.72	32414.08
694.86	32374.29
694.99	31864.05
695.13	31632.34
695.26	31522.34
695.39	31461.48
695.53	31988.10
695.66	31627.66
695.80	31194.66
695.93	30419.94
696.07	30738.26
696.20	30237.38
696.33	30707.83
696.47	30314.62
696.60	30869.33
696.73	30375.47
696.87	30412.92
697.00	29996.31
697.14	30150.78
697.27	30263.13
697.40	29823.11
697.54	29516.50
697.67	29179.46
697.80	29252.02
697.94	28987.53
698.07	29017.96
698.21	29074.13
698.34	28952.43
698.47	28037.28
698.61	28486.66
698.74	28666.88
698.87	28418.78
699.01	27714.28
699.14	27889.82
699.27	28142.60
699.40	28386.02
699.54	27747.05
699.67	27620.66
699.80	27585.55
699.94	27433.42
700.07	27264.90
700.20	26761.69
700.34	26754.66
700.47	26216.34
700.60	26134.42
700.73	26073.57
700.87	25830.15
701.00	25844.20
701.13	25841.85
701.26	25762.28
701.40	26022.08
701.53	25511.84
701.66	25556.31
701.79	25277.79
701.93	24999.26
702.06	25020.33
702.19	24933.73
702.32	25170.12
702.46	24713.72
702.59	24362.64
702.72	24257.31
702.85	24779.25
702.99	24372.00
703.12	24287.74
703.25	23831.33
703.38	23789.20
703.51	23868.78
703.65	23192.37
703.78	23016.83
703.91	23044.91
704.04	23204.07
704.17	23164.28
704.31	23145.56
704.44	22656.39
704.57	22705.54
704.70	22457.44
704.83	22305.31
704.96	22263.18
705.10	21949.54
705.23	22092.32
>>>>>End Processed Spectral Data<<<<<
