SpectraSuite Data File
++++++++++++++++++++++++++++++++++++
Date: Fri Oct 25 10:47:55 EDT 2013
User: price-jones
Dark Spectrum Present: No
Reference Spectrum Present: No
Number of Sampled Component Spectra: 1
Spectrometers: USB2+H05261
Integration Time (usec): 100000 (USB2+H05261)
Spectra Averaged: 1 (USB2+H05261)
Boxcar Smoothing: 0 (USB2+H05261)
Correct for Electrical Dark: No (USB2+H05261)
Strobe/Lamp Enabled: No (USB2+H05261)
Correct for Detector Non-linearity: No (USB2+H05261)
Correct for Stray Light: No (USB2+H05261)
Number of Pixels in Processed Spectrum: 2048
>>>>>Begin Processed Spectral Data<<<<<
365.73	161.50
365.92	161.50
366.12	161.50
366.32	21.06
366.52	166.18
366.72	14.04
366.91	0.00
367.11	70.22
367.31	11.70
367.51	56.17
367.70	0.00
367.90	0.00
368.10	0.00
368.30	25.75
368.49	11.70
368.69	25.75
368.89	25.75
369.09	95.96
369.28	56.17
369.48	124.05
369.68	100.64
369.87	105.32
370.07	105.32
370.27	166.18
370.47	194.26
370.66	369.80
370.86	482.15
371.06	477.47
371.25	507.90
371.45	477.47
371.65	472.79
371.84	465.77
372.04	514.92
372.24	491.51
372.44	472.79
372.63	395.55
372.83	498.53
373.03	526.62
373.22	475.13
373.42	503.22
373.62	514.92
373.81	470.45
374.01	547.69
374.21	615.56
374.40	559.39
374.60	507.90
374.79	514.92
374.99	484.49
375.19	538.32
375.38	589.82
375.58	613.22
375.78	580.45
375.97	636.63
376.17	702.16
376.37	512.58
376.56	692.80
376.76	564.07
376.95	561.73
377.15	575.77
377.35	564.07
377.54	566.41
377.74	587.47
377.93	610.88
378.13	631.94
378.33	645.99
378.52	608.54
378.72	634.29
378.91	643.65
379.11	587.47
379.31	620.24
379.50	582.79
379.70	662.37
379.89	657.69
380.09	641.31
380.28	599.18
380.48	636.63
380.68	685.78
380.87	631.94
381.07	657.69
381.26	704.50
381.46	676.41
381.65	718.54
381.85	669.39
382.04	610.88
382.24	718.54
382.43	638.97
382.63	697.48
382.83	720.88
383.02	692.80
383.22	674.07
383.41	767.70
383.61	697.48
383.80	779.40
384.00	730.25
384.19	795.78
384.39	791.10
384.58	830.89
384.78	821.53
384.97	767.70
385.17	774.72
385.36	786.42
385.56	784.08
385.75	777.06
385.95	840.25
386.14	786.42
386.34	826.21
386.53	791.10
386.72	760.67
386.92	795.78
387.11	763.01
387.31	765.36
387.50	793.44
387.70	784.08
387.89	858.98
388.09	842.59
388.28	837.91
388.48	842.59
388.67	833.23
388.86	861.32
389.06	905.79
389.25	823.87
389.45	903.45
389.64	844.93
389.84	866.00
390.03	933.87
390.22	807.48
390.42	915.15
390.61	947.92
390.81	978.34
391.00	968.98
391.19	1011.11
391.39	985.37
391.58	945.58
391.78	983.02
391.97	973.66
392.16	894.08
392.36	997.07
392.55	952.60
392.75	924.51
392.94	1034.52
393.13	985.37
393.33	985.37
393.52	1008.77
393.71	1041.54
393.91	994.73
394.10	1139.84
394.29	990.05
394.49	976.00
394.68	1156.22
394.88	1135.16
395.07	1212.40
395.26	1041.54
395.46	1165.59
395.65	1104.73
395.84	1198.35
396.04	1203.04
396.23	1135.16
396.42	1123.46
396.62	1123.46
396.81	1174.95
397.00	1256.87
397.19	1104.73
397.39	1186.65
397.58	1210.06
397.77	1275.59
397.97	1167.93
398.16	1284.95
398.35	1390.28
398.55	1392.62
398.74	1331.76
398.93	1394.96
399.12	1306.02
399.32	1430.07
399.51	1359.85
399.70	1362.19
399.90	1355.17
400.09	1404.32
400.28	1409.00
400.47	1488.58
400.67	1551.78
400.86	1455.81
401.05	1425.39
401.24	1547.09
401.44	1479.22
401.63	1451.13
401.82	1558.80
402.01	1432.41
402.21	1481.56
402.40	1540.07
402.59	1577.52
402.78	1610.29
402.97	1544.75
403.17	1582.20
403.36	1542.41
403.55	1682.85
403.74	1605.61
403.93	1703.91
404.13	1621.99
404.32	1612.63
404.51	1570.50
404.70	1750.72
404.89	1764.76
405.09	1717.95
405.28	1729.66
405.47	1617.31
405.66	1771.79
405.85	1692.21
406.05	1797.53
406.24	1755.40
406.43	1748.38
406.62	1858.39
406.81	1851.36
407.00	1832.64
407.20	1802.21
407.39	1853.70
407.58	1914.56
407.77	1935.62
407.96	1872.43
408.15	1994.14
408.34	2026.90
408.54	1963.71
408.73	2132.23
408.92	2139.25
409.11	1914.56
409.30	1961.37
409.49	2005.84
409.68	2136.91
409.87	1982.43
410.07	2169.68
410.26	2172.02
410.45	2050.31
410.64	2127.55
410.83	2207.13
411.02	2221.17
411.21	2216.49
411.40	2197.76
411.59	2242.23
411.78	2333.51
411.98	2345.22
412.17	2349.90
412.36	2413.09
412.55	2345.22
412.74	2471.61
412.93	2485.65
413.12	2431.82
413.31	2565.23
413.50	2560.55
413.69	2485.65
413.88	2539.48
414.07	2434.16
414.26	2658.85
414.45	2567.57
414.64	2710.34
414.83	2801.62
415.02	2637.78
415.22	2738.43
415.41	2916.31
415.60	2862.48
415.79	2759.49
415.98	2949.08
416.17	2759.49
416.36	2860.13
416.55	2869.50
416.74	3005.25
416.93	2911.63
417.12	2920.99
417.31	2991.20
417.50	2820.35
417.69	3103.55
417.88	3026.31
418.07	2932.69
418.26	3082.49
418.45	2993.55
418.64	3234.62
418.83	3218.24
419.02	3274.41
419.21	3225.26
419.39	3180.79
419.58	3183.13
419.77	3220.58
419.96	3300.16
420.15	3452.29
420.34	3328.24
420.53	3283.77
420.72	3393.78
420.91	3363.35
421.10	3311.86
421.29	3482.72
421.48	3351.65
421.67	3323.56
421.86	3431.23
422.05	3384.41
422.24	3480.38
422.43	3384.41
422.61	3431.23
422.80	3485.06
422.99	3566.98
423.18	3590.38
423.37	3506.12
423.56	3428.88
423.75	3506.12
423.94	3543.57
424.13	3421.86
424.32	3307.18
424.50	3538.89
424.69	3714.43
424.88	3571.66
425.07	3410.16
425.26	3435.91
425.45	3648.90
425.64	3620.81
425.83	3609.11
426.01	3630.17
426.20	3702.73
426.39	3618.47
426.58	3489.74
426.77	3513.14
426.96	3531.87
427.15	3449.95
427.33	3637.19
427.52	3716.77
427.71	3794.01
427.90	3763.58
428.09	3693.37
428.28	3805.71
428.46	3714.43
428.65	3709.75
428.84	3880.61
429.03	3838.48
429.22	3709.75
429.40	3740.18
429.59	3801.03
429.78	3688.68
429.97	3566.98
430.16	3709.75
430.34	3939.12
430.53	3932.10
430.72	3927.42
430.91	3840.82
431.10	3955.51
431.28	3978.91
431.47	4037.42
431.66	4196.58
431.85	4042.11
432.03	4126.36
432.22	4156.79
432.41	4126.36
432.60	4173.18
432.79	4264.46
432.97	4241.05
433.16	4259.78
433.35	4140.41
433.54	4208.28
433.72	4341.69
433.91	4212.96
434.10	4332.33
434.28	4236.37
434.47	4308.93
434.66	4351.06
434.85	4409.57
435.03	4596.81
435.22	4463.40
435.41	4599.15
435.59	4557.02
435.78	4638.94
435.97	4648.30
436.16	4489.15
436.34	4678.73
436.53	4655.33
436.72	4667.03
436.90	4535.96
437.09	4774.69
437.28	4510.21
437.46	4716.18
437.65	4737.24
437.84	4622.56
438.02	4683.41
438.21	4671.71
438.40	4781.71
438.58	4851.93
438.77	4947.89
438.96	4936.19
439.14	5060.24
439.33	5013.43
439.52	5013.43
439.70	4905.76
439.89	5041.51
440.08	5093.01
440.26	5298.97
440.45	5109.39
440.63	5172.58
440.82	5310.68
441.01	5270.89
441.19	5320.04
441.38	5441.75
441.57	5392.59
441.75	5542.39
441.94	5530.69
442.12	5530.69
442.31	5556.43
442.50	5738.99
442.68	5654.73
442.87	5624.31
443.05	5661.76
443.24	5717.93
443.43	5699.20
443.61	5841.98
443.80	5813.89
443.98	5626.65
444.17	5563.45
444.35	5720.27
444.54	5771.76
444.73	5959.00
444.91	5893.47
445.10	5788.14
445.28	5916.87
445.47	5755.38
445.65	5762.40
445.84	5849.00
446.02	6069.01
446.21	5776.44
446.39	5916.87
446.58	5966.03
446.77	6022.20
446.95	5902.83
447.14	5933.26
447.32	6026.88
447.51	5746.02
447.69	5851.34
447.88	6076.03
448.06	5717.93
448.25	5926.24
448.43	5959.00
448.62	5998.79
448.80	6157.95
448.99	6022.20
449.17	6111.14
449.36	6022.20
449.54	6169.65
449.73	6267.95
449.91	6214.12
450.10	6443.49
450.28	6270.30
450.46	6338.17
450.65	6375.62
450.83	6499.67
451.02	6319.45
451.20	6445.84
451.39	6410.73
451.57	6420.09
451.76	6417.75
451.94	6450.52
452.13	6356.90
452.31	6492.65
452.49	6387.32
452.68	6441.15
452.86	6462.22
453.05	6466.90
453.23	6597.97
453.42	6450.52
453.60	6572.22
453.78	6658.82
453.97	6530.09
454.15	6614.35
454.34	6347.53
454.52	6810.96
454.70	6745.42
454.89	6843.73
455.07	6956.07
455.26	6942.03
455.44	6906.92
455.62	6825.00
455.81	6946.71
455.99	6867.13
456.17	6846.07
456.36	6848.41
456.54	7049.69
456.73	7073.10
456.91	7389.07
457.09	7323.54
457.28	7295.45
457.46	7262.68
457.64	7246.30
457.83	7353.96
458.01	7126.93
458.19	7470.99
458.38	7274.38
458.56	7410.14
458.74	7630.15
458.93	7356.30
459.11	7562.27
459.29	7419.50
459.48	7510.78
459.66	7356.30
459.84	7543.55
460.03	7595.04
460.21	7632.49
460.39	7735.47
460.57	7662.91
460.76	7665.25
460.94	7709.72
461.12	7761.22
461.31	7763.56
461.49	7686.32
461.67	7653.55
461.85	7906.33
462.04	7765.90
462.22	8528.91
462.40	8018.68
462.59	7885.26
462.77	8013.99
462.95	8292.52
463.13	8063.15
463.32	7871.22
463.50	8063.15
463.68	8119.32
463.86	8250.39
464.05	7948.46
464.23	8063.15
464.41	8119.32
464.59	7995.27
464.78	8248.05
464.96	8023.36
465.14	8145.06
465.32	8266.77
465.50	8187.19
465.69	8262.09
465.87	8196.56
466.05	8262.09
466.23	8170.81
466.41	8283.16
466.60	8514.87
466.78	8255.07
466.96	8327.63
467.14	8203.58
467.32	8547.64
467.51	8538.27
467.69	8379.12
467.87	8561.68
468.05	8559.34
468.23	8622.53
468.41	8580.40
468.60	8533.59
468.78	8898.72
468.96	8671.68
469.14	8819.14
469.32	8877.65
469.50	8676.37
469.69	8781.69
469.87	8961.91
470.05	8910.42
470.23	8901.06
470.41	8828.50
470.59	9015.74
470.77	8929.14
470.95	9060.21
471.14	9231.07
471.32	8898.72
471.50	9294.27
471.68	9186.60
471.86	9137.45
472.04	9533.00
472.22	9547.05
472.40	9280.22
472.58	9348.10
472.77	9231.07
472.95	9476.83
473.13	9643.01
473.31	9530.66
473.49	9579.81
473.67	9584.49
473.85	9680.46
474.03	9708.54
474.21	9799.82
474.39	10127.50
474.57	9874.72
474.75	9935.57
474.93	10171.97
475.12	10022.17
475.30	10382.62
475.48	10403.68
475.66	10244.52
475.84	10193.03
476.02	10321.76
476.20	10335.81
476.38	10509.01
476.56	10832.00
476.74	10808.59
476.92	10661.14
477.10	10750.08
477.28	11171.38
477.46	10633.05
477.64	10927.96
477.82	11199.46
478.00	11250.96
478.18	11164.36
478.36	11452.24
478.54	11602.04
478.72	11316.49
478.90	11679.27
479.08	11791.62
479.26	12006.95
479.44	11932.05
479.62	11899.28
479.80	11988.22
479.98	12259.73
480.16	12372.07
480.34	12437.61
480.52	12767.62
480.70	12615.49
480.88	12259.73
481.06	12241.00
481.24	12620.17
481.41	12915.08
481.59	12847.20
481.77	13165.51
481.95	12877.63
482.13	13282.54
482.31	13205.30
482.49	13631.28
482.67	13488.51
482.85	13680.43
483.03	13769.37
483.21	13848.95
483.39	14045.55
483.57	13956.61
483.74	13930.87
483.92	13965.98
484.10	14366.21
484.28	14417.70
484.46	14665.80
484.64	14860.06
484.82	14551.11
485.00	14747.72
485.18	15073.05
485.35	14888.15
485.53	14888.15
485.71	14986.45
485.89	15372.64
486.07	15080.07
486.25	15639.46
486.43	15513.07
486.61	15950.75
486.78	16074.80
486.96	16065.44
487.14	16240.98
487.32	16517.16
487.50	16418.86
487.68	16561.63
487.85	16795.68
488.03	17121.02
488.21	17081.23
488.39	17027.40
488.57	17174.85
488.75	17242.73
488.92	17493.16
489.10	17762.33
489.28	17654.66
489.46	17928.50
489.64	17949.57
489.81	18277.24
489.99	18347.46
490.17	18253.84
490.35	18773.44
490.53	18459.81
490.70	18862.38
490.88	18920.89
491.06	19061.32
491.24	18979.40
491.41	19323.46
491.59	19206.44
491.77	19246.23
491.95	19346.87
492.13	19597.31
492.30	19803.27
492.48	19737.74
492.66	19887.53
492.84	19770.51
493.01	20264.36
493.19	20381.38
493.37	20690.34
493.54	20526.50
493.72	20690.34
493.90	20823.75
494.08	20952.48
494.25	21378.45
494.43	21191.21
494.61	21216.96
494.79	21544.63
494.96	21146.74
495.14	21530.59
495.32	21879.33
495.49	21633.57
495.67	21930.82
495.85	22024.44
496.02	22450.42
496.20	22286.58
496.38	22375.52
496.55	22555.74
496.73	23262.58
496.91	22934.91
497.09	22754.69
497.26	23145.56
497.44	23154.92
497.62	23047.26
497.79	23463.87
497.97	23131.51
498.14	23445.15
498.32	23501.32
498.50	23606.64
498.67	23857.08
498.85	23894.53
499.03	24130.92
499.20	24112.20
499.38	23971.77
499.56	23913.25
499.73	24603.71
499.91	24655.20
500.08	24444.56
500.26	24453.92
500.44	24779.25
500.61	24872.87
500.79	24357.96
500.97	24996.92
501.14	25291.83
501.32	25268.42
501.49	25135.01
501.67	24910.32
501.84	25275.45
502.02	25263.74
502.20	25759.94
502.37	25991.65
502.55	25912.07
502.72	25893.35
502.90	25895.69
503.07	25626.53
503.25	25830.15
503.43	25736.53
503.60	26214.00
503.78	26354.43
503.95	26471.46
504.13	26438.69
504.30	26459.76
504.48	26731.26
504.65	26815.52
504.83	27056.59
505.01	27019.14
505.18	26754.66
505.36	27300.01
505.53	27080.00
505.71	27307.03
505.88	27627.68
506.06	27136.17
506.23	27330.44
506.41	27330.44
506.58	27531.72
506.76	27578.53
506.93	27924.93
507.11	27615.98
507.28	27747.05
507.46	27763.43
507.63	27627.68
507.81	27761.09
507.98	28072.39
508.16	28006.85
508.33	28547.51
508.50	28599.01
508.68	28884.55
508.85	28769.86
509.03	28582.62
509.20	28889.23
509.38	29074.13
509.55	28858.81
509.73	29120.95
509.90	28912.64
510.08	29273.08
510.25	29160.73
510.42	29436.92
510.60	29570.33
510.77	29287.12
510.95	29738.85
511.12	29748.21
511.30	29565.65
511.47	29991.62
511.64	30015.03
511.82	30057.16
511.99	29647.57
512.17	30132.06
512.34	29965.88
512.51	30206.95
512.69	30515.90
512.86	30249.08
513.04	30714.85
513.21	30623.57
513.38	30806.13
513.56	30719.53
513.73	30698.47
513.90	30724.21
514.08	30955.93
514.25	30941.88
514.43	30806.13
514.60	31122.10
514.77	31012.10
514.95	31005.08
515.12	31147.85
515.29	31267.22
515.47	31857.03
515.64	31747.03
515.81	31417.01
515.99	31363.18
516.16	31634.68
516.33	31676.81
516.51	31431.05
516.68	31601.91
516.85	31850.01
517.03	31828.95
517.20	31969.38
517.37	31910.86
517.54	32292.37
517.72	32432.80
517.89	32268.97
518.06	31929.59
518.24	32191.73
518.41	32203.43
518.58	32589.62
518.75	31985.76
518.93	32353.23
519.10	33027.30
519.27	33083.47
519.45	32671.54
519.62	33046.02
519.79	33113.90
519.96	33214.54
520.14	33331.57
520.31	33277.74
520.48	33347.95
520.65	33078.79
520.83	33486.04
521.00	33715.42
521.17	33544.56
521.34	33645.20
521.52	34012.66
521.69	33610.09
521.86	33993.94
522.03	34075.86
522.20	34015.01
522.38	34171.82
522.55	34162.46
522.72	34237.36
522.89	34422.26
523.07	34522.90
523.24	34375.45
523.41	34653.97
523.58	34550.99
523.75	35278.89
523.92	34883.34
524.10	34696.10
524.27	34682.06
524.44	35037.82
524.61	35105.70
524.78	34766.32
524.96	34850.58
525.13	35470.82
525.30	35440.39
525.47	35515.29
525.64	35468.48
525.81	35328.05
525.98	35318.68
526.16	35016.75
526.33	35161.87
526.50	35459.12
526.67	35381.88
526.84	35264.85
527.01	35487.20
527.18	35655.72
527.36	36226.81
527.53	36189.36
527.70	36383.63
527.87	36456.18
528.04	36210.43
528.21	36690.24
528.38	36479.59
528.55	36402.35
528.72	36818.97
528.89	36723.01
529.07	36416.40
529.24	36074.68
529.41	36378.95
529.58	36636.41
529.75	36362.56
529.92	37132.60
530.09	36692.58
530.26	36844.71
530.43	37326.86
530.60	36708.96
530.77	36767.48
530.94	37137.28
531.11	37130.26
531.28	36884.50
531.46	37226.22
531.63	37287.07
531.80	37359.63
531.97	36704.28
532.14	37165.37
532.31	36982.80
532.48	37223.88
532.65	37305.80
532.82	37289.42
532.99	37752.84
533.16	37148.98
533.33	37539.85
533.50	37745.82
533.67	37708.37
533.84	37677.94
534.01	37783.27
534.18	37457.93
534.35	38061.79
534.52	37930.72
534.69	37706.03
534.86	38227.97
535.03	38576.71
535.20	38253.72
535.37	38445.64
535.54	38745.23
535.71	38206.90
535.88	38307.55
536.05	38281.80
536.22	38345.00
536.38	38536.92
536.55	38115.62
536.72	38698.42
536.89	38333.29
537.06	38670.33
537.23	38993.32
537.40	38359.04
537.57	38499.47
537.74	38639.90
537.91	38993.32
538.08	38958.22
538.25	38667.99
538.42	38813.10
538.59	39262.49
538.75	38742.89
538.92	38995.67
539.09	39276.53
539.26	38976.94
539.43	39227.38
539.60	39196.95
539.77	38866.94
539.94	39093.97
540.11	39161.84
540.28	39077.58
540.44	39545.69
540.61	39480.16
540.78	39470.79
540.95	39452.07
541.12	39232.06
541.29	39199.29
541.46	39449.73
541.62	39662.72
541.79	40032.52
541.96	39641.65
542.13	39796.13
542.30	39456.75
542.47	40196.36
542.63	40055.93
542.80	40182.32
542.97	40809.58
543.14	40788.52
543.31	40133.17
543.48	40636.38
543.64	40924.27
543.81	40851.71
543.98	40519.35
544.15	40376.58
544.32	40755.75
544.48	40896.18
544.65	40931.29
544.82	41146.62
544.99	40648.08
545.16	40830.65
545.32	40652.76
545.49	40802.56
545.66	41326.84
545.83	41165.34
546.00	41029.59
546.16	40795.54
546.33	40999.16
546.50	40699.58
546.67	41284.71
546.83	40470.20
547.00	41214.49
547.17	41053.00
547.34	41144.28
547.50	41797.29
547.67	41347.90
547.84	41577.28
548.00	41635.79
548.17	41645.15
548.34	41659.20
548.51	41771.54
548.67	42092.19
548.84	41701.32
549.01	41464.93
549.18	41876.86
549.34	41579.62
549.51	41991.55
549.68	41872.18
549.84	41928.36
550.01	42382.42
550.18	42274.76
550.34	42162.41
550.51	41701.32
550.68	41900.27
550.84	41436.84
551.01	41965.81
551.18	42375.40
551.34	41909.63
551.51	42314.55
551.68	42309.86
551.84	42054.75
552.01	42241.99
552.18	41984.53
552.34	41825.37
552.51	42557.96
552.68	42445.62
552.84	42815.42
553.01	42878.61
553.18	42220.92
553.34	42658.60
553.51	42485.40
553.67	42684.35
553.84	42796.70
554.01	42967.55
554.17	42813.08
554.34	42913.72
554.51	42941.81
554.67	42635.20
554.84	42698.39
555.00	42579.03
555.17	42504.13
555.33	42792.01
555.50	42733.50
555.67	42864.57
555.83	43189.91
556.00	43040.11
556.16	42920.74
556.33	43236.72
556.50	43140.75
556.66	43185.22
556.83	42724.14
556.99	43166.50
557.16	42899.68
557.32	43222.67
557.49	43274.16
557.65	42511.15
557.82	42969.90
557.98	42857.55
558.15	43236.72
558.32	43222.67
558.48	43208.63
558.65	43512.90
558.81	43423.96
558.98	43398.21
559.14	43166.50
559.31	42918.40
559.47	43842.92
559.64	43896.75
559.80	43871.00
559.97	43765.68
560.13	43229.69
560.30	43618.22
560.46	43632.27
560.63	43824.19
560.79	43496.52
560.96	43262.46
561.12	43454.39
561.29	43576.09
561.45	43697.80
561.61	43812.49
561.78	43819.51
561.94	43344.38
562.11	43702.48
562.27	43564.39
562.44	43559.71
562.60	43910.79
562.77	43889.73
562.93	44158.89
563.10	43959.94
563.26	43454.39
563.42	43597.16
563.59	43931.86
563.75	43761.00
563.92	44147.18
564.08	44371.88
564.24	44102.71
564.41	43913.13
564.57	43882.70
564.74	43812.49
564.90	43992.71
565.07	43655.67
565.23	44287.62
565.39	43796.10
565.56	44224.42
565.72	43927.17
565.88	44147.18
566.05	43992.71
566.21	43889.73
566.38	43803.13
566.54	43679.08
566.70	44399.96
566.87	44329.75
567.03	44151.87
567.19	44477.20
567.36	44261.87
567.52	43936.54
567.68	44233.78
567.85	44023.14
568.01	44002.07
568.17	44128.46
568.34	44086.33
568.50	44039.52
568.66	44151.87
568.83	44109.74
568.99	44037.18
569.15	44343.79
569.32	44100.37
569.48	43910.79
569.64	44278.25
569.81	44629.34
569.97	44479.54
570.13	44222.08
570.30	44034.84
570.46	44268.89
570.62	44098.03
570.78	43999.73
570.95	43871.00
571.11	44446.77
571.27	44437.41
571.43	43959.94
571.60	44306.34
571.76	44144.84
571.92	44067.61
572.09	44577.84
572.25	44268.89
572.41	44428.05
572.57	44275.91
572.74	44652.74
572.90	44493.58
573.06	44402.30
573.22	44474.86
573.38	44313.36
573.55	44348.47
573.71	44208.04
573.87	44282.94
574.03	44526.35
574.20	44421.03
574.36	44449.11
574.52	44259.53
574.68	44699.55
574.84	44673.81
575.01	44491.24
575.17	44208.04
575.33	44329.75
575.49	44376.56
575.65	44535.71
575.82	44662.10
575.98	44385.92
576.14	45209.79
576.30	45177.02
576.46	44254.85
576.62	44524.01
576.79	44130.80
576.95	44217.40
577.11	44374.22
577.27	44650.40
577.43	44971.05
577.59	44275.91
577.75	44786.15
577.92	43828.87
578.08	44247.83
578.24	43686.10
578.40	44720.62
578.56	44418.69
578.72	44521.67
578.88	44577.84
579.04	44685.51
579.21	44360.17
579.37	44154.21
579.53	44388.26
579.69	44044.20
579.85	44320.38
580.01	44437.41
580.17	44488.90
580.33	44762.75
580.49	44594.23
580.65	44570.82
580.82	44952.33
580.98	44514.65
581.14	44404.64
581.30	44985.10
581.46	44814.24
581.62	45193.40
581.78	44727.64
581.94	44650.40
582.10	44575.50
582.26	44844.66
582.42	44872.75
582.58	44772.11
582.74	44432.73
582.90	44327.41
583.06	44828.28
583.22	44725.30
583.38	44978.07
583.54	44891.48
583.70	44353.15
583.86	44683.17
584.02	44498.26
584.18	44601.25
584.34	44722.96
584.50	44919.56
584.66	43997.39
584.82	44346.13
584.98	44699.55
585.14	44720.62
585.30	44479.54
585.46	44861.05
585.62	44704.23
585.78	44964.03
585.94	44292.30
586.10	44631.68
586.26	44898.50
586.42	44828.28
586.58	45202.77
586.74	44594.23
586.90	44514.65
587.06	44708.91
587.22	44795.51
587.38	44371.88
587.54	45024.89
587.70	44966.37
587.86	44664.44
588.02	44577.84
588.18	45067.02
588.34	44825.94
588.49	44318.04
588.65	44687.85
588.81	44179.95
588.97	44409.32
589.13	44460.82
589.29	44638.70
589.45	44671.46
589.61	44982.76
589.77	44783.81
589.93	45207.45
590.08	44891.48
590.24	44978.07
590.40	44914.88
590.56	45001.48
590.72	44891.48
590.88	44692.53
591.04	44957.01
591.20	45160.64
591.35	45123.19
591.51	45193.40
591.67	44896.16
591.83	44509.97
591.99	44554.44
592.15	44685.51
592.31	45095.10
592.46	44467.84
592.62	44968.71
592.78	45331.50
592.94	44896.16
593.10	45024.89
593.26	44844.66
593.41	44870.41
593.57	45020.20
593.73	45022.54
593.89	44999.14
594.05	45172.34
594.20	45020.20
594.36	45244.90
594.52	45158.30
594.68	45284.68
594.84	45275.32
594.99	45586.61
595.15	44910.20
595.31	45366.60
595.47	45333.84
595.62	44896.16
595.78	45221.49
595.94	45017.86
596.10	45186.38
596.25	45366.60
596.41	45713.00
596.57	45329.16
596.73	45076.38
596.88	44914.88
597.04	45085.74
597.20	45092.76
597.36	44964.03
597.51	45427.46
597.67	45092.76
597.83	45366.60
597.99	45439.16
598.14	45549.17
598.30	45331.50
598.46	45338.52
598.61	45022.54
598.77	45008.50
598.93	44952.33
599.09	44903.18
599.24	45427.46
599.40	45172.34
599.56	45125.53
599.71	45043.61
599.87	45375.97
600.03	45460.23
600.18	44964.03
600.34	44912.54
600.50	45083.40
600.65	44713.59
600.81	45317.45
600.97	45647.47
601.12	45500.01
601.28	44947.65
601.44	45209.79
601.59	45469.59
601.75	44807.22
601.91	45104.46
602.06	45170.00
602.22	45172.34
602.37	44659.76
602.53	45249.58
602.69	45193.40
602.84	45202.77
603.00	45167.66
603.16	44737.00
603.31	45076.38
603.47	44818.92
603.62	45008.50
603.78	45354.90
603.94	45071.70
604.09	44678.49
604.25	45038.93
604.40	44858.71
604.56	45244.90
604.71	45226.17
604.87	44926.58
605.03	45045.95
605.18	45188.72
605.34	44924.24
605.49	44685.51
605.65	45118.51
605.80	45031.91
605.96	45120.85
606.12	44926.58
606.27	45368.94
606.43	45055.31
606.58	45116.17
606.74	44837.64
606.89	44854.03
607.05	44980.42
607.20	45184.04
607.36	45172.34
607.51	45375.97
607.67	45120.85
607.82	45076.38
607.98	44971.05
608.13	44624.65
608.29	44856.37
608.44	44437.41
608.60	44634.02
608.75	44788.49
608.91	44322.72
609.06	44701.89
609.22	44989.78
609.37	44577.84
609.53	45038.93
609.68	45043.61
609.84	44788.49
609.99	44561.46
610.15	44353.15
610.30	44257.19
610.46	44079.31
610.61	44556.78
610.76	44807.22
610.92	44563.80
611.07	44694.87
611.23	44339.11
611.38	44512.31
611.54	44168.25
611.69	44289.96
611.84	44545.08
612.00	44479.54
612.15	44673.81
612.31	44512.31
612.46	44584.86
612.62	44535.71
612.77	44402.30
612.92	44528.69
613.08	44353.15
613.23	44304.00
613.39	43882.70
613.54	44011.43
613.69	44006.75
613.85	44086.33
614.00	43981.01
614.15	44514.65
614.31	44329.75
614.46	44500.61
614.62	44194.00
614.77	44414.01
614.92	43948.24
615.08	44259.53
615.23	44245.49
615.38	43742.27
615.54	44083.99
615.69	44109.74
615.84	43423.96
616.00	43938.88
616.15	43653.33
616.30	44334.43
616.46	43700.14
616.61	43386.51
616.76	43959.94
616.92	44027.82
617.07	43709.50
617.22	43351.40
617.37	43412.26
617.53	43496.52
617.68	43842.92
617.83	43669.72
617.99	44095.69
618.14	43950.58
618.29	43732.91
618.45	43503.54
618.60	43344.38
618.75	43700.14
618.90	43452.05
619.06	43812.49
619.21	43590.14
619.36	43627.59
619.51	43737.59
619.67	43768.02
619.82	43533.96
619.97	43835.89
620.12	43182.88
620.28	43016.71
620.43	43051.81
620.58	43166.50
620.73	43189.91
620.89	43304.59
621.04	43569.07
621.19	43442.68
621.34	42988.62
621.49	42930.11
621.65	42834.14
621.80	43622.90
621.95	43026.07
622.10	42693.71
622.25	43189.91
622.41	43100.97
622.56	42864.57
622.71	43164.16
622.86	43189.91
623.01	42600.09
623.16	42834.14
623.32	43000.32
623.47	43030.75
623.62	42965.21
623.77	42969.90
623.92	42927.77
624.07	42600.09
624.23	42260.71
624.38	42171.77
624.53	42464.34
624.68	42831.80
624.83	42443.27
624.98	42405.83
625.13	42457.32
625.29	42522.85
625.44	42740.52
625.59	42487.74
625.74	42288.80
625.89	42272.42
626.04	42408.17
626.19	42745.20
626.34	42649.24
626.49	42499.45
626.65	42768.61
626.80	42457.32
626.95	42258.37
627.10	42122.62
627.25	41841.76
627.40	41731.75
627.55	42106.24
627.70	41359.61
627.85	41879.21
628.00	41626.43
628.15	42202.20
628.30	41804.31
628.45	41933.04
628.60	41708.35
628.76	41970.49
628.91	42394.12
629.06	42141.35
629.21	41701.32
629.36	41687.28
629.51	41696.64
629.66	41605.36
629.81	41563.23
629.96	41907.29
630.11	42033.68
630.26	41841.76
630.41	41757.50
630.56	41558.55
630.71	41806.65
630.86	41528.13
631.01	41214.49
631.16	41902.61
631.31	41326.84
631.46	40713.62
631.61	41277.69
631.76	41422.80
631.91	41785.58
632.06	41706.01
632.21	40961.72
632.36	41432.16
632.51	41118.53
632.66	41045.97
632.81	40802.56
632.96	41425.14
633.10	40870.43
633.25	40617.66
633.40	40844.69
633.55	41031.93
633.70	40954.69
633.85	41165.34
634.00	40903.20
634.15	41060.02
634.30	41134.92
634.45	41008.53
634.60	40971.08
634.75	40802.56
634.90	40708.94
635.05	40704.26
635.19	40917.25
635.34	41127.89
635.49	41113.85
635.64	40542.76
635.79	40320.41
635.94	40254.87
636.09	40432.75
636.24	40463.18
636.39	40376.58
636.53	40446.80
636.68	40528.72
636.83	40109.76
636.98	40493.61
637.13	40348.50
637.28	40514.67
637.43	40596.59
637.57	40388.28
637.72	40308.71
637.87	40580.21
638.02	40430.41
638.17	40437.44
638.32	40137.85
638.46	40261.90
638.61	40121.46
638.76	40074.65
638.91	39995.07
639.06	40189.34
639.20	40240.83
639.35	40289.98
639.50	40084.01
639.65	40325.09
639.80	39985.71
639.94	40126.14
640.09	40055.93
640.24	39786.77
640.39	39278.87
640.54	39459.09
640.68	39620.59
640.83	39894.43
640.98	39391.22
641.13	39922.52
641.27	40477.22
641.42	39505.90
641.57	39313.98
641.72	39845.28
641.86	39763.36
642.01	39370.15
642.16	39704.85
642.31	39164.18
642.45	40041.88
642.60	39115.03
642.75	39129.08
642.90	38967.58
643.04	39201.63
643.19	39215.68
643.34	39145.46
643.48	39339.72
643.63	39519.95
643.78	39433.35
643.93	39110.35
644.07	39082.27
644.22	39386.54
644.37	38614.16
644.51	39068.22
644.66	39103.33
644.81	39328.02
644.95	39360.79
645.10	39267.17
645.25	38960.56
645.39	39058.86
645.54	39110.35
645.69	39119.71
645.83	39185.25
645.98	38974.60
646.13	38710.12
646.27	39225.04
646.42	39278.87
646.57	38923.11
646.71	38944.17
646.86	39150.14
647.00	38555.64
647.15	39210.99
647.30	38796.72
647.44	38740.55
647.59	38422.23
647.74	38588.41
647.88	38609.48
648.03	38513.52
648.17	38569.69
648.32	38796.72
648.47	38787.36
648.61	38321.59
648.76	38520.54
648.90	38064.13
649.05	38389.47
649.20	38546.28
649.34	38513.52
649.49	38206.90
649.63	38155.41
649.78	38026.68
649.92	37989.24
650.07	38162.43
650.21	38115.62
650.36	38113.28
650.51	38157.75
650.65	38667.99
650.80	38471.39
650.94	38756.93
651.09	38265.42
651.23	37846.46
651.38	38328.61
651.52	38403.51
651.67	37989.24
651.81	37991.58
651.96	37972.85
652.10	37947.11
652.25	37626.45
652.39	37780.93
652.54	37872.21
652.68	38073.49
652.83	38220.95
652.97	38122.65
653.12	37738.80
653.26	37706.03
653.41	38160.09
653.55	37542.19
653.70	37427.51
653.84	37734.12
653.99	37731.78
654.13	37249.63
654.27	37481.34
654.42	37640.50
654.56	37406.44
654.71	37544.53
654.85	37535.17
655.00	37741.14
655.14	37221.54
655.29	37022.59
655.43	37453.25
655.57	37137.28
655.72	37092.81
655.86	37301.12
656.01	37237.92
656.15	36947.70
656.30	37017.91
656.44	37071.75
656.58	37221.54
656.73	36921.95
656.87	36554.49
657.01	36727.69
657.16	36540.44
657.30	36800.24
657.45	36655.13
657.59	36781.52
657.73	37031.96
657.88	36875.14
658.02	36491.29
658.16	36704.28
658.31	36643.43
658.45	36811.95
658.60	36676.19
658.74	36769.82
658.88	36198.73
659.03	36524.06
659.17	36524.06
659.31	36519.38
659.46	36367.24
659.60	36856.42
659.74	36357.88
659.89	36126.17
660.03	36032.55
660.17	36526.40
660.32	36053.61
660.46	36547.47
660.60	36355.54
660.74	36381.29
660.89	36313.41
661.03	35871.05
661.17	35676.79
661.32	35913.18
661.46	35697.85
661.60	35702.53
661.74	35562.10
661.89	35585.50
662.03	35739.98
662.17	35782.11
662.31	35335.07
662.46	35857.01
662.60	35962.33
662.74	35496.56
662.88	35445.07
663.03	35426.35
663.17	35187.61
663.31	35262.51
663.45	35126.76
663.60	35171.23
663.74	35108.04
663.88	34841.21
664.02	34890.37
664.17	34888.03
664.31	34824.83
664.45	34429.28
664.59	34934.84
664.73	34768.66
664.88	34766.32
665.02	34487.79
665.16	34679.72
665.30	34707.80
665.44	34354.38
665.59	34197.57
665.73	34345.02
665.87	33977.56
666.01	34176.50
666.15	34218.63
666.29	34316.93
666.44	34387.15
666.58	34218.63
666.72	34141.39
666.86	34326.30
667.00	34213.95
667.14	34087.56
667.28	33972.88
667.43	33755.21
667.57	33743.50
667.71	33600.73
667.85	33504.77
667.99	33626.48
668.13	33216.88
668.27	33460.30
668.41	33729.46
668.56	33514.13
668.70	33371.36
668.84	33638.18
668.98	32868.14
669.12	33095.18
669.26	33141.99
669.40	32877.51
669.54	33174.75
669.68	32879.85
669.82	33404.13
669.96	32804.95
670.10	32608.34
670.25	32781.54
670.39	32926.66
670.53	32533.45
670.67	32011.51
670.81	33130.28
670.95	32650.47
671.09	32563.87
671.23	32507.70
671.37	32510.04
671.51	32498.34
671.65	32212.79
671.79	31887.46
671.93	31868.73
672.07	32371.95
672.21	32367.27
672.35	31742.35
672.49	31906.18
672.63	32025.55
672.77	32004.49
672.91	31960.02
673.05	31669.79
673.19	31594.89
673.33	31393.61
673.47	31330.41
673.61	31166.57
673.75	31103.38
673.89	30911.46
674.03	30855.28
674.17	30906.77
674.31	30911.46
674.45	31087.00
674.59	31297.64
674.73	31304.67
674.87	31002.74
675.01	30930.18
675.15	30752.30
675.29	30668.04
675.43	30871.67
675.56	30384.83
675.70	30508.88
675.84	30333.34
675.98	29476.71
676.12	29975.24
676.26	29907.37
676.40	29937.79
676.54	29912.05
676.68	29820.77
676.82	29570.33
676.96	29502.45
677.10	29221.59
677.23	29575.01
677.37	29401.81
677.51	28950.09
677.65	29207.55
677.79	28629.43
677.93	29172.44
678.07	29130.31
678.21	28676.24
678.34	28713.69
678.48	28243.24
678.62	28643.48
678.76	28659.86
678.90	28409.42
679.04	28669.22
679.18	28479.64
679.31	28332.18
679.45	27978.76
679.59	27587.89
679.73	28023.23
679.87	27941.32
680.00	27821.95
680.14	27964.72
680.28	27686.20
680.42	27278.94
680.56	27349.16
680.70	26969.99
680.83	27384.27
680.97	26881.05
681.11	27288.31
681.25	27005.10
681.39	26836.58
681.52	26920.84
681.66	26810.84
681.80	26780.41
681.94	26698.49
682.07	26562.74
682.21	26316.98
682.35	26106.34
682.49	26520.61
682.62	26232.72
682.76	25963.56
682.90	26017.40
683.04	25813.77
683.17	25926.11
683.31	25937.82
683.45	25930.80
683.59	25317.57
683.72	25371.41
683.86	24954.79
684.00	25413.54
684.13	25319.92
684.27	25450.99
684.41	25001.60
684.55	24634.14
684.68	24505.41
684.82	24716.06
684.96	24912.66
685.09	24760.53
685.23	24538.18
685.37	24809.68
685.50	24690.31
685.64	24290.08
685.78	24297.10
685.91	24379.02
686.05	24306.46
686.19	24023.26
686.32	24049.00
686.46	23782.18
686.60	23267.27
686.73	23534.09
686.87	23103.43
687.01	23220.45
687.14	23180.67
687.28	23197.05
687.42	23213.43
687.55	23054.28
687.69	23087.04
687.82	22618.94
687.96	23005.13
688.10	22733.62
688.23	22499.57
688.37	22291.26
688.50	22335.73
688.64	22291.26
688.78	22361.48
688.91	22125.08
689.05	21884.01
689.18	22080.61
689.32	21783.37
689.46	21788.05
689.59	22052.53
689.73	21876.99
689.86	21776.34
690.00	21584.42
690.13	21659.32
690.27	21371.43
690.41	21563.36
690.54	21268.45
690.68	21071.84
690.81	21479.10
690.95	21076.52
691.08	20968.86
691.22	20819.07
691.35	20819.07
691.49	21172.49
691.62	20643.52
691.76	20893.96
691.89	20720.76
692.03	20402.45
692.16	20191.80
692.30	20449.26
692.43	20369.68
692.57	20247.97
692.70	20060.73
692.84	19988.18
692.97	19688.59
693.11	19594.96
693.24	19618.37
693.38	19697.95
693.51	19304.74
693.65	19679.22
693.78	19424.11
693.92	19484.96
694.05	19487.30
694.19	19110.47
694.32	19112.81
694.45	19211.12
694.59	19386.66
694.72	18988.77
694.86	18874.08
694.99	18607.26
695.13	18544.06
695.26	18546.40
695.39	18443.42
695.53	18661.09
695.66	18513.64
695.80	18459.81
695.93	17989.36
696.07	18139.15
696.20	18302.99
696.33	18029.15
696.47	18183.62
696.60	18207.03
696.73	17598.49
696.87	17923.82
697.00	17673.39
697.14	17652.32
697.27	17668.70
697.40	17736.58
697.54	17319.96
697.67	17177.19
697.80	16973.56
697.94	17167.83
698.07	16917.39
698.21	17097.61
698.34	17036.76
698.47	17081.23
698.61	16570.99
698.74	16762.92
698.87	16629.51
699.01	16446.94
699.14	16322.90
699.27	16477.37
699.40	16460.99
699.54	15981.18
699.67	16042.03
699.80	15988.20
699.94	15910.96
700.07	15697.97
700.20	15726.06
700.34	15646.48
700.47	16006.92
700.60	15887.56
700.73	15707.34
700.87	15744.78
701.00	15681.59
701.13	15400.72
701.26	15234.55
701.40	15555.20
701.53	15192.42
701.66	15398.38
701.79	15091.77
701.93	14890.49
702.06	14691.54
702.19	14801.55
702.32	14869.42
702.46	14764.10
702.59	14558.13
702.72	14913.89
702.85	14590.90
702.99	14773.46
703.12	14576.86
703.25	14642.39
703.38	14286.63
703.51	14377.91
703.65	14377.91
703.78	14176.62
703.91	14211.73
704.04	14017.47
704.17	13895.76
704.31	13905.12
704.44	13848.95
704.57	13556.38
704.70	13579.79
704.83	13619.58
704.96	13671.07
705.10	13680.43
705.23	13542.34
>>>>>End Processed Spectral Data<<<<<
