SpectraSuite Data File
++++++++++++++++++++++++++++++++++++
Date: Fri Oct 25 11:22:59 EDT 2013
User: price-jones
Dark Spectrum Present: No
Reference Spectrum Present: No
Number of Sampled Component Spectra: 1
Spectrometers: USB2+H05261
Integration Time (usec): 100000 (USB2+H05261)
Spectra Averaged: 1 (USB2+H05261)
Boxcar Smoothing: 0 (USB2+H05261)
Correct for Electrical Dark: No (USB2+H05261)
Strobe/Lamp Enabled: No (USB2+H05261)
Correct for Detector Non-linearity: No (USB2+H05261)
Correct for Stray Light: No (USB2+H05261)
Number of Pixels in Processed Spectrum: 2048
>>>>>Begin Processed Spectral Data<<<<<
365.73	252.78
365.92	252.78
366.12	252.78
366.32	173.20
366.52	102.98
366.72	175.54
366.91	77.24
367.11	74.90
367.31	84.26
367.51	81.92
367.70	131.07
367.90	95.96
368.10	117.03
368.30	114.69
368.49	100.64
368.69	203.63
368.89	184.90
369.09	198.95
369.28	149.79
369.48	250.44
369.68	168.52
369.87	163.84
370.07	168.52
370.27	243.42
370.47	313.63
370.66	648.33
370.86	547.69
371.06	671.73
371.25	734.93
371.45	713.86
371.65	613.22
371.84	685.78
372.04	634.29
372.24	732.59
372.44	734.93
372.63	706.84
372.83	723.23
373.03	765.36
373.22	795.78
373.42	765.36
373.62	770.04
373.81	711.52
374.01	819.19
374.21	823.87
374.40	788.76
374.60	786.42
374.79	866.00
374.99	835.57
375.19	844.93
375.38	898.77
375.58	887.06
375.78	819.19
375.97	868.34
376.17	910.47
376.37	840.25
376.56	849.61
376.76	873.02
376.95	891.74
377.15	835.57
377.35	844.93
377.54	980.68
377.74	898.77
377.93	910.47
378.13	814.51
378.33	971.32
378.52	1018.13
378.72	894.08
378.91	936.21
379.11	926.85
379.31	950.26
379.50	887.06
379.70	940.90
379.89	1034.52
380.09	1001.75
380.28	990.05
380.48	1036.86
380.68	997.07
380.87	1008.77
381.07	999.41
381.26	959.62
381.46	1015.79
381.65	1029.84
381.85	990.05
382.04	966.64
382.24	1086.01
382.43	1064.94
382.63	1116.44
382.83	1043.88
383.02	1221.76
383.22	1114.10
383.41	1109.41
383.61	1137.50
383.80	1114.10
384.00	1064.94
384.19	1069.62
384.39	1128.14
384.58	1142.18
384.78	1198.35
384.97	1235.80
385.17	1193.67
385.36	1158.57
385.56	1233.46
385.75	1226.44
385.95	1219.42
386.14	1324.74
386.34	1247.51
386.53	1228.78
386.72	1245.16
386.92	1167.93
387.11	1207.72
387.31	1200.69
387.50	1151.54
387.70	1306.02
387.89	1277.93
388.09	1277.93
388.28	1299.00
388.48	1320.06
388.67	1359.85
388.86	1315.38
389.06	1273.25
389.25	1371.55
389.45	1394.96
389.64	1348.15
389.84	1338.79
390.03	1406.66
390.22	1380.92
390.42	1373.89
390.61	1409.00
390.81	1469.86
391.00	1425.39
391.19	1413.68
391.39	1376.24
391.58	1437.09
391.78	1418.36
391.97	1521.35
392.16	1401.98
392.36	1652.42
392.55	1549.43
392.75	1558.80
392.94	1486.24
393.13	1614.97
393.33	1511.99
393.52	1570.50
393.71	1633.69
393.91	1643.06
394.10	1507.30
394.29	1629.01
394.49	1598.59
394.68	1727.32
394.88	1657.10
395.07	1746.04
395.26	1659.44
395.46	1584.54
395.65	1673.48
395.84	1762.42
396.04	1811.57
396.23	1743.70
396.42	1736.68
396.62	1734.34
396.81	1856.04
397.00	1834.98
397.19	1844.34
397.39	1837.32
397.58	1774.13
397.77	1856.04
397.97	1783.49
398.16	1921.58
398.35	1989.46
398.55	1874.77
398.74	1902.86
398.93	1879.45
399.12	1860.73
399.32	1827.96
399.51	1996.48
399.70	2029.24
399.90	1944.99
400.09	2029.24
400.28	2094.78
400.47	2026.90
400.67	2022.22
400.86	2211.81
401.05	2120.53
401.24	2064.35
401.44	2122.87
401.63	2083.08
401.82	2174.36
402.01	2090.10
402.21	2120.53
402.40	2122.87
402.59	2162.66
402.78	2188.40
402.97	2275.00
403.17	2235.21
403.36	2244.57
403.55	2380.32
403.74	2527.78
403.93	2342.88
404.13	2298.41
404.32	2326.49
404.51	2448.20
404.70	2401.39
404.89	2394.37
405.09	2382.67
405.28	2523.10
405.47	2520.76
405.66	2551.18
405.85	2511.39
406.05	2476.29
406.24	2527.78
406.43	2555.86
406.62	2605.02
406.81	2724.38
407.00	2656.51
407.20	2616.72
407.39	2523.10
407.58	2801.62
407.77	2899.92
407.96	2761.83
408.15	2724.38
408.34	2843.75
408.54	2813.32
408.73	2808.64
408.92	2761.83
409.11	2895.24
409.30	2892.90
409.49	2888.22
409.68	3021.63
409.87	2888.22
410.07	3059.08
410.26	3035.67
410.45	3002.91
410.64	3166.74
410.83	3103.55
411.02	3087.17
411.21	3187.81
411.40	3246.32
411.59	3262.71
411.78	3246.32
411.98	3318.88
412.17	3382.07
412.36	3419.52
412.55	3375.05
412.74	3456.97
412.93	3412.50
413.12	3506.12
413.31	3681.66
413.50	3428.88
413.69	3578.68
413.88	3737.84
414.07	3606.77
414.26	3564.64
414.45	3765.92
414.64	3667.62
414.83	3885.29
415.02	3777.62
415.22	3794.01
415.41	3749.54
415.60	3955.51
415.79	4035.08
415.98	4030.40
416.17	4035.08
416.36	3969.55
416.55	4102.96
416.74	4084.23
416.93	4168.49
417.12	4222.33
417.31	4009.34
417.50	4191.90
417.69	4332.33
417.88	4346.37
418.07	4276.16
418.26	4308.93
418.45	4390.84
418.64	4510.21
418.83	4428.29
419.02	4456.38
419.21	4645.96
419.39	4552.34
419.58	4458.72
419.77	4526.60
419.96	4657.67
420.15	4751.29
420.34	4587.45
420.53	4643.62
420.72	4664.69
420.91	4627.24
421.10	4767.67
421.29	4849.59
421.48	4695.11
421.67	4795.76
421.86	4814.48
422.05	4940.87
422.24	4919.81
422.43	4980.66
422.61	4973.64
422.80	4898.74
422.99	5008.75
423.18	5043.85
423.37	5078.96
423.56	4959.60
423.75	4873.00
423.94	4847.25
424.13	4674.05
424.32	4744.27
424.50	4999.38
424.69	5104.71
424.88	5095.35
425.07	5029.81
425.26	4919.81
425.45	5088.32
425.64	5095.35
425.83	4992.36
426.01	5128.11
426.20	5137.48
426.39	4931.51
426.58	5149.18
426.77	5156.20
426.96	5200.67
427.15	5231.10
427.33	5200.67
427.52	5132.79
427.71	5167.90
427.90	5376.21
428.09	5252.16
428.28	5298.97
428.46	5298.97
428.65	5259.18
428.84	5640.69
429.03	5612.60
429.22	5514.30
429.40	5568.13
429.59	5605.58
429.78	5259.18
429.97	5217.05
430.16	5591.54
430.34	5703.89
430.53	5640.69
430.72	5600.90
430.91	5603.24
431.10	5692.18
431.28	5785.80
431.47	5781.12
431.66	5827.93
431.85	5877.09
432.03	6012.84
432.22	5996.45
432.41	5923.90
432.60	5944.96
432.79	5951.98
432.97	5977.73
433.16	6148.59
433.35	5998.79
433.54	6132.20
433.72	6122.84
433.91	6253.91
434.10	6101.78
434.28	6305.40
434.47	6207.10
434.66	6389.66
434.85	6399.02
435.03	6338.17
435.22	6251.57
435.41	6450.52
435.59	6469.24
435.78	6429.45
435.97	6448.18
436.16	6434.13
436.34	6525.41
436.53	6476.26
436.72	6658.82
436.90	6499.67
437.09	6829.68
437.28	6654.14
437.46	6654.14
437.65	6640.10
437.84	6785.21
438.02	6764.15
438.21	7023.95
438.40	6827.34
438.58	7112.89
438.77	7012.24
438.96	7171.40
439.14	7248.64
439.33	7281.41
439.52	7103.53
439.70	7208.85
439.89	7438.22
440.08	7557.59
440.26	7478.01
440.45	7318.86
440.63	7410.14
440.82	7812.71
441.01	7679.30
441.19	7646.53
441.38	7843.14
441.57	7669.94
441.75	7758.88
441.94	8095.91
442.12	8182.51
442.31	8058.46
442.50	8353.37
442.68	8194.22
442.87	8004.63
443.05	8091.23
443.24	8236.35
443.43	8170.81
443.61	8238.69
443.80	8489.12
443.98	8203.58
444.17	7864.20
444.35	8334.65
444.54	8430.61
444.73	8287.84
444.91	8365.07
445.10	8437.63
445.28	8498.49
445.47	8355.71
445.65	8175.49
445.84	8636.58
446.02	8578.06
446.21	8376.78
446.39	8669.34
446.58	8514.87
446.77	8517.21
446.95	8170.81
447.14	8456.36
447.32	8683.39
447.51	8559.34
447.69	8519.55
447.88	8498.49
448.06	8730.20
448.25	8676.37
448.43	8603.81
448.62	8627.21
448.80	8734.88
448.99	8676.37
449.17	8926.80
449.36	8896.38
449.54	8968.93
449.73	9027.45
449.91	8917.44
450.10	9153.84
450.28	9022.77
450.46	9217.03
450.65	9195.96
450.83	9097.66
451.02	9193.62
451.20	9158.52
451.39	9132.77
451.57	9303.63
451.76	9090.64
451.94	9235.75
452.13	9518.96
452.31	9483.85
452.49	9128.09
452.68	9427.68
452.86	9462.79
453.05	9603.22
453.23	9628.96
453.42	9486.19
453.60	9350.44
453.78	9514.28
453.97	9540.02
454.15	9727.27
454.34	9509.60
454.52	9792.80
454.70	9701.52
454.89	9715.56
455.07	9926.21
455.26	9832.59
455.44	9884.08
455.62	10167.29
455.81	10132.18
455.99	10094.73
456.17	10066.64
456.36	10176.65
456.54	10370.91
456.73	10340.49
456.91	10581.56
457.09	10483.26
457.28	10630.71
457.46	10553.48
457.64	10677.52
457.83	10700.93
458.01	10431.77
458.19	10754.76
458.38	10532.41
458.56	10705.61
458.74	10958.39
458.93	10965.41
459.11	10806.25
459.29	10839.02
459.48	10766.46
459.66	10932.64
459.84	11066.05
460.03	11176.06
460.21	11009.88
460.39	11330.53
460.57	11070.73
460.76	11239.25
460.94	11316.49
461.12	11215.85
461.31	11227.55
461.49	11192.44
461.67	11314.15
461.85	11580.97
462.04	11496.71
462.22	11513.10
462.40	11627.78
462.59	11693.32
462.77	11576.29
462.95	11740.13
463.13	11644.17
463.32	11662.89
463.50	11875.88
463.68	11927.37
463.86	11992.90
464.05	11651.19
464.23	11777.58
464.41	11999.93
464.59	11868.86
464.78	12315.90
464.96	12023.33
465.14	11948.43
465.32	12212.92
465.50	12177.81
465.69	12358.03
465.87	12051.42
466.05	12283.13
466.23	12252.70
466.41	12318.24
466.60	12746.56
466.78	12287.81
466.96	12201.21
467.14	12432.93
467.32	12582.72
467.51	12683.36
467.69	12278.45
467.87	12512.50
468.05	12617.83
468.23	12496.12
468.41	12416.54
468.60	12854.22
468.78	12830.82
468.96	12748.90
469.14	13111.68
469.32	13022.74
469.50	12835.50
469.69	13198.28
469.87	13268.50
470.05	13275.52
470.23	13429.99
470.41	13427.65
470.59	13242.75
470.77	13308.29
470.95	13493.19
471.14	13685.11
471.32	13294.24
471.50	13448.72
471.68	13640.64
471.86	13991.72
472.04	13544.68
472.22	14033.85
472.40	13841.93
472.58	13975.34
472.77	14202.37
472.95	14403.66
473.13	14768.78
473.31	14235.14
473.49	14171.94
473.67	14083.00
473.85	14483.24
474.03	14927.94
474.21	14520.68
474.39	14904.53
474.57	14787.50
474.75	15005.17
474.93	15208.80
475.12	15262.63
475.30	15272.00
475.48	15026.24
475.66	15370.30
475.84	15503.71
476.02	15758.83
476.20	15768.19
476.38	15768.19
476.56	16245.66
476.74	16053.73
476.92	15889.90
477.10	15913.30
477.28	16271.40
477.46	16243.32
477.64	16552.27
477.82	16470.35
478.00	16919.73
478.18	16760.58
478.36	16957.18
478.54	16989.95
478.72	17177.19
478.90	17469.76
479.08	17422.95
479.26	17980.00
479.44	17877.01
479.62	18160.22
479.80	18024.47
479.98	18410.65
480.16	18815.57
480.34	18382.57
480.52	18904.51
480.70	18867.06
480.88	18595.56
481.06	18948.98
481.24	18981.74
481.41	19711.99
481.59	19428.79
481.77	19861.79
481.95	19634.75
482.13	20034.99
482.31	19644.12
482.49	20383.73
482.67	20142.65
482.85	20692.68
483.03	20882.26
483.21	21032.05
483.39	21036.74
483.57	21074.18
483.74	21532.93
483.92	21572.72
484.10	21638.25
484.28	22249.13
484.46	22317.01
484.64	22462.12
484.82	21991.67
485.00	22434.03
485.18	23054.28
485.35	23171.30
485.53	23007.47
485.71	23192.37
485.89	23646.43
486.07	23658.14
486.25	23506.00
486.43	24030.28
486.61	24093.47
486.78	24276.04
486.96	24238.59
487.14	24980.54
487.32	24898.62
487.50	25029.69
487.68	25095.22
487.85	25343.32
488.03	25769.30
488.21	26141.44
488.39	25666.31
488.57	26312.30
488.75	26670.40
488.92	26527.63
489.10	26691.47
489.28	26735.94
489.46	27365.54
489.64	27477.89
489.81	28114.52
489.99	28060.68
490.17	28154.30
490.35	28505.38
490.53	28648.16
490.70	28741.78
490.88	28685.61
491.06	29048.39
491.24	29134.99
491.41	29280.10
491.59	29741.19
491.77	29455.64
491.95	29965.88
492.13	30089.93
492.30	30206.95
492.48	30459.73
492.66	30433.99
492.84	30618.89
493.01	30991.03
493.19	31185.30
493.37	31384.24
493.54	31452.12
493.72	32463.23
493.90	31594.89
494.08	32601.32
494.25	32713.67
494.43	32086.40
494.61	32524.08
494.79	32699.62
494.96	32844.74
495.14	32985.17
495.32	33647.54
495.49	33745.84
495.67	33422.85
495.85	33942.45
496.02	34185.86
496.20	34232.68
496.38	34078.20
496.55	34731.21
496.73	35187.61
496.91	34745.25
497.09	34815.47
497.26	35255.49
497.44	35318.68
497.62	35522.31
497.79	36158.94
497.97	35707.21
498.14	36596.62
498.32	36596.62
498.50	36699.60
498.67	37006.21
498.85	36517.04
499.03	37530.49
499.20	37195.79
499.38	37401.76
499.56	37858.17
499.73	37486.02
499.91	38139.03
500.08	37879.23
500.26	37806.67
500.44	38237.33
500.61	38099.24
500.79	38139.03
500.97	38487.77
501.14	38965.24
501.32	39049.50
501.49	38988.64
501.67	39281.21
501.84	39140.78
502.02	39416.96
502.20	39473.13
502.37	39590.16
502.55	39585.48
502.72	39805.49
502.90	39917.84
503.07	39959.97
503.25	39983.37
503.43	39995.07
503.60	40994.48
503.78	40627.02
503.95	40502.97
504.13	40706.60
504.30	40907.88
504.48	40933.63
504.65	41083.42
504.83	41251.94
505.01	41649.83
505.18	41364.29
505.36	41874.52
505.53	41729.41
505.71	41937.72
505.88	42192.84
506.06	41867.50
506.23	42401.14
506.41	42078.15
506.58	43070.54
506.76	42431.57
506.93	42852.87
507.11	42359.02
507.28	43044.79
507.46	43206.29
507.63	43349.06
507.81	43718.87
507.98	43089.26
508.16	43711.84
508.33	43543.33
508.50	43604.18
508.68	43882.70
508.85	44453.79
509.03	43913.13
509.20	44474.86
509.38	45038.93
509.55	44886.79
509.73	45188.72
509.90	45055.31
510.08	45258.94
510.25	44865.73
510.42	45088.08
510.60	45420.44
510.77	45446.18
510.95	45820.67
511.12	45401.71
511.30	45373.63
511.47	45722.37
511.64	45844.07
511.82	46300.48
511.99	46639.86
512.17	46340.27
512.34	46412.82
512.51	46831.78
512.69	46791.99
512.86	46906.68
513.04	46712.41
513.21	46789.65
513.38	47068.17
513.56	47208.61
513.73	47412.23
513.90	47440.32
514.08	47152.43
514.25	47414.57
514.43	47828.85
514.60	47718.84
514.77	47980.98
514.95	47777.36
515.12	47763.31
515.29	48016.09
515.47	48404.62
515.64	48594.20
515.81	48025.45
515.99	48748.68
516.16	48900.81
516.33	48645.69
516.51	48917.20
516.68	48837.62
516.85	48828.26
517.03	49495.31
517.20	49453.18
517.37	49202.74
517.54	49214.44
517.72	49223.81
517.89	49563.18
518.06	49612.34
518.24	49867.45
518.41	49769.15
518.58	49677.87
518.75	49764.47
518.93	49808.94
519.10	49766.81
519.27	50248.96
519.45	50054.70
519.62	50403.44
519.79	50377.69
519.96	50447.91
520.14	50553.23
520.31	50440.89
520.48	50834.10
520.65	50923.04
520.83	50953.46
521.00	51089.21
521.17	50693.66
521.34	50974.53
521.52	51093.89
521.69	51199.22
521.86	51161.77
522.03	51468.38
522.20	51594.77
522.38	51723.50
522.55	51824.14
522.72	51557.32
522.89	51629.88
523.07	51913.08
523.24	51580.73
523.41	52074.58
523.58	52016.07
523.75	52191.61
523.92	51835.84
524.10	52278.21
524.27	52381.19
524.44	52439.70
524.61	52215.01
524.78	52371.83
524.96	52713.55
525.13	52444.38
525.30	52968.66
525.47	52896.11
525.64	53064.63
525.81	52961.64
525.98	53073.99
526.16	52924.19
526.33	52856.32
526.50	53537.41
526.67	53223.78
526.84	53565.50
527.01	53216.76
527.18	53169.95
527.36	53137.18
527.53	53642.74
527.70	53567.84
527.87	53539.75
528.04	53521.03
528.21	53642.74
528.38	53624.01
528.55	53715.29
528.72	53476.56
528.89	53839.34
529.07	53614.65
529.24	53406.34
529.41	53968.07
529.58	53951.69
529.75	53961.05
529.92	53858.07
530.09	53851.05
530.26	54326.17
530.43	54190.42
530.60	54000.84
530.77	53963.39
530.94	54262.98
531.11	54248.94
531.28	54412.77
531.46	54394.05
531.63	54567.25
531.80	54248.94
531.97	54824.71
532.14	55086.85
532.31	54646.83
532.48	54644.49
532.65	55075.15
532.82	54841.09
532.99	55033.02
533.16	55079.83
533.33	54955.78
533.50	55318.56
533.67	55107.91
533.84	54918.33
534.01	55201.53
534.18	55100.89
534.35	55653.26
534.52	55253.03
534.69	55152.38
534.86	55707.09
535.03	55412.18
535.20	55468.36
535.37	55590.06
535.54	55847.52
535.71	55494.10
535.88	55676.66
536.05	55716.45
536.22	55973.91
536.38	55793.69
536.55	55894.33
536.72	55669.64
536.89	55852.20
537.06	56177.54
537.23	56002.00
537.40	56079.24
537.57	56123.71
537.74	56163.50
537.91	56093.28
538.08	56343.72
538.25	56034.77
538.42	56142.43
538.59	56542.66
538.75	56081.58
538.92	56191.58
539.09	56446.70
539.26	56392.87
539.43	56385.85
539.60	56779.06
539.77	56449.04
539.94	56739.27
540.11	56507.55
540.28	56722.88
540.44	56650.33
540.61	56863.32
540.78	56664.37
540.95	56807.14
541.12	56449.04
541.29	56610.54
541.46	56765.01
541.62	56879.70
541.79	56856.29
541.96	56750.97
542.13	56713.52
542.30	57137.16
542.47	57233.12
542.63	57228.44
542.80	57055.24
542.97	57411.00
543.14	57553.77
543.31	57396.96
543.48	57642.71
543.64	57680.16
543.81	57504.62
543.98	57642.71
544.15	57455.47
544.32	57787.83
544.48	58007.84
544.65	57698.89
544.82	57715.27
544.99	57584.20
545.16	57822.93
545.32	57801.87
545.49	57773.78
545.66	58073.37
545.83	57851.02
546.00	57989.11
546.16	57883.79
546.33	57827.62
546.50	57621.65
546.67	57998.48
546.83	57876.77
547.00	57937.62
547.17	58071.03
547.34	57895.49
547.50	58166.99
547.67	58450.20
547.84	58272.32
548.00	58361.26
548.17	58749.79
548.34	58365.94
548.51	58618.72
548.67	58522.76
548.84	58349.56
549.01	58209.12
549.18	58539.14
549.34	58459.56
549.51	58585.95
549.68	58562.54
549.84	58649.14
550.01	58557.86
550.18	58468.92
550.34	58770.85
550.51	58644.46
550.68	58705.32
550.84	58436.16
551.01	58976.82
551.18	58866.81
551.34	58972.14
551.51	59063.42
551.68	58834.05
551.84	58908.94
552.01	58667.87
552.18	59040.01
552.34	58815.32
552.51	59140.66
552.68	58885.54
552.84	58787.24
553.01	59222.58
553.18	59030.65
553.34	58993.20
553.51	58937.03
553.67	59217.89
553.84	59238.96
554.01	59344.28
554.17	59363.01
554.34	59196.83
554.51	59245.98
554.67	59388.75
554.84	59285.77
555.00	59423.86
555.17	59208.53
555.33	59121.93
555.50	59285.77
555.67	59203.85
555.83	59384.07
556.00	59363.01
556.16	59611.10
556.33	59522.16
556.50	59444.93
556.66	59655.57
556.83	59442.59
556.99	59737.49
557.16	59803.03
557.32	59592.38
557.49	59901.33
557.65	59473.01
557.82	59760.90
557.98	59529.19
558.15	59540.89
558.32	59831.11
558.48	59559.61
558.65	59800.69
558.81	59730.47
558.98	59786.64
559.14	59732.81
559.31	59821.75
559.47	59845.16
559.64	60151.77
559.80	59861.54
559.97	59863.88
560.13	59716.43
560.30	59833.46
560.46	60069.85
560.63	60025.38
560.79	60072.19
560.96	60147.09
561.12	60149.43
561.29	60086.23
561.45	60083.89
561.61	60051.12
561.78	60072.19
561.94	59936.44
562.11	60090.91
562.27	60111.98
562.44	60324.97
562.60	60315.61
562.77	60238.37
562.93	59976.23
563.10	60299.22
563.26	60046.44
563.42	60495.83
563.59	60353.05
563.75	60198.58
563.92	60107.30
564.08	60165.81
564.24	60317.95
564.41	60334.33
564.57	60383.48
564.74	60317.95
564.90	60378.80
565.07	60320.29
565.23	60376.46
565.39	60163.47
565.56	60214.96
565.72	60233.69
565.88	60530.93
566.05	60533.28
566.21	60446.68
566.38	60474.76
566.54	60537.96
566.70	60566.04
566.87	60437.31
567.03	60392.84
567.19	60540.30
567.36	60589.45
567.52	60350.71
567.68	60804.78
567.85	60566.04
568.01	60659.66
568.17	60430.29
568.34	60584.77
568.50	60594.13
568.66	60559.02
568.83	60493.49
568.99	60406.89
569.15	60537.96
569.32	60575.40
569.48	60629.24
569.64	60746.26
569.81	60467.74
569.97	60537.96
570.13	60989.68
570.30	60711.16
570.46	60669.03
570.62	60626.90
570.78	60928.83
570.95	60956.91
571.11	60853.93
571.27	60903.08
571.43	60746.26
571.60	61029.47
571.76	60739.24
571.92	60924.14
572.09	60896.06
572.25	60956.91
572.41	60924.14
572.57	60779.03
572.74	61097.34
572.90	60956.91
573.06	60905.42
573.22	60809.46
573.38	61050.53
573.55	60821.16
573.71	60903.08
573.87	60994.36
574.03	60832.86
574.20	60975.64
574.36	60889.04
574.52	61083.30
574.68	60982.66
574.84	61080.96
575.01	61085.64
575.17	60896.06
575.33	60956.91
575.49	60912.44
575.65	61141.81
575.82	60867.97
575.98	60999.04
576.14	61193.31
576.30	61080.96
576.46	60910.10
576.62	60882.02
576.79	61001.38
576.95	60863.29
577.11	61212.03
577.27	61045.85
577.43	61073.94
577.59	60807.12
577.75	61057.56
577.92	61155.86
578.08	61015.43
578.24	60949.89
578.40	61069.26
578.56	61338.42
578.72	61153.52
578.88	61151.18
579.04	61085.64
579.21	61092.66
579.37	61071.60
579.53	61144.16
579.69	60877.33
579.85	61141.81
580.01	61190.97
580.17	60982.66
580.33	61212.03
580.49	61361.82
580.65	61310.33
580.82	61102.03
580.98	60933.51
581.14	61003.72
581.30	61146.50
581.46	61130.11
581.62	61090.32
581.78	61111.39
581.94	61102.03
582.10	61045.85
582.26	61066.92
582.42	61123.09
582.58	61095.00
582.74	61069.26
582.90	61057.56
583.06	61247.14
583.22	61057.56
583.38	61169.90
583.54	61186.28
583.70	61221.39
583.86	61139.47
584.02	61167.56
584.18	61247.14
584.34	61223.73
584.50	61127.77
584.66	61073.94
584.82	61109.05
584.98	61434.38
585.14	61319.70
585.30	61085.64
585.46	61176.92
585.62	61024.79
585.78	61394.59
585.94	61183.94
586.10	61186.28
586.26	61343.10
586.42	61396.93
586.58	61455.45
586.74	61268.20
586.90	61254.16
587.06	61172.24
587.22	61293.95
587.38	61102.03
587.54	61357.14
587.70	61525.66
587.86	61298.63
588.02	61300.97
588.18	61446.08
588.34	61265.86
588.49	61197.99
588.65	61354.80
588.81	61205.01
588.97	61516.30
589.13	61366.51
589.29	61303.31
589.45	61546.73
589.61	61544.39
589.77	61586.52
589.93	61574.81
590.08	61457.79
590.24	61719.93
590.40	61759.72
590.56	61743.33
590.72	61701.20
590.88	61298.63
591.04	61506.94
591.20	61722.27
591.35	61560.77
591.51	61771.42
591.67	61579.49
591.83	61687.16
591.99	61614.60
592.15	61450.77
592.31	61481.19
592.46	61549.07
592.62	61691.84
592.78	61638.01
592.94	61769.08
593.10	61616.94
593.26	61876.74
593.41	61607.58
593.57	62007.81
593.73	61630.99
593.89	61888.45
594.05	61907.17
594.20	61652.05
594.36	61839.29
594.52	61925.89
594.68	61736.31
594.84	61516.30
594.99	61808.87
595.15	61511.62
595.31	61916.53
595.47	61710.56
595.62	61668.44
595.78	61785.46
595.94	61951.64
596.10	61911.85
596.25	61797.16
596.41	61942.28
596.57	61675.46
596.73	61956.32
596.88	61745.67
597.04	62021.86
597.20	61827.59
597.36	61705.88
597.51	62040.58
597.67	61841.63
597.83	61661.41
597.99	61872.06
598.14	61848.66
598.30	62021.86
598.46	62056.96
598.61	62078.03
598.77	61684.82
598.93	61935.26
599.09	61703.54
599.24	62117.82
599.40	62003.13
599.56	61804.19
599.71	61813.55
599.87	62199.74
600.03	61949.30
600.18	61923.55
600.34	61867.38
600.50	62120.16
600.65	61909.51
600.81	61900.15
600.97	61918.87
601.12	62005.47
601.28	61776.10
601.44	61740.99
601.59	61841.63
601.75	61886.10
601.91	61977.39
602.06	62035.90
602.22	62150.59
602.37	62078.03
602.53	61832.27
602.69	61984.41
602.84	61874.40
603.00	61853.34
603.16	62274.63
603.31	62066.33
603.47	62059.30
603.62	61932.92
603.78	62005.47
603.94	62230.16
604.09	61996.11
604.25	61949.30
604.40	61914.19
604.56	62063.99
604.71	62108.46
604.87	61893.13
605.03	62117.82
605.18	61991.43
605.34	61918.87
605.49	61827.59
605.65	62244.21
605.80	61958.66
605.96	62106.12
606.12	62164.63
606.27	62035.90
606.43	61904.83
606.58	62141.22
606.74	61813.55
606.89	61614.60
607.05	61942.28
607.20	61935.26
607.36	61836.95
607.51	61808.87
607.67	61560.77
607.82	61778.44
607.98	61904.83
608.13	61897.81
608.29	61963.34
608.44	61827.59
608.60	61815.89
608.75	61881.42
608.91	61813.55
609.06	61584.18
609.22	61958.66
609.37	61855.68
609.53	61993.77
609.68	61792.48
609.84	61815.89
609.99	61853.34
610.15	61975.05
610.30	62101.43
610.46	62143.56
610.61	61825.25
610.76	61792.48
610.92	61769.08
611.07	61815.89
611.23	61635.67
611.38	61797.16
611.54	61902.49
611.69	61619.28
611.84	61776.10
612.00	61769.08
612.15	61652.05
612.31	61722.27
612.46	61609.92
612.62	61649.71
612.77	61790.14
612.92	61752.69
613.08	61656.73
613.23	61745.67
613.39	61598.22
613.54	61497.58
613.69	61549.07
613.85	61572.47
614.00	61705.88
614.15	61918.87
614.31	61570.13
614.46	61572.47
614.62	61497.58
614.77	61649.71
614.92	61504.60
615.08	61638.01
615.23	61443.74
615.38	61762.06
615.54	61504.60
615.69	61560.77
615.84	61719.93
616.00	61581.84
616.15	61694.18
616.30	61736.31
616.46	61530.34
616.61	61476.51
616.76	61418.00
616.92	61382.89
617.07	61556.09
617.22	61497.58
617.37	61495.24
617.53	61729.29
617.68	61684.82
617.83	61570.13
617.99	61558.43
618.14	61513.96
618.29	61375.87
618.45	61261.18
618.60	61403.95
618.75	61258.84
618.90	61513.96
619.06	61574.81
619.21	61567.79
619.36	61532.68
619.51	61490.55
619.67	61307.99
619.82	61286.93
619.97	61347.78
620.12	61396.93
620.28	61305.65
620.43	61396.93
620.58	61364.17
620.73	61169.90
620.89	61226.07
621.04	61312.67
621.19	61080.96
621.34	61205.01
621.49	61176.92
621.65	61169.90
621.80	61195.65
621.95	61144.16
622.10	61001.38
622.25	61006.06
622.41	61106.71
622.56	60987.34
622.71	61249.48
622.86	60985.00
623.01	60961.59
623.16	60896.06
623.32	61146.50
623.47	61048.19
623.62	61169.90
623.77	61130.11
623.92	61045.85
624.07	61228.41
624.23	61336.08
624.38	60947.55
624.53	60853.93
624.68	60633.92
624.83	60924.14
624.98	60837.54
625.13	60992.02
625.29	60907.76
625.44	61104.37
625.59	60692.43
625.74	60633.92
625.89	60732.22
626.04	60746.26
626.19	60547.32
626.34	60832.86
626.49	60692.43
626.65	60671.37
626.80	60781.37
626.95	60676.05
627.10	60432.63
627.25	60505.19
627.40	60526.25
627.55	60626.90
627.70	60748.60
627.85	60526.25
628.00	60484.12
628.15	60528.59
628.30	60456.04
628.45	60549.66
628.60	60453.70
628.76	60542.64
628.91	60573.06
629.06	60458.38
629.21	60395.18
629.36	60512.21
629.51	60149.43
629.66	60280.50
629.81	60250.07
629.96	60074.53
630.11	60395.18
630.26	60519.23
630.41	60526.25
630.56	60135.38
630.71	60341.35
630.86	60416.25
631.01	60296.88
631.16	60383.48
631.31	60058.15
631.46	59859.20
631.61	60119.00
631.76	60097.94
631.91	60374.12
632.06	60413.91
632.21	60177.51
632.36	60144.75
632.51	60144.75
632.66	60041.76
632.81	60034.74
632.96	60313.26
633.10	59913.03
633.25	60065.17
633.40	60023.04
633.55	60114.32
633.70	60067.51
633.85	60135.38
634.00	59992.61
634.15	59966.87
634.30	59803.03
634.45	59870.90
634.60	60189.22
634.75	60137.72
634.90	59737.49
635.05	59791.33
635.19	59964.52
635.34	59898.99
635.49	59873.24
635.64	60027.72
635.79	60067.51
635.94	59999.63
636.09	59742.17
636.24	59861.54
636.39	59697.70
636.53	60034.74
636.68	59742.17
636.83	59552.59
636.98	59760.90
637.13	59746.86
637.28	59758.56
637.43	59657.91
637.57	59662.60
637.72	59709.41
637.87	59751.54
638.02	59707.07
638.17	59700.04
638.32	59583.02
638.46	59625.15
638.61	59604.08
638.76	59494.08
638.91	59145.34
639.06	59461.31
639.20	59344.28
639.35	59318.54
639.50	59119.59
639.65	59363.01
639.80	59421.52
639.94	59253.00
640.09	59393.43
640.24	59412.16
640.39	59395.77
640.54	59234.28
640.68	59398.12
640.83	59395.77
640.98	59253.00
641.13	59171.08
641.27	59664.94
641.42	59224.92
641.57	59086.82
641.72	59100.87
641.86	59070.44
642.01	59030.65
642.16	58988.52
642.31	58965.12
642.45	59388.75
642.60	59159.38
642.75	59358.33
642.90	59044.69
643.04	59264.70
643.19	59150.02
643.34	58852.77
643.48	58965.12
643.63	59210.87
643.78	58878.52
643.93	59187.47
644.07	59030.65
644.22	59103.21
644.37	58805.96
644.51	58930.01
644.66	58951.07
644.81	59145.34
644.95	58934.69
645.10	59098.53
645.25	58922.99
645.39	58719.36
645.54	58946.39
645.69	58904.26
645.83	58775.53
645.98	58618.72
646.13	58777.87
646.27	58717.02
646.42	58922.99
646.57	58721.70
646.71	58656.17
646.86	58927.67
647.00	58646.80
647.15	58651.48
647.30	58899.58
647.44	58471.26
647.59	58857.45
647.74	58836.39
647.88	58585.95
648.03	58656.17
648.17	58738.08
648.32	58543.82
648.47	58670.21
648.61	58607.01
648.76	58412.75
648.90	58347.21
649.05	58422.11
649.20	58646.80
649.34	58553.18
649.49	58358.92
649.63	58464.24
649.78	58728.72
649.92	58375.30
650.07	58597.65
650.21	58239.55
650.36	58206.78
650.51	58225.51
650.65	58712.34
650.80	58342.53
650.94	58370.62
651.09	58227.85
651.23	58071.03
651.38	58246.57
651.52	58080.39
651.67	58197.42
651.81	58218.49
651.96	57989.11
652.10	58038.26
652.25	57930.60
652.39	58134.23
652.54	57930.60
652.68	57867.40
652.83	57975.07
652.97	58288.70
653.12	57897.83
653.26	58054.65
653.41	58183.38
653.55	57867.40
653.70	58159.97
653.84	58326.15
653.99	58103.80
654.13	58021.88
654.27	57965.71
654.42	57986.77
654.56	57841.66
654.71	57895.49
654.85	58122.52
655.00	57991.45
655.14	57820.59
655.29	57586.54
655.43	57886.13
655.57	57902.51
655.72	57741.02
655.86	57923.58
656.01	57698.89
656.15	57855.70
656.30	57921.24
656.44	58047.63
656.58	57881.45
656.73	57783.15
656.87	57663.78
657.01	57530.37
657.16	57794.85
657.30	57539.73
657.45	57476.54
657.59	57462.49
657.73	57237.80
657.88	57401.64
658.02	57464.83
658.16	57392.28
658.31	57326.74
658.45	57521.01
658.60	57406.32
658.74	57485.90
658.88	57254.18
659.03	57221.42
659.17	57319.72
659.31	57237.80
659.46	57312.70
659.60	57279.93
659.74	57200.35
659.89	56989.70
660.03	57090.35
660.17	57240.14
660.32	56912.47
660.46	56975.66
660.60	56788.42
660.74	56928.85
660.89	57057.58
661.03	57029.49
661.17	56832.89
661.32	56755.65
661.46	56666.71
661.60	56652.67
661.74	56481.81
661.89	56727.56
662.03	56577.77
662.17	56720.54
662.31	56547.34
662.46	56858.63
662.60	56516.92
662.74	56427.98
662.88	56526.28
663.03	56175.20
663.17	56362.44
663.31	56348.40
663.45	56158.81
663.60	56079.24
663.74	55798.37
663.88	56088.60
664.02	56184.56
664.17	56196.26
664.31	55985.61
664.45	55866.25
664.59	55964.55
664.73	56060.51
664.88	55772.63
665.02	55480.06
665.16	55681.34
665.30	55718.79
665.44	55611.13
665.59	55501.12
665.73	55746.88
665.87	55487.08
666.01	55725.81
666.15	55608.79
666.29	55152.38
666.44	55536.23
666.58	55178.13
666.72	55103.23
666.86	55360.69
667.00	55014.29
667.14	54944.08
667.28	55126.64
667.43	54838.75
667.57	55028.34
667.71	54958.12
667.85	54937.05
667.99	54698.32
668.13	54948.76
668.27	54787.26
668.41	54780.24
668.56	54550.87
668.70	55051.74
668.84	54616.40
668.98	54344.90
669.12	54616.40
669.26	54930.03
669.40	54585.97
669.54	54574.27
669.68	54452.56
669.82	54225.53
669.96	53968.07
670.10	54225.53
670.25	54204.47
670.39	54024.25
670.53	53993.82
670.67	53935.30
670.81	54358.94
670.95	54199.79
671.09	53844.02
671.23	53954.03
671.37	53609.97
671.51	53593.59
671.65	53792.53
671.79	53778.49
671.93	53502.31
672.07	53633.38
672.21	53347.83
672.35	53326.77
672.49	53106.76
672.63	53090.37
672.77	53249.53
672.91	53158.25
673.05	52999.09
673.19	52828.23
673.33	52671.42
673.47	52706.52
673.61	52779.08
673.75	53017.82
673.89	52530.98
674.03	52479.49
674.17	52411.62
674.31	52224.37
674.45	52264.16
674.59	52170.54
674.73	52322.68
674.87	52336.72
675.01	51964.57
675.15	51576.04
675.29	51655.62
675.43	51664.99
675.56	51510.51
675.70	51744.56
675.84	51332.63
675.98	50370.67
676.12	51377.10
676.26	51554.98
676.40	51435.61
676.54	51016.66
676.68	50901.97
676.82	50248.96
676.96	50749.84
677.10	50363.65
677.23	50649.19
677.37	50272.37
677.51	50356.63
677.65	49930.65
677.79	49137.21
677.93	49640.42
678.07	49771.49
678.21	49326.79
678.34	49436.80
678.48	49371.26
678.62	49158.27
678.76	48926.56
678.90	48837.62
679.04	48664.42
679.18	49008.48
679.31	48222.06
679.45	48243.12
679.59	48465.47
679.73	48839.96
679.87	47819.49
680.00	47714.16
680.14	47583.09
680.28	47669.69
680.42	47597.13
680.56	47327.97
680.70	46967.53
680.83	47105.62
680.97	47253.08
681.11	47487.13
681.25	47056.47
681.39	46918.38
681.52	47136.05
681.66	46555.60
681.80	46330.90
681.94	46534.53
682.07	46073.45
682.21	45823.01
682.35	45654.49
682.49	46045.36
682.62	45614.70
682.76	46185.79
682.90	46080.47
683.04	45535.12
683.17	45193.40
683.31	44680.83
683.45	44830.62
683.59	44854.03
683.72	44414.01
683.86	44423.37
684.00	44725.30
684.13	44545.08
684.27	44130.80
684.41	44339.11
684.55	43632.27
684.68	43885.04
684.82	43622.90
684.96	43611.20
685.09	43185.22
685.23	43325.66
685.37	42653.92
685.50	42567.32
685.64	43140.75
685.78	42850.53
685.91	42859.89
686.05	42267.73
686.19	41832.39
686.32	41881.55
686.46	41507.06
686.60	41207.47
686.73	40975.76
686.87	40987.46
687.01	41691.96
687.14	41249.60
687.28	40797.88
687.42	40788.52
687.55	40488.93
687.69	41289.39
687.82	40135.51
687.96	40187.00
688.10	40156.57
688.23	40294.66
688.37	39941.24
688.50	39302.28
688.64	39585.48
688.78	39033.11
688.91	38888.00
689.05	38845.87
689.18	39171.21
689.32	37844.12
689.46	38284.14
689.59	38225.63
689.73	37654.54
689.86	37869.87
690.00	37675.60
690.13	37837.10
690.27	37750.50
690.41	37301.12
690.54	37680.28
690.68	37385.38
690.81	37338.57
690.95	36935.99
691.08	36498.31
691.22	36519.38
691.35	36163.62
691.49	36627.04
691.62	36243.20
691.76	36023.19
691.89	35754.02
692.03	36006.80
692.16	35002.71
692.30	35351.45
692.43	35648.70
692.57	35152.51
692.70	34754.61
692.84	34803.77
692.97	34897.39
693.11	34965.26
693.24	34438.64
693.38	34499.50
693.51	34052.45
693.65	33968.19
693.78	33729.46
693.92	33823.08
694.05	33455.62
694.19	33617.11
694.32	33294.12
694.45	33212.20
694.59	32959.42
694.72	32755.80
694.86	32496.00
694.99	32563.87
695.13	32423.44
695.26	32109.81
695.39	31658.09
695.53	31665.11
695.66	32411.74
695.80	32133.21
695.93	31421.69
696.07	31098.70
696.20	30874.01
696.33	30895.07
696.47	31016.78
696.60	31058.91
696.73	30785.07
696.87	30794.43
697.00	30256.11
697.14	30272.49
697.27	30230.36
697.40	29905.02
697.54	30164.82
697.67	29635.86
697.80	30132.06
697.94	29151.37
698.07	29338.62
698.21	29303.51
698.34	29127.97
698.47	28868.17
698.61	28774.55
698.74	28849.44
698.87	28615.39
699.01	28336.87
699.14	28917.32
699.27	28238.56
699.40	28100.47
699.54	27843.01
699.67	28100.47
699.80	27707.26
699.94	27653.43
700.07	27812.59
700.20	27370.22
700.34	27314.05
700.47	27143.19
700.60	26689.13
700.73	26635.30
700.87	26064.21
701.00	26391.88
701.13	26012.71
701.26	25951.86
701.40	26045.48
701.53	26209.32
701.66	25621.84
701.79	25848.88
701.93	25102.25
702.06	24905.64
702.19	25144.38
702.32	25397.15
702.46	25067.14
702.59	24800.32
702.72	24629.46
702.85	24739.46
702.99	24652.86
703.12	24070.07
703.25	24409.45
703.38	24020.92
703.51	23749.42
703.65	23681.54
703.78	23482.59
703.91	23501.32
704.04	23576.22
704.17	23328.12
704.31	23220.45
704.44	23260.24
704.57	23187.69
704.70	22977.04
704.83	22546.38
704.96	22700.86
705.10	22328.71
705.23	22492.55
>>>>>End Processed Spectral Data<<<<<
