SpectraSuite Data File
++++++++++++++++++++++++++++++++++++
Date: Fri Oct 25 11:24:00 EDT 2013
User: price-jones
Dark Spectrum Present: No
Reference Spectrum Present: No
Number of Sampled Component Spectra: 1
Spectrometers: USB2+H05261
Integration Time (usec): 100000 (USB2+H05261)
Spectra Averaged: 1 (USB2+H05261)
Boxcar Smoothing: 0 (USB2+H05261)
Correct for Electrical Dark: No (USB2+H05261)
Strobe/Lamp Enabled: No (USB2+H05261)
Correct for Detector Non-linearity: No (USB2+H05261)
Correct for Stray Light: No (USB2+H05261)
Number of Pixels in Processed Spectrum: 2048
>>>>>Begin Processed Spectral Data<<<<<
365.73	177.88
365.92	177.88
366.12	177.88
366.32	114.69
366.52	114.69
366.72	95.96
366.91	110.01
367.11	117.03
367.31	110.01
367.51	142.77
367.70	177.88
367.90	133.41
368.10	110.01
368.30	168.52
368.49	170.86
368.69	145.11
368.89	203.63
369.09	100.64
369.28	217.67
369.48	205.97
369.68	180.22
369.87	133.41
370.07	166.18
370.27	220.01
370.47	276.18
370.66	603.86
370.86	650.67
371.06	702.16
371.25	751.31
371.45	636.63
371.65	685.78
371.84	699.82
372.04	706.84
372.24	678.76
372.44	720.88
372.63	753.65
372.83	730.25
373.03	744.29
373.22	692.80
373.42	772.38
373.62	772.38
373.81	851.96
374.01	854.30
374.21	884.72
374.40	823.87
374.60	788.76
374.79	861.32
374.99	875.36
375.19	748.97
375.38	844.93
375.58	858.98
375.78	823.87
375.97	823.87
376.17	917.49
376.37	919.83
376.56	849.61
376.76	858.98
376.95	870.68
377.15	882.38
377.35	819.19
377.54	964.30
377.74	905.79
377.93	873.02
378.13	929.19
378.33	1006.43
378.52	842.59
378.72	966.64
378.91	985.37
379.11	954.94
379.31	896.43
379.50	1032.18
379.70	1022.81
379.89	992.39
380.09	931.53
380.28	961.96
380.48	985.37
380.68	1018.13
380.87	1029.84
381.07	957.28
381.26	1078.99
381.46	1039.20
381.65	997.07
381.85	1015.79
382.04	1074.31
382.24	1067.28
382.43	1177.29
382.63	987.71
382.83	1093.03
383.02	1111.75
383.22	1121.12
383.41	1041.54
383.61	1172.61
383.80	1177.29
384.00	1102.39
384.19	1121.12
384.39	1078.99
384.58	1086.01
384.78	1144.52
384.97	1203.04
385.17	1219.42
385.36	1151.54
385.56	1196.01
385.75	1132.82
385.95	1167.93
386.14	1291.98
386.34	1231.12
386.53	1284.95
386.72	1191.33
386.92	1207.72
387.11	1249.85
387.31	1231.12
387.50	1277.93
387.70	1210.06
387.89	1306.02
388.09	1301.34
388.28	1235.80
388.48	1359.85
388.67	1270.91
388.86	1294.32
389.06	1310.70
389.25	1357.51
389.45	1299.00
389.64	1287.29
389.84	1369.21
390.03	1341.13
390.22	1350.49
390.42	1317.72
390.61	1401.98
390.81	1371.55
391.00	1474.54
391.19	1423.05
391.39	1441.77
391.58	1465.18
391.78	1394.96
391.97	1582.20
392.16	1427.73
392.36	1568.16
392.55	1458.15
392.75	1589.22
392.94	1497.94
393.13	1605.61
393.33	1551.78
393.52	1668.80
393.71	1507.30
393.91	1493.26
394.10	1610.29
394.29	1666.46
394.49	1577.52
394.68	1607.95
394.88	1666.46
395.07	1696.89
395.26	1657.10
395.46	1703.91
395.65	1741.36
395.84	1715.61
396.04	1682.85
396.23	1736.68
396.42	1696.89
396.62	1830.30
396.81	1769.44
397.00	1785.83
397.19	1771.79
397.39	1860.73
397.58	1727.32
397.77	1893.49
397.97	1944.99
398.16	1818.60
398.35	1865.41
398.55	1954.35
398.74	1830.30
398.93	1977.75
399.12	1970.73
399.32	1860.73
399.51	2118.18
399.70	1921.58
399.90	1877.11
400.09	1926.26
400.28	2022.22
400.47	2012.86
400.67	2125.21
400.86	2080.74
401.05	2120.53
401.24	2080.74
401.44	2113.50
401.63	2134.57
401.82	2111.16
402.01	2120.53
402.21	2148.61
402.40	2174.36
402.59	2172.02
402.78	2263.30
402.97	2216.49
403.17	2300.75
403.36	2347.56
403.55	2291.38
403.74	2377.98
403.93	2366.28
404.13	2410.75
404.32	2436.50
404.51	2340.54
404.70	2431.82
404.89	2424.80
405.09	2537.14
405.28	2459.90
405.47	2452.88
405.66	2429.48
405.85	2527.78
406.05	2539.48
406.24	2523.10
406.43	2495.01
406.62	2644.81
406.81	2679.91
407.00	2731.41
407.20	2595.65
407.39	2649.49
407.58	2738.43
407.77	2885.88
407.96	2736.09
408.15	2803.96
408.34	2860.13
408.54	2871.84
408.73	2836.73
408.92	2977.16
409.11	2850.77
409.30	2902.26
409.49	2951.42
409.68	2890.56
409.87	3084.83
410.07	3005.25
410.26	2937.37
410.45	2970.14
410.64	3000.57
410.83	2995.89
411.02	3082.49
411.21	3089.51
411.40	3162.06
411.59	3185.47
411.78	3108.23
411.98	3211.22
412.17	3246.32
412.36	3318.88
412.55	3403.14
412.74	3290.79
412.93	3346.97
413.12	3346.97
413.31	3468.67
413.50	3361.01
413.69	3473.36
413.88	3569.32
414.07	3564.64
414.26	3543.57
414.45	3602.08
414.64	3878.27
414.83	3810.39
415.02	3660.60
415.22	3960.19
415.41	3723.79
415.60	4018.70
415.79	4035.08
415.98	3847.84
416.17	3960.19
416.36	3896.99
416.55	4074.87
416.74	4128.70
416.93	4152.11
417.12	4126.36
417.31	4208.28
417.50	4215.30
417.69	4203.60
417.88	4264.46
418.07	4236.37
418.26	4400.21
418.45	4337.01
418.64	4397.87
418.83	4301.90
419.02	4432.97
419.21	4430.63
419.39	4566.39
419.58	4503.19
419.77	4533.62
419.96	4552.34
420.15	4617.88
420.34	4566.39
420.53	4648.30
420.72	4692.77
420.91	4723.20
421.10	4816.82
421.29	4865.97
421.48	4709.16
421.67	4854.27
421.86	4798.10
422.05	4809.80
422.24	4760.65
422.43	4919.81
422.61	4961.94
422.80	4865.97
422.99	5036.83
423.18	4971.30
423.37	5074.28
423.56	5004.07
423.75	4971.30
423.94	4882.36
424.13	4482.13
424.32	4690.43
424.50	5142.16
424.69	5156.20
424.88	5104.71
425.07	4863.63
425.26	4947.89
425.45	4943.21
425.64	4910.44
425.83	5139.82
426.01	5167.90
426.20	5006.41
426.39	5053.22
426.58	5055.56
426.77	5069.60
426.96	5097.69
427.15	5160.88
427.33	5198.33
427.52	5240.46
427.71	5249.82
427.90	5228.76
428.09	5434.72
428.28	5413.66
428.46	5444.09
428.65	5327.06
428.84	5493.24
429.03	5446.43
429.22	5369.19
429.40	5441.75
429.59	5420.68
429.78	5472.17
429.97	5165.56
430.16	5514.30
430.34	5703.89
430.53	5575.16
430.72	5755.38
430.91	5713.25
431.10	5537.71
431.28	5607.92
431.47	5757.72
431.66	5724.95
431.85	5813.89
432.03	5947.30
432.22	6059.65
432.41	5996.45
432.60	5947.30
432.79	5916.87
432.97	5987.09
433.16	5977.73
433.35	6129.86
433.54	6073.69
433.72	6181.35
433.91	6214.12
434.10	6073.69
434.28	6132.20
434.47	6193.06
434.66	6258.59
434.85	6328.81
435.03	6490.31
435.22	6291.36
435.41	6403.71
435.59	6406.05
435.78	6523.07
435.97	6314.77
436.16	6548.82
436.34	6621.38
436.53	6469.24
436.72	6478.60
436.90	6614.35
437.09	6579.25
437.28	6509.03
437.46	6546.48
437.65	6544.14
437.84	6944.37
438.02	6745.42
438.21	6789.89
438.40	6738.40
438.58	7073.10
438.77	7180.76
438.96	7040.33
439.14	7143.32
439.33	7199.49
439.52	7332.90
439.70	7311.83
439.89	7234.60
440.08	7368.01
440.26	7414.82
440.45	7403.11
440.63	7651.21
440.82	7719.09
441.01	7534.18
441.19	7623.12
441.38	7698.02
441.57	7728.45
441.75	7866.54
441.94	7983.57
442.12	8013.99
442.31	8159.11
442.50	8107.62
442.68	7960.16
442.87	8163.79
443.05	8269.11
443.24	8079.53
443.43	8308.90
443.61	8236.35
443.80	8564.02
443.98	8025.70
444.17	7882.92
444.35	8262.09
444.54	8294.86
444.73	8348.69
444.91	8336.99
445.10	8243.37
445.28	8259.75
445.47	8121.66
445.65	8353.37
445.84	8376.78
446.02	8446.99
446.21	8479.76
446.39	8491.46
446.58	8596.79
446.77	8367.42
446.95	8189.53
447.14	8594.45
447.32	8664.66
447.51	8655.30
447.69	8638.92
447.88	8514.87
448.06	8519.55
448.25	8540.61
448.43	8627.21
448.62	8758.28
448.80	8594.45
448.99	8716.16
449.17	8739.56
449.36	8657.64
449.54	8987.66
449.73	9055.53
449.91	9064.89
450.10	8917.44
450.28	8980.64
450.46	9036.81
450.65	9055.53
450.83	9085.96
451.02	9025.11
451.20	9275.54
451.39	9107.02
451.57	9156.18
451.76	9170.22
451.94	9282.56
452.13	9451.08
452.31	9270.86
452.49	8975.95
452.68	9568.11
452.86	9277.88
453.05	9474.49
453.23	9528.32
453.42	9523.64
453.60	9366.82
453.78	9572.79
453.97	9537.68
454.15	9582.15
454.34	9502.58
454.52	9865.36
454.70	9558.75
454.89	9813.87
455.07	9942.60
455.26	9987.07
455.44	10057.28
455.62	9818.55
455.81	9975.36
455.99	10143.88
456.17	10204.74
456.36	10188.35
456.54	10459.85
456.73	10305.38
456.91	10532.41
457.09	10387.30
457.28	10665.82
457.46	10258.57
457.64	10352.19
457.83	10745.40
458.01	10448.15
458.19	10658.80
458.38	10778.17
458.56	10878.81
458.74	10803.91
458.93	10761.78
459.11	10817.96
459.29	10810.93
459.48	10843.70
459.66	10637.73
459.84	11005.20
460.03	11005.20
460.21	10916.26
460.39	11056.69
460.57	11124.57
460.76	11304.79
460.94	11321.17
461.12	11346.92
461.31	11400.75
461.49	11346.92
461.67	11346.92
461.85	11438.20
462.04	11580.97
462.22	11672.25
462.40	11655.87
462.59	11609.06
462.77	11559.91
462.95	11571.61
463.13	11676.93
463.32	11714.38
463.50	11932.05
463.68	11733.11
463.86	11651.19
464.05	11740.13
464.23	11758.85
464.41	11995.25
464.59	11723.74
464.78	12269.09
464.96	12067.80
465.14	11927.37
465.32	12091.21
465.50	12189.51
465.69	12322.92
465.87	12217.60
466.05	12035.03
466.23	12208.23
466.41	12290.15
466.60	12739.54
466.78	12400.16
466.96	12425.90
467.14	12449.31
467.32	12397.82
467.51	12545.27
467.69	12114.61
467.87	12491.44
468.05	12575.70
468.23	12351.01
468.41	12475.06
468.60	12772.30
468.78	12936.14
468.96	12748.90
469.14	13022.74
469.32	13177.22
469.50	12704.43
469.69	13221.69
469.87	13123.38
470.05	13165.51
470.23	13383.18
470.41	13256.79
470.59	13469.78
470.77	13401.91
470.95	13408.93
471.14	13530.64
471.32	13135.09
471.50	13771.71
471.68	13731.92
471.86	13617.24
472.04	13706.18
472.22	13855.97
472.40	13860.65
472.58	14244.50
472.77	13951.93
472.95	14293.65
473.13	14651.75
473.31	13942.57
473.49	14307.69
473.67	14410.68
473.85	14436.42
474.03	14827.29
474.21	14918.57
474.39	14771.12
474.57	14941.98
474.75	15016.88
474.93	14817.93
475.12	15096.46
475.30	15080.07
475.48	15159.65
475.66	15328.17
475.84	15119.86
476.02	15396.04
476.20	15637.12
476.38	15648.82
476.56	16161.40
476.74	16149.70
476.92	15910.96
477.10	15843.09
477.28	16395.45
477.46	16269.06
477.64	16582.70
477.82	16468.01
478.00	17226.34
478.18	16945.48
478.36	17163.15
478.54	17284.86
478.72	17493.16
478.90	17736.58
479.08	17827.86
479.26	17692.11
479.44	18094.68
479.62	18085.32
479.80	18183.62
479.98	18403.63
480.16	18707.90
480.34	18298.31
480.52	18941.96
480.70	18717.26
480.88	18237.45
481.06	18806.20
481.24	18836.63
481.41	19087.07
481.59	19290.70
481.77	19714.33
481.95	19737.74
482.13	19960.09
482.31	19796.25
482.49	20243.29
482.67	20278.40
482.85	20620.12
483.03	20531.18
483.21	20748.85
483.39	21036.74
483.57	21331.64
483.74	21469.73
483.92	21764.64
484.10	21317.60
484.28	21738.90
484.46	22129.77
484.64	22377.86
484.82	21928.48
485.00	22532.34
485.18	22754.69
485.35	23070.66
485.53	22963.00
485.71	23124.49
485.89	23616.01
486.07	23583.24
486.25	23531.75
486.43	23662.82
486.61	24395.40
486.78	24442.21
486.96	23927.30
487.14	24659.88
487.32	24606.05
487.50	24971.18
487.68	25294.17
487.85	25275.45
488.03	25806.75
488.21	26094.63
488.39	26047.82
488.57	26216.34
488.75	26204.64
488.92	26434.01
489.10	26810.84
489.28	26810.84
489.46	27363.20
489.64	27157.24
489.81	27763.43
489.99	27950.68
490.17	27716.62
490.35	28247.93
490.53	28259.63
490.70	28446.87
490.88	27903.87
491.06	29109.24
491.24	28996.90
491.41	29186.48
491.59	29504.79
491.77	29439.26
491.95	29766.93
492.13	29869.92
492.30	30436.33
492.48	30415.26
492.66	30277.17
492.84	30469.09
493.01	30930.18
493.19	30951.24
493.37	31157.21
493.54	31133.81
493.72	31931.93
493.90	31655.75
494.08	31894.48
494.25	32095.77
494.43	32055.98
494.61	32196.41
494.79	32671.54
494.96	32804.95
495.14	33113.90
495.32	33392.42
495.49	33137.30
495.67	33338.59
495.85	34026.71
496.02	33844.15
496.20	34497.16
496.38	34361.40
496.55	34333.32
496.73	35161.87
496.91	34691.42
497.09	34951.22
497.26	35189.95
497.44	35089.31
497.62	35871.05
497.79	35854.67
497.97	35576.14
498.14	36446.82
498.32	36533.42
498.50	36685.56
498.67	36514.70
498.85	36760.45
499.03	36875.14
499.20	37038.98
499.38	36793.22
499.56	37127.92
499.73	37642.84
499.91	37715.39
500.08	37488.36
500.26	37397.08
500.44	38206.90
500.61	37778.59
500.79	38005.62
500.97	38333.29
501.14	38831.83
501.32	38895.02
501.49	38660.97
501.67	39161.84
501.84	39328.02
502.02	38983.96
502.20	39192.27
502.37	39496.54
502.55	39831.24
502.72	39814.85
502.90	39440.37
503.07	39796.13
503.25	39938.90
503.43	40353.18
503.60	40612.98
503.78	40779.15
503.95	40243.17
504.13	40744.05
504.30	40884.48
504.48	40355.52
504.65	41244.92
504.83	41031.93
505.01	41778.56
505.18	41324.50
505.36	41586.64
505.53	41471.95
505.71	41904.95
505.88	42092.19
506.06	41663.88
506.23	42195.18
506.41	41942.40
506.58	42499.45
506.76	42911.38
506.93	42937.13
507.11	42897.34
507.28	42595.41
507.46	43189.91
507.63	43173.52
507.81	43489.49
507.98	43124.37
508.16	43709.50
508.33	43578.43
508.50	43468.43
508.68	43973.98
508.85	44406.98
509.03	43833.55
509.20	44208.04
509.38	44708.91
509.55	44631.68
509.73	44982.76
509.90	45272.98
510.08	45010.84
510.25	45104.46
510.42	45141.91
510.60	45291.71
510.77	45195.74
510.95	45766.84
511.12	44999.14
511.30	45303.41
511.47	45848.75
511.64	45551.51
511.82	46380.06
511.99	45881.52
512.17	45954.08
512.34	46211.54
512.51	46555.60
512.69	46843.48
512.86	46520.49
513.04	46630.49
513.21	46920.72
513.38	47201.58
513.56	47447.34
513.73	46972.21
513.90	47381.80
514.08	46876.25
514.25	47430.96
514.43	47742.25
514.60	47803.10
514.77	47475.43
514.95	47847.57
515.12	48208.01
515.29	47957.58
515.47	47854.59
515.64	48318.02
515.81	48121.41
515.99	48545.05
516.16	48751.02
516.33	48339.08
516.51	48938.26
516.68	48704.21
516.85	48926.56
517.03	49083.37
517.20	49069.33
517.37	49474.24
517.54	49071.67
517.72	49228.49
517.89	49237.85
518.06	49661.49
518.24	49366.58
518.41	49160.61
518.58	49614.68
518.75	49600.63
518.93	49546.80
519.10	50099.17
519.27	50000.86
519.45	50108.53
519.62	50288.75
519.79	50237.26
519.96	49965.76
520.14	50234.92
520.31	50248.96
520.48	50688.98
520.65	50721.75
520.83	50780.26
521.00	50831.75
521.17	50962.82
521.34	50993.25
521.52	50993.25
521.69	50890.27
521.86	51290.50
522.03	51117.30
522.20	51349.01
522.38	51800.74
522.55	51489.45
522.72	51459.02
522.89	51606.47
523.07	51676.69
523.24	51866.27
523.41	52006.70
523.58	51957.55
523.75	52376.51
523.92	52320.34
524.10	52292.25
524.27	52310.97
524.44	52285.23
524.61	52390.55
524.78	52423.32
524.96	52640.99
525.13	52423.32
525.30	52556.73
525.47	52648.01
525.64	52739.29
525.81	52652.69
525.98	52954.62
526.16	52788.44
526.33	52814.19
526.50	53221.44
526.67	52795.46
526.84	53202.72
527.01	52844.62
527.18	53048.24
527.36	53132.50
527.53	53153.57
527.70	53436.77
527.87	53638.06
528.04	53572.52
528.21	53642.74
528.38	53364.21
528.55	53862.75
528.72	53626.35
528.89	53680.19
529.07	53619.33
529.24	53600.61
529.41	53846.36
529.58	54188.08
529.75	53879.13
529.92	53883.81
530.09	54138.93
530.26	54073.40
530.43	54127.23
530.60	54064.03
530.77	54101.48
530.94	54150.63
531.11	54253.62
531.28	54232.55
531.46	54688.96
531.63	54440.86
531.80	54473.63
531.97	54513.42
532.14	54768.54
532.31	54810.67
532.48	54667.89
532.65	54904.29
532.82	54499.37
532.99	55091.53
533.16	54850.45
533.33	54897.27
533.50	54923.01
533.67	54911.31
533.84	54993.23
534.01	55128.98
534.18	55131.32
534.35	55749.22
534.52	55166.43
534.69	55505.80
534.86	55477.72
535.03	55220.26
535.20	55402.82
535.37	55428.57
535.54	55363.03
535.71	55131.32
535.88	55398.14
536.05	55758.58
536.22	55653.26
536.38	55927.10
536.55	55721.13
536.72	55779.65
536.89	55590.06
537.06	55774.97
537.23	55908.38
537.40	55852.20
537.57	56069.87
537.74	56044.13
537.91	56102.64
538.08	56119.02
538.25	55908.38
538.42	56296.91
538.59	56273.50
538.75	56289.88
538.92	56264.14
539.09	56332.01
539.26	56116.68
539.43	56158.81
539.60	56502.87
539.77	56350.74
539.94	56797.78
540.11	56638.62
540.28	56189.24
540.44	56727.56
540.61	56507.55
540.78	56472.45
540.95	56545.00
541.12	56608.20
541.29	56537.98
541.46	56697.14
541.62	56786.08
541.79	57041.20
541.96	56530.96
542.13	56811.82
542.30	56825.87
542.47	57059.92
542.63	56989.70
542.80	56872.68
542.97	57249.50
543.14	57455.47
543.31	57322.06
543.48	57359.51
543.64	57593.56
543.81	57654.42
543.98	57567.82
544.15	57333.76
544.32	57504.62
544.48	57813.57
544.65	57567.82
544.82	57553.77
544.99	57483.56
545.16	57743.36
545.32	57628.67
545.49	57783.15
545.66	57717.61
545.83	57705.91
546.00	57834.64
546.16	57883.79
546.33	57851.02
546.50	57743.36
546.67	57820.59
546.83	57645.05
547.00	57851.02
547.17	58059.33
547.34	58166.99
547.50	58230.19
547.67	58227.85
547.84	58227.85
548.00	58230.19
548.17	58365.94
548.34	58075.71
548.51	58424.45
548.67	58372.96
548.84	58394.03
549.01	58267.64
549.18	58251.25
549.34	58562.54
549.51	58440.84
549.68	58515.73
549.84	58602.33
550.01	58475.94
550.18	58487.65
550.34	58489.99
550.51	58712.34
550.68	58611.70
550.84	58417.43
551.01	58857.45
551.18	58553.18
551.34	58637.44
551.51	58862.13
551.68	58684.25
551.84	58728.72
552.01	58642.12
552.18	58848.09
552.34	58724.04
552.51	58752.13
552.68	58836.39
552.84	58859.79
553.01	59077.46
553.18	59016.61
553.34	58955.75
553.51	58930.01
553.67	59093.85
553.84	58890.22
554.01	59320.88
554.17	59348.96
554.34	59309.18
554.51	59100.87
554.67	59320.88
554.84	59257.68
555.00	59035.33
555.17	59114.91
555.33	59433.22
555.50	59138.32
555.67	59245.98
555.83	59196.83
556.00	59274.07
556.16	59585.36
556.33	59379.39
556.50	59217.89
556.66	59405.14
556.83	59388.75
556.99	59505.78
557.16	59704.73
557.32	59770.26
557.49	59714.09
557.65	59393.43
557.82	59540.89
557.98	59451.95
558.15	59491.74
558.32	59959.84
558.48	59384.07
558.65	59449.61
558.81	59564.29
558.98	59664.94
559.14	59742.17
559.31	59693.02
559.47	59803.03
559.64	59903.67
559.80	59732.81
559.97	59943.46
560.13	59721.11
560.30	59817.07
560.46	59849.84
560.63	59887.29
560.79	59936.44
560.96	59891.97
561.12	60006.65
561.29	60032.40
561.45	59913.03
561.61	59732.81
561.78	60001.97
561.94	59915.37
562.11	60051.12
562.27	60041.76
562.44	59997.29
562.60	60168.15
562.77	60079.21
562.93	59859.20
563.10	60079.21
563.26	60048.78
563.42	60266.45
563.59	60189.22
563.75	60207.94
563.92	60182.19
564.08	60165.81
564.24	60327.31
564.41	60163.47
564.57	60212.62
564.74	60329.65
564.90	60456.04
565.07	60191.56
565.23	60210.28
565.39	60343.69
565.56	60308.58
565.72	60233.69
565.88	60374.12
566.05	60348.37
566.21	60343.69
566.38	60334.33
566.54	60278.16
566.70	60430.29
566.87	60552.00
567.03	60331.99
567.19	60720.52
567.36	60757.97
567.52	60324.97
567.68	60434.97
567.85	60526.25
568.01	60420.93
568.17	60472.42
568.34	60669.03
568.50	60643.28
568.66	60505.19
568.83	60629.24
568.99	60460.72
569.15	60612.85
569.32	60589.45
569.48	60544.98
569.64	60645.62
569.81	60406.89
569.97	60762.65
570.13	60591.79
570.30	60544.98
570.46	60477.10
570.62	60860.95
570.78	60856.27
570.95	60704.13
571.11	60748.60
571.27	60701.79
571.43	60746.26
571.60	60779.03
571.76	60664.35
571.92	60786.05
572.09	60774.35
572.25	60896.06
572.41	60846.91
572.57	60704.13
572.74	60949.89
572.90	60631.58
573.06	60692.43
573.22	60914.78
573.38	60786.05
573.55	60851.59
573.71	60949.89
573.87	60879.67
574.03	60781.37
574.20	60903.08
574.36	60741.58
574.52	60811.80
574.68	60891.38
574.84	60900.74
575.01	60718.18
575.17	61008.40
575.33	60790.73
575.49	60779.03
575.65	60676.05
575.82	61008.40
575.98	60874.99
576.14	61022.45
576.30	61034.15
576.46	60842.23
576.62	60762.65
576.79	60935.85
576.95	60783.71
577.11	61092.66
577.27	60781.37
577.43	60851.59
577.59	60992.02
577.75	60832.86
577.92	60701.79
578.08	60947.55
578.24	60994.36
578.40	61020.11
578.56	61029.47
578.72	60994.36
578.88	61181.60
579.04	61127.77
579.21	60996.70
579.37	61151.18
579.53	61097.34
579.69	60823.50
579.85	61062.24
580.01	60865.63
580.17	61038.83
580.33	61045.85
580.49	61076.28
580.65	61167.56
580.82	60886.70
580.98	61017.77
581.14	60851.59
581.30	61167.56
581.46	61064.58
581.62	61265.86
581.78	60966.27
581.94	61078.62
582.10	61015.43
582.26	60982.66
582.42	60992.02
582.58	61106.71
582.74	61146.50
582.90	61043.51
583.06	61006.06
583.22	60783.71
583.38	61109.05
583.54	61233.10
583.70	61212.03
583.86	61064.58
584.02	60968.61
584.18	61237.78
584.34	61207.35
584.50	61368.85
584.66	61120.75
584.82	61233.10
584.98	61158.20
585.14	61209.69
585.30	61097.34
585.46	61249.48
585.62	61205.01
585.78	61375.87
585.94	60975.64
586.10	60912.44
586.26	61216.71
586.42	61282.25
586.58	61272.88
586.74	61078.62
586.90	61291.61
587.06	61153.52
587.22	61272.88
587.38	61230.75
587.54	61387.57
587.70	61165.22
587.86	61207.35
588.02	61300.97
588.18	61095.00
588.34	61169.90
588.49	61083.30
588.65	61272.88
588.81	61425.02
588.97	61249.48
589.13	61270.54
589.29	61373.53
589.45	61422.68
589.61	61441.40
589.77	61663.75
589.93	61586.52
590.08	61628.65
590.24	61432.04
590.40	61598.22
590.56	61628.65
590.72	61474.17
590.88	61455.45
591.04	61413.32
591.20	61841.63
591.35	61483.53
591.51	61858.02
591.67	61649.71
591.83	61626.31
591.99	61565.45
592.15	61640.35
592.31	61549.07
592.46	61418.00
592.62	61415.66
592.78	61368.85
592.94	61509.28
593.10	61544.39
593.26	61673.12
593.41	61762.06
593.57	61469.49
593.73	61558.43
593.89	62024.20
594.05	61862.70
594.20	61528.00
594.36	61698.86
594.52	61755.03
594.68	61740.99
594.84	61661.41
594.99	61778.44
595.15	61586.52
595.31	61794.82
595.47	61532.68
595.62	61467.15
595.78	61785.46
595.94	61673.12
596.10	61965.68
596.25	61794.82
596.41	61762.06
596.57	61691.84
596.73	61958.66
596.88	61769.08
597.04	61722.27
597.20	61916.53
597.36	61839.29
597.51	62021.86
597.67	61478.85
597.83	61612.26
597.99	61787.80
598.14	61623.96
598.30	61904.83
598.46	61726.95
598.61	61872.06
598.77	61862.70
598.93	61673.12
599.09	61743.33
599.24	62033.56
599.40	61874.40
599.56	61602.90
599.71	61862.70
599.87	62120.16
600.03	62066.33
600.18	61851.00
600.34	61935.26
600.50	61986.75
600.65	61736.31
600.81	61804.19
600.97	61951.64
601.12	61865.04
601.28	61848.66
601.44	61808.87
601.59	61914.19
601.75	61778.44
601.91	61986.75
602.06	62012.49
602.22	62061.64
602.37	61918.87
602.53	61862.70
602.69	61897.81
602.84	61804.19
603.00	61783.12
603.16	62017.17
603.31	62049.94
603.47	62148.24
603.62	61904.83
603.78	62181.01
603.94	61865.04
604.09	61893.13
604.25	62038.24
604.40	62061.64
604.56	61743.33
604.71	61953.98
604.87	61834.61
605.03	61986.75
605.18	62024.20
605.34	61902.49
605.49	61764.40
605.65	61942.28
605.80	61867.38
605.96	62195.06
606.12	62080.37
606.27	61977.39
606.43	61748.01
606.58	62028.88
606.74	61794.82
606.89	61759.72
607.05	61876.74
607.20	61904.83
607.36	61780.78
607.51	61895.47
607.67	61640.35
607.82	61869.72
607.98	61682.48
608.13	61736.31
608.29	61846.32
608.44	61977.39
608.60	61684.82
608.75	61682.48
608.91	61733.97
609.06	61532.68
609.22	61834.61
609.37	61586.52
609.53	61717.59
609.68	61799.50
609.84	61834.61
609.99	61726.95
610.15	61776.10
610.30	61848.66
610.46	61724.61
610.61	61780.78
610.76	61535.02
610.92	61694.18
611.07	61722.27
611.23	61652.05
611.38	61881.42
611.54	61722.27
611.69	61633.33
611.84	61815.89
612.00	61556.09
612.15	61659.07
612.31	61652.05
612.46	61518.64
612.62	61595.88
612.77	61506.94
612.92	61710.56
613.08	61553.75
613.23	61570.13
613.39	61483.53
613.54	61406.30
613.69	61724.61
613.85	61565.45
614.00	61804.19
614.15	61719.93
614.31	61654.39
614.46	61607.58
614.62	61528.00
614.77	61581.84
614.92	61638.01
615.08	61563.11
615.23	61427.36
615.38	61410.98
615.54	61612.26
615.69	61357.14
615.84	61460.13
616.00	61630.99
616.15	61277.57
616.30	61581.84
616.46	61331.40
616.61	61481.19
616.76	61464.81
616.92	61401.61
617.07	61216.71
617.22	61282.25
617.37	61289.27
617.53	61483.53
617.68	61591.20
617.83	61382.89
617.99	61546.73
618.14	61478.85
618.29	61427.36
618.45	61261.18
618.60	61289.27
618.75	61104.37
618.90	61158.20
619.06	61511.62
619.21	61410.98
619.36	61441.40
619.51	61347.78
619.67	61116.07
619.82	61265.86
619.97	61331.40
620.12	61181.60
620.28	61123.09
620.43	61064.58
620.58	61296.29
620.73	60985.00
620.89	61106.71
621.04	61296.29
621.19	61085.64
621.34	61144.16
621.49	61090.32
621.65	61092.66
621.80	61350.12
621.95	60961.59
622.10	61221.39
622.25	61059.90
622.41	60896.06
622.56	61188.63
622.71	61190.97
622.86	60772.01
623.01	60818.82
623.16	60851.59
623.32	61071.60
623.47	61270.54
623.62	60905.42
623.77	61008.40
623.92	60940.53
624.07	61078.62
624.23	60980.32
624.38	60905.42
624.53	60659.66
624.68	60715.84
624.83	60898.40
624.98	60968.61
625.13	60582.43
625.29	61022.45
625.44	60849.25
625.59	60839.89
625.74	60900.74
625.89	60519.23
626.04	60552.00
626.19	60533.28
626.34	60580.09
626.49	60563.70
626.65	60566.04
626.80	60643.28
626.95	60598.81
627.10	60334.33
627.25	60629.24
627.40	60423.27
627.55	60470.08
627.70	60687.75
627.85	60479.44
628.00	60502.85
628.15	60612.85
628.30	60392.84
628.45	60491.15
628.60	60327.31
628.76	60378.80
628.91	60542.64
629.06	60378.80
629.21	60441.99
629.36	60427.95
629.51	60427.95
629.66	60514.55
629.81	60210.28
629.96	60121.34
630.11	60226.66
630.26	60357.74
630.41	60308.58
630.56	60224.32
630.71	60285.18
630.86	60264.11
631.01	60233.69
631.16	60212.62
631.31	59774.94
631.46	59943.46
631.61	60121.34
631.76	60207.94
631.91	60168.15
632.06	60245.39
632.21	60273.48
632.36	60053.47
632.51	59788.98
632.66	60097.94
632.81	59868.56
632.96	60161.13
633.10	59985.59
633.25	60027.72
633.40	60046.44
633.55	59980.91
633.70	60018.36
633.85	59744.51
634.00	59936.44
634.15	59950.48
634.30	59711.75
634.45	60046.44
634.60	60111.98
634.75	59978.57
634.90	59590.04
635.05	59831.11
635.19	59812.39
635.34	59650.89
635.49	59774.94
635.64	59739.83
635.79	59702.38
635.94	59725.79
636.09	59828.77
636.24	59751.54
636.39	59742.17
636.53	60041.76
636.68	59550.25
636.83	59735.15
636.98	59793.67
637.13	59597.06
637.28	59517.48
637.43	59604.08
637.57	59709.41
637.72	59433.22
637.87	59391.09
638.02	59653.23
638.17	59461.31
638.32	59629.83
638.46	59360.67
638.61	59704.73
638.76	59430.88
638.91	59578.34
639.06	59250.66
639.20	59262.36
639.35	59229.60
639.50	59292.79
639.65	59419.18
639.80	59470.67
639.94	59203.85
640.09	59386.41
640.24	59302.15
640.39	59208.53
640.54	59290.45
640.68	59210.87
640.83	59398.12
640.98	59075.12
641.13	59243.64
641.27	59522.16
641.42	58962.78
641.57	59124.27
641.72	59107.89
641.86	59114.91
642.01	58752.13
642.16	59077.46
642.31	59070.44
642.45	59199.17
642.60	58775.53
642.75	59341.94
642.90	59185.13
643.04	58908.94
643.19	58766.17
643.34	59213.21
643.48	59056.40
643.63	58887.88
643.78	58972.14
643.93	58976.82
644.07	58993.20
644.22	59056.40
644.37	58609.35
644.51	58742.77
644.66	58981.50
644.81	58843.41
644.95	58859.79
645.10	58869.15
645.25	58761.49
645.39	58871.49
645.54	58834.05
645.69	58555.52
645.83	58653.82
645.98	58700.64
646.13	58803.62
646.27	58574.25
646.42	58553.18
646.57	58599.99
646.71	58595.31
646.86	58541.48
647.00	58590.63
647.15	58592.97
647.30	58717.02
647.44	58487.65
647.59	58632.76
647.74	58747.45
647.88	58553.18
648.03	58473.60
648.17	58581.27
648.32	58424.45
648.47	58574.25
648.61	58518.07
648.76	58412.75
648.90	58557.86
649.05	58611.70
649.20	58529.78
649.34	58445.52
649.49	58361.26
649.63	58590.63
649.78	58588.29
649.92	58525.10
650.07	58475.94
650.21	58328.49
650.36	58403.39
650.51	58450.20
650.65	58445.52
650.80	58330.83
650.94	57982.09
651.09	58148.27
651.23	57951.66
651.38	58166.99
651.52	57944.64
651.67	58169.33
651.81	58033.58
651.96	58141.25
652.10	58028.90
652.25	57954.00
652.39	58138.91
652.54	57762.08
652.68	57911.88
652.83	57836.98
652.97	57984.43
653.12	57844.00
653.26	57776.12
653.41	58185.72
653.55	57886.13
653.70	57895.49
653.84	57869.75
653.99	57848.68
654.13	57649.74
654.27	57804.21
654.42	57815.91
654.56	57839.32
654.71	57895.49
654.85	57834.64
655.00	57853.36
655.14	57710.59
655.29	57556.11
655.43	57738.68
655.57	57322.06
655.72	57666.12
655.86	57776.12
656.01	57558.45
656.15	57565.48
656.30	57869.75
656.44	58148.27
656.58	57853.36
656.73	57588.88
656.87	57612.29
657.01	57551.43
657.16	57654.42
657.30	57186.31
657.45	57450.79
657.59	57434.41
657.73	57176.95
657.88	57254.18
658.02	57406.32
658.16	57275.25
658.31	57338.44
658.45	57371.21
658.60	57207.37
658.74	57411.00
658.88	57268.23
659.03	57038.86
659.17	57064.60
659.31	57106.73
659.46	57233.12
659.60	57104.39
659.74	57158.22
659.89	56830.55
660.03	56940.55
660.17	56968.64
660.32	56900.76
660.46	57003.75
660.60	56692.46
660.74	56884.38
660.89	57066.94
661.03	56793.10
661.17	56701.82
661.32	56547.34
661.46	56765.01
661.60	56846.93
661.74	56673.73
661.89	56460.74
662.03	56601.18
662.17	56385.85
662.31	56582.45
662.46	56903.10
662.60	56427.98
662.74	56481.81
662.88	56179.88
663.03	56184.56
663.17	56060.51
663.31	56229.03
663.45	55985.61
663.60	55952.85
663.74	55927.10
663.88	55994.98
664.02	55817.10
664.17	56104.98
664.31	55894.33
664.45	55842.84
664.59	55669.64
664.73	55814.76
664.88	55718.79
665.02	55463.67
665.16	55585.38
665.30	55468.36
665.44	55503.46
665.59	55262.39
665.73	55475.38
665.87	55327.92
666.01	55653.26
666.15	55585.38
666.29	55440.27
666.44	55496.44
666.58	55217.92
666.72	55042.38
666.86	55037.70
667.00	55061.10
667.14	54976.84
667.28	54822.37
667.43	54969.82
667.57	55159.41
667.71	54813.01
667.85	54630.44
667.99	54850.45
668.13	54745.13
668.27	54688.96
668.41	54665.55
668.56	54344.90
668.70	54550.87
668.84	54251.28
668.98	54342.56
669.12	54972.16
669.26	54412.77
669.40	54679.60
669.54	54497.03
669.68	54241.92
669.82	54136.59
669.96	54522.78
670.10	54155.32
670.25	54564.91
670.39	54096.80
670.53	54185.74
670.67	54110.85
670.81	54475.97
670.95	53991.48
671.09	53858.07
671.23	53673.16
671.37	53619.33
671.51	53448.47
671.65	53609.97
671.79	53558.48
671.93	53481.24
672.07	53698.91
672.21	53399.32
672.35	53205.06
672.49	52818.87
672.63	52463.11
672.77	53146.54
672.91	52722.91
673.05	52715.89
673.19	52959.30
673.33	52706.52
673.47	52624.60
673.61	52896.11
673.75	52390.55
673.89	52474.81
674.03	52388.21
674.17	52254.80
674.31	52186.92
674.45	51533.92
674.59	52109.69
674.73	52257.14
674.87	51758.61
675.01	51587.75
675.15	51515.19
675.29	51601.79
675.43	51782.01
675.56	51292.84
675.70	51262.41
675.84	51693.07
675.98	50169.38
676.12	51573.70
676.26	51278.80
676.40	50965.17
676.54	50817.71
676.68	51007.29
676.82	50382.37
676.96	50192.79
677.10	50487.70
677.23	50309.82
677.37	50169.38
677.51	49691.91
677.65	49750.43
677.79	48844.64
677.93	49034.22
678.07	49336.15
678.21	49439.14
678.34	49048.27
678.48	49226.15
678.62	49041.24
678.76	48903.15
678.90	48821.23
679.04	48664.42
679.18	48458.45
679.31	48425.68
679.45	48189.29
679.59	48058.22
679.73	48205.67
679.87	48107.37
680.00	47173.50
680.14	47189.88
680.28	47737.57
680.42	47035.41
680.56	47224.99
680.70	46880.93
680.83	46887.95
680.97	46817.74
681.11	47395.85
681.25	47166.48
681.39	46632.83
681.52	46735.82
681.66	46440.91
681.80	45736.41
681.94	45745.77
682.07	46141.32
682.21	45703.64
682.35	45380.65
682.49	45649.81
682.62	45275.32
682.76	45645.13
682.90	45338.52
683.04	45212.13
683.17	44718.28
683.31	44254.85
683.45	44439.75
683.59	44177.61
683.72	44531.03
683.86	44280.60
684.00	44306.34
684.13	44275.91
684.27	44404.64
684.41	44318.04
684.55	43746.95
684.68	43508.22
684.82	43658.01
684.96	43735.25
685.09	43166.50
685.23	43061.18
685.37	42658.60
685.50	42784.99
685.64	42548.60
685.78	42742.86
685.91	42625.84
686.05	42550.94
686.19	41872.18
686.32	41476.63
686.46	41233.22
686.60	40870.43
686.73	41333.86
686.87	40870.43
687.01	40774.47
687.14	41022.57
687.28	40816.60
687.42	40800.22
687.55	40507.65
687.69	40374.24
687.82	40545.10
687.96	39955.29
688.10	39772.72
688.23	39845.28
688.37	39983.37
688.50	39306.96
688.64	39002.69
688.78	38895.02
688.91	38471.39
689.05	39096.31
689.18	38635.22
689.32	37860.51
689.46	37830.08
689.59	37933.06
689.73	37830.08
689.86	37862.85
690.00	37429.85
690.13	37762.20
690.27	37640.50
690.41	37874.55
690.54	37401.76
690.68	36753.43
690.81	36701.94
690.95	36629.38
691.08	35866.37
691.22	36456.18
691.35	36222.13
691.49	36133.19
691.62	36320.43
691.76	35924.88
691.89	35861.69
692.03	35597.21
692.16	35372.52
692.30	35484.86
692.43	35534.01
692.57	35250.81
692.70	35023.78
692.84	35054.20
692.97	34745.25
693.11	34672.70
693.24	34490.13
693.38	33818.40
693.51	33846.49
693.65	34075.86
693.78	33795.00
693.92	33773.93
694.05	33717.76
694.19	33099.86
694.32	33338.59
694.45	33158.37
694.59	32790.91
694.72	32800.27
694.86	32982.83
694.99	32290.03
695.13	31992.78
695.26	32215.13
695.39	31782.13
695.53	31548.08
695.66	31838.31
695.80	31552.76
695.93	31594.89
696.07	31159.55
696.20	30778.04
696.33	30689.10
696.47	30780.39
696.60	30759.32
696.73	31012.10
696.87	30459.73
697.00	30005.67
697.14	30464.41
697.27	30031.41
697.40	30487.82
697.54	29804.38
697.67	29708.42
697.80	29682.67
697.94	29743.53
698.07	29390.11
698.21	29006.26
698.34	29099.88
698.47	28821.36
698.61	28631.77
698.74	28746.46
698.87	28580.28
699.01	28079.41
699.14	27929.61
699.27	28180.05
699.40	28121.54
699.54	28037.28
699.67	27885.14
699.80	27674.49
699.94	27627.68
700.07	27445.12
700.20	27288.31
700.34	26859.99
700.47	26623.59
700.60	26555.72
700.73	26813.18
700.87	26087.61
701.00	25872.28
701.13	26160.17
701.26	26012.71
701.40	26087.61
701.53	25617.16
701.66	25991.65
701.79	25635.89
701.93	25532.90
702.06	24835.42
702.19	24940.75
702.32	25277.79
702.46	24959.47
702.59	25116.29
702.72	24217.52
702.85	24737.12
702.99	24474.98
703.12	24699.67
703.25	24402.43
703.38	23931.98
703.51	23721.33
703.65	23751.76
703.78	23183.01
703.91	23316.42
704.04	23620.69
704.17	23847.72
704.31	23185.35
704.44	23033.21
704.57	22864.69
704.70	22696.17
704.83	22485.53
704.96	22349.78
705.10	22373.18
705.23	22312.33
>>>>>End Processed Spectral Data<<<<<
