SpectraSuite Data File
++++++++++++++++++++++++++++++++++++
Date: Fri Oct 25 11:26:20 EDT 2013
User: price-jones
Dark Spectrum Present: No
Reference Spectrum Present: No
Number of Sampled Component Spectra: 1
Spectrometers: USB2+H05261
Integration Time (usec): 100000 (USB2+H05261)
Spectra Averaged: 1 (USB2+H05261)
Boxcar Smoothing: 0 (USB2+H05261)
Correct for Electrical Dark: No (USB2+H05261)
Strobe/Lamp Enabled: No (USB2+H05261)
Correct for Detector Non-linearity: No (USB2+H05261)
Correct for Stray Light: No (USB2+H05261)
Number of Pixels in Processed Spectrum: 2048
>>>>>Begin Processed Spectral Data<<<<<
365.73	236.39
365.92	236.39
366.12	236.39
366.32	205.97
366.52	212.99
366.72	210.65
366.91	173.20
367.11	198.95
367.31	112.35
367.51	166.18
367.70	128.73
367.90	170.86
368.10	182.56
368.30	145.11
368.49	142.77
368.69	121.71
368.89	170.86
369.09	191.92
369.28	175.54
369.48	180.22
369.68	198.95
369.87	180.22
370.07	243.42
370.27	243.42
370.47	367.46
370.66	599.18
370.86	615.56
371.06	620.24
371.25	667.05
371.45	674.07
371.65	641.31
371.84	683.44
372.04	667.05
372.24	681.10
372.44	641.31
372.63	697.48
372.83	758.33
373.03	755.99
373.22	791.10
373.42	830.89
373.62	793.44
373.81	763.01
374.01	856.64
374.21	880.04
374.40	805.14
374.60	908.13
374.79	866.00
374.99	826.21
375.19	800.46
375.38	908.13
375.58	896.43
375.78	851.96
375.97	903.45
376.17	880.04
376.37	891.74
376.56	837.91
376.76	912.81
376.95	924.51
377.15	837.91
377.35	894.08
377.54	903.45
377.74	912.81
377.93	961.96
378.13	926.85
378.33	940.90
378.52	940.90
378.72	943.24
378.91	954.94
379.11	954.94
379.31	959.62
379.50	875.36
379.70	943.24
379.89	1020.47
380.09	985.37
380.28	1053.24
380.48	959.62
380.68	976.00
380.87	971.32
381.07	1034.52
381.26	1046.22
381.46	1034.52
381.65	1034.52
381.85	1025.15
382.04	1074.31
382.24	1100.05
382.43	1060.26
382.63	1069.62
382.83	1125.80
383.02	1109.41
383.22	1088.35
383.41	1039.20
383.61	1135.16
383.80	1086.01
384.00	1167.93
384.19	1095.37
384.39	1116.44
384.58	1146.86
384.78	1231.12
384.97	1132.82
385.17	1193.67
385.36	1151.54
385.56	1121.12
385.75	1132.82
385.95	1212.40
386.14	1151.54
386.34	1282.61
386.53	1259.21
386.72	1174.95
386.92	1362.19
387.11	1245.16
387.31	1221.76
387.50	1268.57
387.70	1205.38
387.89	1165.59
388.09	1317.72
388.28	1343.47
388.48	1268.57
388.67	1294.32
388.86	1404.32
389.06	1345.81
389.25	1338.79
389.45	1320.06
389.64	1275.59
389.84	1348.15
390.03	1343.47
390.22	1411.34
390.42	1380.92
390.61	1331.76
390.81	1369.21
391.00	1371.55
391.19	1497.94
391.39	1268.57
391.58	1486.24
391.78	1423.05
391.97	1409.00
392.16	1490.92
392.36	1387.94
392.55	1474.54
392.75	1584.54
392.94	1533.05
393.13	1437.09
393.33	1589.22
393.52	1467.52
393.71	1549.43
393.91	1542.41
394.10	1533.05
394.29	1519.01
394.49	1549.43
394.68	1638.38
394.88	1563.48
395.07	1645.40
395.26	1638.38
395.46	1593.90
395.65	1689.87
395.84	1715.61
396.04	1788.17
396.23	1734.34
396.42	1661.78
396.62	1727.32
396.81	1806.89
397.00	1788.17
397.19	1760.08
397.39	1837.32
397.58	1788.17
397.77	1881.79
397.97	1788.17
398.16	1853.70
398.35	1837.32
398.55	1849.02
398.74	1898.17
398.93	1905.20
399.12	1966.05
399.32	1940.30
399.51	1900.52
399.70	2024.56
399.90	1907.54
400.09	2076.06
400.28	2022.22
400.47	1977.75
400.67	2087.76
400.86	2118.18
401.05	2083.08
401.24	2015.20
401.44	2057.33
401.63	2080.74
401.82	2186.06
402.01	2188.40
402.21	2136.91
402.40	2174.36
402.59	2097.12
402.78	2221.17
402.97	2242.23
403.17	2223.51
403.36	2286.70
403.55	2260.96
403.74	2298.41
403.93	2368.62
404.13	2363.94
404.32	2289.04
404.51	2321.81
404.70	2431.82
404.89	2389.69
405.09	2385.01
405.28	2506.71
405.47	2436.50
405.66	2527.78
405.85	2483.31
406.05	2607.36
406.24	2471.61
406.43	2597.99
406.62	2588.63
406.81	2621.40
407.00	2593.31
407.20	2541.82
407.39	2672.89
407.58	2637.78
407.77	2754.81
407.96	2642.46
408.15	2822.69
408.34	2708.00
408.54	2803.96
408.73	2796.94
408.92	2897.58
409.11	2911.63
409.30	2848.43
409.49	2883.54
409.68	2918.65
409.87	2998.23
410.07	2909.29
410.26	2925.67
410.45	2897.58
410.64	2841.41
410.83	2979.50
411.02	2956.10
411.21	3162.06
411.40	3178.45
411.59	3293.13
411.78	3204.19
411.98	3133.98
412.17	3265.05
412.36	3321.22
412.55	3307.18
412.74	3215.90
412.93	3342.28
413.12	3475.70
413.31	3456.97
413.50	3428.88
413.69	3480.38
413.88	3583.36
414.07	3501.44
414.26	3691.02
414.45	3599.74
414.64	3564.64
414.83	3674.64
415.02	3845.50
415.22	3747.20
415.41	3810.39
415.60	3742.52
415.79	4021.04
415.98	3915.72
416.17	3960.19
416.36	3962.53
416.55	3906.35
416.74	3953.16
416.93	4007.00
417.12	4121.68
417.31	4114.66
417.50	4133.39
417.69	4222.33
417.88	4304.25
418.07	4219.99
418.26	4203.60
418.45	4308.93
418.64	4449.36
418.83	4245.73
419.02	4386.16
419.21	4458.72
419.39	4404.89
419.58	4379.14
419.77	4369.78
419.96	4568.73
420.15	4594.47
420.34	4430.63
420.53	4594.47
420.72	4636.60
420.91	4765.33
421.10	4744.27
421.29	4788.74
421.48	4531.28
421.67	4723.20
421.86	4624.90
422.05	4730.22
422.24	4636.60
422.43	4784.06
422.61	4772.35
422.80	4894.06
422.99	4908.10
423.18	4716.18
423.37	5060.24
423.56	4819.16
423.75	4809.80
423.94	4748.95
424.13	4524.26
424.32	4767.67
424.50	4947.89
424.69	4957.25
424.88	4894.06
425.07	4992.36
425.26	4999.38
425.45	4901.08
425.64	4830.87
425.83	4915.12
426.01	5032.15
426.20	5032.15
426.39	5093.01
426.58	4990.02
426.77	4987.68
426.96	4952.57
427.15	5163.22
427.33	5195.99
427.52	5050.88
427.71	5104.71
427.90	5139.82
428.09	5313.02
428.28	5282.59
428.46	5181.95
428.65	5205.35
428.84	5654.73
429.03	5390.25
429.22	5420.68
429.40	5535.37
429.59	5345.78
429.78	5219.39
429.97	5238.12
430.16	5554.09
430.34	5575.16
430.53	5549.41
430.72	5743.67
430.91	5516.64
431.10	5582.18
431.28	5694.52
431.47	5832.62
431.66	5762.40
431.85	5781.12
432.03	6033.90
432.22	5893.47
432.41	5851.34
432.60	5851.34
432.79	5853.68
432.97	6015.18
433.16	6097.10
433.35	5813.89
433.54	6043.26
433.72	6038.58
433.91	5914.53
434.10	6033.90
434.28	6155.61
434.47	6141.57
434.66	6171.99
434.85	6087.73
435.03	6258.59
435.22	6183.70
435.41	6331.15
435.59	6179.01
435.78	6277.32
435.97	6349.87
436.16	6464.56
436.34	6368.60
436.53	6310.08
436.72	6499.67
436.90	6321.79
437.09	6427.11
437.28	6499.67
437.46	6532.44
437.65	6787.55
437.84	6658.82
438.02	6504.35
438.21	6736.06
438.40	6490.31
438.58	6932.67
438.77	7042.67
438.96	6984.16
439.14	7101.19
439.33	7007.56
439.52	7335.24
439.70	7101.19
439.89	7199.49
440.08	7363.33
440.26	7255.66
440.45	7222.89
440.63	7304.81
440.82	7583.34
441.01	7421.84
441.19	7485.03
441.38	7866.54
441.57	7709.72
441.75	7609.08
441.94	8025.70
442.12	7875.90
442.31	7988.25
442.50	8086.55
442.68	7850.16
442.87	7971.86
443.05	7953.14
443.24	8126.34
443.43	7932.08
443.61	7995.27
443.80	8322.94
443.98	8011.65
444.17	7714.41
444.35	8112.30
444.54	8128.68
444.73	8215.28
444.91	8102.93
445.10	8194.22
445.28	8222.30
445.47	8217.62
445.65	8315.92
445.84	8505.51
446.02	8191.88
446.21	8379.12
446.39	8217.62
446.58	8472.74
446.77	8276.13
446.95	8067.83
447.14	8341.67
447.32	8369.76
447.51	8535.93
447.69	8395.50
447.88	8411.89
448.06	8294.86
448.25	8542.96
448.43	8542.96
448.62	8491.46
448.80	8587.43
448.99	8585.08
449.17	8461.04
449.36	8603.81
449.54	8788.71
449.73	8865.95
449.91	8798.07
450.10	8760.63
450.28	8964.25
450.46	9160.86
450.65	8910.42
450.83	9114.05
451.02	9137.45
451.20	9050.85
451.39	9174.90
451.57	9062.55
451.76	9020.42
451.94	9210.01
452.13	9160.86
452.31	9231.07
452.49	9156.18
452.68	9170.22
452.86	9357.46
453.05	9308.31
453.23	9366.82
453.42	9423.00
453.60	9408.95
453.78	9451.08
453.97	9107.02
454.15	9554.07
454.34	9282.56
454.52	9584.49
454.70	9769.40
454.89	9633.64
455.07	9598.54
455.26	9741.31
455.44	9963.66
455.62	9898.13
455.81	9811.53
455.99	9832.59
456.17	9947.28
456.36	10059.62
456.54	10076.01
456.73	10359.21
456.91	10429.43
457.09	10473.90
457.28	10544.11
457.46	10223.46
457.64	10363.89
457.83	10424.75
458.01	10469.22
458.19	10913.92
458.38	10616.67
458.56	10696.25
458.74	10668.16
458.93	10539.43
459.11	10785.19
459.29	10796.89
459.48	10691.57
459.66	10640.08
459.84	10986.47
460.03	10918.60
460.21	10967.75
460.39	10853.06
460.57	10871.79
460.76	11040.31
460.94	11091.80
461.12	11044.99
461.31	11052.01
461.49	11061.37
461.67	10967.75
461.85	11442.88
462.04	11084.78
462.22	11775.24
462.40	11480.33
462.59	11227.55
462.77	11302.45
462.95	11452.24
463.13	11463.94
463.32	11550.54
463.50	11719.06
463.68	11817.36
463.86	11772.89
464.05	11353.94
464.23	11616.08
464.41	12004.61
464.59	11878.22
464.78	12035.03
464.96	11885.24
465.14	11784.60
465.32	11866.52
465.50	11730.76
465.69	12013.97
465.87	11960.14
466.05	11873.54
466.23	12053.76
466.41	12121.63
466.60	12421.22
466.78	12009.29
466.96	12133.34
467.14	12205.89
467.32	12203.55
467.51	12241.00
467.69	12018.65
467.87	12444.63
468.05	12341.64
468.23	12339.30
468.41	12238.66
468.60	12486.76
468.78	12666.98
468.96	12620.17
469.14	12622.51
469.32	12744.22
469.50	12573.36
469.69	12683.36
469.87	13067.21
470.05	12882.31
470.23	13008.70
470.41	13188.92
470.59	13357.44
470.77	13121.04
470.95	12947.84
471.14	13217.01
471.32	13018.06
471.50	13226.37
471.68	13664.05
471.86	13432.33
472.04	13547.02
472.22	13881.72
472.40	13600.85
472.58	13612.56
472.77	13961.30
472.95	13919.17
473.13	14483.24
473.31	13816.18
473.49	13851.29
473.67	13949.59
473.85	14078.32
474.03	14546.43
474.21	14457.49
474.39	14560.47
474.57	14600.26
474.75	14621.33
474.93	14654.09
475.12	14930.28
475.30	14899.85
475.48	14923.26
475.66	15077.73
475.84	14611.96
476.02	15281.36
476.20	15220.50
476.38	15445.20
476.56	15903.94
476.74	15800.96
476.92	15847.77
477.10	15583.29
477.28	15915.64
477.46	15985.86
477.64	16154.38
477.82	16491.41
478.00	16842.50
478.18	16695.04
478.36	16617.80
478.54	17092.93
478.72	17022.72
478.90	17153.79
479.08	17439.33
479.26	17509.55
479.44	17638.28
479.62	17422.95
479.80	17825.52
479.98	18057.23
480.16	18532.36
480.34	18024.47
480.52	18707.90
480.70	18253.84
480.88	18424.70
481.06	18995.79
481.24	18567.47
481.41	18878.76
481.59	19014.51
481.77	19260.27
481.95	19295.38
482.13	19417.08
482.31	19435.81
482.49	20243.29
482.67	19939.02
482.85	20369.68
483.03	20142.65
483.21	20563.95
483.39	20823.75
483.57	20402.45
483.74	21120.99
483.92	21415.90
484.10	20840.13
484.28	21642.93
484.46	21837.20
484.64	22469.14
484.82	21661.66
485.00	21921.46
485.18	22459.78
485.35	22623.62
485.53	22677.45
485.71	22698.52
485.89	23101.09
486.07	22658.73
486.25	23206.41
486.43	23274.29
486.61	23632.39
486.78	23887.51
486.96	23929.64
487.14	24360.30
487.32	24549.88
487.50	24622.44
487.68	24809.68
487.85	24943.09
488.03	25247.36
488.21	25589.08
488.39	25469.71
488.57	26019.74
488.75	26036.12
488.92	25886.32
489.10	26724.24
489.28	26398.90
489.46	26803.82
489.64	26597.85
489.81	27522.36
489.99	27452.14
490.17	27405.33
490.35	27515.34
490.53	27833.65
490.70	27882.80
490.88	28259.63
491.06	28556.88
491.24	28407.08
491.41	28507.72
491.59	28844.76
491.77	29123.29
491.95	29422.87
492.13	29483.73
492.30	29638.20
492.48	29549.26
492.66	29673.31
492.84	30068.86
493.01	30412.92
493.19	30199.93
493.37	30958.27
493.54	31143.17
493.72	30953.58
493.90	30951.24
494.08	31353.82
494.25	31793.84
494.43	31328.07
494.61	32004.49
494.79	32025.55
494.96	32079.38
495.14	32063.00
495.32	32868.14
495.49	33350.29
495.67	32847.08
495.85	32898.57
496.02	33689.67
496.20	33434.55
496.38	33572.64
496.55	34117.99
496.73	34499.50
496.91	34415.24
497.09	34822.49
497.26	34450.35
497.44	34466.73
497.62	35255.49
497.79	35438.05
497.97	35281.24
498.14	35522.31
498.32	35833.60
498.50	35992.76
498.67	36374.27
498.85	35810.20
499.03	35941.27
499.20	35978.72
499.38	36641.09
499.56	36861.10
499.73	36322.77
499.91	37055.36
500.08	37586.66
500.26	37024.93
500.44	37172.39
500.61	37486.02
500.79	37376.01
500.97	37586.66
501.14	38246.69
501.32	37933.06
501.49	38644.59
501.67	38139.03
501.84	39033.11
502.02	38450.32
502.20	38930.13
502.37	38621.18
502.55	38745.23
502.72	38972.26
502.90	39065.88
503.07	38976.94
503.25	39646.33
503.43	39328.02
503.60	39871.03
503.78	39849.96
503.95	39629.95
504.13	40074.65
504.30	40205.72
504.48	39985.71
504.65	40596.59
504.83	40467.86
505.01	41151.30
505.18	40795.54
505.36	41249.60
505.53	41017.89
505.71	41635.79
505.88	41436.84
506.06	41139.60
506.23	41556.21
506.41	41509.40
506.58	41780.90
506.76	41546.85
506.93	42094.53
507.11	42139.00
507.28	42323.91
507.46	41951.76
507.63	42621.16
507.81	42408.17
507.98	42674.99
508.16	42820.10
508.33	43468.43
508.50	42836.48
508.68	43131.39
508.85	43107.99
509.03	43349.06
509.20	43433.32
509.38	43746.95
509.55	43847.60
509.73	44231.44
509.90	44332.09
510.08	44149.53
510.25	44385.92
510.42	43885.04
510.60	44636.36
510.77	44823.60
510.95	45059.99
511.12	44615.29
511.30	44912.54
511.47	45052.97
511.64	45345.54
511.82	45593.64
511.99	45434.48
512.17	45818.33
512.34	45256.60
512.51	46361.33
512.69	45390.01
512.86	45705.98
513.04	46141.32
513.21	46127.28
513.38	46342.61
513.56	46799.01
513.73	46351.97
513.90	47019.02
514.08	46234.94
514.25	46911.36
514.43	46618.79
514.60	47065.83
514.77	46775.61
514.95	47063.49
515.12	47140.73
515.29	46522.83
515.47	47524.58
515.64	48009.07
515.81	47545.64
515.99	47847.57
516.16	47873.32
516.33	47674.37
516.51	48186.95
516.68	48011.41
516.85	48250.14
517.03	48563.78
517.20	48652.72
517.37	48406.96
517.54	48128.44
517.72	48463.13
517.89	49050.61
518.06	48765.06
518.24	48886.77
518.41	48687.82
518.58	48949.96
518.75	48898.47
518.93	49113.80
519.10	49181.68
519.27	49097.42
519.45	49359.56
519.62	49535.10
519.79	49490.63
519.96	49837.03
520.14	50246.62
520.31	49595.95
520.48	50094.49
520.65	49750.43
520.83	50417.48
521.00	50096.83
521.17	49968.10
521.34	50546.21
521.52	50581.32
521.69	50401.10
521.86	50761.54
522.03	50887.93
522.20	51011.98
522.38	51089.21
522.55	50941.76
522.72	50679.62
522.89	50862.18
523.07	51494.13
523.24	50953.46
523.41	51452.00
523.58	50770.90
523.75	51454.34
523.92	51498.81
524.10	51854.57
524.27	51639.24
524.44	51779.67
524.61	51653.28
524.78	52259.48
524.96	51842.87
525.13	51899.04
525.30	52189.27
525.47	52172.88
525.64	52142.45
525.81	52282.89
525.98	52409.28
526.16	52303.95
526.33	51978.62
526.50	52514.60
526.67	52463.11
526.84	52772.06
527.01	52676.10
527.18	52552.05
527.36	52460.77
527.53	53183.99
527.70	53183.99
527.87	53088.03
528.04	52982.71
528.21	53296.34
528.38	52846.96
528.55	53193.36
528.72	53240.17
528.89	53123.14
529.07	53338.47
529.24	53158.25
529.41	53153.57
529.58	53069.31
529.75	53415.71
529.92	53319.74
530.09	53389.96
530.26	53694.23
530.43	53537.41
530.60	53450.81
530.77	53673.16
530.94	54068.72
531.11	53635.72
531.28	53895.52
531.46	53851.05
531.63	53876.79
531.80	53783.17
531.97	54234.89
532.14	54291.07
532.31	54110.85
532.48	54433.84
532.65	54387.03
532.82	54241.92
532.99	54394.05
533.16	54239.57
533.33	54616.40
533.50	54550.87
533.67	54548.53
533.84	54307.45
534.01	54824.71
534.18	54543.84
534.35	55016.63
534.52	54667.89
534.69	54906.63
534.86	55150.04
535.03	54490.01
535.20	55025.99
535.37	55168.77
535.54	55126.64
535.71	55131.32
535.88	55468.36
536.05	55435.59
536.22	55302.18
536.38	55515.17
536.55	55285.79
536.72	55433.25
536.89	55257.71
537.06	55451.97
537.23	55442.61
537.40	55662.62
537.57	55634.53
537.74	55594.74
537.91	55707.09
538.08	55590.06
538.25	55414.52
538.42	55662.62
538.59	55716.45
538.75	55599.43
538.92	55845.18
539.09	55952.85
539.26	55854.54
539.43	55826.46
539.60	55777.31
539.77	55810.07
539.94	56238.39
540.11	55948.17
540.28	56268.82
540.44	56348.40
540.61	56072.21
540.78	56093.28
540.95	56189.24
541.12	56158.81
541.29	56236.05
541.46	56341.38
541.62	56184.56
541.79	56453.72
541.96	56243.07
542.13	56453.72
542.30	56385.85
542.47	56631.60
542.63	56715.86
542.80	56769.69
542.97	56729.90
543.14	57256.53
543.31	57080.98
543.48	56800.12
543.64	57497.60
543.81	57413.34
543.98	57008.43
544.15	57085.67
544.32	57219.08
544.48	57179.29
544.65	57022.47
544.82	57202.69
544.99	57050.56
545.16	57249.50
545.32	57034.17
545.49	57326.74
545.66	57516.32
545.83	57382.91
546.00	57471.85
546.16	57371.21
546.33	57525.69
546.50	57029.49
546.67	57499.94
546.83	57251.84
547.00	57495.26
547.17	57600.58
547.34	57626.33
547.50	57712.93
547.67	57778.46
547.84	57726.97
548.00	58089.76
548.17	57839.32
548.34	58033.58
548.51	58171.67
548.67	58066.35
548.84	57815.91
549.01	57813.57
549.18	57949.32
549.34	57958.69
549.51	58347.21
549.68	58127.20
549.84	57925.92
550.01	58155.29
550.18	58000.82
550.34	58234.87
550.51	58143.59
550.68	58073.37
550.84	57733.99
551.01	58199.76
551.18	58216.14
551.34	58181.04
551.51	58279.34
551.68	58183.38
551.84	58328.49
552.01	58358.92
552.18	58405.73
552.34	58209.12
552.51	58337.85
552.68	58244.23
552.84	58475.94
553.01	58801.28
553.18	58585.95
553.34	58604.67
553.51	58611.70
553.67	58567.23
553.84	58681.91
554.01	58855.11
554.17	58529.78
554.34	58822.34
554.51	58728.72
554.67	58927.67
554.84	58939.37
555.00	58843.41
555.17	58738.08
555.33	58880.86
555.50	58857.45
555.67	58838.73
555.83	58911.28
556.00	59075.12
556.16	59044.69
556.33	58820.00
556.50	59009.59
556.66	59068.10
556.83	59007.25
556.99	59103.21
557.16	59302.15
557.32	59370.03
557.49	59538.55
557.65	59018.95
557.82	59229.60
557.98	59309.18
558.15	59224.92
558.32	59306.83
558.48	59138.32
558.65	59201.51
558.81	59257.68
558.98	59402.80
559.14	59243.64
559.31	59423.86
559.47	59494.08
559.64	59444.93
559.80	59426.20
559.97	59503.44
560.13	59524.50
560.30	59320.88
560.46	59688.34
560.63	59599.40
560.79	59512.80
560.96	59625.15
561.12	59540.89
561.29	59533.87
561.45	59667.28
561.61	59660.26
561.78	59721.11
561.94	59648.55
562.11	59634.51
562.27	59379.39
562.44	59650.89
562.60	59770.26
562.77	59716.43
562.93	59531.53
563.10	59732.81
563.26	59824.09
563.42	59927.08
563.59	59873.24
563.75	59634.51
563.92	59896.65
564.08	59678.98
564.24	60097.94
564.41	59732.81
564.57	59749.20
564.74	59873.24
564.90	60109.64
565.07	59812.39
565.23	59987.93
565.39	59952.82
565.56	60076.87
565.72	60130.70
565.88	60186.88
566.05	59882.61
566.21	59945.80
566.38	60053.47
566.54	59990.27
566.70	60236.03
566.87	60245.39
567.03	59842.82
567.19	60317.95
567.36	60259.43
567.52	60212.62
567.68	60250.07
567.85	60121.34
568.01	60226.66
568.17	60088.57
568.34	60044.10
568.50	60100.28
568.66	60109.64
568.83	60130.70
568.99	60151.77
569.15	60205.60
569.32	60348.37
569.48	59859.20
569.64	60453.70
569.81	60250.07
569.97	60168.15
570.13	60313.26
570.30	60104.96
570.46	60107.30
570.62	60231.35
570.78	60439.65
570.95	60294.54
571.11	60486.46
571.27	60233.69
571.43	60348.37
571.60	60371.78
571.76	60221.98
571.92	60463.06
572.09	60292.20
572.25	60346.03
572.41	60140.07
572.57	60376.46
572.74	60662.00
572.90	60357.74
573.06	60329.65
573.22	60418.59
573.38	60535.62
573.55	60456.04
573.71	60434.97
573.87	60617.53
574.03	60346.03
574.20	60390.50
574.36	60472.42
574.52	60671.37
574.68	60451.36
574.84	60540.30
575.01	60750.94
575.17	60542.64
575.33	60420.93
575.49	60437.31
575.65	60540.30
575.82	60762.65
575.98	60404.55
576.14	60699.45
576.30	60385.82
576.46	60481.78
576.62	60554.34
576.79	60537.96
576.95	60399.86
577.11	60626.90
577.27	60650.30
577.43	60500.51
577.59	60669.03
577.75	60654.98
577.92	60472.42
578.08	60397.52
578.24	60418.59
578.40	60669.03
578.56	60678.39
578.72	60479.44
578.88	60683.07
579.04	60828.18
579.21	60449.02
579.37	60741.58
579.53	60882.02
579.69	60460.72
579.85	60446.68
580.01	60624.56
580.17	60456.04
580.33	60725.20
580.49	60781.37
580.65	60704.13
580.82	60804.78
580.98	60549.66
581.14	60683.07
581.30	60687.75
581.46	60636.26
581.62	60718.18
581.78	60739.24
581.94	60603.49
582.10	60711.16
582.26	60589.45
582.42	60701.79
582.58	60809.46
582.74	60580.09
582.90	60816.48
583.06	60748.60
583.22	60449.02
583.38	60814.14
583.54	60706.47
583.70	60816.48
583.86	60931.17
584.02	60776.69
584.18	60832.86
584.34	60720.52
584.50	60533.28
584.66	60535.62
584.82	60802.44
584.98	60818.82
585.14	60940.53
585.30	60938.19
585.46	60814.14
585.62	60954.57
585.78	61017.77
585.94	60640.94
586.10	61055.21
586.26	60772.01
586.42	60809.46
586.58	61186.28
586.74	60797.76
586.90	60790.73
587.06	60842.23
587.22	60949.89
587.38	60797.76
587.54	61015.43
587.70	60898.40
587.86	60928.83
588.02	60846.91
588.18	60975.64
588.34	60912.44
588.49	60739.24
588.65	61097.34
588.81	60898.40
588.97	61034.15
589.13	60954.57
589.29	60985.00
589.45	61205.01
589.61	61045.85
589.77	61242.46
589.93	60961.59
590.08	60849.25
590.24	61200.33
590.40	61174.58
590.56	61249.48
590.72	61036.49
590.88	60905.42
591.04	61310.33
591.20	61181.60
591.35	61329.06
591.51	61410.98
591.67	61432.04
591.83	61174.58
591.99	61286.93
592.15	61066.92
592.31	61303.31
592.46	61179.26
592.62	61216.71
592.78	61183.94
592.94	61237.78
593.10	61265.86
593.26	61345.44
593.41	61286.93
593.57	61193.31
593.73	61296.29
593.89	61490.55
594.05	61549.07
594.20	61031.81
594.36	61497.58
594.52	61249.48
594.68	61080.96
594.84	61197.99
594.99	61315.01
595.15	61387.57
595.31	61186.28
595.47	61270.54
595.62	61296.29
595.78	61151.18
595.94	61310.33
596.10	61359.48
596.25	61305.65
596.41	61347.78
596.57	61389.91
596.73	61286.93
596.88	61296.29
597.04	61506.94
597.20	61434.38
597.36	61666.09
597.51	61385.23
597.67	61462.47
597.83	61441.40
597.99	61513.96
598.14	61169.90
598.30	61535.02
598.46	61418.00
598.61	61373.53
598.77	61240.12
598.93	61441.40
599.09	61537.36
599.24	61881.42
599.40	61780.78
599.56	61626.31
599.71	61455.45
599.87	61689.50
600.03	61511.62
600.18	61595.88
600.34	61504.60
600.50	61455.45
600.65	61609.92
600.81	61836.95
600.97	61593.54
601.12	61375.87
601.28	61525.66
601.44	61502.26
601.59	61623.96
601.75	61275.22
601.91	61577.15
602.06	61535.02
602.22	61841.63
602.37	61570.13
602.53	61619.28
602.69	61506.94
602.84	61481.19
603.00	61762.06
603.16	61595.88
603.31	61712.91
603.47	61642.69
603.62	61408.64
603.78	61581.84
603.94	61614.60
604.09	61682.48
604.25	61605.24
604.40	61574.81
604.56	61520.98
604.71	61614.60
604.87	61495.24
605.03	61478.85
605.18	61439.06
605.34	61563.11
605.49	61446.08
605.65	61565.45
605.80	61408.64
605.96	61712.91
606.12	61766.74
606.27	61612.26
606.43	61513.96
606.58	61698.86
606.74	61542.05
606.89	61425.02
607.05	61724.61
607.20	61546.73
607.36	61380.55
607.51	61467.15
607.67	61303.31
607.82	61450.77
607.98	61434.38
608.13	61441.40
608.29	61382.89
608.44	61499.92
608.60	61275.22
608.75	61492.89
608.91	61406.30
609.06	61406.30
609.22	61492.89
609.37	61577.15
609.53	61502.26
609.68	61319.70
609.84	61174.58
609.99	61457.79
610.15	61495.24
610.30	61366.51
610.46	61340.76
610.61	61303.31
610.76	61366.51
610.92	61322.04
611.07	61497.58
611.23	61429.70
611.38	61216.71
611.54	61418.00
611.69	61415.66
611.84	61520.98
612.00	61478.85
612.15	61378.21
612.31	61382.89
612.46	61207.35
612.62	61312.67
612.77	61235.44
612.92	61469.49
613.08	61291.61
613.23	61233.10
613.39	61195.65
613.54	61085.64
613.69	61235.44
613.85	61286.93
614.00	61336.08
614.15	61366.51
614.31	61263.52
614.46	61118.41
614.62	61233.10
614.77	61296.29
614.92	61272.88
615.08	61293.95
615.23	61354.80
615.38	61258.84
615.54	61226.07
615.69	61237.78
615.84	61291.61
616.00	61237.78
616.15	61017.77
616.30	61237.78
616.46	60956.91
616.61	61104.37
616.76	61106.71
616.92	60956.91
617.07	61151.18
617.22	60872.65
617.37	60949.89
617.53	61109.05
617.68	61104.37
617.83	61144.16
617.99	60928.83
618.14	60858.61
618.29	61010.74
618.45	60701.79
618.60	60809.46
618.75	60779.03
618.90	61024.79
619.06	61052.87
619.21	60952.23
619.36	61160.54
619.51	61118.41
619.67	60633.92
619.82	60947.55
619.97	61041.17
620.12	60949.89
620.28	60750.94
620.43	60931.17
620.58	60811.80
620.73	60596.47
620.89	60823.50
621.04	61013.08
621.19	60772.01
621.34	60790.73
621.49	60650.30
621.65	60743.92
621.80	60793.07
621.95	60757.97
622.10	60638.60
622.25	60835.20
622.41	60580.09
622.56	60683.07
622.71	60748.60
622.86	60437.31
623.01	60441.99
623.16	60563.70
623.32	60580.09
623.47	60575.40
623.62	60629.24
623.77	60598.81
623.92	60680.73
624.07	60704.13
624.23	60673.71
624.38	60523.91
624.53	60563.70
624.68	60444.33
624.83	60425.61
624.98	60659.66
625.13	60315.61
625.29	60411.57
625.44	60243.05
625.59	60617.53
625.74	60643.28
625.89	60439.65
626.04	60299.22
626.19	60196.24
626.34	60301.56
626.49	60219.64
626.65	60243.05
626.80	60397.52
626.95	60100.28
627.10	60121.34
627.25	60149.43
627.40	60039.42
627.55	60353.05
627.70	60327.31
627.85	60039.42
628.00	60037.08
628.15	60264.11
628.30	60023.04
628.45	60163.47
628.60	60116.66
628.76	60065.17
628.91	60250.07
629.06	60282.84
629.21	60102.62
629.36	59980.91
629.51	60086.23
629.66	60067.51
629.81	59800.69
629.96	59826.43
630.11	59678.98
630.26	59845.16
630.41	60156.45
630.56	59725.79
630.71	59910.69
630.86	59835.80
631.01	59807.71
631.16	59985.59
631.31	59702.38
631.46	59470.67
631.61	59742.17
631.76	59770.26
631.91	59861.54
632.06	59866.22
632.21	59735.15
632.36	59650.89
632.51	59330.24
632.66	59676.64
632.81	59440.24
632.96	59702.38
633.10	59646.21
633.25	59693.02
633.40	59807.71
633.55	59433.22
633.70	59742.17
633.85	59723.45
634.00	59454.29
634.15	59463.65
634.30	59405.14
634.45	59568.97
634.60	59756.22
634.75	59257.68
634.90	59182.79
635.05	59491.74
635.19	59594.72
635.34	59365.35
635.49	59344.28
635.64	59325.56
635.79	59391.09
635.94	59573.66
636.09	59458.97
636.24	59276.41
636.39	59547.91
636.53	59407.48
636.68	59288.11
636.83	59465.99
636.98	59426.20
637.13	59358.33
637.28	59199.17
637.43	59292.79
637.57	59245.98
637.72	59260.02
637.87	59236.62
638.02	59290.45
638.17	59332.58
638.32	59187.47
638.46	59166.40
638.61	59337.26
638.76	59288.11
638.91	59152.36
639.06	58901.92
639.20	59107.89
639.35	58841.07
639.50	58937.03
639.65	59119.59
639.80	59168.74
639.94	59107.89
640.09	58897.24
640.24	59018.95
640.39	58918.31
640.54	58740.42
640.68	58939.37
640.83	58934.69
640.98	58803.62
641.13	58763.83
641.27	59168.74
641.42	58876.18
641.57	58904.26
641.72	58777.87
641.86	58801.28
642.01	58457.22
642.16	58733.40
642.31	58635.10
642.45	58712.34
642.60	58714.68
642.75	58944.05
642.90	58981.50
643.04	58693.61
643.19	58574.25
643.34	58574.25
643.48	58553.18
643.63	58721.70
643.78	58478.28
643.93	58653.82
644.07	58637.44
644.22	58511.05
644.37	58354.24
644.51	58225.51
644.66	58576.59
644.81	58520.41
644.95	58309.77
645.10	58377.64
645.25	58223.17
645.39	58501.69
645.54	58424.45
645.69	58340.19
645.83	58438.50
645.98	58319.13
646.13	58316.79
646.27	58291.04
646.42	58398.71
646.57	58550.84
646.71	58328.49
646.86	58398.71
647.00	58361.26
647.15	58108.48
647.30	58417.43
647.44	58365.94
647.59	58464.24
647.74	58024.22
647.88	58277.00
648.03	58452.54
648.17	58155.29
648.32	58042.95
648.47	58115.50
648.61	58117.84
648.76	58209.12
648.90	58174.02
649.05	58152.95
649.20	58230.19
649.34	58288.70
649.49	58291.04
649.63	58300.40
649.78	58239.55
649.92	58021.88
650.07	58277.00
650.21	57946.98
650.36	58066.35
650.51	57855.70
650.65	58017.20
650.80	58166.99
650.94	57783.15
651.09	57874.43
651.23	57467.17
651.38	57862.72
651.52	57666.12
651.67	57698.89
651.81	57811.23
651.96	57673.14
652.10	57563.14
652.25	57429.72
652.39	57939.96
652.54	57572.50
652.68	57392.28
652.83	57813.57
652.97	57682.50
653.12	57588.88
653.26	57373.55
653.41	57958.69
653.55	57513.98
653.70	57539.73
653.84	57511.64
653.99	57731.65
654.13	57375.89
654.27	57607.61
654.42	57338.44
654.56	57516.32
654.71	57488.24
654.85	57649.74
655.00	57560.79
655.14	57153.54
655.29	57209.71
655.43	57172.27
655.57	57471.85
655.72	57207.37
655.86	57387.60
656.01	57368.87
656.15	57237.80
656.30	57401.64
656.44	57497.60
656.58	57340.78
656.73	57387.60
656.87	57242.48
657.01	57298.65
657.16	57258.87
657.30	56996.73
657.45	57010.77
657.59	57099.71
657.73	56954.60
657.88	56853.95
658.02	57069.28
658.16	57109.07
658.31	56996.73
658.45	57022.47
658.60	56905.44
658.74	57041.20
658.88	56816.50
659.03	56725.22
659.17	56676.07
659.31	56837.57
659.46	56917.15
659.60	56884.38
659.74	56699.48
659.89	56680.75
660.03	56783.74
660.17	56856.29
660.32	56711.18
660.46	56537.98
660.60	56559.05
660.74	56650.33
660.89	56708.84
661.03	56364.78
661.17	56142.43
661.32	56083.92
661.46	56285.20
661.60	56289.88
661.74	56301.59
661.89	56156.47
662.03	55906.04
662.17	55962.21
662.31	56112.00
662.46	56182.22
662.60	56257.12
662.74	55936.46
662.88	55903.70
663.03	55796.03
663.17	55941.14
663.31	55901.36
663.45	55669.64
663.60	55550.27
663.74	55449.63
663.88	55566.66
664.02	55627.51
664.17	55634.53
664.31	55093.87
664.45	55531.55
664.59	55313.88
664.73	55224.94
664.88	55311.54
665.02	55051.74
665.16	55285.79
665.30	54972.16
665.44	55267.07
665.59	55136.00
665.73	55119.62
665.87	55056.42
666.01	55037.70
666.15	55058.76
666.29	55030.68
666.44	55014.29
666.58	54817.69
666.72	54642.15
666.86	54518.10
667.00	54869.18
667.14	54546.18
667.28	54630.44
667.43	54398.73
667.57	54490.01
667.71	54560.23
667.85	54312.13
667.99	54040.63
668.13	54351.92
668.27	54281.70
668.41	54293.41
668.56	54052.33
668.70	53876.79
668.84	53888.49
668.98	53963.39
669.12	53841.68
669.26	54129.57
669.40	54248.94
669.54	53839.34
669.68	54094.46
669.82	53731.68
669.96	53822.96
670.10	53851.05
670.25	53806.58
670.39	53736.36
670.53	53745.72
670.67	53467.20
670.81	53829.98
670.95	53401.66
671.09	53277.61
671.23	53394.64
671.37	53455.50
671.51	53301.02
671.65	53188.67
671.79	53214.42
671.93	53038.88
672.07	52978.03
672.21	52786.10
672.35	52584.82
672.49	52257.14
672.63	52676.10
672.77	52697.16
672.91	52694.82
673.05	52114.37
673.19	52193.95
673.33	52055.85
673.47	52266.50
673.61	52437.36
673.75	51882.66
673.89	51746.90
674.03	51817.12
674.17	51636.90
674.31	51538.60
674.45	51702.43
674.59	51482.42
674.73	51812.44
674.87	51536.26
675.01	51550.30
675.15	51168.79
675.29	51250.71
675.43	51360.72
675.56	51283.48
675.70	50623.45
675.84	50794.31
675.98	49876.82
676.12	50340.24
676.26	50576.64
676.40	50433.86
676.54	50541.53
676.68	50506.42
676.82	49883.84
676.96	50333.22
677.10	49757.45
677.23	49682.55
677.37	49846.39
677.51	49474.24
677.65	49195.72
677.79	48835.28
677.93	48795.49
678.07	48975.71
678.21	48549.73
678.34	48479.52
678.48	48608.25
678.62	48741.66
678.76	48594.20
678.90	48254.82
679.04	48411.64
679.18	48044.18
679.31	47744.59
679.45	47847.57
679.59	47952.90
679.73	47707.14
679.87	47203.92
680.00	47248.39
680.14	46920.72
680.28	47473.09
680.42	46791.99
680.56	46408.14
680.70	46384.74
680.83	46307.50
680.97	46429.21
681.11	46314.52
681.25	46230.26
681.39	46101.53
681.52	46314.52
681.66	46223.24
681.80	45635.77
681.94	45542.14
682.07	45516.40
682.21	45067.02
682.35	45312.77
682.49	44739.34
682.62	44729.98
682.76	44973.39
682.90	45050.63
683.04	44807.22
683.17	44624.65
683.31	43981.01
683.45	44299.32
683.59	43985.69
683.72	43386.51
683.86	43480.13
684.00	43765.68
684.13	43955.26
684.27	43693.12
684.41	43643.97
684.55	43096.28
684.68	43281.19
684.82	43040.11
684.96	42366.04
685.09	42920.74
685.23	42059.43
685.37	42408.17
685.50	42464.34
685.64	41942.40
685.78	42047.72
685.91	41684.94
686.05	41413.44
686.19	40751.07
686.32	40992.14
686.46	40816.60
686.60	40573.19
686.73	40491.27
686.87	40832.99
687.01	40631.70
687.14	40692.55
687.28	40280.62
687.42	40182.32
687.55	39676.76
687.69	39941.24
687.82	39246.10
687.96	39400.58
688.10	39711.87
688.23	39360.79
688.37	39463.77
688.50	38761.61
688.64	38778.00
688.78	38260.74
688.91	38256.06
689.05	38445.64
689.18	38314.57
689.32	37397.08
689.46	37415.80
689.59	37488.36
689.73	37591.34
689.86	37123.24
690.00	37130.26
690.13	37331.54
690.27	36973.44
690.41	37411.12
690.54	36755.77
690.68	36547.47
690.81	36816.63
690.95	36388.31
691.08	36194.04
691.22	35433.37
691.35	35157.19
691.49	35992.76
691.62	36044.25
691.76	35002.71
691.89	35019.10
692.03	35079.95
692.16	35129.10
692.30	35152.51
692.43	34726.53
692.57	34541.63
692.70	33944.79
692.84	34305.23
692.97	34026.71
693.11	34314.59
693.24	33979.90
693.38	33432.21
693.51	33216.88
693.65	33205.18
693.78	33076.45
693.92	33366.68
694.05	33144.33
694.19	33001.55
694.32	32631.75
694.45	32678.56
694.59	32580.26
694.72	31997.46
694.86	32350.88
694.99	31882.78
695.13	31452.12
695.26	31543.40
695.39	31449.78
695.53	31725.96
695.66	31627.66
695.80	31117.42
695.93	30948.90
696.07	30464.41
696.20	30410.58
696.33	30768.68
696.47	30754.64
696.60	30799.11
696.73	30136.74
696.87	30223.34
697.00	29809.06
697.14	30164.82
697.27	29914.39
697.40	29376.06
697.54	29668.63
697.67	29120.95
697.80	29207.55
697.94	29235.63
698.07	29102.22
698.21	28746.46
698.34	28954.77
698.47	28573.26
698.61	28231.54
698.74	28451.55
698.87	28430.49
699.01	27740.03
699.14	28020.89
699.27	27683.86
699.40	28016.21
699.54	27826.63
699.67	27585.55
699.80	27388.95
699.94	26749.98
700.07	27143.19
700.20	27023.83
700.34	26764.03
700.47	25958.88
700.60	26305.28
700.73	26225.70
700.87	25659.29
701.00	25745.89
701.13	25514.18
701.26	25476.73
701.40	26036.12
701.53	25708.44
701.66	25820.79
701.79	25156.08
701.93	24893.94
702.06	24978.20
702.19	24795.64
702.32	24823.72
702.46	24503.07
702.59	24507.75
702.72	24252.63
702.85	23988.15
702.99	24020.92
703.12	24233.91
703.25	23620.69
703.38	23604.30
703.51	23421.74
703.65	23318.76
703.78	23080.02
703.91	22827.24
704.04	22953.63
704.17	23143.22
704.31	22728.94
704.44	22539.36
704.57	22574.47
704.70	22380.20
704.83	22101.68
704.96	22424.67
705.10	22288.92
705.23	22300.62
>>>>>End Processed Spectral Data<<<<<
