SpectraSuite Data File
++++++++++++++++++++++++++++++++++++
Date: Fri Oct 25 10:47:15 EDT 2013
User: price-jones
Dark Spectrum Present: No
Reference Spectrum Present: No
Number of Sampled Component Spectra: 1
Spectrometers: USB2+H05261
Integration Time (usec): 100000 (USB2+H05261)
Spectra Averaged: 1 (USB2+H05261)
Boxcar Smoothing: 0 (USB2+H05261)
Correct for Electrical Dark: No (USB2+H05261)
Strobe/Lamp Enabled: No (USB2+H05261)
Correct for Detector Non-linearity: No (USB2+H05261)
Correct for Stray Light: No (USB2+H05261)
Number of Pixels in Processed Spectrum: 2048
>>>>>Begin Processed Spectral Data<<<<<
365.73	152.13
365.92	152.13
366.12	152.13
366.32	74.90
366.52	86.60
366.72	0.00
366.91	0.00
367.11	25.75
367.31	51.49
367.51	49.15
367.70	21.06
367.90	16.38
368.10	0.00
368.30	35.11
368.49	0.00
368.69	35.11
368.89	28.09
369.09	42.13
369.28	77.24
369.48	53.83
369.68	77.24
369.87	126.39
370.07	72.56
370.27	140.43
370.47	119.37
370.66	292.57
370.86	353.42
371.06	383.85
371.25	430.66
371.45	381.51
371.65	390.87
371.84	435.34
372.04	451.72
372.24	404.91
372.44	468.11
372.63	512.58
372.83	461.09
373.03	507.90
373.22	489.17
373.42	496.19
373.62	517.26
373.81	543.00
374.01	550.03
374.21	615.56
374.40	507.90
374.60	538.32
374.79	568.75
374.99	477.47
375.19	545.34
375.38	594.50
375.58	514.92
375.78	603.86
375.97	566.41
376.17	622.58
376.37	540.66
376.56	545.34
376.76	524.28
376.95	517.26
377.15	662.37
377.35	521.94
377.54	580.45
377.74	559.39
377.93	561.73
378.13	566.41
378.33	545.34
378.52	552.37
378.72	580.45
378.91	613.22
379.11	634.29
379.31	550.03
379.50	552.37
379.70	662.37
379.89	678.76
380.09	634.29
380.28	615.56
380.48	582.79
380.68	697.48
380.87	613.22
381.07	697.48
381.26	711.52
381.46	615.56
381.65	711.52
381.85	636.63
382.04	641.31
382.24	613.22
382.43	709.18
382.63	552.37
382.83	674.07
383.02	636.63
383.22	718.54
383.41	660.03
383.61	578.11
383.80	671.73
384.00	678.76
384.19	678.76
384.39	737.27
384.58	755.99
384.78	753.65
384.97	667.05
385.17	772.38
385.36	697.48
385.56	758.33
385.75	737.27
385.95	624.92
386.14	774.72
386.34	788.76
386.53	732.59
386.72	760.67
386.92	788.76
387.11	816.85
387.31	802.80
387.50	755.99
387.70	732.59
387.89	788.76
388.09	781.74
388.28	828.55
388.48	816.85
388.67	807.48
388.86	816.85
389.06	851.96
389.25	884.72
389.45	858.98
389.64	812.17
389.84	908.13
390.03	870.68
390.22	819.19
390.42	873.02
390.61	887.06
390.81	844.93
391.00	910.47
391.19	919.83
391.39	875.36
391.58	938.55
391.78	971.32
391.97	997.07
392.16	849.61
392.36	1029.84
392.55	884.72
392.75	945.58
392.94	973.66
393.13	997.07
393.33	933.87
393.52	1011.11
393.71	976.00
393.91	1034.52
394.10	994.73
394.29	931.53
394.49	961.96
394.68	1090.69
394.88	1027.50
395.07	1116.44
395.26	1029.84
395.46	1142.18
395.65	1188.99
395.84	1078.99
396.04	1121.12
396.23	1057.92
396.42	1057.92
396.62	1114.10
396.81	1181.97
397.00	1135.16
397.19	1060.26
397.39	1200.69
397.58	1146.86
397.77	1252.19
397.97	1144.52
398.16	1123.46
398.35	1256.87
398.55	1200.69
398.74	1167.93
398.93	1240.48
399.12	1294.32
399.32	1299.00
399.51	1273.25
399.70	1341.13
399.90	1320.06
400.09	1317.72
400.28	1322.40
400.47	1383.26
400.67	1413.68
400.86	1345.81
401.05	1458.15
401.24	1338.79
401.44	1385.60
401.63	1376.24
401.82	1474.54
402.01	1416.02
402.21	1462.83
402.40	1380.92
402.59	1551.78
402.78	1387.94
402.97	1362.19
403.17	1413.68
403.36	1476.88
403.55	1556.46
403.74	1600.93
403.93	1383.26
404.13	1652.42
404.32	1621.99
404.51	1561.14
404.70	1621.99
404.89	1631.35
405.09	1612.63
405.28	1647.74
405.47	1579.86
405.66	1661.78
405.85	1722.63
406.05	1732.00
406.24	1739.02
406.43	1703.91
406.62	1727.32
406.81	1832.64
407.00	1774.13
407.20	1727.32
407.39	1783.49
407.58	1771.79
407.77	1830.30
407.96	1823.28
408.15	1914.56
408.34	1769.44
408.54	1921.58
408.73	1947.33
408.92	1996.48
409.11	1970.73
409.30	2033.93
409.49	1959.03
409.68	1984.77
409.87	1963.71
410.07	1980.09
410.26	2080.74
410.45	2057.33
410.64	2054.99
410.83	2129.89
411.02	2101.80
411.21	2146.27
411.40	2106.48
411.59	2174.36
411.78	2143.93
411.98	2221.17
412.17	2188.40
412.36	2214.15
412.55	2310.11
412.74	2345.22
412.93	2326.49
413.12	2258.62
413.31	2459.90
413.50	2352.24
413.69	2317.13
413.88	2476.29
414.07	2415.43
414.26	2445.86
414.45	2555.86
414.64	2499.69
414.83	2539.48
415.02	2586.29
415.22	2684.59
415.41	2672.89
415.60	2682.25
415.79	2635.44
415.98	2715.02
416.17	2775.88
416.36	2747.79
416.55	2698.64
416.74	2803.96
416.93	2848.43
417.12	2881.20
417.31	2869.50
417.50	2932.69
417.69	2736.09
417.88	2888.22
418.07	2949.08
418.26	2972.48
418.45	2963.12
418.64	2953.76
418.83	3049.72
419.02	3176.11
419.21	3040.36
419.39	2946.73
419.58	3014.61
419.77	3075.46
419.96	3063.76
420.15	2993.55
420.34	3187.81
420.53	3185.47
420.72	3190.15
420.91	3218.24
421.10	3302.50
421.29	3337.60
421.48	3267.39
421.67	3325.90
421.86	3295.47
422.05	3258.03
422.24	3283.77
422.43	3414.84
422.61	3358.67
422.80	3417.18
422.99	3356.33
423.18	3442.93
423.37	3321.22
423.56	3485.06
423.75	3445.27
423.94	3215.90
424.13	3150.36
424.32	3335.26
424.50	3520.17
424.69	3543.57
424.88	3492.08
425.07	3323.56
425.26	3419.52
425.45	3361.01
425.64	3346.97
425.83	3435.91
426.01	3466.33
426.20	3550.59
426.39	3396.12
426.58	3543.57
426.77	3414.84
426.96	3515.48
427.15	3421.86
427.33	3433.57
427.52	3454.63
427.71	3463.99
427.90	3620.81
428.09	3606.77
428.28	3616.13
428.46	3707.41
428.65	3566.98
428.84	3723.79
429.03	3786.99
429.22	3758.90
429.40	3695.71
429.59	3632.51
429.78	3503.78
429.97	3522.51
430.16	3609.11
430.34	3667.62
430.53	3754.22
430.72	3770.60
430.91	3882.95
431.10	3740.18
431.28	3927.42
431.47	3920.40
431.66	3829.12
431.85	3995.29
432.03	3995.29
432.22	4014.02
432.41	4023.38
432.60	4126.36
432.79	3992.95
432.97	4248.07
433.16	4102.96
433.35	4028.06
433.54	4152.11
433.72	4198.92
433.91	4011.68
434.10	4124.02
434.28	4184.88
434.47	4236.37
434.66	4140.41
434.85	4227.01
435.03	4372.12
435.22	4241.05
435.41	4318.29
435.59	4313.61
435.78	4388.50
435.97	4435.32
436.16	4327.65
436.34	4355.74
436.53	4393.19
436.72	4395.53
436.90	4397.87
437.09	4514.89
437.28	4519.57
437.46	4526.60
437.65	4552.34
437.84	4521.92
438.02	4367.44
438.21	4608.51
438.40	4559.36
438.58	4760.65
438.77	4688.09
438.96	4671.71
439.14	4844.91
439.33	4800.44
439.52	4828.53
439.70	4936.19
439.89	4985.34
440.08	4856.61
440.26	4882.36
440.45	5093.01
440.63	4910.44
440.82	5195.99
441.01	4959.60
441.19	5046.20
441.38	5160.88
441.57	5261.52
441.75	5336.42
441.94	5385.57
442.12	5397.28
442.31	5460.47
442.50	5369.19
442.68	5455.79
442.87	5565.79
443.05	5507.28
443.24	5497.92
443.43	5523.66
443.61	5511.96
443.80	5664.10
443.98	5465.15
444.17	5289.61
444.35	5579.84
444.54	5767.08
444.73	5645.37
444.91	5490.90
445.10	5650.05
445.28	5612.60
445.47	5406.64
445.65	5507.28
445.84	5774.10
446.02	5959.00
446.21	5682.82
446.39	5753.04
446.58	5682.82
446.77	5827.93
446.95	5598.56
447.14	5680.48
447.32	5863.04
447.51	5638.35
447.69	5687.50
447.88	5591.54
448.06	5921.56
448.25	5537.71
448.43	5741.33
448.62	5849.00
448.80	5701.54
448.99	5905.17
449.17	5870.06
449.36	5846.66
449.54	5944.96
449.73	6129.86
449.91	6120.50
450.10	6003.47
450.28	5973.05
450.46	6272.64
450.65	6207.10
450.83	6136.88
451.02	6118.16
451.20	6335.83
451.39	6347.53
451.57	6076.03
451.76	6118.16
451.94	6270.30
452.13	6399.02
452.31	6181.35
452.49	6052.63
452.68	6211.78
452.86	6324.13
453.05	6396.68
453.23	6272.64
453.42	6221.14
453.60	6331.15
453.78	6590.95
453.97	6413.07
454.15	6338.17
454.34	6464.56
454.52	6506.69
454.70	6490.31
454.89	6502.01
455.07	6551.16
455.26	6462.22
455.44	6693.93
455.62	6647.12
455.81	6778.19
455.99	6782.87
456.17	6548.82
456.36	6817.98
456.54	6789.89
456.73	6761.81
456.91	6916.28
457.09	6906.92
457.28	7204.17
457.46	7035.65
457.64	6998.20
457.83	6897.56
458.01	6960.75
458.19	7005.22
458.38	7030.97
458.56	7180.76
458.74	7103.53
458.93	7105.87
459.11	7082.46
459.29	7178.42
459.48	7197.15
459.66	7206.51
459.84	7321.20
460.03	7304.81
460.21	7489.71
460.39	7410.14
460.57	7468.65
460.76	7328.22
460.94	7564.61
461.12	7538.87
461.31	7468.65
461.49	7482.69
461.67	7412.48
461.85	7573.97
462.04	7646.53
462.22	8109.96
462.40	7674.62
462.59	7569.29
462.77	7611.42
462.95	7730.79
463.13	7775.26
463.32	7819.73
463.50	7927.39
463.68	7761.22
463.86	7875.90
464.05	7709.72
464.23	7875.90
464.41	7852.50
464.59	7688.66
464.78	8051.44
464.96	7868.88
465.14	7817.39
465.32	7997.61
465.50	7976.55
465.69	8091.23
465.87	8116.98
466.05	8093.57
466.23	7988.25
466.41	8126.34
466.60	8205.92
466.78	8156.77
466.96	8147.40
467.14	8065.49
467.32	8159.11
467.51	8292.52
467.69	8046.76
467.87	8065.49
468.05	8074.85
468.23	8210.60
468.41	8173.15
468.60	8383.80
468.78	8381.46
468.96	8308.90
469.14	8425.93
469.32	8414.23
469.50	8325.29
469.69	8439.97
469.87	8645.94
470.05	8521.89
470.23	8615.51
470.41	8664.66
470.59	8615.51
470.77	8369.76
470.95	8805.10
471.14	8924.46
471.32	8762.97
471.50	8947.87
471.68	8891.70
471.86	9090.64
472.04	8959.57
472.22	9254.48
472.40	8807.44
472.58	9167.88
472.77	9231.07
472.95	9121.07
473.13	9540.02
473.31	9343.42
473.49	9221.71
473.67	9291.93
473.85	9310.65
474.03	9612.58
474.21	9582.15
474.39	9535.34
474.57	9706.20
474.75	9748.33
474.93	9813.87
475.12	9802.16
475.30	9734.29
475.48	9820.89
475.66	9928.55
475.84	9811.53
476.02	9998.77
476.20	9928.55
476.38	10232.82
476.56	10583.90
476.74	10476.24
476.92	10452.83
477.10	10073.67
477.28	10782.85
477.46	10459.85
477.64	10633.05
477.82	10806.25
478.00	11117.54
478.18	10855.40
478.36	11080.10
478.54	11286.06
478.72	11173.72
478.90	11267.34
479.08	11496.71
479.26	11332.87
479.44	11609.06
479.62	11758.85
479.80	11616.08
479.98	11669.91
480.16	11903.96
480.34	11728.42
480.52	12042.06
480.70	11955.46
480.88	11880.56
481.06	12112.27
481.24	12208.23
481.41	12416.54
481.59	12924.44
481.77	12564.00
481.95	12718.47
482.13	12713.79
482.31	12702.09
482.49	13247.43
482.67	13277.86
482.85	13130.41
483.03	13362.12
483.21	13401.91
483.39	13425.31
483.57	13685.11
483.74	13713.20
483.92	13926.19
484.10	13713.20
484.28	13827.88
484.46	14253.86
484.64	14382.59
484.82	14216.41
485.00	14265.57
485.18	14693.88
485.35	14604.94
485.53	14476.21
485.71	14731.33
485.89	14923.26
486.07	14867.08
486.25	14867.08
486.43	15059.01
486.61	15398.38
486.78	15382.00
486.96	15590.31
487.14	15655.84
487.32	15845.43
487.50	15915.64
487.68	16170.76
487.85	16196.51
488.03	16524.18
488.21	16423.54
488.39	16332.26
488.57	16425.88
488.75	16767.60
488.92	17020.38
489.10	17364.43
489.28	17380.82
489.46	17565.72
489.64	17212.30
489.81	17582.10
489.99	18134.47
490.17	17965.95
490.35	18026.81
490.53	17940.21
490.70	18157.88
490.88	18352.14
491.06	18171.92
491.24	18607.26
491.41	18457.46
491.59	18738.33
491.77	18909.19
491.95	19140.90
492.13	19117.50
492.30	19241.54
492.48	19133.88
492.66	19332.82
492.84	19417.08
493.01	19756.46
493.19	20023.28
493.37	19924.98
493.54	19985.83
493.72	20236.27
493.90	20416.49
494.08	20402.45
494.25	20453.94
494.43	20638.84
494.61	20552.24
494.79	20622.46
494.96	20837.79
495.14	20713.74
495.32	21135.04
495.49	21476.76
495.67	21181.85
495.85	21387.82
496.02	21610.17
496.20	21984.65
496.38	21907.41
496.55	21790.39
496.73	22492.55
496.91	22230.41
497.09	22111.04
497.26	22520.63
497.44	22284.24
497.62	22335.73
497.79	23012.15
497.97	22944.27
498.14	22700.86
498.32	23260.24
498.50	23049.60
498.67	23215.77
498.85	23035.55
499.03	23133.86
499.20	23571.54
499.38	23695.58
499.56	23599.62
499.73	23445.15
499.91	23843.04
500.08	23784.52
500.26	23534.09
500.44	23868.78
500.61	23641.75
500.79	24320.51
500.97	24657.54
501.14	24437.53
501.32	24416.47
501.49	24540.52
501.67	24362.64
501.84	24650.52
502.02	24800.32
502.20	24938.41
502.37	25137.35
502.55	25034.37
502.72	25202.89
502.90	25226.29
503.07	24982.88
503.25	25032.03
503.43	25083.52
503.60	25673.34
503.78	25935.48
503.95	25640.57
504.13	25516.52
504.30	26169.53
504.48	26480.82
504.65	26059.52
504.83	26251.45
505.01	26487.84
505.18	26319.32
505.36	26775.73
505.53	26206.98
505.71	26492.52
505.88	27016.80
506.06	26560.40
506.23	26429.33
506.41	26955.95
506.58	26815.52
506.76	26859.99
506.93	27201.71
507.11	26953.61
507.28	27374.91
507.46	27295.33
507.63	27278.94
507.81	27578.53
507.98	27491.93
508.16	27974.08
508.33	27999.83
508.50	27798.54
508.68	27971.74
508.85	28208.14
509.03	27950.68
509.20	27948.34
509.38	28383.68
509.55	28254.95
509.73	28334.53
509.90	28683.27
510.08	28692.63
510.25	28161.33
510.42	28683.27
510.60	28842.42
510.77	28627.09
510.95	29408.83
511.12	29184.14
511.30	29081.16
511.47	28926.68
511.64	29284.78
511.82	29422.87
511.99	28975.83
512.17	29621.82
512.34	29479.05
512.51	29626.50
512.69	29848.85
512.86	29614.80
513.04	29886.30
513.21	30143.76
513.38	29898.00
513.56	29919.07
513.73	30087.59
513.90	30338.02
514.08	30127.38
514.25	30445.69
514.43	30572.08
514.60	30333.34
514.77	30314.62
514.95	30845.92
515.12	30682.08
515.29	30738.26
515.47	30820.17
515.64	30906.77
515.81	30696.13
515.99	30953.58
516.16	30850.60
516.33	31058.91
516.51	31089.34
516.68	31253.17
516.85	30745.28
517.03	31194.66
517.20	31269.56
517.37	31337.43
517.54	31417.01
517.72	31587.87
517.89	31440.42
518.06	31924.91
518.24	32020.87
518.41	31732.98
518.58	31466.16
518.75	31875.76
518.93	32025.55
519.10	31943.63
519.27	32400.04
519.45	32196.41
519.62	32250.24
519.79	32491.32
519.96	32149.60
520.14	32879.85
520.31	32568.55
520.48	33053.05
520.65	32833.04
520.83	32945.38
521.00	33174.75
521.17	32706.65
521.34	32996.87
521.52	33074.11
521.69	33207.52
521.86	33338.59
522.03	32900.91
522.20	33516.47
522.38	33441.57
522.55	33743.50
522.72	33593.71
522.89	33549.24
523.07	33450.94
523.24	33556.26
523.41	33787.97
523.58	33883.94
523.75	33993.94
523.92	34202.25
524.10	34260.76
524.27	34487.79
524.44	34106.29
524.61	34263.10
524.78	34567.37
524.96	34164.80
525.13	34904.41
525.30	34913.77
525.47	34670.36
525.64	34803.77
525.81	34607.16
525.98	34632.91
526.16	34581.42
526.33	34616.52
526.50	35082.29
526.67	34735.89
526.84	34696.10
527.01	34745.25
527.18	34909.09
527.36	35526.99
527.53	35339.75
527.70	35634.66
527.87	35447.41
528.04	35119.74
528.21	35793.81
528.38	35489.54
528.55	35765.73
528.72	36091.06
528.89	35597.21
529.07	35475.50
529.24	35936.59
529.41	35634.66
529.58	35679.13
529.75	35735.30
529.92	36177.66
530.09	36231.49
530.26	35934.24
530.43	36327.45
530.60	35887.43
530.77	36245.54
530.94	36491.29
531.11	36460.87
531.28	36479.59
531.46	36133.19
531.63	36802.58
531.80	36549.81
531.97	36910.25
532.14	36816.63
532.31	36392.99
532.48	37104.51
532.65	36926.63
532.82	36882.16
532.99	36863.44
533.16	36629.38
533.33	36861.10
533.50	37132.60
533.67	36966.42
533.84	37263.67
534.01	36978.12
534.18	36804.92
534.35	37401.76
534.52	37097.49
534.69	37401.76
534.86	37504.74
535.03	37146.64
535.20	37715.39
535.37	37963.49
535.54	37666.24
535.71	37750.50
535.88	37560.92
536.05	37940.08
536.22	37832.42
536.38	38122.65
536.55	37720.07
536.72	38153.07
536.89	38050.09
537.06	37631.13
537.23	38031.36
537.40	38078.18
537.57	38244.35
537.74	38087.54
537.91	38469.04
538.08	38136.69
538.25	38092.22
538.42	38225.63
538.59	38319.25
538.75	38464.36
538.92	38543.94
539.09	38576.71
539.26	38873.96
539.43	38546.28
539.60	38391.81
539.77	38684.37
539.94	38899.70
540.11	38408.19
540.28	38988.64
540.44	38288.82
540.61	38639.90
540.78	38885.66
540.95	38630.54
541.12	38710.12
541.29	38888.00
541.46	38841.19
541.62	38885.66
541.79	39505.90
541.96	39180.57
542.13	39377.17
542.30	39299.94
542.47	39023.75
542.63	39332.70
542.80	39288.23
542.97	39821.87
543.14	39810.17
543.31	39901.45
543.48	39782.09
543.64	39983.37
543.81	40170.61
543.98	40151.89
544.15	39702.51
544.32	39737.62
544.48	40243.17
544.65	40282.96
544.82	40044.23
544.99	39952.94
545.16	40259.55
545.32	39931.88
545.49	40341.47
545.66	40065.29
545.83	40320.41
546.00	40538.08
546.16	40814.26
546.33	40430.41
546.50	39871.03
546.67	40467.86
546.83	39746.98
547.00	40627.02
547.17	40648.08
547.34	40505.31
547.50	40554.46
547.67	40575.53
547.84	40683.19
548.00	40942.99
548.17	40570.85
548.34	40886.82
548.51	41303.43
548.67	41366.63
548.84	40964.06
549.01	40687.87
549.18	41045.97
549.34	41298.75
549.51	41212.15
549.68	41434.50
549.84	41188.75
550.01	41478.97
550.18	41191.09
550.34	41280.03
550.51	41036.61
550.68	41338.54
550.84	40889.16
551.01	41368.97
551.18	41221.52
551.34	41434.50
551.51	41525.78
551.68	41532.81
551.84	41305.77
552.01	41343.22
552.18	41729.41
552.34	41528.13
552.51	42080.49
552.68	41710.69
552.84	41951.76
553.01	41954.10
553.18	41420.46
553.34	41813.67
553.51	41471.95
553.67	41872.18
553.84	42508.81
554.01	42209.22
554.17	42178.79
554.34	42263.05
554.51	42162.41
554.67	42450.30
554.84	42600.09
555.00	42127.30
555.17	41965.81
555.33	42197.52
555.50	41918.99
555.67	42445.62
555.83	42499.45
556.00	42183.48
556.16	42628.18
556.33	42082.83
556.50	42302.84
556.66	42284.12
556.83	41961.12
556.99	42513.49
557.16	42557.96
557.32	42478.38
557.49	42513.49
557.65	41949.42
557.82	42387.10
557.98	42253.69
558.15	42721.80
558.32	42787.33
558.48	42653.92
558.65	42759.25
558.81	42490.09
558.98	42593.07
559.14	42656.26
559.31	42682.01
559.47	42719.46
559.64	43503.54
559.80	42808.40
559.97	43072.88
560.13	42387.10
560.30	42965.21
560.46	42981.60
560.63	42883.30
560.79	43456.73
560.96	42855.21
561.12	43051.81
561.29	43227.35
561.45	43023.73
561.61	43131.39
561.78	43129.05
561.94	43159.48
562.11	42993.30
562.27	42513.49
562.44	42665.63
562.60	42927.77
562.77	43580.78
562.93	43290.55
563.10	43330.34
563.26	43232.04
563.42	43356.08
563.59	43192.25
563.75	43129.05
563.92	43323.32
564.08	43171.18
564.24	43484.81
564.41	43367.79
564.57	43653.33
564.74	43210.97
564.90	43639.29
565.07	43878.02
565.23	43807.81
565.39	43274.16
565.56	43482.47
565.72	43122.03
565.88	43215.65
566.05	43583.12
566.21	43482.47
566.38	43449.70
566.54	43615.88
566.70	43440.34
566.87	43831.21
567.03	43365.45
567.19	44203.36
567.36	43648.65
567.52	43709.50
567.68	43564.39
567.85	43594.82
568.01	43526.94
568.17	43859.30
568.34	43508.22
568.50	43667.37
568.66	43332.68
568.83	43433.32
568.99	43475.45
569.15	43650.99
569.32	43569.07
569.48	43283.53
569.64	43840.57
569.81	43800.79
569.97	43423.96
570.13	43503.54
570.30	43379.49
570.46	43510.56
570.62	43456.73
570.78	43512.90
570.95	43653.33
571.11	44142.50
571.27	43800.79
571.43	43784.40
571.60	43763.34
571.76	43861.64
571.92	43634.61
572.09	43650.99
572.25	43690.78
572.41	43187.56
572.57	44009.09
572.74	44318.04
572.90	43718.87
573.06	43629.93
573.22	43973.98
573.38	43632.27
573.55	43316.29
573.71	43658.01
573.87	44055.90
574.03	43531.62
574.20	44231.44
574.36	43526.94
574.52	43988.03
574.68	43676.74
574.84	43840.57
575.01	43861.64
575.17	43957.60
575.33	43938.88
575.49	43962.28
575.65	44311.02
575.82	44531.03
575.98	43941.22
576.14	44411.67
576.30	43929.51
576.46	43517.58
576.62	43718.87
576.79	43585.46
576.95	43367.79
577.11	44027.82
577.27	43889.73
577.43	43959.94
577.59	44348.47
577.75	44168.25
577.92	43800.79
578.08	43620.56
578.24	43938.88
578.40	43845.26
578.56	44383.58
578.72	44186.97
578.88	43978.67
579.04	44051.22
579.21	44006.75
579.37	44079.31
579.53	43613.54
579.69	44055.90
579.85	44069.95
580.01	44079.31
580.17	44203.36
580.33	44292.30
580.49	44072.29
580.65	44186.97
580.82	44158.89
580.98	43674.40
581.14	44009.09
581.30	44224.42
581.46	44250.17
581.62	44378.90
581.78	44046.54
581.94	44451.45
582.10	44353.15
582.26	44306.34
582.42	43763.34
582.58	44198.68
582.74	44114.42
582.90	44210.38
583.06	44329.75
583.22	44004.41
583.38	44191.65
583.54	43990.37
583.70	44222.08
583.86	43959.94
584.02	43737.59
584.18	44247.83
584.34	43962.28
584.50	44381.24
584.66	44011.43
584.82	43962.28
584.98	44416.35
585.14	44706.57
585.30	44123.78
585.46	43901.43
585.62	44533.37
585.78	44069.95
585.94	43508.22
586.10	43709.50
586.26	44301.66
586.42	44421.03
586.58	44411.67
586.74	44327.41
586.90	44369.54
587.06	44004.41
587.22	44149.53
587.38	44151.87
587.54	44542.74
587.70	44313.36
587.86	44095.69
588.02	44411.67
588.18	44690.19
588.34	44463.16
588.49	44060.58
588.65	43707.16
588.81	43683.76
588.97	44320.38
589.13	44261.87
589.29	44357.83
589.45	44114.42
589.61	44308.68
589.77	44610.61
589.93	44210.38
590.08	44762.75
590.24	44755.72
590.40	44655.08
590.56	44577.84
590.72	44648.06
590.88	44149.53
591.04	44442.09
591.20	44825.94
591.35	44779.13
591.51	44931.26
591.67	44533.37
591.83	44739.34
591.99	43955.26
592.15	44505.29
592.31	44067.61
592.46	44053.56
592.62	44282.94
592.78	44458.48
592.94	44392.94
593.10	44687.85
593.26	44540.39
593.41	44509.97
593.57	44776.79
593.73	44402.30
593.89	44568.48
594.05	44561.46
594.20	44495.92
594.36	45113.83
594.52	44645.72
594.68	44744.02
594.84	44612.95
594.99	44793.17
595.15	44519.33
595.31	44926.58
595.47	44697.21
595.62	44528.69
595.78	44701.89
595.94	44304.00
596.10	44947.65
596.25	44629.34
596.41	44816.58
596.57	44659.76
596.73	44772.11
596.88	44467.84
597.04	44463.16
597.20	44832.96
597.36	44643.38
597.51	44535.71
597.67	44491.24
597.83	44774.45
597.99	44612.95
598.14	44926.58
598.30	44727.64
598.46	45020.20
598.61	44718.28
598.77	44339.11
598.93	44652.74
599.09	44889.13
599.24	45174.68
599.40	44671.46
599.56	44804.88
599.71	44172.93
599.87	45158.30
600.03	44645.72
600.18	44722.96
600.34	44629.34
600.50	44863.39
600.65	44598.91
600.81	44641.04
600.97	44985.10
601.12	44987.44
601.28	44957.01
601.44	44318.04
601.59	44458.48
601.75	44402.30
601.91	44774.45
602.06	44491.24
602.22	44641.04
602.37	44821.26
602.53	44928.92
602.69	44652.74
602.84	44149.53
603.00	44671.46
603.16	44460.82
603.31	44414.01
603.47	44568.48
603.62	44577.84
603.78	44907.86
603.94	44828.28
604.09	44933.60
604.25	45338.52
604.40	44582.52
604.56	44722.96
604.71	44870.41
604.87	44093.35
605.03	44428.05
605.18	44582.52
605.34	44678.49
605.49	44378.90
605.65	44573.16
605.80	44549.76
605.96	44825.94
606.12	44900.84
606.27	44641.04
606.43	44701.89
606.58	44825.94
606.74	44545.08
606.89	44069.95
607.05	44430.39
607.20	44519.33
607.36	44854.03
607.51	44809.56
607.67	44659.76
607.82	44299.32
607.98	44622.31
608.13	44472.52
608.29	44362.51
608.44	44179.95
608.60	43978.67
608.75	44006.75
608.91	44374.22
609.06	44151.87
609.22	44875.09
609.37	43840.57
609.53	44121.44
609.68	44039.52
609.84	44348.47
609.99	44065.27
610.15	44172.93
610.30	43952.92
610.46	44119.10
610.61	44215.06
610.76	43964.62
610.92	44259.53
611.07	44301.66
611.23	44093.35
611.38	44039.52
611.54	44210.38
611.69	43899.09
611.84	43695.46
612.00	44060.58
612.15	43323.32
612.31	43978.67
612.46	43536.30
612.62	43959.94
612.77	43826.53
612.92	43983.35
613.08	43714.19
613.23	43662.69
613.39	43941.22
613.54	43660.35
613.69	43920.15
613.85	43655.67
614.00	43643.97
614.15	44320.38
614.31	44055.90
614.46	44238.47
614.62	43936.54
614.77	43742.27
614.92	44107.40
615.08	44041.86
615.23	43742.27
615.38	43313.95
615.54	43704.82
615.69	43342.04
615.84	43337.36
616.00	44163.57
616.15	43585.46
616.30	43875.68
616.46	43175.86
616.61	43285.87
616.76	43311.61
616.92	43278.85
617.07	42993.30
617.22	43234.38
617.37	43536.30
617.53	43206.29
617.68	43297.57
617.83	43372.47
617.99	43758.66
618.14	43115.01
618.29	43093.94
618.45	43091.60
618.60	43257.78
618.75	43379.49
618.90	42953.51
619.06	42951.17
619.21	43199.27
619.36	43215.65
619.51	42976.92
619.67	42452.64
619.82	43445.02
619.97	43100.97
620.12	42731.16
620.28	42380.08
620.43	42719.46
620.58	43147.78
620.73	42962.87
620.89	42492.43
621.04	43145.44
621.19	42813.08
621.34	42759.25
621.49	42866.91
621.65	42693.71
621.80	42731.16
621.95	42909.04
622.10	42703.07
622.25	42190.50
622.41	42405.83
622.56	42525.19
622.71	43016.71
622.86	42780.31
623.01	42869.25
623.16	42995.64
623.32	42588.39
623.47	42735.84
623.62	42623.50
623.77	42576.69
623.92	42330.93
624.07	41963.46
624.23	41893.25
624.38	42272.42
624.53	42452.64
624.68	42176.45
624.83	42649.24
624.98	42162.41
625.13	42213.90
625.29	42160.07
625.44	41993.89
625.59	42288.80
625.74	41493.02
625.89	41865.16
626.04	41890.91
626.19	41855.80
626.34	41888.57
626.49	41970.49
626.65	41724.73
626.80	41762.18
626.95	41804.31
627.10	41827.71
627.25	41874.52
627.40	41556.21
627.55	41418.12
627.70	41383.01
627.85	41331.52
628.00	41401.74
628.15	42096.88
628.30	41558.55
628.45	41476.63
628.60	41432.16
628.76	41626.43
628.91	42066.45
629.06	41890.91
629.21	41359.61
629.36	41172.36
629.51	40905.54
629.66	41088.10
629.81	41076.40
629.96	41060.02
630.11	41315.14
630.26	41226.20
630.41	41090.44
630.56	40957.03
630.71	41516.42
630.86	41282.37
631.01	41322.16
631.16	41237.90
631.31	40830.65
631.46	40942.99
631.61	40825.96
631.76	40856.39
631.91	41010.87
632.06	41034.27
632.21	40940.65
632.36	41312.80
632.51	41228.54
632.66	40912.56
632.81	40655.11
632.96	40765.11
633.10	40449.14
633.25	40488.93
633.40	40191.68
633.55	40921.93
633.70	40694.89
633.85	40411.69
634.00	40444.46
634.15	40559.14
634.30	40673.83
634.45	40690.21
634.60	40320.41
634.75	40687.87
634.90	40793.20
635.05	40500.63
635.19	40645.74
635.34	40919.59
635.49	40954.69
635.64	40350.84
635.79	39950.60
635.94	40266.58
636.09	40292.32
636.24	39988.05
636.39	39721.23
636.53	39545.69
636.68	39749.32
636.83	39711.87
636.98	40399.99
637.13	39983.37
637.28	40353.18
637.43	40062.95
637.57	40142.53
637.72	39983.37
637.87	40046.57
638.02	40208.06
638.17	39548.03
638.32	39861.66
638.46	39988.05
638.61	39924.86
638.76	39531.65
638.91	39386.54
639.06	39894.43
639.20	39838.26
639.35	40189.34
639.50	39718.89
639.65	40067.63
639.80	40102.74
639.94	39943.58
640.09	39276.53
640.24	39335.04
640.39	38955.88
640.54	39412.28
640.68	39529.31
640.83	39271.85
640.98	39257.81
641.13	39552.71
641.27	39690.80
641.42	39597.18
641.57	39810.17
641.72	39405.26
641.86	39044.82
642.01	39271.85
642.16	38895.02
642.31	38595.43
642.45	39117.37
642.60	38995.67
642.75	38986.30
642.90	39180.57
643.04	39288.23
643.19	38801.40
643.34	39353.77
643.48	38803.74
643.63	39042.48
643.78	38733.53
643.93	38733.53
644.07	38742.89
644.22	38869.28
644.37	38426.92
644.51	38670.33
644.66	39000.35
644.81	38508.83
644.95	38855.23
645.10	39105.67
645.25	38693.74
645.39	38967.58
645.54	38946.51
645.69	38696.08
645.83	38480.75
645.98	38557.99
646.13	38625.86
646.27	38834.17
646.42	38548.62
646.57	38227.97
646.71	38298.19
646.86	38410.53
647.00	38293.50
647.15	38752.25
647.30	38286.48
647.44	38337.98
647.59	38064.13
647.74	38249.03
647.88	38134.35
648.03	38192.86
648.17	38595.43
648.32	37916.68
648.47	38328.61
648.61	37888.59
648.76	38487.77
648.90	38139.03
649.05	38342.66
649.20	37975.19
649.34	38682.03
649.49	38220.95
649.63	38106.26
649.78	38005.62
649.92	38167.12
650.07	38300.53
650.21	37886.25
650.36	38216.27
650.51	37790.29
650.65	38625.86
650.80	38146.05
650.94	38452.66
651.09	38246.69
651.23	37879.23
651.38	38101.58
651.52	37661.56
651.67	37626.45
651.81	37961.15
651.96	37656.88
652.10	37689.65
652.25	36921.95
652.39	37354.95
652.54	37500.06
652.68	37490.70
652.83	37787.95
652.97	37652.20
653.12	37434.53
653.26	37535.17
653.41	37839.44
653.55	37546.87
653.70	37132.60
653.84	37467.30
653.99	37038.98
654.13	37357.29
654.27	37031.96
654.42	37469.64
654.56	37191.11
654.71	37397.08
654.85	37074.09
655.00	37471.98
655.14	36875.14
655.29	36723.01
655.43	36730.03
655.57	36692.58
655.72	36814.29
655.86	36823.65
656.01	36854.08
656.15	36851.73
656.30	36659.81
656.44	36704.28
656.58	36282.98
656.73	36505.34
656.87	36692.58
657.01	36776.84
657.16	36556.83
657.30	36528.74
657.45	36051.27
657.59	36863.44
657.73	36545.12
657.88	36392.99
658.02	36561.51
658.16	36383.63
658.31	36608.32
658.45	36746.41
658.60	36673.85
658.74	36708.96
658.88	36659.81
659.03	36189.36
659.17	35901.48
659.31	35988.08
659.46	36142.55
659.60	36046.59
659.74	35765.73
659.89	35599.55
660.03	35772.75
660.17	36418.74
660.32	35892.12
660.46	36147.23
660.60	36065.31
660.74	35847.64
660.89	35676.79
661.03	35622.95
661.17	35842.96
661.32	35742.32
661.46	35337.41
661.60	35147.82
661.74	35271.87
661.89	35124.42
662.03	35358.47
662.17	34939.52
662.31	35101.01
662.46	34981.65
662.60	34855.26
662.74	35253.15
662.88	35325.71
663.03	35077.61
663.17	35236.77
663.31	34684.40
663.45	35239.11
663.60	34845.90
663.74	34581.42
663.88	34785.04
664.02	34529.92
664.17	34728.87
664.31	33907.34
664.45	33961.17
664.59	34782.70
664.73	34670.36
664.88	34782.70
665.02	33900.32
665.16	34146.08
665.30	33984.58
665.44	34560.35
665.59	33902.66
665.73	34178.84
665.87	33902.66
666.01	33900.32
666.15	33741.16
666.29	34031.39
666.44	33907.34
666.58	33886.28
666.72	33621.80
666.86	34120.33
667.00	33773.93
667.14	33827.76
667.28	33418.17
667.43	33251.99
667.57	33846.49
667.71	33369.02
667.85	33572.64
667.99	33240.29
668.13	33624.14
668.27	33453.28
668.41	33411.15
668.56	32730.05
668.70	33301.14
668.84	33174.75
668.98	32938.36
669.12	32921.98
669.26	33425.19
669.40	32847.08
669.54	32362.59
669.68	33064.75
669.82	32606.00
669.96	32563.87
670.10	32636.43
670.25	32818.99
670.39	32694.94
670.53	32493.66
670.67	32072.36
670.81	32371.95
670.95	32671.54
671.09	32598.98
671.23	32411.74
671.37	32318.12
671.51	32194.07
671.65	31728.30
671.79	31791.50
671.93	31770.43
672.07	32201.09
672.21	32002.14
672.35	31840.65
672.49	31892.14
672.63	31817.24
672.77	31632.34
672.91	31573.83
673.05	31517.65
673.19	31173.60
673.33	31122.10
673.47	31161.89
673.61	31225.09
673.75	30714.85
673.89	30675.06
674.03	30590.80
674.17	30817.83
674.31	30778.04
674.45	30565.06
674.59	30745.28
674.73	30909.11
674.87	30497.18
675.01	30499.52
675.15	30864.64
675.29	30749.96
675.43	30621.23
675.56	30309.94
675.70	30431.65
675.84	29942.47
675.98	28837.74
676.12	29818.42
676.26	29750.55
676.40	29795.02
676.54	29528.20
676.68	29654.59
676.82	29127.97
676.96	29312.87
677.10	29036.69
677.23	29357.34
677.37	29500.11
677.51	28907.96
677.65	29102.22
677.79	28858.81
677.93	28758.16
678.07	28804.97
678.21	28362.61
678.34	28535.81
678.48	28481.98
678.62	28154.30
678.76	28203.46
678.90	28474.96
679.04	28027.92
679.18	28425.81
679.31	27936.63
679.45	27646.41
679.59	27648.75
679.73	27627.68
679.87	27601.94
680.00	27784.50
680.14	27435.76
680.28	27166.60
680.42	27075.32
680.56	27524.70
680.70	27255.54
680.83	26815.52
680.97	26944.25
681.11	26696.15
681.25	26644.66
681.39	26773.39
681.52	26675.09
681.66	26698.49
681.80	26457.42
681.94	26534.65
682.07	26270.17
682.21	26164.85
682.35	26169.53
682.49	26232.72
682.62	26691.47
682.76	25827.81
682.90	25680.36
683.04	25687.38
683.17	25783.34
683.31	25776.32
683.45	25605.46
683.59	25465.03
683.72	25345.66
683.86	25282.47
684.00	25099.90
684.13	25336.30
684.27	25158.42
684.41	24819.04
684.55	24875.21
684.68	24687.97
684.82	24606.05
684.96	24592.01
685.09	24357.96
685.23	24315.83
685.37	24554.56
685.50	24552.22
685.64	24077.09
685.78	24074.75
685.91	24123.90
686.05	24041.98
686.19	23431.10
686.32	23613.66
686.46	23393.65
686.60	23360.89
686.73	23396.00
686.87	23618.35
687.01	23094.07
687.14	23264.92
687.28	22911.50
687.42	22848.31
687.55	23065.98
687.69	22913.84
687.82	22672.77
687.96	23054.28
688.10	22389.56
688.23	22480.85
688.37	22295.94
688.50	22342.75
688.64	22326.37
688.78	22309.99
688.91	21867.63
689.05	21921.46
689.18	22036.14
689.32	21474.42
689.46	21975.29
689.59	22061.89
689.73	22249.13
689.86	21970.61
690.00	21762.30
690.13	21628.89
690.27	21518.89
690.41	21090.57
690.54	20989.92
690.68	20774.60
690.81	21010.99
690.95	20950.14
691.08	20795.66
691.22	20479.69
691.35	20943.11
691.49	20912.69
691.62	20659.91
691.76	20772.25
691.89	20655.23
692.03	20353.30
692.16	20285.42
692.30	19941.36
692.43	20224.57
692.57	20189.46
692.70	19578.58
692.84	19857.10
692.97	19475.60
693.11	19337.51
693.24	19791.57
693.38	19484.96
693.51	19419.42
693.65	19421.77
693.78	19634.75
693.92	19264.95
694.05	19073.03
694.19	19374.95
694.32	19218.14
694.45	19054.30
694.59	18920.89
694.72	18845.99
694.86	18801.52
694.99	18459.81
695.13	18649.39
695.26	18359.16
695.39	18183.62
695.53	18403.63
695.66	18090.00
695.80	18583.85
695.93	18270.22
696.07	17759.98
696.20	18064.25
696.33	17928.50
696.47	17554.02
696.60	17811.48
696.73	17675.73
696.87	17755.30
697.00	17846.58
697.14	17523.59
697.27	17366.78
697.40	17507.21
697.54	17479.12
697.67	17135.06
697.80	16758.24
697.94	16950.16
698.07	17205.28
698.21	16870.58
698.34	17015.69
698.47	16528.86
698.61	16315.87
698.74	16570.99
698.87	16383.75
699.01	16313.53
699.14	16126.29
699.27	16135.65
699.40	16388.43
699.54	16046.71
699.67	16016.29
699.80	16044.37
699.94	15915.64
700.07	16018.63
700.20	16027.99
700.34	15712.02
700.47	15728.40
700.60	15939.05
700.73	15686.27
700.87	15475.62
701.00	15772.87
701.13	15538.82
701.26	15503.71
701.40	15463.92
701.53	15164.33
701.66	15286.04
701.79	15227.53
701.93	14977.09
702.06	14808.57
702.19	14824.95
702.32	14853.04
702.46	14721.97
702.59	14738.35
702.72	14478.55
702.85	14698.56
702.99	14471.53
703.12	14555.79
703.25	14340.46
703.38	14328.76
703.51	14209.39
703.65	14284.29
703.78	14225.78
703.91	14033.85
704.04	14216.41
704.17	13989.38
704.31	13642.98
704.44	13694.47
704.57	13666.39
704.70	13474.46
704.83	13497.87
704.96	13699.16
705.10	13797.46
705.23	13582.13
>>>>>End Processed Spectral Data<<<<<
