SpectraSuite Data File
++++++++++++++++++++++++++++++++++++
Date: Fri Oct 25 10:47:24 EDT 2013
User: price-jones
Dark Spectrum Present: No
Reference Spectrum Present: No
Number of Sampled Component Spectra: 1
Spectrometers: USB2+H05261
Integration Time (usec): 100000 (USB2+H05261)
Spectra Averaged: 1 (USB2+H05261)
Boxcar Smoothing: 0 (USB2+H05261)
Correct for Electrical Dark: No (USB2+H05261)
Strobe/Lamp Enabled: No (USB2+H05261)
Correct for Detector Non-linearity: No (USB2+H05261)
Correct for Stray Light: No (USB2+H05261)
Number of Pixels in Processed Spectrum: 2048
>>>>>Begin Processed Spectral Data<<<<<
365.73	110.01
365.92	110.01
366.12	110.01
366.32	32.77
366.52	56.17
366.72	74.90
366.91	9.36
367.11	53.83
367.31	0.00
367.51	56.17
367.70	0.00
367.90	67.88
368.10	9.36
368.30	16.38
368.49	16.38
368.69	0.00
368.89	53.83
369.09	4.68
369.28	39.79
369.48	35.11
369.68	70.22
369.87	60.85
370.07	105.32
370.27	133.41
370.47	210.65
370.66	386.19
370.86	400.23
371.06	468.11
371.25	505.56
371.45	390.87
371.65	470.45
371.84	437.68
372.04	433.00
372.24	486.83
372.44	470.45
372.63	498.53
372.83	507.90
373.03	500.87
373.22	505.56
373.42	477.47
373.62	531.30
373.81	514.92
374.01	573.43
374.21	498.53
374.40	557.05
374.60	568.75
374.79	622.58
374.99	550.03
375.19	624.92
375.38	557.05
375.58	540.66
375.78	667.05
375.97	568.75
376.17	568.75
376.37	533.64
376.56	582.79
376.76	550.03
376.95	521.94
377.15	606.20
377.35	638.97
377.54	688.12
377.74	596.84
377.93	585.13
378.13	629.60
378.33	667.05
378.52	674.07
378.72	638.97
378.91	627.26
379.11	624.92
379.31	638.97
379.50	582.79
379.70	643.65
379.89	655.35
380.09	660.03
380.28	617.90
380.48	690.46
380.68	638.97
380.87	641.31
381.07	648.33
381.26	704.50
381.46	610.88
381.65	641.31
381.85	554.71
382.04	716.20
382.24	725.57
382.43	631.94
382.63	723.23
382.83	702.16
383.02	697.48
383.22	748.97
383.41	695.14
383.61	711.52
383.80	770.04
384.00	800.46
384.19	718.54
384.39	641.31
384.58	669.39
384.78	713.86
384.97	753.65
385.17	667.05
385.36	786.42
385.56	767.70
385.75	746.63
385.95	739.61
386.14	748.97
386.34	882.38
386.53	814.51
386.72	812.17
386.92	835.57
387.11	800.46
387.31	819.19
387.50	784.08
387.70	807.48
387.89	793.44
388.09	781.74
388.28	767.70
388.48	830.89
388.67	812.17
388.86	943.24
389.06	851.96
389.25	976.00
389.45	842.59
389.64	807.48
389.84	976.00
390.03	868.34
390.22	931.53
390.42	917.49
390.61	936.21
390.81	875.36
391.00	968.98
391.19	954.94
391.39	971.32
391.58	976.00
391.78	922.17
391.97	1041.54
392.16	940.90
392.36	1020.47
392.55	983.02
392.75	978.34
392.94	983.02
393.13	1032.18
393.33	945.58
393.52	1013.45
393.71	1064.94
393.91	1025.15
394.10	999.41
394.29	1011.11
394.49	1081.33
394.68	1146.86
394.88	1196.01
395.07	1200.69
395.26	1116.44
395.46	1118.78
395.65	1139.84
395.84	1109.41
396.04	1139.84
396.23	1088.35
396.42	1165.59
396.62	1074.31
396.81	1203.04
397.00	1137.50
397.19	1125.80
397.39	1214.74
397.58	1261.55
397.77	1240.48
397.97	1266.23
398.16	1301.34
398.35	1397.30
398.55	1294.32
398.74	1299.00
398.93	1306.02
399.12	1322.40
399.32	1345.81
399.51	1308.36
399.70	1350.49
399.90	1343.47
400.09	1437.09
400.28	1453.47
400.47	1481.56
400.67	1509.65
400.86	1481.56
401.05	1427.73
401.24	1551.78
401.44	1554.12
401.63	1502.62
401.82	1547.09
402.01	1401.98
402.21	1537.73
402.40	1526.03
402.59	1610.29
402.78	1547.09
402.97	1537.73
403.17	1561.14
403.36	1624.33
403.55	1636.03
403.74	1701.57
403.93	1617.31
404.13	1591.56
404.32	1739.02
404.51	1746.04
404.70	1703.91
404.89	1554.12
405.09	1804.55
405.28	1771.79
405.47	1666.46
405.66	1743.70
405.85	1776.47
406.05	1753.06
406.24	1767.10
406.43	1825.62
406.62	1898.17
406.81	1963.71
407.00	1825.62
407.20	1729.66
407.39	1790.51
407.58	1849.02
407.77	1968.39
407.96	1926.26
408.15	1970.73
408.34	1984.77
408.54	1870.09
408.73	1933.28
408.92	1973.07
409.11	2118.18
409.30	2113.50
409.49	2059.67
409.68	2139.25
409.87	2157.97
410.07	2008.18
410.26	2251.60
410.45	2183.72
410.64	2214.15
410.83	2258.62
411.02	2242.23
411.21	2256.28
411.40	2246.91
411.59	2296.07
411.78	2296.07
411.98	2157.97
412.17	2401.39
412.36	2410.75
412.55	2356.92
412.74	2452.88
412.93	2403.73
413.12	2429.48
413.31	2651.83
413.50	2541.82
413.69	2590.97
413.88	2581.61
414.07	2523.10
414.26	2590.97
414.45	2661.19
414.64	2700.98
414.83	2719.70
415.02	2693.96
415.22	2693.96
415.41	2829.71
415.60	2871.84
415.79	2803.96
415.98	2888.22
416.17	2855.45
416.36	2885.88
416.55	2860.13
416.74	2965.46
416.93	2986.52
417.12	2944.39
417.31	3023.97
417.50	2991.20
417.69	3033.33
417.88	3199.51
418.07	3136.32
418.26	3021.63
418.45	3021.63
418.64	3213.56
418.83	3145.68
419.02	3199.51
419.21	3337.60
419.39	3267.39
419.58	3220.58
419.77	3433.57
419.96	3267.39
420.15	3269.73
420.34	3440.59
420.53	3248.66
420.72	3426.54
420.91	3485.06
421.10	3438.25
421.29	3391.44
421.48	3344.63
421.67	3562.30
421.86	3487.40
422.05	3339.94
422.24	3421.86
422.43	3466.33
422.61	3489.74
422.80	3543.57
422.99	3583.36
423.18	3545.91
423.37	3742.52
423.56	3510.80
423.75	3529.53
423.94	3543.57
424.13	3377.39
424.32	3550.59
424.50	3623.15
424.69	3644.21
424.88	3669.96
425.07	3602.08
425.26	3620.81
425.45	3487.40
425.64	3765.92
425.83	3590.38
426.01	3611.45
426.20	3693.37
426.39	3662.94
426.58	3632.51
426.77	3644.21
426.96	3557.61
427.15	3672.30
427.33	3768.26
427.52	3702.73
427.71	3826.78
427.90	3819.75
428.09	3679.32
428.28	3840.82
428.46	3861.88
428.65	3611.45
428.84	3735.50
429.03	3859.54
429.22	3611.45
429.40	3943.80
429.59	3864.22
429.78	3613.79
429.97	3595.06
430.16	3817.41
430.34	3901.67
430.53	4051.47
430.72	3904.01
430.91	3922.74
431.10	3913.38
431.28	4079.55
431.47	4182.54
431.66	4280.84
431.85	4114.66
432.03	4252.75
432.22	4182.54
432.41	4161.47
432.60	4140.41
432.79	4159.13
432.97	4238.71
433.16	4318.29
433.35	4346.37
433.54	4290.20
433.72	4306.59
433.91	4411.91
434.10	4531.28
434.28	4409.57
434.47	4280.84
434.66	4411.91
434.85	4606.17
435.03	4599.15
435.22	4550.00
435.41	4678.73
435.59	4559.36
435.78	4662.35
435.97	4662.35
436.16	4622.56
436.34	4697.46
436.53	4664.69
436.72	4826.18
436.90	4514.89
437.09	4739.58
437.28	4704.48
437.46	4819.16
437.65	4762.99
437.84	4812.14
438.02	4762.99
438.21	4734.90
438.40	4734.90
438.58	4720.86
438.77	5018.11
438.96	4828.53
439.14	5008.75
439.33	5022.79
439.52	5207.69
439.70	5104.71
439.89	5153.86
440.08	5043.85
440.26	5043.85
440.45	5219.39
440.63	5434.72
440.82	5294.29
441.01	5411.32
441.19	5469.83
441.38	5612.60
441.57	5392.59
441.75	5572.82
441.94	5628.99
442.12	5806.87
442.31	5753.04
442.50	5650.05
442.68	5699.20
442.87	5717.93
443.05	5731.97
443.24	5806.87
443.43	5731.97
443.61	5888.79
443.80	5956.66
443.98	5699.20
444.17	5572.82
444.35	5944.96
444.54	6001.13
444.73	5942.62
444.91	5977.73
445.10	5898.15
445.28	5837.30
445.47	5720.27
445.65	5961.34
445.84	5856.02
446.02	6031.56
446.21	5984.75
446.39	5879.43
446.58	6071.35
446.77	5898.15
446.95	5832.62
447.14	6066.67
447.32	6148.59
447.51	6029.22
447.69	5970.71
447.88	6019.86
448.06	6050.28
448.25	6010.50
448.43	5996.45
448.62	6111.14
448.80	6122.84
448.99	6132.20
449.17	6186.04
449.36	6216.46
449.54	6310.08
449.73	6256.25
449.91	6478.60
450.10	6291.36
450.28	6544.14
450.46	6434.13
450.65	6504.35
450.83	6366.26
451.02	6509.03
451.20	6656.48
451.39	6450.52
451.57	6349.87
451.76	6541.80
451.94	6544.14
452.13	6527.75
452.31	6642.44
452.49	6450.52
452.68	6597.97
452.86	6614.35
453.05	6715.00
453.23	6581.59
453.42	6738.40
453.60	6750.10
453.78	6836.70
453.97	6502.01
454.15	6597.97
454.34	6789.89
454.52	6869.47
454.70	6820.32
454.89	6778.19
455.07	6986.50
455.26	6986.50
455.44	7005.22
455.62	6944.37
455.81	7056.72
455.99	7045.01
456.17	7215.87
456.36	7157.36
456.54	7012.24
456.73	7150.34
456.91	7279.07
457.09	7428.86
457.28	7517.80
457.46	7300.13
457.64	7393.75
457.83	7428.86
458.01	7187.79
458.19	7466.31
458.38	7377.37
458.56	7569.29
458.74	7496.74
458.93	7410.14
459.11	7583.34
459.29	7611.42
459.48	7599.72
459.66	7669.94
459.84	7524.82
460.03	7665.25
460.21	7606.74
460.39	7679.30
460.57	7826.75
460.76	7660.57
460.94	7852.50
461.12	7859.52
461.31	7852.50
461.49	7889.95
461.67	7819.73
461.85	7990.59
462.04	7948.46
462.22	8351.03
462.40	8175.49
462.59	8028.04
462.77	8098.25
462.95	8074.85
463.13	8159.11
463.32	8119.32
463.50	8116.98
463.68	8156.77
463.86	8252.73
464.05	8219.96
464.23	8121.66
464.41	8287.84
464.59	8126.34
464.78	8425.93
464.96	8226.98
465.14	8248.05
465.32	8402.52
465.50	8461.04
465.69	8578.06
465.87	8383.80
466.05	8484.44
466.23	8320.60
466.41	8290.18
466.60	8528.91
466.78	8301.88
466.96	8514.87
467.14	8533.59
467.32	8664.66
467.51	8737.22
467.69	8390.82
467.87	8456.36
468.05	8636.58
468.23	8695.09
468.41	8531.25
468.60	8564.02
468.78	8549.98
468.96	8676.37
469.14	8692.75
469.32	8903.40
469.50	8547.64
469.69	8828.50
469.87	8926.80
470.05	8891.70
470.23	9242.78
470.41	9174.90
470.59	9137.45
470.77	9095.32
470.95	9137.45
471.14	9329.38
471.32	9029.79
471.50	9261.50
471.68	9423.00
471.86	9444.06
472.04	9455.76
472.22	9834.93
472.40	9324.69
472.58	9544.70
472.77	9453.42
472.95	9701.52
473.13	9996.43
473.31	9809.19
473.49	9502.58
473.67	9699.18
473.85	9848.97
474.03	10195.37
474.21	9877.06
474.39	10211.76
474.57	9975.36
474.75	10076.01
474.93	10171.97
475.12	10186.01
475.30	10384.96
475.48	10150.90
475.66	10270.27
475.84	10443.47
476.02	10464.54
476.20	10546.45
476.38	10675.18
476.56	10888.17
476.74	10916.26
476.92	10590.92
477.10	10668.16
477.28	10864.77
477.46	11056.69
477.64	11318.83
477.82	11559.91
478.00	11555.22
478.18	11372.66
478.36	11503.73
478.54	11623.10
478.72	11784.60
478.90	12049.08
479.08	11796.30
479.26	11899.28
479.44	12173.13
479.62	12189.51
479.80	12105.25
479.98	12301.86
480.16	12386.12
480.34	12446.97
480.52	12552.29
480.70	12580.38
480.88	12592.08
481.06	12571.02
481.24	12727.83
481.41	12964.23
481.59	13025.08
481.77	12971.25
481.95	13362.12
482.13	13191.26
482.31	13114.02
482.49	14001.08
482.67	13294.24
482.85	13823.20
483.03	14057.26
483.21	14136.84
483.39	14132.15
483.57	14120.45
483.74	14391.95
483.92	14478.55
484.10	14288.97
484.28	14649.41
484.46	14712.61
484.64	15030.92
484.82	14843.68
485.00	15049.64
485.18	15400.72
485.35	15269.66
485.53	15152.63
485.71	15154.97
485.89	15531.80
486.07	15414.77
486.25	15487.32
486.43	15578.61
486.61	15815.00
486.78	15807.98
486.96	16290.13
487.14	16301.83
487.32	16271.40
487.50	16734.83
487.68	16669.30
487.85	17069.53
488.03	17022.72
488.21	17224.00
488.39	17212.30
488.57	17341.03
488.75	17226.34
488.92	17764.67
489.10	17757.64
489.28	17790.41
489.46	17951.91
489.64	17745.94
489.81	18593.22
489.99	18691.52
490.17	18773.44
490.35	18752.37
490.53	18579.17
490.70	18803.86
490.88	18733.65
491.06	19159.63
491.24	19410.06
491.41	19222.82
491.59	19496.66
491.77	19379.64
491.95	19435.81
492.13	19721.35
492.30	20067.75
492.48	20086.48
492.66	20034.99
492.84	20306.49
493.01	20393.09
493.19	20217.55
493.37	20755.87
493.54	20854.17
493.72	20819.07
493.90	20828.43
494.08	21048.44
494.25	21343.35
494.43	21750.60
494.61	21495.48
494.79	21699.11
494.96	21727.19
495.14	21638.25
495.32	22113.38
495.49	22300.62
495.67	22258.49
495.85	22356.80
496.02	22408.29
496.20	22640.00
496.38	22679.79
496.55	22951.29
496.73	23314.08
496.91	23058.96
497.09	22998.10
497.26	23194.71
497.44	23267.27
497.62	23033.21
497.79	23651.11
497.97	23672.18
498.14	23433.44
498.32	23924.96
498.50	24046.66
498.67	24142.63
498.85	23866.44
499.03	24484.34
499.20	24498.39
499.38	24259.65
499.56	24704.35
499.73	24584.99
499.91	24563.92
500.08	24755.85
500.26	24474.98
500.44	24746.48
500.61	24926.71
500.79	25186.50
500.97	25170.12
501.14	25376.09
501.32	25696.74
501.49	25067.14
501.67	25680.36
501.84	25692.06
502.02	25675.68
502.20	25907.39
502.37	26003.35
502.55	26015.05
502.72	25989.31
502.90	26054.84
503.07	26342.73
503.25	26103.99
503.43	26239.75
503.60	26480.82
503.78	26501.89
503.95	26520.61
504.13	26588.49
504.30	26647.00
504.48	26459.76
504.65	26965.31
504.83	27056.59
505.01	27187.66
505.18	27154.90
505.36	27686.20
505.53	27262.56
505.71	27791.52
505.88	27592.58
506.06	27391.29
506.23	27449.80
506.41	27454.48
506.58	27927.27
506.76	27775.14
506.93	28121.54
507.11	27887.48
507.28	28231.54
507.46	28453.89
507.63	28313.46
507.81	28568.58
507.98	28067.70
508.16	28222.18
508.33	28467.94
508.50	28444.53
508.68	28711.35
508.85	29170.10
509.03	28900.94
509.20	29144.35
509.38	28851.78
509.55	29254.36
509.73	28996.90
509.90	29394.79
510.08	29303.51
510.25	29425.22
510.42	29600.76
510.60	29425.22
510.77	30047.80
510.95	29837.15
511.12	29851.19
511.30	29984.60
511.47	30148.44
511.64	30338.02
511.82	30120.35
511.99	30438.67
512.17	30483.14
512.34	30532.29
512.51	30632.93
512.69	30754.64
512.86	30618.89
513.04	31002.74
513.21	30644.63
513.38	30824.86
513.56	30836.56
513.73	30948.90
513.90	31126.78
514.08	31164.23
514.25	31082.31
514.43	31208.70
514.60	31365.52
514.77	31243.81
514.95	31807.88
515.12	31037.84
515.29	31894.48
515.47	31534.04
515.64	31672.13
515.81	31449.78
515.99	32102.79
516.16	31892.14
516.33	32180.03
516.51	32435.14
516.68	31611.28
516.85	31814.90
517.03	32044.27
517.20	32371.95
517.37	32053.64
517.54	32362.59
517.72	32472.59
517.89	32273.65
518.06	32479.61
518.24	32254.92
518.41	32662.18
518.58	32374.29
518.75	32479.61
518.93	32917.29
519.10	33099.86
519.27	33149.01
519.45	33303.48
519.62	33495.41
519.79	33172.41
519.96	33429.87
520.14	34019.69
520.31	33560.94
520.48	33612.43
520.65	33656.90
520.83	34181.18
521.00	34082.88
521.17	33619.46
521.34	34087.56
521.52	34057.14
521.69	34057.14
521.86	34141.39
522.03	34052.45
522.20	34408.22
522.38	34368.43
522.55	34375.45
522.72	34539.29
522.89	34251.40
523.07	34513.54
523.24	34586.10
523.41	34911.43
523.58	34305.23
523.75	35063.57
523.92	35093.99
524.10	34925.47
524.27	35323.36
524.44	34920.79
524.61	35402.94
524.78	35599.55
524.96	35442.73
525.13	35723.60
525.30	35452.09
525.47	35615.93
525.64	35578.48
525.81	35990.42
525.98	35559.76
526.16	35667.42
526.33	35747.00
526.50	35735.30
526.67	35225.06
526.84	35917.86
527.01	35409.96
527.18	35229.74
527.36	36257.24
527.53	36077.02
527.70	36332.14
527.87	36474.91
528.04	36755.77
528.21	36421.08
528.38	36013.82
528.55	36493.63
528.72	36840.03
528.89	36755.77
529.07	36980.46
529.24	36680.88
529.41	36825.99
529.58	36538.10
529.75	36552.15
529.92	36931.31
530.09	36957.06
530.26	37163.03
530.43	37418.14
530.60	36786.20
530.77	37474.32
530.94	37556.24
531.11	37184.09
531.28	37757.52
531.46	37542.19
531.63	37593.68
531.80	37357.29
531.97	37179.41
532.14	37598.37
532.31	37043.66
532.48	37415.80
532.65	37579.64
532.82	37696.67
532.99	37947.11
533.16	37095.15
533.33	37860.51
533.50	38307.55
533.67	38075.84
533.84	37916.68
534.01	38373.08
534.18	38139.03
534.35	38756.93
534.52	37944.76
534.69	38216.27
534.86	38534.58
535.03	38333.29
535.20	38340.32
535.37	38745.23
535.54	38925.45
535.71	38761.61
535.88	38567.35
536.05	38557.99
536.22	38873.96
536.38	38808.42
536.55	38941.83
536.72	38859.91
536.89	38682.03
537.06	38665.65
537.23	39260.15
537.40	39049.50
537.57	39201.63
537.74	39145.46
537.91	39342.06
538.08	39491.86
538.25	39201.63
538.42	39145.46
538.59	39679.10
538.75	38904.38
538.92	39374.83
539.09	39487.18
539.26	39636.97
539.43	39496.54
539.60	39819.53
539.77	39433.35
539.94	39388.88
540.11	39526.97
540.28	39683.78
540.44	39400.58
540.61	39599.52
540.78	39494.20
540.95	39817.19
541.12	39840.60
541.29	39229.72
541.46	39981.03
541.62	39931.88
541.79	40451.48
541.96	39627.61
542.13	39948.26
542.30	40367.22
542.47	39711.87
542.63	40130.83
542.80	40369.56
542.97	41024.91
543.14	41048.32
543.31	40566.16
543.48	40804.90
543.64	41015.55
543.81	41036.61
543.98	40842.35
544.15	41043.63
544.32	40549.78
544.48	40694.89
544.65	40601.27
544.82	41130.23
544.99	40882.14
545.16	40914.90
545.32	40865.75
545.49	41413.44
545.66	41017.89
545.83	41364.29
546.00	41713.03
546.16	41729.41
546.33	41242.58
546.50	40856.39
546.67	41790.27
546.83	40950.01
547.00	40994.48
547.17	41450.89
547.34	41490.68
547.50	41619.41
547.67	41493.02
547.84	41755.16
548.00	41773.88
548.17	41572.60
548.34	41914.31
548.51	42148.37
548.67	42220.92
548.84	42057.09
549.01	42134.32
549.18	42071.13
549.34	42092.19
549.51	42494.77
549.68	42181.13
549.84	42110.92
550.01	42307.52
550.18	42209.22
550.34	42281.78
550.51	42146.03
550.68	41970.49
550.84	41570.25
551.01	42454.98
551.18	42141.35
551.34	42356.67
551.51	42148.37
551.68	42183.48
551.84	42590.73
552.01	42682.01
552.18	42810.74
552.34	42286.46
552.51	42328.59
552.68	42621.16
552.84	42902.02
553.01	42810.74
553.18	42682.01
553.34	42820.10
553.51	42426.89
553.67	43054.15
553.84	42738.18
554.01	43150.12
554.17	42976.92
554.34	43007.34
554.51	43213.31
554.67	43297.57
554.84	42962.87
555.00	42902.02
555.17	42775.63
555.33	43393.53
555.50	43349.06
555.67	43019.05
555.83	43112.67
556.00	43267.14
556.16	43548.01
556.33	43105.65
556.50	43281.19
556.66	43306.93
556.83	43264.80
556.99	43847.60
557.16	43573.75
557.32	43620.56
557.49	43636.95
557.65	42862.23
557.82	43580.78
557.98	43063.52
558.15	43679.08
558.32	43594.82
558.48	43346.72
558.65	43166.50
558.81	43208.63
558.98	43531.62
559.14	43491.83
559.31	43629.93
559.47	43519.92
559.64	43995.05
559.80	43969.30
559.97	43922.49
560.13	43344.38
560.30	43473.11
560.46	43990.37
560.63	43920.15
560.79	43831.21
560.96	43882.70
561.12	43550.35
561.29	43922.49
561.45	43973.98
561.61	44025.48
561.78	43852.28
561.94	43548.01
562.11	43831.21
562.27	43882.70
562.44	43819.51
562.60	43990.37
562.77	44250.17
562.93	43775.04
563.10	44222.08
563.26	43899.09
563.42	44304.00
563.59	43922.49
563.75	43966.96
563.92	44676.15
564.08	44102.71
564.24	44460.82
564.41	44348.47
564.57	44215.06
564.74	43988.03
564.90	44191.65
565.07	44355.49
565.23	43948.24
565.39	43985.69
565.56	44217.40
565.72	44023.14
565.88	44767.43
566.05	44072.29
566.21	44231.44
566.38	44289.96
566.54	44067.61
566.70	44556.78
566.87	44421.03
567.03	44336.77
567.19	44807.22
567.36	44388.26
567.52	44292.30
567.68	44868.07
567.85	44748.70
568.01	44250.17
568.17	44383.58
568.34	45027.23
568.50	44432.73
568.66	44292.30
568.83	44552.10
568.99	44313.36
569.15	44163.57
569.32	44198.68
569.48	44329.75
569.64	44594.23
569.81	44769.77
569.97	44306.34
570.13	44477.20
570.30	44336.77
570.46	44446.77
570.62	44112.08
570.78	44177.61
570.95	44271.23
571.11	44907.86
571.27	44624.65
571.43	44985.10
571.60	44507.63
571.76	44619.97
571.92	44460.82
572.09	44676.15
572.25	44308.68
572.41	45052.97
572.57	44657.42
572.74	44734.66
572.90	44964.03
573.06	44865.73
573.22	44528.69
573.38	44608.27
573.55	44392.94
573.71	44926.58
573.87	44713.59
574.03	44437.41
574.20	44751.04
574.36	45027.23
574.52	45043.61
574.68	44516.99
574.84	45118.51
575.01	44692.53
575.17	44678.49
575.33	44940.63
575.49	44931.26
575.65	45036.59
575.82	45125.53
575.98	44931.26
576.14	45069.36
576.30	44788.49
576.46	44769.77
576.62	44582.52
576.79	44643.38
576.95	44809.56
577.11	44903.18
577.27	45127.87
577.43	44851.69
577.59	44854.03
577.75	44655.08
577.92	44566.14
578.08	44437.41
578.24	44463.16
578.40	44694.87
578.56	44954.67
578.72	44783.81
578.88	45148.93
579.04	44624.65
579.21	44921.90
579.37	44725.30
579.53	44645.72
579.69	44554.44
579.85	44753.38
580.01	45106.80
580.17	45024.89
580.33	44959.35
580.49	44737.00
580.65	44973.39
580.82	44898.50
580.98	44722.96
581.14	44596.57
581.30	45170.00
581.46	44849.35
581.62	44776.79
581.78	44912.54
581.94	45125.53
582.10	44577.84
582.26	44907.86
582.42	44811.90
582.58	44856.37
582.74	44641.04
582.90	44795.51
583.06	44917.22
583.22	44910.20
583.38	44779.13
583.54	45071.70
583.70	44575.50
583.86	45127.87
584.02	45036.59
584.18	44966.37
584.34	45141.91
584.50	45177.02
584.66	44875.09
584.82	44781.47
584.98	45134.89
585.14	44896.16
585.30	44868.07
585.46	44362.51
585.62	44788.49
585.78	44914.88
585.94	44610.61
586.10	45141.91
586.26	45319.79
586.42	44830.62
586.58	44802.53
586.74	44563.80
586.90	44783.81
587.06	44800.19
587.22	45120.85
587.38	44697.21
587.54	45420.44
587.70	45146.59
587.86	44949.99
588.02	44886.79
588.18	44982.76
588.34	44481.88
588.49	44472.52
588.65	44641.04
588.81	44861.05
588.97	44474.86
589.13	44837.64
589.29	44577.84
589.45	44935.95
589.61	44870.41
589.77	45392.35
589.93	44886.79
590.08	45432.14
590.24	45155.96
590.40	44947.65
590.56	45015.52
590.72	45354.90
590.88	45034.25
591.04	45251.92
591.20	45455.54
591.35	45359.58
591.51	45689.60
591.67	45284.68
591.83	45034.25
591.99	45052.97
592.15	44594.23
592.31	45174.68
592.46	44828.28
592.62	44800.19
592.78	44842.32
592.94	45483.63
593.10	45111.49
593.26	45457.88
593.41	45233.19
593.57	45240.21
593.73	45160.64
593.89	45490.65
594.05	45067.02
594.20	44973.39
594.36	45102.12
594.52	45380.65
594.68	45275.32
594.84	45563.21
594.99	45303.41
595.15	45216.81
595.31	45471.93
595.47	45439.16
595.62	45670.87
595.78	45331.50
595.94	45200.43
596.10	45457.88
596.25	45574.91
596.41	45860.46
596.57	45076.38
596.73	45509.38
596.88	45216.81
597.04	45041.27
597.20	45471.93
597.36	45441.50
597.51	45701.30
597.67	45537.46
597.83	45450.86
597.99	45425.12
598.14	45170.00
598.30	45425.12
598.46	45593.64
598.61	45277.66
598.77	44849.35
598.93	45696.62
599.09	45404.05
599.24	45556.19
599.40	45455.54
599.56	45516.40
599.71	45289.37
599.87	45469.59
600.03	45373.63
600.18	45392.35
600.34	45146.59
600.50	45769.18
600.65	45577.25
600.81	45890.88
600.97	45361.92
601.12	45904.93
601.28	45743.43
601.44	45591.30
601.59	45635.77
601.75	45036.59
601.91	45013.18
602.06	45017.86
602.22	45188.72
602.37	45167.66
602.53	45326.81
602.69	45251.92
602.84	45195.74
603.00	44870.41
603.16	45214.47
603.31	45277.66
603.47	44868.07
603.62	44975.73
603.78	45455.54
603.94	45322.13
604.09	45017.86
604.25	45343.20
604.40	45460.23
604.56	45057.65
604.71	45521.08
604.87	45324.47
605.03	45490.65
605.18	45139.57
605.34	45530.44
605.49	44914.88
605.65	45408.73
605.80	44999.14
605.96	45017.86
606.12	45045.95
606.27	45177.02
606.43	45329.16
606.58	45338.52
606.74	45397.03
606.89	45186.38
607.05	45008.50
607.20	45172.34
607.36	45071.70
607.51	45586.61
607.67	44809.56
607.82	45071.70
607.98	45467.25
608.13	44781.47
608.29	44795.51
608.44	44598.91
608.60	44425.71
608.75	44556.78
608.91	44542.74
609.06	44928.92
609.22	44952.33
609.37	44800.19
609.53	45024.89
609.68	44961.69
609.84	44935.95
609.99	44835.30
610.15	44821.26
610.30	44718.28
610.46	44842.32
610.61	44694.87
610.76	44804.88
610.92	44715.93
611.07	44638.70
611.23	44538.05
611.38	44676.15
611.54	44758.06
611.69	44252.51
611.84	44629.34
612.00	44446.77
612.15	44690.19
612.31	44650.40
612.46	44502.95
612.62	45120.85
612.77	44308.68
612.92	44254.85
613.08	44779.13
613.23	44631.68
613.39	44603.59
613.54	44133.14
613.69	44364.85
613.85	44397.62
614.00	44603.59
614.15	44603.59
614.31	44458.48
614.46	44928.92
614.62	44610.61
614.77	44072.29
614.92	44563.80
615.08	44060.58
615.23	44215.06
615.38	43981.01
615.54	44119.10
615.69	44292.30
615.84	43962.28
616.00	44123.78
616.15	43772.70
616.30	44292.30
616.46	43594.82
616.61	44032.50
616.76	43782.06
616.92	43782.06
617.07	43999.73
617.22	43648.65
617.37	43737.59
617.53	44271.23
617.68	44182.29
617.83	43835.89
617.99	44184.63
618.14	44093.35
618.29	43899.09
618.45	43569.07
618.60	43845.26
618.75	43278.85
618.90	43924.83
619.06	43604.18
619.21	43826.53
619.36	43702.48
619.51	43512.90
619.67	43615.88
619.82	44088.67
619.97	43641.63
620.12	43592.48
620.28	43079.90
620.43	43466.09
620.58	43571.41
620.73	43388.85
620.89	43398.21
621.04	43697.80
621.19	43468.43
621.34	43353.74
621.49	43206.29
621.65	43030.75
621.80	43540.99
621.95	43103.31
622.10	43157.14
622.25	42623.50
622.41	42827.12
622.56	42953.51
622.71	43316.29
622.86	43356.08
623.01	43452.05
623.16	43449.70
623.32	43234.38
623.47	43194.59
623.62	43562.05
623.77	43035.43
623.92	42649.24
624.07	42981.60
624.23	42784.99
624.38	42623.50
624.53	42499.45
624.68	43203.95
624.83	43136.07
624.98	42869.25
625.13	42623.50
625.29	42569.66
625.44	43126.71
625.59	42501.79
625.74	42462.00
625.89	42176.45
626.04	41963.46
626.19	42777.97
626.34	42646.90
626.49	42639.88
626.65	42408.17
626.80	42644.56
626.95	42134.32
627.10	42263.05
627.25	41956.44
627.40	42171.77
627.55	41930.70
627.70	41759.84
627.85	41792.61
628.00	41996.23
628.15	42382.42
628.30	42328.59
628.45	42752.23
628.60	42515.83
628.76	42190.50
628.91	42206.88
629.06	42199.86
629.21	42160.07
629.36	41507.06
629.51	41687.28
629.66	41450.89
629.81	41972.83
629.96	41909.63
630.11	41818.35
630.26	41839.42
630.41	42218.58
630.56	41481.31
630.71	41937.72
630.86	41888.57
631.01	41801.97
631.16	41851.12
631.31	41991.55
631.46	41151.30
631.61	41378.33
631.76	41794.95
631.91	41537.49
632.06	41577.28
632.21	41668.56
632.36	41670.90
632.51	41605.36
632.66	41462.59
632.81	40947.67
632.96	41574.94
633.10	41357.27
633.25	41085.76
633.40	41603.02
633.55	41544.51
633.70	41043.63
633.85	41270.67
634.00	41375.99
634.15	41078.74
634.30	41486.00
634.45	41275.35
634.60	41532.81
634.75	40816.60
634.90	40910.22
635.05	41074.06
635.19	40898.52
635.34	41282.37
635.49	41137.26
635.64	40383.60
635.79	40727.66
635.94	40271.26
636.09	40390.62
636.24	40652.76
636.39	40861.07
636.53	40196.36
636.68	40212.74
636.83	40385.94
636.98	40783.83
637.13	40409.35
637.28	40573.19
637.43	40680.85
637.57	40973.42
637.72	40671.49
637.87	40732.34
638.02	40601.27
638.17	40247.85
638.32	40107.42
638.46	39969.33
638.61	40456.16
638.76	40172.96
638.91	40219.77
639.06	40289.98
639.20	40292.32
639.35	40285.30
639.50	39791.45
639.65	40451.48
639.80	40531.06
639.94	40224.45
640.09	39810.17
640.24	40105.08
640.39	39625.27
640.54	39756.34
640.68	39899.11
640.83	39789.11
640.98	40051.25
641.13	40236.15
641.27	40273.60
641.42	39569.10
641.57	39803.15
641.72	39454.41
641.86	39573.78
642.01	39648.68
642.16	39821.87
642.31	39536.33
642.45	39686.12
642.60	39283.55
642.75	39423.98
642.90	39562.08
643.04	39419.30
643.19	39243.76
643.34	39543.35
643.48	39828.90
643.63	39304.62
643.78	39370.15
643.93	39047.16
644.07	39112.69
644.22	39548.03
644.37	39075.24
644.51	39309.30
644.66	39072.90
644.81	39306.96
644.95	39611.23
645.10	39625.27
645.25	39452.07
645.39	39690.80
645.54	39257.81
645.69	39335.04
645.83	39510.58
645.98	39283.55
646.13	39009.71
646.27	39222.70
646.42	39079.92
646.57	39028.43
646.71	39051.84
646.86	39313.98
647.00	38955.88
647.15	39239.08
647.30	39213.34
647.44	39321.00
647.59	39093.97
647.74	38770.97
647.88	39124.40
648.03	38206.90
648.17	38700.76
648.32	38370.74
648.47	38857.57
648.61	38773.31
648.76	38960.56
648.90	38801.40
649.05	38588.41
649.20	38581.39
649.34	39037.80
649.49	38632.88
649.63	38380.10
649.78	38286.48
649.92	38340.32
650.07	38174.14
650.21	38417.55
650.36	38747.57
650.51	38403.51
650.65	38728.84
650.80	38974.60
650.94	38895.02
651.09	38389.47
651.23	38447.98
651.38	38380.10
651.52	37912.00
651.67	38239.67
651.81	38356.70
651.96	38078.18
652.10	37996.26
652.25	37926.04
652.39	38000.94
652.54	38286.48
652.68	38174.14
652.83	38366.06
652.97	37993.92
653.12	38057.11
653.26	37816.04
653.41	38174.14
653.55	37598.37
653.70	37778.59
653.84	37820.72
653.99	37972.85
654.13	37464.96
654.27	37750.50
654.42	38022.00
654.56	37537.51
654.71	37832.42
654.85	37778.59
655.00	37696.67
655.14	37113.87
655.29	37422.83
655.43	37638.15
655.57	37549.21
655.72	37792.63
655.86	36940.68
656.01	37352.61
656.15	37031.96
656.30	37233.24
656.44	37172.39
656.58	37216.86
656.73	37163.03
656.87	37057.70
657.01	37205.16
657.16	36776.84
657.30	36980.46
657.45	37095.15
657.59	37106.85
657.73	37015.57
657.88	36854.08
658.02	36247.88
658.16	37181.75
658.31	37036.64
658.45	36818.97
658.60	36493.63
658.74	36865.78
658.88	36914.93
659.03	36444.48
659.17	36755.77
659.31	36219.79
659.46	36591.94
659.60	36701.94
659.74	36229.15
659.89	36187.02
660.03	36275.96
660.17	36706.62
660.32	36306.39
660.46	36498.31
660.60	36605.98
660.74	36114.47
660.89	36430.44
661.03	36077.02
661.17	35889.77
661.32	35679.13
661.46	35672.10
661.60	35730.62
661.74	35938.93
661.89	36137.87
662.03	35873.39
662.17	35604.23
662.31	35604.23
662.46	35957.65
662.60	35763.39
662.74	35775.09
662.88	35351.45
663.03	35136.12
663.17	35484.86
663.31	35550.40
663.45	35161.87
663.60	35386.56
663.74	35019.10
663.88	35136.12
664.02	35133.78
664.17	34883.34
664.31	34801.43
664.45	35239.11
664.59	34911.43
664.73	34939.52
664.88	35260.17
665.02	34677.38
665.16	34649.29
665.30	34742.91
665.44	34525.24
665.59	34157.78
665.73	34160.12
665.87	34382.47
666.01	34628.23
666.15	34258.42
666.29	34595.46
666.44	34684.40
666.58	34181.18
666.72	34513.54
666.86	34553.33
667.00	34403.53
667.14	33855.85
667.28	33914.36
667.43	34125.01
667.57	34036.07
667.71	33464.98
667.85	33701.37
667.99	33947.13
668.13	33317.53
668.27	33872.23
668.41	33979.90
668.56	33565.62
668.70	34005.64
668.84	33839.47
668.98	33441.57
669.12	33354.97
669.26	33387.74
669.40	33048.36
669.54	33287.10
669.68	33237.95
669.82	32999.21
669.96	33123.26
670.10	32900.91
670.25	33259.01
670.39	33118.58
670.53	32730.05
670.67	32598.98
670.81	32603.66
670.95	32896.23
671.09	32549.83
671.23	32493.66
671.37	32587.28
671.51	32067.68
671.65	32194.07
671.79	31789.16
671.93	31962.36
672.07	32205.77
672.21	32648.13
672.35	31990.44
672.49	32065.34
672.63	32013.85
672.77	32030.23
672.91	32128.53
673.05	31910.86
673.19	31653.40
673.33	31480.21
673.47	31351.48
673.61	31398.29
673.75	30752.30
673.89	31192.32
674.03	31115.08
674.17	31007.42
674.31	31428.71
674.45	31044.87
674.59	30946.56
674.73	31353.82
674.87	31019.12
675.01	31007.42
675.15	31129.12
675.29	31274.24
675.43	31035.50
675.56	30712.51
675.70	30593.14
675.84	30848.26
675.98	29584.37
676.12	29942.47
676.26	29958.86
676.40	30110.99
676.54	29757.57
676.68	29951.84
676.82	29502.45
676.96	29729.48
677.10	29408.83
677.23	29680.33
677.37	29357.34
677.51	29362.02
677.65	29401.81
677.79	28655.18
677.93	29127.97
678.07	28891.57
678.21	28687.95
678.34	29024.98
678.48	29053.07
678.62	28772.21
678.76	28652.84
678.90	28699.65
679.04	28395.38
679.18	28634.11
679.31	27868.76
679.45	28299.42
679.59	27578.53
679.73	28018.55
679.87	28240.90
680.00	27702.58
680.14	27807.90
680.28	27384.27
680.42	27648.75
680.56	27400.65
680.70	27061.27
680.83	27360.86
680.97	27197.02
681.11	26948.93
681.25	26618.91
681.39	27138.51
681.52	27381.93
681.66	27065.96
681.80	26792.11
681.94	26815.52
682.07	26309.96
682.21	26628.27
682.35	26494.86
682.49	26354.43
682.62	26515.93
682.76	26181.23
682.90	25916.75
683.04	25968.24
683.17	26293.58
683.31	25846.54
683.45	26082.93
683.59	25717.81
683.72	25462.69
683.86	25750.57
684.00	25481.41
684.13	25462.69
684.27	25741.21
684.41	25287.15
684.55	25062.46
684.68	24980.54
684.82	24840.11
684.96	24514.77
685.09	24886.92
685.23	24840.11
685.37	24545.20
685.50	24367.32
685.64	24671.59
685.78	24156.67
685.91	24645.84
686.05	24051.34
686.19	23765.80
686.32	24245.61
686.46	24156.67
686.60	23807.93
686.73	23733.03
686.87	23503.66
687.01	23386.63
687.14	23056.62
687.28	22967.68
687.42	23269.61
687.55	23047.26
687.69	23183.01
687.82	22948.95
687.96	22955.97
688.10	22815.54
688.23	22747.67
688.37	22565.10
688.50	22267.86
688.64	22356.80
688.78	22253.81
688.91	21984.65
689.05	22429.35
689.18	22305.31
689.32	21839.54
689.46	22256.15
689.59	21926.14
689.73	22361.48
689.86	21813.79
690.00	21731.87
690.13	21741.24
690.27	21439.31
690.41	21591.44
690.54	21329.30
690.68	21483.78
690.81	20959.50
690.95	20936.09
691.08	21207.59
691.22	21050.78
691.35	21067.16
691.49	21252.06
691.62	20999.29
691.76	20964.18
691.89	20624.80
692.03	20519.48
692.16	20334.57
692.30	20568.63
692.43	20266.70
692.57	20116.90
692.70	20301.81
692.84	20063.07
692.97	20088.82
693.11	19910.94
693.24	19658.16
693.38	19491.98
693.51	19812.63
693.65	19440.49
693.78	19639.44
693.92	19562.20
694.05	19250.91
694.19	19229.84
694.32	19150.26
694.45	19094.09
694.59	18970.04
694.72	19323.46
694.86	18944.30
694.99	18738.33
695.13	18876.42
695.26	18523.00
695.39	18356.82
695.53	18249.16
695.66	18523.00
695.80	18375.55
695.93	18228.09
696.07	17867.65
696.20	17987.02
696.33	17954.25
696.47	17853.61
696.60	18333.42
696.73	18207.03
696.87	17748.28
697.00	17827.86
697.14	17528.27
697.27	17736.58
697.40	17687.43
697.54	17621.89
697.67	16996.97
697.80	17413.59
697.94	17444.01
698.07	17238.05
698.21	16901.01
698.34	17067.19
698.47	16994.63
698.61	16847.18
698.74	16748.87
698.87	16528.86
699.01	16369.71
699.14	16362.69
699.27	16554.61
699.40	16414.18
699.54	16456.31
699.67	16119.27
699.80	16074.80
699.94	16053.73
700.07	16020.97
700.20	16049.05
700.34	15969.48
700.47	15812.66
700.60	16058.42
700.73	15805.64
700.87	15522.43
701.00	15845.43
701.13	15391.36
701.26	15665.21
701.40	15157.31
701.53	15281.36
701.66	15419.45
701.79	15286.04
701.93	15367.96
702.06	15187.74
702.19	14817.93
702.32	15140.93
702.46	14885.81
702.59	14752.40
702.72	14759.42
702.85	14803.89
702.99	14597.92
703.12	14719.63
703.25	14663.46
703.38	14792.19
703.51	14324.08
703.65	14417.70
703.78	13991.72
703.91	14347.48
704.04	13963.64
704.17	14008.11
704.31	14127.47
704.44	13729.58
704.57	13692.13
704.70	13542.34
704.83	13743.63
704.96	13902.78
705.10	13584.47
705.23	13678.09
>>>>>End Processed Spectral Data<<<<<
