SpectraSuite Data File
++++++++++++++++++++++++++++++++++++
Date: Fri Oct 25 11:23:10 EDT 2013
User: price-jones
Dark Spectrum Present: No
Reference Spectrum Present: No
Number of Sampled Component Spectra: 1
Spectrometers: USB2+H05261
Integration Time (usec): 100000 (USB2+H05261)
Spectra Averaged: 1 (USB2+H05261)
Boxcar Smoothing: 0 (USB2+H05261)
Correct for Electrical Dark: No (USB2+H05261)
Strobe/Lamp Enabled: No (USB2+H05261)
Correct for Detector Non-linearity: No (USB2+H05261)
Correct for Stray Light: No (USB2+H05261)
Number of Pixels in Processed Spectrum: 2048
>>>>>Begin Processed Spectral Data<<<<<
365.73	278.52
365.92	278.52
366.12	278.52
366.32	102.98
366.52	135.75
366.72	91.28
366.91	63.19
367.11	177.88
367.31	70.22
367.51	98.30
367.70	163.84
367.90	147.45
368.10	124.05
368.30	77.24
368.49	91.28
368.69	168.52
368.89	217.67
369.09	182.56
369.28	138.09
369.48	138.09
369.68	161.50
369.87	196.60
370.07	140.43
370.27	217.67
370.47	273.84
370.66	594.50
370.86	585.13
371.06	713.86
371.25	685.78
371.45	643.65
371.65	718.54
371.84	674.07
372.04	702.16
372.24	770.04
372.44	763.01
372.63	720.88
372.83	770.04
373.03	774.72
373.22	737.27
373.42	720.88
373.62	767.70
373.81	889.40
374.01	807.48
374.21	812.17
374.40	763.01
374.60	922.17
374.79	800.46
374.99	837.91
375.19	809.83
375.38	844.93
375.58	880.04
375.78	903.45
375.97	856.64
376.17	915.15
376.37	805.14
376.56	854.30
376.76	917.49
376.95	844.93
377.15	882.38
377.35	866.00
377.54	926.85
377.74	887.06
377.93	898.77
378.13	910.47
378.33	980.68
378.52	842.59
378.72	978.34
378.91	945.58
379.11	917.49
379.31	870.68
379.50	940.90
379.70	1015.79
379.89	1004.09
380.09	997.07
380.28	971.32
380.48	1018.13
380.68	959.62
380.87	926.85
381.07	933.87
381.26	1013.45
381.46	1046.22
381.65	1020.47
381.85	990.05
382.04	1041.54
382.24	1111.75
382.43	1107.07
382.63	1053.24
382.83	1144.52
383.02	1139.84
383.22	1193.67
383.41	1093.03
383.61	1095.37
383.80	1200.69
384.00	1114.10
384.19	1144.52
384.39	1100.05
384.58	1100.05
384.78	1083.67
384.97	1149.20
385.17	1128.14
385.36	1163.25
385.56	1181.97
385.75	1233.46
385.95	1210.06
386.14	1167.93
386.34	1235.80
386.53	1221.76
386.72	1256.87
386.92	1231.12
387.11	1228.78
387.31	1254.53
387.50	1193.67
387.70	1228.78
387.89	1238.14
388.09	1242.82
388.28	1203.04
388.48	1317.72
388.67	1355.17
388.86	1289.64
389.06	1418.36
389.25	1252.19
389.45	1376.24
389.64	1359.85
389.84	1397.30
390.03	1376.24
390.22	1324.74
390.42	1357.51
390.61	1348.15
390.81	1350.49
391.00	1420.71
391.19	1387.94
391.39	1516.67
391.58	1481.56
391.78	1460.49
391.97	1528.37
392.16	1516.67
392.36	1544.75
392.55	1516.67
392.75	1458.15
392.94	1589.22
393.13	1441.77
393.33	1535.39
393.52	1593.90
393.71	1687.53
393.91	1556.46
394.10	1556.46
394.29	1706.25
394.49	1605.61
394.68	1741.36
394.88	1493.26
395.07	1739.02
395.26	1664.12
395.46	1717.95
395.65	1650.08
395.84	1734.34
396.04	1802.21
396.23	1703.91
396.42	1757.74
396.62	1809.23
396.81	1811.57
397.00	1778.81
397.19	1769.44
397.39	1872.43
397.58	1827.96
397.77	1778.81
397.97	1830.30
398.16	1816.26
398.35	1926.26
398.55	1944.99
398.74	1942.64
398.93	2003.50
399.12	1980.09
399.32	1912.22
399.51	1977.75
399.70	1968.39
399.90	1966.05
400.09	2073.71
400.28	2132.23
400.47	2045.63
400.67	2157.97
400.86	2176.70
401.05	2162.66
401.24	2101.80
401.44	2218.83
401.63	2087.76
401.82	2108.82
402.01	2069.03
402.21	2136.91
402.40	2209.47
402.59	2246.91
402.78	2225.85
402.97	2314.79
403.17	2223.51
403.36	2305.43
403.55	2291.38
403.74	2438.84
403.93	2312.45
404.13	2399.05
404.32	2396.71
404.51	2361.60
404.70	2509.05
404.89	2359.26
405.09	2464.58
405.28	2436.50
405.47	2438.84
405.66	2417.77
405.85	2478.63
406.05	2511.39
406.24	2689.28
406.43	2513.74
406.62	2698.64
406.81	2700.98
407.00	2626.08
407.20	2668.21
407.39	2628.42
407.58	2745.45
407.77	2766.51
407.96	2881.20
408.15	2787.58
408.34	2708.00
408.54	2745.45
408.73	2820.35
408.92	2834.39
409.11	2885.88
409.30	2848.43
409.49	2928.01
409.68	3005.25
409.87	3033.33
410.07	3061.42
410.26	3056.74
410.45	3089.51
410.64	3063.76
410.83	3185.47
411.02	3138.66
411.21	3283.77
411.40	3105.89
411.59	3283.77
411.78	3211.22
411.98	3274.41
412.17	3290.79
412.36	3337.60
412.55	3236.96
412.74	3426.54
412.93	3447.61
413.12	3400.80
413.31	3595.06
413.50	3424.20
413.69	3400.80
413.88	3712.09
414.07	3592.72
414.26	3662.94
414.45	3609.11
414.64	3826.78
414.83	3723.79
415.02	3857.20
415.22	3730.81
415.41	4004.66
415.60	3971.89
415.79	3985.93
415.98	4046.79
416.17	3950.82
416.36	4070.19
416.55	4035.08
416.74	4077.21
416.93	4086.58
417.12	4145.09
417.31	4280.84
417.50	4245.73
417.69	4489.15
417.88	4262.12
418.07	4306.59
418.26	4245.73
418.45	4390.84
418.64	4477.44
418.83	4507.87
419.02	4477.44
419.21	4437.66
419.39	4678.73
419.58	4592.13
419.77	4521.92
419.96	4505.53
420.15	4622.56
420.34	4685.75
420.53	4564.04
420.72	4849.59
420.91	4919.81
421.10	4676.39
421.29	4798.10
421.48	4830.87
421.67	4833.21
421.86	4861.29
422.05	4973.64
422.24	4954.91
422.43	4870.65
422.61	4854.27
422.80	5062.58
422.99	4990.02
423.18	5097.69
423.37	5046.20
423.56	5013.43
423.75	5137.48
423.94	4994.70
424.13	4568.73
424.32	4779.37
424.50	5156.20
424.69	5139.82
424.88	5088.32
425.07	5008.75
425.26	5004.07
425.45	5011.09
425.64	5032.15
425.83	4990.02
426.01	5107.05
426.20	5004.07
426.39	5055.56
426.58	5029.81
426.77	5067.26
426.96	5214.71
427.15	5214.71
427.33	5261.52
427.52	5212.37
427.71	5247.48
427.90	5142.16
428.09	5305.99
428.28	5373.87
428.46	5392.59
428.65	5373.87
428.84	5479.19
429.03	5423.02
429.22	5327.06
429.40	5467.49
429.59	5483.88
429.78	5406.64
429.97	5378.55
430.16	5575.16
430.34	5598.56
430.53	5760.06
430.72	5743.67
430.91	5696.86
431.10	5643.03
431.28	5682.82
431.47	5956.66
431.66	6066.67
431.85	5888.79
432.03	5987.09
432.22	6050.28
432.41	5944.96
432.60	5973.05
432.79	6022.20
432.97	6019.86
433.16	6064.33
433.35	6071.35
433.54	6188.38
433.72	6384.98
433.91	6169.65
434.10	6218.80
434.28	6179.01
434.47	6368.60
434.66	6368.60
434.85	6464.56
435.03	6415.41
435.22	6242.21
435.41	6314.77
435.59	6546.48
435.78	6492.65
435.97	6644.78
436.16	6602.65
436.34	6424.77
436.53	6494.99
436.72	6726.70
436.90	6546.48
437.09	6579.25
437.28	6612.01
437.46	6722.02
437.65	6846.07
437.84	6986.50
438.02	6794.58
438.21	6846.07
438.40	6829.68
438.58	6995.86
438.77	7204.17
438.96	7192.47
439.14	7145.66
439.33	7300.13
439.52	7133.95
439.70	7152.68
439.89	7578.65
440.08	7440.56
440.26	7297.79
440.45	7431.20
440.63	7634.83
440.82	7716.75
441.01	7515.46
441.19	7679.30
441.38	7967.18
441.57	7885.26
441.75	7761.22
441.94	8065.49
442.12	7995.27
442.31	8109.96
442.50	8124.00
442.68	8168.47
442.87	8006.97
443.05	8248.05
443.24	8276.13
443.43	8156.77
443.61	8327.63
443.80	8381.46
443.98	8215.28
444.17	7992.93
444.35	8304.22
444.54	8482.10
444.73	8266.77
444.91	8372.10
445.10	8222.30
445.28	8552.32
445.47	8318.26
445.65	8547.64
445.84	8524.23
446.02	8594.45
446.21	8430.61
446.39	8325.29
446.58	8777.01
446.77	8549.98
446.95	8395.50
447.14	8533.59
447.32	8812.12
447.51	8365.07
447.69	8573.38
447.88	8531.25
448.06	8699.77
448.25	8688.07
448.43	8641.26
448.62	8587.43
448.80	8585.08
448.99	8746.58
449.17	8912.76
449.36	8926.80
449.54	8830.84
449.73	9240.44
449.91	9088.30
450.10	9144.47
450.28	9277.88
450.46	9387.89
450.65	9165.54
450.83	9142.13
451.02	9071.92
451.20	9413.63
451.39	9118.73
451.57	9252.14
451.76	9256.82
451.94	9357.46
452.13	9341.08
452.31	9486.19
452.49	9151.49
452.68	9298.95
452.86	9479.17
453.05	9511.94
453.23	9619.60
453.42	9535.34
453.60	9460.45
453.78	9701.52
453.97	9401.93
454.15	9465.13
454.34	9621.94
454.52	9905.15
454.70	9837.27
454.89	10078.35
455.07	9940.26
455.26	9921.53
455.44	10146.22
455.62	10125.16
455.81	10026.86
455.99	10113.45
456.17	10094.73
456.36	10267.93
456.54	10253.89
456.73	10499.64
456.91	10700.93
457.09	10602.63
457.28	10768.80
457.46	10518.37
457.64	10663.48
457.83	10633.05
458.01	10438.79
458.19	10803.91
458.38	10834.34
458.56	10689.23
458.74	10668.16
458.93	10946.69
459.11	10724.33
459.29	10822.64
459.48	10918.60
459.66	11066.05
459.84	11073.07
460.03	11398.41
460.21	10827.32
460.39	11098.82
460.57	11211.17
460.76	11089.46
460.94	11293.08
461.12	11309.47
461.31	11452.24
461.49	11227.55
461.67	11290.74
461.85	11653.53
462.04	11501.39
462.22	11747.15
462.40	11735.45
462.59	11698.00
462.77	11803.32
462.95	11833.75
463.13	11676.93
463.32	11789.28
463.50	11754.17
463.68	12035.03
463.86	11908.65
464.05	11880.56
464.23	11775.24
464.41	12095.89
464.59	11829.07
464.78	12306.54
464.96	12276.11
465.14	11948.43
465.32	12266.75
465.50	12273.77
465.69	12313.56
465.87	12180.15
466.05	12507.82
466.23	12430.59
466.41	12512.50
466.60	12638.89
466.78	12306.54
466.96	12278.45
467.14	12346.33
467.32	12395.48
467.51	12868.27
467.69	12332.28
467.87	12671.66
468.05	12844.86
468.23	12585.06
468.41	12905.71
468.60	12786.35
468.78	12786.35
468.96	12713.79
469.14	12947.84
469.32	13083.59
469.50	12725.49
469.69	13345.73
469.87	13149.13
470.05	13467.44
470.23	13399.57
470.41	13408.93
470.59	13472.12
470.77	13212.32
470.95	13593.83
471.14	13851.29
471.32	13121.04
471.50	13738.94
471.68	13570.43
471.86	13996.40
472.04	13965.98
472.22	14281.95
472.40	13713.20
472.58	13916.83
472.77	14246.84
472.95	14143.86
473.13	14773.46
473.31	13930.87
473.49	14396.64
473.67	14319.40
473.85	14396.64
474.03	14801.55
474.21	14834.32
474.39	14864.74
474.57	14801.55
474.75	15049.64
474.93	15084.75
475.12	14827.29
475.30	15475.62
475.48	15279.02
475.66	15499.03
475.84	15459.24
476.02	15370.30
476.20	15569.24
476.38	15946.07
476.56	16215.23
476.74	16365.03
476.92	16121.61
477.10	15796.28
477.28	16098.20
477.46	16365.03
477.64	16535.88
477.82	16594.40
478.00	17116.34
478.18	16975.91
478.36	17174.85
478.54	17413.59
478.72	17371.46
478.90	17869.99
479.08	17862.97
479.26	17975.31
479.44	17811.48
479.62	18059.57
479.80	18604.92
479.98	18104.04
480.16	18927.91
480.34	18546.40
480.52	18927.91
480.70	18944.30
480.88	18747.69
481.06	18757.05
481.24	19112.81
481.41	19367.93
481.59	19587.94
481.77	19999.88
481.95	19609.01
482.13	20109.88
482.31	20086.48
482.49	20549.90
482.67	20365.00
482.85	20891.62
483.03	20870.56
483.21	20924.39
483.39	21106.95
483.57	21282.49
483.74	21383.13
483.92	21619.53
484.10	21504.84
484.28	21649.96
484.46	22429.35
484.64	22478.50
484.82	22279.56
485.00	22309.99
485.18	23166.62
485.35	23503.66
485.53	23213.43
485.71	23330.46
485.89	23763.46
486.07	23854.74
486.25	23836.02
486.43	23714.31
486.61	24100.50
486.78	24545.20
486.96	24716.06
487.14	24479.66
487.32	24950.11
487.50	25230.98
487.68	25261.40
487.85	25553.97
488.03	25465.03
488.21	26352.09
488.39	26183.57
488.57	26661.04
488.75	26675.09
488.92	26810.84
489.10	26712.53
489.28	27087.02
489.46	27248.52
489.64	27129.15
489.81	27962.38
489.99	27580.87
490.17	27768.12
490.35	28383.68
490.53	28243.24
490.70	29001.58
490.88	28582.62
491.06	29406.49
491.24	29046.05
491.41	29584.37
491.59	29961.20
491.77	29563.31
491.95	30101.63
492.13	30141.42
492.30	30246.74
492.48	30621.23
492.66	30450.37
492.84	30312.28
493.01	30913.80
493.19	30766.34
493.37	31278.92
493.54	31917.89
493.72	31864.05
493.90	31749.37
494.08	32175.34
494.25	32694.94
494.43	32538.13
494.61	32629.41
494.79	33139.65
494.96	33006.23
495.14	32875.16
495.32	33699.03
495.49	33156.03
495.67	33266.03
495.85	34462.05
496.02	33902.66
496.20	34403.53
496.38	34504.18
496.55	34122.67
496.73	35084.63
496.91	35070.59
497.09	34969.94
497.26	35260.17
497.44	35267.19
497.62	35512.95
497.79	36400.01
497.97	35583.16
498.14	36308.73
498.32	36701.94
498.50	36718.32
498.67	36842.37
498.85	36889.18
499.03	37235.58
499.20	37254.31
499.38	37724.75
499.56	37287.07
499.73	37614.75
499.91	38085.20
500.08	38078.18
500.26	37904.98
500.44	37757.52
500.61	38522.88
500.79	38150.73
500.97	38345.00
501.14	38948.85
501.32	39201.63
501.49	38981.62
501.67	39037.80
501.84	39281.21
502.02	39220.36
502.20	39700.17
502.37	39487.18
502.55	39856.98
502.72	40084.01
502.90	40217.43
503.07	39728.25
503.25	40594.25
503.43	40278.28
503.60	41022.57
503.78	40636.38
503.95	40758.09
504.13	40989.80
504.30	41488.34
504.48	40950.01
504.65	41013.21
504.83	41577.28
505.01	41766.86
505.18	41752.82
505.36	42314.55
505.53	41535.15
505.71	41710.69
505.88	42164.75
506.06	42021.98
506.23	42625.84
506.41	42284.12
506.58	42653.92
506.76	42883.30
506.93	42763.93
507.11	42831.80
507.28	43002.66
507.46	43423.96
507.63	43583.12
507.81	43800.79
507.98	43545.67
508.16	43618.22
508.33	44156.55
508.50	43941.22
508.68	44549.76
508.85	43999.73
509.03	43990.37
509.20	43943.56
509.38	44992.12
509.55	45008.50
509.73	45261.28
509.90	45043.61
510.08	44968.71
510.25	45258.94
510.42	45265.96
510.60	45642.79
510.77	45935.35
510.95	45787.90
511.12	45558.53
511.30	45823.01
511.47	45902.59
511.64	45544.48
511.82	46251.33
511.99	45975.14
512.17	46560.28
512.34	46504.10
512.51	47054.13
512.69	46728.80
512.86	46902.00
513.04	46967.53
513.21	46967.53
513.38	47297.55
513.56	47288.18
513.73	47136.05
513.90	47468.40
514.08	47540.96
514.25	47763.31
514.43	48311.00
514.60	48051.20
514.77	47973.96
514.95	48406.96
515.12	48217.38
515.29	48083.97
515.47	48322.70
515.64	48828.26
515.81	48463.13
515.99	48488.88
516.16	48729.95
516.33	48980.39
516.51	49301.04
516.68	48758.04
516.85	48891.45
517.03	49537.44
517.20	49499.99
517.37	49226.15
517.54	49364.24
517.72	49450.84
517.89	49441.48
518.06	49579.57
518.24	49567.87
518.41	50026.61
518.58	49750.43
518.75	49633.40
518.93	50092.15
519.10	50089.80
519.27	50040.65
519.45	49930.65
519.62	50497.06
519.79	50508.76
519.96	50188.11
520.14	50754.52
520.31	50688.98
520.48	50993.25
520.65	50665.58
520.83	50965.17
521.00	51278.80
521.17	51110.28
521.34	51196.88
521.52	51072.83
521.69	51019.00
521.86	51466.04
522.03	51866.27
522.20	51739.88
522.38	51987.98
522.55	51627.54
522.72	51784.35
522.89	51758.61
523.07	52175.22
523.24	51580.73
523.41	52027.77
523.58	51964.57
523.75	52332.04
523.92	52369.49
524.10	52285.23
524.27	52458.43
524.44	52406.94
524.61	52685.46
524.78	52823.55
524.96	52608.22
525.13	52701.84
525.30	52891.43
525.47	52952.28
525.64	52961.64
525.81	53205.06
525.98	52987.39
526.16	53001.43
526.33	52963.98
526.50	53525.71
526.67	53118.46
526.84	53347.83
527.01	53198.04
527.18	53209.74
527.36	53649.76
527.53	53420.39
527.70	53715.29
527.87	53822.96
528.04	53539.75
528.21	53537.41
528.38	53682.53
528.55	53780.83
528.72	53710.61
528.89	53979.78
529.07	53556.14
529.24	53958.71
529.41	54101.48
529.58	53939.99
529.75	53837.00
529.92	54319.15
530.09	54255.96
530.26	54305.11
530.43	54436.18
530.60	54038.29
530.77	54110.85
530.94	54501.71
531.11	54569.59
531.28	54316.81
531.46	54534.48
531.63	54747.47
531.80	54555.55
531.97	54885.56
532.14	54827.05
532.31	55065.78
532.48	54857.48
532.65	55082.17
532.82	54588.31
532.99	54937.05
533.16	54965.14
533.33	55023.65
533.50	55440.27
533.67	55112.59
533.84	54813.01
534.01	55152.38
534.18	55199.19
534.35	55611.13
534.52	55501.12
534.69	55767.94
534.86	55800.71
535.03	55571.34
535.20	55503.46
535.37	55487.08
535.54	55585.38
535.71	55402.82
535.88	55613.47
536.05	55751.56
536.22	56069.87
536.38	55739.86
536.55	56030.08
536.72	55920.08
536.89	55760.92
537.06	55763.26
537.23	56271.16
537.40	55863.91
537.57	56121.37
537.74	56296.91
537.91	56301.59
538.08	56191.58
538.25	56219.67
538.42	56292.22
538.59	56671.39
538.75	56334.35
538.92	56292.22
539.09	56399.89
539.26	56231.37
539.43	56629.26
539.60	56626.92
539.77	56378.82
539.94	56708.84
540.11	56640.96
540.28	56685.43
540.44	56891.40
540.61	56727.56
540.78	56910.13
540.95	56687.78
541.12	56694.80
541.29	56453.72
541.46	57062.26
541.62	56858.63
541.79	57099.71
541.96	56589.47
542.13	56718.20
542.30	56823.53
542.47	57078.64
542.63	57202.69
542.80	57403.98
542.97	57462.49
543.14	57490.58
543.31	57420.36
543.48	57684.84
543.64	57832.30
543.81	57682.50
543.98	57675.48
544.15	57574.84
544.32	57860.38
544.48	57663.78
544.65	57748.04
544.82	57743.36
544.99	57682.50
545.16	57724.63
545.32	57701.23
545.49	57935.28
545.66	57986.77
545.83	57989.11
546.00	57958.69
546.16	58007.84
546.33	57670.80
546.50	57813.57
546.67	57888.47
546.83	57694.21
547.00	58218.49
547.17	58127.20
547.34	57909.53
547.50	58298.06
547.67	58398.71
547.84	58291.04
548.00	58298.06
548.17	58585.95
548.34	58499.35
548.51	58445.52
548.67	58747.45
548.84	58597.65
549.01	58375.30
549.18	58410.41
549.34	58548.50
549.51	58616.38
549.68	58489.99
549.84	58712.34
550.01	58859.79
550.18	58838.73
550.34	58796.60
550.51	58848.09
550.68	58674.89
550.84	58578.93
551.01	58873.84
551.18	58691.27
551.34	58937.03
551.51	58885.54
551.68	59011.93
551.84	59009.59
552.01	58731.06
552.18	59068.10
552.34	58899.58
552.51	59103.21
552.68	58841.07
552.84	58913.62
553.01	59267.05
553.18	59189.81
553.34	59210.87
553.51	59021.29
553.67	59210.87
553.84	59255.34
554.01	59217.89
554.17	59271.73
554.34	59388.75
554.51	59346.62
554.67	59229.60
554.84	59126.61
555.00	59143.00
555.17	59484.72
555.33	59334.92
555.50	59341.94
555.67	59175.76
555.83	59042.35
556.00	59290.45
556.16	59508.12
556.33	59615.79
556.50	59480.03
556.66	59622.81
556.83	59311.52
556.99	59847.50
557.16	60058.15
557.32	59700.04
557.49	59812.39
557.65	59695.36
557.82	59704.73
557.98	59667.28
558.15	59533.87
558.32	59882.61
558.48	59671.96
558.65	59739.83
558.81	59772.60
558.98	59950.48
559.14	59959.84
559.31	59763.24
559.47	59992.61
559.64	59910.69
559.80	60055.81
559.97	60116.66
560.13	59779.62
560.30	59903.67
560.46	60130.70
560.63	60191.56
560.79	60144.75
560.96	60142.41
561.12	60069.85
561.29	60154.11
561.45	60236.03
561.61	60069.85
561.78	60041.76
561.94	60133.04
562.11	60339.01
562.27	60149.43
562.44	60413.91
562.60	60313.26
562.77	60130.70
562.93	60179.85
563.10	60128.36
563.26	59997.29
563.42	60456.04
563.59	60303.90
563.75	60196.24
563.92	60336.67
564.08	60130.70
564.24	60423.27
564.41	60470.08
564.57	60507.53
564.74	60343.69
564.90	60465.40
565.07	60481.78
565.23	60446.68
565.39	60460.72
565.56	60439.65
565.72	60519.23
565.88	60505.19
566.05	60559.02
566.21	60357.74
566.38	60519.23
566.54	60411.57
566.70	60498.17
566.87	60622.22
567.03	60519.23
567.19	60739.24
567.36	60575.40
567.52	60453.70
567.68	60547.32
567.85	60519.23
568.01	60748.60
568.17	60542.64
568.34	60690.09
568.50	60797.76
568.66	60617.53
568.83	60533.28
568.99	60676.05
569.15	60615.19
569.32	60741.58
569.48	60484.12
569.64	60823.50
569.81	60598.81
569.97	60802.44
570.13	60692.43
570.30	60594.13
570.46	60704.13
570.62	60959.25
570.78	60800.10
570.95	60736.90
571.11	60973.30
571.27	60870.31
571.43	60905.42
571.60	60992.02
571.76	60589.45
571.92	60992.02
572.09	60914.78
572.25	60846.91
572.41	60636.26
572.57	60926.49
572.74	61106.71
572.90	60961.59
573.06	60903.08
573.22	61050.53
573.38	60856.27
573.55	61041.17
573.71	61095.00
573.87	61050.53
574.03	60947.55
574.20	60903.08
574.36	60975.64
574.52	60910.10
574.68	60940.53
574.84	61162.88
575.01	61188.63
575.17	61052.87
575.33	61017.77
575.49	61006.06
575.65	60987.34
575.82	61008.40
575.98	61069.26
576.14	61207.35
576.30	61139.47
576.46	60940.53
576.62	60989.68
576.79	61064.58
576.95	61006.06
577.11	61104.37
577.27	61230.75
577.43	61195.65
577.59	60849.25
577.75	60921.80
577.92	60959.25
578.08	61111.39
578.24	61190.97
578.40	61296.29
578.56	61340.76
578.72	61055.21
578.88	61366.51
579.04	61361.82
579.21	61202.67
579.37	61322.04
579.53	61181.60
579.69	60870.31
579.85	61193.31
580.01	61069.26
580.17	61066.92
580.33	61059.90
580.49	61153.52
580.65	61205.01
580.82	60947.55
580.98	61174.58
581.14	60907.76
581.30	61331.40
581.46	61354.80
581.62	61277.57
581.78	61186.28
581.94	61528.00
582.10	61195.65
582.26	61162.88
582.42	61050.53
582.58	61118.41
582.74	61055.21
582.90	61132.45
583.06	61275.22
583.22	60900.74
583.38	61172.24
583.54	61275.22
583.70	61385.23
583.86	61249.48
584.02	60919.46
584.18	61310.33
584.34	61169.90
584.50	61181.60
584.66	61038.83
584.82	61095.00
584.98	61331.40
585.14	61284.59
585.30	61214.37
585.46	61064.58
585.62	61284.59
585.78	61406.30
585.94	61212.03
586.10	61282.25
586.26	61305.65
586.42	61350.12
586.58	61382.89
586.74	61230.75
586.90	61219.05
587.06	61223.73
587.22	61256.50
587.38	61462.47
587.54	61586.52
587.70	61502.26
587.86	61333.74
588.02	61242.46
588.18	61509.28
588.34	61441.40
588.49	61455.45
588.65	61326.72
588.81	61378.21
588.97	61394.59
589.13	61240.12
589.29	61457.79
589.45	61710.56
589.61	61471.83
589.77	61740.99
589.93	61642.69
590.08	61586.52
590.24	61663.75
590.40	61804.19
590.56	61813.55
590.72	61843.98
590.88	61542.05
591.04	61556.09
591.20	61822.91
591.35	61698.86
591.51	61733.97
591.67	61614.60
591.83	61661.41
591.99	61661.41
592.15	61497.58
592.31	61661.41
592.46	61764.40
592.62	61616.94
592.78	61567.79
592.94	61989.09
593.10	61656.73
593.26	61757.38
593.41	61682.48
593.57	61612.26
593.73	61677.80
593.89	62059.30
594.05	61619.28
594.20	61764.40
594.36	61867.38
594.52	61759.72
594.68	61638.01
594.84	61675.46
594.99	61666.09
595.15	61790.14
595.31	61748.01
595.47	61675.46
595.62	61600.56
595.78	61520.98
595.94	61626.31
596.10	62033.56
596.25	61977.39
596.41	61968.02
596.57	61752.69
596.73	61951.64
596.88	61769.08
597.04	61769.08
597.20	61900.15
597.36	61925.89
597.51	62035.90
597.67	61719.93
597.83	62073.35
597.99	61909.51
598.14	61691.84
598.30	61928.23
598.46	61841.63
598.61	62007.81
598.77	61792.48
598.93	61813.55
599.09	61939.94
599.24	62192.72
599.40	61968.02
599.56	62115.48
599.71	61993.77
599.87	62096.75
600.03	62056.96
600.18	62031.22
600.34	61815.89
600.50	61944.62
600.65	61925.89
600.81	61930.58
600.97	61949.30
601.12	62117.82
601.28	61890.79
601.44	61827.59
601.59	61972.70
601.75	61815.89
601.91	62148.24
602.06	62323.78
602.22	62152.93
602.37	61982.07
602.53	61928.23
602.69	62042.92
602.84	61888.45
603.00	61944.62
603.16	62089.73
603.31	62162.29
603.47	62000.79
603.62	62003.13
603.78	61907.17
603.94	61904.83
604.09	62246.55
604.25	62085.05
604.40	62115.48
604.56	61902.49
604.71	61935.26
604.87	62010.15
605.03	62033.56
605.18	62082.71
605.34	61818.23
605.49	61939.94
605.65	62164.63
605.80	62024.20
605.96	62082.71
606.12	62099.09
606.27	62052.28
606.43	61984.41
606.58	62162.29
606.74	61982.07
606.89	62106.12
607.05	61860.36
607.20	61972.70
607.36	61963.34
607.51	61939.94
607.67	61848.66
607.82	61827.59
607.98	61745.67
608.13	61958.66
608.29	61893.13
608.44	61949.30
608.60	61783.12
608.75	61881.42
608.91	61937.60
609.06	61804.19
609.22	62080.37
609.37	61808.87
609.53	62045.26
609.68	61764.40
609.84	61778.44
609.99	62108.46
610.15	61975.05
610.30	61956.32
610.46	61738.65
610.61	61900.15
610.76	61645.03
610.92	61858.02
611.07	61659.07
611.23	61731.63
611.38	61780.78
611.54	61818.23
611.69	61628.65
611.84	61836.95
612.00	61750.35
612.15	61879.08
612.31	61755.03
612.46	61535.02
612.62	61689.50
612.77	61677.80
612.92	61881.42
613.08	61705.88
613.23	61677.80
613.39	61715.25
613.54	61513.96
613.69	61740.99
613.85	61710.56
614.00	61886.10
614.15	61862.70
614.31	61712.91
614.46	61822.91
614.62	61586.52
614.77	61520.98
614.92	61661.41
615.08	61520.98
615.23	61626.31
615.38	61645.03
615.54	61401.61
615.69	61563.11
615.84	61558.43
616.00	61539.71
616.15	61595.88
616.30	61652.05
616.46	61567.79
616.61	61647.37
616.76	61455.45
616.92	61371.19
617.07	61556.09
617.22	61160.54
617.37	61352.46
617.53	61743.33
617.68	61621.62
617.83	61506.94
617.99	61432.04
618.14	61481.19
618.29	61647.37
618.45	61366.51
618.60	61403.95
618.75	61387.57
618.90	61457.79
619.06	61366.51
619.21	61312.67
619.36	61764.40
619.51	61251.82
619.67	61160.54
619.82	61336.08
619.97	61546.73
620.12	61432.04
620.28	61221.39
620.43	61265.86
620.58	61118.41
620.73	61041.17
620.89	61153.52
621.04	61410.98
621.19	61052.87
621.34	61181.60
621.49	61448.42
621.65	61275.22
621.80	61254.16
621.95	61041.17
622.10	61326.72
622.25	61073.94
622.41	61146.50
622.56	61080.96
622.71	61169.90
622.86	61034.15
623.01	60987.34
623.16	60844.57
623.32	61111.39
623.47	61165.22
623.62	60999.04
623.77	61087.98
623.92	61261.18
624.07	61076.28
624.23	61298.63
624.38	61064.58
624.53	60832.86
624.68	60977.98
624.83	60774.35
624.98	60750.94
625.13	60865.63
625.29	61120.75
625.44	60987.34
625.59	60711.16
625.74	60858.61
625.89	60797.76
626.04	60650.30
626.19	60458.38
626.34	60652.64
626.49	60584.77
626.65	60544.98
626.80	60898.40
626.95	60645.62
627.10	60516.89
627.25	60666.69
627.40	60542.64
627.55	60640.94
627.70	60441.99
627.85	60570.72
628.00	60573.06
628.15	60568.38
628.30	60596.47
628.45	60502.85
628.60	60596.47
628.76	60584.77
628.91	60465.40
629.06	60411.57
629.21	60573.06
629.36	60575.40
629.51	60109.64
629.66	60287.52
629.81	60301.56
629.96	60165.81
630.11	60313.26
630.26	60521.57
630.41	60294.54
630.56	60498.17
630.71	60542.64
630.86	60441.99
631.01	60177.51
631.16	60231.35
631.31	60182.19
631.46	60067.51
631.61	60207.94
631.76	60411.57
631.91	60390.50
632.06	60226.66
632.21	60313.26
632.36	60196.24
632.51	59882.61
632.66	60193.90
632.81	60027.72
632.96	60306.24
633.10	60093.25
633.25	60289.86
633.40	60130.70
633.55	60163.47
633.70	60016.02
633.85	60095.60
634.00	60046.44
634.15	59966.87
634.30	59845.16
634.45	59952.82
634.60	60261.77
634.75	60046.44
634.90	59763.24
635.05	59948.14
635.19	59887.29
635.34	59896.65
635.49	60013.68
635.64	59906.01
635.79	59828.77
635.94	59812.39
636.09	59791.33
636.24	59671.96
636.39	59870.90
636.53	60032.40
636.68	59718.77
636.83	59632.17
636.98	59833.46
637.13	59702.38
637.28	59854.52
637.43	59709.41
637.57	59840.48
637.72	59604.08
637.87	59833.46
638.02	59798.35
638.17	59622.81
638.32	59554.93
638.46	59615.79
638.61	59519.82
638.76	59353.65
638.91	59480.03
639.06	59653.23
639.20	59604.08
639.35	59550.25
639.50	59297.47
639.65	59426.20
639.80	59578.34
639.94	59248.32
640.09	59456.63
640.24	59262.36
640.39	59423.86
640.54	59395.77
640.68	59428.54
640.83	59051.72
640.98	59264.70
641.13	59423.86
641.27	59594.72
641.42	59145.34
641.57	59187.47
641.72	59222.58
641.86	59112.57
642.01	59203.85
642.16	59220.23
642.31	59007.25
642.45	59393.43
642.60	59014.27
642.75	59302.15
642.90	59245.98
643.04	59243.64
643.19	59154.70
643.34	59143.00
643.48	59257.68
643.63	59454.29
643.78	58885.54
643.93	59135.98
644.07	59058.74
644.22	58829.37
644.37	58614.04
644.51	58796.60
644.66	59075.12
644.81	58946.39
644.95	59084.48
645.10	58997.88
645.25	58899.58
645.39	58798.94
645.54	58880.86
645.69	58656.17
645.83	58922.99
645.98	58679.57
646.13	58660.85
646.27	58859.79
646.42	58607.01
646.57	58726.38
646.71	58937.03
646.86	58986.18
647.00	58892.56
647.15	58798.94
647.30	58646.80
647.44	58464.24
647.59	58845.75
647.74	58695.95
647.88	58829.37
648.03	58869.15
648.17	58684.25
648.32	58672.55
648.47	58543.82
648.61	58719.36
648.76	58628.08
648.90	58702.98
649.05	58602.33
649.20	58607.01
649.34	58588.29
649.49	58494.67
649.63	58457.22
649.78	58721.70
649.92	58553.18
650.07	58670.21
650.21	58368.28
650.36	58529.78
650.51	58379.98
650.65	58548.50
650.80	58574.25
650.94	58342.53
651.09	58225.51
651.23	58145.93
651.38	58323.81
651.52	57865.06
651.67	58426.79
651.81	58099.12
651.96	58071.03
652.10	58314.45
652.25	58234.87
652.39	57925.92
652.54	58169.33
652.68	57867.40
652.83	58202.10
652.97	58047.63
653.12	58007.84
653.26	58225.51
653.41	58204.44
653.55	58138.91
653.70	58113.16
653.84	58391.68
653.99	58096.78
654.13	57928.26
654.27	57991.45
654.42	58064.01
654.56	57827.62
654.71	58026.56
654.85	58068.69
655.00	57935.28
655.14	57904.85
655.29	57549.09
655.43	57944.64
655.57	57860.38
655.72	57652.08
655.86	57806.55
656.01	57546.75
656.15	57563.14
656.30	57764.42
656.44	57944.64
656.58	57839.32
656.73	57996.13
656.87	57822.93
657.01	57546.75
657.16	57640.37
657.30	57455.47
657.45	57719.95
657.59	57733.99
657.73	57326.74
657.88	57593.56
658.02	57418.02
658.16	57570.16
658.31	57352.49
658.45	57467.17
658.60	57254.18
658.74	57155.88
658.88	57621.65
659.03	57120.77
659.17	57265.89
659.31	57076.30
659.46	57277.59
659.60	57408.66
659.74	57034.17
659.89	57240.14
660.03	57139.50
660.17	56982.68
660.32	56966.30
660.46	57017.79
660.60	56884.38
660.74	57038.86
660.89	56928.85
661.03	56910.13
661.17	56970.98
661.32	56685.43
661.46	56865.66
661.60	56882.04
661.74	56708.84
661.89	56746.29
662.03	56715.86
662.17	56762.67
662.31	56439.68
662.46	56931.19
662.60	56619.90
662.74	56477.13
662.88	56236.05
663.03	56076.90
663.17	56392.87
663.31	56250.09
663.45	55985.61
663.60	56093.28
663.74	55833.48
663.88	56135.41
664.02	56219.67
664.17	56090.94
664.31	55807.73
664.45	55887.31
664.59	56123.71
664.73	56280.52
664.88	55753.90
665.02	55620.49
665.16	55859.23
665.30	55700.07
665.44	55679.00
665.59	55533.89
665.73	55604.11
665.87	55327.92
666.01	56025.40
666.15	55356.01
666.29	55494.10
666.44	55576.02
666.58	55323.24
666.72	55121.96
666.86	55072.81
667.00	55208.56
667.14	54843.43
667.28	54976.84
667.43	54876.20
667.57	55454.31
667.71	55063.44
667.85	55000.25
667.99	55033.02
668.13	54990.89
668.27	54974.50
668.41	54953.44
668.56	54621.08
668.70	54581.29
668.84	54904.29
668.98	54452.56
669.12	54827.05
669.26	54658.53
669.40	54593.00
669.54	54607.04
669.68	54452.56
669.82	54295.75
669.96	54284.04
670.10	54302.77
670.25	54562.57
670.39	54272.34
670.53	54307.45
670.67	54127.23
670.81	54382.35
670.95	54038.29
671.09	53832.32
671.23	53764.45
671.37	54059.35
671.51	53621.67
671.65	53841.68
671.79	53734.02
671.93	53829.98
672.07	53495.28
672.21	53389.96
672.35	53207.40
672.49	53116.12
672.63	53263.57
672.77	53013.13
672.91	53247.19
673.05	52931.22
673.19	53020.16
673.33	52907.81
673.47	52853.98
673.61	53155.91
673.75	52523.96
673.89	52795.46
674.03	52678.44
674.17	52257.14
674.31	52343.74
674.45	52278.21
674.59	52126.07
674.73	52088.62
674.87	52161.18
675.01	51810.10
675.15	51667.33
675.29	51805.42
675.43	51903.72
675.56	51817.12
675.70	51374.76
675.84	51419.23
675.98	50363.65
676.12	51517.53
676.26	51683.71
676.40	51391.14
676.54	51157.09
676.68	51072.83
676.82	50529.83
676.96	50667.92
677.10	50300.45
677.23	50255.98
677.37	50307.47
677.51	50571.96
677.65	49909.58
677.79	49347.86
677.93	49755.11
678.07	49528.08
678.21	49499.99
678.34	49846.39
678.48	49279.98
678.62	49041.24
678.76	48903.15
678.90	49134.87
679.04	48708.89
679.18	49165.29
679.31	48458.45
679.45	48325.04
679.59	48825.92
679.73	48706.55
679.87	48039.50
680.00	47847.57
680.14	47849.91
680.28	47777.36
680.42	47592.45
680.56	47243.71
680.70	47421.59
680.83	47180.52
680.97	47508.19
681.11	47515.22
681.25	46965.19
681.39	47000.30
681.52	46703.05
681.66	46995.62
681.80	46869.23
681.94	46117.92
682.07	46274.73
682.21	45881.52
682.35	46036.00
682.49	45951.74
682.62	45717.68
682.76	45867.48
682.90	45933.01
683.04	45495.33
683.17	45352.56
683.31	45109.14
683.45	45345.54
683.59	45045.95
683.72	44247.83
683.86	44828.28
684.00	44669.12
684.13	44636.36
684.27	44278.25
684.41	44219.74
684.55	44126.12
684.68	43981.01
684.82	43920.15
684.96	43201.61
685.09	43346.72
685.23	43225.01
685.37	42742.86
685.50	42602.43
685.64	42770.95
685.78	42960.53
685.91	42321.57
686.05	42628.18
686.19	41825.37
686.32	42047.72
686.46	41420.46
686.60	41074.06
686.73	41338.54
686.87	41394.71
687.01	41350.24
687.14	40931.29
687.28	40968.74
687.42	40809.58
687.55	40664.47
687.69	40453.82
687.82	40383.60
687.96	39929.54
688.10	39812.51
688.23	40095.72
688.37	40362.54
688.50	39522.29
688.64	39400.58
688.78	39220.36
688.91	38962.90
689.05	39189.93
689.18	38639.90
689.32	38094.56
689.46	37979.87
689.59	38022.00
689.73	37846.46
689.86	37872.21
690.00	37865.19
690.13	37867.53
690.27	37989.24
690.41	37998.60
690.54	36919.61
690.68	37095.15
690.81	37387.72
690.95	36968.76
691.08	37242.60
691.22	36575.55
691.35	36336.82
691.49	36711.30
691.62	36261.92
691.76	36229.15
691.89	35601.89
692.03	35849.99
692.16	35438.05
692.30	35789.13
692.43	35747.00
692.57	35145.48
692.70	35157.19
692.84	35288.26
692.97	34504.18
693.11	35150.17
693.24	34309.91
693.38	34469.07
693.51	34412.90
693.65	34082.88
693.78	34071.18
693.92	34108.63
694.05	34066.50
694.19	33600.73
694.32	33598.39
694.45	32943.04
694.59	32971.13
694.72	32978.15
694.86	32847.08
694.99	32418.76
695.13	32130.87
695.26	32086.40
695.39	31562.12
695.53	31974.06
695.66	32093.43
695.80	31938.95
695.93	31974.06
696.07	31271.90
696.20	30974.65
696.33	30691.44
696.47	31559.78
696.60	31056.57
696.73	30962.95
696.87	31229.77
697.00	30604.84
697.14	30473.78
697.27	30148.44
697.40	30286.53
697.54	29806.72
697.67	29855.87
697.80	29640.54
697.94	29434.58
698.07	29097.54
698.21	29212.23
698.34	29453.30
698.47	28744.12
698.61	28655.18
698.74	28531.13
698.87	28467.94
699.01	28402.40
699.14	28474.96
699.27	28170.69
699.40	28400.06
699.54	28390.70
699.67	28098.13
699.80	27630.02
699.94	27772.80
700.07	27353.84
700.20	27880.46
700.34	26923.18
700.47	27014.46
700.60	26859.99
700.73	26733.60
700.87	26164.85
701.00	26183.57
701.13	26071.23
701.26	26015.05
701.40	26588.49
701.53	26185.91
701.66	26106.34
701.79	25411.20
701.93	25603.12
702.06	25205.23
702.19	25088.20
702.32	25284.81
702.46	25226.29
702.59	25006.28
702.72	24512.43
702.85	24854.15
702.99	24814.36
703.12	24367.32
703.25	24465.62
703.38	24126.24
703.51	24098.16
703.65	23924.96
703.78	23220.45
703.91	23639.41
704.04	23513.02
704.17	23365.57
704.31	23412.38
704.44	23412.38
704.57	23187.69
704.70	23012.15
704.83	22843.63
704.96	22663.41
705.10	22300.62
705.23	22235.09
>>>>>End Processed Spectral Data<<<<<
