SpectraSuite Data File
++++++++++++++++++++++++++++++++++++
Date: Fri Oct 25 11:25:09 EDT 2013
User: price-jones
Dark Spectrum Present: No
Reference Spectrum Present: No
Number of Sampled Component Spectra: 1
Spectrometers: USB2+H05261
Integration Time (usec): 100000 (USB2+H05261)
Spectra Averaged: 1 (USB2+H05261)
Boxcar Smoothing: 0 (USB2+H05261)
Correct for Electrical Dark: No (USB2+H05261)
Strobe/Lamp Enabled: No (USB2+H05261)
Correct for Detector Non-linearity: No (USB2+H05261)
Correct for Stray Light: No (USB2+H05261)
Number of Pixels in Processed Spectrum: 2048
>>>>>Begin Processed Spectral Data<<<<<
365.73	292.57
365.92	292.57
366.12	292.57
366.32	201.29
366.52	121.71
366.72	217.67
366.91	79.58
367.11	173.20
367.31	163.84
367.51	70.22
367.70	161.50
367.90	147.45
368.10	119.37
368.30	135.75
368.49	138.09
368.69	121.71
368.89	110.01
369.09	147.45
369.28	163.84
369.48	140.43
369.68	229.37
369.87	154.48
370.07	215.33
370.27	208.31
370.47	236.39
370.66	578.11
370.86	674.07
371.06	767.70
371.25	667.05
371.45	695.14
371.65	704.50
371.84	753.65
372.04	615.56
372.24	674.07
372.44	770.04
372.63	748.97
372.83	704.50
373.03	690.46
373.22	774.72
373.42	716.20
373.62	793.44
373.81	781.74
374.01	816.85
374.21	763.01
374.40	730.25
374.60	779.40
374.79	840.25
374.99	844.93
375.19	830.89
375.38	889.40
375.58	802.80
375.78	910.47
375.97	847.27
376.17	819.19
376.37	875.36
376.56	929.19
376.76	823.87
376.95	849.61
377.15	961.96
377.35	910.47
377.54	910.47
377.74	861.32
377.93	973.66
378.13	936.21
378.33	954.94
378.52	973.66
378.72	903.45
378.91	866.00
379.11	896.43
379.31	933.87
379.50	922.17
379.70	968.98
379.89	1022.81
380.09	990.05
380.28	980.68
380.48	940.90
380.68	978.34
380.87	1001.75
381.07	1064.94
381.26	1062.60
381.46	999.41
381.65	1008.77
381.85	940.90
382.04	1036.86
382.24	997.07
382.43	1062.60
382.63	1069.62
382.83	1093.03
383.02	1107.07
383.22	1139.84
383.41	1043.88
383.61	1109.41
383.80	1013.45
384.00	985.37
384.19	1114.10
384.39	1139.84
384.58	1149.20
384.78	1231.12
384.97	1167.93
385.17	1191.33
385.36	1160.91
385.56	1221.76
385.75	1205.38
385.95	1212.40
386.14	1151.54
386.34	1179.63
386.53	1151.54
386.72	1259.21
386.92	1275.59
387.11	1291.98
387.31	1217.08
387.50	1242.82
387.70	1259.21
387.89	1364.53
388.09	1291.98
388.28	1259.21
388.48	1284.95
388.67	1287.29
388.86	1254.53
389.06	1331.76
389.25	1357.51
389.45	1373.89
389.64	1317.72
389.84	1390.28
390.03	1411.34
390.22	1401.98
390.42	1350.49
390.61	1455.81
390.81	1380.92
391.00	1315.38
391.19	1420.71
391.39	1416.02
391.58	1446.45
391.78	1479.22
391.97	1509.65
392.16	1486.24
392.36	1647.74
392.55	1511.99
392.75	1451.13
392.94	1521.35
393.13	1558.80
393.33	1537.73
393.52	1558.80
393.71	1537.73
393.91	1650.08
394.10	1577.52
394.29	1657.10
394.49	1586.88
394.68	1544.75
394.88	1631.35
395.07	1631.35
395.26	1675.82
395.46	1703.91
395.65	1769.44
395.84	1739.02
396.04	1682.85
396.23	1729.66
396.42	1727.32
396.62	1769.44
396.81	1703.91
397.00	1739.02
397.19	1795.19
397.39	1842.00
397.58	1816.26
397.77	1820.94
397.97	1874.77
398.16	1834.98
398.35	1872.43
398.55	1872.43
398.74	1994.14
398.93	1937.96
399.12	1921.58
399.32	1842.00
399.51	1909.88
399.70	2010.52
399.90	1984.77
400.09	1947.33
400.28	1984.77
400.47	1989.46
400.67	2080.74
400.86	2073.71
401.05	1940.30
401.24	2033.93
401.44	2106.48
401.63	2162.66
401.82	2104.14
402.01	2183.72
402.21	2155.63
402.40	2143.93
402.59	2214.15
402.78	2221.17
402.97	2181.38
403.17	2204.78
403.36	2317.13
403.55	2258.62
403.74	2394.37
403.93	2363.94
404.13	2516.08
404.32	2305.43
404.51	2389.69
404.70	2450.54
404.89	2420.11
405.09	2532.46
405.28	2499.69
405.47	2492.67
405.66	2511.39
405.85	2553.52
406.05	2368.62
406.24	2513.74
406.43	2546.50
406.62	2616.72
406.81	2590.97
407.00	2586.29
407.20	2644.81
407.39	2614.38
407.58	2607.36
407.77	2670.55
407.96	2832.05
408.15	2747.79
408.34	2743.11
408.54	2949.08
408.73	2827.37
408.92	2869.50
409.11	2773.53
409.30	2874.18
409.49	2888.22
409.68	2906.95
409.87	2820.35
410.07	2984.18
410.26	3005.25
410.45	3045.04
410.64	2946.73
410.83	3035.67
411.02	3091.85
411.21	3197.17
411.40	2979.50
411.59	3279.09
411.78	3124.62
411.98	3190.15
412.17	3260.37
412.36	3105.89
412.55	3356.33
412.74	3304.84
412.93	3276.75
413.12	3325.90
413.31	3478.04
413.50	3517.83
413.69	3452.29
413.88	3517.83
414.07	3604.42
414.26	3632.51
414.45	3529.53
414.64	3688.68
414.83	3705.07
415.02	3779.97
415.22	3847.84
415.41	3840.82
415.60	3749.54
415.79	3915.72
415.98	4011.68
416.17	3892.31
416.36	3992.95
416.55	3974.23
416.74	4067.85
416.93	3976.57
417.12	4081.89
417.31	4140.41
417.50	4051.47
417.69	4217.65
417.88	4212.96
418.07	4280.84
418.26	4297.22
418.45	4341.69
418.64	4409.57
418.83	4311.27
419.02	4444.68
419.21	4564.04
419.39	4561.70
419.58	4390.84
419.77	4491.49
419.96	4533.62
420.15	4404.89
420.34	4564.04
420.53	4540.64
420.72	4765.33
420.91	4568.73
421.10	4638.94
421.29	4891.72
421.48	4683.41
421.67	4823.84
421.86	4678.73
422.05	4828.53
422.24	4744.27
422.43	4882.36
422.61	4762.99
422.80	4856.61
422.99	5004.07
423.18	4910.44
423.37	5036.83
423.56	4765.33
423.75	4753.63
423.94	4751.29
424.13	4652.98
424.32	4695.11
424.50	4844.91
424.69	5076.62
424.88	5013.43
425.07	4873.00
425.26	4929.17
425.45	4966.62
425.64	4978.32
425.83	4964.28
426.01	5076.62
426.20	4947.89
426.39	5067.26
426.58	4966.62
426.77	5008.75
426.96	5130.45
427.15	5088.32
427.33	5135.14
427.52	5064.92
427.71	5383.23
427.90	5210.03
428.09	5263.86
428.28	5158.54
428.46	5282.59
428.65	5322.38
428.84	5427.70
429.03	5528.35
429.22	5448.77
429.40	5439.40
429.59	5460.47
429.78	5217.05
429.97	5198.33
430.16	5408.98
430.34	5626.65
430.53	5678.14
430.72	5556.43
430.91	5444.09
431.10	5514.30
431.28	5659.42
431.47	5701.54
431.66	5832.62
431.85	5774.10
432.03	5799.85
432.22	6071.35
432.41	5895.81
432.60	5865.38
432.79	5816.23
432.97	5977.73
433.16	5975.39
433.35	6040.92
433.54	5905.17
433.72	6047.94
433.91	5902.83
434.10	6080.71
434.28	6076.03
434.47	6300.72
434.66	6174.33
434.85	6399.02
435.03	6160.29
435.22	6223.48
435.41	6502.01
435.59	6286.68
435.78	6593.29
435.97	6487.96
436.16	6499.67
436.34	6492.65
436.53	6525.41
436.72	6494.99
436.90	6579.25
437.09	6504.35
437.28	6342.85
437.46	6583.93
437.65	6562.86
437.84	6710.32
438.02	6775.85
438.21	6738.40
438.40	6768.83
438.58	6850.75
438.77	6904.58
438.96	6960.75
439.14	7042.67
439.33	7215.87
439.52	7162.04
439.70	7171.40
439.89	7297.79
440.08	7323.54
440.26	7286.09
440.45	7314.17
440.63	7489.71
440.82	7712.07
441.01	7440.56
441.19	7478.01
441.38	7728.45
441.57	7609.08
441.75	7719.09
441.94	7929.74
442.12	8009.31
442.31	7950.80
442.50	7901.65
442.68	8013.99
442.87	7896.97
443.05	8058.46
443.24	8154.43
443.43	8088.89
443.61	8285.50
443.80	8526.57
443.98	7906.33
444.17	7901.65
444.35	8168.47
444.54	8229.32
444.73	8053.78
444.91	8105.28
445.10	8145.06
445.28	8285.50
445.47	8353.37
445.65	8332.31
445.84	8329.97
446.02	8493.80
446.21	8266.77
446.39	8320.60
446.58	8561.68
446.77	8362.73
446.95	8229.32
447.14	8589.77
447.32	8332.31
447.51	8390.82
447.69	8402.52
447.88	8552.32
448.06	8465.72
448.25	8510.19
448.43	8435.29
448.62	8561.68
448.80	8381.46
448.99	8622.53
449.17	8655.30
449.36	8610.83
449.54	8730.20
449.73	8943.19
449.91	8875.31
450.10	8922.12
450.28	8938.51
450.46	8868.29
450.65	8875.31
450.83	8910.42
451.02	9022.77
451.20	9146.81
451.39	9181.92
451.57	9100.00
451.76	8952.55
451.94	9191.28
452.13	9238.09
452.31	9348.10
452.49	9254.48
452.68	9327.03
452.86	9219.37
453.05	9537.68
453.23	9334.06
453.42	9270.86
453.60	9270.86
453.78	9369.16
453.97	9247.46
454.15	9458.10
454.34	9455.76
454.52	9563.43
454.70	9645.35
454.89	9579.81
455.07	9696.84
455.26	9720.24
455.44	9870.04
455.62	9736.63
455.81	9844.29
455.99	9921.53
456.17	10068.98
456.36	10083.03
456.54	9914.51
456.73	9930.89
456.91	10469.22
457.09	10366.23
457.28	10384.96
457.46	10324.10
457.64	10480.92
457.83	10583.90
458.01	10448.15
458.19	10602.63
458.38	10457.51
458.56	10588.58
458.74	10684.55
458.93	10597.95
459.11	10513.69
459.29	10593.26
459.48	10614.33
459.66	10672.84
459.84	10824.98
460.03	10949.03
460.21	11005.20
460.39	10785.19
460.57	10696.25
460.76	10750.08
460.94	10995.84
461.12	11316.49
461.31	11068.39
461.49	10988.82
461.67	11091.80
461.85	11262.66
462.04	11236.91
462.22	11719.06
462.40	11501.39
462.59	11405.43
462.77	11609.06
462.95	11604.38
463.13	11592.67
463.32	11475.65
463.50	11726.08
463.68	11978.86
463.86	11812.68
464.05	11487.35
464.23	11770.55
464.41	11686.29
464.59	11529.48
464.78	11826.73
464.96	11929.71
465.14	11634.80
465.32	12074.82
465.50	11714.38
465.69	11934.39
465.87	12070.14
466.05	11873.54
466.23	12067.80
466.41	12243.34
466.60	12189.51
466.78	12119.29
466.96	12128.66
467.14	12107.59
467.32	12168.45
467.51	12444.63
467.69	12121.63
467.87	12114.61
468.05	12322.92
468.23	12313.56
468.41	12374.41
468.60	12580.38
468.78	12676.34
468.96	12404.84
469.14	12779.32
469.32	13057.85
469.50	12477.40
469.69	12868.27
469.87	13050.83
470.05	13055.51
470.23	12879.97
470.41	12987.63
470.59	13167.85
470.77	13319.99
470.95	13174.88
471.14	13324.67
471.32	13081.25
471.50	13551.70
471.68	13561.06
471.86	13530.64
472.04	13490.85
472.22	13898.10
472.40	13509.57
472.58	13654.69
472.77	13846.61
472.95	14029.17
473.13	14368.55
473.31	14286.63
473.49	13996.40
473.67	14228.12
473.85	14108.75
474.03	14286.63
474.21	14443.45
474.39	14754.74
474.57	14579.20
474.75	14799.21
474.93	14988.79
475.12	14656.43
475.30	14965.39
475.48	15084.75
475.66	15157.31
475.84	15239.23
476.02	15218.16
476.20	15358.60
476.38	15735.42
476.56	15866.49
476.74	15992.88
476.92	15768.19
477.10	15702.65
477.28	15953.09
477.46	16056.08
477.64	16173.10
477.82	16638.87
478.00	16697.38
478.18	16699.72
478.36	17062.51
478.54	17209.96
478.72	17060.16
478.90	17348.05
479.08	17509.55
479.26	17596.15
479.44	17633.60
479.62	17657.00
479.80	17965.95
479.98	18050.21
480.16	18679.82
480.34	18305.33
480.52	18260.86
480.70	18735.99
480.88	18455.12
481.06	18602.58
481.24	18738.33
481.41	18977.06
481.59	19405.38
481.77	19185.37
481.95	19452.19
482.13	19810.29
482.31	19545.81
482.49	19976.47
482.67	20037.33
482.85	19969.45
483.03	20563.95
483.21	20535.86
483.39	20959.50
483.57	20601.40
483.74	20971.20
483.92	21165.46
484.10	20795.66
484.28	21418.24
484.46	21731.87
484.64	21942.52
484.82	21818.47
485.00	22389.56
485.18	22787.46
485.35	22403.61
485.53	22630.64
485.71	22892.78
485.89	23211.09
486.07	22986.40
486.25	23417.06
486.43	23304.71
486.61	23531.75
486.78	23915.59
486.96	23878.15
487.14	24159.01
487.32	24432.85
487.50	24364.98
487.68	24664.57
487.85	25050.75
488.03	25132.67
488.21	25759.94
488.39	25741.21
488.57	25802.07
488.75	25759.94
488.92	26221.02
489.10	26520.61
489.28	26312.30
489.46	26532.31
489.64	26555.72
489.81	27419.38
489.99	27463.85
490.17	27637.05
490.35	27573.85
490.53	27859.40
490.70	28276.01
490.88	28236.22
491.06	28418.78
491.24	28596.67
491.41	29214.57
491.59	29212.23
491.77	29043.71
491.95	29359.68
492.13	29347.98
492.30	30061.84
492.48	30073.54
492.66	30106.31
492.84	30106.31
493.01	30522.93
493.19	30218.66
493.37	30951.24
493.54	30836.56
493.72	31363.18
493.90	31414.67
494.08	31220.41
494.25	31503.61
494.43	31803.20
494.61	32128.53
494.79	32655.15
494.96	32247.90
495.14	32297.05
495.32	33046.02
495.49	33008.58
495.67	33102.20
495.85	33156.03
496.02	33500.09
496.20	33621.80
496.38	33905.00
496.55	34045.43
496.73	34536.94
496.91	34300.55
497.09	34656.31
497.26	34675.04
497.44	34448.00
497.62	35515.29
497.79	35276.55
497.97	35463.80
498.14	35838.28
498.32	35868.71
498.50	36247.88
498.67	36182.34
498.85	36135.53
499.03	36442.14
499.20	36271.28
499.38	36446.82
499.56	36655.13
499.73	36711.30
499.91	36854.08
500.08	37420.48
500.26	36989.83
500.44	37654.54
500.61	37809.01
500.79	37474.32
500.97	37631.13
501.14	38050.09
501.32	38733.53
501.49	38478.41
501.67	38384.79
501.84	38529.90
502.02	38738.21
502.20	38637.56
502.37	39248.44
502.55	39131.42
502.72	38808.42
502.90	39562.08
503.07	39175.89
503.25	39629.95
503.43	39552.71
503.60	39402.92
503.78	40016.14
503.95	40044.23
504.13	40002.10
504.30	40229.13
504.48	40250.19
504.65	40327.43
504.83	40547.44
505.01	41031.93
505.18	40980.44
505.36	41642.81
505.53	41043.63
505.71	41404.08
505.88	41394.71
506.06	41141.94
506.23	41820.69
506.41	41439.18
506.58	41893.25
506.76	41825.37
506.93	42003.25
507.11	42267.73
507.28	42550.94
507.46	42337.95
507.63	42583.71
507.81	42979.26
507.98	42218.58
508.16	42756.91
508.33	43267.14
508.50	43063.52
508.68	43187.56
508.85	43524.60
509.03	43330.34
509.20	43833.55
509.38	44203.36
509.55	44194.00
509.73	44055.90
509.90	44900.84
510.08	44147.18
510.25	44147.18
510.42	44126.12
510.60	44931.26
510.77	44865.73
510.95	45392.35
511.12	44676.15
511.30	45085.74
511.47	44924.24
511.64	45425.12
511.82	45544.48
511.99	45399.37
512.17	45528.10
512.34	45272.98
512.51	46162.39
512.69	46036.00
512.86	46218.56
513.04	46770.93
513.21	46623.47
513.38	46656.24
513.56	46375.37
513.73	46068.76
513.90	46621.13
514.08	46501.76
514.25	46686.67
514.43	47269.46
514.60	47269.46
514.77	46742.84
514.95	47323.29
515.12	47056.47
515.29	47138.39
515.47	47592.45
515.64	47934.17
515.81	47667.35
515.99	47845.23
516.16	48322.70
516.33	47995.03
516.51	48399.94
516.68	48378.87
516.85	48343.77
517.03	48804.85
517.20	48598.88
517.37	48547.39
517.54	48996.77
517.72	48732.29
517.89	48545.05
518.06	48753.36
518.24	48935.92
518.41	48893.79
518.58	49184.02
518.75	49116.14
518.93	49514.03
519.10	49074.01
519.27	49279.98
519.45	49722.34
519.62	49626.38
519.79	49483.61
519.96	49963.42
520.14	49900.22
520.31	49895.54
520.48	49923.63
520.65	49783.19
520.83	50380.03
521.00	50403.44
521.17	50042.99
521.34	50487.70
521.52	50539.19
521.69	50731.11
521.86	50894.95
522.03	50740.47
522.20	51264.75
522.38	51126.66
522.55	51519.87
522.72	50815.37
522.89	51133.68
523.07	51222.62
523.24	51215.60
523.41	51627.54
523.58	51178.15
523.75	51847.55
523.92	51386.46
524.10	51903.72
524.27	51487.10
524.44	51870.95
524.61	51929.47
524.78	51688.39
524.96	51824.14
525.13	51978.62
525.30	52142.45
525.47	52437.36
525.64	52264.16
525.81	52413.96
525.98	52343.74
526.16	52062.88
526.33	52514.60
526.50	52697.16
526.67	52603.54
526.84	52994.41
527.01	52636.31
527.18	52577.79
527.36	52758.02
527.53	52835.25
527.70	53132.50
527.87	53228.46
528.04	52793.12
528.21	53052.92
528.38	52949.94
528.55	53270.59
528.72	53181.65
528.89	53134.84
529.07	53148.88
529.24	53169.95
529.41	53476.56
529.58	53275.27
529.75	53427.41
529.92	53366.55
530.09	53387.62
530.26	53464.86
530.43	53855.73
530.60	53406.34
530.77	53689.55
530.94	53827.64
531.11	54211.49
531.28	53703.59
531.46	54160.00
531.63	54157.66
531.80	53968.07
531.97	54220.85
532.14	54134.25
532.31	54113.19
532.48	54225.53
532.65	54590.66
532.82	54302.77
532.99	54726.41
533.16	54429.16
533.33	54527.46
533.50	54988.55
533.67	54284.04
533.84	54681.94
534.01	54651.51
534.18	54693.64
534.35	55098.55
534.52	54728.75
534.69	55253.03
534.86	54770.88
535.03	54859.82
535.20	55093.87
535.37	55114.94
535.54	55222.60
535.71	55285.79
535.88	54967.48
536.05	55077.49
536.22	55332.60
536.38	55594.74
536.55	55482.40
536.72	55491.76
536.89	55316.22
537.06	55318.56
537.23	55587.72
537.40	55477.72
537.57	55451.97
537.74	55779.65
537.91	55908.38
538.08	55650.92
538.25	55391.12
538.42	55650.92
538.59	55601.77
538.75	55480.06
538.92	55817.10
539.09	56200.94
539.26	55924.76
539.43	55931.78
539.60	56200.94
539.77	56009.02
539.94	56371.80
540.11	56020.72
540.28	55997.32
540.44	56320.31
540.61	56308.61
540.78	56137.75
540.95	56198.60
541.12	56182.22
541.29	56273.50
541.46	56301.59
541.62	56442.02
541.79	56559.05
541.96	56123.71
542.13	56570.75
542.30	56395.21
542.47	56556.70
542.63	56664.37
542.80	56521.60
542.97	56853.95
543.14	57195.67
543.31	57038.86
543.48	56968.64
543.64	57237.80
543.81	57118.43
543.98	57312.70
544.15	57368.87
544.32	57251.84
544.48	57380.57
544.65	57071.62
544.82	57389.94
544.99	57319.72
545.16	57312.70
545.32	57144.18
545.49	57439.09
545.66	57621.65
545.83	57450.79
546.00	57551.43
546.16	57418.02
546.33	57336.10
546.50	57071.62
546.67	57565.48
546.83	57415.68
547.00	57567.82
547.17	57790.17
547.34	57530.37
547.50	57694.21
547.67	57909.53
547.84	57836.98
548.00	57733.99
548.17	57993.79
548.34	58017.20
548.51	58019.54
548.67	58014.86
548.84	57773.78
549.01	57900.17
549.18	57989.11
549.34	57923.58
549.51	58143.59
549.68	58206.78
549.84	58305.09
550.01	58157.63
550.18	58012.52
550.34	58286.36
550.51	58262.96
550.68	58244.23
550.84	58117.84
551.01	58314.45
551.18	58049.97
551.34	58274.66
551.51	58445.52
551.68	58543.82
551.84	58241.89
552.01	58262.96
552.18	58426.79
552.34	58356.58
552.51	58511.05
552.68	58145.93
552.84	58408.07
553.01	58852.77
553.18	58578.93
553.34	58894.90
553.51	58534.46
553.67	58674.89
553.84	58583.61
554.01	58901.92
554.17	58756.81
554.34	58969.80
554.51	58742.77
554.67	59021.29
554.84	58944.05
555.00	58763.83
555.17	58827.02
555.33	58995.54
555.50	58728.72
555.67	58789.58
555.83	58653.82
556.00	58859.79
556.16	59086.82
556.33	59323.22
556.50	59077.46
556.66	59325.56
556.83	59224.92
556.99	59384.07
557.16	59269.39
557.32	59524.50
557.49	59484.72
557.65	59079.80
557.82	59103.21
557.98	59388.75
558.15	59458.97
558.32	59260.02
558.48	59213.21
558.65	59271.73
558.81	59145.34
558.98	59215.55
559.14	59391.09
559.31	59454.29
559.47	59505.78
559.64	59512.80
559.80	59681.32
559.97	59690.68
560.13	59477.69
560.30	59477.69
560.46	59568.97
560.63	59611.10
560.79	59547.91
560.96	59667.28
561.12	59810.05
561.29	59611.10
561.45	59629.83
561.61	59732.81
561.78	59384.07
561.94	59487.06
562.11	59749.20
562.27	59599.40
562.44	59796.01
562.60	59948.14
562.77	59812.39
562.93	59505.78
563.10	60083.89
563.26	59835.80
563.42	59973.89
563.59	59760.90
563.75	59714.09
563.92	60048.78
564.08	59774.94
564.24	60137.72
564.41	59875.58
564.57	59924.74
564.74	59941.12
564.90	59922.40
565.07	59955.16
565.23	60130.70
565.39	59779.62
565.56	59962.18
565.72	60062.83
565.88	60163.47
566.05	59835.80
566.21	60172.83
566.38	60107.30
566.54	60006.65
566.70	60240.71
566.87	60343.69
567.03	59784.30
567.19	60289.86
567.36	60086.23
567.52	60032.40
567.68	60303.90
567.85	60205.60
568.01	60111.98
568.17	60264.11
568.34	60446.68
568.50	60233.69
568.66	60093.25
568.83	60285.18
568.99	60193.90
569.15	60367.10
569.32	60058.15
569.48	60275.82
569.64	60397.52
569.81	60390.50
569.97	60144.75
570.13	60271.14
570.30	60191.56
570.46	60317.95
570.62	60229.01
570.78	60168.15
570.95	60240.71
571.11	60477.10
571.27	60327.31
571.43	60296.88
571.60	60444.33
571.76	60334.33
571.92	60355.39
572.09	60552.00
572.25	60425.61
572.41	60343.69
572.57	60348.37
572.74	60580.09
572.90	60425.61
573.06	60559.02
573.22	60334.33
573.38	60355.39
573.55	60390.50
573.71	60795.42
573.87	60498.17
574.03	60451.36
574.20	60573.06
574.36	60409.23
574.52	60514.55
574.68	60580.09
574.84	60760.31
575.01	60622.22
575.17	60718.18
575.33	60481.78
575.49	60411.57
575.65	60554.34
575.82	60507.53
575.98	60748.60
576.14	60945.21
576.30	60645.62
576.46	60491.15
576.62	60587.11
576.79	60671.37
576.95	60596.47
577.11	60514.55
577.27	60692.43
577.43	60601.15
577.59	60566.04
577.75	60664.35
577.92	60598.81
578.08	60526.25
578.24	60662.00
578.40	60882.02
578.56	60804.78
578.72	60779.03
578.88	60877.33
579.04	60776.69
579.21	60743.92
579.37	60739.24
579.53	60931.17
579.69	60540.30
579.85	60573.06
580.01	60746.26
580.17	60589.45
580.33	60870.31
580.49	60982.66
580.65	60795.42
580.82	60853.93
580.98	60636.26
581.14	60818.82
581.30	60903.08
581.46	60500.51
581.62	60786.05
581.78	60636.26
581.94	60807.12
582.10	60774.35
582.26	60814.14
582.42	60825.84
582.58	60781.37
582.74	60509.87
582.90	60821.16
583.06	60886.70
583.22	60594.13
583.38	60968.61
583.54	60797.76
583.70	60954.57
583.86	60781.37
584.02	60659.66
584.18	60928.83
584.34	60940.53
584.50	60837.54
584.66	60683.07
584.82	60685.41
584.98	60982.66
585.14	60769.67
585.30	60748.60
585.46	61097.34
585.62	61073.94
585.78	60977.98
585.94	60779.03
586.10	60867.97
586.26	60970.96
586.42	60938.19
586.58	60987.34
586.74	60800.10
586.90	60912.44
587.06	60795.42
587.22	61078.62
587.38	60755.63
587.54	60842.23
587.70	61151.18
587.86	60905.42
588.02	60870.31
588.18	61024.79
588.34	60867.97
588.49	60956.91
588.65	60783.71
588.81	60980.32
588.97	61073.94
589.13	61017.77
589.29	61230.75
589.45	61104.37
589.61	61038.83
589.77	61251.82
589.93	61212.03
590.08	61286.93
590.24	61176.92
590.40	61247.14
590.56	61303.31
590.72	60987.34
590.88	61048.19
591.04	61064.58
591.20	61291.61
591.35	61282.25
591.51	61652.05
591.67	61024.79
591.83	61272.88
591.99	61169.90
592.15	61237.78
592.31	61307.99
592.46	61179.26
592.62	61286.93
592.78	61286.93
592.94	61382.89
593.10	61305.65
593.26	61375.87
593.41	61205.01
593.57	61268.20
593.73	61249.48
593.89	61647.37
594.05	61296.29
594.20	61408.64
594.36	61434.38
594.52	61331.40
594.68	61263.52
594.84	61174.58
594.99	61350.12
595.15	61347.78
595.31	61272.88
595.47	61183.94
595.62	61329.06
595.78	61270.54
595.94	61420.34
596.10	61343.10
596.25	61399.27
596.41	61265.86
596.57	61441.40
596.73	61422.68
596.88	61298.63
597.04	61460.13
597.20	61420.34
597.36	61628.65
597.51	61640.35
597.67	61492.89
597.83	61268.20
597.99	61666.09
598.14	61350.12
598.30	61668.44
598.46	61467.15
598.61	61366.51
598.77	61284.59
598.93	61626.31
599.09	61509.28
599.24	61743.33
599.40	61544.39
599.56	61642.69
599.71	61544.39
599.87	61684.82
600.03	61567.79
600.18	61736.31
600.34	61565.45
600.50	61652.05
600.65	61581.84
600.81	61787.80
600.97	61750.35
601.12	61544.39
601.28	61485.87
601.44	61483.53
601.59	61492.89
601.75	61544.39
601.91	61750.35
602.06	61787.80
602.22	61953.98
602.37	61520.98
602.53	61542.05
602.69	61670.78
602.84	61563.11
603.00	61689.50
603.16	61532.68
603.31	61579.49
603.47	61675.46
603.62	61635.67
603.78	61649.71
603.94	61630.99
604.09	61471.83
604.25	61563.11
604.40	61647.37
604.56	61546.73
604.71	61872.06
604.87	61600.56
605.03	61635.67
605.18	61581.84
605.34	61614.60
605.49	61506.94
605.65	61577.15
605.80	61703.54
605.96	61822.91
606.12	61701.20
606.27	61579.49
606.43	61609.92
606.58	61696.52
606.74	61488.21
606.89	61612.26
607.05	61666.09
607.20	61752.69
607.36	61542.05
607.51	61425.02
607.67	61425.02
607.82	61492.89
607.98	61511.62
608.13	61490.55
608.29	61499.92
608.44	61450.77
608.60	61530.34
608.75	61401.61
608.91	61462.47
609.06	61230.75
609.22	61708.22
609.37	61371.19
609.53	61467.15
609.68	61326.72
609.84	61359.48
609.99	61560.77
610.15	61579.49
610.30	61511.62
610.46	61385.23
610.61	61420.34
610.76	61518.64
610.92	61333.74
611.07	61354.80
611.23	61350.12
611.38	61474.17
611.54	61385.23
611.69	61396.93
611.84	61272.88
612.00	61322.04
612.15	61434.38
612.31	61413.32
612.46	61436.72
612.62	61375.87
612.77	61228.41
612.92	61427.36
613.08	61298.63
613.23	61460.13
613.39	61296.29
613.54	61188.63
613.69	61450.77
613.85	61085.64
614.00	61535.02
614.15	61310.33
614.31	61062.24
614.46	61399.27
614.62	61202.67
614.77	60973.30
614.92	61343.10
615.08	61109.05
615.23	61069.26
615.38	61284.59
615.54	61212.03
615.69	61336.08
615.84	61080.96
616.00	61237.78
616.15	61322.04
616.30	61312.67
616.46	61050.53
616.61	61137.13
616.76	61315.01
616.92	61176.92
617.07	61097.34
617.22	61282.25
617.37	61113.73
617.53	61188.63
617.68	61073.94
617.83	61179.26
617.99	61200.33
618.14	61326.72
618.29	60940.53
618.45	60905.42
618.60	60919.46
618.75	60903.08
618.90	61020.11
619.06	61097.34
619.21	61099.68
619.36	61167.56
619.51	61113.73
619.67	60989.68
619.82	60893.72
619.97	60917.12
620.12	60818.82
620.28	60811.80
620.43	60750.94
620.58	60933.51
620.73	61015.43
620.89	61106.71
621.04	60856.27
621.19	60793.07
621.34	60750.94
621.49	60928.83
621.65	60884.36
621.80	60816.48
621.95	60645.62
622.10	60865.63
622.25	60713.50
622.41	60828.18
622.56	60580.09
622.71	60762.65
622.86	60647.96
623.01	60708.82
623.16	60624.56
623.32	60647.96
623.47	60746.26
623.62	60568.38
623.77	60610.51
623.92	60678.39
624.07	60610.51
624.23	60797.76
624.38	60570.72
624.53	60339.01
624.68	60519.23
624.83	60671.37
624.98	60727.54
625.13	60376.46
625.29	60505.19
625.44	60470.08
625.59	60491.15
625.74	60725.20
625.89	60165.81
626.04	60200.92
626.19	60381.14
626.34	60425.61
626.49	60308.58
626.65	60079.21
626.80	60280.50
626.95	60275.82
627.10	59992.61
627.25	60034.74
627.40	60158.79
627.55	60142.41
627.70	60369.44
627.85	60102.62
628.00	60151.77
628.15	60053.47
628.30	59964.52
628.45	60341.35
628.60	60111.98
628.76	60282.84
628.91	60299.22
629.06	60065.17
629.21	60320.29
629.36	60229.01
629.51	60111.98
629.66	60196.24
629.81	59875.58
629.96	59924.74
630.11	59980.91
630.26	59990.27
630.41	59971.55
630.56	59917.71
630.71	59929.42
630.86	60048.78
631.01	59877.93
631.16	59763.24
631.31	59751.54
631.46	59583.02
631.61	59880.27
631.76	59868.56
631.91	59948.14
632.06	59999.63
632.21	59959.84
632.36	59629.83
632.51	59536.21
632.66	59774.94
632.81	59597.06
632.96	59812.39
633.10	59531.53
633.25	59760.90
633.40	60016.02
633.55	59751.54
633.70	59522.16
633.85	59557.27
634.00	59487.06
634.15	59529.19
634.30	59583.02
634.45	59597.06
634.60	59615.79
634.75	59634.51
634.90	59351.30
635.05	59533.87
635.19	59543.23
635.34	59709.41
635.49	59498.76
635.64	59433.22
635.79	59529.19
635.94	59533.87
636.09	59332.58
636.24	59536.21
636.39	59458.97
636.53	59550.25
636.68	59416.84
636.83	59419.18
636.98	59496.42
637.13	59173.42
637.28	59377.05
637.43	59444.93
637.57	59517.48
637.72	59157.04
637.87	59077.46
638.02	59346.62
638.17	59159.38
638.32	59203.85
638.46	59224.92
638.61	59072.78
638.76	59054.06
638.91	59157.04
639.06	59203.85
639.20	59103.21
639.35	58939.37
639.50	58953.41
639.65	58979.16
639.80	59238.96
639.94	58976.82
640.09	59119.59
640.24	58981.50
640.39	58918.31
640.54	58869.15
640.68	58934.69
640.83	59040.01
640.98	58911.28
641.13	58887.88
641.27	59030.65
641.42	58932.35
641.57	58843.41
641.72	58714.68
641.86	58766.17
642.01	58450.20
642.16	58827.02
642.31	58576.59
642.45	58972.14
642.60	58859.79
642.75	59147.68
642.90	58937.03
643.04	58578.93
643.19	58599.99
643.34	58815.32
643.48	58719.36
643.63	58707.66
643.78	58588.29
643.93	58635.10
644.07	58646.80
644.22	58438.50
644.37	58377.64
644.51	58405.73
644.66	58422.11
644.81	58656.17
644.95	58450.20
645.10	58316.79
645.25	58478.28
645.39	58464.24
645.54	58457.22
645.69	58321.47
645.83	58342.53
645.98	58480.63
646.13	58478.28
646.27	58323.81
646.42	58401.05
646.57	58452.54
646.71	58466.58
646.86	58670.21
647.00	58445.52
647.15	58384.66
647.30	58356.58
647.44	58234.87
647.59	58408.07
647.74	58508.71
647.88	58585.95
648.03	58377.64
648.17	58356.58
648.32	58209.12
648.47	58368.28
648.61	57975.07
648.76	58377.64
648.90	58277.00
649.05	58195.08
649.20	58171.67
649.34	58190.40
649.49	58326.15
649.63	58401.05
649.78	58330.83
649.92	58019.54
650.07	58181.04
650.21	57904.85
650.36	57874.43
650.51	57984.43
650.65	57961.03
650.80	58010.18
650.94	57701.23
651.09	57799.53
651.23	57771.44
651.38	57813.57
651.52	57755.06
651.67	57820.59
651.81	57806.55
651.96	57801.87
652.10	57811.23
652.25	57752.72
652.39	57745.70
652.54	57822.93
652.68	57528.03
652.83	57467.17
652.97	57750.38
653.12	57645.05
653.26	57525.69
653.41	57790.17
653.55	57616.97
653.70	57731.65
653.84	57640.37
653.99	57584.20
654.13	57521.01
654.27	57560.79
654.42	57434.41
654.56	57420.36
654.71	57584.20
654.85	57633.35
655.00	57565.48
655.14	57406.32
655.29	57509.30
655.43	57455.47
655.57	57394.62
655.72	57450.79
655.86	57513.98
656.01	57586.54
656.15	57256.53
656.30	57593.56
656.44	57462.49
656.58	57312.70
656.73	57326.74
656.87	57277.59
657.01	57413.34
657.16	57490.58
657.30	57085.67
657.45	57219.08
657.59	57174.61
657.73	57069.28
657.88	56949.92
658.02	57062.26
658.16	57120.77
658.31	57223.76
658.45	57097.37
658.60	56921.83
658.74	57151.20
658.88	57071.62
659.03	56898.42
659.17	56617.56
659.31	57099.71
659.46	56676.07
659.60	56858.63
659.74	56704.16
659.89	56706.50
660.03	56797.78
660.17	57085.67
660.32	56774.37
660.46	56626.92
660.60	56465.42
660.74	56601.18
660.89	56844.59
661.03	56669.05
661.17	56589.47
661.32	56367.12
661.46	56282.86
661.60	56367.12
661.74	56313.29
661.89	56133.07
662.03	56107.32
662.17	56006.68
662.31	55880.29
662.46	56289.88
662.60	56179.88
662.74	56044.13
662.88	55866.25
663.03	55866.25
663.17	56116.68
663.31	55901.36
663.45	55807.73
663.60	55683.69
663.74	55594.74
663.88	55569.00
664.02	55648.58
664.17	55634.53
664.31	55533.89
664.45	55491.76
664.59	55341.97
664.73	55564.32
664.88	55566.66
665.02	55035.36
665.16	55201.53
665.30	55318.56
665.44	55306.86
665.59	55269.41
665.73	55178.13
665.87	55145.36
666.01	55297.50
666.15	54944.08
666.29	55241.32
666.44	55318.56
666.58	54955.78
666.72	54564.91
666.86	54515.76
667.00	54782.58
667.14	54791.94
667.28	54796.62
667.43	54724.07
667.57	54581.29
667.71	54281.70
667.85	54492.35
667.99	54218.51
668.13	54291.07
668.27	54241.92
668.41	54204.47
668.56	54206.81
668.70	53932.96
668.84	54145.95
668.98	54075.74
669.12	54162.34
669.26	54141.27
669.40	54337.88
669.54	54171.70
669.68	54138.93
669.82	53766.79
669.96	53773.81
670.10	53883.81
670.25	53918.92
670.39	53939.99
670.53	53874.45
670.67	53441.45
670.81	53911.90
670.95	53813.60
671.09	53415.71
671.23	53179.31
671.37	53380.60
671.51	53387.62
671.65	53205.06
671.79	53296.34
671.93	53022.50
672.07	53198.04
672.21	52790.78
672.35	52734.61
672.49	52219.69
672.63	52362.46
672.77	52701.84
672.91	52458.43
673.05	52196.29
673.19	52385.87
673.33	52362.46
673.47	52521.62
673.61	52395.23
673.75	52083.94
673.89	51901.38
674.03	51875.63
674.17	51819.46
674.31	51580.73
674.45	51707.12
674.59	51606.47
674.73	51489.45
674.87	51470.72
675.01	51210.92
675.15	51126.66
675.29	51203.90
675.43	51264.75
675.56	51091.55
675.70	50988.57
675.84	50707.71
675.98	49815.96
676.12	50871.54
676.26	50801.33
676.40	50522.80
676.54	50646.85
676.68	50651.53
676.82	49675.53
676.96	49918.95
677.10	49656.81
677.23	49815.96
677.37	49769.15
677.51	49680.21
677.65	49354.88
677.79	48774.42
677.93	48701.87
678.07	49127.84
678.21	48896.13
678.34	48762.72
678.48	48645.69
678.62	48554.41
678.76	48301.64
678.90	48474.84
679.04	48282.91
679.18	48301.64
679.31	47632.24
679.45	47849.91
679.59	47700.12
679.73	48055.88
679.87	47615.86
680.00	47072.85
680.14	46829.44
680.28	47281.16
680.42	46878.59
680.56	46939.44
680.70	46564.96
680.83	46368.35
680.97	46752.20
681.11	46485.38
681.25	46553.26
681.39	46412.82
681.52	46419.84
681.66	46064.08
681.80	45713.00
681.94	45504.70
682.07	45661.51
682.21	45287.03
682.35	45556.19
682.49	45057.65
682.62	45139.57
682.76	45413.41
682.90	45219.15
683.04	44722.96
683.17	44278.25
683.31	44133.14
683.45	44034.84
683.59	44088.67
683.72	43676.74
683.86	43606.52
684.00	44083.99
684.13	44062.93
684.27	43585.46
684.41	43672.06
684.55	43412.26
684.68	43353.74
684.82	43145.44
684.96	42775.63
685.09	42880.95
685.23	42380.08
685.37	42534.56
685.50	42253.69
685.64	42396.46
685.78	42351.99
685.91	42321.57
686.05	41888.57
686.19	41104.49
686.32	41118.53
686.46	41141.94
686.60	40737.02
686.73	40561.48
686.87	40737.02
687.01	40437.44
687.14	40683.19
687.28	40264.24
687.42	40275.94
687.55	40177.64
687.69	40411.69
687.82	39323.34
687.96	39749.32
688.10	39337.38
688.23	39501.22
688.37	39283.55
688.50	38869.28
688.64	38990.98
688.78	38476.07
688.91	38192.86
689.05	38546.28
689.18	38239.67
689.32	37708.37
689.46	37645.18
689.59	37766.88
689.73	37624.11
689.86	37507.08
690.00	36982.80
690.13	36971.10
690.27	37228.56
690.41	36971.10
690.54	36795.56
690.68	36521.72
690.81	37067.06
690.95	36215.11
691.08	36327.45
691.22	35695.51
691.35	36074.68
691.49	35992.76
691.62	35929.56
691.76	35260.17
691.89	35629.98
692.03	35196.98
692.16	35070.59
692.30	35166.55
692.43	35145.48
692.57	34707.80
692.70	34527.58
692.84	34417.58
692.97	34202.25
693.11	34586.10
693.24	33977.56
693.38	33734.14
693.51	33219.22
693.65	33450.94
693.78	33528.17
693.92	33195.82
694.05	33160.71
694.19	33031.98
694.32	32662.18
694.45	32776.86
694.59	32591.96
694.72	32362.59
694.86	32444.51
694.99	32051.30
695.13	31562.12
695.26	32009.17
695.39	31498.93
695.53	31817.24
695.66	31644.04
695.80	31452.12
695.93	30899.75
696.07	30754.64
696.20	30574.42
696.33	30712.51
696.47	30658.68
696.60	30326.32
696.73	30668.04
696.87	29860.55
697.00	29788.00
697.14	30038.44
697.27	29661.61
697.40	29839.49
697.54	29656.93
697.67	29467.34
697.80	29340.96
697.94	29158.39
698.07	28788.59
698.21	28685.61
698.34	28744.12
698.47	28489.00
698.61	28013.87
698.74	28596.67
698.87	28467.94
699.01	27700.24
699.14	28287.71
699.27	27620.66
699.40	27751.73
699.54	28020.89
699.67	27697.90
699.80	27276.60
699.94	26998.08
700.07	27229.79
700.20	26742.96
700.34	26541.68
700.47	26457.42
700.60	26129.74
700.73	26024.42
700.87	26085.27
701.00	26115.70
701.13	25848.88
701.26	25762.28
701.40	25560.99
701.53	25652.27
701.66	25530.56
701.79	25373.75
701.93	25076.50
702.06	25336.30
702.19	24685.63
702.32	24940.75
702.46	24915.00
702.59	24093.47
702.72	24215.18
702.85	24418.81
702.99	24446.90
703.12	24044.32
703.25	23948.36
703.38	23707.29
703.51	23384.29
703.65	23367.91
703.78	23302.37
703.91	23367.91
704.04	22995.76
704.17	23171.30
704.31	23117.47
704.44	22726.60
704.57	22384.88
704.70	22398.93
704.83	22469.14
704.96	22040.82
705.10	22288.92
705.23	22389.56
>>>>>End Processed Spectral Data<<<<<
