SpectraSuite Data File
++++++++++++++++++++++++++++++++++++
Date: Fri Oct 25 11:25:05 EDT 2013
User: price-jones
Dark Spectrum Present: No
Reference Spectrum Present: No
Number of Sampled Component Spectra: 1
Spectrometers: USB2+H05261
Integration Time (usec): 100000 (USB2+H05261)
Spectra Averaged: 1 (USB2+H05261)
Boxcar Smoothing: 0 (USB2+H05261)
Correct for Electrical Dark: No (USB2+H05261)
Strobe/Lamp Enabled: No (USB2+H05261)
Correct for Detector Non-linearity: No (USB2+H05261)
Correct for Stray Light: No (USB2+H05261)
Number of Pixels in Processed Spectrum: 2048
>>>>>Begin Processed Spectral Data<<<<<
365.73	285.55
365.92	285.55
366.12	285.55
366.32	105.32
366.52	147.45
366.72	166.18
366.91	95.96
367.11	79.58
367.31	128.73
367.51	126.39
367.70	198.95
367.90	140.43
368.10	166.18
368.30	208.31
368.49	154.48
368.69	208.31
368.89	138.09
369.09	149.79
369.28	163.84
369.48	117.03
369.68	205.97
369.87	198.95
370.07	252.78
370.27	252.78
370.47	311.29
370.66	608.54
370.86	676.41
371.06	613.22
371.25	685.78
371.45	638.97
371.65	671.73
371.84	730.25
372.04	643.65
372.24	657.69
372.44	692.80
372.63	629.60
372.83	739.61
373.03	730.25
373.22	777.06
373.42	723.23
373.62	767.70
373.81	856.64
374.01	809.83
374.21	737.27
374.40	784.08
374.60	795.78
374.79	868.34
374.99	786.42
375.19	777.06
375.38	847.27
375.58	805.14
375.78	863.66
375.97	795.78
376.17	1008.77
376.37	826.21
376.56	870.68
376.76	924.51
376.95	800.46
377.15	858.98
377.35	971.32
377.54	875.36
377.74	875.36
377.93	905.79
378.13	917.49
378.33	947.92
378.52	945.58
378.72	978.34
378.91	894.08
379.11	861.32
379.31	985.37
379.50	889.40
379.70	987.71
379.89	973.66
380.09	919.83
380.28	980.68
380.48	992.39
380.68	971.32
380.87	976.00
381.07	1022.81
381.26	1046.22
381.46	1069.62
381.65	1076.65
381.85	1064.94
382.04	1041.54
382.24	1062.60
382.43	1004.09
382.63	1027.50
382.83	1090.69
383.02	1100.05
383.22	1095.37
383.41	1034.52
383.61	1027.50
383.80	1062.60
384.00	1064.94
384.19	1165.59
384.39	1102.39
384.58	1142.18
384.78	1149.20
384.97	1146.86
385.17	1128.14
385.36	1039.20
385.56	1184.31
385.75	1177.29
385.95	1207.72
386.14	1174.95
386.34	1221.76
386.53	1224.10
386.72	1167.93
386.92	1188.99
387.11	1245.16
387.31	1242.82
387.50	1245.16
387.70	1252.19
387.89	1275.59
388.09	1198.35
388.28	1245.16
388.48	1310.70
388.67	1390.28
388.86	1355.17
389.06	1380.92
389.25	1334.11
389.45	1299.00
389.64	1338.79
389.84	1413.68
390.03	1348.15
390.22	1453.47
390.42	1385.60
390.61	1315.38
390.81	1341.13
391.00	1441.77
391.19	1390.28
391.39	1409.00
391.58	1343.47
391.78	1439.43
391.97	1523.69
392.16	1399.64
392.36	1511.99
392.55	1446.45
392.75	1577.52
392.94	1483.90
393.13	1570.50
393.33	1547.09
393.52	1638.38
393.71	1575.18
393.91	1465.18
394.10	1591.56
394.29	1638.38
394.49	1570.50
394.68	1687.53
394.88	1565.82
395.07	1706.25
395.26	1678.16
395.46	1640.72
395.65	1626.67
395.84	1753.06
396.04	1783.49
396.23	1804.55
396.42	1713.27
396.62	1722.63
396.81	1764.76
397.00	1743.70
397.19	1839.66
397.39	1696.89
397.58	1837.32
397.77	1811.57
397.97	1820.94
398.16	1923.92
398.35	1907.54
398.55	1827.96
398.74	1846.68
398.93	1898.17
399.12	2036.27
399.32	1907.54
399.51	2047.97
399.70	1980.09
399.90	1909.88
400.09	1916.90
400.28	1989.46
400.47	1998.82
400.67	1996.48
400.86	2111.16
401.05	2099.46
401.24	2066.69
401.44	2010.52
401.63	2146.27
401.82	2174.36
402.01	2141.59
402.21	2186.06
402.40	2193.08
402.59	2188.40
402.78	2265.64
402.97	2298.41
403.17	2267.98
403.36	2232.87
403.55	2293.72
403.74	2363.94
403.93	2284.36
404.13	2417.77
404.32	2368.62
404.51	2366.28
404.70	2455.22
404.89	2422.45
405.09	2504.37
405.28	2464.58
405.47	2452.88
405.66	2506.71
405.85	2567.57
406.05	2588.63
406.24	2546.50
406.43	2434.16
406.62	2525.44
406.81	2715.02
407.00	2644.81
407.20	2551.18
407.39	2693.96
407.58	2651.83
407.77	2782.90
407.96	2654.17
408.15	2778.22
408.34	2740.77
408.54	2806.30
408.73	2810.98
408.92	2829.71
409.11	2766.51
409.30	2920.99
409.49	2923.33
409.68	2930.35
409.87	2871.84
410.07	2974.82
410.26	2874.18
410.45	2995.89
410.64	3005.25
410.83	3131.64
411.02	3183.13
411.21	3192.49
411.40	3243.98
411.59	3108.23
411.78	3033.33
411.98	3211.22
412.17	3258.03
412.36	3356.33
412.55	3274.41
412.74	3323.56
412.93	3353.99
413.12	3339.94
413.31	3559.95
413.50	3304.84
413.69	3564.64
413.88	3719.11
414.07	3700.39
414.26	3620.81
414.45	3639.53
414.64	3756.56
414.83	3737.84
415.02	3772.94
415.22	3859.54
415.41	3894.65
415.60	3941.46
415.79	3936.78
415.98	3894.65
416.17	3925.08
416.36	3796.35
416.55	3953.16
416.74	4063.17
416.93	3981.25
417.12	4072.53
417.31	4311.27
417.50	4297.22
417.69	4299.56
417.88	4159.13
418.07	4133.39
418.26	4194.24
418.45	4250.41
418.64	4390.84
418.83	4332.33
419.02	4358.08
419.21	4482.13
419.39	4601.49
419.58	4482.13
419.77	4416.59
419.96	4372.12
420.15	4587.45
420.34	4533.62
420.53	4592.13
420.72	4674.05
420.91	4542.98
421.10	4779.37
421.29	4798.10
421.48	4573.41
421.67	4671.71
421.86	4695.11
422.05	4788.74
422.24	4758.31
422.43	4643.62
422.61	4912.78
422.80	4856.61
422.99	5055.56
423.18	4968.96
423.37	4943.21
423.56	5032.15
423.75	4952.57
423.94	4739.58
424.13	4538.30
424.32	4603.83
424.50	4945.55
424.69	5144.50
424.88	5081.30
425.07	4968.96
425.26	4997.04
425.45	4950.23
425.64	4816.82
425.83	4936.19
426.01	5055.56
426.20	5093.01
426.39	5090.67
426.58	4840.23
426.77	4870.65
426.96	5139.82
427.15	4978.32
427.33	5214.71
427.52	5041.51
427.71	5081.30
427.90	5320.04
428.09	5191.31
428.28	5238.12
428.46	5331.74
428.65	5416.00
428.84	5437.06
429.03	5327.06
429.22	5327.06
429.40	5373.87
429.59	5441.75
429.78	5305.99
429.97	5355.15
430.16	5526.00
430.34	5535.37
430.53	5565.79
430.72	5722.61
430.91	5502.60
431.10	5640.69
431.28	5750.70
431.47	5708.57
431.66	5893.47
431.85	5748.36
432.03	5968.37
432.22	5860.70
432.41	5837.30
432.60	5853.68
432.79	5785.80
432.97	5856.02
433.16	5851.34
433.35	5994.11
433.54	6127.52
433.72	6181.35
433.91	6162.63
434.10	5970.71
434.28	5933.26
434.47	6057.31
434.66	6331.15
434.85	6193.06
435.03	6490.31
435.22	6239.87
435.41	6429.45
435.59	6420.09
435.78	6452.86
435.97	6377.96
436.16	6321.79
436.34	6251.57
436.53	6466.90
436.72	6494.99
436.90	6382.64
437.09	6595.63
437.28	6424.77
437.46	6548.82
437.65	6602.65
437.84	6813.30
438.02	6595.63
438.21	6743.08
438.40	6803.94
438.58	7087.14
438.77	6895.22
438.96	6878.83
439.14	7045.01
439.33	7197.15
439.52	7159.70
439.70	7349.28
439.89	7162.04
440.08	7384.39
440.26	7243.96
440.45	7293.11
440.63	7279.07
440.82	7599.72
441.01	7234.60
441.19	7590.36
441.38	7438.22
441.57	7557.59
441.75	7819.73
441.94	7875.90
442.12	7838.45
442.31	7983.57
442.50	7981.23
442.68	7784.62
442.87	8051.44
443.05	8091.23
443.24	8145.06
443.43	7974.21
443.61	8091.23
443.80	8463.38
443.98	7983.57
444.17	8004.63
444.35	8175.49
444.54	8308.90
444.73	8184.85
444.91	8210.60
445.10	8311.24
445.28	8414.23
445.47	8149.75
445.65	8170.81
445.84	8437.63
446.02	8360.39
446.21	8301.88
446.39	8243.37
446.58	8283.16
446.77	8348.69
446.95	8109.96
447.14	8304.22
447.32	8465.72
447.51	8414.23
447.69	8451.67
447.88	8493.80
448.06	8395.50
448.25	8344.01
448.43	8477.42
448.62	8702.11
448.80	8414.23
448.99	8657.64
449.17	8624.87
449.36	8542.96
449.54	8856.59
449.73	8732.54
449.91	9004.04
450.10	8795.73
450.28	8980.64
450.46	8945.53
450.65	8994.68
450.83	9085.96
451.02	9151.49
451.20	9142.13
451.39	9104.68
451.57	9125.75
451.76	8973.61
451.94	9125.75
452.13	9153.84
452.31	9399.59
452.49	8987.66
452.68	9263.84
452.86	9298.95
453.05	9423.00
453.23	9483.85
453.42	9406.61
453.60	9474.49
453.78	9315.33
453.97	9231.07
454.15	9357.46
454.34	9423.00
454.52	9533.00
454.70	9607.90
454.89	9650.03
455.07	9848.97
455.26	9680.46
455.44	9767.06
455.62	9940.26
455.81	10066.64
455.99	10045.58
456.17	10076.01
456.36	9944.94
456.54	10071.33
456.73	10415.38
456.91	10466.88
457.09	10249.21
457.28	10628.37
457.46	10125.16
457.64	10593.26
457.83	10485.60
458.01	10312.40
458.19	10663.48
458.38	10459.85
458.56	10534.75
458.74	10593.26
458.93	10546.45
459.11	10640.08
459.29	10712.63
459.48	10773.49
459.66	10855.40
459.84	10827.32
460.03	11000.52
460.21	10930.30
460.39	10920.94
460.57	10862.43
460.76	11218.19
460.94	11162.01
461.12	11108.18
461.31	11112.86
461.49	11059.03
461.67	11054.35
461.85	11400.75
462.04	11257.98
462.22	11705.02
462.40	11587.99
462.59	11426.50
462.77	11470.97
462.95	11658.21
463.13	11389.05
463.32	11468.62
463.50	11639.48
463.68	11756.51
463.86	11669.91
464.05	11548.20
464.23	11625.44
464.41	11997.59
464.59	11653.53
464.78	11885.24
464.96	12116.95
465.14	11819.71
465.32	12095.89
465.50	12004.61
465.69	12205.89
465.87	11990.56
466.05	12280.79
466.23	12123.98
466.41	12217.60
466.60	12554.63
466.78	12198.87
466.96	12121.63
467.14	12105.25
467.32	12131.00
467.51	12397.82
467.69	11985.88
467.87	12379.09
468.05	12397.82
468.23	12358.03
468.41	12353.35
468.60	12468.03
468.78	12468.03
468.96	12568.68
469.14	12898.69
469.32	12954.87
469.50	12772.30
469.69	12884.65
469.87	13102.32
470.05	12975.93
470.23	13081.25
470.41	13217.01
470.59	12945.50
470.77	13095.30
470.95	13144.45
471.14	13404.25
471.32	12999.34
471.50	13532.98
471.68	13415.95
471.86	13736.60
472.04	13525.96
472.22	13771.71
472.40	13586.81
472.58	13490.85
472.77	13692.13
472.95	14249.18
473.13	14356.85
473.31	13940.23
473.49	14061.94
473.67	13909.80
473.85	14478.55
474.03	14508.98
474.21	14471.53
474.39	14686.86
474.57	14668.14
474.75	14759.42
474.93	14647.07
475.12	14909.21
475.30	14967.73
475.48	14846.02
475.66	15056.67
475.84	15147.95
476.02	15365.62
476.20	15424.13
476.38	15735.42
476.56	15917.98
476.74	16016.29
476.92	15903.94
477.10	15363.28
477.28	16170.76
477.46	15934.37
477.64	16238.64
477.82	16266.72
478.00	16666.95
478.18	16767.60
478.36	16833.13
478.54	17104.64
478.72	16982.93
478.90	17315.28
479.08	17350.39
479.26	17497.84
479.44	17692.11
479.62	17696.79
479.80	17853.61
479.98	18211.71
480.16	18431.72
480.34	18366.18
480.52	18438.74
480.70	18555.77
480.88	18218.73
481.06	18387.25
481.24	18656.41
481.41	19115.16
481.59	19115.16
481.77	19377.30
481.95	19199.41
482.13	19515.39
482.31	19681.56
482.49	20245.63
482.67	20362.66
482.85	20222.23
483.03	20360.32
483.21	20435.22
483.39	20669.27
483.57	20744.17
483.74	20798.00
483.92	20961.84
484.10	21088.23
484.28	21778.68
484.46	21933.16
484.64	22274.88
484.82	21598.46
485.00	22387.22
485.18	22600.21
485.35	22986.40
485.53	22478.50
485.71	22824.90
485.89	23496.64
486.07	23250.88
486.25	23473.23
486.43	23314.08
486.61	23669.84
486.78	23981.13
486.96	23880.49
487.14	24477.32
487.32	24720.74
487.50	24929.05
487.68	24823.72
487.85	25130.33
488.03	25406.52
488.21	25649.93
488.39	25617.16
488.57	25748.23
488.75	26017.40
488.92	26544.02
489.10	26527.63
489.28	26623.59
489.46	26967.65
489.64	26895.10
489.81	27374.91
489.99	27662.79
490.17	27594.92
490.35	27803.22
490.53	28271.33
490.70	28348.57
490.88	28034.94
491.06	28367.29
491.24	28182.39
491.41	28886.89
491.59	28999.24
491.77	29266.06
491.95	29593.73
492.13	29289.46
492.30	30017.37
492.48	29844.17
492.66	30232.70
492.84	30092.27
493.01	30300.58
493.19	30581.44
493.37	30817.83
493.54	30960.61
493.72	31779.79
493.90	31189.98
494.08	31452.12
494.25	31388.92
494.43	31952.99
494.61	32158.96
494.79	32336.84
494.96	32561.53
495.14	32449.19
495.32	33336.25
495.49	32950.06
495.67	33057.73
495.85	33474.34
496.02	33546.90
496.20	34103.95
496.38	33542.22
496.55	34134.37
496.73	34916.11
496.91	34338.00
497.09	34487.79
497.26	34759.30
497.44	34586.10
497.62	35047.18
497.79	35372.52
497.97	35178.25
498.14	35662.74
498.32	36079.36
498.50	35789.13
498.67	36332.14
498.85	36458.52
499.03	36392.99
499.20	36322.77
499.38	36538.10
499.56	36851.73
499.73	37240.26
499.91	37207.50
500.08	37158.34
500.26	37158.34
500.44	37532.83
500.61	37663.90
500.79	37471.98
500.97	38117.96
501.14	38309.89
501.32	37968.17
501.49	38565.01
501.67	38473.73
501.84	38780.34
502.02	38721.82
502.20	38492.45
502.37	39178.23
502.55	39089.29
502.72	39407.60
502.90	39459.09
503.07	39292.91
503.25	39337.38
503.43	39564.42
503.60	39632.29
503.78	39974.01
503.95	39690.80
504.13	39903.79
504.30	40636.38
504.48	40051.25
504.65	40411.69
504.83	40830.65
505.01	41050.66
505.18	40629.36
505.36	41200.45
505.53	41062.36
505.71	41722.39
505.88	41563.23
506.06	41415.78
506.23	41727.07
506.41	41963.46
506.58	41968.15
506.76	41968.15
506.93	41989.21
507.11	42291.14
507.28	42122.62
507.46	42293.48
507.63	42663.28
507.81	43005.00
507.98	42663.28
508.16	42895.00
508.33	43306.93
508.50	43606.52
508.68	43236.72
508.85	43477.79
509.03	43501.20
509.20	43955.26
509.38	44119.10
509.55	44224.42
509.73	44327.41
509.90	44315.70
510.08	44182.29
510.25	44292.30
510.42	44357.83
510.60	44839.98
510.77	45076.38
510.95	45123.19
511.12	45132.55
511.30	44868.07
511.47	45076.38
511.64	45549.17
511.82	45682.58
511.99	45174.68
512.17	45511.72
512.34	45563.21
512.51	46211.54
512.69	46190.47
512.86	46167.07
513.04	46579.00
513.21	46314.52
513.38	46387.08
513.56	46532.19
513.73	46616.45
513.90	46768.58
514.08	46539.21
514.25	47217.97
514.43	47466.06
514.60	47138.39
514.77	46993.28
514.95	47330.31
515.12	47480.11
515.29	47400.53
515.47	48381.21
515.64	47849.91
515.81	47751.61
515.99	48055.88
516.16	48273.55
516.33	48512.28
516.51	48804.85
516.68	48044.18
516.85	48231.42
517.03	48657.40
517.20	48811.87
517.37	48528.67
517.54	48758.04
517.72	48655.06
517.89	49181.68
518.06	49003.80
518.24	49024.86
518.41	49048.27
518.58	49205.08
518.75	49132.53
518.93	49591.27
519.10	49048.27
519.27	49572.55
519.45	49684.89
519.62	49481.27
519.79	49874.48
519.96	49705.96
520.14	49954.05
520.31	50145.98
520.48	50204.49
520.65	50120.23
520.83	50003.20
521.00	50667.92
521.17	50375.35
521.34	50389.39
521.52	50473.65
521.69	50649.19
521.86	50705.37
522.03	50822.39
522.20	51103.26
522.38	51194.54
522.55	51304.54
522.72	51231.99
522.89	51061.13
523.07	51571.36
523.24	51215.60
523.41	51320.93
523.58	50932.40
523.75	51819.46
523.92	51828.82
524.10	52105.01
524.27	52079.26
524.44	52004.36
524.61	51751.59
524.78	51812.44
524.96	52018.41
525.13	52165.86
525.30	52327.36
525.47	52165.86
525.64	52411.62
525.81	52582.48
525.98	52420.98
526.16	52549.71
526.33	52343.74
526.50	52898.45
526.67	52556.73
526.84	52622.26
527.01	52790.78
527.18	52809.51
527.36	52697.16
527.53	52865.68
527.70	53237.83
527.87	53457.84
528.04	52940.58
528.21	53305.70
528.38	53226.12
528.55	53188.67
528.72	52996.75
528.89	53366.55
529.07	52978.03
529.24	53195.70
529.41	53380.60
529.58	53195.70
529.75	53495.28
529.92	53729.34
530.09	53820.62
530.26	53806.58
530.43	54157.66
530.60	53694.23
530.77	53808.92
530.94	53914.24
531.11	53937.65
531.28	53825.30
531.46	53937.65
531.63	53991.48
531.80	53748.06
531.97	54475.97
532.14	54260.64
532.31	54344.90
532.48	54155.32
532.65	54398.73
532.82	54213.83
532.99	54415.11
533.16	54433.84
533.33	54665.55
533.50	54784.92
533.67	54775.56
533.84	54363.62
534.01	54415.11
534.18	54866.84
534.35	55110.25
534.52	54934.71
534.69	55079.83
534.86	55159.41
535.03	54616.40
535.20	55044.72
535.37	55231.96
535.54	55171.11
535.71	55009.61
535.88	55253.03
536.05	55271.75
536.22	55442.61
536.38	55318.56
536.55	55374.73
536.72	55454.31
536.89	55110.25
537.06	55238.98
537.23	55423.89
537.40	55388.78
537.57	55559.64
537.74	55512.83
537.91	55824.12
538.08	55561.98
538.25	55569.00
538.42	55849.86
538.59	55817.10
538.75	55798.37
538.92	56062.85
539.09	56018.38
539.26	55943.48
539.43	55697.73
539.60	55732.84
539.77	56020.72
539.94	56444.36
540.11	56142.43
540.28	56346.06
540.44	56371.80
540.61	56250.09
540.78	56189.24
540.95	56299.25
541.12	56109.66
541.29	56399.89
541.46	56432.66
541.62	56320.31
541.79	56416.27
541.96	56186.90
542.13	56640.96
542.30	56542.66
542.47	56725.22
542.63	56809.48
542.80	56673.73
542.97	56863.32
543.14	57041.20
543.31	57109.07
543.48	56825.87
543.64	57361.85
543.81	57226.10
543.98	57085.67
544.15	57125.46
544.32	57265.89
544.48	57326.74
544.65	57010.77
544.82	57336.10
544.99	56931.19
545.16	57408.66
545.32	57387.60
545.49	57645.05
545.66	57642.71
545.83	57495.26
546.00	57385.25
546.16	57296.31
546.33	57490.58
546.50	57354.83
546.67	57357.17
546.83	57322.06
547.00	57670.80
547.17	57558.45
547.34	57649.74
547.50	57893.15
547.67	57904.85
547.84	57879.11
548.00	57792.51
548.17	57923.58
548.34	57806.55
548.51	58103.80
548.67	58227.85
548.84	57900.17
549.01	57972.73
549.18	57956.35
549.34	58192.74
549.51	58152.95
549.68	58141.25
549.84	58082.73
550.01	58131.89
550.18	58052.31
550.34	58260.62
550.51	58241.89
550.68	58356.58
550.84	58227.85
551.01	58354.24
551.18	58337.85
551.34	58595.31
551.51	58408.07
551.68	58489.99
551.84	58457.22
552.01	58377.64
552.18	58316.79
552.34	58277.00
552.51	58798.94
552.68	58298.06
552.84	58515.73
553.01	58820.00
553.18	58731.06
553.34	58890.22
553.51	58766.17
553.67	58738.08
553.84	58925.33
554.01	58969.80
554.17	58817.66
554.34	58983.84
554.51	58969.80
554.67	58724.04
554.84	58913.62
555.00	58960.44
555.17	58618.72
555.33	59157.04
555.50	58798.94
555.67	58976.82
555.83	59028.31
556.00	59068.10
556.16	59126.61
556.33	59271.73
556.50	58953.41
556.66	59299.81
556.83	59000.22
556.99	59311.52
557.16	59250.66
557.32	59381.73
557.49	59550.25
557.65	59257.68
557.82	59407.48
557.98	59320.88
558.15	59409.82
558.32	59358.33
558.48	59409.82
558.65	59393.43
558.81	59323.22
558.98	59475.35
559.14	59519.82
559.31	59583.02
559.47	59475.35
559.64	59620.47
559.80	59475.35
559.97	59526.84
560.13	59540.89
560.30	59346.62
560.46	59597.06
560.63	59643.87
560.79	59711.75
560.96	59671.96
561.12	59664.94
561.29	59503.44
561.45	59831.11
561.61	59629.83
561.78	59414.50
561.94	59533.87
562.11	59620.47
562.27	59821.75
562.44	59737.49
562.60	59948.14
562.77	59854.52
562.93	59721.11
563.10	59957.50
563.26	59807.71
563.42	60097.94
563.59	59824.09
563.75	59863.88
563.92	59861.54
564.08	59756.22
564.24	59964.52
564.41	59997.29
564.57	59889.63
564.74	60027.72
564.90	59997.29
565.07	60023.04
565.23	59990.27
565.39	59957.50
565.56	60060.49
565.72	60083.89
565.88	59999.63
566.05	60018.36
566.21	60067.51
566.38	60268.79
566.54	60287.52
566.70	60322.63
566.87	60231.35
567.03	60079.21
567.19	60289.86
567.36	60191.56
567.52	60261.77
567.68	60456.04
567.85	60266.45
568.01	60357.74
568.17	60301.56
568.34	60294.54
568.50	60149.43
568.66	60271.14
568.83	60353.05
568.99	60156.45
569.15	60364.76
569.32	60383.48
569.48	60315.61
569.64	60357.74
569.81	60294.54
569.97	60296.88
570.13	60273.48
570.30	60205.60
570.46	60636.26
570.62	60324.97
570.78	60275.82
570.95	60294.54
571.11	60350.71
571.27	60252.41
571.43	60411.57
571.60	60563.70
571.76	60294.54
571.92	60463.06
572.09	60238.37
572.25	60540.30
572.41	60280.50
572.57	60575.40
572.74	60659.66
572.90	60395.18
573.06	60463.06
573.22	60523.91
573.38	60460.72
573.55	60530.93
573.71	60603.49
573.87	60479.44
574.03	60530.93
574.20	60601.15
574.36	60479.44
574.52	60612.85
574.68	60842.23
574.84	60722.86
575.01	60631.58
575.17	60622.22
575.33	60509.87
575.49	60383.48
575.65	60619.88
575.82	60755.63
575.98	60507.53
576.14	60807.12
576.30	60554.34
576.46	60872.65
576.62	60650.30
576.79	60566.04
576.95	60594.13
577.11	60622.22
577.27	60659.66
577.43	60781.37
577.59	60514.55
577.75	60495.83
577.92	60465.40
578.08	60676.05
578.24	60669.03
578.40	61092.66
578.56	60849.25
578.72	60669.03
578.88	60858.61
579.04	60872.65
579.21	60795.42
579.37	60994.36
579.53	60935.85
579.69	60666.69
579.85	60774.35
580.01	60678.39
580.17	60617.53
580.33	60657.32
580.49	60879.67
580.65	60816.48
580.82	60870.31
580.98	60753.29
581.14	60732.22
581.30	60828.18
581.46	60753.29
581.62	60718.18
581.78	60755.63
581.94	60720.52
582.10	60790.73
582.26	60762.65
582.42	60619.88
582.58	60860.95
582.74	60821.16
582.90	60722.86
583.06	60872.65
583.22	60900.74
583.38	60676.05
583.54	60685.41
583.70	61029.47
583.86	61017.77
584.02	60748.60
584.18	60919.46
584.34	60870.31
584.50	60947.55
584.66	60662.00
584.82	60762.65
584.98	61102.03
585.14	61085.64
585.30	60956.91
585.46	61006.06
585.62	60921.80
585.78	61022.45
585.94	60781.37
586.10	60750.94
586.26	60853.93
586.42	60844.57
586.58	61109.05
586.74	61073.94
586.90	60844.57
587.06	60874.99
587.22	61153.52
587.38	60795.42
587.54	61120.75
587.70	60924.14
587.86	60917.12
588.02	61099.68
588.18	61153.52
588.34	60900.74
588.49	60893.72
588.65	60889.04
588.81	60910.10
588.97	60945.21
589.13	61073.94
589.29	61031.81
589.45	61043.51
589.61	61160.54
589.77	61385.23
589.93	61144.16
590.08	61174.58
590.24	61190.97
590.40	61375.87
590.56	61282.25
590.72	61329.06
590.88	61043.51
591.04	61172.24
591.20	61277.57
591.35	61329.06
591.51	61558.43
591.67	61478.85
591.83	61380.55
591.99	61284.59
592.15	61111.39
592.31	61296.29
592.46	61212.03
592.62	61368.85
592.78	61467.15
592.94	61418.00
593.10	61385.23
593.26	61324.38
593.41	61460.13
593.57	61165.22
593.73	61343.10
593.89	61630.99
594.05	61432.04
594.20	61233.10
594.36	61469.49
594.52	61291.61
594.68	61251.82
594.84	61385.23
594.99	61326.72
595.15	61247.14
595.31	61612.26
595.47	61268.20
595.62	61352.46
595.78	61125.43
595.94	61359.48
596.10	61528.00
596.25	61464.81
596.41	61518.64
596.57	61670.78
596.73	61497.58
596.88	61427.36
597.04	61528.00
597.20	61591.20
597.36	61488.21
597.51	61385.23
597.67	61375.87
597.83	61457.79
597.99	61640.35
598.14	61425.02
598.30	61670.78
598.46	61495.24
598.61	61680.14
598.77	61408.64
598.93	61441.40
599.09	61605.24
599.24	61661.41
599.40	61525.66
599.56	61766.74
599.71	61499.92
599.87	61701.20
600.03	61469.49
600.18	61492.89
600.34	61495.24
600.50	61586.52
600.65	61476.51
600.81	61722.27
600.97	61862.70
601.12	61605.24
601.28	61537.36
601.44	61488.21
601.59	61675.46
601.75	61614.60
601.91	61829.93
602.06	61516.30
602.22	61825.25
602.37	61703.54
602.53	61602.90
602.69	61726.95
602.84	61528.00
603.00	61645.03
603.16	61701.20
603.31	61659.07
603.47	61668.44
603.62	61464.81
603.78	61755.03
603.94	61623.96
604.09	61614.60
604.25	61572.47
604.40	61698.86
604.56	61661.41
604.71	61750.35
604.87	61532.68
605.03	61263.52
605.18	61670.78
605.34	61726.95
605.49	61556.09
605.65	61860.36
605.80	61858.02
605.96	61626.31
606.12	61598.22
606.27	61654.39
606.43	61584.18
606.58	61869.72
606.74	61666.09
606.89	61640.35
607.05	61689.50
607.20	61724.61
607.36	61748.01
607.51	61602.90
607.67	61333.74
607.82	61415.66
607.98	61630.99
608.13	61506.94
608.29	61771.42
608.44	61577.15
608.60	61422.68
608.75	61595.88
608.91	61387.57
609.06	61366.51
609.22	61691.84
609.37	61261.18
609.53	61471.83
609.68	61668.44
609.84	61441.40
609.99	61577.15
610.15	61675.46
610.30	61595.88
610.46	61413.32
610.61	61600.56
610.76	61408.64
610.92	61446.08
611.07	61333.74
611.23	61488.21
611.38	61584.18
611.54	61375.87
611.69	61509.28
611.84	61413.32
612.00	61483.53
612.15	61394.59
612.31	61516.30
612.46	61380.55
612.62	61460.13
612.77	61249.48
612.92	61565.45
613.08	61434.38
613.23	61347.78
613.39	61361.82
613.54	61272.88
613.69	61492.89
613.85	61347.78
614.00	61443.74
614.15	61528.00
614.31	61413.32
614.46	61502.26
614.62	61282.25
614.77	61403.95
614.92	61160.54
615.08	61275.22
615.23	61212.03
615.38	61387.57
615.54	61268.20
615.69	61195.65
615.84	61427.36
616.00	61286.93
616.15	61165.22
616.30	61272.88
616.46	61291.61
616.61	60931.17
616.76	61312.67
616.92	61085.64
617.07	61085.64
617.22	60914.78
617.37	61010.74
617.53	61242.46
617.68	61202.67
617.83	61029.47
617.99	61200.33
618.14	60985.00
618.29	60987.34
618.45	61080.96
618.60	60954.57
618.75	60926.49
618.90	60945.21
619.06	61092.66
619.21	61059.90
619.36	60987.34
619.51	61020.11
619.67	60987.34
619.82	60870.31
619.97	61052.87
620.12	60947.55
620.28	60797.76
620.43	60992.02
620.58	60734.56
620.73	60779.03
620.89	60977.98
621.04	60980.32
621.19	60842.23
621.34	60987.34
621.49	60734.56
621.65	60938.19
621.80	61031.81
621.95	60725.20
622.10	60863.29
622.25	60657.32
622.41	60910.10
622.56	60669.03
622.71	60697.11
622.86	60715.84
623.01	60699.45
623.16	60533.28
623.32	60633.92
623.47	60856.27
623.62	60622.22
623.77	60706.47
623.92	60856.27
624.07	60722.86
624.23	60654.98
624.38	60547.32
624.53	60381.14
624.68	60640.94
624.83	60697.11
624.98	60697.11
625.13	60463.06
625.29	60676.05
625.44	60399.86
625.59	60570.72
625.74	60460.72
625.89	60289.86
626.04	60357.74
626.19	60214.96
626.34	60392.84
626.49	60273.48
626.65	60095.60
626.80	60416.25
626.95	60367.10
627.10	60100.28
627.25	60196.24
627.40	60278.16
627.55	60315.61
627.70	60254.75
627.85	60425.61
628.00	60123.68
628.15	60273.48
628.30	60034.74
628.45	60294.54
628.60	60149.43
628.76	60172.83
628.91	60420.93
629.06	60172.83
629.21	60229.01
629.36	60065.17
629.51	60207.94
629.66	60090.91
629.81	59990.27
629.96	59833.46
630.11	59824.09
630.26	60079.21
630.41	60102.62
630.56	60020.70
630.71	60095.60
630.86	60039.42
631.01	59788.98
631.16	59845.16
631.31	60037.08
631.46	59674.30
631.61	59838.14
631.76	60067.51
631.91	59915.37
632.06	59788.98
632.21	59838.14
632.36	59894.31
632.51	59456.63
632.66	59756.22
632.81	59526.84
632.96	59952.82
633.10	59718.77
633.25	59688.34
633.40	59913.03
633.55	59840.48
633.70	59791.33
633.85	59625.15
634.00	59606.42
634.15	59533.87
634.30	59501.10
634.45	59730.47
634.60	59896.65
634.75	59580.68
634.90	59449.61
635.05	59515.14
635.19	59505.78
635.34	59529.19
635.49	59517.48
635.64	59636.85
635.79	59304.49
635.94	59590.04
636.09	59515.14
636.24	59395.77
636.39	59515.14
636.53	59671.96
636.68	59339.60
636.83	59496.42
636.98	59718.77
637.13	59470.67
637.28	59330.24
637.43	59175.76
637.57	59447.27
637.72	59407.48
637.87	59238.96
638.02	59423.86
638.17	59435.56
638.32	59217.89
638.46	59025.97
638.61	59227.26
638.76	59065.76
638.91	59269.39
639.06	59044.69
639.20	59040.01
639.35	59257.68
639.50	59086.82
639.65	59250.66
639.80	59121.93
639.94	59082.14
640.09	59159.38
640.24	59121.93
640.39	59002.56
640.54	58953.41
640.68	59147.68
640.83	59014.27
640.98	59061.08
641.13	59065.76
641.27	59271.73
641.42	58728.72
641.57	58752.13
641.72	58852.77
641.86	58766.17
642.01	58576.59
642.16	58906.60
642.31	58712.34
642.45	59178.10
642.60	58845.75
642.75	58932.35
642.90	58805.96
643.04	58735.74
643.19	58754.47
643.34	58543.82
643.48	58660.85
643.63	58756.81
643.78	58691.27
643.93	58644.46
644.07	58536.80
644.22	58590.63
644.37	58302.74
644.51	58712.34
644.66	58855.11
644.81	58379.98
644.95	58726.38
645.10	58560.20
645.25	58515.73
645.39	58642.12
645.54	58377.64
645.69	58525.10
645.83	58443.18
645.98	58394.03
646.13	58567.23
646.27	58419.77
646.42	58340.19
646.57	58340.19
646.71	58377.64
646.86	58433.81
647.00	58415.09
647.15	58101.46
647.30	58328.49
647.44	58204.44
647.59	58349.56
647.74	58468.92
647.88	58330.83
648.03	58389.34
648.17	58340.19
648.32	58197.42
648.47	58291.04
648.61	58049.97
648.76	58415.09
648.90	58527.44
649.05	58227.85
649.20	58056.99
649.34	58323.81
649.49	57951.66
649.63	58145.93
649.78	58302.74
649.92	58321.47
650.07	58176.36
650.21	58040.60
650.36	58056.99
650.51	58113.16
650.65	58255.93
650.80	58218.49
650.94	57965.71
651.09	57865.06
651.23	57476.54
651.38	57963.37
651.52	57846.34
651.67	57666.12
651.81	57996.13
651.96	58047.63
652.10	57893.15
652.25	57790.17
652.39	57682.50
652.54	57542.07
652.68	57530.37
652.83	57598.24
652.97	58010.18
653.12	57764.42
653.26	57523.35
653.41	57778.46
653.55	57511.64
653.70	57593.56
653.84	57616.97
653.99	57640.37
654.13	57481.22
654.27	57495.26
654.42	57429.72
654.56	57326.74
654.71	57579.52
654.85	57633.35
655.00	57759.74
655.14	57513.98
655.29	57373.55
655.43	57521.01
655.57	57403.98
655.72	57392.28
655.86	57399.30
656.01	57127.80
656.15	57233.12
656.30	57401.64
656.44	57771.44
656.58	57291.63
656.73	57432.07
656.87	57406.32
657.01	57329.08
657.16	57303.34
657.30	57066.94
657.45	57104.39
657.59	57073.96
657.73	56893.74
657.88	57092.69
658.02	57174.61
658.16	56926.51
658.31	57242.48
658.45	57071.62
658.60	57148.86
658.74	57198.01
658.88	56966.30
659.03	56772.03
659.17	56762.67
659.31	56914.81
659.46	56837.57
659.60	57043.54
659.74	56765.01
659.89	56765.01
660.03	56865.66
660.17	56954.60
660.32	56722.88
660.46	56662.03
660.60	56556.70
660.74	56633.94
660.89	56893.74
661.03	56479.47
661.17	56151.79
661.32	56231.37
661.46	56451.38
661.60	56547.34
661.74	56306.27
661.89	56378.82
662.03	56308.61
662.17	56329.67
662.31	56048.81
662.46	56259.46
662.60	56121.37
662.74	56257.12
662.88	56069.87
663.03	55571.34
663.17	56095.62
663.31	55849.86
663.45	55711.77
663.60	55536.23
663.74	55564.32
663.88	55789.01
664.02	55767.94
664.17	55683.69
664.31	55524.53
664.45	55540.91
664.59	55536.23
664.73	55356.01
664.88	55400.48
665.02	55061.10
665.16	55220.26
665.30	55409.84
665.44	55444.95
665.59	55196.85
665.73	55063.44
665.87	55072.81
666.01	55519.85
666.15	55241.32
666.29	55023.65
666.44	55175.79
666.58	54756.83
666.72	54740.45
666.86	54602.36
667.00	54721.72
667.14	54749.81
667.28	54677.25
667.43	54401.07
667.57	54773.22
667.71	54405.75
667.85	54431.50
667.99	54218.51
668.13	54578.95
668.27	54262.98
668.41	54478.31
668.56	54028.93
668.70	53916.58
668.84	53811.26
668.98	53970.41
669.12	54066.38
669.26	53759.76
669.40	54272.34
669.54	54323.83
669.68	53984.46
669.82	53942.33
669.96	54188.08
670.10	53972.75
670.25	53820.62
670.39	53563.16
670.53	53886.15
670.67	53734.02
670.81	54026.59
670.95	53682.53
671.09	53401.66
671.23	53221.44
671.37	53324.43
671.51	53441.45
671.65	53408.68
671.79	53214.42
671.93	53298.68
672.07	53345.49
672.21	52999.09
672.35	52772.06
672.49	52575.45
672.63	52793.12
672.77	52638.65
672.91	52877.38
673.05	52100.32
673.19	52399.91
673.33	52156.50
673.47	52353.10
673.61	52278.21
673.75	52126.07
673.89	51742.22
674.03	52058.20
674.17	51487.10
674.31	51358.38
674.45	51515.19
674.59	51646.26
674.73	51590.09
674.87	51683.71
675.01	51688.39
675.15	51585.41
675.29	51262.41
675.43	51377.10
675.56	51016.66
675.70	51021.34
675.84	50822.39
675.98	49972.78
676.12	50920.70
676.26	51051.76
676.40	50553.23
676.54	50752.18
676.68	50625.79
676.82	49907.24
676.96	50026.61
677.10	49902.56
677.23	49591.27
677.37	49804.26
677.51	49825.32
677.65	49340.83
677.79	48875.07
677.93	48968.69
678.07	49031.88
678.21	49216.78
678.34	48725.27
678.48	48804.85
678.62	48942.94
678.76	48409.30
678.90	48294.61
679.04	48533.35
679.18	48315.68
679.31	47737.57
679.45	47868.64
679.59	47835.87
679.73	48025.45
679.87	47379.46
680.00	47400.53
680.14	46890.29
680.28	47236.69
680.42	47140.73
680.56	46897.31
680.70	46653.90
680.83	46461.97
680.97	46459.63
681.11	46588.36
681.25	46740.50
681.39	46073.45
681.52	45979.82
681.66	45804.28
681.80	45759.81
681.94	45420.44
682.07	45553.85
682.21	44772.11
682.35	45186.38
682.49	45165.32
682.62	45542.14
682.76	45294.05
682.90	45319.79
683.04	44949.99
683.17	44507.63
683.31	44163.57
683.45	44119.10
683.59	44186.97
683.72	43924.83
683.86	43800.79
684.00	43662.69
684.13	44067.61
684.27	43447.36
684.41	43821.85
684.55	43454.39
684.68	43349.06
684.82	42831.80
684.96	42703.07
685.09	42471.36
685.23	42581.37
685.37	42480.72
685.50	42005.59
685.64	42567.32
685.78	42298.16
685.91	41851.12
686.05	41874.52
686.19	41151.30
686.32	41198.11
686.46	40769.79
686.60	40325.09
686.73	40575.53
686.87	40505.31
687.01	40816.60
687.14	40685.53
687.28	40390.62
687.42	40334.45
687.55	39732.93
687.69	40126.14
687.82	39761.02
687.96	39463.77
688.10	39283.55
688.23	39634.63
688.37	39407.60
688.50	38864.60
688.64	38990.98
688.78	39019.07
688.91	38096.90
689.05	38323.93
689.18	38520.54
689.32	37926.04
689.46	37691.99
689.59	37794.97
689.73	37504.74
689.86	37464.96
690.00	37050.68
690.13	37514.11
690.27	36790.88
690.41	37432.19
690.54	36477.25
690.68	36650.45
690.81	36584.91
690.95	36528.74
691.08	36004.46
691.22	36114.47
691.35	36154.26
691.49	35955.31
691.62	35906.16
691.76	35737.64
691.89	35461.46
692.03	35449.75
692.16	35225.06
692.30	34841.21
692.43	35061.22
692.57	34752.27
692.70	34457.37
692.84	33839.47
692.97	34075.86
693.11	34384.81
693.24	34293.53
693.38	33778.61
693.51	33846.49
693.65	33731.80
693.78	33156.03
693.92	33675.63
694.05	33312.84
694.19	32720.69
694.32	32856.44
694.45	33130.28
694.59	32746.44
694.72	32622.39
694.86	32203.43
694.99	31824.26
695.13	32077.04
695.26	31613.62
695.39	31938.95
695.53	31665.11
695.66	31349.14
695.80	31487.23
695.93	31197.00
696.07	30572.08
696.20	30405.90
696.33	30548.67
696.47	30539.31
696.60	30764.00
696.73	30160.14
696.87	30752.30
697.00	29881.62
697.14	30026.73
697.27	29867.58
697.40	29443.94
697.54	29315.21
697.67	29303.51
697.80	29282.44
697.94	29111.58
698.07	29170.10
698.21	28725.39
698.34	28971.15
698.47	29064.77
698.61	28343.89
698.74	28341.55
698.87	28788.59
699.01	27840.67
699.14	27747.05
699.27	27992.81
699.40	28013.87
699.54	27763.43
699.67	27498.95
699.80	27573.85
699.94	27211.07
700.07	27295.33
700.20	27044.89
700.34	26979.36
700.47	26576.78
700.60	26401.24
700.73	26560.40
700.87	25972.92
701.00	26206.98
701.13	25699.08
701.26	25764.62
701.40	26125.06
701.53	25699.08
701.66	25362.04
701.79	25357.36
701.93	25060.12
702.06	24744.14
702.19	24702.01
702.32	25205.23
702.46	24793.29
702.59	24383.70
702.72	24423.49
702.85	24381.36
702.99	24144.97
703.12	24041.98
703.25	23662.82
703.38	23548.13
703.51	23688.56
703.65	23190.03
703.78	23339.82
703.91	23388.97
704.04	23187.69
704.17	23309.40
704.31	22775.75
704.44	22408.29
704.57	22712.56
704.70	22354.46
704.83	22352.12
704.96	22483.19
705.10	22242.11
705.23	22242.11
>>>>>End Processed Spectral Data<<<<<
