SpectraSuite Data File
++++++++++++++++++++++++++++++++++++
Date: Fri Oct 25 11:23:14 EDT 2013
User: price-jones
Dark Spectrum Present: No
Reference Spectrum Present: No
Number of Sampled Component Spectra: 1
Spectrometers: USB2+H05261
Integration Time (usec): 100000 (USB2+H05261)
Spectra Averaged: 1 (USB2+H05261)
Boxcar Smoothing: 0 (USB2+H05261)
Correct for Electrical Dark: No (USB2+H05261)
Strobe/Lamp Enabled: No (USB2+H05261)
Correct for Detector Non-linearity: No (USB2+H05261)
Correct for Stray Light: No (USB2+H05261)
Number of Pixels in Processed Spectrum: 2048
>>>>>Begin Processed Spectral Data<<<<<
365.73	255.12
365.92	255.12
366.12	255.12
366.32	210.65
366.52	152.13
366.72	189.58
366.91	110.01
367.11	117.03
367.31	110.01
367.51	187.24
367.70	102.98
367.90	138.09
368.10	102.98
368.30	168.52
368.49	133.41
368.69	229.37
368.89	67.88
369.09	128.73
369.28	110.01
369.48	110.01
369.68	187.24
369.87	170.86
370.07	126.39
370.27	236.39
370.47	308.95
370.66	641.31
370.86	566.41
371.06	629.60
371.25	690.46
371.45	594.50
371.65	657.69
371.84	720.88
372.04	718.54
372.24	725.57
372.44	772.38
372.63	720.88
372.83	667.05
373.03	732.59
373.22	751.31
373.42	741.95
373.62	819.19
373.81	767.70
374.01	809.83
374.21	833.23
374.40	870.68
374.60	819.19
374.79	746.63
374.99	777.06
375.19	793.44
375.38	875.36
375.58	933.87
375.78	915.15
375.97	866.00
376.17	901.11
376.37	884.72
376.56	910.47
376.76	966.64
376.95	861.32
377.15	877.70
377.35	891.74
377.54	910.47
377.74	898.77
377.93	926.85
378.13	912.81
378.33	966.64
378.52	1036.86
378.72	922.17
378.91	971.32
379.11	807.48
379.31	866.00
379.50	990.05
379.70	1027.50
379.89	1036.86
380.09	966.64
380.28	976.00
380.48	997.07
380.68	1013.45
380.87	999.41
381.07	1046.22
381.26	1135.16
381.46	1086.01
381.65	1034.52
381.85	999.41
382.04	1036.86
382.24	1086.01
382.43	1135.16
382.63	1078.99
382.83	1060.26
383.02	1100.05
383.22	1165.59
383.41	1013.45
383.61	1029.84
383.80	1109.41
384.00	1076.65
384.19	1060.26
384.39	1086.01
384.58	1121.12
384.78	1090.69
384.97	1102.39
385.17	1132.82
385.36	1151.54
385.56	1114.10
385.75	1170.27
385.95	1139.84
386.14	1275.59
386.34	1177.29
386.53	1167.93
386.72	1163.25
386.92	1226.44
387.11	1338.79
387.31	1259.21
387.50	1275.59
387.70	1324.74
387.89	1254.53
388.09	1228.78
388.28	1306.02
388.48	1256.87
388.67	1343.47
388.86	1313.04
389.06	1261.55
389.25	1369.21
389.45	1387.94
389.64	1289.64
389.84	1376.24
390.03	1500.28
390.22	1399.64
390.42	1411.34
390.61	1380.92
390.81	1385.60
391.00	1462.83
391.19	1413.68
391.39	1420.71
391.58	1497.94
391.78	1455.81
391.97	1514.33
392.16	1486.24
392.36	1586.88
392.55	1547.09
392.75	1610.29
392.94	1533.05
393.13	1577.52
393.33	1469.86
393.52	1523.69
393.71	1570.50
393.91	1596.25
394.10	1568.16
394.29	1586.88
394.49	1621.99
394.68	1696.89
394.88	1598.59
395.07	1673.48
395.26	1717.95
395.46	1643.06
395.65	1736.68
395.84	1746.04
396.04	1767.10
396.23	1689.87
396.42	1762.42
396.62	1783.49
396.81	1788.17
397.00	1734.34
397.19	1710.93
397.39	1874.77
397.58	1884.13
397.77	1778.81
397.97	1823.28
398.16	1867.75
398.35	1928.60
398.55	1898.17
398.74	1888.81
398.93	1954.35
399.12	1963.71
399.32	1867.75
399.51	1884.13
399.70	1923.92
399.90	1975.41
400.09	2036.27
400.28	2050.31
400.47	2012.86
400.67	2059.67
400.86	2111.16
401.05	1998.82
401.24	2062.01
401.44	2209.47
401.63	2190.74
401.82	2162.66
402.01	2148.61
402.21	2153.29
402.40	2244.57
402.59	2282.02
402.78	2263.30
402.97	2167.34
403.17	2291.38
403.36	2263.30
403.55	2333.51
403.74	2429.48
403.93	2487.99
404.13	2492.67
404.32	2445.86
404.51	2356.92
404.70	2377.98
404.89	2370.96
405.09	2464.58
405.28	2441.18
405.47	2518.42
405.66	2560.55
405.85	2523.10
406.05	2619.06
406.24	2452.88
406.43	2544.16
406.62	2644.81
406.81	2747.79
407.00	2574.59
407.20	2581.61
407.39	2605.02
407.58	2724.38
407.77	2729.06
407.96	2942.05
408.15	2729.06
408.34	2656.51
408.54	2796.94
408.73	2843.75
408.92	2892.90
409.11	2918.65
409.30	2785.24
409.49	2963.12
409.68	2958.44
409.87	3023.97
410.07	3091.85
410.26	3119.93
410.45	3080.14
410.64	3070.78
410.83	3070.78
411.02	3073.12
411.21	3215.90
411.40	3096.53
411.59	3164.40
411.78	3157.38
411.98	3229.94
412.17	3316.54
412.36	3318.88
412.55	3337.60
412.74	3400.80
412.93	3377.39
413.12	3403.14
413.31	3552.93
413.50	3412.50
413.69	3513.14
413.88	3648.90
414.07	3609.11
414.26	3733.15
414.45	3557.61
414.64	3772.94
414.83	3744.86
415.02	3786.99
415.22	3756.56
415.41	3913.38
415.60	3882.95
415.79	4044.45
415.98	3873.59
416.17	4133.39
416.36	3934.44
416.55	3950.82
416.74	4067.85
416.93	4229.35
417.12	4126.36
417.31	4121.68
417.50	4255.09
417.69	4346.37
417.88	4292.54
418.07	4402.55
418.26	4475.10
418.45	4404.89
418.64	4592.13
418.83	4334.67
419.02	4432.97
419.21	4519.57
419.39	4564.04
419.58	4624.90
419.77	4440.00
419.96	4636.60
420.15	4671.71
420.34	4741.93
420.53	4601.49
420.72	4746.61
420.91	4720.86
421.10	4844.91
421.29	4856.61
421.48	4636.60
421.67	4823.84
421.86	4826.18
422.05	4896.40
422.24	4849.59
422.43	4819.16
422.61	4863.63
422.80	5043.85
422.99	4999.38
423.18	4947.89
423.37	4997.04
423.56	4919.81
423.75	4912.78
423.94	4968.96
424.13	4585.11
424.32	4706.82
424.50	5135.14
424.69	5179.61
424.88	5093.01
425.07	4999.38
425.26	4924.49
425.45	5137.48
425.64	4945.55
425.83	4947.89
426.01	5085.98
426.20	5069.60
426.39	5067.26
426.58	5184.29
426.77	5198.33
426.96	5362.17
427.15	5301.31
427.33	5121.09
427.52	5142.16
427.71	5467.49
427.90	5240.46
428.09	5369.19
428.28	5263.86
428.46	5261.52
428.65	5383.23
428.84	5469.83
429.03	5549.41
429.22	5371.53
429.40	5523.66
429.59	5591.54
429.78	5198.33
429.97	5235.78
430.16	5479.19
430.34	5689.84
430.53	5769.42
430.72	5727.29
430.91	5724.95
431.10	5710.91
431.28	5853.68
431.47	5841.98
431.66	5853.68
431.85	5764.74
432.03	5785.80
432.22	6101.78
432.41	5867.72
432.60	5980.07
432.79	6179.01
432.97	6106.46
433.16	6080.71
433.35	5996.45
433.54	6050.28
433.72	6061.99
433.91	6174.33
434.10	6218.80
434.28	6146.25
434.47	6181.35
434.66	6204.76
434.85	6207.10
435.03	6452.86
435.22	6256.25
435.41	6438.81
435.59	6452.86
435.78	6628.40
435.97	6684.57
436.16	6459.88
436.34	6340.51
436.53	6499.67
436.72	6633.08
436.90	6455.20
437.09	6619.04
437.28	6530.09
437.46	6612.01
437.65	6747.76
437.84	6782.87
438.02	6733.72
438.21	6932.67
438.40	6705.63
438.58	6998.20
438.77	7112.89
438.96	7030.97
439.14	7311.83
439.33	7218.21
439.52	7190.13
439.70	7424.18
439.89	7279.07
440.08	7508.44
440.26	7496.74
440.45	7417.16
440.63	7564.61
440.82	7513.12
441.01	7719.09
441.19	7808.03
441.38	7939.10
441.57	7693.34
441.75	8119.32
441.94	8093.57
442.12	7772.92
442.31	8011.65
442.50	8105.28
442.68	8060.80
442.87	8147.40
443.05	7882.92
443.24	8472.74
443.43	8236.35
443.61	8234.00
443.80	8610.83
443.98	8039.74
444.17	7957.82
444.35	8379.12
444.54	8503.17
444.73	8353.37
444.91	8475.08
445.10	8482.10
445.28	8568.70
445.47	8346.35
445.65	8306.56
445.84	8547.64
446.02	8428.27
446.21	8503.17
446.39	8517.21
446.58	8531.25
446.77	8648.28
446.95	8231.66
447.14	8458.70
447.32	8636.58
447.51	8748.92
447.69	8669.34
447.88	8643.60
448.06	8594.45
448.25	8521.89
448.43	8683.39
448.62	8641.26
448.80	8568.70
448.99	8741.90
449.17	8793.39
449.36	8858.93
449.54	8919.78
449.73	9095.32
449.91	9090.64
450.10	8999.36
450.28	9071.92
450.46	9156.18
450.65	9212.35
450.83	9055.53
451.02	9193.62
451.20	9235.75
451.39	9114.05
451.57	9287.25
451.76	9221.71
451.94	9139.79
452.13	9263.84
452.31	9334.06
452.49	9256.82
452.68	9441.72
452.86	9535.34
453.05	9444.06
453.23	9502.58
453.42	9357.46
453.60	9432.36
453.78	9614.92
453.97	9516.62
454.15	9490.87
454.34	9638.33
454.52	9844.29
454.70	9858.34
454.89	9572.79
455.07	9764.72
455.26	9928.55
455.44	10174.31
455.62	9949.62
455.81	10183.67
455.99	10195.37
456.17	10246.87
456.36	10209.42
456.54	10223.46
456.73	10317.08
456.91	10471.56
457.09	10296.02
457.28	10473.90
457.46	10349.85
457.64	10560.50
457.83	10836.68
458.01	10696.25
458.19	10675.18
458.38	10588.58
458.56	10572.20
458.74	10677.52
458.93	10766.46
459.11	10698.59
459.29	11082.44
459.48	10817.96
459.66	10949.03
459.84	10913.92
460.03	11187.76
460.21	11021.58
460.39	11154.99
460.57	10967.75
460.76	11215.85
460.94	11302.45
461.12	11084.78
461.31	11356.28
461.49	11487.35
461.67	11239.25
461.85	11543.52
462.04	11325.85
462.22	11658.21
462.40	11630.12
462.59	11545.86
462.77	11452.24
462.95	11866.52
463.13	11674.59
463.32	11751.83
463.50	11819.71
463.68	11653.53
463.86	11833.75
464.05	11833.75
464.23	11817.36
464.41	11843.11
464.59	11885.24
464.78	12264.41
464.96	12273.77
465.14	11908.65
465.32	12233.98
465.50	12126.32
465.69	12414.20
465.87	12187.17
466.05	12245.68
466.23	12231.64
466.41	12257.39
466.60	12491.44
466.78	12013.97
466.96	12325.26
467.14	12212.92
467.32	12425.90
467.51	12774.64
467.69	12262.07
467.87	12592.08
468.05	12821.45
468.23	12475.06
468.41	12369.73
468.60	12662.30
468.78	12767.62
468.96	12823.80
469.14	13071.89
469.32	13139.77
469.50	12950.18
469.69	12896.35
469.87	13252.11
470.05	13153.81
470.23	13348.08
470.41	13181.90
470.59	13427.65
470.77	13226.37
470.95	13277.86
471.14	13680.43
471.32	13186.58
471.50	13582.13
471.68	13762.35
471.86	13778.73
472.04	13884.06
472.22	14162.58
472.40	13572.77
472.58	13865.33
472.77	14143.86
472.95	14354.51
473.13	14738.35
473.31	14490.26
473.49	14324.08
473.67	14235.14
473.85	14157.90
474.03	15005.17
474.21	14616.65
474.39	14850.70
474.57	14780.48
474.75	14881.13
474.93	15089.43
475.12	15096.46
475.30	15314.13
475.48	15033.26
475.66	15566.90
475.84	15276.68
476.02	15389.02
476.20	15391.36
476.38	15960.11
476.56	15957.77
476.74	16056.08
476.92	15903.94
477.10	15772.87
477.28	16362.69
477.46	16266.72
477.64	16409.50
477.82	16678.66
478.00	17195.92
478.18	16779.30
478.36	16917.39
478.54	17511.89
478.72	17341.03
478.90	17317.62
479.08	17699.13
479.26	17757.64
479.44	17792.75
479.62	18050.21
479.80	18434.06
479.98	18333.42
480.16	18864.72
480.34	18501.93
480.52	18766.42
480.70	18764.07
480.88	18925.57
481.06	18883.44
481.24	19274.31
481.41	19215.80
481.59	19782.21
481.77	19503.68
481.95	19534.11
482.13	19726.04
482.31	19957.75
482.49	20697.36
482.67	20446.92
482.85	20613.10
483.03	20760.55
483.21	20793.32
483.39	20915.03
483.57	20643.52
483.74	21118.65
483.92	21612.51
484.10	21341.00
484.28	21783.37
484.46	22010.40
484.64	22637.66
484.82	22183.60
485.00	22469.14
485.18	23152.58
485.35	23108.11
485.53	22906.82
485.71	23225.14
485.89	23852.40
486.07	23466.21
486.25	23840.70
486.43	23875.80
486.61	23810.27
486.78	23910.91
486.96	24533.50
487.14	24812.02
487.32	24634.14
487.50	24936.07
487.68	25228.63
487.85	25462.69
488.03	25848.88
488.21	26143.78
488.39	25797.38
488.57	26258.47
488.75	26506.57
488.92	26771.05
489.10	26962.97
489.28	26918.50
489.46	27435.76
489.64	27096.38
489.81	27606.62
489.99	27562.15
490.17	27695.56
490.35	28463.25
490.53	28428.15
490.70	28835.40
490.88	28594.32
491.06	28828.38
491.24	29106.90
491.41	29315.21
491.59	29390.11
491.77	29692.04
491.95	29902.68
492.13	29865.24
492.30	30263.13
492.48	30288.87
492.66	30618.89
492.84	30246.74
493.01	30946.56
493.19	31178.28
493.37	31122.10
493.54	31370.20
493.72	31960.02
493.90	32063.00
494.08	32233.86
494.25	32268.97
494.43	32165.98
494.61	32474.93
494.79	32685.58
494.96	32528.77
495.14	33118.58
495.32	33291.78
495.49	33666.27
495.67	33626.48
495.85	33539.88
496.02	33773.93
496.20	34522.90
496.38	34576.73
496.55	34408.22
496.73	35171.23
496.91	34866.96
497.09	35503.59
497.26	35405.28
497.44	35075.27
497.62	35770.41
497.79	36119.15
497.97	35784.45
498.14	35934.24
498.32	36549.81
498.50	36624.70
498.67	36655.13
498.85	36495.97
499.03	36989.83
499.20	36896.20
499.38	37148.98
499.56	37111.53
499.73	37680.28
499.91	37713.05
500.08	37970.51
500.26	37876.89
500.44	38171.80
500.61	38211.59
500.79	38195.20
500.97	38469.04
501.14	38700.76
501.32	38829.49
501.49	39227.38
501.67	39227.38
501.84	38923.11
502.02	39594.84
502.20	39234.40
502.37	39702.51
502.55	39845.28
502.72	39686.12
502.90	39964.65
503.07	39838.26
503.25	39686.12
503.43	40566.16
503.60	39952.94
503.78	40657.45
503.95	40708.94
504.13	40779.15
504.30	41427.48
504.48	40561.48
504.65	40849.37
504.83	41556.21
505.01	41677.92
505.18	41427.48
505.36	42000.91
505.53	41275.35
505.71	42026.66
505.88	42136.66
506.06	41963.46
506.23	42632.86
506.41	42300.50
506.58	42382.42
506.76	42396.46
506.93	42714.78
507.11	42600.09
507.28	42993.30
507.46	43103.31
507.63	43262.46
507.81	43665.03
507.98	43189.91
508.16	43430.98
508.33	43966.96
508.50	44016.11
508.68	44451.45
508.85	44046.54
509.03	44079.31
509.20	44411.67
509.38	44879.77
509.55	44697.21
509.73	44959.35
509.90	44734.66
510.08	44381.24
510.25	44882.11
510.42	45125.53
510.60	45640.45
510.77	45801.94
510.95	46064.08
511.12	45528.10
511.30	45778.54
511.47	46071.10
511.64	45600.66
511.82	45872.16
511.99	45811.31
512.17	46391.76
512.34	46237.28
512.51	46911.36
512.69	46419.84
512.86	46604.75
513.04	46693.69
513.21	46672.62
513.38	47234.35
513.56	47487.13
513.73	47075.19
513.90	47114.98
514.08	47091.58
514.25	47924.81
514.43	48105.03
514.60	48254.82
514.77	47821.83
514.95	48128.44
515.12	47767.99
515.29	48102.69
515.47	48123.75
515.64	48406.96
515.81	48254.82
515.99	48488.88
516.16	48692.50
516.33	49041.24
516.51	48861.02
516.68	48999.12
516.85	49045.93
517.03	49251.89
517.20	49684.89
517.37	49085.72
517.54	49240.19
517.72	49612.34
517.89	49448.50
518.06	49766.81
518.24	49635.74
518.41	49717.66
518.58	49588.93
518.75	49888.52
518.93	49944.69
519.10	49535.10
519.27	49996.18
519.45	50164.70
519.62	50536.85
519.79	50188.11
519.96	50124.91
520.14	50356.63
520.31	50131.93
520.48	50988.57
520.65	50564.93
520.83	50798.99
521.00	50974.53
521.17	51007.29
521.34	50937.08
521.52	51112.62
521.69	51274.12
521.86	51400.50
522.03	51487.10
522.20	51356.03
522.38	51583.07
522.55	51861.59
522.72	51700.09
522.89	51779.67
523.07	52011.38
523.24	51688.39
523.41	51927.13
523.58	51594.77
523.75	52102.67
523.92	52062.88
524.10	52095.64
524.27	52306.29
524.44	52692.48
524.61	52652.69
524.78	52364.81
524.96	52573.11
525.13	52397.57
525.30	52720.57
525.47	52505.24
525.64	52736.95
525.81	52921.85
525.98	53216.76
526.16	52903.13
526.33	53109.10
526.50	53198.04
526.67	52914.83
526.84	53071.65
527.01	53109.10
527.18	53226.12
527.36	53059.94
527.53	53221.44
527.70	53822.96
527.87	53701.25
528.04	53535.07
528.21	53455.50
528.38	53378.26
528.55	53858.07
528.72	53584.22
528.89	53750.40
529.07	53736.36
529.24	53443.79
529.41	54021.90
529.58	54033.61
529.75	54000.84
529.92	54312.13
530.09	54028.93
530.26	54141.27
530.43	54258.30
530.60	54148.29
530.77	54085.10
530.94	54216.17
531.11	54349.58
531.28	54536.82
531.46	54499.37
531.63	54768.54
531.80	54398.73
531.97	54754.49
532.14	54670.23
532.31	54611.72
532.48	54798.96
532.65	54653.85
532.82	54536.82
532.99	54962.80
533.16	54747.47
533.33	55180.47
533.50	55217.92
533.67	54761.51
533.84	55018.97
534.01	55061.10
534.18	55114.94
534.35	55620.49
534.52	55463.67
534.69	55550.27
534.86	55636.87
535.03	55374.73
535.20	55519.85
535.37	55529.21
535.54	55407.50
535.71	55435.59
535.88	55498.78
536.05	55753.90
536.22	55641.56
536.38	55868.59
536.55	55739.86
536.72	55463.67
536.89	55863.91
537.06	55889.65
537.23	55887.31
537.40	55739.86
537.57	56025.40
537.74	55889.65
537.91	56119.02
538.08	56432.66
538.25	56041.79
538.42	55964.55
538.59	56474.79
538.75	56067.53
538.92	56346.06
539.09	56505.21
539.26	56425.64
539.43	56526.28
539.60	56626.92
539.77	56704.16
539.94	56533.30
540.11	56765.01
540.28	56615.22
540.44	56636.28
540.61	56765.01
540.78	56605.86
540.95	56669.05
541.12	56655.01
541.29	56521.60
541.46	56767.35
541.62	56898.42
541.79	56879.70
541.96	56680.75
542.13	56739.27
542.30	56858.63
542.47	57050.56
542.63	57183.97
542.80	57071.62
542.97	57420.36
543.14	57401.64
543.31	57364.19
543.48	57455.47
543.64	57687.18
543.81	57329.08
543.98	57717.61
544.15	57628.67
544.32	57663.78
544.48	57832.30
544.65	57572.50
544.82	57708.25
544.99	57832.30
545.16	57621.65
545.32	57619.31
545.49	58085.07
545.66	57874.43
545.83	57776.12
546.00	58120.18
546.16	57923.58
546.33	57958.69
546.50	57743.36
546.67	58096.78
546.83	57958.69
547.00	57942.30
547.17	57904.85
547.34	58049.97
547.50	58183.38
547.67	58351.90
547.84	58204.44
548.00	58450.20
548.17	58504.03
548.34	58298.06
548.51	58614.04
548.67	58628.08
548.84	58253.59
549.01	58286.36
549.18	58314.45
549.34	58176.36
549.51	58731.06
549.68	58560.20
549.84	58478.28
550.01	58674.89
550.18	58527.44
550.34	58820.00
550.51	58805.96
550.68	58700.64
550.84	58501.69
551.01	58768.51
551.18	58780.21
551.34	58836.39
551.51	58960.44
551.68	58946.39
551.84	58714.68
552.01	58817.66
552.18	58953.41
552.34	58815.32
552.51	58993.20
552.68	58663.19
552.84	58761.49
553.01	59105.55
553.18	59166.40
553.34	59161.72
553.51	59014.27
553.67	58930.01
553.84	59124.27
554.01	59196.83
554.17	59208.53
554.34	59082.14
554.51	59217.89
554.67	59363.01
554.84	59215.55
555.00	59040.01
555.17	59180.45
555.33	59152.36
555.50	59119.59
555.67	59047.04
555.83	59355.99
556.00	59187.47
556.16	59714.09
556.33	59686.00
556.50	59484.72
556.66	59718.77
556.83	59341.94
556.99	59709.41
557.16	59707.07
557.32	59728.13
557.49	59852.18
557.65	59667.28
557.82	59681.32
557.98	59583.02
558.15	59454.29
558.32	59693.02
558.48	59648.55
558.65	59760.90
558.81	59597.06
558.98	59648.55
559.14	59810.05
559.31	59835.80
559.47	59959.84
559.64	59936.44
559.80	59765.58
559.97	59716.43
560.13	59671.96
560.30	59945.80
560.46	59997.29
560.63	59976.23
560.79	59910.69
560.96	60219.64
561.12	59950.48
561.29	60170.49
561.45	59767.92
561.61	60013.68
561.78	60086.23
561.94	59859.20
562.11	59950.48
562.27	60039.42
562.44	60198.58
562.60	60210.28
562.77	60095.60
562.93	60030.06
563.10	60331.99
563.26	60193.90
563.42	60264.11
563.59	60140.07
563.75	60207.94
563.92	60289.86
564.08	60027.72
564.24	60355.39
564.41	60341.35
564.57	60425.61
564.74	60383.48
564.90	60238.37
565.07	60308.58
565.23	60477.10
565.39	60292.20
565.56	60537.96
565.72	60465.40
565.88	60451.36
566.05	60364.76
566.21	60224.32
566.38	60491.15
566.54	60430.29
566.70	60486.46
566.87	60664.35
567.03	60420.93
567.19	60570.72
567.36	60629.24
567.52	60523.91
567.68	60685.41
567.85	60544.98
568.01	60638.60
568.17	60453.70
568.34	60605.83
568.50	60353.05
568.66	60540.30
568.83	60704.13
568.99	60774.35
569.15	60734.56
569.32	60692.43
569.48	60725.20
569.64	60645.62
569.81	60626.90
569.97	60640.94
570.13	60713.50
570.30	60484.12
570.46	60624.56
570.62	61024.79
570.78	60699.45
570.95	60458.38
571.11	60821.16
571.27	60704.13
571.43	60743.92
571.60	60903.08
571.76	60779.03
571.92	61003.72
572.09	60882.02
572.25	60835.20
572.41	60493.49
572.57	60853.93
572.74	61073.94
572.90	60783.71
573.06	60800.10
573.22	60970.96
573.38	60800.10
573.55	60821.16
573.71	61017.77
573.87	60912.44
574.03	60772.01
574.20	61123.09
574.36	60856.27
574.52	60846.91
574.68	60966.27
574.84	61209.69
575.01	60963.93
575.17	60910.10
575.33	60910.10
575.49	60856.27
575.65	60928.83
575.82	61050.53
575.98	60949.89
576.14	61095.00
576.30	61034.15
576.46	60884.36
576.62	60996.70
576.79	60889.04
576.95	60928.83
577.11	60982.66
577.27	61134.79
577.43	61160.54
577.59	61080.96
577.75	61073.94
577.92	61118.41
578.08	60924.14
578.24	61050.53
578.40	61087.98
578.56	61258.84
578.72	61258.84
578.88	61167.56
579.04	61172.24
579.21	61015.43
579.37	61315.01
579.53	61132.45
579.69	60832.86
579.85	61137.13
580.01	60940.53
580.17	60987.34
580.33	61010.74
580.49	61038.83
580.65	61169.90
580.82	60900.74
580.98	61041.17
581.14	61036.49
581.30	61095.00
581.46	61043.51
581.62	61099.68
581.78	61193.31
581.94	61263.52
582.10	60980.32
582.26	61230.75
582.42	61141.81
582.58	61076.28
582.74	61050.53
582.90	61221.39
583.06	61275.22
583.22	60954.57
583.38	61104.37
583.54	61172.24
583.70	60940.53
583.86	61319.70
584.02	61043.51
584.18	61038.83
584.34	61017.77
584.50	61174.58
584.66	60994.36
584.82	61024.79
584.98	61275.22
585.14	61263.52
585.30	61242.46
585.46	61214.37
585.62	61132.45
585.78	61141.81
585.94	61020.11
586.10	61219.05
586.26	61165.22
586.42	61303.31
586.58	61481.19
586.74	61240.12
586.90	61183.94
587.06	61188.63
587.22	61286.93
587.38	61097.34
587.54	61462.47
587.70	61394.59
587.86	61233.10
588.02	61181.60
588.18	61394.59
588.34	61523.32
588.49	61331.40
588.65	61148.84
588.81	61289.27
588.97	61345.44
589.13	61139.47
589.29	61394.59
589.45	61553.75
589.61	61551.41
589.77	61633.33
589.93	61556.09
590.08	61614.60
590.24	61621.62
590.40	61588.86
590.56	61518.64
590.72	61687.16
590.88	61520.98
591.04	61389.91
591.20	61614.60
591.35	61820.57
591.51	61759.72
591.67	61799.50
591.83	61731.63
591.99	61502.26
592.15	61506.94
592.31	61630.99
592.46	61677.80
592.62	61691.84
592.78	61453.11
592.94	61623.96
593.10	61673.12
593.26	61773.76
593.41	61755.03
593.57	61574.81
593.73	61691.84
593.89	61811.21
594.05	61851.00
594.20	61413.32
594.36	61708.22
594.52	61759.72
594.68	61570.13
594.84	61591.20
594.99	61783.12
595.15	61645.03
595.31	61783.12
595.47	61785.46
595.62	61542.05
595.78	61755.03
595.94	61616.94
596.10	61923.55
596.25	61846.32
596.41	61677.80
596.57	61886.10
596.73	61832.27
596.88	61715.25
597.04	61832.27
597.20	61921.21
597.36	61804.19
597.51	61914.19
597.67	61705.88
597.83	61872.06
597.99	61748.01
598.14	61766.74
598.30	61846.32
598.46	62035.90
598.61	61986.75
598.77	61745.67
598.93	61717.59
599.09	61876.74
599.24	62056.96
599.40	61977.39
599.56	61874.40
599.71	61794.82
599.87	62106.12
600.03	62096.75
600.18	61843.98
600.34	62040.58
600.50	61881.42
600.65	61979.73
600.81	61916.53
600.97	62071.01
601.12	61895.47
601.28	61783.12
601.44	61813.55
601.59	62054.62
601.75	61801.85
601.91	62349.53
602.06	62117.82
602.22	62253.57
602.37	61909.51
602.53	61946.96
602.69	61904.83
602.84	61748.01
603.00	61881.42
603.16	62085.05
603.31	62113.14
603.47	62447.83
603.62	61977.39
603.78	62054.62
603.94	61937.60
604.09	62038.24
604.25	62054.62
604.40	61944.62
604.56	61998.45
604.71	62129.52
604.87	61790.14
605.03	61900.15
605.18	61946.96
605.34	61820.57
605.49	61778.44
605.65	62117.82
605.80	61914.19
605.96	62148.24
606.12	62082.71
606.27	62192.72
606.43	61846.32
606.58	61975.05
606.74	61820.57
606.89	61797.16
607.05	61872.06
607.20	62136.54
607.36	61935.26
607.51	61890.79
607.67	61860.36
607.82	61703.54
607.98	61696.52
608.13	62040.58
608.29	61975.05
608.44	61731.63
608.60	61876.74
608.75	61932.92
608.91	61731.63
609.06	61577.15
609.22	62000.79
609.37	61689.50
609.53	61799.50
609.68	62075.69
609.84	61638.01
609.99	61703.54
610.15	61740.99
610.30	61874.40
610.46	61998.45
610.61	61656.73
610.76	61874.40
610.92	61712.91
611.07	61748.01
611.23	61659.07
611.38	61858.02
611.54	61797.16
611.69	61813.55
611.84	61769.08
612.00	61762.06
612.15	61731.63
612.31	61682.48
612.46	61616.94
612.62	61689.50
612.77	61694.18
612.92	61595.88
613.08	61560.77
613.23	61656.73
613.39	61668.44
613.54	61389.91
613.69	61820.57
613.85	61551.41
614.00	61820.57
614.15	61654.39
614.31	61595.88
614.46	61825.25
614.62	61577.15
614.77	61708.22
614.92	61532.68
615.08	61481.19
615.23	61520.98
615.38	61563.11
615.54	61446.08
615.69	61420.34
615.84	61499.92
616.00	61516.30
616.15	61446.08
616.30	61666.09
616.46	61396.93
616.61	61492.89
616.76	61642.69
616.92	61310.33
617.07	61474.17
617.22	61429.70
617.37	61499.92
617.53	61633.33
617.68	61492.89
617.83	61623.96
617.99	61558.43
618.14	61268.20
618.29	61361.82
618.45	61270.54
618.60	61197.99
618.75	61315.01
618.90	61354.80
619.06	61506.94
619.21	61511.62
619.36	61425.02
619.51	61425.02
619.67	61209.69
619.82	61286.93
619.97	61228.41
620.12	61022.45
620.28	61221.39
620.43	61160.54
620.58	61270.54
620.73	61066.92
620.89	61371.19
621.04	61181.60
621.19	61062.24
621.34	60987.34
621.49	61041.17
621.65	61289.27
621.80	61385.23
621.95	60947.55
622.10	61155.86
622.25	61137.13
622.41	61202.67
622.56	61102.03
622.71	61076.28
622.86	60917.12
623.01	60846.91
623.16	60910.10
623.32	61066.92
623.47	61130.11
623.62	60994.36
623.77	61029.47
623.92	61282.25
624.07	61181.60
624.23	60985.00
624.38	61073.94
624.53	60760.31
624.68	60755.63
624.83	60814.14
624.98	61090.32
625.13	60608.17
625.29	60867.97
625.44	60748.60
625.59	60727.54
625.74	60566.04
625.89	60643.28
626.04	60460.72
626.19	60537.96
626.34	60589.45
626.49	60786.05
626.65	60467.74
626.80	60741.58
626.95	60626.90
627.10	60596.47
627.25	60399.86
627.40	60451.36
627.55	60533.28
627.70	60519.23
627.85	60563.70
628.00	60507.53
628.15	60554.34
628.30	60474.76
628.45	60528.59
628.60	60484.12
628.76	60451.36
628.91	60706.47
629.06	60437.31
629.21	60427.95
629.36	60502.85
629.51	60231.35
629.66	60467.74
629.81	60224.32
629.96	60367.10
630.11	60229.01
630.26	60434.97
630.41	60353.05
630.56	60385.82
630.71	60413.91
630.86	60299.22
631.01	60275.82
631.16	60322.63
631.31	60083.89
631.46	60104.96
631.61	60109.64
631.76	60350.71
631.91	60289.86
632.06	60296.88
632.21	60383.48
632.36	60046.44
632.51	59742.17
632.66	60116.66
632.81	59962.18
632.96	60392.84
633.10	60205.60
633.25	60041.76
633.40	60210.28
633.55	60025.38
633.70	60072.19
633.85	59913.03
634.00	59903.67
634.15	59884.95
634.30	59798.35
634.45	59941.12
634.60	60060.49
634.75	60032.40
634.90	59599.40
635.05	59936.44
635.19	59847.50
635.34	60102.62
635.49	59669.62
635.64	59884.95
635.79	59828.77
635.94	59859.20
636.09	59966.87
636.24	59531.53
636.39	59709.41
636.53	60025.38
636.68	59739.83
636.83	59796.01
636.98	59765.58
637.13	59693.02
637.28	59824.09
637.43	59639.19
637.57	59641.53
637.72	59744.51
637.87	59756.22
638.02	59660.26
638.17	59568.97
638.32	59604.08
638.46	59463.65
638.61	59606.42
638.76	59496.42
638.91	59484.72
639.06	59395.77
639.20	59515.14
639.35	59171.08
639.50	59210.87
639.65	59346.62
639.80	59606.42
639.94	59358.33
640.09	59320.88
640.24	59248.32
640.39	59494.08
640.54	59358.33
640.68	59414.50
640.83	59189.81
640.98	59327.90
641.13	59220.23
641.27	59531.53
641.42	59236.62
641.57	59147.68
641.72	59091.51
641.86	59152.36
642.01	59054.06
642.16	59267.05
642.31	59107.89
642.45	59365.35
642.60	59068.10
642.75	59135.98
642.90	59105.55
643.04	59276.41
643.19	59016.61
643.34	59255.34
643.48	59187.47
643.63	59075.12
643.78	59196.83
643.93	59096.19
644.07	59061.08
644.22	58897.24
644.37	58712.34
644.51	58674.89
644.66	59075.12
644.81	58883.20
644.95	59077.46
645.10	59040.01
645.25	58796.60
645.39	58827.02
645.54	58965.12
645.69	58883.20
645.83	58908.94
645.98	58658.51
646.13	58599.99
646.27	58815.32
646.42	58777.87
646.57	58660.85
646.71	58880.86
646.86	58754.47
647.00	58761.49
647.15	58646.80
647.30	58370.62
647.44	58862.13
647.59	58588.29
647.74	58724.04
647.88	58780.21
648.03	58705.32
648.17	58688.93
648.32	58408.07
648.47	58576.59
648.61	58532.12
648.76	58578.93
648.90	58625.74
649.05	58487.65
649.20	58707.66
649.34	58461.90
649.49	58436.16
649.63	58651.48
649.78	58571.91
649.92	58518.07
650.07	58501.69
650.21	58312.11
650.36	58539.14
650.51	58454.88
650.65	58658.51
650.80	58574.25
650.94	58300.40
651.09	58089.76
651.23	58131.89
651.38	58075.71
651.52	58117.84
651.67	58176.36
651.81	58092.10
651.96	58056.99
652.10	58087.42
652.25	58075.71
652.39	58251.25
652.54	57848.68
652.68	57851.02
652.83	57977.41
652.97	57879.11
653.12	57822.93
653.26	58092.10
653.41	58195.08
653.55	58127.20
653.70	58012.52
653.84	58284.02
653.99	57935.28
654.13	58122.52
654.27	57808.89
654.42	57876.77
654.56	58033.58
654.71	57841.66
654.85	58005.50
655.00	58073.37
655.14	57925.92
655.29	57556.11
655.43	57764.42
655.57	57827.62
655.72	57888.47
655.86	57757.40
656.01	57528.03
656.15	57748.04
656.30	57684.84
656.44	57961.03
656.58	57925.92
656.73	57787.83
656.87	57616.97
657.01	57600.58
657.16	57616.97
657.30	57605.26
657.45	57513.98
657.59	57661.44
657.73	57394.62
657.88	57324.40
658.02	57389.94
658.16	57413.34
658.31	57432.07
658.45	57368.87
658.60	57076.30
658.74	57469.51
658.88	57478.88
659.03	57160.56
659.17	57055.24
659.31	57095.03
659.46	56959.28
659.60	57340.78
659.74	57083.33
659.89	56825.87
660.03	57123.11
660.17	57153.54
660.32	57055.24
660.46	56931.19
660.60	56884.38
660.74	56999.07
660.89	56886.72
661.03	56858.63
661.17	56711.18
661.32	56397.55
661.46	56596.49
661.60	56875.02
661.74	56671.39
661.89	56659.69
662.03	56353.08
662.17	56671.39
662.31	56509.89
662.46	56722.88
662.60	56437.34
662.74	56303.93
662.88	56229.03
663.03	56233.71
663.17	56264.14
663.31	56104.98
663.45	56348.40
663.60	56133.07
663.74	55861.57
663.88	55959.87
664.02	56044.13
664.17	55964.55
664.31	55882.63
664.45	55807.73
664.59	55772.63
664.73	55985.61
664.88	55866.25
665.02	55559.64
665.16	55690.71
665.30	55711.77
665.44	55772.63
665.59	55664.96
665.73	55419.20
665.87	55611.13
666.01	55433.25
666.15	55395.80
666.29	55442.61
666.44	55250.69
666.58	55262.39
666.72	55054.08
666.86	54965.14
667.00	55341.97
667.14	54887.90
667.28	54887.90
667.43	54885.56
667.57	55208.56
667.71	54822.37
667.85	54906.63
667.99	54892.58
668.13	54639.81
668.27	54852.80
668.41	54754.49
668.56	54719.38
668.70	54504.06
668.84	54585.97
668.98	54342.56
669.12	54504.06
669.26	54614.06
669.40	54485.33
669.54	54515.76
669.68	54405.75
669.82	53993.82
669.96	54106.16
670.10	54316.81
670.25	54578.95
670.39	54040.63
670.53	53902.54
670.67	54012.54
670.81	54445.54
670.95	54143.61
671.09	53977.43
671.23	53642.74
671.37	54045.31
671.51	53715.29
671.65	53663.80
671.79	53530.39
671.93	53757.42
672.07	53588.91
672.21	53160.59
672.35	53123.14
672.49	52921.85
672.63	52907.81
672.77	52905.47
672.91	53095.05
673.05	52809.51
673.19	52858.66
673.33	52814.19
673.47	52783.76
673.61	52809.51
673.75	52664.39
673.89	52336.72
674.03	52479.49
674.17	52390.55
674.31	52278.21
674.45	52341.40
674.59	51887.34
674.73	52477.15
674.87	52114.37
675.01	51852.23
675.15	51852.23
675.29	51728.18
675.43	51660.30
675.56	51412.21
675.70	51337.31
675.84	51334.97
675.98	50263.00
676.12	51356.03
676.26	51276.46
676.40	51126.66
676.54	50995.59
676.68	51086.87
676.82	50478.33
676.96	50761.54
677.10	50363.65
677.23	49853.41
677.37	50033.63
677.51	50300.45
677.65	49808.94
677.79	49546.80
677.93	49455.52
678.07	49778.51
678.21	49235.51
678.34	49546.80
678.48	48751.02
678.62	49123.16
678.76	48912.52
678.90	48711.23
679.04	48774.42
679.18	49095.08
679.31	48463.13
679.45	48189.29
679.59	48421.00
679.73	48339.08
679.87	48306.32
680.00	47412.23
680.14	47828.85
680.28	47363.08
680.42	47679.05
680.56	47234.35
680.70	46733.48
680.83	47327.97
680.97	46754.54
681.11	47374.78
681.25	47246.05
681.39	46944.12
681.52	46588.36
681.66	46735.82
681.80	45968.12
681.94	46190.47
682.07	46075.79
682.21	45635.77
682.35	45673.21
682.49	45588.95
682.62	45944.72
682.76	45631.08
682.90	45518.74
683.04	45102.12
683.17	44917.22
683.31	44961.69
683.45	45090.42
683.59	44699.55
683.72	44287.62
683.86	44673.81
684.00	44655.08
684.13	44023.14
684.27	44095.69
684.41	44013.77
684.55	44247.83
684.68	43805.47
684.82	43765.68
684.96	43412.26
685.09	43239.06
685.23	43426.30
685.37	42726.48
685.50	42827.12
685.64	42342.63
685.78	42883.30
685.91	42717.12
686.05	42497.11
686.19	41572.60
686.32	42052.41
686.46	40999.16
686.60	40832.99
686.73	41244.92
686.87	41195.77
687.01	41530.47
687.14	41551.53
687.28	41144.28
687.42	40760.43
687.55	40769.79
687.69	40898.52
687.82	40355.52
687.96	40112.10
688.10	39826.56
688.23	40121.46
688.37	39777.40
688.50	39674.42
688.64	39566.76
688.78	39438.03
688.91	38913.75
689.05	39449.73
689.18	38621.18
689.32	38099.24
689.46	38181.16
689.59	38190.52
689.73	38162.43
689.86	37851.14
690.00	37769.22
690.13	37610.07
690.27	37844.12
690.41	37546.87
690.54	37235.58
690.68	37076.43
690.81	36973.44
690.95	36900.89
691.08	36891.52
691.22	36699.60
691.35	36453.84
691.49	36723.01
691.62	36531.08
691.76	36325.11
691.89	35604.23
692.03	35452.09
692.16	35826.58
692.30	35440.39
692.43	35288.26
692.57	35040.16
692.70	35164.21
692.84	34913.77
692.97	34653.97
693.11	34717.17
693.24	34731.21
693.38	34684.40
693.51	33717.76
693.65	34256.08
693.78	33443.91
693.92	33563.28
694.05	33795.00
694.19	33500.09
694.32	32868.14
694.45	33326.89
694.59	32814.31
694.72	32954.74
694.86	32793.25
694.99	32606.00
695.13	32503.02
695.26	31967.04
695.39	32086.40
695.53	31817.24
695.66	31754.05
695.80	31501.27
695.93	31239.13
696.07	30710.17
696.20	30939.54
696.33	30890.39
696.47	30855.28
696.60	30932.52
696.73	30644.63
696.87	30630.59
697.00	30754.64
697.14	29820.77
697.27	30188.23
697.40	30272.49
697.54	30099.29
697.67	29685.01
697.80	29710.76
697.94	29441.60
698.07	29364.36
698.21	29036.69
698.34	28826.04
698.47	28966.47
698.61	28503.04
698.74	28484.32
698.87	28933.70
699.01	28308.78
699.14	28210.48
699.27	28063.02
699.40	28533.47
699.54	27835.99
699.67	28107.49
699.80	27868.76
699.94	27606.62
700.07	27498.95
700.20	27370.22
700.34	27328.10
700.47	27075.32
700.60	26682.11
700.73	26469.12
700.87	26080.59
701.00	26396.56
701.13	26101.65
701.26	25968.24
701.40	26190.59
701.53	25975.27
701.66	26270.17
701.79	25369.07
701.93	25270.76
702.06	25013.31
702.19	25294.17
702.32	25301.19
702.46	24751.17
702.59	24697.33
702.72	24676.27
702.85	24999.26
702.99	24788.61
703.12	24460.94
703.25	24067.73
703.38	23859.42
703.51	23810.27
703.65	23573.88
703.78	23733.03
703.91	23690.90
704.04	23608.98
704.17	23335.14
704.31	23419.40
704.44	23173.64
704.57	22993.42
704.70	22574.47
704.83	22888.10
704.96	22717.24
705.10	22221.05
705.23	22209.34
>>>>>End Processed Spectral Data<<<<<
