SpectraSuite Data File
++++++++++++++++++++++++++++++++++++
Date: Fri Oct 25 11:23:21 EDT 2013
User: price-jones
Dark Spectrum Present: No
Reference Spectrum Present: No
Number of Sampled Component Spectra: 1
Spectrometers: USB2+H05261
Integration Time (usec): 100000 (USB2+H05261)
Spectra Averaged: 1 (USB2+H05261)
Boxcar Smoothing: 0 (USB2+H05261)
Correct for Electrical Dark: No (USB2+H05261)
Strobe/Lamp Enabled: No (USB2+H05261)
Correct for Detector Non-linearity: No (USB2+H05261)
Correct for Stray Light: No (USB2+H05261)
Number of Pixels in Processed Spectrum: 2048
>>>>>Begin Processed Spectral Data<<<<<
365.73	250.44
365.92	250.44
366.12	250.44
366.32	102.98
366.52	126.39
366.72	91.28
366.91	131.07
367.11	152.13
367.31	79.58
367.51	117.03
367.70	77.24
367.90	128.73
368.10	154.48
368.30	170.86
368.49	149.79
368.69	196.60
368.89	124.05
369.09	131.07
369.28	182.56
369.48	140.43
369.68	196.60
369.87	138.09
370.07	166.18
370.27	252.78
370.47	322.99
370.66	571.09
370.86	594.50
371.06	582.79
371.25	678.76
371.45	645.99
371.65	655.35
371.84	734.93
372.04	678.76
372.24	697.48
372.44	702.16
372.63	732.59
372.83	744.29
373.03	777.06
373.22	711.52
373.42	791.10
373.62	781.74
373.81	744.29
374.01	779.40
374.21	758.33
374.40	868.34
374.60	830.89
374.79	816.85
374.99	758.33
375.19	880.04
375.38	840.25
375.58	784.08
375.78	919.83
375.97	851.96
376.17	830.89
376.37	800.46
376.56	807.48
376.76	917.49
376.95	877.70
377.15	767.70
377.35	870.68
377.54	922.17
377.74	849.61
377.93	947.92
378.13	922.17
378.33	929.19
378.52	891.74
378.72	858.98
378.91	908.13
379.11	931.53
379.31	971.32
379.50	926.85
379.70	936.21
379.89	999.41
380.09	926.85
380.28	971.32
380.48	926.85
380.68	987.71
380.87	912.81
381.07	1022.81
381.26	1069.62
381.46	929.19
381.65	1018.13
381.85	1011.11
382.04	1048.56
382.24	1060.26
382.43	1156.22
382.63	1013.45
382.83	1090.69
383.02	1151.54
383.22	1151.54
383.41	1111.75
383.61	1090.69
383.80	1174.95
384.00	1081.33
384.19	1034.52
384.39	1083.67
384.58	1142.18
384.78	1196.01
384.97	1139.84
385.17	1158.57
385.36	1111.75
385.56	1163.25
385.75	1170.27
385.95	1263.89
386.14	1156.22
386.34	1170.27
386.53	1235.80
386.72	1207.72
386.92	1277.93
387.11	1249.85
387.31	1214.74
387.50	1233.46
387.70	1235.80
387.89	1231.12
388.09	1373.89
388.28	1320.06
388.48	1401.98
388.67	1385.60
388.86	1233.46
389.06	1345.81
389.25	1406.66
389.45	1238.14
389.64	1345.81
389.84	1376.24
390.03	1343.47
390.22	1409.00
390.42	1401.98
390.61	1380.92
390.81	1380.92
391.00	1432.41
391.19	1451.13
391.39	1345.81
391.58	1434.75
391.78	1397.30
391.97	1542.41
392.16	1451.13
392.36	1540.07
392.55	1462.83
392.75	1481.56
392.94	1542.41
393.13	1650.08
393.33	1582.20
393.52	1488.58
393.71	1568.16
393.91	1619.65
394.10	1514.33
394.29	1624.33
394.49	1507.30
394.68	1666.46
394.88	1647.74
395.07	1710.93
395.26	1689.87
395.46	1710.93
395.65	1703.91
395.84	1682.85
396.04	1720.29
396.23	1678.16
396.42	1795.19
396.62	1802.21
396.81	1706.25
397.00	1886.47
397.19	1813.92
397.39	1820.94
397.58	1858.39
397.77	1886.47
397.97	1806.89
398.16	1900.52
398.35	1900.52
398.55	1923.92
398.74	1966.05
398.93	1874.77
399.12	1947.33
399.32	1888.81
399.51	1909.88
399.70	2069.03
399.90	1996.48
400.09	2101.80
400.28	2066.69
400.47	2052.65
400.67	2073.71
400.86	2150.95
401.05	2139.25
401.24	2078.40
401.44	2146.27
401.63	2209.47
401.82	2125.21
402.01	2069.03
402.21	2174.36
402.40	2249.25
402.59	2172.02
402.78	2303.09
402.97	2235.21
403.17	2279.68
403.36	2188.40
403.55	2370.96
403.74	2366.28
403.93	2331.17
404.13	2450.54
404.32	2366.28
404.51	2370.96
404.70	2380.32
404.89	2296.07
405.09	2642.46
405.28	2450.54
405.47	2527.78
405.66	2541.82
405.85	2581.61
406.05	2490.33
406.24	2492.67
406.43	2614.38
406.62	2623.74
406.81	2726.72
407.00	2537.14
407.20	2544.16
407.39	2796.94
407.58	2803.96
407.77	2686.94
407.96	2726.72
408.15	2899.92
408.34	2740.77
408.54	2832.05
408.73	2750.13
408.92	2867.16
409.11	2745.45
409.30	2899.92
409.49	2974.82
409.68	2920.99
409.87	2930.35
410.07	2953.76
410.26	3009.93
410.45	3035.67
410.64	3009.93
410.83	3047.38
411.02	3248.66
411.21	3290.79
411.40	3103.55
411.59	3337.60
411.78	3192.49
411.98	3323.56
412.17	3311.86
412.36	3337.60
412.55	3353.99
412.74	3377.39
412.93	3318.88
413.12	3328.24
413.31	3557.61
413.50	3487.40
413.69	3433.57
413.88	3648.90
414.07	3592.72
414.26	3482.72
414.45	3625.49
414.64	3770.60
414.83	3749.54
415.02	3782.31
415.22	3716.77
415.41	3817.41
415.60	3833.80
415.79	4102.96
415.98	4032.74
416.17	4009.34
416.36	3934.44
416.55	4065.51
416.74	4161.47
416.93	4032.74
417.12	4065.51
417.31	4320.63
417.50	4046.79
417.69	4238.71
417.88	4344.03
418.07	4355.74
418.26	4292.54
418.45	4311.27
418.64	4524.26
418.83	4369.78
419.02	4451.70
419.21	4594.47
419.39	4418.93
419.58	4454.04
419.77	4517.23
419.96	4571.07
420.15	4720.86
420.34	4690.43
420.53	4685.75
420.72	4564.04
420.91	4746.61
421.10	4844.91
421.29	4898.74
421.48	4758.31
421.67	4758.31
421.86	4777.03
422.05	4671.71
422.24	4842.57
422.43	4880.02
422.61	5011.09
422.80	4978.32
422.99	4849.59
423.18	5071.94
423.37	5001.72
423.56	4966.62
423.75	4938.53
423.94	4849.59
424.13	4657.67
424.32	4755.97
424.50	5078.96
424.69	4966.62
424.88	5032.15
425.07	4901.08
425.26	5142.16
425.45	5015.77
425.64	5022.79
425.83	5036.83
426.01	4980.66
426.20	5188.97
426.39	5142.16
426.58	5060.24
426.77	5022.79
426.96	5226.42
427.15	5146.84
427.33	5245.14
427.52	5256.84
427.71	5289.61
427.90	5355.15
428.09	5200.67
428.28	5238.12
428.46	5378.55
428.65	5341.10
428.84	5572.82
429.03	5624.31
429.22	5331.74
429.40	5378.55
429.59	5460.47
429.78	5284.93
429.97	5238.12
430.16	5493.24
430.34	5741.33
430.53	5678.14
430.72	5727.29
430.91	5610.26
431.10	5708.57
431.28	5673.46
431.47	5746.02
431.66	5884.11
431.85	5863.04
432.03	6003.47
432.22	5994.11
432.41	6101.78
432.60	5947.30
432.79	5937.94
432.97	6040.92
433.16	6167.31
433.35	5984.75
433.54	6174.33
433.72	6003.47
433.91	6125.18
434.10	6179.01
434.28	6040.92
434.47	6260.93
434.66	6387.32
434.85	6359.24
435.03	6375.62
435.22	6300.72
435.41	6492.65
435.59	6406.05
435.78	6480.94
435.97	6445.84
436.16	6448.18
436.34	6499.67
436.53	6574.56
436.72	6649.46
436.90	6520.73
437.09	6679.89
437.28	6551.16
437.46	6642.44
437.65	6759.47
437.84	6745.42
438.02	6766.49
438.21	6836.70
438.40	6752.45
438.58	7026.29
438.77	7215.87
438.96	7040.33
439.14	7077.78
439.33	7250.98
439.52	7316.51
439.70	7330.56
439.89	7187.79
440.08	7353.96
440.26	7506.10
440.45	7478.01
440.63	7630.15
440.82	7655.89
441.01	7445.24
441.19	7737.81
441.38	7768.24
441.57	7826.75
441.75	7988.25
441.94	8138.04
442.12	8126.34
442.31	8156.77
442.50	8112.30
442.68	7995.27
442.87	8013.99
443.05	8126.34
443.24	8283.16
443.43	8154.43
443.61	8285.50
443.80	8571.04
443.98	8262.09
444.17	7880.58
444.35	8231.66
444.54	8489.12
444.73	8351.03
444.91	8229.32
445.10	8393.16
445.28	8489.12
445.47	8318.26
445.65	8278.47
445.84	8498.49
446.02	8538.27
446.21	8519.55
446.39	8561.68
446.58	8507.85
446.77	8503.17
446.95	8334.65
447.14	8468.06
447.32	8739.56
447.51	8348.69
447.69	8610.83
447.88	8477.42
448.06	8589.77
448.25	8592.11
448.43	8711.47
448.62	8638.92
448.80	8704.45
448.99	8767.65
449.17	8730.20
449.36	8648.28
449.54	8875.31
449.73	9078.94
449.91	9020.42
450.10	8863.61
450.28	9254.48
450.46	9081.28
450.65	9174.90
450.83	9397.25
451.02	9020.42
451.20	9137.45
451.39	9128.09
451.57	9249.80
451.76	9242.78
451.94	9233.41
452.13	9439.38
452.31	9380.87
452.49	9188.94
452.68	9537.68
452.86	9315.33
453.05	9380.87
453.23	9504.92
453.42	9528.32
453.60	9343.42
453.78	9486.19
453.97	9472.15
454.15	9757.69
454.34	9530.66
454.52	9851.31
454.70	9720.24
454.89	9891.10
455.07	9764.72
455.26	9832.59
455.44	10050.26
455.62	9912.17
455.81	9933.23
455.99	9975.36
456.17	10061.96
456.36	10164.95
456.54	10286.65
456.73	10366.23
456.91	10427.09
457.09	10576.88
457.28	10686.89
457.46	10279.63
457.64	10647.10
457.83	10771.15
458.01	10375.59
458.19	10864.77
458.38	10633.05
458.56	10853.06
458.74	10827.32
458.93	10644.76
459.11	10824.98
459.29	10801.57
459.48	10902.22
459.66	10970.09
459.84	11023.92
460.03	10991.16
460.21	10944.34
460.39	11162.01
460.57	11241.59
460.76	11295.43
460.94	11283.72
461.12	11119.89
461.31	11176.06
461.49	11295.43
461.67	11229.89
461.85	11667.57
462.04	11639.48
462.22	11492.03
462.40	11501.39
462.59	11501.39
462.77	11632.46
462.95	11796.30
463.13	11763.53
463.32	11749.49
463.50	11847.79
463.68	11990.56
463.86	12109.93
464.05	11683.95
464.23	11758.85
464.41	12093.55
464.59	11908.65
464.78	12231.64
464.96	12006.95
465.14	12238.66
465.32	12084.19
465.50	12023.33
465.69	12376.75
465.87	12271.43
466.05	12140.36
466.23	12046.74
466.41	12236.32
466.60	12725.49
466.78	12395.48
466.96	12456.33
467.14	12365.05
467.32	12395.48
467.51	12505.48
467.69	12231.64
467.87	12755.92
468.05	12739.54
468.23	12601.44
468.41	12463.35
468.60	12830.82
468.78	12819.11
468.96	12568.68
469.14	12971.25
469.32	13338.71
469.50	12938.48
469.69	13228.71
469.87	13371.48
470.05	13158.49
470.23	13378.50
470.41	13282.54
470.59	13439.36
470.77	13343.39
470.95	13392.55
471.14	13848.95
471.32	13287.22
471.50	13624.26
471.68	13554.04
471.86	13675.75
472.04	13657.03
472.22	14146.20
472.40	13624.26
472.58	13970.66
472.77	13898.10
472.95	14129.81
473.13	14890.49
473.31	14207.05
473.49	14209.39
473.67	14223.44
473.85	14300.67
474.03	14684.52
474.21	14682.18
474.39	14834.32
474.57	14757.08
474.75	15218.16
474.93	15028.58
475.12	15030.92
475.30	15276.68
475.48	15108.16
475.66	15295.40
475.84	15014.54
476.02	15370.30
476.20	15466.26
476.38	15875.85
476.56	16086.50
476.74	16198.85
476.92	16224.59
477.10	16018.63
477.28	16222.25
477.46	16294.81
477.64	16538.23
477.82	16805.05
478.00	16966.54
478.18	16812.07
478.36	17275.49
478.54	17240.39
478.72	17153.79
478.90	17874.67
479.08	17528.27
479.26	17664.02
479.44	17914.46
479.62	18115.75
479.80	18190.64
479.98	18218.73
480.16	18874.08
480.34	18368.52
480.52	18803.86
480.70	19192.39
480.88	18583.85
481.06	19007.49
481.24	19115.16
481.41	19201.76
481.59	19623.05
481.77	19838.38
481.95	19569.22
482.13	20294.79
482.31	19733.06
482.49	20339.26
482.67	20453.94
482.85	20697.36
483.03	20315.85
483.21	20755.87
483.39	21207.59
483.57	20910.35
483.74	21123.33
483.92	21694.43
484.10	21310.58
484.28	21827.84
484.46	22097.00
484.64	22560.42
484.82	22108.70
485.00	22731.28
485.18	22895.12
485.35	23000.44
485.53	23157.26
485.71	23164.28
485.89	23950.70
486.07	23344.50
486.25	23606.64
486.43	23892.19
486.61	24013.90
486.78	24166.03
486.96	24350.93
487.14	24725.42
487.32	24620.10
487.50	24821.38
487.68	24769.89
487.85	25614.82
488.03	25553.97
488.21	25912.07
488.39	25961.22
488.57	25909.73
488.75	26656.36
488.92	26862.33
489.10	26752.32
489.28	27119.79
489.46	27339.80
489.64	27501.29
489.81	27967.06
489.99	27667.47
490.17	27929.61
490.35	28535.81
490.53	28795.61
490.70	28793.27
490.88	28692.63
491.06	29167.76
491.24	29301.17
491.41	29408.83
491.59	29507.13
491.77	29420.53
491.95	29694.38
492.13	30204.61
492.30	30506.54
492.48	29944.81
492.66	30485.48
492.84	30426.96
493.01	30962.95
493.19	30995.71
493.37	31318.71
493.54	31676.81
493.72	31697.88
493.90	31625.32
494.08	31917.89
494.25	32369.61
494.43	31873.42
494.61	32505.36
494.79	32662.18
494.96	32790.91
495.14	33219.22
495.32	33186.46
495.49	33394.76
495.67	33659.24
495.85	33951.81
496.02	34136.71
496.20	34066.50
496.38	34071.18
496.55	34314.59
496.73	35110.38
496.91	35051.86
497.09	35019.10
497.26	35079.95
497.44	35138.46
497.62	35625.29
497.79	35821.90
497.97	35768.07
498.14	36233.83
498.32	36388.31
498.50	36582.57
498.67	36917.27
498.85	36669.17
499.03	37081.11
499.20	36898.55
499.38	37254.31
499.56	37212.18
499.73	37546.87
499.91	37872.21
500.08	37776.25
500.26	37366.65
500.44	37661.56
500.61	38120.31
500.79	38424.57
500.97	38969.92
501.14	39262.49
501.32	38656.29
501.49	38773.31
501.67	39175.89
501.84	39285.89
502.02	39313.98
502.20	39449.73
502.37	39555.05
502.55	39725.91
502.72	40135.51
502.90	39885.07
503.07	39868.69
503.25	40233.81
503.43	40411.69
503.60	40509.99
503.78	40575.53
503.95	40477.22
504.13	40800.22
504.30	41090.44
504.48	40697.24
504.65	41130.23
504.83	41537.49
505.01	41441.53
505.18	41315.14
505.36	41968.15
505.53	41471.95
505.71	41970.49
505.88	41989.21
506.06	41785.58
506.23	41956.44
506.41	42307.52
506.58	42258.37
506.76	42602.43
506.93	43063.52
507.11	42625.84
507.28	42548.60
507.46	42607.11
507.63	43044.79
507.81	43620.56
507.98	43014.37
508.16	43545.67
508.33	43693.12
508.50	43398.21
508.68	43779.72
508.85	44037.18
509.03	44233.78
509.20	44481.88
509.38	44542.74
509.55	44697.21
509.73	44741.68
509.90	44910.20
510.08	44690.19
510.25	44790.83
510.42	44968.71
510.60	45134.89
510.77	45605.34
510.95	45619.38
511.12	45324.47
511.30	45322.13
511.47	45518.74
511.64	46003.23
511.82	46511.13
511.99	46129.62
512.17	46349.63
512.34	46410.48
512.51	46328.56
512.69	46607.09
512.86	46628.15
513.04	47047.11
513.21	47112.64
513.38	47243.71
513.56	47248.39
513.73	47082.22
513.90	47152.43
514.08	46960.51
514.25	47442.66
514.43	47688.42
514.60	47868.64
514.77	47819.49
514.95	48226.74
515.12	47842.89
515.29	47927.15
515.47	47997.37
515.64	48292.27
515.81	48252.48
515.99	48615.27
516.16	48928.90
516.33	48465.47
516.51	49066.99
516.68	48577.82
516.85	48858.68
517.03	48856.34
517.20	49329.13
517.37	49151.25
517.54	49172.31
517.72	49219.13
517.89	49127.84
518.06	49443.82
518.24	49272.96
518.41	49382.96
518.58	49963.42
518.75	49539.78
518.93	49778.51
519.10	49504.67
519.27	50181.09
519.45	50253.64
519.62	50155.34
519.79	50335.56
519.96	50277.05
520.14	50595.36
520.31	50443.23
520.48	50618.77
520.65	50637.49
520.83	50843.46
521.00	51187.52
521.17	51026.02
521.34	51065.81
521.52	51367.74
521.69	51356.03
521.86	51227.31
522.03	51306.88
522.20	51515.19
522.38	51669.67
522.55	51597.11
522.72	51552.64
522.89	51770.31
523.07	52076.92
523.24	51887.34
523.41	51746.90
523.58	51557.32
523.75	52210.33
523.92	52163.52
524.10	52217.35
524.27	52542.69
524.44	52374.17
524.61	52474.81
524.78	52556.73
524.96	52165.86
525.13	52708.86
525.30	52788.44
525.47	52509.92
525.64	52790.78
525.81	52830.57
525.98	52732.27
526.16	52837.59
526.33	52928.87
526.50	53455.50
526.67	53029.52
526.84	53073.99
527.01	53141.86
527.18	53261.23
527.36	53148.88
527.53	53434.43
527.70	53734.02
527.87	53616.99
528.04	53495.28
528.21	53879.13
528.38	53701.25
528.55	53666.14
528.72	53736.36
528.89	53586.57
529.07	53631.04
529.24	53773.81
529.41	54082.76
529.58	53895.52
529.75	53928.28
529.92	54124.89
530.09	54099.14
530.26	54003.18
530.43	54464.27
530.60	54087.44
530.77	54167.02
530.94	54330.86
531.11	54134.25
531.28	54562.57
531.46	54178.72
531.63	54508.74
531.80	54389.37
531.97	54660.87
532.14	54796.62
532.31	54691.30
532.48	54665.55
532.65	54817.69
532.82	54777.90
532.99	54904.29
533.16	55238.98
533.33	55180.47
533.50	55025.99
533.67	54960.46
533.84	54894.92
534.01	55037.70
534.18	54946.42
534.35	55798.37
534.52	55416.86
534.69	55473.04
534.86	55444.95
535.03	55285.79
535.20	55458.99
535.37	55622.83
535.54	55594.74
535.71	55379.42
535.88	55758.58
536.05	55805.39
536.22	55894.33
536.38	55798.37
536.55	55716.45
536.72	55973.91
536.89	55920.08
537.06	56023.06
537.23	55973.91
537.40	55838.16
537.57	55882.63
537.74	56144.77
537.91	56205.62
538.08	56018.38
538.25	55922.42
538.42	56250.09
538.59	56477.13
538.75	55952.85
538.92	56229.03
539.09	56530.96
539.26	56406.91
539.43	56437.34
539.60	56292.22
539.77	56392.87
539.94	56844.59
540.11	56772.03
540.28	56547.34
540.44	56643.30
540.61	56357.76
540.78	56470.11
540.95	56608.20
541.12	56594.15
541.29	56655.01
541.46	56860.97
541.62	56750.97
541.79	56779.06
541.96	56355.42
542.13	56919.49
542.30	56769.69
542.47	57038.86
542.63	57073.96
542.80	57181.63
542.97	57270.57
543.14	57284.61
543.31	57668.46
543.48	57511.64
543.64	57619.31
543.81	57516.32
543.98	57563.14
544.15	57492.92
544.32	57694.21
544.48	57804.21
544.65	57530.37
544.82	57392.28
544.99	57511.64
545.16	57874.43
545.32	57525.69
545.49	57993.79
545.66	58124.86
545.83	57895.49
546.00	57932.94
546.16	58014.86
546.33	58003.16
546.50	57654.42
546.67	58141.25
546.83	57755.06
547.00	57923.58
547.17	57991.45
547.34	57932.94
547.50	58113.16
547.67	58466.58
547.84	58199.76
548.00	58417.43
548.17	58426.79
548.34	58279.34
548.51	58560.20
548.67	58494.67
548.84	58574.25
549.01	58218.49
549.18	58384.66
549.34	58501.69
549.51	58398.71
549.68	58625.74
549.84	58501.69
550.01	58471.26
550.18	58398.71
550.34	58616.38
550.51	58581.27
550.68	58705.32
550.84	58452.54
551.01	58852.77
551.18	58749.79
551.34	58693.61
551.51	58726.38
551.68	58728.72
551.84	58754.47
552.01	58677.23
552.18	59007.25
552.34	58646.80
552.51	59112.57
552.68	58873.84
552.84	58878.52
553.01	59105.55
553.18	58953.41
553.34	59271.73
553.51	59011.93
553.67	58892.56
553.84	59110.23
554.01	58946.39
554.17	59227.26
554.34	59332.58
554.51	59337.26
554.67	59196.83
554.84	59044.69
555.00	59009.59
555.17	59236.62
555.33	59112.57
555.50	59250.66
555.67	59168.74
555.83	59164.06
556.00	59384.07
556.16	59702.38
556.33	59587.70
556.50	59480.03
556.66	59482.37
556.83	59386.41
556.99	59498.76
557.16	59697.70
557.32	59664.94
557.49	59817.07
557.65	59545.57
557.82	59540.89
557.98	59648.55
558.15	59730.47
558.32	59657.91
558.48	59620.47
558.65	59613.44
558.81	59583.02
558.98	59594.72
559.14	59711.75
559.31	59744.51
559.47	59629.83
559.64	59955.16
559.80	59744.51
559.97	59788.98
560.13	59739.83
560.30	59803.03
560.46	59999.63
560.63	60065.17
560.79	60041.76
560.96	60060.49
561.12	60065.17
561.29	60093.25
561.45	59999.63
561.61	60058.15
561.78	60058.15
561.94	59894.31
562.11	59882.61
562.27	60023.04
562.44	60121.34
562.60	60214.96
562.77	60221.98
562.93	59840.48
563.10	60217.30
563.26	60259.43
563.42	60348.37
563.59	60334.33
563.75	60212.62
563.92	60151.77
564.08	60067.51
564.24	60388.16
564.41	60615.19
564.57	60528.59
564.74	60285.18
564.90	60346.03
565.07	60313.26
565.23	60324.97
565.39	60381.14
565.56	60317.95
565.72	60268.79
565.88	60271.14
566.05	60273.48
566.21	60343.69
566.38	60423.27
566.54	60432.63
566.70	60685.41
566.87	60795.42
567.03	60252.41
567.19	60729.88
567.36	60432.63
567.52	60530.93
567.68	60741.58
567.85	60659.66
568.01	60521.57
568.17	60406.89
568.34	60690.09
568.50	60509.87
568.66	60376.46
568.83	60509.87
568.99	60516.89
569.15	60514.55
569.32	60633.92
569.48	60392.84
569.64	60566.04
569.81	60552.00
569.97	60645.62
570.13	60617.53
570.30	60537.96
570.46	60816.48
570.62	60839.89
570.78	60708.82
570.95	60542.64
571.11	60734.56
571.27	60556.68
571.43	60563.70
571.60	60947.55
571.76	60732.22
571.92	60732.22
572.09	60945.21
572.25	60786.05
572.41	60793.07
572.57	60837.54
572.74	61015.43
572.90	60835.20
573.06	60807.12
573.22	60872.65
573.38	60886.70
573.55	60889.04
573.71	61050.53
573.87	60795.42
574.03	60837.54
574.20	60788.39
574.36	60891.38
574.52	60884.36
574.68	60800.10
574.84	61130.11
575.01	60933.51
575.17	60910.10
575.33	60781.37
575.49	60814.14
575.65	60872.65
575.82	61031.81
575.98	60947.55
576.14	61078.62
576.30	60931.17
576.46	60711.16
576.62	60832.86
576.79	61062.24
576.95	60781.37
577.11	61015.43
577.27	60935.85
577.43	61029.47
577.59	60823.50
577.75	60874.99
577.92	60874.99
578.08	60844.57
578.24	60989.68
578.40	61102.03
578.56	61268.20
578.72	61055.21
578.88	61212.03
579.04	61219.05
579.21	61102.03
579.37	61235.44
579.53	61020.11
579.69	60865.63
579.85	61036.49
580.01	60900.74
580.17	60959.25
580.33	61193.31
580.49	60891.38
580.65	61024.79
580.82	61092.66
580.98	61036.49
581.14	60931.17
581.30	61078.62
581.46	61151.18
581.62	61132.45
581.78	61038.83
581.94	61205.01
582.10	61090.32
582.26	61111.39
582.42	61127.77
582.58	61460.13
582.74	61300.97
582.90	61134.79
583.06	61347.78
583.22	60982.66
583.38	61244.80
583.54	61235.44
583.70	61097.34
583.86	61361.82
584.02	61111.39
584.18	61268.20
584.34	61090.32
584.50	61343.10
584.66	61066.92
584.82	60846.91
584.98	61382.89
585.14	61219.05
585.30	61130.11
585.46	61249.48
585.62	61020.11
585.78	61322.04
585.94	60999.04
586.10	61165.22
586.26	61221.39
586.42	61439.06
586.58	61300.97
586.74	61200.33
586.90	61144.16
587.06	61069.26
587.22	61333.74
587.38	61190.97
587.54	61354.80
587.70	61436.72
587.86	61120.75
588.02	61256.50
588.18	61347.78
588.34	61130.11
588.49	61251.82
588.65	61183.94
588.81	61205.01
588.97	61261.18
589.13	61432.04
589.29	61317.35
589.45	61502.26
589.61	61214.37
589.77	61630.99
589.93	61415.66
590.08	61483.53
590.24	61818.23
590.40	61654.39
590.56	61593.54
590.72	61598.22
590.88	61368.85
591.04	61460.13
591.20	61841.63
591.35	61677.80
591.51	61708.22
591.67	61740.99
591.83	61813.55
591.99	61455.45
592.15	61530.34
592.31	61638.01
592.46	61558.43
592.62	61523.32
592.78	61607.58
592.94	61722.27
593.10	61729.29
593.26	61659.07
593.41	61499.92
593.57	61570.13
593.73	61570.13
593.89	61836.95
594.05	61785.46
594.20	61485.87
594.36	61694.18
594.52	61670.78
594.68	61572.47
594.84	61691.84
594.99	61752.69
595.15	61588.86
595.31	61652.05
595.47	61652.05
595.62	61591.20
595.78	61474.17
595.94	61787.80
596.10	61881.42
596.25	61851.00
596.41	61822.91
596.57	61855.68
596.73	61928.23
596.88	61640.35
597.04	61769.08
597.20	61883.76
597.36	61778.44
597.51	61953.98
597.67	61670.78
597.83	61645.03
597.99	61883.76
598.14	62033.56
598.30	61909.51
598.46	61865.04
598.61	61953.98
598.77	61745.67
598.93	61602.90
599.09	61923.55
599.24	61855.68
599.40	61900.15
599.56	61937.60
599.71	61923.55
599.87	61961.00
600.03	61841.63
600.18	61811.21
600.34	61635.67
600.50	61755.03
600.65	61811.21
600.81	61865.04
600.97	61897.81
601.12	61726.95
601.28	61998.45
601.44	61736.31
601.59	61979.73
601.75	61860.36
601.91	62120.16
602.06	61986.75
602.22	62197.40
602.37	61832.27
602.53	61975.05
602.69	61921.21
602.84	61946.96
603.00	61968.02
603.16	61984.41
603.31	61961.00
603.47	61949.30
603.62	61923.55
603.78	61946.96
603.94	61806.53
604.09	61930.58
604.25	61825.25
604.40	61993.77
604.56	61867.38
604.71	62190.37
604.87	62049.94
605.03	61792.48
605.18	61869.72
605.34	62007.81
605.49	61729.29
605.65	62087.39
605.80	62012.49
605.96	62092.07
606.12	61958.66
606.27	61991.43
606.43	61815.89
606.58	62071.01
606.74	61729.29
606.89	61883.76
607.05	61989.09
607.20	61792.48
607.36	61762.06
607.51	61848.66
607.67	61638.01
607.82	61717.59
607.98	61914.19
608.13	61914.19
608.29	61996.11
608.44	61886.10
608.60	61745.67
608.75	61996.11
608.91	61764.40
609.06	61626.31
609.22	61827.59
609.37	61797.16
609.53	61834.61
609.68	61806.53
609.84	61626.31
609.99	61804.19
610.15	61659.07
610.30	61986.75
610.46	61825.25
610.61	61820.57
610.76	61804.19
610.92	61722.27
611.07	61602.90
611.23	61621.62
611.38	61766.74
611.54	61893.13
611.69	61799.50
611.84	62047.60
612.00	61740.99
612.15	61717.59
612.31	61806.53
612.46	61574.81
612.62	61705.88
612.77	61726.95
612.92	61563.11
613.08	61673.12
613.23	61684.82
613.39	61745.67
613.54	61450.77
613.69	61736.31
613.85	61677.80
614.00	61579.49
614.15	61811.21
614.31	61563.11
614.46	61710.56
614.62	61577.15
614.77	61591.20
614.92	61607.58
615.08	61609.92
615.23	61509.28
615.38	61492.89
615.54	61696.52
615.69	61488.21
615.84	61474.17
616.00	61502.26
616.15	61490.55
616.30	61532.68
616.46	61422.68
616.61	61441.40
616.76	61556.09
616.92	61361.82
617.07	61352.46
617.22	61420.34
617.37	61296.29
617.53	61675.46
617.68	61588.86
617.83	61408.64
617.99	61453.11
618.14	61511.62
618.29	61197.99
618.45	61312.67
618.60	61310.33
618.75	61202.67
618.90	61277.57
619.06	61478.85
619.21	61345.44
619.36	61689.50
619.51	61483.53
619.67	61249.48
619.82	61265.86
619.97	61506.94
620.12	61172.24
620.28	61169.90
620.43	61305.65
620.58	61146.50
620.73	61132.45
620.89	61268.20
621.04	61324.38
621.19	61132.45
621.34	61127.77
621.49	61113.73
621.65	61151.18
621.80	61169.90
621.95	60931.17
622.10	61003.72
622.25	60954.57
622.41	60800.10
622.56	61041.17
622.71	60832.86
622.86	60846.91
623.01	60872.65
623.16	60772.01
623.32	60961.59
623.47	61251.82
623.62	60919.46
623.77	61006.06
623.92	61109.05
624.07	61015.43
624.23	61106.71
624.38	61034.15
624.53	60830.52
624.68	60697.11
624.83	61043.51
624.98	60926.49
625.13	60657.32
625.29	60858.61
625.44	60975.64
625.59	60673.71
625.74	60849.25
625.89	60647.96
626.04	60449.02
626.19	60516.89
626.34	60715.84
626.49	60683.07
626.65	60439.65
626.80	60636.26
626.95	60577.75
627.10	60472.42
627.25	60509.87
627.40	60601.15
627.55	60509.87
627.70	60580.09
627.85	60507.53
628.00	60500.51
628.15	60535.62
628.30	60608.17
628.45	60519.23
628.60	60369.44
628.76	60470.08
628.91	60582.43
629.06	60456.04
629.21	60537.96
629.36	60441.99
629.51	60416.25
629.66	60388.16
629.81	60399.86
629.96	59941.12
630.11	60336.67
630.26	60140.07
630.41	60474.76
630.56	60266.45
630.71	60376.46
630.86	60214.96
631.01	60161.13
631.16	60371.78
631.31	60214.96
631.46	60011.34
631.61	60465.40
631.76	60357.74
631.91	60331.99
632.06	60247.73
632.21	60196.24
632.36	59980.91
632.51	60046.44
632.66	60186.88
632.81	59938.78
632.96	60048.78
633.10	59936.44
633.25	60097.94
633.40	60280.50
633.55	60034.74
633.70	59812.39
633.85	59920.05
634.00	59868.56
634.15	59894.31
634.30	59824.09
634.45	59934.10
634.60	60100.28
634.75	60034.74
634.90	59863.88
635.05	59714.09
635.19	59803.03
635.34	59725.79
635.49	59971.55
635.64	59987.93
635.79	59821.75
635.94	59983.25
636.09	59994.95
636.24	59489.40
636.39	59688.34
636.53	59796.01
636.68	59611.10
636.83	59674.30
636.98	59915.37
637.13	59646.21
637.28	59606.42
637.43	59664.94
637.57	59587.70
637.72	59545.57
637.87	59512.80
638.02	59788.98
638.17	59634.51
638.32	59618.13
638.46	59580.68
638.61	59545.57
638.76	59393.43
638.91	59475.35
639.06	59325.56
639.20	59194.49
639.35	59325.56
639.50	59344.28
639.65	59325.56
639.80	59374.71
639.94	59299.81
640.09	59426.20
640.24	59496.42
640.39	59278.75
640.54	59391.09
640.68	59334.92
640.83	59571.32
640.98	59208.53
641.13	59164.06
641.27	59461.31
641.42	59168.74
641.57	59185.13
641.72	59227.26
641.86	59117.25
642.01	59000.22
642.16	59248.32
642.31	59119.59
642.45	59339.60
642.60	59009.59
642.75	59143.00
642.90	59114.91
643.04	59023.63
643.19	58848.09
643.34	59042.35
643.48	59222.58
643.63	59058.74
643.78	58922.99
643.93	58939.37
644.07	59032.99
644.22	58824.68
644.37	58768.51
644.51	58880.86
644.66	58934.69
644.81	58850.43
644.95	58878.52
645.10	59047.04
645.25	58780.21
645.39	58665.53
645.54	58726.38
645.69	58745.11
645.83	58632.76
645.98	58871.49
646.13	58827.02
646.27	58824.68
646.42	58653.82
646.57	58553.18
646.71	58679.57
646.86	58791.92
647.00	58955.75
647.15	58553.18
647.30	58719.36
647.44	58712.34
647.59	58735.74
647.74	58585.95
647.88	58628.08
648.03	58803.62
648.17	58602.33
648.32	58513.39
648.47	58651.48
648.61	58494.67
648.76	58731.06
648.90	58396.37
649.05	58670.21
649.20	58707.66
649.34	58583.61
649.49	58440.84
649.63	58501.69
649.78	58752.13
649.92	58489.99
650.07	58482.97
650.21	58143.59
650.36	58387.00
650.51	58288.70
650.65	58649.14
650.80	58382.32
650.94	58071.03
651.09	58131.89
651.23	57972.73
651.38	58305.09
651.52	58017.20
651.67	58185.72
651.81	58108.48
651.96	58021.88
652.10	58068.69
652.25	57984.43
652.39	58052.31
652.54	57993.79
652.68	57858.04
652.83	57986.77
652.97	57993.79
653.12	58068.69
653.26	57895.49
653.41	58047.63
653.55	58031.24
653.70	57902.51
653.84	58073.37
653.99	58127.20
654.13	58024.22
654.27	57904.85
654.42	57963.37
654.56	57766.76
654.71	57827.62
654.85	58033.58
655.00	57893.15
655.14	57818.25
655.29	57783.15
655.43	57621.65
655.57	57652.08
655.72	57689.52
655.86	57626.33
656.01	57872.09
656.15	57411.00
656.30	57546.75
656.44	57923.58
656.58	57907.19
656.73	57790.17
656.87	57680.16
657.01	57542.07
657.16	57701.23
657.30	57462.49
657.45	57495.26
657.59	57523.35
657.73	57315.04
657.88	57324.40
658.02	57172.27
658.16	57396.96
658.31	57340.78
658.45	57537.39
658.60	57340.78
658.74	57497.60
658.88	57361.85
659.03	57308.02
659.17	57132.48
659.31	56940.55
659.46	57200.35
659.60	57020.13
659.74	57064.60
659.89	56987.36
660.03	57120.77
660.17	56992.04
660.32	56970.98
660.46	57029.49
660.60	56772.03
660.74	56975.66
660.89	56968.64
661.03	56713.52
661.17	56657.35
661.32	56587.13
661.46	56870.34
661.60	56783.74
661.74	56711.18
661.89	56746.29
662.03	56463.08
662.17	56589.47
662.31	56626.92
662.46	56853.95
662.60	56493.51
662.74	56376.48
662.88	56163.50
663.03	56214.99
663.17	56280.52
663.31	56023.06
663.45	56149.45
663.60	55697.73
663.74	56023.06
663.88	56093.28
664.02	55962.21
664.17	56217.33
664.31	55838.16
664.45	55835.82
664.59	55936.46
664.73	55945.83
664.88	55505.80
665.02	55290.48
665.16	55669.64
665.30	55632.19
665.44	55522.19
665.59	55517.51
665.73	55297.50
665.87	55564.32
666.01	55529.21
666.15	55288.13
666.29	55501.12
666.44	55440.27
666.58	55337.29
666.72	54883.22
666.86	54995.57
667.00	55145.36
667.14	54808.32
667.28	55238.98
667.43	54787.26
667.57	54974.50
667.71	54740.45
667.85	54637.47
667.99	54918.33
668.13	54817.69
668.27	54937.05
668.41	54805.98
668.56	54733.43
668.70	54695.98
668.84	54466.61
668.98	54607.04
669.12	54534.48
669.26	54834.07
669.40	54284.04
669.54	54527.46
669.68	54403.41
669.82	54181.06
669.96	54361.28
670.10	54475.97
670.25	54635.13
670.39	54136.59
670.53	54199.79
670.67	54059.35
670.81	54253.62
670.95	54272.34
671.09	53865.09
671.23	53506.99
671.37	53787.85
671.51	53886.15
671.65	53502.31
671.79	53396.98
671.93	53750.40
672.07	53439.11
672.21	53654.44
672.35	53183.99
672.49	52940.58
672.63	53073.99
672.77	52989.73
672.91	53041.22
673.05	52786.10
673.19	52788.44
673.33	52315.65
673.47	52816.53
673.61	52680.78
673.75	52598.86
673.89	52399.91
674.03	52371.83
674.17	51903.72
674.31	52224.37
674.45	51920.10
674.59	51796.06
674.73	51917.76
674.87	52067.56
675.01	51758.61
675.15	51440.29
675.29	51779.67
675.43	52051.17
675.56	51510.51
675.70	51136.02
675.84	51175.81
675.98	50555.57
676.12	51255.39
676.26	51164.11
676.40	51107.94
676.54	51026.02
676.68	50658.56
676.82	49944.69
676.96	50391.73
677.10	50466.63
677.23	49991.50
677.37	50478.33
677.51	50274.71
677.65	49729.36
677.79	49521.05
677.93	49305.73
678.07	49352.54
678.21	49298.70
678.34	49432.11
678.48	48978.05
678.62	49132.53
678.76	49062.31
678.90	48624.63
679.04	48964.01
679.18	48830.60
679.31	48325.04
679.45	48456.11
679.59	48198.65
679.73	48493.56
679.87	48217.38
680.00	47592.45
680.14	47243.71
680.28	47316.27
680.42	47545.64
680.56	47407.55
680.70	47150.09
680.83	46916.04
680.97	46801.35
681.11	47129.03
681.25	47042.43
681.39	46520.49
681.52	46906.68
681.66	46677.30
681.80	45989.19
681.94	46281.75
682.07	45799.60
682.21	45516.40
682.35	45801.94
682.49	45581.93
682.62	45514.06
682.76	45670.87
682.90	45443.84
683.04	45429.80
683.17	45457.88
683.31	45043.61
683.45	44648.06
683.59	44685.51
683.72	44842.32
683.86	44346.13
684.00	44687.85
684.13	44399.96
684.27	44259.53
684.41	44175.27
684.55	43819.51
684.68	43709.50
684.82	43793.76
684.96	43430.98
685.09	43320.98
685.23	42817.76
685.37	42885.64
685.50	43009.68
685.64	42782.65
685.78	42918.40
685.91	42443.27
686.05	42047.72
686.19	41755.16
686.32	41968.15
686.46	41553.87
686.60	41385.35
686.73	41048.32
686.87	41408.76
687.01	41614.72
687.14	40882.14
687.28	40919.59
687.42	40790.86
687.55	40547.44
687.69	40746.39
687.82	40341.47
687.96	40013.80
688.10	40182.32
688.23	40177.64
688.37	40013.80
688.50	39674.42
688.64	39646.33
688.78	39328.02
688.91	39051.84
689.05	38993.32
689.18	38782.68
689.32	38157.75
689.46	38057.11
689.59	37801.99
689.73	38089.88
689.86	37940.08
690.00	37532.83
690.13	37998.60
690.27	37455.59
690.41	37699.01
690.54	37198.13
690.68	36943.02
690.81	37191.11
690.95	36435.12
691.08	36503.00
691.22	36662.15
691.35	36243.20
691.49	36421.08
691.62	36594.28
691.76	35934.24
691.89	35784.45
692.03	35700.19
692.16	35861.69
692.30	35461.46
692.43	35484.86
692.57	34951.22
692.70	35199.32
692.84	35206.34
692.97	34335.66
693.11	34487.79
693.24	34440.98
693.38	34316.93
693.51	34209.27
693.65	33921.38
693.78	33834.78
693.92	33937.77
694.05	33600.73
694.19	33420.51
694.32	33525.83
694.45	33141.99
694.59	33163.05
694.72	32809.63
694.86	32367.27
694.99	32460.89
695.13	31920.23
695.26	32301.73
695.39	31681.49
695.53	31878.10
695.66	31997.46
695.80	31723.62
695.93	31402.97
696.07	31374.88
696.20	30766.34
696.33	30808.47
696.47	30719.53
696.60	30796.77
696.73	30342.70
696.87	30480.80
697.00	30656.34
697.14	30499.52
697.27	30398.88
697.40	29986.94
697.54	30012.69
697.67	29603.10
697.80	29441.60
697.94	29319.89
698.07	28943.06
698.21	29237.97
698.34	29338.62
698.47	28741.78
698.61	28690.29
698.74	28701.99
698.87	28800.29
699.01	28444.53
699.14	28432.83
699.27	28411.76
699.40	27878.12
699.54	28254.95
699.67	28070.04
699.80	27833.65
699.94	27786.84
700.07	27517.68
700.20	27194.68
700.34	27157.24
700.47	26492.52
700.60	26888.07
700.73	27040.21
700.87	26286.56
701.00	26045.48
701.13	26134.42
701.26	26211.66
701.40	26199.96
701.53	25970.58
701.66	25795.04
701.79	25591.42
701.93	25355.02
702.06	25041.39
702.19	25151.40
702.32	25097.56
702.46	25104.59
702.59	25050.75
702.72	24519.45
702.85	24669.25
702.99	24411.79
703.12	24547.54
703.25	24355.61
703.38	24046.66
703.51	23913.25
703.65	23857.08
703.78	23594.94
703.91	23618.35
704.04	23487.28
704.17	23517.70
704.31	23531.75
704.44	22824.90
704.57	23126.83
704.70	22822.56
704.83	23026.19
704.96	22644.68
705.10	22530.00
705.23	22415.31
>>>>>End Processed Spectral Data<<<<<
