SpectraSuite Data File
++++++++++++++++++++++++++++++++++++
Date: Fri Oct 25 11:25:09 EDT 2013
User: price-jones
Dark Spectrum Present: No
Reference Spectrum Present: No
Number of Sampled Component Spectra: 1
Spectrometers: USB2+H05261
Integration Time (usec): 100000 (USB2+H05261)
Spectra Averaged: 1 (USB2+H05261)
Boxcar Smoothing: 0 (USB2+H05261)
Correct for Electrical Dark: No (USB2+H05261)
Strobe/Lamp Enabled: No (USB2+H05261)
Correct for Detector Non-linearity: No (USB2+H05261)
Correct for Stray Light: No (USB2+H05261)
Number of Pixels in Processed Spectrum: 2048
>>>>>Begin Processed Spectral Data<<<<<
365.73	229.37
365.92	229.37
366.12	229.37
366.32	161.50
366.52	161.50
366.72	126.39
366.91	163.84
367.11	117.03
367.31	182.56
367.51	145.11
367.70	131.07
367.90	102.98
368.10	105.32
368.30	215.33
368.49	135.75
368.69	84.26
368.89	140.43
369.09	156.82
369.28	180.22
369.48	149.79
369.68	166.18
369.87	238.73
370.07	212.99
370.27	220.01
370.47	308.95
370.66	601.52
370.86	643.65
371.06	688.12
371.25	748.97
371.45	692.80
371.65	706.84
371.84	702.16
372.04	617.90
372.24	739.61
372.44	709.18
372.63	653.01
372.83	737.27
373.03	692.80
373.22	723.23
373.42	711.52
373.62	765.36
373.81	760.67
374.01	798.12
374.21	777.06
374.40	821.53
374.60	805.14
374.79	734.93
374.99	772.38
375.19	814.51
375.38	882.38
375.58	861.32
375.78	814.51
375.97	896.43
376.17	863.66
376.37	835.57
376.56	936.21
376.76	819.19
376.95	905.79
377.15	950.26
377.35	959.62
377.54	985.37
377.74	877.70
377.93	903.45
378.13	938.55
378.33	945.58
378.52	936.21
378.72	880.04
378.91	971.32
379.11	919.83
379.31	903.45
379.50	882.38
379.70	896.43
379.89	971.32
380.09	1036.86
380.28	1111.75
380.48	938.55
380.68	1001.75
380.87	898.77
381.07	1046.22
381.26	985.37
381.46	1004.09
381.65	1090.69
381.85	1102.39
382.04	1123.46
382.24	1029.84
382.43	1036.86
382.63	1090.69
382.83	1121.12
383.02	1090.69
383.22	1163.25
383.41	997.07
383.61	1111.75
383.80	1165.59
384.00	1165.59
384.19	1078.99
384.39	1064.94
384.58	1081.33
384.78	1069.62
384.97	1081.33
385.17	1214.74
385.36	1153.88
385.56	1135.16
385.75	1165.59
385.95	1254.53
386.14	1163.25
386.34	1139.84
386.53	1205.38
386.72	1240.48
386.92	1198.35
387.11	1266.23
387.31	1217.08
387.50	1277.93
387.70	1235.80
387.89	1256.87
388.09	1200.69
388.28	1261.55
388.48	1259.21
388.67	1306.02
388.86	1289.64
389.06	1277.93
389.25	1369.21
389.45	1245.16
389.64	1273.25
389.84	1282.61
390.03	1355.17
390.22	1490.92
390.42	1329.42
390.61	1394.96
390.81	1348.15
391.00	1446.45
391.19	1399.64
391.39	1509.65
391.58	1479.22
391.78	1409.00
391.97	1458.15
392.16	1434.75
392.36	1549.43
392.55	1469.86
392.75	1650.08
392.94	1596.25
393.13	1551.78
393.33	1547.09
393.52	1500.28
393.71	1540.07
393.91	1533.05
394.10	1544.75
394.29	1607.95
394.49	1586.88
394.68	1657.10
394.88	1605.61
395.07	1694.55
395.26	1661.78
395.46	1591.56
395.65	1804.55
395.84	1680.50
396.04	1694.55
396.23	1781.15
396.42	1734.34
396.62	1799.87
396.81	1778.81
397.00	1673.48
397.19	1762.42
397.39	1785.83
397.58	1825.62
397.77	1863.07
397.97	1806.89
398.16	1893.49
398.35	1820.94
398.55	1891.15
398.74	1973.07
398.93	2015.20
399.12	1905.20
399.32	1739.02
399.51	1923.92
399.70	1980.09
399.90	1959.03
400.09	1968.39
400.28	1954.35
400.47	2054.99
400.67	2062.01
400.86	1975.41
401.05	1998.82
401.24	2001.16
401.44	2162.66
401.63	2129.89
401.82	2197.76
402.01	2165.00
402.21	2157.97
402.40	2230.53
402.59	2218.83
402.78	2169.68
402.97	2211.81
403.17	2300.75
403.36	2296.07
403.55	2244.57
403.74	2382.67
403.93	2359.26
404.13	2310.11
404.32	2296.07
404.51	2314.79
404.70	2312.45
404.89	2314.79
405.09	2457.56
405.28	2415.43
405.47	2410.75
405.66	2492.67
405.85	2560.55
406.05	2487.99
406.24	2668.21
406.43	2490.33
406.62	2558.21
406.81	2600.34
407.00	2509.05
407.20	2485.65
407.39	2679.91
407.58	2752.47
407.77	2710.34
407.96	2658.85
408.15	2836.73
408.34	2757.15
408.54	2705.66
408.73	2759.49
408.92	2925.67
409.11	2775.88
409.30	2829.71
409.49	2918.65
409.68	2935.03
409.87	2874.18
410.07	2935.03
410.26	2904.60
410.45	2970.14
410.64	2995.89
410.83	3005.25
411.02	3056.74
411.21	3038.02
411.40	3117.59
411.59	3150.36
411.78	3178.45
411.98	3101.21
412.17	3307.18
412.36	3316.54
412.55	3262.71
412.74	3382.07
412.93	3368.03
413.12	3368.03
413.31	3428.88
413.50	3391.44
413.69	3424.20
413.88	3515.48
414.07	3548.25
414.26	3585.70
414.45	3627.83
414.64	3796.35
414.83	3794.01
415.02	3791.67
415.22	3857.20
415.41	3740.18
415.60	3712.09
415.79	3887.63
415.98	3882.95
416.17	3901.67
416.36	3819.75
416.55	4016.36
416.74	4128.70
416.93	3964.87
417.12	4079.55
417.31	4191.90
417.50	4191.90
417.69	4255.09
417.88	4152.11
418.07	4224.67
418.26	4308.93
418.45	4346.37
418.64	4355.74
418.83	4365.10
419.02	4334.67
419.21	4451.70
419.39	4395.53
419.58	4451.70
419.77	4404.89
419.96	4528.94
420.15	4407.23
420.34	4678.73
420.53	4524.26
420.72	4652.98
420.91	4636.60
421.10	4674.05
421.29	4760.65
421.48	4648.30
421.67	4702.14
421.86	4547.66
422.05	4725.54
422.24	4699.80
422.43	4741.93
422.61	4933.85
422.80	5013.43
422.99	4802.78
423.18	4931.51
423.37	5025.13
423.56	4842.57
423.75	4938.53
423.94	4814.48
424.13	4524.26
424.32	4741.93
424.50	5083.64
424.69	4997.04
424.88	4926.83
425.07	4971.30
425.26	4877.68
425.45	4919.81
425.64	4968.96
425.83	5057.90
426.01	5114.07
426.20	4992.36
426.39	4896.40
426.58	4961.94
426.77	4915.12
426.96	5046.20
427.15	5144.50
427.33	5144.50
427.52	5327.06
427.71	5200.67
427.90	5083.64
428.09	5245.14
428.28	5294.29
428.46	5387.91
428.65	5212.37
428.84	5490.90
429.03	5561.11
429.22	5144.50
429.40	5460.47
429.59	5259.18
429.78	5329.40
429.97	5247.48
430.16	5240.46
430.34	5523.66
430.53	5708.57
430.72	5521.32
430.91	5556.43
431.10	5420.68
431.28	5687.50
431.47	5636.01
431.66	5757.72
431.85	5703.89
432.03	5909.85
432.22	5841.98
432.41	5750.70
432.60	5865.38
432.79	5867.72
432.97	5975.39
433.16	6193.06
433.35	6054.97
433.54	5987.09
433.72	6118.16
433.91	5968.37
434.10	6069.01
434.28	6057.31
434.47	6071.35
434.66	6244.55
434.85	6282.00
435.03	6345.19
435.22	6230.51
435.41	6415.41
435.59	6267.95
435.78	6352.21
435.97	6307.74
436.16	6342.85
436.34	6345.19
436.53	6473.92
436.72	6513.71
436.90	6279.66
437.09	6576.91
437.28	6410.73
437.46	6661.16
437.65	6656.48
437.84	6619.04
438.02	6586.27
438.21	6719.68
438.40	6668.19
438.58	6960.75
438.77	7068.42
438.96	6874.15
439.14	6953.73
439.33	7162.04
439.52	7056.72
439.70	7171.40
439.89	7185.44
440.08	7300.13
440.26	7274.38
440.45	7293.11
440.63	7332.90
440.82	7590.36
441.01	7595.04
441.19	7548.23
441.38	7583.34
441.57	7641.85
441.75	7590.36
441.94	7623.12
442.12	7733.13
442.31	8002.29
442.50	7836.11
442.68	7878.24
442.87	7997.61
443.05	8112.30
443.24	8065.49
443.43	8217.62
443.61	8049.10
443.80	8540.61
443.98	7941.44
444.17	7859.52
444.35	8163.79
444.54	8482.10
444.73	8156.77
444.91	8219.96
445.10	8161.45
445.28	8226.98
445.47	8273.79
445.65	8393.16
445.84	8154.43
446.02	8456.36
446.21	8315.92
446.39	8479.76
446.58	8372.10
446.77	8526.57
446.95	8119.32
447.14	8320.60
447.32	8290.18
447.51	8329.97
447.69	8390.82
447.88	8575.72
448.06	8421.25
448.25	8458.70
448.43	8475.08
448.62	8456.36
448.80	8442.31
448.99	8608.49
449.17	8697.43
449.36	8634.24
449.54	8879.99
449.73	8697.43
449.91	8854.25
450.10	8858.93
450.28	8819.14
450.46	8809.78
450.65	8978.30
450.83	8971.27
451.02	9170.22
451.20	9146.81
451.39	9224.05
451.57	8732.54
451.76	8992.34
451.94	8990.00
452.13	9231.07
452.31	9277.88
452.49	8945.53
452.68	9177.24
452.86	9240.44
453.05	9303.63
453.23	9256.82
453.42	9291.93
453.60	9275.54
453.78	9444.06
453.97	9493.21
454.15	9472.15
454.34	9329.38
454.52	9413.63
454.70	9701.52
454.89	9708.54
455.07	9514.28
455.26	9755.35
455.44	9806.84
455.62	9778.76
455.81	9991.75
455.99	9944.94
456.17	10125.16
456.36	10097.07
456.54	10097.07
456.73	10125.16
456.91	10310.06
457.09	10476.24
457.28	10649.44
457.46	10382.62
457.64	10410.70
457.83	10284.31
458.01	10366.23
458.19	10551.14
458.38	10387.30
458.56	10574.54
458.74	10705.61
458.93	10600.29
459.11	10780.51
459.29	10785.19
459.48	10736.04
459.66	10766.46
459.84	10626.03
460.03	11005.20
460.21	10834.34
460.39	10911.58
460.57	10796.89
460.76	10991.16
460.94	11000.52
461.12	11033.29
461.31	11288.40
461.49	11044.99
461.67	11012.22
461.85	11438.20
462.04	11295.43
462.22	11522.46
462.40	11393.73
462.59	11257.98
462.77	11630.12
462.95	11468.62
463.13	11396.07
463.32	11709.70
463.50	11555.22
463.68	11555.22
463.86	11779.92
464.05	11529.48
464.23	11660.55
464.41	11782.26
464.59	11494.37
464.78	11999.93
464.96	11831.41
465.14	11686.29
465.32	12081.85
465.50	12030.35
465.69	12210.57
465.87	11761.19
466.05	12039.72
466.23	11978.86
466.41	11997.59
466.60	12191.85
466.78	12138.02
466.96	12273.77
467.14	12011.63
467.32	12156.74
467.51	12388.46
467.69	12116.95
467.87	12449.31
468.05	12596.76
468.23	12320.58
468.41	12290.15
468.60	12461.01
468.78	12695.07
468.96	12720.81
469.14	12582.72
469.32	12992.31
469.50	12730.17
469.69	12772.30
469.87	12894.01
470.05	13177.22
470.23	13266.16
470.41	12886.99
470.59	13390.20
470.77	13177.22
470.95	13158.49
471.14	13390.20
471.32	12926.78
471.50	13355.10
471.68	13598.51
471.86	13483.83
472.04	13362.12
472.22	13963.64
472.40	13621.92
472.58	13467.44
472.77	13954.27
472.95	13912.14
473.13	14441.11
473.31	13720.22
473.49	14031.51
473.67	13987.04
473.85	14218.75
474.03	14508.98
474.21	14719.63
474.39	14466.85
474.57	14665.80
474.75	14988.79
474.93	14696.22
475.12	14927.94
475.30	15145.61
475.48	15075.39
475.66	15108.16
475.84	14824.95
476.02	15274.34
476.20	15218.16
476.38	15276.68
476.56	15744.78
476.74	15702.65
476.92	15765.85
477.10	15772.87
477.28	16168.42
477.46	16233.96
477.64	16311.19
477.82	16170.76
478.00	16898.67
478.18	16676.32
478.36	16751.21
478.54	16971.22
478.72	17046.12
478.90	17160.81
479.08	17617.21
479.26	17804.46
479.44	17736.58
479.62	17792.75
479.80	17790.41
479.98	18148.51
480.16	18312.35
480.34	17972.97
480.52	18726.63
480.70	18265.54
480.88	18104.04
481.06	18691.52
481.24	18785.14
481.41	18878.76
481.59	19271.97
481.77	19370.27
481.95	19531.77
482.13	19810.29
482.31	19571.56
482.49	19754.12
482.67	20018.60
482.85	20390.75
483.03	20498.41
483.21	20657.57
483.39	20718.42
483.57	20842.47
483.74	20936.09
483.92	21039.08
484.10	20900.98
484.28	21511.86
484.46	21795.07
484.64	21977.63
484.82	21907.41
485.00	22148.49
485.18	22438.72
485.35	22670.43
485.53	22780.43
485.71	22773.41
485.89	23381.95
486.07	23332.80
486.25	23225.14
486.43	23506.00
486.61	23569.19
486.78	23557.49
486.96	24060.71
487.14	24526.47
487.32	24615.41
487.50	24514.77
487.68	25127.99
487.85	25212.25
488.03	25319.92
488.21	25858.24
488.39	25841.85
488.57	25762.28
488.75	26087.61
488.92	26295.92
489.10	26333.37
489.28	26604.87
489.46	26969.99
489.64	26604.87
489.81	27330.44
489.99	27494.27
490.17	27569.17
490.35	28149.62
490.53	28231.54
490.70	28116.86
490.88	27885.14
491.06	28322.82
491.24	28570.92
491.41	28844.76
491.59	29268.40
491.77	28849.44
491.95	29567.99
492.13	29661.61
492.30	29303.51
492.48	30036.09
492.66	30143.76
492.84	30052.48
493.01	30742.94
493.19	30356.75
493.37	30721.87
493.54	30635.27
493.72	31150.19
493.90	31440.42
494.08	31517.65
494.25	31838.31
494.43	31569.15
494.61	31842.99
494.79	32013.85
494.96	32315.78
495.14	32275.99
495.32	32833.04
495.49	33097.52
495.67	33057.73
495.85	33596.05
496.02	33708.40
496.20	33713.08
496.38	33443.91
496.55	33497.75
496.73	34330.98
496.91	34356.72
497.09	34452.69
497.26	34679.72
497.44	34543.97
497.62	35117.40
497.79	35517.63
497.97	34866.96
498.14	35491.88
498.32	35866.37
498.50	36313.41
498.67	35906.16
498.85	36177.66
499.03	36343.84
499.20	36573.21
499.38	36439.80
499.56	36636.41
499.73	36664.49
499.91	36893.86
500.08	37493.04
500.26	37198.13
500.44	37483.68
500.61	37525.81
500.79	37411.12
500.97	37453.25
501.14	38155.41
501.32	38213.93
501.49	38230.31
501.67	38328.61
501.84	38780.34
502.02	38569.69
502.20	38773.31
502.37	39030.77
502.55	39220.36
502.72	39082.27
502.90	39283.55
503.07	39232.06
503.25	40006.78
503.43	39601.86
503.60	39636.97
503.78	40549.78
503.95	40224.45
504.13	39915.50
504.30	40250.19
504.48	39819.53
504.65	40664.47
504.83	40297.00
505.01	40762.77
505.18	40776.81
505.36	41076.40
505.53	41120.87
505.71	41493.02
505.88	41324.50
506.06	41111.51
506.23	41591.32
506.41	41303.43
506.58	41961.12
506.76	42167.09
506.93	41975.17
507.11	42164.75
507.28	42408.17
507.46	42267.73
507.63	42745.20
507.81	42822.44
507.98	42586.05
508.16	42862.23
508.33	42892.66
508.50	43466.09
508.68	43178.20
508.85	43445.02
509.03	43330.34
509.20	43728.23
509.38	44341.45
509.55	43973.98
509.73	44325.07
509.90	44573.16
510.08	43997.39
510.25	44172.93
510.42	44905.52
510.60	44678.49
510.77	44851.69
510.95	44968.71
511.12	44828.28
511.30	44659.76
511.47	44849.35
511.64	45095.10
511.82	45390.01
511.99	45670.87
512.17	45605.34
512.34	45776.20
512.51	46302.82
512.69	45961.10
512.86	45837.05
513.04	46454.95
513.21	45848.75
513.38	46082.81
513.56	46733.48
513.73	46508.79
513.90	46607.09
514.08	46543.89
514.25	46962.85
514.43	47016.68
514.60	46923.06
514.77	47419.25
514.95	47374.78
515.12	47330.31
515.29	47182.86
515.47	47636.92
515.64	47969.28
515.81	47503.51
515.99	48240.78
516.16	47814.80
516.33	47976.30
516.51	48528.67
516.68	48430.36
516.85	48114.39
517.03	48973.37
517.20	48755.70
517.37	48547.39
517.54	48762.72
517.72	48315.68
517.89	48514.62
518.06	48788.47
518.24	48666.76
518.41	49099.76
518.58	48956.99
518.75	48973.37
518.93	49209.76
519.10	48966.35
519.27	49467.22
519.45	49757.45
519.62	49324.45
519.79	49612.34
519.96	49455.52
520.14	50064.06
520.31	49544.46
520.48	50211.51
520.65	50057.04
520.83	50209.17
521.00	50293.43
521.17	50157.68
521.34	50384.71
521.52	50499.40
521.69	50703.03
521.86	50555.57
522.03	50918.35
522.20	50719.41
522.38	51126.66
522.55	50983.89
522.72	51187.52
522.89	51159.43
523.07	50878.57
523.24	51379.44
523.41	51522.21
523.58	51426.25
523.75	51693.07
523.92	51580.73
524.10	51365.40
524.27	51557.32
524.44	51704.77
524.61	51957.55
524.78	51810.10
524.96	51934.15
525.13	52105.01
525.30	52044.15
525.47	52025.43
525.64	52388.21
525.81	52446.72
525.98	52608.22
526.16	52432.68
526.33	52348.42
526.50	52542.69
526.67	52626.95
526.84	52582.48
527.01	52591.84
527.18	52671.42
527.36	52814.19
527.53	52409.28
527.70	53036.54
527.87	53102.07
528.04	52931.22
528.21	53045.90
528.38	52982.71
528.55	53354.85
528.72	53310.38
528.89	53226.12
529.07	53081.01
529.24	53066.97
529.41	53659.12
529.58	53460.18
529.75	53429.75
529.92	53530.39
530.09	53551.46
530.26	53656.78
530.43	53790.19
530.60	53354.85
530.77	53343.15
530.94	54108.50
531.11	53478.90
531.28	53970.41
531.46	54071.06
531.63	53947.01
531.80	53904.88
531.97	54410.43
532.14	53991.48
532.31	54295.75
532.48	54258.30
532.65	54361.28
532.82	54155.32
532.99	54534.48
533.16	54150.63
533.33	54396.39
533.50	54703.00
533.67	54482.99
533.84	54358.94
534.01	54555.55
534.18	54873.86
534.35	55236.64
534.52	54801.30
534.69	54850.45
534.86	55203.88
535.03	54681.94
535.20	54890.24
535.37	55021.31
535.54	54894.92
535.71	54932.37
535.88	54988.55
536.05	55297.50
536.22	55168.77
536.38	55444.95
536.55	55519.85
536.72	55295.16
536.89	55337.29
537.06	55381.76
537.23	55489.42
537.40	55318.56
537.57	55246.00
537.74	55693.05
537.91	55611.13
538.08	55639.22
538.25	55320.90
538.42	55700.07
538.59	55791.35
538.75	55580.70
538.92	55973.91
539.09	55884.97
539.26	55927.10
539.43	55688.37
539.60	56051.15
539.77	56128.39
539.94	56240.73
540.11	55959.87
540.28	56266.48
540.44	56353.08
540.61	56320.31
540.78	56090.94
540.95	56409.25
541.12	56168.18
541.29	56280.52
541.46	56217.33
541.62	56425.64
541.79	56367.12
541.96	56299.25
542.13	56432.66
542.30	56364.78
542.47	56603.52
542.63	56474.79
542.80	56598.83
542.97	56910.13
543.14	56949.92
543.31	56858.63
543.48	57130.14
543.64	57277.59
543.81	57247.16
543.98	56968.64
544.15	57017.79
544.32	57088.01
544.48	57378.23
544.65	57216.74
544.82	57071.62
544.99	56919.49
545.16	57223.76
545.32	57193.33
545.49	57595.90
545.66	57712.93
545.83	57326.74
546.00	57659.10
546.16	57394.62
546.33	57373.55
546.50	57209.71
546.67	57631.01
546.83	57289.29
547.00	57378.23
547.17	57488.24
547.34	57542.07
547.50	57869.75
547.67	58101.46
547.84	57715.27
548.00	57832.30
548.17	58066.35
548.34	57949.32
548.51	58054.65
548.67	57822.93
548.84	58026.56
549.01	57897.83
549.18	57869.75
549.34	58061.67
549.51	57893.15
549.68	58237.21
549.84	58204.44
550.01	58120.18
550.18	58134.23
550.34	58291.04
550.51	58405.73
550.68	58241.89
550.84	58120.18
551.01	58295.72
551.18	58337.85
551.34	58272.32
551.51	58511.05
551.68	58307.43
551.84	58382.32
552.01	58239.55
552.18	58504.03
552.34	58333.17
552.51	58553.18
552.68	58417.43
552.84	58482.97
553.01	58693.61
553.18	58691.27
553.34	58637.44
553.51	58609.35
553.67	58536.80
553.84	58852.77
554.01	58808.30
554.17	58810.64
554.34	58850.43
554.51	58805.96
554.67	58841.07
554.84	58796.60
555.00	58925.33
555.17	58719.36
555.33	58993.20
555.50	58738.08
555.67	58768.51
555.83	58784.90
556.00	58897.24
556.16	59264.70
556.33	59131.29
556.50	59063.42
556.66	59292.79
556.83	59054.06
556.99	59016.61
557.16	59508.12
557.32	59295.13
557.49	59597.06
557.65	59229.60
557.82	59147.68
557.98	59187.47
558.15	59274.07
558.32	59248.32
558.48	59332.58
558.65	59234.28
558.81	59159.38
558.98	59253.00
559.14	59377.05
559.31	59437.90
559.47	59456.63
559.64	59550.25
559.80	59601.74
559.97	59723.45
560.13	59423.86
560.30	59746.86
560.46	59671.96
560.63	59508.12
560.79	59674.30
560.96	59702.38
561.12	59580.68
561.29	59770.26
561.45	59690.68
561.61	59735.15
561.78	59503.44
561.94	59643.87
562.11	59875.58
562.27	59714.09
562.44	60048.78
562.60	59870.90
562.77	59929.42
562.93	59910.69
563.10	60041.76
563.26	59903.67
563.42	59826.43
563.59	59999.63
563.75	59917.71
563.92	59868.56
564.08	59798.35
564.24	60011.34
564.41	59842.82
564.57	59987.93
564.74	59976.23
564.90	59835.80
565.07	59891.97
565.23	59980.91
565.39	59994.95
565.56	60168.15
565.72	60041.76
565.88	59976.23
566.05	60079.21
566.21	59999.63
566.38	60074.53
566.54	60137.72
566.70	60224.32
566.87	60044.10
567.03	60060.49
567.19	60275.82
567.36	60289.86
567.52	60004.31
567.68	60343.69
567.85	60240.71
568.01	60278.16
568.17	60254.75
568.34	60287.52
568.50	60219.64
568.66	60149.43
568.83	60224.32
568.99	60189.22
569.15	60179.85
569.32	60067.51
569.48	60090.91
569.64	60306.24
569.81	60207.94
569.97	60247.73
570.13	60313.26
570.30	60121.34
570.46	60285.18
570.62	60219.64
570.78	60271.14
570.95	60329.65
571.11	60561.36
571.27	60140.07
571.43	60296.88
571.60	60470.08
571.76	60313.26
571.92	60523.91
572.09	60589.45
572.25	60184.54
572.41	60226.66
572.57	60406.89
572.74	60645.62
572.90	60252.41
573.06	60449.02
573.22	60383.48
573.38	60566.04
573.55	60502.85
573.71	60633.92
573.87	60306.24
574.03	60383.48
574.20	60472.42
574.36	60542.64
574.52	60647.96
574.68	60542.64
574.84	60769.67
575.01	60708.82
575.17	60430.29
575.33	60523.91
575.49	60406.89
575.65	60444.33
575.82	60570.72
575.98	60694.77
576.14	60790.73
576.30	60704.13
576.46	60563.70
576.62	60512.21
576.79	60563.70
576.95	60383.48
577.11	60753.29
577.27	60617.53
577.43	60720.52
577.59	60484.12
577.75	60685.41
577.92	60493.49
578.08	60622.22
578.24	60552.00
578.40	60823.50
578.56	60867.97
578.72	60704.13
578.88	60736.90
579.04	60657.32
579.21	60823.50
579.37	60844.57
579.53	60676.05
579.69	60299.22
579.85	60453.70
580.01	60601.15
580.17	60673.71
580.33	60802.44
580.49	60746.26
580.65	60767.33
580.82	60746.26
580.98	60795.42
581.14	60638.60
581.30	60814.14
581.46	60631.58
581.62	60671.37
581.78	60680.73
581.94	60809.46
582.10	60711.16
582.26	60633.92
582.42	60781.37
582.58	60736.90
582.74	60687.75
582.90	60650.30
583.06	60722.86
583.22	60825.84
583.38	60935.85
583.54	60891.38
583.70	60863.29
583.86	60662.00
584.02	60863.29
584.18	60907.76
584.34	60849.25
584.50	60816.48
584.66	60526.25
584.82	60598.81
584.98	60889.04
585.14	60797.76
585.30	60781.37
585.46	60793.07
585.62	60954.57
585.78	61031.81
585.94	60706.47
586.10	60769.67
586.26	60872.65
586.42	60942.87
586.58	60762.65
586.74	61034.15
586.90	60886.70
587.06	60748.60
587.22	61076.28
587.38	60694.77
587.54	61036.49
587.70	61062.24
587.86	60938.19
588.02	60886.70
588.18	60945.21
588.34	60863.29
588.49	60837.54
588.65	60872.65
588.81	61069.26
588.97	61078.62
589.13	61006.06
589.29	61216.71
589.45	61190.97
589.61	61078.62
589.77	61471.83
589.93	61212.03
590.08	61233.10
590.24	61235.44
590.40	61265.86
590.56	61127.77
590.72	61197.99
590.88	61338.42
591.04	61247.14
591.20	61434.38
591.35	61169.90
591.51	61495.24
591.67	61284.59
591.83	60985.00
591.99	61270.54
592.15	61378.21
592.31	61230.75
592.46	61219.05
592.62	61286.93
592.78	61230.75
592.94	61333.74
593.10	61167.56
593.26	61233.10
593.41	61307.99
593.57	61312.67
593.73	61230.75
593.89	61579.49
594.05	61464.81
594.20	61312.67
594.36	61446.08
594.52	61380.55
594.68	61073.94
594.84	61141.81
594.99	61446.08
595.15	61073.94
595.31	61497.58
595.47	61277.57
595.62	61312.67
595.78	61188.63
595.94	61298.63
596.10	61638.01
596.25	61331.40
596.41	61375.87
596.57	61425.02
596.73	61392.25
596.88	61410.98
597.04	61418.00
597.20	61457.79
597.36	61488.21
597.51	61684.82
597.67	61361.82
597.83	61141.81
597.99	61516.30
598.14	61733.97
598.30	61579.49
598.46	61352.46
598.61	61581.84
598.77	61530.34
598.93	61481.19
599.09	61684.82
599.24	61783.12
599.40	61504.60
599.56	61717.59
599.71	61542.05
599.87	61752.69
600.03	61652.05
600.18	61513.96
600.34	61556.09
600.50	61530.34
600.65	61670.78
600.81	61588.86
600.97	61635.67
601.12	61799.50
601.28	61476.51
601.44	61453.11
601.59	61708.22
601.75	61310.33
601.91	61748.01
602.06	61710.56
602.22	61780.78
602.37	61483.53
602.53	61628.65
602.69	61579.49
602.84	61539.71
603.00	61572.47
603.16	61834.61
603.31	61659.07
603.47	61581.84
603.62	61481.19
603.78	61661.41
603.94	61446.08
604.09	61638.01
604.25	61787.80
604.40	61544.39
604.56	61661.41
604.71	61820.57
604.87	61462.47
605.03	61574.81
605.18	61614.60
605.34	61638.01
605.49	61418.00
605.65	61766.74
605.80	61560.77
605.96	61818.23
606.12	61703.54
606.27	61778.44
606.43	61551.41
606.58	61633.33
606.74	61574.81
606.89	61579.49
607.05	61689.50
607.20	61659.07
607.36	61525.66
607.51	61572.47
607.67	61352.46
607.82	61392.25
607.98	61525.66
608.13	61469.49
608.29	61361.82
608.44	61382.89
608.60	61324.38
608.75	61516.30
608.91	61612.26
609.06	61382.89
609.22	61719.93
609.37	61317.35
609.53	61401.61
609.68	61382.89
609.84	61329.06
609.99	61418.00
610.15	61584.18
610.30	61605.24
610.46	61574.81
610.61	61350.12
610.76	61345.44
610.92	61293.95
611.07	61446.08
611.23	61296.29
611.38	61418.00
611.54	61551.41
611.69	61197.99
611.84	61364.17
612.00	61165.22
612.15	61340.76
612.31	61373.53
612.46	61345.44
612.62	61317.35
612.77	61331.40
612.92	61448.42
613.08	61162.88
613.23	61322.04
613.39	61195.65
613.54	61057.56
613.69	61293.95
613.85	61169.90
614.00	61525.66
614.15	61359.48
614.31	61331.40
614.46	61078.62
614.62	61141.81
614.77	61207.35
614.92	61197.99
615.08	61127.77
615.23	61296.29
615.38	61310.33
615.54	61219.05
615.69	61085.64
615.84	61242.46
616.00	61240.12
616.15	61378.21
616.30	61205.01
616.46	61165.22
616.61	60928.83
616.76	61265.86
616.92	61095.00
617.07	61073.94
617.22	60977.98
617.37	61153.52
617.53	61307.99
617.68	61249.48
617.83	61057.56
617.99	61174.58
618.14	61050.53
618.29	60973.30
618.45	61069.26
618.60	60814.14
618.75	60884.36
618.90	61010.74
619.06	61050.53
619.21	61069.26
619.36	61190.97
619.51	61076.28
619.67	60893.72
619.82	60818.82
619.97	60982.66
620.12	60963.93
620.28	60828.18
620.43	60860.95
620.58	60842.23
620.73	60858.61
620.89	61013.08
621.04	61085.64
621.19	60905.42
621.34	60577.75
621.49	60676.05
621.65	60879.67
621.80	60959.25
621.95	60636.26
622.10	60928.83
622.25	60577.75
622.41	60727.54
622.56	60816.48
622.71	60690.09
622.86	60416.25
623.01	60650.30
623.16	60456.04
623.32	60750.94
623.47	60624.56
623.62	60647.96
623.77	60505.19
623.92	60945.21
624.07	60886.70
624.23	60664.35
624.38	60460.72
624.53	60530.93
624.68	60294.54
624.83	60636.26
624.98	60676.05
625.13	60533.28
625.29	60404.55
625.44	60507.53
625.59	60411.57
625.74	60505.19
625.89	60303.90
626.04	60317.95
626.19	60413.91
626.34	60219.64
626.49	60437.31
626.65	60264.11
626.80	60350.71
626.95	60266.45
627.10	60210.28
627.25	60041.76
627.40	60158.79
627.55	60390.50
627.70	60331.99
627.85	60264.11
628.00	60214.96
628.15	60207.94
628.30	60207.94
628.45	60025.38
628.60	60111.98
628.76	59971.55
628.91	60154.11
629.06	60095.60
629.21	59936.44
629.36	59910.69
629.51	59873.24
629.66	60109.64
629.81	59845.16
629.96	59913.03
630.11	60004.31
630.26	60076.87
630.41	60114.32
630.56	59929.42
630.71	59889.63
630.86	59924.74
631.01	59779.62
631.16	59721.11
631.31	59779.62
631.46	59573.66
631.61	59756.22
631.76	59920.05
631.91	59915.37
632.06	59999.63
632.21	59913.03
632.36	59725.79
632.51	59470.67
632.66	59826.43
632.81	59772.60
632.96	59800.69
633.10	59491.74
633.25	59915.37
633.40	59887.29
633.55	59828.77
633.70	59636.85
633.85	59444.93
634.00	59494.08
634.15	59536.21
634.30	59484.72
634.45	59697.70
634.60	59849.84
634.75	59540.89
634.90	59517.48
635.05	59498.76
635.19	59592.38
635.34	59728.13
635.49	59576.00
635.64	59419.18
635.79	59374.71
635.94	59531.53
636.09	59458.97
636.24	59288.11
636.39	59536.21
636.53	59402.80
636.68	59231.94
636.83	59353.65
636.98	59686.00
637.13	59180.45
637.28	59388.75
637.43	59367.69
637.57	59365.35
637.72	59227.26
637.87	59339.60
638.02	59030.65
638.17	59084.48
638.32	59182.79
638.46	59398.12
638.61	58997.88
638.76	59208.53
638.91	59051.72
639.06	59007.25
639.20	58988.52
639.35	59000.22
639.50	58843.41
639.65	59119.59
639.80	59171.08
639.94	59124.27
640.09	58948.73
640.24	58981.50
640.39	59007.25
640.54	58955.75
640.68	58887.88
640.83	58866.81
640.98	58922.99
641.13	58759.15
641.27	59124.27
641.42	59000.22
641.57	58623.40
641.72	58789.58
641.86	58609.35
642.01	58536.80
642.16	58740.42
642.31	58497.01
642.45	58852.77
642.60	58745.11
642.75	58801.28
642.90	58864.47
643.04	58759.15
643.19	58599.99
643.34	58677.23
643.48	58632.76
643.63	58695.95
643.78	58571.91
643.93	58686.59
644.07	58529.78
644.22	58529.78
644.37	58178.70
644.51	58482.97
644.66	58663.19
644.81	58497.01
644.95	58700.64
645.10	58405.73
645.25	58454.88
645.39	58260.62
645.54	58478.28
645.69	58391.68
645.83	58560.20
645.98	58396.37
646.13	58195.08
646.27	58319.13
646.42	58387.00
646.57	58387.00
646.71	58408.07
646.86	58515.73
647.00	58375.30
647.15	58368.28
647.30	58178.70
647.44	58267.64
647.59	58515.73
647.74	58426.79
647.88	58396.37
648.03	58604.67
648.17	58206.78
648.32	58162.31
648.47	58143.59
648.61	58056.99
648.76	58213.80
648.90	57970.39
649.05	58110.82
649.20	58293.38
649.34	58141.25
649.49	58274.66
649.63	58117.84
649.78	58410.41
649.92	58103.80
650.07	58253.59
650.21	57979.75
650.36	58049.97
650.51	58134.23
650.65	58117.84
650.80	58206.78
650.94	57879.11
651.09	57801.87
651.23	57666.12
651.38	57808.89
651.52	57722.29
651.67	57811.23
651.81	57808.89
651.96	57806.55
652.10	57970.39
652.25	57836.98
652.39	57834.64
652.54	57411.00
652.68	57432.07
652.83	57584.20
652.97	57715.27
653.12	57467.17
653.26	57729.31
653.41	57759.74
653.55	57638.03
653.70	57595.90
653.84	57659.10
653.99	57375.89
654.13	57439.09
654.27	57492.92
654.42	57453.13
654.56	57235.46
654.71	57537.39
654.85	57396.96
655.00	57759.74
655.14	57659.10
655.29	57528.03
655.43	57537.39
655.57	57460.15
655.72	57214.40
655.86	57504.62
656.01	57284.61
656.15	57057.58
656.30	57485.90
656.44	57375.89
656.58	57268.23
656.73	57464.83
656.87	57247.16
657.01	57441.43
657.16	57336.10
657.30	57120.77
657.45	57069.28
657.59	56970.98
657.73	57041.20
657.88	56926.51
658.02	57066.94
658.16	56917.15
658.31	56832.89
658.45	57212.06
658.60	57057.58
658.74	57219.08
658.88	57097.37
659.03	56753.31
659.17	56603.52
659.31	56722.88
659.46	56800.12
659.60	56868.00
659.74	56655.01
659.89	56530.96
660.03	56711.18
660.17	56804.80
660.32	56863.32
660.46	56505.21
660.60	56388.19
660.74	56973.32
660.89	56711.18
661.03	56549.68
661.17	56364.78
661.32	56411.59
661.46	56446.70
661.60	56446.70
661.74	56346.06
661.89	56053.49
662.03	55943.48
662.17	56203.28
662.31	56189.24
662.46	56294.56
662.60	55884.97
662.74	56086.26
662.88	56142.43
663.03	55877.95
663.17	56025.40
663.31	55854.54
663.45	55889.65
663.60	55583.04
663.74	55646.24
663.88	55505.80
664.02	55484.74
664.17	55529.21
664.31	55412.18
664.45	55510.49
664.59	55269.41
664.73	55601.77
664.88	55517.51
665.02	54756.83
665.16	55217.92
665.30	55341.97
665.44	55185.15
665.59	55213.24
665.73	55096.21
665.87	55194.51
666.01	55152.38
666.15	55323.24
666.29	55173.45
666.44	54941.74
666.58	55011.95
666.72	54745.13
666.86	54555.55
667.00	54981.52
667.14	54487.67
667.28	54733.43
667.43	54632.78
667.57	54700.66
667.71	54438.52
667.85	54415.11
667.99	54712.36
668.13	54300.43
668.27	54499.37
668.41	54464.27
668.56	54054.67
668.70	53986.80
668.84	53837.00
668.98	54028.93
669.12	54017.22
669.26	54267.66
669.40	54447.88
669.54	54183.40
669.68	54164.68
669.82	53734.02
669.96	54124.89
670.10	53979.78
670.25	53708.27
670.39	53738.70
670.53	53663.80
670.67	53413.37
670.81	53757.42
670.95	53392.30
671.09	53345.49
671.23	53357.19
671.37	53593.59
671.51	53404.00
671.65	53392.30
671.79	53251.87
671.93	53041.22
672.07	53193.36
672.21	52870.36
672.35	52289.91
672.49	52392.89
672.63	52683.12
672.77	52619.92
672.91	52521.62
673.05	52325.02
673.19	52170.54
673.33	52088.62
673.47	52371.83
673.61	52657.37
673.75	52102.67
673.89	51990.32
674.03	52053.51
674.17	51695.41
674.31	51756.27
674.45	51489.45
674.59	51583.07
674.73	51711.80
674.87	51580.73
675.01	51653.28
675.15	51276.46
675.29	51297.52
675.43	51358.38
675.56	51199.22
675.70	51107.94
675.84	50754.52
675.98	49624.04
676.12	50855.16
676.26	50824.73
676.40	50518.12
676.54	50543.87
676.68	50705.37
676.82	49806.60
676.96	50419.82
677.10	49780.85
677.23	49937.67
677.37	49617.02
677.51	49675.53
677.65	49186.36
677.79	48823.58
677.93	48671.44
678.07	49172.31
678.21	48926.56
678.34	48645.69
678.48	48790.81
678.62	48598.88
678.76	48135.46
678.90	48219.72
679.04	48395.26
679.18	48095.67
679.31	47709.48
679.45	47739.91
679.59	47667.35
679.73	48219.72
679.87	47353.72
680.00	47227.33
680.14	46754.54
680.28	47082.22
680.42	46967.53
680.56	46974.55
680.70	46419.84
680.83	46473.68
680.97	46801.35
681.11	46958.17
681.25	46012.59
681.39	46281.75
681.52	45895.56
681.66	46099.19
681.80	45628.74
681.94	45710.66
682.07	45551.51
682.21	44994.46
682.35	45385.33
682.49	44842.32
682.62	44924.24
682.76	45095.10
682.90	44945.31
683.04	44727.64
683.17	44608.27
683.31	44149.53
683.45	44435.07
683.59	44402.30
683.72	43915.47
683.86	43791.42
684.00	44027.82
684.13	43929.51
684.27	43634.61
684.41	43875.68
684.55	43475.45
684.68	43372.47
684.82	42995.64
684.96	43047.13
685.09	42218.58
685.23	42192.84
685.37	42520.51
685.50	42286.46
685.64	42169.43
685.78	42117.94
685.91	41914.31
686.05	42064.11
686.19	41434.50
686.32	41544.51
686.46	40699.58
686.60	40767.45
686.73	40491.27
686.87	40650.42
687.01	40584.89
687.14	40350.84
687.28	40172.96
687.42	40416.37
687.55	39941.24
687.69	39770.38
687.82	39187.59
687.96	39419.30
688.10	39388.88
688.23	39124.40
688.37	39604.20
688.50	38782.68
688.64	38698.42
688.78	38820.13
688.91	38092.22
689.05	38433.94
689.18	38108.60
689.32	37233.24
689.46	37387.72
689.59	37666.24
689.73	37462.61
689.86	37303.46
690.00	37123.24
690.13	37448.57
690.27	36933.65
690.41	37755.18
690.54	37081.11
690.68	36854.08
690.81	36711.30
690.95	36318.09
691.08	36205.75
691.22	35761.05
691.35	35796.15
691.49	35931.90
691.62	36177.66
691.76	35122.08
691.89	35400.60
692.03	35234.42
692.16	35278.89
692.30	34646.95
692.43	35234.42
692.57	34466.73
692.70	34822.49
692.84	34373.11
692.97	34101.61
693.11	34380.13
693.24	33802.02
693.38	33787.97
693.51	33518.81
693.65	33373.70
693.78	33359.66
693.92	33441.57
694.05	33001.55
694.19	32704.31
694.32	32807.29
694.45	33043.68
694.59	32512.38
694.72	32423.44
694.86	32041.93
694.99	31964.70
695.13	31789.16
695.26	31622.98
695.39	31318.71
695.53	31398.29
695.66	31512.97
695.80	31133.81
695.93	30981.67
696.07	30543.99
696.20	30380.15
696.33	30352.07
696.47	30462.07
696.60	30604.84
696.73	30597.82
696.87	29898.00
697.00	30183.55
697.14	30122.69
697.27	29788.00
697.40	29865.24
697.54	29612.46
697.67	29280.10
697.80	29228.61
697.94	29015.62
698.07	28486.66
698.21	28924.34
698.34	28931.36
698.47	28320.48
698.61	28381.34
698.74	28575.60
698.87	28449.21
699.01	28023.23
699.14	27718.96
699.27	27641.73
699.40	27997.49
699.54	27880.46
699.67	27524.70
699.80	27660.45
699.94	27491.93
700.07	27496.61
700.20	26815.52
700.34	26625.93
700.47	26405.92
700.60	26562.74
700.73	26029.10
700.87	25862.92
701.00	25603.12
701.13	25490.77
701.26	25790.36
701.40	25972.92
701.53	25432.26
701.66	25642.91
701.79	25053.09
701.93	24805.00
702.06	24996.92
702.19	25032.03
702.32	24856.49
702.46	24573.28
702.59	24580.31
702.72	24393.06
702.85	24357.96
702.99	24489.03
703.12	24369.66
703.25	23796.23
703.38	23548.13
703.51	23690.90
703.65	23175.98
703.78	23192.37
703.91	23028.53
704.04	23285.99
704.17	23206.41
704.31	23061.30
704.44	22995.76
704.57	22642.34
704.70	22155.51
704.83	22342.75
704.96	22047.85
705.10	22033.80
705.23	22073.59
>>>>>End Processed Spectral Data<<<<<
