SpectraSuite Data File
++++++++++++++++++++++++++++++++++++
Date: Fri Oct 25 11:23:03 EDT 2013
User: price-jones
Dark Spectrum Present: No
Reference Spectrum Present: No
Number of Sampled Component Spectra: 1
Spectrometers: USB2+H05261
Integration Time (usec): 100000 (USB2+H05261)
Spectra Averaged: 1 (USB2+H05261)
Boxcar Smoothing: 0 (USB2+H05261)
Correct for Electrical Dark: No (USB2+H05261)
Strobe/Lamp Enabled: No (USB2+H05261)
Correct for Detector Non-linearity: No (USB2+H05261)
Correct for Stray Light: No (USB2+H05261)
Number of Pixels in Processed Spectrum: 2048
>>>>>Begin Processed Spectral Data<<<<<
365.73	278.52
365.92	278.52
366.12	278.52
366.32	114.69
366.52	79.58
366.72	138.09
366.91	133.41
367.11	117.03
367.31	74.90
367.51	107.66
367.70	117.03
367.90	107.66
368.10	86.60
368.30	126.39
368.49	110.01
368.69	140.43
368.89	110.01
369.09	182.56
369.28	131.07
369.48	135.75
369.68	236.39
369.87	152.13
370.07	133.41
370.27	163.84
370.47	280.86
370.66	603.86
370.86	617.90
371.06	681.10
371.25	660.03
371.45	671.73
371.65	688.12
371.84	678.76
372.04	763.01
372.24	636.63
372.44	704.50
372.63	681.10
372.83	784.08
373.03	802.80
373.22	758.33
373.42	716.20
373.62	814.51
373.81	784.08
374.01	880.04
374.21	856.64
374.40	791.10
374.60	833.23
374.79	819.19
374.99	868.34
375.19	819.19
375.38	816.85
375.58	758.33
375.78	807.48
375.97	823.87
376.17	866.00
376.37	849.61
376.56	912.81
376.76	940.90
376.95	788.76
377.15	922.17
377.35	924.51
377.54	908.13
377.74	912.81
377.93	868.34
378.13	896.43
378.33	919.83
378.52	943.24
378.72	1025.15
378.91	1027.50
379.11	917.49
379.31	983.02
379.50	954.94
379.70	1015.79
379.89	1036.86
380.09	924.51
380.28	961.96
380.48	1020.47
380.68	959.62
380.87	931.53
381.07	1008.77
381.26	1025.15
381.46	966.64
381.65	1029.84
381.85	1013.45
382.04	1032.18
382.24	1097.71
382.43	1053.24
382.63	1039.20
382.83	1060.26
383.02	1109.41
383.22	1025.15
383.41	1114.10
383.61	1114.10
383.80	1146.86
384.00	1114.10
384.19	1104.73
384.39	1153.88
384.58	1135.16
384.78	1116.44
384.97	1228.78
385.17	1151.54
385.36	1121.12
385.56	1151.54
385.75	1188.99
385.95	1128.14
386.14	1029.84
386.34	1142.18
386.53	1193.67
386.72	1217.08
386.92	1284.95
387.11	1277.93
387.31	1301.34
387.50	1233.46
387.70	1263.89
387.89	1242.82
388.09	1331.76
388.28	1219.42
388.48	1263.89
388.67	1320.06
388.86	1256.87
389.06	1247.51
389.25	1261.55
389.45	1315.38
389.64	1294.32
389.84	1362.19
390.03	1329.42
390.22	1448.79
390.42	1327.08
390.61	1416.02
390.81	1446.45
391.00	1329.42
391.19	1439.43
391.39	1488.58
391.58	1497.94
391.78	1427.73
391.97	1467.52
392.16	1439.43
392.36	1465.18
392.55	1542.41
392.75	1596.25
392.94	1509.65
393.13	1523.69
393.33	1446.45
393.52	1645.40
393.71	1640.72
393.91	1561.14
394.10	1640.72
394.29	1612.63
394.49	1565.82
394.68	1685.19
394.88	1678.16
395.07	1774.13
395.26	1785.83
395.46	1732.00
395.65	1699.23
395.84	1652.42
396.04	1699.23
396.23	1790.51
396.42	1795.19
396.62	1727.32
396.81	1750.72
397.00	1781.15
397.19	1757.74
397.39	1715.61
397.58	1858.39
397.77	1881.79
397.97	1820.94
398.16	1849.02
398.35	1921.58
398.55	1813.92
398.74	1921.58
398.93	1900.52
399.12	1895.83
399.32	1956.69
399.51	1874.77
399.70	2062.01
399.90	1994.14
400.09	1991.80
400.28	2132.23
400.47	2012.86
400.67	2120.53
400.86	2040.95
401.05	2125.21
401.24	2200.10
401.44	2118.18
401.63	2162.66
401.82	2134.57
402.01	2239.89
402.21	2181.38
402.40	2157.97
402.59	2251.60
402.78	2242.23
402.97	2314.79
403.17	2267.98
403.36	2303.09
403.55	2260.96
403.74	2256.28
403.93	2434.16
404.13	2382.67
404.32	2354.58
404.51	2385.01
404.70	2349.90
404.89	2487.99
405.09	2499.69
405.28	2469.27
405.47	2485.65
405.66	2480.97
405.85	2539.48
406.05	2602.68
406.24	2546.50
406.43	2513.74
406.62	2609.70
406.81	2693.96
407.00	2619.06
407.20	2635.44
407.39	2581.61
407.58	2661.19
407.77	2745.45
407.96	2647.15
408.15	2733.75
408.34	2677.57
408.54	2731.41
408.73	2928.01
408.92	2780.56
409.11	2979.50
409.30	2960.78
409.49	3061.42
409.68	2906.95
409.87	2864.82
410.07	2920.99
410.26	3042.70
410.45	3038.02
410.64	3110.57
410.83	3194.83
411.02	3096.53
411.21	3197.17
411.40	3187.81
411.59	3304.84
411.78	3204.19
411.98	3222.92
412.17	3258.03
412.36	3403.14
412.55	3463.99
412.74	3445.27
412.93	3361.01
413.12	3412.50
413.31	3552.93
413.50	3522.51
413.69	3583.36
413.88	3658.26
414.07	3513.14
414.26	3639.53
414.45	3693.37
414.64	3646.55
414.83	3847.84
415.02	3796.35
415.22	3840.82
415.41	3871.25
415.60	3911.04
415.79	3974.23
415.98	4058.49
416.17	3927.42
416.36	3936.78
416.55	4175.52
416.74	4107.64
416.93	4058.49
417.12	4058.49
417.31	4320.63
417.50	4290.20
417.69	4341.69
417.88	4177.86
418.07	4379.14
418.26	4397.87
418.45	4407.23
418.64	4575.75
418.83	4540.64
419.02	4351.06
419.21	4461.06
419.39	4664.69
419.58	4514.89
419.77	4683.41
419.96	4334.67
420.15	4622.56
420.34	4594.47
420.53	4819.16
420.72	4723.20
420.91	4748.95
421.10	4786.40
421.29	4697.46
421.48	4573.41
421.67	4702.14
421.86	4774.69
422.05	4863.63
422.24	4919.81
422.43	4947.89
422.61	4926.83
422.80	4910.44
422.99	4915.12
423.18	4858.95
423.37	5015.77
423.56	4821.50
423.75	4922.15
423.94	4800.44
424.13	4650.64
424.32	4842.57
424.50	5050.88
424.69	5055.56
424.88	5081.30
425.07	5088.32
425.26	4952.57
425.45	5032.15
425.64	4898.74
425.83	5083.64
426.01	5093.01
426.20	5095.35
426.39	5085.98
426.58	5046.20
426.77	4994.70
426.96	5249.82
427.15	5132.79
427.33	5177.26
427.52	5149.18
427.71	5420.68
427.90	5130.45
428.09	5228.76
428.28	5441.75
428.46	5479.19
428.65	5408.98
428.84	5659.42
429.03	5661.76
429.22	5495.58
429.40	5516.64
429.59	5537.71
429.78	5345.78
429.97	5165.56
430.16	5579.84
430.34	5605.58
430.53	5816.23
430.72	5788.14
430.91	5621.97
431.10	5589.20
431.28	5738.99
431.47	5891.13
431.66	5769.42
431.85	5823.25
432.03	5905.17
432.22	5987.09
432.41	6181.35
432.60	5944.96
432.79	5905.17
432.97	5989.43
433.16	6061.99
433.35	6045.60
433.54	6181.35
433.72	6232.85
433.91	5966.03
434.10	6134.54
434.28	6134.54
434.47	6221.14
434.66	6293.70
434.85	6293.70
435.03	6366.26
435.22	6246.89
435.41	6483.28
435.59	6438.81
435.78	6363.92
435.97	6604.99
436.16	6513.71
436.34	6541.80
436.53	6399.02
436.72	6654.14
436.90	6567.54
437.09	6796.92
437.28	6707.98
437.46	6513.71
437.65	6537.12
437.84	6841.39
438.02	6888.20
438.21	6609.67
438.40	6801.60
438.58	7070.76
438.77	7087.14
438.96	6920.96
439.14	7133.95
439.33	7258.00
439.52	7293.11
439.70	7248.64
439.89	7407.80
440.08	7321.20
440.26	7473.33
440.45	7501.42
440.63	7520.14
440.82	7754.19
441.01	7531.84
441.19	7709.72
441.38	7651.21
441.57	7784.62
441.75	7758.88
441.94	7920.37
442.12	7990.59
442.31	8065.49
442.50	8138.04
442.68	8119.32
442.87	8177.83
443.05	8409.54
443.24	8168.47
443.43	8365.07
443.61	8414.23
443.80	8287.84
443.98	8058.46
444.17	7808.03
444.35	8313.58
444.54	8491.46
444.73	8402.52
444.91	8226.98
445.10	8376.78
445.28	8449.33
445.47	8205.92
445.65	8376.78
445.84	8571.04
446.02	8725.52
446.21	8475.08
446.39	8571.04
446.58	8564.02
446.77	8620.19
446.95	8262.09
447.14	8580.40
447.32	8517.21
447.51	8533.59
447.69	8430.61
447.88	8643.60
448.06	8638.92
448.25	8585.08
448.43	8767.65
448.62	8809.78
448.80	8498.49
448.99	8652.96
449.17	8987.66
449.36	8716.16
449.54	8966.59
449.73	8926.80
449.91	8982.98
450.10	8966.59
450.28	9254.48
450.46	9060.21
450.65	9095.32
450.83	9188.94
451.02	9130.43
451.20	9261.50
451.39	9441.72
451.57	9135.11
451.76	9121.07
451.94	9376.19
452.13	9579.81
452.31	9528.32
452.49	9282.56
452.68	9341.08
452.86	9448.74
453.05	9502.58
453.23	9523.64
453.42	9593.86
453.60	9500.23
453.78	9525.98
453.97	9657.05
454.15	9678.12
454.34	9603.22
454.52	9701.52
454.70	9713.22
454.89	9696.84
455.07	9900.47
455.26	9893.44
455.44	9982.38
455.62	10029.20
455.81	9905.15
455.99	10008.13
456.17	10319.42
456.36	10401.34
456.54	10317.08
456.73	10214.10
456.91	10471.56
457.09	10520.71
457.28	10478.58
457.46	10413.04
457.64	10544.11
457.83	10480.92
458.01	10523.05
458.19	10930.30
458.38	10551.14
458.56	10834.34
458.74	10794.55
458.93	10640.08
459.11	10808.59
459.29	10686.89
459.48	10839.02
459.66	10927.96
459.84	11030.94
460.03	11176.06
460.21	11063.71
460.39	11194.78
460.57	11169.04
460.76	11215.85
460.94	11452.24
461.12	11419.47
461.31	11253.30
461.49	11138.61
461.67	11272.02
461.85	11758.85
462.04	11372.66
462.22	11878.22
462.40	11555.22
462.59	11730.76
462.77	11651.19
462.95	11822.05
463.13	11885.24
463.32	11772.89
463.50	11683.95
463.68	11805.66
463.86	12011.63
464.05	11730.76
464.23	11798.64
464.41	12086.53
464.59	11819.71
464.78	12238.66
464.96	12084.19
465.14	11910.99
465.32	11976.52
465.50	12194.19
465.69	12336.96
465.87	12025.67
466.05	12161.42
466.23	12128.66
466.41	12304.20
466.60	12629.53
466.78	12128.66
466.96	12257.39
467.14	12393.14
467.32	12711.45
467.51	12760.60
467.69	12407.18
467.87	12566.34
468.05	12545.27
468.23	12564.00
468.41	12634.21
468.60	12650.60
468.78	12919.76
468.96	12613.15
469.14	12903.37
469.32	13029.76
469.50	12704.43
469.69	13186.58
469.87	13062.53
470.05	13114.02
470.23	13568.09
470.41	13350.42
470.59	13530.64
470.77	13294.24
470.95	13177.22
471.14	13757.67
471.32	13315.31
471.50	13666.39
471.68	13654.69
471.86	13757.67
472.04	13961.30
472.22	14216.41
472.40	13757.67
472.58	13893.42
472.77	14214.07
472.95	14436.42
473.13	14785.16
473.31	14387.27
473.49	14129.81
473.67	14171.94
473.85	14216.41
474.03	14778.14
474.21	14665.80
474.39	14993.47
474.57	14719.63
474.75	15009.86
474.93	15096.46
475.12	15056.67
475.30	15089.43
475.48	15314.13
475.66	15105.82
475.84	15372.64
476.02	15552.86
476.20	15499.03
476.38	15882.88
476.56	15999.90
476.74	16112.25
476.92	15955.43
477.10	15772.87
477.28	16212.89
477.46	16257.36
477.64	16334.60
477.82	16636.53
478.00	17130.38
478.18	16933.78
478.36	16893.99
478.54	16980.59
478.72	17282.52
478.90	17511.89
479.08	17668.70
479.26	17916.80
479.44	17816.16
479.62	18188.30
479.80	18047.87
479.98	18242.14
480.16	18946.64
480.34	18338.10
480.52	18710.24
480.70	18827.27
480.88	18607.26
481.06	19000.47
481.24	18878.76
481.41	19269.63
481.59	19489.64
481.77	19969.45
481.95	19679.22
482.13	19847.74
482.31	19768.16
482.49	20243.29
482.67	20482.03
482.85	20746.51
483.03	21032.05
483.21	20659.91
483.39	21312.92
483.57	21113.97
483.74	21500.16
483.92	21481.44
484.10	21439.31
484.28	21865.28
484.46	22199.98
484.64	22513.61
484.82	22190.62
485.00	22670.43
485.18	22946.61
485.35	23360.89
485.53	22988.74
485.71	23168.96
485.89	23775.16
486.07	23548.13
486.25	23274.29
486.43	23915.59
486.61	24065.39
486.78	24133.26
486.96	24748.82
487.14	24893.94
487.32	24959.47
487.50	25046.07
487.68	25043.73
487.85	25233.32
488.03	25783.34
488.21	25762.28
488.39	26101.65
488.57	26548.70
488.75	25989.31
488.92	27009.78
489.10	27353.84
489.28	26728.92
489.46	27377.25
489.64	27365.54
489.81	27971.74
489.99	27971.74
490.17	27875.78
490.35	28460.91
490.53	28276.01
490.70	28591.98
490.88	28767.52
491.06	28917.32
491.24	29156.05
491.41	29301.17
491.59	29518.84
491.77	29507.13
491.95	29713.10
492.13	29888.64
492.30	30230.36
492.48	30110.99
492.66	30668.04
492.84	30927.84
493.01	30836.56
493.19	30806.13
493.37	31732.98
493.54	31335.09
493.72	31910.86
493.90	31641.70
494.08	32025.55
494.25	32388.33
494.43	32044.27
494.61	32610.68
494.79	32589.62
494.96	32732.39
495.14	33081.13
495.32	33680.31
495.49	33291.78
495.67	33567.96
495.85	33867.55
496.02	34080.54
496.20	34457.37
496.38	34483.11
496.55	34265.44
496.73	35531.67
496.91	34857.60
497.09	35051.86
497.26	35337.41
497.44	35213.36
497.62	35611.25
497.79	36114.47
497.97	35594.87
498.14	36126.17
498.32	36793.22
498.50	36383.63
498.67	36666.83
498.85	36149.57
499.03	36940.68
499.20	36830.67
499.38	37294.10
499.56	37593.68
499.73	37570.28
499.91	37970.51
500.08	37912.00
500.26	38024.34
500.44	38045.41
500.61	38115.62
500.79	38447.98
500.97	38785.02
501.14	38871.62
501.32	38981.62
501.49	39040.14
501.67	39143.12
501.84	39150.14
502.02	39185.25
502.20	39515.26
502.37	40135.51
502.55	39655.70
502.72	39585.48
502.90	40109.76
503.07	39943.58
503.25	40030.18
503.43	39908.47
503.60	40643.40
503.78	40556.80
503.95	40666.81
504.13	40786.18
504.30	41074.06
504.48	40671.49
504.65	41106.83
504.83	41380.67
505.01	41287.05
505.18	41263.64
505.36	41804.31
505.53	41464.93
505.71	42089.85
505.88	42141.35
506.06	41890.91
506.23	41727.07
506.41	41965.81
506.58	42632.86
506.76	42370.72
506.93	42597.75
507.11	42705.41
507.28	42639.88
507.46	43276.51
507.63	43143.09
507.81	43573.75
507.98	43222.67
508.16	43248.42
508.33	43557.37
508.50	44055.90
508.68	43985.69
508.85	44240.81
509.03	44432.73
509.20	44467.84
509.38	44484.22
509.55	44872.75
509.73	44603.59
509.90	44938.29
510.08	44957.01
510.25	45125.53
510.42	45010.84
510.60	45235.53
510.77	45553.85
510.95	45902.59
511.12	45691.94
511.30	45818.33
511.47	46052.38
511.64	45710.66
511.82	46291.12
511.99	45790.24
512.17	46150.68
512.34	46248.99
512.51	46644.54
512.69	46691.35
512.86	46735.82
513.04	46724.11
513.21	47089.24
513.38	47267.12
513.56	47070.51
513.73	46763.90
513.90	47555.00
514.08	47311.59
514.25	47707.14
514.43	47856.93
514.60	47782.04
514.77	47531.60
514.95	48083.97
515.12	47707.14
515.29	48186.95
515.47	48055.88
515.64	48505.26
515.81	48409.30
515.99	48701.87
516.16	48732.29
516.33	48748.68
516.51	49092.74
516.68	48353.13
516.85	48683.14
517.03	49006.14
517.20	49553.82
517.37	48961.67
517.54	49212.10
517.72	49059.97
517.89	49272.96
518.06	49563.18
518.24	49563.18
518.41	49553.82
518.58	49928.31
518.75	49652.12
518.93	49640.42
519.10	49708.30
519.27	49944.69
519.45	50277.05
519.62	50223.22
519.79	50225.56
519.96	50024.27
520.14	50394.07
520.31	50373.01
520.48	50621.11
520.65	50574.30
520.83	50806.01
521.00	51217.94
521.17	51248.37
521.34	51133.68
521.52	51070.49
521.69	51037.72
521.86	51023.68
522.03	51358.38
522.20	51648.60
522.38	51765.63
522.55	51728.18
522.72	51648.60
522.89	51756.27
523.07	52048.83
523.24	51892.02
523.41	52102.67
523.58	51763.29
523.75	51845.21
523.92	52310.97
524.10	52332.04
524.27	52058.20
524.44	52320.34
524.61	52493.54
524.78	52722.91
524.96	52697.16
525.13	52706.52
525.30	52556.73
525.47	52748.65
525.64	52884.40
525.81	52814.19
525.98	53146.54
526.16	52999.09
526.33	53029.52
526.50	53413.37
526.67	53104.41
526.84	53324.43
527.01	53116.12
527.18	53439.11
527.36	53214.42
527.53	53329.11
527.70	53556.14
527.87	53628.69
528.04	53191.01
528.21	53708.27
528.38	53598.27
528.55	53961.05
528.72	53694.23
528.89	53698.91
529.07	53684.87
529.24	53691.89
529.41	54178.72
529.58	54171.70
529.75	54000.84
529.92	54099.14
530.09	54340.22
530.26	54171.70
530.43	54255.96
530.60	53930.62
530.77	54122.55
530.94	54375.33
531.11	54403.41
531.28	54459.58
531.46	54167.02
531.63	54480.65
531.80	54358.94
531.97	54445.54
532.14	54630.44
532.31	54693.64
532.48	54848.11
532.65	54864.50
532.82	54663.21
532.99	55124.30
533.16	54920.67
533.33	55327.92
533.50	55145.36
533.67	54946.42
533.84	55054.08
534.01	55208.56
534.18	55356.01
534.35	55531.55
534.52	55566.66
534.69	55435.59
534.86	55419.20
535.03	55480.06
535.20	55557.30
535.37	55625.17
535.54	55770.28
535.71	55379.42
535.88	55805.39
536.05	55545.59
536.22	55688.37
536.38	55725.81
536.55	55772.63
536.72	55997.32
536.89	55653.26
537.06	55891.99
537.23	55849.86
537.40	55854.54
537.57	55723.47
537.74	56137.75
537.91	56088.60
538.08	56137.75
538.25	56051.15
538.42	56140.09
538.59	56456.06
538.75	56172.86
538.92	56233.71
539.09	56563.73
539.26	56601.18
539.43	56423.29
539.60	56327.33
539.77	56252.44
539.94	56673.73
540.11	56467.76
540.28	56605.86
540.44	56655.01
540.61	56739.27
540.78	56537.98
540.95	56664.37
541.12	56411.59
541.29	56640.96
541.46	56776.72
541.62	56889.06
541.79	56996.73
541.96	56523.94
542.13	56715.86
542.30	57024.81
542.47	57022.47
542.63	56994.39
542.80	57261.21
542.97	57244.82
543.14	57352.49
543.31	57525.69
543.48	57406.32
543.64	57553.77
543.81	57495.26
543.98	57469.51
544.15	57729.31
544.32	57888.47
544.48	57755.06
544.65	57682.50
544.82	57633.35
544.99	57441.43
545.16	57745.70
545.32	57731.65
545.49	58089.76
545.66	57965.71
545.83	57771.44
546.00	57939.96
546.16	58028.90
546.33	57930.60
546.50	57677.82
546.67	57921.24
546.83	57563.14
547.00	58101.46
547.17	58026.56
547.34	58005.50
547.50	58075.71
547.67	58274.66
547.84	58152.95
548.00	58230.19
548.17	58440.84
548.34	58422.11
548.51	58630.42
548.67	58436.16
548.84	58246.57
549.01	58426.79
549.18	58363.60
549.34	58445.52
549.51	58651.48
549.68	58660.85
549.84	58401.05
550.01	58628.08
550.18	58550.84
550.34	58567.23
550.51	58642.12
550.68	58702.98
550.84	58571.91
551.01	58866.81
551.18	58717.02
551.34	58646.80
551.51	58735.74
551.68	58595.31
551.84	58677.23
552.01	58843.41
552.18	58922.99
552.34	58780.21
552.51	58934.69
552.68	58721.70
552.84	58997.88
553.01	59344.28
553.18	59213.21
553.34	59213.21
553.51	58864.47
553.67	59133.63
553.84	58953.41
554.01	59068.10
554.17	59419.18
554.34	59098.53
554.51	59117.25
554.67	59231.94
554.84	59393.43
555.00	59089.16
555.17	59166.40
555.33	59175.76
555.50	59032.99
555.67	59121.93
555.83	59107.89
556.00	59173.42
556.16	59564.29
556.33	59695.36
556.50	59491.74
556.66	59653.23
556.83	59381.73
556.99	59721.11
557.16	59688.34
557.32	59838.14
557.49	59868.56
557.65	59559.61
557.82	59508.12
557.98	59580.68
558.15	59805.37
558.32	59707.07
558.48	59526.84
558.65	59753.88
558.81	59774.94
558.98	59807.71
559.14	59714.09
559.31	59875.58
559.47	59920.05
559.64	59915.37
559.80	60086.23
559.97	59910.69
560.13	59913.03
560.30	59941.12
560.46	60037.08
560.63	60009.00
560.79	59852.18
560.96	60161.13
561.12	60097.94
561.29	59920.05
561.45	59913.03
561.61	60161.13
561.78	59962.18
561.94	59915.37
562.11	60102.62
562.27	60219.64
562.44	60034.74
562.60	60128.36
562.77	60198.58
562.93	60090.91
563.10	60226.66
563.26	60207.94
563.42	60432.63
563.59	60360.08
563.75	60301.56
563.92	60266.45
564.08	60339.01
564.24	60388.16
564.41	60320.29
564.57	60388.16
564.74	60259.43
564.90	60233.69
565.07	60334.33
565.23	60495.83
565.39	60374.12
565.56	60303.90
565.72	60416.25
565.88	60315.61
566.05	60243.05
566.21	60444.33
566.38	60402.21
566.54	60341.35
566.70	60402.21
566.87	60561.36
567.03	60441.99
567.19	60727.54
567.36	60549.66
567.52	60259.43
567.68	60603.49
567.85	60605.83
568.01	60640.94
568.17	60610.51
568.34	60505.19
568.50	60507.53
568.66	60413.91
568.83	60552.00
568.99	60704.13
569.15	60676.05
569.32	60500.51
569.48	60622.22
569.64	60832.86
569.81	60608.17
569.97	60610.51
570.13	60928.83
570.30	60451.36
570.46	60608.17
570.62	60830.52
570.78	60722.86
570.95	60659.66
571.11	60823.50
571.27	60601.15
571.43	60619.88
571.60	60926.49
571.76	60846.91
571.92	60753.29
572.09	60692.43
572.25	60863.29
572.41	60772.01
572.57	60849.25
572.74	61052.87
572.90	60917.12
573.06	61017.77
573.22	60856.27
573.38	60734.56
573.55	60732.22
573.71	60865.63
573.87	60764.99
574.03	60741.58
574.20	60931.17
574.36	60942.87
574.52	61083.30
574.68	60970.96
574.84	60961.59
575.01	61134.79
575.17	60832.86
575.33	60837.54
575.49	60842.23
575.65	60973.30
575.82	61087.98
575.98	60935.85
576.14	61130.11
576.30	61109.05
576.46	60994.36
576.62	60921.80
576.79	61034.15
576.95	60811.80
577.11	60940.53
577.27	60970.96
577.43	61034.15
577.59	60982.66
577.75	60846.91
577.92	60867.97
578.08	60980.32
578.24	61127.77
578.40	61106.71
578.56	61078.62
578.72	60757.97
578.88	61066.92
579.04	61333.74
579.21	61125.43
579.37	61226.07
579.53	61174.58
579.69	60945.21
579.85	61113.73
580.01	61113.73
580.17	61015.43
580.33	61333.74
580.49	61111.39
580.65	61078.62
580.82	61127.77
580.98	61099.68
581.14	60931.17
581.30	61216.71
581.46	61315.01
581.62	61141.81
581.78	61172.24
581.94	61158.20
582.10	60954.57
582.26	61219.05
582.42	61183.94
582.58	61282.25
582.74	61066.92
582.90	61076.28
583.06	61092.66
583.22	60942.87
583.38	61186.28
583.54	61195.65
583.70	61200.33
583.86	61137.13
584.02	61062.24
584.18	61378.21
584.34	61118.41
584.50	61141.81
584.66	61212.03
584.82	61017.77
584.98	61322.04
585.14	61371.19
585.30	61176.92
585.46	61226.07
585.62	61162.88
585.78	61340.76
585.94	61268.20
586.10	61109.05
586.26	61289.27
586.42	61258.84
586.58	61427.36
586.74	61319.70
586.90	61174.58
587.06	61303.31
587.22	61183.94
587.38	61127.77
587.54	61467.15
587.70	61336.08
587.86	61286.93
588.02	61333.74
588.18	61415.66
588.34	61235.44
588.49	61188.63
588.65	61333.74
588.81	61289.27
588.97	61448.42
589.13	61420.34
589.29	61518.64
589.45	61399.27
589.61	61467.15
589.77	61649.71
589.93	61455.45
590.08	61628.65
590.24	61593.54
590.40	61635.67
590.56	61659.07
590.72	61539.71
590.88	61495.24
591.04	61357.14
591.20	61736.31
591.35	61797.16
591.51	61715.25
591.67	61733.97
591.83	61659.07
591.99	61455.45
592.15	61565.45
592.31	61673.12
592.46	61701.20
592.62	61640.35
592.78	61574.81
592.94	61740.99
593.10	61581.84
593.26	61586.52
593.41	61649.71
593.57	61661.41
593.73	61565.45
593.89	61895.47
594.05	61640.35
594.20	61708.22
594.36	61748.01
594.52	61612.26
594.68	61663.75
594.84	61439.06
594.99	61698.86
595.15	61722.27
595.31	61811.21
595.47	61675.46
595.62	61511.62
595.78	61661.41
595.94	61722.27
596.10	62059.30
596.25	61696.52
596.41	61799.50
596.57	61703.54
596.73	62031.22
596.88	61778.44
597.04	61872.06
597.20	61815.89
597.36	61937.60
597.51	62169.31
597.67	61722.27
597.83	61626.31
597.99	61935.26
598.14	61759.72
598.30	61855.68
598.46	62052.28
598.61	61764.40
598.77	61553.75
598.93	61951.64
599.09	61874.40
599.24	62145.90
599.40	61836.95
599.56	61769.08
599.71	62028.88
599.87	61963.34
600.03	61937.60
600.18	61895.47
600.34	61577.15
600.50	61888.45
600.65	61977.39
600.81	61965.68
600.97	62038.24
601.12	61909.51
601.28	61745.67
601.44	61820.57
601.59	61883.76
601.75	61968.02
601.91	62253.57
602.06	62052.28
602.22	62267.61
602.37	61839.29
602.53	62138.88
602.69	61968.02
602.84	61928.23
603.00	61759.72
603.16	61923.55
603.31	62092.07
603.47	62033.56
603.62	61935.26
603.78	62021.86
603.94	62101.43
604.09	62082.71
604.25	62007.81
604.40	61909.51
604.56	61998.45
604.71	62173.99
604.87	61897.81
605.03	61984.41
605.18	61993.77
605.34	62063.99
605.49	61848.66
605.65	61956.32
605.80	62080.37
605.96	62113.14
606.12	61996.11
606.27	62113.14
606.43	61893.13
606.58	62101.43
606.74	61925.89
606.89	61710.56
607.05	61939.94
607.20	62110.80
607.36	61773.76
607.51	61773.76
607.67	61764.40
607.82	61916.53
607.98	61858.02
608.13	61853.34
608.29	61893.13
608.44	61839.29
608.60	61680.14
608.75	62089.73
608.91	61783.12
609.06	61773.76
609.22	61911.85
609.37	61642.69
609.53	61965.68
609.68	62033.56
609.84	61680.14
609.99	61694.18
610.15	61797.16
610.30	61836.95
610.46	61846.32
610.61	62005.47
610.76	61757.38
610.92	61708.22
611.07	61586.52
611.23	61825.25
611.38	61872.06
611.54	61848.66
611.69	61708.22
611.84	61783.12
612.00	61757.38
612.15	61490.55
612.31	61799.50
612.46	61645.03
612.62	61694.18
612.77	61738.65
612.92	61755.03
613.08	61577.15
613.23	61748.01
613.39	61579.49
613.54	61464.81
613.69	61399.27
613.85	61684.82
614.00	61499.92
614.15	61633.33
614.31	61439.06
614.46	61684.82
614.62	61495.24
614.77	61736.31
614.92	61619.28
615.08	61635.67
615.23	61535.02
615.38	61673.12
615.54	61303.31
615.69	61513.96
615.84	61415.66
616.00	61703.54
616.15	61703.54
616.30	61595.88
616.46	61481.19
616.61	61359.48
616.76	61553.75
616.92	61254.16
617.07	61661.41
617.22	61221.39
617.37	61488.21
617.53	61598.22
617.68	61565.45
617.83	61485.87
617.99	61539.71
618.14	61467.15
618.29	61504.60
618.45	61406.30
618.60	61048.19
618.75	61319.70
618.90	61396.93
619.06	61368.85
619.21	61410.98
619.36	61525.66
619.51	61478.85
619.67	61385.23
619.82	61418.00
619.97	61347.78
620.12	61317.35
620.28	61022.45
620.43	61212.03
620.58	61247.14
620.73	61076.28
620.89	61247.14
621.04	61322.04
621.19	61181.60
621.34	61038.83
621.49	61092.66
621.65	61148.84
621.80	61340.76
621.95	60907.76
622.10	61293.95
622.25	61106.71
622.41	61125.43
622.56	60975.64
622.71	60977.98
622.86	60987.34
623.01	60877.33
623.16	60982.66
623.32	60898.40
623.47	61153.52
623.62	61062.24
623.77	60889.04
623.92	61066.92
624.07	61006.06
624.23	60910.10
624.38	61137.13
624.53	60776.69
624.68	60870.31
624.83	60849.25
624.98	60879.67
625.13	60673.71
625.29	60956.91
625.44	60807.12
625.59	60987.34
625.74	60757.97
625.89	60662.00
626.04	60779.03
626.19	60530.93
626.34	60662.00
626.49	60479.44
626.65	60589.45
626.80	60823.50
626.95	60542.64
627.10	60327.31
627.25	60612.85
627.40	60547.32
627.55	60420.93
627.70	60559.02
627.85	60381.14
628.00	60472.42
628.15	60636.26
628.30	60336.67
628.45	60425.61
628.60	60402.21
628.76	60383.48
628.91	60568.38
629.06	60608.17
629.21	60535.62
629.36	60451.36
629.51	60542.64
629.66	60362.42
629.81	60397.52
629.96	60193.90
630.11	60348.37
630.26	60324.97
630.41	60416.25
630.56	60158.79
630.71	60252.41
630.86	60488.80
631.01	60097.94
631.16	60507.53
631.31	60086.23
631.46	59917.71
631.61	60224.32
631.76	60151.77
631.91	60243.05
632.06	60236.03
632.21	60357.74
632.36	60226.66
632.51	59877.93
632.66	60006.65
632.81	59936.44
632.96	60240.71
633.10	59985.59
633.25	60023.04
633.40	60161.13
633.55	60034.74
633.70	59997.29
633.85	59721.11
634.00	59803.03
634.15	59955.16
634.30	59880.27
634.45	59938.78
634.60	60231.35
634.75	60088.57
634.90	59840.48
635.05	59791.33
635.19	59707.07
635.34	60055.81
635.49	59990.27
635.64	59763.24
635.79	59828.77
635.94	59784.30
636.09	59700.04
636.24	59634.51
636.39	59702.38
636.53	59678.98
636.68	59697.70
636.83	59604.08
636.98	59938.78
637.13	59751.54
637.28	59690.68
637.43	59791.33
637.57	59763.24
637.72	59517.48
637.87	59693.02
638.02	59639.19
638.17	59786.64
638.32	59646.21
638.46	59590.04
638.61	59594.72
638.76	59419.18
638.91	59531.53
639.06	59503.44
639.20	59409.82
639.35	59409.82
639.50	59269.39
639.65	59363.01
639.80	59484.72
639.94	59260.02
640.09	59372.37
640.24	59297.47
640.39	59334.92
640.54	59236.62
640.68	59341.94
640.83	59393.43
640.98	59505.78
641.13	59133.63
641.27	59346.62
641.42	59107.89
641.57	59063.42
641.72	59262.36
641.86	59018.95
642.01	58927.67
642.16	58925.33
642.31	58997.88
642.45	59313.86
642.60	59386.41
642.75	59187.47
642.90	59128.95
643.04	59264.70
643.19	58908.94
643.34	59124.27
643.48	59117.25
643.63	59032.99
643.78	58939.37
643.93	59018.95
644.07	58951.07
644.22	58852.77
644.37	58749.79
644.51	59028.31
644.66	59044.69
644.81	59206.19
644.95	58784.90
645.10	58850.43
645.25	58866.81
645.39	58777.87
645.54	58831.71
645.69	58843.41
645.83	58953.41
645.98	58560.20
646.13	58691.27
646.27	58763.83
646.42	58761.49
646.57	58691.27
646.71	58740.42
646.86	58904.26
647.00	58585.95
647.15	58679.57
647.30	58637.44
647.44	58677.23
647.59	58721.70
647.74	58714.68
647.88	58674.89
648.03	58843.41
648.17	58525.10
648.32	58728.72
648.47	58574.25
648.61	58651.48
648.76	58590.63
648.90	58403.39
649.05	58677.23
649.20	58773.19
649.34	58415.09
649.49	58550.84
649.63	58499.35
649.78	58632.76
649.92	58389.34
650.07	58557.86
650.21	58459.56
650.36	58387.00
650.51	58401.05
650.65	58398.71
650.80	58623.40
650.94	58286.36
651.09	58052.31
651.23	57949.32
651.38	58145.93
651.52	58225.51
651.67	58087.42
651.81	58071.03
651.96	58101.46
652.10	58110.82
652.25	58230.19
652.39	58129.54
652.54	58178.70
652.68	58028.90
652.83	57921.24
652.97	57736.34
653.12	57907.19
653.26	58103.80
653.41	58204.44
653.55	57996.13
653.70	58045.29
653.84	58033.58
653.99	57872.09
654.13	57677.82
654.27	57762.08
654.42	57958.69
654.56	57932.94
654.71	57865.06
654.85	57961.03
655.00	58000.82
655.14	57731.65
655.29	57432.07
655.43	57663.78
655.57	57757.40
655.72	57623.99
655.86	57865.06
656.01	57539.73
656.15	57729.31
656.30	57762.08
656.44	58003.16
656.58	57909.53
656.73	57825.28
656.87	57595.90
657.01	57453.13
657.16	57844.00
657.30	57860.38
657.45	57549.09
657.59	57483.56
657.73	57179.29
657.88	57340.78
658.02	57640.37
658.16	57509.30
658.31	57315.04
658.45	57506.96
658.60	57303.34
658.74	57513.98
658.88	57329.08
659.03	57193.33
659.17	57190.99
659.31	57141.84
659.46	57048.22
659.60	57172.27
659.74	56931.19
659.89	57095.03
660.03	56811.82
660.17	56942.89
660.32	57013.11
660.46	56893.74
660.60	56992.04
660.74	57036.51
660.89	56715.86
661.03	56893.74
661.17	56832.89
661.32	56554.36
661.46	56626.92
661.60	56573.09
661.74	56755.65
661.89	56420.95
662.03	56699.48
662.17	56762.67
662.31	56460.74
662.46	56823.53
662.60	56729.90
662.74	56563.73
662.88	56420.95
663.03	56245.41
663.17	56355.42
663.31	55964.55
663.45	56353.08
663.60	56023.06
663.74	55899.01
663.88	55922.42
664.02	55976.25
664.17	56144.77
664.31	55861.57
664.45	55873.27
664.59	55854.54
664.73	56044.13
664.88	55861.57
665.02	55477.72
665.16	55405.16
665.30	55826.46
665.44	55732.84
665.59	55749.22
665.73	55578.36
665.87	55585.38
666.01	55723.47
666.15	55494.10
666.29	55255.37
666.44	55264.73
666.58	55161.75
666.72	55107.91
666.86	55238.98
667.00	55297.50
667.14	54831.73
667.28	54920.67
667.43	55119.62
667.57	55143.02
667.71	54759.17
667.85	54946.42
667.99	54897.27
668.13	54838.75
668.27	54719.38
668.41	54562.57
668.56	54642.15
668.70	54770.88
668.84	54508.74
668.98	54618.74
669.12	54581.29
669.26	54721.72
669.40	54461.93
669.54	54468.95
669.68	54557.89
669.82	54155.32
669.96	54391.71
670.10	54361.28
670.25	54485.33
670.39	54042.97
670.53	54017.22
670.67	53642.74
670.81	54136.59
670.95	54028.93
671.09	53991.48
671.23	53855.73
671.37	53738.70
671.51	53921.26
671.65	53787.85
671.79	53429.75
671.93	53727.00
672.07	53443.79
672.21	53029.52
672.35	53003.77
672.49	53111.44
672.63	53052.92
672.77	53052.92
672.91	53104.41
673.05	53169.95
673.19	53155.91
673.33	52772.06
673.47	52509.92
673.61	52996.75
673.75	52739.29
673.89	52271.18
674.03	52327.36
674.17	52310.97
674.31	52128.41
674.45	51847.55
674.59	52285.23
674.73	52266.50
674.87	52121.39
675.01	51653.28
675.15	51835.84
675.29	52128.41
675.43	51655.62
675.56	51393.48
675.70	51124.32
675.84	51412.21
675.98	50305.13
676.12	51171.13
676.26	51477.74
676.40	51224.96
676.54	50974.53
676.68	50997.93
676.82	50181.09
676.96	50703.03
677.10	50618.77
677.23	50328.54
677.37	50141.30
677.51	50590.68
677.65	49785.54
677.79	49411.05
677.93	49347.86
678.07	49663.83
678.21	49858.09
678.34	49535.10
678.48	49235.51
678.62	49071.67
678.76	48898.47
678.90	48718.25
679.04	48926.56
679.18	48994.43
679.31	48268.87
679.45	48217.38
679.59	48484.20
679.73	48479.52
679.87	48346.11
680.00	47859.27
680.14	47606.50
680.28	47702.46
680.42	47337.33
680.56	47173.50
680.70	47194.56
680.83	46845.82
680.97	46934.76
681.11	47250.74
681.25	46845.82
681.39	47065.83
681.52	46501.76
681.66	46195.15
681.80	46419.84
681.94	46237.28
682.07	46511.13
682.21	46246.65
682.35	45701.30
682.49	45535.12
682.62	45516.40
682.76	45963.44
682.90	45560.87
683.04	45619.38
683.17	44865.73
683.31	44762.75
683.45	44779.13
683.59	44648.06
683.72	44722.96
683.86	44540.39
684.00	44477.20
684.13	44425.71
684.27	43861.64
684.41	43721.21
684.55	44229.10
684.68	43838.23
684.82	43695.46
684.96	43517.58
685.09	43225.01
685.23	43000.32
685.37	42855.21
685.50	42656.26
685.64	42576.69
685.78	42707.76
685.91	42674.99
686.05	42534.56
686.19	41624.09
686.32	41780.90
686.46	41361.95
686.60	41109.17
686.73	41291.73
686.87	41322.16
687.01	41366.63
687.14	41137.26
687.28	40854.05
687.42	40980.44
687.55	40402.33
687.69	40631.70
687.82	40631.70
687.96	40329.77
688.10	39618.25
688.23	40322.75
688.37	39662.72
688.50	39845.28
688.64	39431.01
688.78	39281.21
688.91	38913.75
689.05	38595.43
689.18	38965.24
689.32	37879.23
689.46	38115.62
689.59	38218.61
689.73	38043.07
689.86	38174.14
690.00	37254.31
690.13	38108.60
690.27	37535.17
690.41	37713.05
690.54	37111.53
690.68	37308.14
690.81	36774.50
690.95	36971.10
691.08	37024.93
691.22	36629.38
691.35	36587.25
691.49	36392.99
691.62	36282.98
691.76	36079.36
691.89	35805.52
692.03	36081.70
692.16	35735.30
692.30	35622.95
692.43	35763.39
692.57	35056.54
692.70	34836.53
692.84	34988.67
692.97	34864.62
693.11	34710.14
693.24	34572.05
693.38	34220.97
693.51	34167.14
693.65	34073.52
693.78	33464.98
693.92	33916.70
694.05	33912.02
694.19	33479.02
694.32	33610.09
694.45	32809.63
694.59	32851.76
694.72	33216.88
694.86	32992.19
694.99	32622.39
695.13	32521.74
695.26	32165.98
695.39	31683.83
695.53	32034.91
695.66	31983.42
695.80	31894.48
695.93	32053.64
696.07	31065.93
696.20	31033.16
696.33	30888.05
696.47	31065.93
696.60	31138.49
696.73	30576.76
696.87	30920.82
697.00	30506.54
697.14	30433.99
697.27	30298.23
697.40	30300.58
697.54	30441.01
697.67	29731.83
697.80	29479.05
697.94	29570.33
698.07	29266.06
698.21	28854.12
698.34	29053.07
698.47	28926.68
698.61	28566.24
698.74	28379.00
698.87	28584.96
699.01	27978.76
699.14	28409.42
699.27	28182.39
699.40	28048.98
699.54	28259.63
699.67	27943.66
699.80	27477.89
699.94	27899.19
700.07	28004.51
700.20	27372.57
700.34	27440.44
700.47	26913.82
700.60	27054.25
700.73	26565.08
700.87	26141.44
701.00	26178.89
701.13	26122.72
701.26	26043.14
701.40	26115.70
701.53	26136.76
701.66	26033.78
701.79	25504.82
701.93	25502.48
702.06	25259.06
702.19	25240.34
702.32	25326.94
702.46	24856.49
702.59	24699.67
702.72	24624.78
702.85	24449.24
702.99	24589.67
703.12	24535.84
703.25	23946.02
703.38	24189.44
703.51	24226.89
703.65	23716.65
703.78	23604.30
703.91	23590.26
704.04	23428.76
704.17	23309.40
704.31	23459.19
704.44	22988.74
704.57	23056.62
704.70	23136.20
704.83	22597.87
704.96	22728.94
705.10	22249.13
705.23	22469.14
>>>>>End Processed Spectral Data<<<<<
