SpectraSuite Data File
++++++++++++++++++++++++++++++++++++
Date: Fri Oct 25 10:43:48 EDT 2013
User: price-jones
Dark Spectrum Present: No
Reference Spectrum Present: No
Number of Sampled Component Spectra: 1
Spectrometers: USB2+H05261
Integration Time (usec): 100000 (USB2+H05261)
Spectra Averaged: 1 (USB2+H05261)
Boxcar Smoothing: 0 (USB2+H05261)
Correct for Electrical Dark: No (USB2+H05261)
Strobe/Lamp Enabled: No (USB2+H05261)
Correct for Detector Non-linearity: No (USB2+H05261)
Correct for Stray Light: No (USB2+H05261)
Number of Pixels in Processed Spectrum: 2048
>>>>>Begin Processed Spectral Data<<<<<
365.73	105.32
365.92	105.32
366.12	105.32
366.32	79.58
366.52	4.68
366.72	25.75
366.91	30.43
367.11	25.75
367.31	79.58
367.51	23.41
367.70	2.34
367.90	21.06
368.10	35.11
368.30	0.00
368.49	60.85
368.69	0.00
368.89	32.77
369.09	0.00
369.28	16.38
369.48	0.00
369.68	91.28
369.87	84.26
370.07	37.45
370.27	107.66
370.47	250.44
370.66	423.64
370.86	386.19
371.06	414.27
371.25	543.00
371.45	393.21
371.65	402.57
371.84	491.51
372.04	470.45
372.24	414.27
372.44	447.04
372.63	521.94
372.83	545.34
373.03	482.15
373.22	498.53
373.42	575.77
373.62	545.34
373.81	596.84
374.01	601.52
374.21	571.09
374.40	540.66
374.60	550.03
374.79	554.71
374.99	557.05
375.19	566.41
375.38	561.73
375.58	503.22
375.78	552.37
375.97	566.41
376.17	681.10
376.37	592.16
376.56	589.82
376.76	629.60
376.95	594.50
377.15	636.63
377.35	678.76
377.54	627.26
377.74	571.09
377.93	559.39
378.13	678.76
378.33	657.69
378.52	653.01
378.72	610.88
378.91	706.84
379.11	697.48
379.31	641.31
379.50	655.35
379.70	699.82
379.89	648.33
380.09	648.33
380.28	704.50
380.48	746.63
380.68	671.73
380.87	669.39
381.07	657.69
381.26	681.10
381.46	723.23
381.65	627.26
381.85	739.61
382.04	620.24
382.24	725.57
382.43	653.01
382.63	643.65
382.83	739.61
383.02	699.82
383.22	748.97
383.41	596.84
383.61	727.91
383.80	837.91
384.00	746.63
384.19	812.17
384.39	833.23
384.58	819.19
384.78	833.23
384.97	887.06
385.17	765.36
385.36	819.19
385.56	772.38
385.75	802.80
385.95	849.61
386.14	837.91
386.34	718.54
386.53	826.21
386.72	798.12
386.92	917.49
387.11	877.70
387.31	898.77
387.50	809.83
387.70	877.70
387.89	868.34
388.09	880.04
388.28	866.00
388.48	856.64
388.67	929.19
388.86	964.30
389.06	936.21
389.25	992.39
389.45	987.71
389.64	987.71
389.84	889.40
390.03	891.74
390.22	999.41
390.42	997.07
390.61	1025.15
390.81	1034.52
391.00	999.41
391.19	1078.99
391.39	992.39
391.58	1029.84
391.78	1078.99
391.97	1076.65
392.16	1064.94
392.36	1172.61
392.55	1048.56
392.75	957.28
392.94	992.39
393.13	1008.77
393.33	985.37
393.52	1039.20
393.71	1118.78
393.91	1121.12
394.10	1123.46
394.29	1078.99
394.49	1163.25
394.68	1226.44
394.88	1207.72
395.07	1205.38
395.26	1219.42
395.46	1217.08
395.65	1170.27
395.84	1235.80
396.04	1277.93
396.23	1104.73
396.42	1139.84
396.62	1224.10
396.81	1231.12
397.00	1184.31
397.19	1228.78
397.39	1275.59
397.58	1320.06
397.77	1350.49
397.97	1434.75
398.16	1467.52
398.35	1441.77
398.55	1366.87
398.74	1504.96
398.93	1500.28
399.12	1432.41
399.32	1465.18
399.51	1469.86
399.70	1572.84
399.90	1469.86
400.09	1556.46
400.28	1596.25
400.47	1659.44
400.67	1666.46
400.86	1654.76
401.05	1528.37
401.24	1582.20
401.44	1720.29
401.63	1729.66
401.82	1680.50
402.01	1624.33
402.21	1640.72
402.40	1720.29
402.59	1785.83
402.78	1685.19
402.97	1771.79
403.17	1682.85
403.36	1785.83
403.55	1942.64
403.74	1872.43
403.93	1865.41
404.13	1926.26
404.32	1832.64
404.51	1797.53
404.70	1937.96
404.89	1902.86
405.09	2026.90
405.28	1947.33
405.47	1959.03
405.66	1888.81
405.85	1963.71
406.05	1975.41
406.24	1926.26
406.43	1912.22
406.62	2118.18
406.81	2066.69
407.00	1982.43
407.20	1984.77
407.39	1956.69
407.58	2125.21
407.77	2314.79
407.96	2181.38
408.15	2235.21
408.34	2176.70
408.54	2296.07
408.73	2258.62
408.92	2223.51
409.11	2314.79
409.30	2314.79
409.49	2221.17
409.68	2279.68
409.87	2270.32
410.07	2373.30
410.26	2361.60
410.45	2349.90
410.64	2359.26
410.83	2586.29
411.02	2548.84
411.21	2684.59
411.40	2478.63
411.59	2567.57
411.78	2539.48
411.98	2612.04
412.17	2670.55
412.36	2656.51
412.55	2675.23
412.74	2637.78
412.93	2670.55
413.12	2686.94
413.31	2883.54
413.50	2792.26
413.69	2848.43
413.88	2881.20
414.07	2743.11
414.26	2930.35
414.45	2902.26
414.64	3066.10
414.83	2953.76
415.02	2988.86
415.22	3014.61
415.41	3075.46
415.60	3047.38
415.79	3091.85
415.98	3379.73
416.17	3138.66
416.36	3269.73
416.55	3253.34
416.74	3208.87
416.93	3119.93
417.12	3344.63
417.31	3311.86
417.50	3365.69
417.69	3346.97
417.88	3300.16
418.07	3396.12
418.26	3581.02
418.45	3482.72
418.64	3534.21
418.83	3552.93
419.02	3534.21
419.21	3695.71
419.39	3564.64
419.58	3627.83
419.77	3557.61
419.96	3592.72
420.15	3641.87
420.34	3796.35
420.53	3737.84
420.72	3833.80
420.91	3719.11
421.10	3779.97
421.29	3913.38
421.48	3859.54
421.67	3761.24
421.86	3751.88
422.05	3812.73
422.24	3782.31
422.43	3740.18
422.61	3824.44
422.80	3817.41
422.99	3850.18
423.18	3894.65
423.37	4063.17
423.56	3932.10
423.75	3857.20
423.94	3964.87
424.13	3613.79
424.32	3728.47
424.50	3990.61
424.69	4135.73
424.88	3948.48
425.07	3988.27
425.26	3946.14
425.45	4018.70
425.64	3978.91
425.83	3847.84
426.01	3976.57
426.20	3829.12
426.39	4021.04
426.58	3866.56
426.77	3955.51
426.96	4007.00
427.15	3999.98
427.33	4074.87
427.52	3948.48
427.71	4056.15
427.90	4203.60
428.09	4124.02
428.28	4133.39
428.46	4049.13
428.65	4053.81
428.84	4264.46
429.03	4231.69
429.22	4037.42
429.40	3992.95
429.59	3955.51
429.78	3962.53
429.97	3915.72
430.16	4039.76
430.34	3948.48
430.53	4156.79
430.72	4065.51
430.91	4198.92
431.10	4367.44
431.28	4573.41
431.47	4678.73
431.66	4557.02
431.85	4526.60
432.03	4568.73
432.22	4578.09
432.41	4517.23
432.60	4575.75
432.79	4634.26
432.97	4727.88
433.16	4599.15
433.35	4737.24
433.54	4702.14
433.72	4706.82
433.91	4662.35
434.10	4613.20
434.28	4791.08
434.47	4816.82
434.66	4961.94
434.85	4973.64
435.03	4910.44
435.22	4795.76
435.41	5013.43
435.59	4945.55
435.78	5102.37
435.97	5240.46
436.16	5266.21
436.34	5128.11
436.53	5048.54
436.72	5125.77
436.90	5032.15
437.09	5188.97
437.28	5043.85
437.46	5107.05
437.65	5219.39
437.84	5114.07
438.02	5193.65
438.21	5160.88
438.40	5153.86
438.58	5275.57
438.77	5472.17
438.96	5366.85
439.14	5472.17
439.33	5446.43
439.52	5610.26
439.70	5446.43
439.89	5799.85
440.08	5600.90
440.26	5603.24
440.45	5820.91
440.63	5799.85
440.82	5989.43
441.01	5884.11
441.19	5888.79
441.38	5907.51
441.57	5912.19
441.75	6125.18
441.94	6300.72
442.12	6307.74
442.31	6312.42
442.50	6394.34
442.68	6429.45
442.87	6338.17
443.05	6326.47
443.24	6480.94
443.43	6403.71
443.61	6422.43
443.80	6520.73
443.98	6296.04
444.17	6108.80
444.35	6476.26
444.54	6588.61
444.73	6466.90
444.91	6377.96
445.10	6300.72
445.28	6314.77
445.47	6413.07
445.65	6207.10
445.84	6389.66
446.02	6502.01
446.21	6427.11
446.39	6516.05
446.58	6469.24
446.77	6590.95
446.95	6651.80
447.14	6626.06
447.32	6796.92
447.51	6724.36
447.69	6661.16
447.88	6761.81
448.06	6670.53
448.25	6750.10
448.43	6703.29
448.62	6771.17
448.80	6707.98
448.99	6628.40
449.17	6822.66
449.36	6862.45
449.54	6834.36
449.73	6841.39
449.91	6942.03
450.10	7096.50
450.28	7082.46
450.46	7089.48
450.65	7052.03
450.83	7190.13
451.02	7035.65
451.20	7171.40
451.39	7126.93
451.57	7185.44
451.76	7297.79
451.94	7194.81
452.13	7206.51
452.31	7157.36
452.49	7023.95
452.68	7131.61
452.86	7150.34
453.05	7311.83
453.23	7356.30
453.42	7309.49
453.60	7166.72
453.78	7353.96
453.97	7410.14
454.15	7353.96
454.34	7344.60
454.52	7555.25
454.70	7578.65
454.89	7639.51
455.07	7541.21
455.26	7616.10
455.44	7705.04
455.62	7812.71
455.81	7552.91
455.99	7728.45
456.17	7779.94
456.36	7805.69
456.54	7901.65
456.73	7929.74
456.91	8168.47
457.09	8077.19
457.28	8238.69
457.46	7950.80
457.64	7997.61
457.83	8030.38
458.01	7995.27
458.19	8339.33
458.38	8025.70
458.56	8383.80
458.74	8264.43
458.93	8175.49
459.11	8226.98
459.29	8191.88
459.48	8196.56
459.66	8098.25
459.84	8430.61
460.03	8547.64
460.21	8318.26
460.39	8479.76
460.57	8549.98
460.76	8482.10
460.94	8449.33
461.12	8744.24
461.31	8784.03
461.49	8702.11
461.67	8599.13
461.85	8872.97
462.04	8641.26
462.22	8837.86
462.40	8833.18
462.59	8751.26
462.77	8561.68
462.95	8868.29
463.13	8898.72
463.32	8945.53
463.50	8910.42
463.68	8961.91
463.86	8758.28
464.05	8868.29
464.23	8999.36
464.41	9149.15
464.59	8898.72
464.78	9188.94
464.96	9025.11
465.14	8922.12
465.32	9055.53
465.50	9294.27
465.69	9385.55
465.87	9259.16
466.05	9170.22
466.23	8924.46
466.41	9277.88
466.60	9303.63
466.78	9205.33
466.96	9165.54
467.14	9179.58
467.32	9142.13
467.51	9350.44
467.69	9151.49
467.87	9387.89
468.05	9462.79
468.23	9327.03
468.41	9280.22
468.60	9504.92
468.78	9621.94
468.96	9369.16
469.14	9589.17
469.32	9610.24
469.50	9394.91
469.69	9603.22
469.87	9809.19
470.05	9811.53
470.23	9825.57
470.41	9563.43
470.59	9872.38
470.77	9923.87
470.95	9975.36
471.14	10118.14
471.32	9898.13
471.50	10204.74
471.68	10214.10
471.86	10408.36
472.04	10314.74
472.22	10567.52
472.40	10169.63
472.58	10270.27
472.77	10539.43
472.95	10408.36
473.13	10794.55
473.31	10506.66
473.49	10413.04
473.67	10485.60
473.85	10588.58
474.03	10885.83
474.21	10899.87
474.39	10965.41
474.57	10953.71
474.75	11147.97
474.93	11304.79
475.12	11009.88
475.30	11370.32
475.48	11124.57
475.66	11236.91
475.84	11229.89
476.02	11379.68
476.20	11337.56
476.38	11559.91
476.56	11971.84
476.74	11859.49
476.92	11646.51
477.10	11723.74
477.28	12072.48
477.46	12042.06
477.64	12154.40
477.82	12325.26
478.00	12685.70
478.18	12470.37
478.36	12255.04
478.54	12720.81
478.72	12533.57
478.90	12727.83
479.08	13104.66
479.26	13048.49
479.44	13319.99
479.62	13263.82
479.80	13453.40
479.98	13652.34
480.16	13626.60
480.34	13561.06
480.52	13621.92
480.70	13352.76
480.88	13572.77
481.06	14073.64
481.24	13930.87
481.41	14047.90
481.59	14106.41
481.77	14284.29
481.95	14230.46
482.13	14516.00
482.31	14429.40
482.49	14843.68
482.67	14890.49
482.85	15124.54
483.03	15110.50
483.21	15016.88
483.39	15382.00
483.57	15117.52
483.74	15431.15
483.92	15466.26
484.10	15555.20
484.28	15786.91
484.46	16112.25
484.64	16203.53
484.82	15971.82
485.00	16060.76
485.18	16301.83
485.35	16451.63
485.53	16058.42
485.71	16212.89
485.89	16264.38
486.07	16308.85
486.25	16418.86
486.43	16737.17
486.61	16783.98
486.78	17099.95
486.96	17305.92
487.14	17556.36
487.32	17387.84
487.50	17825.52
487.68	18127.45
487.85	18113.41
488.03	18434.06
488.21	18436.40
488.39	18494.91
488.57	18635.35
488.75	18544.06
488.92	19028.56
489.10	19152.60
489.28	19428.79
489.46	19555.18
489.64	19417.08
489.81	20027.96
489.99	20025.62
490.17	19934.34
490.35	20102.86
490.53	20350.96
490.70	20184.78
490.88	20318.19
491.06	20690.34
491.24	20496.07
491.41	20374.36
491.59	20933.75
491.77	20711.40
491.95	20844.81
492.13	21118.65
492.30	21509.52
492.48	21680.38
492.66	21839.54
492.84	21549.31
493.01	21996.35
493.19	21876.99
493.37	22146.15
493.54	22190.62
493.72	22466.80
493.90	22689.15
494.08	22745.33
494.25	23021.51
494.43	23019.17
494.61	23204.07
494.79	23314.08
494.96	23428.76
495.14	23297.69
495.32	23506.00
495.49	23517.70
495.67	23988.15
495.85	23859.42
496.02	24247.95
496.20	24091.13
496.38	24088.79
496.55	24416.47
496.73	24807.34
496.91	24793.29
497.09	25125.65
497.26	25097.56
497.44	24795.64
497.62	24741.80
497.79	25350.34
497.97	24910.32
498.14	24945.43
498.32	25530.56
498.50	25823.13
498.67	25895.69
498.85	25851.22
499.03	25715.47
499.20	26008.03
499.38	26321.66
499.56	26106.34
499.73	26682.11
499.91	26518.27
500.08	26541.68
500.26	26204.64
500.44	26422.31
500.61	26675.09
500.79	26387.20
500.97	26529.97
501.14	26948.93
501.32	26871.69
501.49	26864.67
501.67	27096.38
501.84	27068.30
502.02	27388.95
502.20	27791.52
502.37	27576.19
502.55	27601.94
502.72	28053.66
502.90	27873.44
503.07	27824.29
503.25	28189.41
503.43	27938.97
503.60	28128.56
503.78	27924.93
503.95	28142.60
504.13	28341.55
504.30	28168.35
504.48	28418.78
504.65	28893.91
504.83	28620.07
505.01	28989.88
505.18	28730.08
505.36	29277.76
505.53	29319.89
505.71	29675.65
505.88	29378.40
506.06	29415.85
506.23	29476.71
506.41	29317.55
506.58	29834.81
506.76	29553.94
506.93	29614.80
507.11	29890.98
507.28	29631.18
507.46	29741.19
507.63	29677.99
507.81	29954.18
507.98	30054.82
508.16	30338.02
508.33	30487.82
508.50	30483.14
508.68	30632.93
508.85	30899.75
509.03	30962.95
509.20	30593.14
509.38	31386.58
509.55	31468.50
509.73	30892.73
509.90	31122.10
510.08	31063.59
510.25	31304.67
510.42	31182.96
510.60	31356.16
510.77	31615.96
510.95	31866.39
511.12	31805.54
511.30	31896.82
511.47	32128.53
511.64	32250.24
511.82	32697.28
511.99	31627.66
512.17	32229.18
512.34	32233.86
512.51	32655.15
512.69	32591.96
512.86	32547.49
513.04	32992.19
513.21	32496.00
513.38	32505.36
513.56	32563.87
513.73	32610.68
513.90	32891.55
514.08	32774.52
514.25	32968.79
514.43	32718.35
514.60	33479.02
514.77	33083.47
514.95	33982.24
515.12	33474.34
515.29	33123.26
515.47	33848.83
515.64	34033.73
515.81	33818.40
515.99	33479.02
516.16	33795.00
516.33	33488.38
516.51	33518.81
516.68	32924.32
516.85	33436.89
517.03	33464.98
517.20	33839.47
517.37	34572.05
517.54	34089.90
517.72	34160.12
517.89	33757.55
518.06	34183.52
518.24	33780.95
518.41	33818.40
518.58	34356.72
518.75	34513.54
518.93	34892.71
519.10	34668.02
519.27	35075.27
519.45	34871.64
519.62	35243.79
519.79	35133.78
519.96	35601.89
520.14	35077.61
520.31	35215.70
520.48	35592.53
520.65	35033.14
520.83	35615.93
521.00	35861.69
521.17	35648.70
521.34	35695.51
521.52	35852.33
521.69	35859.35
521.86	36140.21
522.03	36208.09
522.20	36154.26
522.38	36102.76
522.55	35997.44
522.72	36030.21
522.89	35943.61
523.07	36694.92
523.24	36271.28
523.41	36840.03
523.58	36744.07
523.75	37034.30
523.92	37001.53
524.10	36996.85
524.27	37102.17
524.44	36903.23
524.61	37146.64
524.78	37708.37
524.96	37174.73
525.13	37354.95
525.30	37415.80
525.47	37558.58
525.64	37586.66
525.81	37289.42
525.98	37523.47
526.16	37448.57
526.33	37233.24
526.50	37696.67
526.67	37289.42
526.84	37251.97
527.01	37666.24
527.18	37593.68
527.36	37933.06
527.53	38312.23
527.70	38043.07
527.87	38174.14
528.04	37956.47
528.21	38242.01
528.38	38256.06
528.55	38487.77
528.72	38333.29
528.89	38899.70
529.07	38359.04
529.24	38227.97
529.41	38698.42
529.58	38508.83
529.75	38265.42
529.92	38960.56
530.09	39257.81
530.26	38780.34
530.43	39260.15
530.60	38480.75
530.77	39058.86
530.94	39218.02
531.11	38780.34
531.28	39023.75
531.46	39325.68
531.63	39732.93
531.80	39164.18
531.97	39108.01
532.14	39091.63
532.31	38625.86
532.48	39597.18
532.65	39297.59
532.82	39201.63
532.99	39421.64
533.16	39377.17
533.33	39730.59
533.50	40041.88
533.67	39662.72
533.84	39735.27
534.01	39779.74
534.18	39648.68
534.35	40023.16
534.52	39601.86
534.69	40554.46
534.86	40179.98
535.03	39992.73
535.20	40671.49
535.37	40645.74
535.54	40505.31
535.71	40353.18
535.88	40493.61
536.05	40346.15
536.22	40191.68
536.38	40727.66
536.55	40257.21
536.72	40741.71
536.89	40299.34
537.06	40662.13
537.23	41167.68
537.40	40856.39
537.57	41326.84
537.74	40624.68
537.91	41265.99
538.08	41134.92
538.25	40947.67
538.42	41244.92
538.59	40921.93
538.75	40982.78
538.92	40917.25
539.09	41256.62
539.26	41357.27
539.43	41258.96
539.60	41261.30
539.77	41043.63
539.94	40982.78
540.11	40645.74
540.28	41303.43
540.44	41282.37
540.61	41134.92
540.78	40917.25
540.95	41443.87
541.12	41420.46
541.29	41490.68
541.46	41565.57
541.62	41984.53
541.79	41813.67
541.96	41490.68
542.13	41734.09
542.30	42178.79
542.47	41535.15
542.63	41745.80
542.80	41963.46
542.97	42511.15
543.14	42319.23
543.31	42588.39
543.48	42555.62
543.64	42625.84
543.81	42632.86
543.98	42838.83
544.15	42237.31
544.32	42740.52
544.48	43154.80
544.65	42864.57
544.82	42642.22
544.99	42557.96
545.16	42981.60
545.32	42684.35
545.49	43271.82
545.66	43253.10
545.83	43037.77
546.00	42864.57
546.16	43295.23
546.33	43173.52
546.50	43100.97
546.67	42768.61
546.83	42684.35
547.00	42717.12
547.17	43302.25
547.34	42897.34
547.50	43440.34
547.67	43285.87
547.84	42735.84
548.00	44020.80
548.17	43519.92
548.34	43508.22
548.51	43442.68
548.67	43910.79
548.84	43566.73
549.01	43234.38
549.18	43744.61
549.34	43536.30
549.51	43714.19
549.68	44067.61
549.84	43681.42
550.01	44095.69
550.18	43676.74
550.34	44222.08
550.51	43985.69
550.68	43721.21
550.84	43899.09
551.01	44196.34
551.18	44128.46
551.34	43777.38
551.51	43990.37
551.68	44439.75
551.84	43903.77
552.01	43934.20
552.18	43917.81
552.34	44076.97
552.51	44083.99
552.68	43770.36
552.84	44341.45
553.01	44404.64
553.18	44325.07
553.34	44140.16
553.51	44018.46
553.67	44318.04
553.84	44905.52
554.01	44779.13
554.17	44421.03
554.34	44552.10
554.51	44563.80
554.67	44680.83
554.84	44596.57
555.00	44348.47
555.17	44650.40
555.33	44570.82
555.50	44458.48
555.67	44818.92
555.83	44992.12
556.00	44383.58
556.16	45116.17
556.33	44896.16
556.50	44573.16
556.66	44889.13
556.83	44287.62
556.99	44772.11
557.16	45041.27
557.32	45125.53
557.49	44982.76
557.65	44697.21
557.82	44779.13
557.98	45158.30
558.15	45067.02
558.32	44914.88
558.48	44900.84
558.65	44659.76
558.81	45228.51
558.98	45120.85
559.14	45015.52
559.31	45083.40
559.47	45041.27
559.64	45024.89
559.80	44900.84
559.97	45205.11
560.13	44992.12
560.30	45436.82
560.46	45333.84
560.63	45382.99
560.79	45429.80
560.96	45453.20
561.12	45202.77
561.29	45303.41
561.45	45141.91
561.61	45469.59
561.78	44992.12
561.94	44966.37
562.11	45216.81
562.27	45277.66
562.44	45263.62
562.60	45446.18
562.77	45675.55
562.93	45113.83
563.10	45694.28
563.26	44914.88
563.42	45614.70
563.59	45165.32
563.75	45202.77
563.92	45638.11
564.08	45371.28
564.24	45631.08
564.41	45701.30
564.57	45418.10
564.74	45308.09
564.90	45301.07
565.07	45485.97
565.23	45523.42
565.39	45380.65
565.56	45605.34
565.72	45130.21
565.88	45638.11
566.05	45631.08
566.21	45687.26
566.38	45570.23
566.54	45518.74
566.70	45708.32
566.87	45457.88
567.03	45750.45
567.19	46155.36
567.36	46045.36
567.52	45425.12
567.68	45993.87
567.85	45628.74
568.01	45897.91
568.17	45727.05
568.34	45638.11
568.50	45705.98
568.66	45450.86
568.83	46227.92
568.99	45322.13
569.15	45427.46
569.32	45715.34
569.48	45202.77
569.64	45720.02
569.81	45958.76
569.97	45982.16
570.13	46146.00
570.30	45294.05
570.46	45567.89
570.62	45640.45
570.78	45460.23
570.95	45551.51
571.11	45654.49
571.27	45624.06
571.43	45949.40
571.60	45762.15
571.76	45705.98
571.92	45607.68
572.09	46057.06
572.25	45478.95
572.41	45766.84
572.57	45830.03
572.74	46602.41
572.90	45797.26
573.06	45977.48
573.22	46307.50
573.38	45804.28
573.55	45546.82
573.71	46127.28
573.87	45977.48
574.03	45748.11
574.20	46129.62
574.36	45577.25
574.52	45708.32
574.68	45846.41
574.84	45963.44
575.01	45757.47
575.17	45492.99
575.33	45780.88
575.49	45600.66
575.65	45799.60
575.82	46153.02
575.98	45645.13
576.14	46101.53
576.30	46267.71
576.46	46000.89
576.62	46028.98
576.79	45904.93
576.95	46059.40
577.11	46101.53
577.27	46157.70
577.43	45776.20
577.59	45769.18
577.75	45956.42
577.92	45542.14
578.08	45717.68
578.24	45734.07
578.40	45680.24
578.56	46057.06
578.72	46146.00
578.88	46171.75
579.04	45773.86
579.21	45841.73
579.37	45991.53
579.53	45869.82
579.69	45757.47
579.85	46155.36
580.01	46131.96
580.17	46017.27
580.33	46153.02
580.49	46064.08
580.65	45647.47
580.82	45783.22
580.98	45961.10
581.14	45663.85
581.30	46148.34
581.46	46064.08
581.62	46241.96
581.78	45677.90
581.94	46202.18
582.10	46120.26
582.26	46174.09
582.42	45979.82
582.58	46028.98
582.74	46202.18
582.90	46216.22
583.06	46642.20
583.22	46087.49
583.38	46136.64
583.54	46298.14
583.70	46153.02
583.86	45895.56
584.02	45879.18
584.18	46148.34
584.34	45886.20
584.50	45743.43
584.66	46075.79
584.82	45717.68
584.98	46330.90
585.14	46031.32
585.30	45647.47
585.46	45815.99
585.62	46021.95
585.78	45645.13
585.94	45748.11
586.10	45783.22
586.26	45750.45
586.42	46216.22
586.58	46131.96
586.74	45911.95
586.90	45867.48
587.06	45787.90
587.22	46153.02
587.38	46469.00
587.54	46213.88
587.70	46190.47
587.86	45900.25
588.02	45830.03
588.18	45652.15
588.34	45930.67
588.49	45703.64
588.65	45404.05
588.81	45617.04
588.97	45785.56
589.13	45556.19
589.29	45869.82
589.45	46014.93
589.61	46113.23
589.77	46171.75
589.93	46120.26
590.08	46171.75
590.24	46225.58
590.40	46480.70
590.56	46583.68
590.72	46323.88
590.88	45839.39
591.04	46237.28
591.20	46527.51
591.35	46153.02
591.51	46440.91
591.67	46466.66
591.83	46600.07
591.99	45785.56
592.15	46153.02
592.31	46312.18
592.46	46469.00
592.62	46447.93
592.78	46263.03
592.94	46312.18
593.10	45925.99
593.26	46265.37
593.41	46351.97
593.57	46087.49
593.73	45914.29
593.89	45972.80
594.05	46094.51
594.20	46248.99
594.36	46277.07
594.52	46363.67
594.68	46295.80
594.84	45853.44
594.99	46265.37
595.15	45818.33
595.31	46347.29
595.47	46696.03
595.62	46251.33
595.78	46518.15
595.94	46630.49
596.10	46480.70
596.25	46232.60
596.41	46450.27
596.57	46227.92
596.73	46452.61
596.88	45813.65
597.04	46562.62
597.20	46590.70
597.36	46398.78
597.51	46466.66
597.67	46389.42
597.83	46754.54
597.99	46864.55
598.14	46038.34
598.30	46265.37
598.46	46153.02
598.61	46071.10
598.77	46103.87
598.93	46246.65
599.09	46110.89
599.24	46564.96
599.40	46639.86
599.56	46726.46
599.71	45972.80
599.87	46511.13
600.03	46108.55
600.18	46000.89
600.34	46260.69
600.50	46487.72
600.65	46005.57
600.81	46192.81
600.97	46583.68
601.12	46141.32
601.28	46490.06
601.44	45977.48
601.59	46218.56
601.75	45698.96
601.91	46040.68
602.06	45897.91
602.22	46511.13
602.37	46307.50
602.53	46174.09
602.69	46134.30
602.84	46206.86
603.00	45968.12
603.16	46237.28
603.31	46061.74
603.47	46183.45
603.62	46021.95
603.78	46223.24
603.94	45874.50
604.09	46478.36
604.25	45921.31
604.40	45862.80
604.56	46450.27
604.71	46057.06
604.87	45984.51
605.03	46450.27
605.18	46309.84
605.34	46300.48
605.49	45911.95
605.65	46174.09
605.80	46031.32
605.96	46354.31
606.12	46328.56
606.27	46202.18
606.43	45972.80
606.58	46319.20
606.74	45811.31
606.89	46178.77
607.05	45837.05
607.20	45916.63
607.36	46115.58
607.51	46263.03
607.67	46185.79
607.82	45979.82
607.98	46043.02
608.13	45823.01
608.29	45670.87
608.44	45705.98
608.60	45375.97
608.75	45886.20
608.91	45703.64
609.06	45914.29
609.22	46078.13
609.37	45464.91
609.53	45909.61
609.68	45696.62
609.84	45869.82
609.99	45652.15
610.15	45661.51
610.30	45546.82
610.46	45633.42
610.61	45436.82
610.76	45387.67
610.92	46213.88
611.07	45677.90
611.23	45233.19
611.38	45366.60
611.54	45656.83
611.69	45509.38
611.84	45572.57
612.00	45521.08
612.15	45411.07
612.31	45422.78
612.46	45207.45
612.62	45897.91
612.77	45743.43
612.92	45698.96
613.08	45134.89
613.23	44844.66
613.39	45162.98
613.54	44673.81
613.69	45076.38
613.85	45148.93
614.00	45422.78
614.15	45464.91
614.31	45034.25
614.46	44900.84
614.62	45366.60
614.77	45052.97
614.92	45057.65
615.08	45420.44
615.23	44893.82
615.38	44739.34
615.54	45085.74
615.69	45160.64
615.84	44910.20
616.00	44715.93
616.15	45010.84
616.30	45134.89
616.46	44816.58
616.61	44741.68
616.76	44626.99
616.92	44023.14
617.07	44381.24
617.22	44477.20
617.37	44678.49
617.53	44835.30
617.68	44858.71
617.83	44610.61
617.99	44191.65
618.14	44559.12
618.29	44652.74
618.45	44395.28
618.60	44107.40
618.75	44519.33
618.90	44074.63
619.06	44308.68
619.21	44449.11
619.36	44804.88
619.51	44083.99
619.67	44369.54
619.82	43814.83
619.97	44369.54
620.12	44093.35
620.28	44032.50
620.43	44107.40
620.58	44439.75
620.73	43875.68
620.89	44219.74
621.04	44076.97
621.19	44203.36
621.34	44233.78
621.49	43709.50
621.65	44074.63
621.80	44671.46
621.95	44069.95
622.10	44037.18
622.25	43988.03
622.41	43849.94
622.56	43775.04
622.71	44037.18
622.86	43861.64
623.01	43908.45
623.16	43903.77
623.32	43854.62
623.47	44048.88
623.62	43735.25
623.77	43770.36
623.92	43639.29
624.07	43784.40
624.23	43365.45
624.38	43283.53
624.53	43243.74
624.68	43569.07
624.83	43430.98
624.98	43456.73
625.13	42911.38
625.29	43290.55
625.44	43117.35
625.59	43117.35
625.74	43302.25
625.89	43215.65
626.04	43044.79
626.19	42990.96
626.34	43393.53
626.49	42944.15
626.65	43098.62
626.80	43601.84
626.95	43044.79
627.10	42841.17
627.25	43070.54
627.40	42747.54
627.55	42707.76
627.70	42213.90
627.85	42749.88
628.00	42703.07
628.15	42632.86
628.30	42513.49
628.45	42651.58
628.60	42841.17
628.76	42728.82
628.91	42593.07
629.06	42286.46
629.21	42117.94
629.36	41909.63
629.51	42113.26
629.66	42298.16
629.81	42309.86
629.96	42246.67
630.11	42288.80
630.26	42749.88
630.41	42164.75
630.56	42670.31
630.71	42419.87
630.86	42494.77
631.01	41818.35
631.16	41867.50
631.31	41684.94
631.46	41516.42
631.61	42192.84
631.76	42089.85
631.91	42043.04
632.06	41970.49
632.21	42270.08
632.36	42244.33
632.51	41811.33
632.66	41942.40
632.81	41202.79
632.96	41778.56
633.10	41677.92
633.25	41649.83
633.40	41855.80
633.55	42211.56
633.70	41691.96
633.85	41820.69
634.00	41865.16
634.15	41741.11
634.30	41497.70
634.45	41390.03
634.60	41804.31
634.75	41514.08
634.90	40907.88
635.05	41315.14
635.19	41511.74
635.34	41713.03
635.49	41502.38
635.64	41652.17
635.79	41155.98
635.94	41551.53
636.09	41294.07
636.24	41219.17
636.39	41104.49
636.53	41310.46
636.68	41043.63
636.83	40954.69
636.98	41345.56
637.13	40950.01
637.28	40961.72
637.43	41069.38
637.57	41064.70
637.72	40765.11
637.87	41099.81
638.02	40971.08
638.17	41008.53
638.32	41113.85
638.46	40959.38
638.61	40898.52
638.76	40692.55
638.91	41024.91
639.06	40823.62
639.20	41170.02
639.35	40840.01
639.50	40730.00
639.65	40608.29
639.80	40301.68
639.94	40596.59
640.09	40500.63
640.24	40535.74
640.39	40308.71
640.54	40430.41
640.68	40554.46
640.83	40397.65
640.98	40313.39
641.13	39990.39
641.27	40650.42
641.42	40395.31
641.57	39910.82
641.72	40250.19
641.86	39756.34
642.01	39971.67
642.16	39974.01
642.31	39646.33
642.45	40236.15
642.60	39426.32
642.75	39800.81
642.90	40325.09
643.04	40163.59
643.19	39864.00
643.34	39997.41
643.48	39941.24
643.63	39894.43
643.78	39821.87
643.93	40086.36
644.07	39945.92
644.22	39704.85
644.37	39405.26
644.51	39817.19
644.66	40236.15
644.81	39899.11
644.95	39810.17
645.10	39669.74
645.25	39985.71
645.39	39800.81
645.54	39402.92
645.69	39557.39
645.83	39512.92
645.98	39447.39
646.13	39578.46
646.27	39056.52
646.42	39456.75
646.57	39192.27
646.71	39512.92
646.86	39328.02
647.00	39393.56
647.15	39679.10
647.30	39234.40
647.44	39421.64
647.59	39100.99
647.74	39115.03
647.88	39044.82
648.03	39189.93
648.17	39466.11
648.32	38988.64
648.47	38857.57
648.61	38658.63
648.76	39541.01
648.90	38998.01
649.05	39119.71
649.20	38728.84
649.34	39098.65
649.49	38895.02
649.63	38845.87
649.78	38719.48
649.92	38850.55
650.07	39002.69
650.21	38455.00
650.36	38836.51
650.51	39019.07
650.65	39636.97
650.80	39143.12
650.94	38934.81
651.09	38796.72
651.23	38314.57
651.38	38621.18
651.52	38527.56
651.67	38398.83
651.81	38078.18
651.96	38078.18
652.10	38775.66
652.25	38562.67
652.39	38485.43
652.54	38714.80
652.68	38520.54
652.83	38253.72
652.97	38749.91
653.12	38227.97
653.26	37855.82
653.41	38101.58
653.55	38148.39
653.70	38550.96
653.84	37989.24
653.99	38237.33
654.13	37818.38
654.27	37844.12
654.42	37811.35
654.56	37926.04
654.71	38054.77
654.85	38000.94
655.00	37783.27
655.14	37928.38
655.29	37951.79
655.43	37408.78
655.57	37357.29
655.72	36898.55
655.86	37287.07
656.01	36858.76
656.15	37209.84
656.30	37481.34
656.44	37165.37
656.58	37251.97
656.73	37535.17
656.87	37481.34
657.01	36847.05
657.16	37532.83
657.30	37111.53
657.45	37057.70
657.59	36875.14
657.73	36809.61
657.88	37486.02
658.02	37415.80
658.16	37745.82
658.31	37502.40
658.45	37013.23
658.60	37273.03
658.74	37319.84
658.88	36858.76
659.03	36252.56
659.17	37071.75
659.31	36896.20
659.46	36685.56
659.60	36875.14
659.74	36694.92
659.89	36746.41
660.03	36257.24
660.17	36921.95
660.32	37020.25
660.46	36833.01
660.60	36744.07
660.74	36650.45
660.89	36568.53
661.03	36128.51
661.17	36636.41
661.32	36680.88
661.46	36219.79
661.60	36009.14
661.74	35892.12
661.89	36224.47
662.03	36140.21
662.17	35871.05
662.31	36116.81
662.46	35945.95
662.60	36383.63
662.74	35835.94
662.88	35775.09
663.03	35372.52
663.17	35658.06
663.31	35459.12
663.45	35761.05
663.60	35637.00
663.74	35562.10
663.88	35709.55
664.02	35613.59
664.17	35749.34
664.31	35082.29
664.45	35178.25
664.59	35302.30
664.73	35367.84
664.88	35241.45
665.02	34651.63
665.16	35056.54
665.30	34897.39
665.44	35033.14
665.59	34644.61
665.73	34815.47
665.87	34841.21
666.01	35042.50
666.15	34513.54
666.29	34663.33
666.44	34834.19
666.58	34312.25
666.72	34763.98
666.86	34569.71
667.00	34330.98
667.14	34038.41
667.28	34190.55
667.43	34291.19
667.57	34448.00
667.71	34153.10
667.85	33926.07
667.99	34279.49
668.13	34363.75
668.27	33975.22
668.41	34150.76
668.56	33766.91
668.70	33701.37
668.84	33771.59
668.98	33326.89
669.12	33387.74
669.26	33331.57
669.40	33462.64
669.54	33240.29
669.68	33216.88
669.82	32816.65
669.96	32847.08
670.10	33134.96
670.25	33170.07
670.39	33109.22
670.53	33003.89
670.67	32854.10
670.81	33055.39
670.95	32826.01
671.09	32795.59
671.23	32547.49
671.37	32870.48
671.51	32650.47
671.65	32680.90
671.79	32194.07
671.93	32339.18
672.07	32304.07
672.21	32304.07
672.35	31758.73
672.49	32437.48
672.63	32456.21
672.77	32198.75
672.91	32034.91
673.05	32009.17
673.19	31742.35
673.33	31723.62
673.47	31955.33
673.61	31770.43
673.75	31255.51
673.89	31498.93
674.03	31417.01
674.17	30934.86
674.31	31527.02
674.45	31051.89
674.59	31524.68
674.73	31302.32
674.87	31182.96
675.01	31089.34
675.15	31133.81
675.29	30593.14
675.43	30623.57
675.56	30691.44
675.70	30895.07
675.84	30710.17
675.98	29846.51
676.12	30490.16
676.26	30380.15
676.40	30071.20
676.54	30408.24
676.68	30366.11
676.82	29907.37
676.96	29963.54
677.10	29876.94
677.23	29872.26
677.37	29750.55
677.51	29600.76
677.65	29507.13
677.79	29064.77
677.93	29240.31
678.07	29226.27
678.21	28797.95
678.34	28940.72
678.48	28746.46
678.62	28849.44
678.76	28519.43
678.90	28336.87
679.04	28219.84
679.18	28217.50
679.31	28596.67
679.45	27777.48
679.59	28238.56
679.73	28072.39
679.87	27978.76
680.00	27857.06
680.14	27807.90
680.28	27718.96
680.42	28053.66
680.56	27318.73
680.70	27545.76
680.83	27206.39
680.97	27550.45
681.11	27520.02
681.25	27412.35
681.39	27248.52
681.52	27204.05
681.66	26958.29
681.80	26639.98
681.94	26780.41
682.07	26651.68
682.21	26174.21
682.35	26733.60
682.49	26398.90
682.62	26211.66
682.76	26258.47
682.90	26118.04
683.04	26405.92
683.17	25682.70
683.31	25783.34
683.45	25881.64
683.59	25357.36
683.72	25867.60
683.86	25525.88
684.00	25549.29
684.13	25455.67
684.27	25366.73
684.41	24954.79
684.55	24978.20
684.68	25184.16
684.82	25010.96
684.96	25013.31
685.09	24797.98
685.23	24652.86
685.37	24807.34
685.50	24599.03
685.64	24582.65
685.78	24369.66
685.91	24453.92
686.05	24229.23
686.19	23838.36
686.32	24053.69
686.46	23398.34
686.60	23522.38
686.73	23372.59
686.87	22965.34
687.01	23136.20
687.14	23386.63
687.28	22677.45
687.42	23152.58
687.55	22963.00
687.69	22864.69
687.82	22808.52
687.96	23381.95
688.10	22581.49
688.23	22651.70
688.37	22558.08
688.50	22438.72
688.64	22160.19
688.78	22354.46
688.91	21944.86
689.05	22530.00
689.18	21954.22
689.32	21561.02
689.46	22106.36
689.59	22359.14
689.73	22352.12
689.86	21832.52
690.00	21528.25
690.13	21935.50
690.27	21135.04
690.41	21198.23
690.54	21092.91
690.68	21088.23
690.81	21369.09
690.95	21050.78
691.08	21359.73
691.22	21001.63
691.35	20905.66
691.49	21310.58
691.62	20842.47
691.76	20706.72
691.89	21025.03
692.03	20610.76
692.16	20615.44
692.30	20283.08
692.43	20149.67
692.57	19934.34
692.70	20189.46
692.84	19978.81
692.97	19777.53
693.11	19894.55
693.24	19768.16
693.38	19484.96
693.51	19520.07
693.65	19857.10
693.78	19548.15
693.92	19442.83
694.05	19215.80
694.19	19255.59
694.32	19101.11
694.45	19197.07
694.59	19255.59
694.72	18902.17
694.86	18939.62
694.99	18782.80
695.13	18714.92
695.26	18621.30
695.39	18663.43
695.53	18710.24
695.66	18501.93
695.80	18441.08
695.93	18216.39
696.07	18249.16
696.20	18108.72
696.33	18347.46
696.47	18164.90
696.60	18120.43
696.73	17879.35
696.87	17818.50
697.00	17701.47
697.14	17256.77
697.27	17362.09
697.40	17350.39
697.54	17397.20
697.67	17289.54
697.80	17121.02
697.94	16982.93
698.07	17006.33
698.21	17188.89
698.34	17128.04
698.47	17050.80
698.61	16884.62
698.74	16730.15
698.87	16772.28
699.01	16524.18
699.14	16379.07
699.27	16315.87
699.40	16276.09
699.54	16390.77
699.67	16053.73
699.80	16084.16
699.94	15992.88
700.07	15894.58
700.20	15943.73
700.34	15620.74
700.47	15892.24
700.60	15903.94
700.73	15981.18
700.87	15749.46
701.00	15683.93
701.13	15604.35
701.26	15396.04
701.40	15267.31
701.53	15150.29
701.66	15356.25
701.79	15293.06
701.93	14649.41
702.06	14686.86
702.19	14998.15
702.32	15049.64
702.46	14647.07
702.59	15059.01
702.72	14740.69
702.85	14806.23
702.99	14717.29
703.12	14448.13
703.25	14293.65
703.38	14326.42
703.51	14368.55
703.65	14406.00
703.78	14228.12
703.91	13944.91
704.04	14071.30
704.17	13820.86
704.31	14052.58
704.44	13680.43
704.57	13731.92
704.70	13619.58
704.83	13378.50
704.96	13530.64
705.10	13659.37
705.23	13708.52
>>>>>End Processed Spectral Data<<<<<
