SpectraSuite Data File
++++++++++++++++++++++++++++++++++++
Date: Fri Oct 25 11:22:32 EDT 2013
User: price-jones
Dark Spectrum Present: No
Reference Spectrum Present: No
Number of Sampled Component Spectra: 1
Spectrometers: USB2+H05261
Integration Time (usec): 100000 (USB2+H05261)
Spectra Averaged: 1 (USB2+H05261)
Boxcar Smoothing: 0 (USB2+H05261)
Correct for Electrical Dark: No (USB2+H05261)
Strobe/Lamp Enabled: No (USB2+H05261)
Correct for Detector Non-linearity: No (USB2+H05261)
Correct for Stray Light: No (USB2+H05261)
Number of Pixels in Processed Spectrum: 2048
>>>>>Begin Processed Spectral Data<<<<<
365.73	241.08
365.92	241.08
366.12	241.08
366.32	182.56
366.52	152.13
366.72	128.73
366.91	152.13
367.11	117.03
367.31	154.48
367.51	154.48
367.70	67.88
367.90	117.03
368.10	86.60
368.30	133.41
368.49	32.77
368.69	65.54
368.89	133.41
369.09	161.50
369.28	159.16
369.48	152.13
369.68	173.20
369.87	140.43
370.07	168.52
370.27	189.58
370.47	301.93
370.66	603.86
370.86	634.29
371.06	653.01
371.25	643.65
371.45	594.50
371.65	697.48
371.84	713.86
372.04	657.69
372.24	671.73
372.44	653.01
372.63	718.54
372.83	695.14
373.03	732.59
373.22	667.05
373.42	746.63
373.62	718.54
373.81	784.08
374.01	835.57
374.21	844.93
374.40	809.83
374.60	830.89
374.79	837.91
374.99	788.76
375.19	896.43
375.38	830.89
375.58	868.34
375.78	826.21
375.97	814.51
376.17	929.19
376.37	795.78
376.56	870.68
376.76	891.74
376.95	875.36
377.15	957.28
377.35	863.66
377.54	868.34
377.74	863.66
377.93	816.85
378.13	933.87
378.33	929.19
378.52	924.51
378.72	954.94
378.91	964.30
379.11	950.26
379.31	950.26
379.50	985.37
379.70	964.30
379.89	919.83
380.09	880.04
380.28	992.39
380.48	983.02
380.68	978.34
380.87	929.19
381.07	1004.09
381.26	976.00
381.46	976.00
381.65	1043.88
381.85	973.66
382.04	1067.28
382.24	1057.92
382.43	1001.75
382.63	1036.86
382.83	1135.16
383.02	1097.71
383.22	1076.65
383.41	1088.35
383.61	1067.28
383.80	1170.27
384.00	1130.48
384.19	1132.82
384.39	1179.63
384.58	1123.46
384.78	1135.16
384.97	1172.61
385.17	1104.73
385.36	1132.82
385.56	1270.91
385.75	1172.61
385.95	1102.39
386.14	1174.95
386.34	1310.70
386.53	1160.91
386.72	1252.19
386.92	1228.78
387.11	1266.23
387.31	1163.25
387.50	1266.23
387.70	1261.55
387.89	1242.82
388.09	1280.27
388.28	1287.29
388.48	1355.17
388.67	1268.57
388.86	1282.61
389.06	1317.72
389.25	1338.79
389.45	1409.00
389.64	1322.40
389.84	1427.73
390.03	1385.60
390.22	1394.96
390.42	1336.45
390.61	1434.75
390.81	1364.53
391.00	1369.21
391.19	1465.18
391.39	1441.77
391.58	1430.07
391.78	1404.32
391.97	1474.54
392.16	1502.62
392.36	1397.30
392.55	1591.56
392.75	1500.28
392.94	1519.01
393.13	1500.28
393.33	1476.88
393.52	1577.52
393.71	1703.91
393.91	1547.09
394.10	1582.20
394.29	1596.25
394.49	1577.52
394.68	1610.29
394.88	1650.08
395.07	1724.97
395.26	1696.89
395.46	1614.97
395.65	1741.36
395.84	1713.27
396.04	1858.39
396.23	1792.85
396.42	1827.96
396.62	1792.85
396.81	1757.74
397.00	1736.68
397.19	1774.13
397.39	1867.75
397.58	1973.07
397.77	1853.70
397.97	1788.17
398.16	1905.20
398.35	1809.23
398.55	1916.90
398.74	1769.44
398.93	2099.46
399.12	1980.09
399.32	1984.77
399.51	2001.16
399.70	2073.71
399.90	2078.40
400.09	2118.18
400.28	2015.20
400.47	2031.58
400.67	2073.71
400.86	2104.14
401.05	2150.95
401.24	2157.97
401.44	2111.16
401.63	2235.21
401.82	2120.53
402.01	2005.84
402.21	2216.49
402.40	2150.95
402.59	2186.06
402.78	2232.87
402.97	2230.53
403.17	2298.41
403.36	2242.23
403.55	2275.00
403.74	2345.22
403.93	2361.60
404.13	2396.71
404.32	2406.07
404.51	2396.71
404.70	2485.65
404.89	2462.24
405.09	2527.78
405.28	2392.03
405.47	2455.22
405.66	2502.03
405.85	2546.50
406.05	2619.06
406.24	2626.08
406.43	2616.72
406.62	2705.66
406.81	2796.94
407.00	2612.04
407.20	2647.15
407.39	2628.42
407.58	2792.26
407.77	2829.71
407.96	2827.37
408.15	2771.19
408.34	2750.13
408.54	3014.61
408.73	2836.73
408.92	2792.26
409.11	2935.03
409.30	2937.37
409.49	2836.73
409.68	3073.12
409.87	3023.97
410.07	3012.27
410.26	3101.21
410.45	2916.31
410.64	3136.32
410.83	3218.24
411.02	3103.55
411.21	3311.86
411.40	3183.13
411.59	3353.99
411.78	3171.43
411.98	3049.72
412.17	3314.20
412.36	3534.21
412.55	3456.97
412.74	3489.74
412.93	3407.82
413.12	3438.25
413.31	3550.59
413.50	3581.02
413.69	3440.59
413.88	3534.21
414.07	3714.43
414.26	3754.22
414.45	3639.53
414.64	3691.02
414.83	3754.22
415.02	3873.59
415.22	3997.64
415.41	3885.29
415.60	3833.80
415.79	3939.12
415.98	4042.11
416.17	3960.19
416.36	4060.83
416.55	4109.98
416.74	4191.90
416.93	4119.34
417.12	4180.20
417.31	4229.35
417.50	4231.69
417.69	4404.89
417.88	4353.40
418.07	4425.95
418.26	4285.52
418.45	4262.12
418.64	4470.42
418.83	4425.95
419.02	4582.77
419.21	4477.44
419.39	4711.50
419.58	4512.55
419.77	4557.02
419.96	4557.02
420.15	4667.03
420.34	4566.39
420.53	4718.52
420.72	4709.16
420.91	4781.71
421.10	4641.28
421.29	4915.12
421.48	4674.05
421.67	4835.55
421.86	4762.99
422.05	4800.44
422.24	4723.20
422.43	4952.57
422.61	5015.77
422.80	4994.70
422.99	4856.61
423.18	5034.49
423.37	4992.36
423.56	5060.24
423.75	4938.53
423.94	4954.91
424.13	4624.90
424.32	4961.94
424.50	5064.92
424.69	5233.44
424.88	5139.82
425.07	4940.87
425.26	4880.02
425.45	5057.90
425.64	5015.77
425.83	5046.20
426.01	5069.60
426.20	5111.73
426.39	5214.71
426.58	5071.94
426.77	5195.99
426.96	5266.21
427.15	5203.01
427.33	5359.83
427.52	5146.84
427.71	5284.93
427.90	5404.30
428.09	5397.28
428.28	5596.22
428.46	5432.38
428.65	5472.17
428.84	5626.65
429.03	5547.07
429.22	5397.28
429.40	5589.20
429.59	5624.31
429.78	5469.83
429.97	5266.21
430.16	5469.83
430.34	5675.80
430.53	5776.44
430.72	5598.56
430.91	5645.37
431.10	5617.29
431.28	5973.05
431.47	5919.21
431.66	5823.25
431.85	5823.25
432.03	5937.94
432.22	6045.60
432.41	6071.35
432.60	5968.37
432.79	5996.45
432.97	6193.06
433.16	6029.22
433.35	6078.37
433.54	6127.52
433.72	6237.53
433.91	6256.25
434.10	6153.27
434.28	6136.88
434.47	6162.63
434.66	6434.13
434.85	6492.65
435.03	6375.62
435.22	6448.18
435.41	6597.97
435.59	6595.63
435.78	6403.71
435.97	6427.11
436.16	6504.35
436.34	6476.26
436.53	6532.44
436.72	6757.13
436.90	6520.73
437.09	6785.21
437.28	6471.58
437.46	6736.06
437.65	6555.84
437.84	6712.66
438.02	6942.03
438.21	6832.02
438.40	6626.06
438.58	7101.19
438.77	7080.12
438.96	6841.39
439.14	7208.85
439.33	7229.91
439.52	7307.15
439.70	7417.16
439.89	7349.28
440.08	7328.22
440.26	7550.57
440.45	7578.65
440.63	7613.76
440.82	7599.72
441.01	7557.59
441.19	7691.00
441.38	7868.88
441.57	7878.24
441.75	8028.04
441.94	8173.15
442.12	8042.08
442.31	8154.43
442.50	8210.60
442.68	8016.33
442.87	8098.25
443.05	8109.96
443.24	8138.04
443.43	8182.51
443.61	8451.67
443.80	8559.34
443.98	8159.11
444.17	7845.48
444.35	8315.92
444.54	8526.57
444.73	8397.84
444.91	8416.57
445.10	8695.09
445.28	8528.91
445.47	8365.07
445.65	8379.12
445.84	8557.00
446.02	8554.66
446.21	8465.72
446.39	8718.50
446.58	8643.60
446.77	8568.70
446.95	8248.05
447.14	8662.32
447.32	8634.24
447.51	8603.81
447.69	8533.59
447.88	8697.43
448.06	8760.63
448.25	8552.32
448.43	8723.18
448.62	8629.56
448.80	8791.05
448.99	8741.90
449.17	8711.47
449.36	8634.24
449.54	8872.97
449.73	8950.21
449.91	9022.77
450.10	8971.27
450.28	9165.54
450.46	9149.15
450.65	9289.59
450.83	9303.63
451.02	9254.48
451.20	9294.27
451.39	9462.79
451.57	9324.69
451.76	9238.09
451.94	9186.60
452.13	9406.61
452.31	9256.82
452.49	9291.93
452.68	9415.98
452.86	9537.68
453.05	9596.20
453.23	9469.81
453.42	9350.44
453.60	9394.91
453.78	9685.14
453.97	9626.62
454.15	9692.16
454.34	9500.23
454.52	9879.40
454.70	9891.10
454.89	9937.91
455.07	9874.72
455.26	10155.58
455.44	10022.17
455.62	10164.95
455.81	10071.33
455.99	10267.93
456.17	10209.42
456.36	9958.98
456.54	10312.40
456.73	10223.46
456.91	10675.18
457.09	10593.26
457.28	10700.93
457.46	10583.90
457.64	10415.38
457.83	10801.57
458.01	10532.41
458.19	10871.79
458.38	10689.23
458.56	10691.57
458.74	10813.28
458.93	10817.96
459.11	10932.64
459.29	10883.49
459.48	10977.11
459.66	10841.36
459.84	10958.39
460.03	11215.85
460.21	11044.99
460.39	11073.07
460.57	11391.39
460.76	11307.13
460.94	11033.29
461.12	11412.45
461.31	11337.56
461.49	11192.44
461.67	11236.91
461.85	11662.89
462.04	11602.04
462.22	12098.23
462.40	11669.91
462.59	11604.38
462.77	11508.41
462.95	11812.68
463.13	11698.00
463.32	11735.45
463.50	12056.10
463.68	11894.60
463.86	12065.46
464.05	11744.81
464.23	11829.07
464.41	12140.36
464.59	11709.70
464.78	12306.54
464.96	12161.42
465.14	12053.76
465.32	12269.09
465.50	12105.25
465.69	12180.15
465.87	12294.83
466.05	12358.03
466.23	12369.73
466.41	12299.52
466.60	12446.97
466.78	12339.30
466.96	12517.18
467.14	12559.31
467.32	12610.81
467.51	12657.62
467.69	12140.36
467.87	12456.33
468.05	12631.87
468.23	12636.55
468.41	12812.09
468.60	12706.77
468.78	12989.97
468.96	12758.26
469.14	13011.04
469.32	13397.23
469.50	12793.37
469.69	13186.58
469.87	13343.39
470.05	13315.31
470.23	13254.45
470.41	13385.52
470.59	13638.30
470.77	13357.44
470.95	13392.55
471.14	13767.03
471.32	13486.17
471.50	13752.99
471.68	13720.22
471.86	13762.35
472.04	13813.84
472.22	14230.46
472.40	13781.07
472.58	13834.91
472.77	14338.12
472.95	14422.38
473.13	14609.62
473.31	14125.13
473.49	14396.64
473.67	14508.98
473.85	14548.77
474.03	15094.11
474.21	14789.85
474.39	15061.35
474.57	15063.69
474.75	14923.26
474.93	15349.23
475.12	14984.11
475.30	15337.53
475.48	15433.49
475.66	15513.07
475.84	15379.66
476.02	15761.17
476.20	15756.49
476.38	15648.82
476.56	16376.73
476.74	16196.51
476.92	16201.19
477.10	15824.36
477.28	16554.61
477.46	16514.82
477.64	16606.10
477.82	16746.53
478.00	17064.85
478.18	17118.68
478.36	17104.64
478.54	17287.20
478.72	17383.16
478.90	17600.83
479.08	17785.73
479.26	18111.07
479.44	17855.95
479.62	18164.90
479.80	18239.79
479.98	18284.26
480.16	18743.01
480.34	18398.95
480.52	18817.91
480.70	18941.96
480.88	18562.79
481.06	18923.23
481.24	18934.93
481.41	19431.13
481.59	19929.66
481.77	19765.82
481.95	19894.55
482.13	20011.58
482.31	20056.05
482.49	20393.09
482.67	20299.47
482.85	20772.25
483.03	20683.31
483.21	21209.93
483.39	21319.94
483.57	21074.18
483.74	21235.68
483.92	21565.70
484.10	21294.19
484.28	22195.30
484.46	22148.49
484.64	22569.79
484.82	22185.94
485.00	22555.74
485.18	23094.07
485.35	23278.97
485.53	23007.47
485.71	23693.24
485.89	24023.26
486.07	23726.01
486.25	23686.22
486.43	23927.30
486.61	23922.62
486.78	24032.62
486.96	24741.80
487.14	24854.15
487.32	24805.00
487.50	25357.36
487.68	25132.67
487.85	25790.36
488.03	25781.00
488.21	26122.72
488.39	26115.70
488.57	26183.57
488.75	26848.29
488.92	26780.41
489.10	27178.30
489.28	27243.84
489.46	27686.20
489.64	27711.94
489.81	27908.55
489.99	28072.39
490.17	27990.47
490.35	28283.03
490.53	28641.14
490.70	28556.88
490.88	28549.85
491.06	29235.63
491.24	29001.58
491.41	29261.38
491.59	29502.45
491.77	29851.19
491.95	30054.82
492.13	30675.06
492.30	30232.70
492.48	30567.40
492.66	30637.61
492.84	31007.42
493.01	30862.30
493.19	31519.99
493.37	31367.86
493.54	31456.80
493.72	32165.98
493.90	32098.11
494.08	32149.60
494.25	32531.11
494.43	32390.67
494.61	32287.69
494.79	32636.43
494.96	33046.02
495.14	33170.07
495.32	33598.39
495.49	33727.12
495.67	33385.40
495.85	34314.59
496.02	34361.40
496.20	34436.30
496.38	34539.29
496.55	34646.95
496.73	35353.79
496.91	35248.47
497.09	35278.89
497.26	35608.91
497.44	35587.85
497.62	35941.27
497.79	36460.87
497.97	36018.50
498.14	36212.77
498.32	36945.36
498.50	36898.55
498.67	37092.81
498.85	36802.58
499.03	37280.05
499.20	37038.98
499.38	37853.48
499.56	37879.23
499.73	37825.40
499.91	38043.07
500.08	38188.18
500.26	37886.25
500.44	37989.24
500.61	38522.88
500.79	37867.53
500.97	38656.29
501.14	38859.91
501.32	39005.03
501.49	39234.40
501.67	38998.01
501.84	39522.29
502.02	39351.43
502.20	39997.41
502.37	39950.60
502.55	39831.24
502.72	39742.30
502.90	39653.36
503.07	39824.22
503.25	40512.33
503.43	40495.95
503.60	40638.72
503.78	40982.78
503.95	41261.30
504.13	41057.68
504.30	40959.38
504.48	41188.75
504.65	41467.27
504.83	41242.58
505.01	42394.12
505.18	41853.46
505.36	41933.04
505.53	41706.01
505.71	41918.99
505.88	42148.37
506.06	42064.11
506.23	42366.04
506.41	42623.50
506.58	42452.64
506.76	42263.05
506.93	42799.04
507.11	43124.37
507.28	43363.11
507.46	43250.76
507.63	43601.84
507.81	43409.92
507.98	43566.73
508.16	43849.94
508.33	44205.70
508.50	43882.70
508.68	44105.06
508.85	44528.69
509.03	44439.75
509.20	44994.46
509.38	45132.55
509.55	44898.50
509.73	45010.84
509.90	45347.88
510.08	45352.56
510.25	45155.96
510.42	45387.67
510.60	45605.34
510.77	45492.99
510.95	45715.34
511.12	45659.17
511.30	45844.07
511.47	45705.98
511.64	46356.65
511.82	46461.97
511.99	46520.49
512.17	46288.77
512.34	46368.35
512.51	46632.83
512.69	46780.29
512.86	46536.87
513.04	47234.35
513.21	47407.55
513.38	47117.32
513.56	47831.19
513.73	47152.43
513.90	47281.16
514.08	47498.83
514.25	47634.58
514.43	47936.51
514.60	47868.64
514.77	48039.50
514.95	48495.90
515.12	48240.78
515.29	48451.43
515.47	48657.40
515.64	48959.33
515.81	48545.05
515.99	48996.77
516.16	48870.39
516.33	48947.62
516.51	49621.70
516.68	49198.06
516.85	49085.72
517.03	49525.74
517.20	49607.65
517.37	49485.95
517.54	49600.63
517.72	49413.39
517.89	49511.69
518.06	49708.30
518.24	49944.69
518.41	50019.59
518.58	50199.81
518.75	49951.71
518.93	50298.11
519.10	50106.19
519.27	50560.25
519.45	50454.93
519.62	50433.86
519.79	50543.87
519.96	50696.00
520.14	50913.67
520.31	50485.36
520.48	50817.71
520.65	51028.36
520.83	51070.49
521.00	51157.09
521.17	51093.89
521.34	50988.57
521.52	51447.32
521.69	51182.84
521.86	51487.10
522.03	51784.35
522.20	51978.62
522.38	52013.73
522.55	52072.24
522.72	51632.22
522.89	51805.42
523.07	51903.72
523.24	52023.09
523.41	51976.28
523.58	51887.34
523.75	52664.39
523.92	52289.91
524.10	52783.76
524.27	52458.43
524.44	52399.91
524.61	52816.53
524.78	52617.58
524.96	52580.13
525.13	52659.71
525.30	52671.42
525.47	52804.83
525.64	52858.66
525.81	53216.76
525.98	53237.83
526.16	53106.76
526.33	52767.38
526.50	53537.41
526.67	52912.49
526.84	53418.05
527.01	53017.82
527.18	53329.11
527.36	53572.52
527.53	53563.16
527.70	53872.11
527.87	53897.86
528.04	53481.24
528.21	53965.73
528.38	53745.72
528.55	53932.96
528.72	53853.39
528.89	54094.46
529.07	53649.76
529.24	53886.15
529.41	53909.56
529.58	53862.75
529.75	54216.17
529.92	54351.92
530.09	54372.99
530.26	54335.54
530.43	54583.63
530.60	54113.19
530.77	54188.08
530.94	54532.14
531.11	54410.43
531.28	54717.04
531.46	54527.46
531.63	54717.04
531.80	54848.11
531.97	54955.78
532.14	55014.29
532.31	54817.69
532.48	54887.90
532.65	54906.63
532.82	54784.92
532.99	55000.25
533.16	55028.34
533.33	55016.63
533.50	55250.69
533.67	55100.89
533.84	54967.48
534.01	55356.01
534.18	55246.00
534.35	55688.37
534.52	55391.12
534.69	55735.18
534.86	55503.46
535.03	55817.10
535.20	55625.17
535.37	55639.22
535.54	55920.08
535.71	55367.71
535.88	55725.81
536.05	55714.11
536.22	55910.72
536.38	55763.26
536.55	55796.03
536.72	56069.87
536.89	56013.70
537.06	56102.64
537.23	56217.33
537.40	56214.99
537.57	56020.72
537.74	56315.63
537.91	56425.64
538.08	56399.89
538.25	56317.97
538.42	56460.74
538.59	56736.93
538.75	56514.58
538.92	56369.46
539.09	56528.62
539.26	56706.50
539.43	56540.32
539.60	56755.65
539.77	56425.64
539.94	56732.25
540.11	56561.39
540.28	56746.29
540.44	56818.84
540.61	56687.78
540.78	56647.99
540.95	56949.92
541.12	56662.03
541.29	56846.93
541.46	56966.30
541.62	57048.22
541.79	56956.94
541.96	56804.80
542.13	56891.40
542.30	56933.53
542.47	57015.45
542.63	57483.56
542.80	57181.63
542.97	57577.18
543.14	57518.67
543.31	57528.03
543.48	57425.04
543.64	57794.85
543.81	57741.02
543.98	57525.69
544.15	57783.15
544.32	57897.83
544.48	57942.30
544.65	57607.61
544.82	57762.08
544.99	57336.10
545.16	57755.06
545.32	57635.69
545.49	58169.33
545.66	58038.26
545.83	58216.14
546.00	58190.40
546.16	57991.45
546.33	57958.69
546.50	57771.44
546.67	58230.19
546.83	57832.30
547.00	58225.51
547.17	58314.45
547.34	58197.42
547.50	58436.16
547.67	58623.40
547.84	58162.31
548.00	58611.70
548.17	58768.51
548.34	58625.74
548.51	58504.03
548.67	58717.02
548.84	58625.74
549.01	58670.21
549.18	58473.60
549.34	58599.99
549.51	58632.76
549.68	58585.95
549.84	58759.15
550.01	58824.68
550.18	58475.94
550.34	58873.84
550.51	58890.22
550.68	58775.53
550.84	58550.84
551.01	59032.99
551.18	58812.98
551.34	58899.58
551.51	59068.10
551.68	58866.81
551.84	58653.82
552.01	58958.09
552.18	59086.82
552.34	58937.03
552.51	59217.89
552.68	58852.77
552.84	59117.25
553.01	59299.81
553.18	59203.85
553.34	59283.43
553.51	59011.93
553.67	59213.21
553.84	59330.24
554.01	59285.77
554.17	59245.98
554.34	59456.63
554.51	59288.11
554.67	59360.67
554.84	59456.63
555.00	59573.66
555.17	59194.49
555.33	59386.41
555.50	59398.12
555.67	59348.96
555.83	59344.28
556.00	59290.45
556.16	59746.86
556.33	59739.83
556.50	59587.70
556.66	59648.55
556.83	59463.65
556.99	59742.17
557.16	59973.89
557.32	59810.05
557.49	60011.34
557.65	59646.21
557.82	59728.13
557.98	59742.17
558.15	59791.33
558.32	59896.65
558.48	59845.16
558.65	59765.58
558.81	59915.37
558.98	59910.69
559.14	60001.97
559.31	59950.48
559.47	60116.66
559.64	60102.62
559.80	60090.91
559.97	60165.81
560.13	59901.33
560.30	60102.62
560.46	60128.36
560.63	60147.09
560.79	59987.93
560.96	60303.90
561.12	60371.78
561.29	60196.24
561.45	60205.60
561.61	60196.24
561.78	60196.24
561.94	60303.90
562.11	60104.96
562.27	60224.32
562.44	60399.86
562.60	60348.37
562.77	60584.77
562.93	60294.54
563.10	60294.54
563.26	60273.48
563.42	60470.08
563.59	60296.88
563.75	60310.92
563.92	60210.28
564.08	60378.80
564.24	60552.00
564.41	60449.02
564.57	60458.38
564.74	60474.76
564.90	60537.96
565.07	60451.36
565.23	60360.08
565.39	60589.45
565.56	60535.62
565.72	60533.28
565.88	60516.89
566.05	60460.72
566.21	60355.39
566.38	60552.00
566.54	60516.89
566.70	60563.70
566.87	60853.93
567.03	60463.06
567.19	60828.18
567.36	60647.96
567.52	60694.77
567.68	60926.49
567.85	60669.03
568.01	60757.97
568.17	60596.47
568.34	60514.55
568.50	60488.80
568.66	60701.79
568.83	60729.88
568.99	60603.49
569.15	60788.39
569.32	60678.39
569.48	60633.92
569.64	60779.03
569.81	60919.46
569.97	60711.16
570.13	60860.95
570.30	60907.76
570.46	60828.18
570.62	60877.33
570.78	60882.02
570.95	60769.67
571.11	60933.51
571.27	60748.60
571.43	61092.66
571.60	60772.01
571.76	60917.12
571.92	60963.93
572.09	60924.14
572.25	60755.63
572.41	60973.30
572.57	60949.89
572.74	61233.10
572.90	61076.28
573.06	60879.67
573.22	60676.05
573.38	60811.80
573.55	60619.88
573.71	60985.00
573.87	60926.49
574.03	60790.73
574.20	61029.47
574.36	60807.12
574.52	61055.21
574.68	61062.24
574.84	61116.07
575.01	61013.08
575.17	61118.41
575.33	60874.99
575.49	60818.82
575.65	61315.01
575.82	61123.09
575.98	61048.19
576.14	61439.06
576.30	61298.63
576.46	61247.14
576.62	61041.17
576.79	61151.18
576.95	61073.94
577.11	61333.74
577.27	61045.85
577.43	61188.63
577.59	61022.45
577.75	61219.05
577.92	61052.87
578.08	61123.09
578.24	61235.44
578.40	61244.80
578.56	61230.75
578.72	60980.32
578.88	61226.07
579.04	61366.51
579.21	60985.00
579.37	61305.65
579.53	61471.83
579.69	61130.11
579.85	61277.57
580.01	61200.33
580.17	61050.53
580.33	61387.57
580.49	61347.78
580.65	61396.93
580.82	61254.16
580.98	61176.92
581.14	60970.96
581.30	61396.93
581.46	61153.52
581.62	61207.35
581.78	61226.07
581.94	61111.39
582.10	61235.44
582.26	61113.73
582.42	61153.52
582.58	61434.38
582.74	61296.29
582.90	61319.70
583.06	61305.65
583.22	61141.81
583.38	61467.15
583.54	61298.63
583.70	61392.25
583.86	61532.68
584.02	61432.04
584.18	61361.82
584.34	61329.06
584.50	61195.65
584.66	61237.78
584.82	61013.08
584.98	61359.48
585.14	61345.44
585.30	61293.95
585.46	61254.16
585.62	61396.93
585.78	61528.00
585.94	61261.18
586.10	61357.14
586.26	61380.55
586.42	61394.59
586.58	61460.13
586.74	61539.71
586.90	61333.74
587.06	61307.99
587.22	61490.55
587.38	61481.19
587.54	61429.70
587.70	61432.04
587.86	61525.66
588.02	61329.06
588.18	61633.33
588.34	61268.20
588.49	61443.74
588.65	61322.04
588.81	61410.98
588.97	61577.15
589.13	61298.63
589.29	61324.38
589.45	61755.03
589.61	61602.90
589.77	61630.99
589.93	61621.62
590.08	61710.56
590.24	61675.46
590.40	61630.99
590.56	61757.38
590.72	61570.13
590.88	61429.70
591.04	61778.44
591.20	61918.87
591.35	61785.46
591.51	62010.15
591.67	61759.72
591.83	61628.65
591.99	61750.35
592.15	61801.85
592.31	61736.31
592.46	61832.27
592.62	61635.67
592.78	61925.89
592.94	61808.87
593.10	61684.82
593.26	61829.93
593.41	61619.28
593.57	61860.36
593.73	61780.78
593.89	62171.65
594.05	61731.63
594.20	61642.69
594.36	61804.19
594.52	61867.38
594.68	61673.12
594.84	61666.09
594.99	61815.89
595.15	61712.91
595.31	61874.40
595.47	61848.66
595.62	61708.22
595.78	61724.61
595.94	61911.85
596.10	62129.52
596.25	61827.59
596.41	61893.13
596.57	61745.67
596.73	61979.73
596.88	61916.53
597.04	61939.94
597.20	61867.38
597.36	61932.92
597.51	62014.83
597.67	61815.89
597.83	61951.64
597.99	61946.96
598.14	61921.21
598.30	62108.46
598.46	62080.37
598.61	62202.08
598.77	61949.30
598.93	62024.20
599.09	62157.61
599.24	62206.76
599.40	62176.33
599.56	61895.47
599.71	62042.92
599.87	62190.37
600.03	61996.11
600.18	62213.78
600.34	62148.24
600.50	62026.54
600.65	61996.11
600.81	62054.62
600.97	62164.63
601.12	62106.12
601.28	61942.28
601.44	62033.56
601.59	62138.88
601.75	62096.75
601.91	62354.21
602.06	62232.50
602.22	62272.29
602.37	62000.79
602.53	62056.96
602.69	62216.12
602.84	62108.46
603.00	62099.09
603.16	61928.23
603.31	62143.56
603.47	62096.75
603.62	62164.63
603.78	62047.60
603.94	62110.80
604.09	62171.65
604.25	61902.49
604.40	62281.66
604.56	62143.56
604.71	62405.70
604.87	61937.60
605.03	62049.94
605.18	62110.80
605.34	62124.84
605.49	61893.13
605.65	62195.06
605.80	62000.79
605.96	62159.95
606.12	62120.16
606.27	62061.64
606.43	61979.73
606.58	62237.19
606.74	62129.52
606.89	62019.52
607.05	61984.41
607.20	62220.80
607.36	61790.14
607.51	61970.36
607.67	61759.72
607.82	61818.23
607.98	62110.80
608.13	62143.56
608.29	61937.60
608.44	61827.59
608.60	61846.32
608.75	61977.39
608.91	61689.50
609.06	61673.12
609.22	62028.88
609.37	61888.45
609.53	62003.13
609.68	61982.07
609.84	61911.85
609.99	62021.86
610.15	62012.49
610.30	62003.13
610.46	61876.74
610.61	61944.62
610.76	61930.58
610.92	61832.27
611.07	61942.28
611.23	61911.85
611.38	61867.38
611.54	62014.83
611.69	61818.23
611.84	61942.28
612.00	61977.39
612.15	61614.60
612.31	61921.21
612.46	61811.21
612.62	61598.22
612.77	61600.56
612.92	61783.12
613.08	61764.40
613.23	61895.47
613.39	61752.69
613.54	61764.40
613.69	61853.34
613.85	61719.93
614.00	61799.50
614.15	61773.76
614.31	61661.41
614.46	61731.63
614.62	61698.86
614.77	61684.82
614.92	61752.69
615.08	61813.55
615.23	61673.12
615.38	61773.76
615.54	61733.97
615.69	61581.84
615.84	61635.67
616.00	61804.19
616.15	61586.52
616.30	61783.12
616.46	61675.46
616.61	61572.47
616.76	61630.99
616.92	61481.19
617.07	61616.94
617.22	61513.96
617.37	61474.17
617.53	61560.77
617.68	61654.39
617.83	61649.71
617.99	61535.02
618.14	61626.31
618.29	61586.52
618.45	61441.40
618.60	61420.34
618.75	61464.81
618.90	61422.68
619.06	61638.01
619.21	61556.09
619.36	61612.26
619.51	61530.34
619.67	61247.14
619.82	61511.62
619.97	61572.47
620.12	61427.36
620.28	61249.48
620.43	61352.46
620.58	61513.96
620.73	61190.97
620.89	61322.04
621.04	61525.66
621.19	61279.91
621.34	61209.69
621.49	61300.97
621.65	61329.06
621.80	61387.57
621.95	61153.52
622.10	61324.38
622.25	61024.79
622.41	61179.26
622.56	61209.69
622.71	61200.33
622.86	61132.45
623.01	61095.00
623.16	60928.83
623.32	61141.81
623.47	61212.03
623.62	61137.13
623.77	61078.62
623.92	61200.33
624.07	61312.67
624.23	61235.44
624.38	61073.94
624.53	60919.46
624.68	60811.80
624.83	61160.54
624.98	61038.83
625.13	60783.71
625.29	60919.46
625.44	60952.23
625.59	60889.04
625.74	60830.52
625.89	60804.78
626.04	60725.20
626.19	60802.44
626.34	60882.02
626.49	60673.71
626.65	60530.93
626.80	60687.75
626.95	60554.34
627.10	60556.68
627.25	60729.88
627.40	60608.17
627.55	60540.30
627.70	60704.13
627.85	60622.22
628.00	60640.94
628.15	60797.76
628.30	60685.41
628.45	60603.49
628.60	60460.72
628.76	60514.55
628.91	60542.64
629.06	60755.63
629.21	60570.72
629.36	60570.72
629.51	60505.19
629.66	60392.84
629.81	60362.42
629.96	60229.01
630.11	60364.76
630.26	60451.36
630.41	60601.15
630.56	60470.08
630.71	60355.39
630.86	60603.49
631.01	60252.41
631.16	60434.97
631.31	60308.58
631.46	59945.80
631.61	60430.29
631.76	60376.46
631.91	60360.08
632.06	60336.67
632.21	60287.52
632.36	60264.11
632.51	59959.84
632.66	60107.30
632.81	59959.84
632.96	60385.82
633.10	60320.29
633.25	60100.28
633.40	60236.03
633.55	60006.65
633.70	60032.40
633.85	60177.51
634.00	59941.12
634.15	60100.28
634.30	59889.63
634.45	60142.41
634.60	60355.39
634.75	60163.47
634.90	59847.50
635.05	59908.35
635.19	59884.95
635.34	59962.18
635.49	59999.63
635.64	60055.81
635.79	59943.46
635.94	59906.01
636.09	60041.76
636.24	59678.98
636.39	59866.22
636.53	59889.63
636.68	59831.11
636.83	59814.73
636.98	59877.93
637.13	59772.60
637.28	59756.22
637.43	59805.37
637.57	59854.52
637.72	59587.70
637.87	59695.36
638.02	59664.94
638.17	59788.98
638.32	59985.59
638.46	59585.36
638.61	59746.86
638.76	59508.12
638.91	59515.14
639.06	59730.47
639.20	59318.54
639.35	59353.65
639.50	59608.76
639.65	59323.22
639.80	59613.44
639.94	59564.29
640.09	59594.72
640.24	59583.02
640.39	59568.97
640.54	59332.58
640.68	59461.31
640.83	59414.50
640.98	59515.14
641.13	59332.58
641.27	59454.29
641.42	59451.95
641.57	59159.38
641.72	59147.68
641.86	59140.66
642.01	59199.17
642.16	59171.08
642.31	59138.32
642.45	59435.56
642.60	59398.12
642.75	59201.51
642.90	59288.11
643.04	59344.28
643.19	59124.27
643.34	59100.87
643.48	59262.36
643.63	59227.26
643.78	58859.79
643.93	59201.51
644.07	59114.91
644.22	59000.22
644.37	58913.62
644.51	58946.39
644.66	59016.61
644.81	58960.44
644.95	59056.40
645.10	59068.10
645.25	58939.37
645.39	59009.59
645.54	58930.01
645.69	58810.64
645.83	58829.37
645.98	58887.88
646.13	58918.31
646.27	58834.05
646.42	58812.98
646.57	58834.05
646.71	58864.47
646.86	58967.46
647.00	58894.90
647.15	58756.81
647.30	58763.83
647.44	58712.34
647.59	58937.03
647.74	58969.80
647.88	58885.54
648.03	58789.58
648.17	58920.65
648.32	58541.48
648.47	58742.77
648.61	58614.04
648.76	58815.32
648.90	58492.33
649.05	58501.69
649.20	58607.01
649.34	58780.21
649.49	58398.71
649.63	58908.94
649.78	58801.28
649.92	58845.75
650.07	58679.57
650.21	58529.78
650.36	58520.41
650.51	58403.39
650.65	58562.54
650.80	58700.64
650.94	58480.63
651.09	58251.25
651.23	58190.40
651.38	58365.94
651.52	58585.95
651.67	58335.51
651.81	58248.91
651.96	58248.91
652.10	58321.47
652.25	58267.64
652.39	58279.34
652.54	58171.67
652.68	57862.72
652.83	58209.12
652.97	58162.31
653.12	58075.71
653.26	58150.61
653.41	58155.29
653.55	58234.87
653.70	58152.95
653.84	58031.24
653.99	57932.94
654.13	57951.66
654.27	57954.00
654.42	57972.73
654.56	57944.64
654.71	58110.82
654.85	58068.69
655.00	58185.72
655.14	58248.91
655.29	57827.62
655.43	57792.51
655.57	57867.40
655.72	57673.14
655.86	57853.36
656.01	57752.72
656.15	57787.83
656.30	57698.89
656.44	58141.25
656.58	57673.14
656.73	57942.30
656.87	57743.36
657.01	57736.34
657.16	57769.10
657.30	57778.46
657.45	57563.14
657.59	57563.14
657.73	57214.40
657.88	57467.17
658.02	57570.16
658.16	57649.74
658.31	57448.45
658.45	57289.29
658.60	57389.94
658.74	57336.10
658.88	57403.98
659.03	57233.12
659.17	57462.49
659.31	57286.95
659.46	57373.55
659.60	57399.30
659.74	57212.06
659.89	57095.03
660.03	57034.17
660.17	57134.82
660.32	57092.69
660.46	57139.50
660.60	57034.17
660.74	56919.49
660.89	57085.67
661.03	57045.88
661.17	56718.20
661.32	56795.44
661.46	57008.43
661.60	56739.27
661.74	56839.91
661.89	56530.96
662.03	56690.12
662.17	56837.57
662.31	56669.05
662.46	56807.14
662.60	56374.14
662.74	56453.72
662.88	56435.00
663.03	56210.31
663.17	56528.62
663.31	56137.75
663.45	56406.91
663.60	56196.26
663.74	56058.17
663.88	56004.34
664.02	56058.17
664.17	56332.01
664.31	55955.19
664.45	56226.69
664.59	56186.90
664.73	56142.43
664.88	55959.87
665.02	55571.34
665.16	55765.60
665.30	55557.30
665.44	55683.69
665.59	55770.28
665.73	55576.02
665.87	55695.39
666.01	55695.39
666.15	55613.47
666.29	55381.76
666.44	55770.28
666.58	55332.60
666.72	55260.05
666.86	55372.39
667.00	55290.48
667.14	55260.05
667.28	55255.37
667.43	54890.24
667.57	55330.26
667.71	55222.60
667.85	55224.94
667.99	55079.83
668.13	55229.62
668.27	54920.67
668.41	55100.89
668.56	54770.88
668.70	54789.60
668.84	54815.35
668.98	54394.05
669.12	54777.90
669.26	54845.77
669.40	54621.08
669.54	54527.46
669.68	54192.76
669.82	54089.78
669.96	54415.11
670.10	54204.47
670.25	54583.63
670.39	54145.95
670.53	54277.02
670.67	54160.00
670.81	54728.75
670.95	54328.52
671.09	54010.20
671.23	53748.06
671.37	54052.33
671.51	54209.15
671.65	53916.58
671.79	53495.28
671.93	53684.87
672.07	53694.23
672.21	53464.86
672.35	53125.48
672.49	53193.36
672.63	53254.21
672.77	53425.07
672.91	53254.21
673.05	53137.18
673.19	52928.87
673.33	52903.13
673.47	52884.40
673.61	52905.47
673.75	53006.11
673.89	52692.48
674.03	52404.59
674.17	52502.90
674.31	52472.47
674.45	52261.82
674.59	51917.76
674.73	52385.87
674.87	52137.77
675.01	52004.36
675.15	52196.29
675.29	51924.78
675.43	52097.98
675.56	51782.01
675.70	51641.58
675.84	51379.44
675.98	50417.48
676.12	51714.14
676.26	51725.84
676.40	51629.88
676.54	51049.42
676.68	50876.22
676.82	50663.24
676.96	50862.18
677.10	50454.93
677.23	50319.18
677.37	50426.84
677.51	50398.76
677.65	50227.90
677.79	49626.38
677.93	49385.30
678.07	49584.25
678.21	49530.42
678.34	49862.77
678.48	48989.75
678.62	49186.36
678.76	49036.56
678.90	49029.54
679.04	49001.46
679.18	49020.18
679.31	48587.18
679.45	48493.56
679.59	48554.41
679.73	48636.33
679.87	48102.69
680.00	48102.69
680.14	47665.01
680.28	47805.44
680.42	47985.66
680.56	47494.15
680.70	47061.15
680.83	47028.38
680.97	47522.24
681.11	47526.92
681.25	46988.60
681.39	47014.34
681.52	46976.89
681.66	46791.99
681.80	46555.60
681.94	46298.14
682.07	46897.31
682.21	46298.14
682.35	45951.74
682.49	45778.54
682.62	45743.43
682.76	45975.14
682.90	46005.57
683.04	45329.16
683.17	45228.51
683.31	45155.96
683.45	45439.16
683.59	44498.26
683.72	44519.33
683.86	44615.29
684.00	44964.03
684.13	44856.37
684.27	43805.47
684.41	44151.87
684.55	44245.49
684.68	43744.61
684.82	44112.08
684.96	43487.15
685.09	43203.95
685.23	43136.07
685.37	42784.99
685.50	43157.14
685.64	42508.81
685.78	42918.40
685.91	42990.96
686.05	42588.39
686.19	42267.73
686.32	41778.56
686.46	41258.96
686.60	41443.87
686.73	40844.69
686.87	41474.29
687.01	41471.95
687.14	41359.61
687.28	41385.35
687.42	41130.23
687.55	41247.26
687.69	40879.80
687.82	40751.07
687.96	40369.56
688.10	39779.74
688.23	40889.16
688.37	40261.90
688.50	39901.45
688.64	39426.32
688.78	39894.43
688.91	39100.99
689.05	38939.49
689.18	39049.50
689.32	38913.75
689.46	38162.43
689.59	38059.45
689.73	38263.08
689.86	38073.49
690.00	37888.59
690.13	38143.71
690.27	37963.49
690.41	38019.66
690.54	37610.07
690.68	37008.55
690.81	37137.28
690.95	37474.32
691.08	36772.16
691.22	36933.65
691.35	36800.24
691.49	36575.55
691.62	36631.72
691.76	35978.72
691.89	36095.74
692.03	35707.21
692.16	35924.88
692.30	35562.10
692.43	35606.57
692.57	35253.15
692.70	35452.09
692.84	34721.85
692.97	34871.64
693.11	35199.32
693.24	34902.07
693.38	34401.19
693.51	34352.04
693.65	34417.58
693.78	34157.78
693.92	33727.12
694.05	33724.78
694.19	33881.60
694.32	33582.01
694.45	33455.62
694.59	33167.73
694.72	32765.16
694.86	32500.68
694.99	32753.46
695.13	32570.90
695.26	32259.60
695.39	31915.54
695.53	31718.94
695.66	32018.53
695.80	31824.26
695.93	31541.06
696.07	31592.55
696.20	30632.93
696.33	31007.42
696.47	31161.89
696.60	31143.17
696.73	30604.84
696.87	30831.88
697.00	30536.97
697.14	30015.03
697.27	30354.41
697.40	30511.22
697.54	30087.59
697.67	30263.13
697.80	29792.68
697.94	29685.01
698.07	29589.05
698.21	29259.04
698.34	29399.47
698.47	29043.71
698.61	28559.22
698.74	28868.17
698.87	28730.08
699.01	28189.41
699.14	28540.49
699.27	28287.71
699.40	28070.04
699.54	28133.24
699.67	28109.83
699.80	27964.72
699.94	27971.74
700.07	27917.91
700.20	27360.86
700.34	26974.67
700.47	27136.17
700.60	27080.00
700.73	26759.34
700.87	26434.01
701.00	26307.62
701.13	26284.22
701.26	26305.28
701.40	26132.08
701.53	25944.84
701.66	26359.11
701.79	25729.51
701.93	25376.09
702.06	25146.72
702.19	25081.18
702.32	25324.60
702.46	25294.17
702.59	24884.58
702.72	24449.24
702.85	24528.81
702.99	24641.16
703.12	24435.19
703.25	24198.80
703.38	24006.87
703.51	24264.33
703.65	23737.71
703.78	23843.04
703.91	23468.55
704.04	23852.40
704.17	23620.69
704.31	23468.55
704.44	23328.12
704.57	23353.87
704.70	22953.63
704.83	22806.18
704.96	22675.11
705.10	22352.12
705.23	22328.71
>>>>>End Processed Spectral Data<<<<<
