SpectraSuite Data File
++++++++++++++++++++++++++++++++++++
Date: Fri Oct 25 11:26:29 EDT 2013
User: price-jones
Dark Spectrum Present: No
Reference Spectrum Present: No
Number of Sampled Component Spectra: 1
Spectrometers: USB2+H05261
Integration Time (usec): 100000 (USB2+H05261)
Spectra Averaged: 1 (USB2+H05261)
Boxcar Smoothing: 0 (USB2+H05261)
Correct for Electrical Dark: No (USB2+H05261)
Strobe/Lamp Enabled: No (USB2+H05261)
Correct for Detector Non-linearity: No (USB2+H05261)
Correct for Stray Light: No (USB2+H05261)
Number of Pixels in Processed Spectrum: 2048
>>>>>Begin Processed Spectral Data<<<<<
365.73	208.31
365.92	208.31
366.12	208.31
366.32	121.71
366.52	140.43
366.72	161.50
366.91	177.88
367.11	67.88
367.31	140.43
367.51	152.13
367.70	191.92
367.90	152.13
368.10	128.73
368.30	72.56
368.49	138.09
368.69	102.98
368.89	112.35
369.09	184.90
369.28	187.24
369.48	248.10
369.68	198.95
369.87	156.82
370.07	177.88
370.27	177.88
370.47	379.17
370.66	578.11
370.86	589.82
371.06	685.78
371.25	702.16
371.45	587.47
371.65	627.26
371.84	695.14
372.04	620.24
372.24	645.99
372.44	730.25
372.63	770.04
372.83	763.01
373.03	800.46
373.22	704.50
373.42	760.67
373.62	770.04
373.81	795.78
374.01	788.76
374.21	868.34
374.40	777.06
374.60	905.79
374.79	840.25
374.99	819.19
375.19	851.96
375.38	950.26
375.58	856.64
375.78	807.48
375.97	880.04
376.17	912.81
376.37	882.38
376.56	866.00
376.76	908.13
376.95	873.02
377.15	858.98
377.35	868.34
377.54	830.89
377.74	812.17
377.93	901.11
378.13	908.13
378.33	945.58
378.52	891.74
378.72	1001.75
378.91	973.66
379.11	894.08
379.31	968.98
379.50	966.64
379.70	959.62
379.89	1006.43
380.09	922.17
380.28	943.24
380.48	1027.50
380.68	943.24
380.87	887.06
381.07	1015.79
381.26	940.90
381.46	999.41
381.65	978.34
381.85	1022.81
382.04	1104.73
382.24	1071.97
382.43	1011.11
382.63	980.68
382.83	1069.62
383.02	1025.15
383.22	1027.50
383.41	1130.48
383.61	1137.50
383.80	1118.78
384.00	1071.97
384.19	1128.14
384.39	1212.40
384.58	1139.84
384.78	1203.04
384.97	1086.01
385.17	1160.91
385.36	1200.69
385.56	1132.82
385.75	1163.25
385.95	1142.18
386.14	1125.80
386.34	1256.87
386.53	1130.48
386.72	1181.97
386.92	1252.19
387.11	1291.98
387.31	1205.38
387.50	1217.08
387.70	1193.67
387.89	1350.49
388.09	1203.04
388.28	1273.25
388.48	1242.82
388.67	1366.87
388.86	1343.47
389.06	1324.74
389.25	1364.53
389.45	1308.36
389.64	1355.17
389.84	1413.68
390.03	1338.79
390.22	1327.08
390.42	1380.92
390.61	1324.74
390.81	1299.00
391.00	1479.22
391.19	1465.18
391.39	1432.41
391.58	1509.65
391.78	1380.92
391.97	1533.05
392.16	1455.81
392.36	1497.94
392.55	1610.29
392.75	1563.48
392.94	1582.20
393.13	1629.01
393.33	1584.54
393.52	1502.62
393.71	1584.54
393.91	1455.81
394.10	1523.69
394.29	1652.42
394.49	1579.86
394.68	1701.57
394.88	1633.69
395.07	1652.42
395.26	1659.44
395.46	1736.68
395.65	1797.53
395.84	1633.69
396.04	1640.72
396.23	1753.06
396.42	1771.79
396.62	1760.08
396.81	1694.55
397.00	1715.61
397.19	1858.39
397.39	1851.36
397.58	1797.53
397.77	1809.23
397.97	1870.09
398.16	1837.32
398.35	1902.86
398.55	1865.41
398.74	1895.83
398.93	1860.73
399.12	1893.49
399.32	1973.07
399.51	1942.64
399.70	1937.96
399.90	1799.87
400.09	1956.69
400.28	1977.75
400.47	2010.52
400.67	2101.80
400.86	2083.08
401.05	2195.42
401.24	2029.24
401.44	2125.21
401.63	2190.74
401.82	2167.34
402.01	2080.74
402.21	2157.97
402.40	2242.23
402.59	2211.81
402.78	2258.62
402.97	2228.19
403.17	2207.13
403.36	2340.54
403.55	2195.42
403.74	2345.22
403.93	2260.96
404.13	2324.15
404.32	2366.28
404.51	2427.14
404.70	2356.92
404.89	2363.94
405.09	2429.48
405.28	2424.80
405.47	2408.41
405.66	2516.08
405.85	2565.23
406.05	2476.29
406.24	2509.05
406.43	2420.11
406.62	2637.78
406.81	2661.19
407.00	2553.52
407.20	2612.04
407.39	2616.72
407.58	2740.77
407.77	2698.64
407.96	2708.00
408.15	2717.36
408.34	2747.79
408.54	2820.35
408.73	2825.03
408.92	2785.24
409.11	2925.67
409.30	2892.90
409.49	2920.99
409.68	2864.82
409.87	2883.54
410.07	2956.10
410.26	2998.23
410.45	2944.39
410.64	2998.23
410.83	3117.59
411.02	3077.80
411.21	3082.49
411.40	3155.04
411.59	3152.70
411.78	3068.44
411.98	3136.32
412.17	3260.37
412.36	3283.77
412.55	3302.50
412.74	3314.20
412.93	3407.82
413.12	3379.73
413.31	3398.46
413.50	3538.89
413.69	3475.70
413.88	3503.78
414.07	3581.02
414.26	3555.27
414.45	3770.60
414.64	3632.51
414.83	3868.91
415.02	3707.41
415.22	3791.67
415.41	3974.23
415.60	3831.46
415.79	3836.14
415.98	3889.97
416.17	3999.98
416.36	3894.65
416.55	4018.70
416.74	4077.21
416.93	4084.23
417.12	3997.64
417.31	3941.46
417.50	4074.87
417.69	4201.26
417.88	4386.16
418.07	4217.65
418.26	4372.12
418.45	4262.12
418.64	4341.69
418.83	4329.99
419.02	4458.72
419.21	4402.55
419.39	4409.57
419.58	4262.12
419.77	4430.63
419.96	4505.53
420.15	4643.62
420.34	4550.00
420.53	4636.60
420.72	4652.98
420.91	4723.20
421.10	4755.97
421.29	4636.60
421.48	4702.14
421.67	4636.60
421.86	4767.67
422.05	4744.27
422.24	4704.48
422.43	4718.52
422.61	4849.59
422.80	4954.91
422.99	4823.84
423.18	4903.42
423.37	4868.31
423.56	4840.23
423.75	4896.40
423.94	4873.00
424.13	4622.56
424.32	4678.73
424.50	4858.95
424.69	5200.67
424.88	5001.72
425.07	4901.08
425.26	4858.95
425.45	4966.62
425.64	4844.91
425.83	4903.42
426.01	5067.26
426.20	4924.49
426.39	4994.70
426.58	5088.32
426.77	5067.26
426.96	5057.90
427.15	5231.10
427.33	5252.16
427.52	5212.37
427.71	5305.99
427.90	5212.37
428.09	5301.31
428.28	5376.21
428.46	5324.72
428.65	5252.16
428.84	5523.66
429.03	5350.46
429.22	5177.26
429.40	5357.49
429.59	5432.38
429.78	5240.46
429.97	5163.22
430.16	5455.79
430.34	5533.03
430.53	5626.65
430.72	5577.50
430.91	5570.48
431.10	5455.79
431.28	5668.78
431.47	5628.99
431.66	5785.80
431.85	5675.80
432.03	5785.80
432.22	5949.64
432.41	5760.06
432.60	5968.37
432.79	5923.90
432.97	6190.72
433.16	6143.91
433.35	5797.51
433.54	6249.23
433.72	6193.06
433.91	6054.97
434.10	6235.19
434.28	6120.50
434.47	6242.21
434.66	6076.03
434.85	6174.33
435.03	6457.54
435.22	6406.05
435.41	6520.73
435.59	6286.68
435.78	6326.47
435.97	6502.01
436.16	6534.78
436.34	6399.02
436.53	6497.33
436.72	6539.46
436.90	6363.92
437.09	6867.13
437.28	6513.71
437.46	6441.15
437.65	6576.91
437.84	6633.08
438.02	6782.87
438.21	6420.09
438.40	6731.38
438.58	6925.65
438.77	7096.50
438.96	6906.92
439.14	7115.23
439.33	7098.84
439.52	7143.32
439.70	7246.30
439.89	7475.67
440.08	7414.82
440.26	7250.98
440.45	7449.93
440.63	7485.03
440.82	7478.01
441.01	7412.48
441.19	7557.59
441.38	7653.55
441.57	7632.49
441.75	7889.95
441.94	8081.87
442.12	7798.66
442.31	8018.68
442.50	7929.74
442.68	8044.42
442.87	7822.07
443.05	8032.72
443.24	8189.53
443.43	8133.36
443.61	8182.51
443.80	8271.45
443.98	7946.12
444.17	7770.58
444.35	8273.79
444.54	8325.29
444.73	8456.36
444.91	8126.34
445.10	8299.54
445.28	8318.26
445.47	8170.81
445.65	8187.19
445.84	8423.59
446.02	8461.04
446.21	8273.79
446.39	8411.89
446.58	8416.57
446.77	8486.78
446.95	8339.33
447.14	8388.48
447.32	8423.59
447.51	8599.13
447.69	8496.14
447.88	8496.14
448.06	8542.96
448.25	8353.37
448.43	8765.31
448.62	8559.34
448.80	8463.38
448.99	8592.11
449.17	8542.96
449.36	8786.37
449.54	8622.53
449.73	9025.11
449.91	8901.06
450.10	8819.14
450.28	9114.05
450.46	9018.08
450.65	9074.26
450.83	8997.02
451.02	8870.63
451.20	9153.84
451.39	9273.20
451.57	9097.66
451.76	8990.00
451.94	9432.36
452.13	9261.50
452.31	9308.31
452.49	9284.91
452.68	9401.93
452.86	9240.44
453.05	9268.52
453.23	9591.52
453.42	9430.02
453.60	9118.73
453.78	9511.94
453.97	9437.04
454.15	9343.42
454.34	9378.53
454.52	9764.72
454.70	9528.32
454.89	9785.78
455.07	9664.07
455.26	9844.29
455.44	9891.10
455.62	9764.72
455.81	9844.29
455.99	9916.85
456.17	10050.26
456.36	10120.48
456.54	9968.34
456.73	9994.09
456.91	10331.12
457.09	10429.43
457.28	10377.94
457.46	10434.11
457.64	10284.31
457.83	10633.05
458.01	10602.63
458.19	10867.11
458.38	10523.05
458.56	10703.27
458.74	10658.80
458.93	10588.58
459.11	10506.66
459.29	10642.42
459.48	10775.83
459.66	10747.74
459.84	10761.78
460.03	10988.82
460.21	11033.29
460.39	10974.77
460.57	10918.60
460.76	10878.81
460.94	11267.34
461.12	10911.58
461.31	11073.07
461.49	11075.42
461.67	10974.77
461.85	11386.71
462.04	11274.36
462.22	11583.31
462.40	11557.57
462.59	11396.07
462.77	11552.88
462.95	11887.58
463.13	11559.91
463.32	11627.78
463.50	11887.58
463.68	11655.87
463.86	11836.09
464.05	11726.08
464.23	11683.95
464.41	11922.69
464.59	11798.64
464.78	12116.95
464.96	12046.74
465.14	11763.53
465.32	12149.72
465.50	12086.53
465.69	12013.97
465.87	12112.27
466.05	12100.57
466.23	12037.38
466.41	12135.68
466.60	12325.26
466.78	12138.02
466.96	12191.85
467.14	12060.78
467.32	12208.23
467.51	12587.40
467.69	11864.18
467.87	12444.63
468.05	12351.01
468.23	12468.03
468.41	12386.12
468.60	12692.73
468.78	13048.49
468.96	12514.84
469.14	12912.74
469.32	13050.83
469.50	12795.71
469.69	12905.71
469.87	12931.46
470.05	13032.10
470.23	13228.71
470.41	13013.38
470.59	13221.69
470.77	12917.42
470.95	13247.43
471.14	13399.57
471.32	12931.46
471.50	13551.70
471.68	13352.76
471.86	13523.62
472.04	13500.21
472.22	14092.37
472.40	13621.92
472.58	13877.04
472.77	14204.71
472.95	14099.39
473.13	14473.87
473.31	14043.21
473.49	14017.47
473.67	13923.85
473.85	14225.78
474.03	14628.35
474.21	14422.38
474.39	14689.20
474.57	14656.43
474.75	14789.85
474.93	14890.49
475.12	14995.81
475.30	15201.78
475.48	15035.60
475.66	15089.43
475.84	15082.41
476.02	15323.49
476.20	15239.23
476.38	15681.59
476.56	15960.11
476.74	15868.83
476.92	15398.38
477.10	15733.08
477.28	16079.48
477.46	16276.09
477.64	16498.44
477.82	16629.51
478.00	16556.95
478.18	16606.10
478.36	16847.18
478.54	17106.98
478.72	16856.54
478.90	17121.02
479.08	17713.17
479.26	17593.81
479.44	17390.18
479.62	17755.30
479.80	17816.16
479.98	17736.58
480.16	18628.32
480.34	18420.02
480.52	18214.05
480.70	18745.35
480.88	18464.49
481.06	18588.53
481.24	18621.30
481.41	18764.07
481.59	19234.52
481.77	19246.23
481.95	19428.79
482.13	19758.80
482.31	19913.28
482.49	20123.93
482.67	19932.00
482.85	20357.98
483.03	20739.49
483.21	20671.61
483.39	21069.50
483.57	20664.59
483.74	20823.75
483.92	21546.97
484.10	21130.36
484.28	21256.75
484.46	22043.17
484.64	22354.46
484.82	22059.55
485.00	22118.06
485.18	22565.10
485.35	22782.77
485.53	22775.75
485.71	23012.15
485.89	23520.04
486.07	23183.01
486.25	23384.29
486.43	23477.91
486.61	23772.82
486.78	24105.18
486.96	23971.77
487.14	24463.28
487.32	24315.83
487.50	24697.33
487.68	24706.70
487.85	25167.78
488.03	25450.99
488.21	25486.09
488.39	25738.87
488.57	26073.57
488.75	25860.58
488.92	26536.99
489.10	26698.49
489.28	26647.00
489.46	26965.31
489.64	26967.65
489.81	27288.31
489.99	27257.88
490.17	27665.13
490.35	27527.04
490.53	28105.15
490.70	28074.73
490.88	28135.58
491.06	28940.72
491.24	28706.67
491.41	28886.89
491.59	29413.51
491.77	29284.78
491.95	29486.07
492.13	29392.45
492.30	29879.28
492.48	29696.72
492.66	29947.15
492.84	30424.62
493.01	30726.55
493.19	30649.32
493.37	30878.69
493.54	31468.50
493.72	31325.73
493.90	31611.28
494.08	31515.31
494.25	32250.24
494.43	32006.83
494.61	32201.09
494.79	32755.80
494.96	32371.95
495.14	32306.41
495.32	33003.89
495.49	32788.56
495.67	33504.77
495.85	33656.90
496.02	33413.49
496.20	33689.67
496.38	33434.55
496.55	33970.54
496.73	34431.62
496.91	34263.10
497.09	34787.38
497.26	34712.49
497.44	34876.32
497.62	35192.30
497.79	35892.12
497.97	35335.07
498.14	36044.25
498.32	35768.07
498.50	36313.41
498.67	36224.47
498.85	36072.34
499.03	36306.39
499.20	36486.61
499.38	36383.63
499.56	36921.95
499.73	37153.66
499.91	37081.11
500.08	37577.30
500.26	37408.78
500.44	37612.41
500.61	37727.10
500.79	37441.55
500.97	37923.70
501.14	38108.60
501.32	38359.04
501.49	38185.84
501.67	38265.42
501.84	38909.07
502.02	39014.39
502.20	38852.89
502.37	38878.64
502.55	38703.10
502.72	39061.20
502.90	39133.76
503.07	39643.99
503.25	39695.49
503.43	39636.97
503.60	39606.55
503.78	40095.72
503.95	40034.86
504.13	40704.26
504.30	40495.95
504.48	40435.10
504.65	40744.05
504.83	40886.82
505.01	40928.95
505.18	41207.47
505.36	41027.25
505.53	41312.80
505.71	41228.54
505.88	41776.22
506.06	41649.83
506.23	41930.70
506.41	41837.08
506.58	41762.18
506.76	41762.18
506.93	41673.24
507.11	42312.20
507.28	42277.10
507.46	42377.74
507.63	43012.02
507.81	43241.40
507.98	42445.62
508.16	42539.24
508.33	42887.98
508.50	42895.00
508.68	43089.26
508.85	43519.92
509.03	43452.05
509.20	43620.56
509.38	44119.10
509.55	44032.50
509.73	44329.75
509.90	44196.34
510.08	44374.22
510.25	44222.08
510.42	44488.90
510.60	44868.07
510.77	44680.83
510.95	45280.00
511.12	44456.14
511.30	45048.29
511.47	45123.19
511.64	45254.26
511.82	45677.90
511.99	45668.53
512.17	45694.28
512.34	45888.54
512.51	46157.70
512.69	46223.24
512.86	46190.47
513.04	46546.23
513.21	46401.12
513.38	46246.65
513.56	46871.57
513.73	46904.34
513.90	46852.84
514.08	46733.48
514.25	46747.52
514.43	46960.51
514.60	46808.37
514.77	47182.86
514.95	47334.99
515.12	47143.07
515.29	47730.54
515.47	47332.65
515.64	47810.12
515.81	47498.83
515.99	47969.28
516.16	48390.58
516.33	48030.13
516.51	48769.74
516.68	48479.52
516.85	48168.22
517.03	48858.68
517.20	48692.50
517.37	48776.76
517.54	48626.97
517.72	48694.85
517.89	48933.58
518.06	48926.56
518.24	49127.84
518.41	48999.12
518.58	49169.97
518.75	49247.21
518.93	49254.23
519.10	49467.22
519.27	49514.03
519.45	49525.74
519.62	49954.05
519.79	49787.88
519.96	49982.14
520.14	50183.43
520.31	49944.69
520.48	50213.85
520.65	50124.91
520.83	50656.21
521.00	50382.37
521.17	50475.99
521.34	50305.13
521.52	50546.21
521.69	50644.51
521.86	50724.09
522.03	50696.00
522.20	50913.67
522.38	51639.24
522.55	51196.88
522.72	50525.14
522.89	51358.38
523.07	51512.85
523.24	51400.50
523.41	51157.09
523.58	51166.45
523.75	51519.87
523.92	51452.00
524.10	51732.86
524.27	51838.18
524.44	51674.35
524.61	52044.15
524.78	51585.41
524.96	52009.04
525.13	52580.13
525.30	52273.52
525.47	52357.78
525.64	52353.10
525.81	52451.41
525.98	52697.16
526.16	52470.13
526.33	52357.78
526.50	52889.09
526.67	52765.04
526.84	52636.31
527.01	52542.69
527.18	52725.25
527.36	52837.59
527.53	52889.09
527.70	53244.85
527.87	53073.99
528.04	53064.63
528.21	53315.06
528.38	53081.01
528.55	53530.39
528.72	53127.82
528.89	53301.02
529.07	53354.85
529.24	53254.21
529.41	53719.98
529.58	53621.67
529.75	53340.81
529.92	53649.76
530.09	53609.97
530.26	53778.49
530.43	53921.26
530.60	53872.11
530.77	53680.19
530.94	53827.64
531.11	53937.65
531.28	54019.56
531.46	54010.20
531.63	54190.42
531.80	53942.33
531.97	54174.04
532.14	54171.70
532.31	54438.52
532.48	54272.34
532.65	54600.02
532.82	54384.69
532.99	54618.74
533.16	54375.33
533.33	54656.19
533.50	54789.60
533.67	54656.19
533.84	54408.09
534.01	54948.76
534.18	55025.99
534.35	55098.55
534.52	55103.23
534.69	55061.10
534.86	55337.29
535.03	54894.92
535.20	55040.04
535.37	55679.00
535.54	55157.06
535.71	55276.43
535.88	55246.00
536.05	55334.95
536.22	55276.43
536.38	55407.50
536.55	55440.27
536.72	55695.39
536.89	55222.60
537.06	55505.80
537.23	55547.93
537.40	55428.57
537.57	55461.33
537.74	55655.60
537.91	55702.41
538.08	55901.36
538.25	55559.64
538.42	55779.65
538.59	56006.68
538.75	56039.45
538.92	55906.04
539.09	56065.19
539.26	55786.67
539.43	55973.91
539.60	56261.80
539.77	56093.28
539.94	56402.23
540.11	56133.07
540.28	56222.01
540.44	56357.76
540.61	56324.99
540.78	56191.58
540.95	56271.16
541.12	56537.98
541.29	56442.02
541.46	56547.34
541.62	56507.55
541.79	56498.19
541.96	56563.73
542.13	56528.62
542.30	56540.32
542.47	56549.68
542.63	56753.31
542.80	56694.80
542.97	57003.75
543.14	57059.92
543.31	57144.18
543.48	57080.98
543.64	57286.95
543.81	57403.98
543.98	56879.70
544.15	57123.11
544.32	57368.87
544.48	57539.73
544.65	57223.76
544.82	57354.83
544.99	57221.42
545.16	57401.64
545.32	57291.63
545.49	57537.39
545.66	57623.99
545.83	57481.22
546.00	57794.85
546.16	57539.73
546.33	57675.48
546.50	57324.40
546.67	57645.05
546.83	57378.23
547.00	57668.46
547.17	57668.46
547.34	57619.31
547.50	57579.52
547.67	58190.40
547.84	57858.04
548.00	58054.65
548.17	57799.53
548.34	58000.82
548.51	58131.89
548.67	57961.03
548.84	58024.22
549.01	57986.77
549.18	57827.62
549.34	57979.75
549.51	58223.17
549.68	58169.33
549.84	58094.44
550.01	58267.64
550.18	58131.89
550.34	58241.89
550.51	58305.09
550.68	58288.70
550.84	58279.34
551.01	58471.26
551.18	58405.73
551.34	58429.13
551.51	58415.09
551.68	58445.52
551.84	58532.12
552.01	58431.47
552.18	58616.38
552.34	58424.45
552.51	58599.99
552.68	58550.84
552.84	58618.72
553.01	58871.49
553.18	58653.82
553.34	58679.57
553.51	58651.48
553.67	58756.81
553.84	58960.44
554.01	58897.24
554.17	58897.24
554.34	58848.09
554.51	58803.62
554.67	58911.28
554.84	58707.66
555.00	58862.13
555.17	58934.69
555.33	58843.41
555.50	58782.55
555.67	58927.67
555.83	58831.71
556.00	59047.04
556.16	59388.75
556.33	59117.25
556.50	59070.44
556.66	59330.24
556.83	59086.82
556.99	59227.26
557.16	59285.77
557.32	59311.52
557.49	59545.57
557.65	59178.10
557.82	59192.15
557.98	59297.47
558.15	59264.70
558.32	59508.12
558.48	59264.70
558.65	59496.42
558.81	59348.96
558.98	59451.95
559.14	59524.50
559.31	59468.33
559.47	59512.80
559.64	59512.80
559.80	59505.78
559.97	59484.72
560.13	59517.48
560.30	59604.08
560.46	59657.91
560.63	59753.88
560.79	59533.87
560.96	59718.77
561.12	59716.43
561.29	59667.28
561.45	59896.65
561.61	59779.62
561.78	59760.90
561.94	59662.60
562.11	59646.21
562.27	59924.74
562.44	59828.77
562.60	59877.93
562.77	59877.93
562.93	59646.21
563.10	60065.17
563.26	59669.62
563.42	59971.55
563.59	59945.80
563.75	59992.61
563.92	59868.56
564.08	59971.55
564.24	60093.25
564.41	60079.21
564.57	59978.57
564.74	59826.43
564.90	59994.95
565.07	59793.67
565.23	59929.42
565.39	59927.08
565.56	60097.94
565.72	59999.63
565.88	60238.37
566.05	59924.74
566.21	59887.29
566.38	60147.09
566.54	60023.04
566.70	60308.58
566.87	60233.69
567.03	59983.25
567.19	60210.28
567.36	60032.40
567.52	60182.19
567.68	60301.56
567.85	60205.60
568.01	60299.22
568.17	60179.85
568.34	60364.76
568.50	60221.98
568.66	60280.50
568.83	60423.27
568.99	60364.76
569.15	60322.63
569.32	60334.33
569.48	60289.86
569.64	60221.98
569.81	60364.76
569.97	60271.14
570.13	60481.78
570.30	60303.90
570.46	60364.76
570.62	60088.57
570.78	60282.84
570.95	60479.44
571.11	60355.39
571.27	60334.33
571.43	60339.01
571.60	60413.91
571.76	60390.50
571.92	60439.65
572.09	60603.49
572.25	60430.29
572.41	60439.65
572.57	60439.65
572.74	60608.17
572.90	60350.71
573.06	60456.04
573.22	60570.72
573.38	60575.40
573.55	60479.44
573.71	60500.51
573.87	60706.47
574.03	60573.06
574.20	60647.96
574.36	60500.51
574.52	60699.45
574.68	60535.62
574.84	60654.98
575.01	60645.62
575.17	60701.79
575.33	60278.16
575.49	60399.86
575.65	60746.26
575.82	60814.14
575.98	60832.86
576.14	60910.10
576.30	60729.88
576.46	60760.31
576.62	60612.85
576.79	60580.09
576.95	60589.45
577.11	60404.55
577.27	60718.18
577.43	60800.10
577.59	60577.75
577.75	60654.98
577.92	60760.31
578.08	60596.47
578.24	60715.84
578.40	60870.31
578.56	60896.06
578.72	60654.98
578.88	60828.18
579.04	60727.54
579.21	60704.13
579.37	60926.49
579.53	60748.60
579.69	60856.27
579.85	60722.86
580.01	60615.19
580.17	60678.39
580.33	60650.30
580.49	60685.41
580.65	60874.99
580.82	60636.26
580.98	60860.95
581.14	60509.87
581.30	60779.03
581.46	60757.97
581.62	60753.29
581.78	60566.04
581.94	60870.31
582.10	60867.97
582.26	60687.75
582.42	60809.46
582.58	60858.61
582.74	60893.72
582.90	60825.84
583.06	60767.33
583.22	60673.71
583.38	60837.54
583.54	60865.63
583.70	60860.95
583.86	60884.36
584.02	60832.86
584.18	60893.72
584.34	60865.63
584.50	60872.65
584.66	60917.12
584.82	60743.92
584.98	61003.72
585.14	60945.21
585.30	60718.18
585.46	60994.36
585.62	60701.79
585.78	60942.87
585.94	60727.54
586.10	60757.97
586.26	61008.40
586.42	61183.94
586.58	61095.00
586.74	60924.14
586.90	60914.78
587.06	61055.21
587.22	61137.13
587.38	60884.36
587.54	61036.49
587.70	61031.81
587.86	60729.88
588.02	60914.78
588.18	61045.85
588.34	60779.03
588.49	60891.38
588.65	61008.40
588.81	61017.77
588.97	61113.73
589.13	61155.86
589.29	61216.71
589.45	61254.16
589.61	61073.94
589.77	61382.89
589.93	61209.69
590.08	61223.73
590.24	61141.81
590.40	61261.18
590.56	61300.97
590.72	61385.23
590.88	61155.86
591.04	61057.56
591.20	61324.38
591.35	61343.10
591.51	61481.19
591.67	61516.30
591.83	61340.76
591.99	61345.44
592.15	61193.31
592.31	61179.26
592.46	61343.10
592.62	61312.67
592.78	61307.99
592.94	61401.61
593.10	61202.67
593.26	61361.82
593.41	61172.24
593.57	61172.24
593.73	61310.33
593.89	61626.31
594.05	61422.68
594.20	61174.58
594.36	61525.66
594.52	61464.81
594.68	61406.30
594.84	61244.80
594.99	61457.79
595.15	61336.08
595.31	61324.38
595.47	61450.77
595.62	61319.70
595.78	61340.76
595.94	61375.87
596.10	61518.64
596.25	61605.24
596.41	61609.92
596.57	61401.61
596.73	61478.85
596.88	61446.08
597.04	61588.86
597.20	61640.35
597.36	61581.84
597.51	61691.84
597.67	61380.55
597.83	61525.66
597.99	61520.98
598.14	61509.28
598.30	61649.71
598.46	61509.28
598.61	61736.31
598.77	61366.51
598.93	61497.58
599.09	61523.32
599.24	61932.92
599.40	61904.83
599.56	61776.10
599.71	61675.46
599.87	61855.68
600.03	61787.80
600.18	61724.61
600.34	61738.65
600.50	61642.69
600.65	61600.56
600.81	61682.48
600.97	61628.65
601.12	61535.02
601.28	61457.79
601.44	61560.77
601.59	61684.82
601.75	61694.18
601.91	61851.00
602.06	61715.25
602.22	61815.89
602.37	61703.54
602.53	61677.80
602.69	61612.26
602.84	61668.44
603.00	61619.28
603.16	61600.56
603.31	61846.32
603.47	61815.89
603.62	61703.54
603.78	61691.84
603.94	61602.90
604.09	61829.93
604.25	61619.28
604.40	61434.38
604.56	61572.47
604.71	61932.92
604.87	61474.17
605.03	61811.21
605.18	61649.71
605.34	61787.80
605.49	61492.89
605.65	61722.27
605.80	61579.49
605.96	61797.16
606.12	61750.35
606.27	61736.31
606.43	61553.75
606.58	61661.41
606.74	61661.41
606.89	61549.07
607.05	61771.42
607.20	61717.59
607.36	61612.26
607.51	61556.09
607.67	61300.97
607.82	61563.11
607.98	61387.57
608.13	61474.17
608.29	61509.28
608.44	61605.24
608.60	61628.65
608.75	61717.59
608.91	61595.88
609.06	61450.77
609.22	61731.63
609.37	61415.66
609.53	61705.88
609.68	61652.05
609.84	61364.17
609.99	61600.56
610.15	61567.79
610.30	61333.74
610.46	61677.80
610.61	61518.64
610.76	61371.19
610.92	61331.40
611.07	61504.60
611.23	61291.61
611.38	61450.77
611.54	61347.78
611.69	61504.60
611.84	61581.84
612.00	61560.77
612.15	61476.51
612.31	61443.74
612.46	61380.55
612.62	61586.52
612.77	61200.33
612.92	61619.28
613.08	61319.70
613.23	61394.59
613.39	61441.40
613.54	61160.54
613.69	61567.79
613.85	61392.25
614.00	61499.92
614.15	61401.61
614.31	61048.19
614.46	61338.42
614.62	61436.72
614.77	61244.80
614.92	61284.59
615.08	61139.47
615.23	61155.86
615.38	61436.72
615.54	61249.48
615.69	61207.35
615.84	61186.28
616.00	61270.54
616.15	61151.18
616.30	61441.40
616.46	61167.56
616.61	61146.50
616.76	61282.25
616.92	61034.15
617.07	61104.37
617.22	60877.33
617.37	61160.54
617.53	61272.88
617.68	61228.41
617.83	61223.73
617.99	61134.79
618.14	61064.58
618.29	61071.60
618.45	60952.23
618.60	61092.66
618.75	61197.99
618.90	60816.48
619.06	61146.50
619.21	61078.62
619.36	61258.84
619.51	60982.66
619.67	60832.86
619.82	61057.56
619.97	61202.67
620.12	60809.46
620.28	60776.69
620.43	60842.23
620.58	60837.54
620.73	60804.78
620.89	61258.84
621.04	61069.26
621.19	60807.12
621.34	60940.53
621.49	60985.00
621.65	60889.04
621.80	60839.89
621.95	60800.10
622.10	60853.93
622.25	60697.11
622.41	60617.53
622.56	60713.50
622.71	60814.14
622.86	60697.11
623.01	60669.03
623.16	60645.62
623.32	60779.03
623.47	60772.01
623.62	60739.24
623.77	60666.69
623.92	61001.38
624.07	60687.75
624.23	60568.38
624.38	60554.34
624.53	60355.39
624.68	60533.28
624.83	60488.80
624.98	60802.44
625.13	60491.15
625.29	60561.36
625.44	60617.53
625.59	60542.64
625.74	60516.89
625.89	60355.39
626.04	60519.23
626.19	60540.30
626.34	60280.50
626.49	60481.78
626.65	60275.82
626.80	60271.14
626.95	60107.30
627.10	60032.40
627.25	60310.92
627.40	60001.97
627.55	60088.57
627.70	60224.32
627.85	60086.23
628.00	60111.98
628.15	60299.22
628.30	60062.83
628.45	60182.19
628.60	60247.73
628.76	60175.17
628.91	60360.08
629.06	60126.02
629.21	60060.49
629.36	60100.28
629.51	59852.18
629.66	60104.96
629.81	60011.34
629.96	59882.61
630.11	59861.54
630.26	59971.55
630.41	60023.04
630.56	60041.76
630.71	59976.23
630.86	59978.57
631.01	59969.21
631.16	60020.70
631.31	59519.82
631.46	59625.15
631.61	59781.96
631.76	59889.63
631.91	59737.49
632.06	59957.50
632.21	59805.37
632.36	59781.96
632.51	59587.70
632.66	59817.07
632.81	59641.53
632.96	59906.01
633.10	59704.73
633.25	59781.96
633.40	59676.64
633.55	59721.11
633.70	59882.61
633.85	59779.62
634.00	59711.75
634.15	59646.21
634.30	59503.44
634.45	59903.67
634.60	59615.79
634.75	59515.14
634.90	59559.61
635.05	59678.98
635.19	59526.84
635.34	59620.47
635.49	59667.28
635.64	59421.52
635.79	59384.07
635.94	59473.01
636.09	59391.09
636.24	59377.05
636.39	59313.86
636.53	59608.76
636.68	59365.35
636.83	59470.67
636.98	59674.30
637.13	59377.05
637.28	59348.96
637.43	59231.94
637.57	59468.33
637.72	59245.98
637.87	59206.19
638.02	59224.92
638.17	59440.24
638.32	59430.88
638.46	59105.55
638.61	59255.34
638.76	59175.76
638.91	59295.13
639.06	59065.76
639.20	59121.93
639.35	59068.10
639.50	58857.45
639.65	59255.34
639.80	59058.74
639.94	59030.65
640.09	58937.03
640.24	59189.81
640.39	59011.93
640.54	59147.68
640.68	59128.95
640.83	58937.03
640.98	58944.05
641.13	58719.36
641.27	59150.02
641.42	58871.49
641.57	58817.66
641.72	58894.90
641.86	58796.60
642.01	58698.30
642.16	58885.54
642.31	58749.79
642.45	58672.55
642.60	58763.83
642.75	59119.59
642.90	58831.71
643.04	58892.56
643.19	58616.38
643.34	58464.24
643.48	58759.15
643.63	58747.45
643.78	58590.63
643.93	58747.45
644.07	58717.02
644.22	58468.92
644.37	58305.09
644.51	58337.85
644.66	58581.27
644.81	58541.48
644.95	58473.60
645.10	58642.12
645.25	58578.93
645.39	58412.75
645.54	58525.10
645.69	58377.64
645.83	58394.03
645.98	58513.39
646.13	58674.89
646.27	58588.29
646.42	58387.00
646.57	58436.16
646.71	58571.91
646.86	58417.43
647.00	58520.41
647.15	58333.17
647.30	58269.98
647.44	58415.09
647.59	58501.69
647.74	58412.75
647.88	58232.53
648.03	58555.52
648.17	58319.13
648.32	58169.33
648.47	58361.26
648.61	58209.12
648.76	58447.86
648.90	58223.17
649.05	58302.74
649.20	58204.44
649.34	58110.82
649.49	58281.68
649.63	58379.98
649.78	58396.37
649.92	58103.80
650.07	58206.78
650.21	58073.37
650.36	58157.63
650.51	57914.22
650.65	58239.55
650.80	57998.48
650.94	57944.64
651.09	57818.25
651.23	57717.61
651.38	57881.45
651.52	57453.13
651.67	57652.08
651.81	57663.78
651.96	57574.84
652.10	57846.34
652.25	57886.13
652.39	57755.06
652.54	57457.81
652.68	57490.58
652.83	57584.20
652.97	57785.49
653.12	57724.63
653.26	57680.16
653.41	57944.64
653.55	57682.50
653.70	57614.63
653.84	57684.84
653.99	57638.03
654.13	57530.37
654.27	57518.67
654.42	57593.56
654.56	57518.67
654.71	57509.30
654.85	57733.99
655.00	57605.26
655.14	57263.55
655.29	57394.62
655.43	57605.26
655.57	57443.77
655.72	57366.53
655.86	57453.13
656.01	57439.09
656.15	57378.23
656.30	57666.12
656.44	57567.82
656.58	57450.79
656.73	57462.49
656.87	57200.35
657.01	57364.19
657.16	57481.22
657.30	57141.84
657.45	57331.42
657.59	57123.11
657.73	57055.24
657.88	57073.96
658.02	57095.03
658.16	57113.75
658.31	56945.23
658.45	56896.08
658.60	56898.42
658.74	57207.37
658.88	56924.17
659.03	56900.76
659.17	56795.44
659.31	57022.47
659.46	57015.45
659.60	56575.43
659.74	56757.99
659.89	56783.74
660.03	56741.61
660.17	56963.96
660.32	56687.78
660.46	56638.62
660.60	56563.73
660.74	56823.53
660.89	56624.58
661.03	56275.84
661.17	56467.76
661.32	56289.88
661.46	56280.52
661.60	56465.42
661.74	56165.84
661.89	56119.02
662.03	56273.50
662.17	55957.53
662.31	55945.83
662.46	56425.64
662.60	56135.41
662.74	56020.72
662.88	55913.06
663.03	55873.27
663.17	56179.88
663.31	55695.39
663.45	55868.59
663.60	55824.12
663.74	55341.97
663.88	55634.53
664.02	55721.13
664.17	55784.33
664.31	55264.73
664.45	55679.00
664.59	55826.46
664.73	55580.70
664.88	55569.00
665.02	55323.24
665.16	55320.90
665.30	55386.44
665.44	55391.12
665.59	55150.04
665.73	55377.08
665.87	55332.60
666.01	55217.92
666.15	55412.18
666.29	55358.35
666.44	55079.83
666.58	54794.28
666.72	54827.05
666.86	54967.48
667.00	55103.23
667.14	54609.38
667.28	54850.45
667.43	54550.87
667.57	54705.34
667.71	54543.84
667.85	54429.16
667.99	54550.87
668.13	54403.41
668.27	54447.88
668.41	54211.49
668.56	53848.71
668.70	53867.43
668.84	53862.75
668.98	53698.91
669.12	54218.51
669.26	54183.40
669.40	54342.56
669.54	54110.85
669.68	53907.22
669.82	54028.93
669.96	54124.89
670.10	53921.26
670.25	53958.71
670.39	53820.62
670.53	53570.18
670.67	53476.56
670.81	53916.58
670.95	53567.84
671.09	53783.17
671.23	53212.08
671.37	53319.74
671.51	53200.38
671.65	53329.11
671.79	53031.86
671.93	52882.06
672.07	53221.44
672.21	52783.76
672.35	52713.55
672.49	52526.30
672.63	52648.01
672.77	52589.50
672.91	52516.94
673.05	52210.33
673.19	52250.12
673.33	52240.76
673.47	52353.10
673.61	52149.48
673.75	52285.23
673.89	52086.28
674.03	52058.20
674.17	51852.23
674.31	51697.75
674.45	51461.36
674.59	51573.70
674.73	51845.21
674.87	51482.42
675.01	51330.29
675.15	51526.89
675.29	51334.97
675.43	51526.89
675.56	51224.96
675.70	50691.32
675.84	50667.92
675.98	49902.56
676.12	51147.73
676.26	50733.45
676.40	50216.19
676.54	50539.19
676.68	50609.40
676.82	50265.34
676.96	50358.97
677.10	50227.90
677.23	50042.99
677.37	49661.49
677.51	49654.47
677.65	49179.34
677.79	48715.91
677.93	48924.22
678.07	48947.62
678.21	48996.77
678.34	48802.51
678.48	49209.76
678.62	48779.10
678.76	48619.95
678.90	48748.68
679.04	48350.79
679.18	48573.14
679.31	47777.36
679.45	47737.57
679.59	47798.42
679.73	47852.25
679.87	47601.82
680.00	47000.30
680.14	46941.78
680.28	47274.14
680.42	46876.25
680.56	46263.03
680.70	46763.90
680.83	46476.02
680.97	46244.30
681.11	46724.11
681.25	46349.63
681.39	46319.20
681.52	46319.20
681.66	46288.77
681.80	45752.79
681.94	45380.65
682.07	45708.32
682.21	45317.45
682.35	45179.36
682.49	44942.97
682.62	45261.28
682.76	45078.72
682.90	45057.65
683.04	44935.95
683.17	44753.38
683.31	44025.48
683.45	44065.27
683.59	43875.68
683.72	43611.20
683.86	43735.25
684.00	43566.73
684.13	44048.88
684.27	43590.14
684.41	43810.15
684.55	43662.69
684.68	43189.91
684.82	42930.11
684.96	42887.98
685.09	42572.00
685.23	42497.11
685.37	42220.92
685.50	42293.48
685.64	42366.04
685.78	42080.49
685.91	42120.28
686.05	41893.25
686.19	41045.97
686.32	41287.05
686.46	40858.73
686.60	40177.64
686.73	40425.73
686.87	40680.85
687.01	40556.80
687.14	40545.10
687.28	40336.79
687.42	40493.61
687.55	39992.73
687.69	40435.10
687.82	39658.04
687.96	39447.39
688.10	39278.87
688.23	39590.16
688.37	39239.08
688.50	39129.08
688.64	38719.48
688.78	38778.00
688.91	38455.00
689.05	38857.57
689.18	38686.71
689.32	37453.25
689.46	37584.32
689.59	37708.37
689.73	37434.53
689.86	37216.86
690.00	37294.10
690.13	37624.11
690.27	37706.03
690.41	36994.51
690.54	36786.20
690.68	36334.48
690.81	36601.30
690.95	36432.78
691.08	36072.34
691.22	35985.74
691.35	35620.61
691.49	36112.13
691.62	35857.01
691.76	35426.35
691.89	35517.63
692.03	35281.24
692.16	35201.66
692.30	35152.51
692.43	34621.20
692.57	34665.67
692.70	34377.79
692.84	34686.74
692.97	34333.32
693.11	34342.68
693.24	34075.86
693.38	34000.96
693.51	33266.03
693.65	33507.11
693.78	33282.42
693.92	33495.41
694.05	33259.01
694.19	32844.74
694.32	32973.47
694.45	32823.67
694.59	32947.72
694.72	32268.97
694.86	32353.23
694.99	32100.45
695.13	31981.08
695.26	31482.55
695.39	31274.24
695.53	31515.31
695.66	31562.12
695.80	31234.45
695.93	30684.42
696.07	30621.23
696.20	30466.75
696.33	30590.80
696.47	31030.82
696.60	30433.99
696.73	30204.61
696.87	30281.85
697.00	30312.28
697.14	30368.45
697.27	29963.54
697.40	29937.79
697.54	29453.30
697.67	29359.68
697.80	29495.43
697.94	28840.08
698.07	28961.79
698.21	28648.16
698.34	28945.41
698.47	28535.81
698.61	28149.62
698.74	28638.80
698.87	28526.45
699.01	28163.67
699.14	28215.16
699.27	28088.77
699.40	28486.66
699.54	27800.88
699.67	27274.26
699.80	27529.38
699.94	27026.17
700.07	27541.08
700.20	26906.80
700.34	26726.58
700.47	26319.32
700.60	26532.31
700.73	26565.08
700.87	25930.80
701.00	26099.31
701.13	25825.47
701.26	25560.99
701.40	25654.61
701.53	25603.12
701.66	25640.57
701.79	25074.16
701.93	25450.99
702.06	25006.28
702.19	25048.41
702.32	25273.10
702.46	24697.33
702.59	24294.76
702.72	24680.95
702.85	24332.21
702.99	24149.65
703.12	23964.75
703.25	23798.57
703.38	23768.14
703.51	23578.56
703.65	23349.18
703.78	22850.65
703.91	23260.24
704.04	23302.37
704.17	23295.35
704.31	23073.00
704.44	22632.98
704.57	22834.27
704.70	22649.36
704.83	22118.06
704.96	22429.35
705.10	22202.32
705.23	22019.76
>>>>>End Processed Spectral Data<<<<<
