SpectraSuite Data File
++++++++++++++++++++++++++++++++++++
Date: Fri Oct 25 11:23:27 EDT 2013
User: price-jones
Dark Spectrum Present: No
Reference Spectrum Present: No
Number of Sampled Component Spectra: 1
Spectrometers: USB2+H05261
Integration Time (usec): 100000 (USB2+H05261)
Spectra Averaged: 1 (USB2+H05261)
Boxcar Smoothing: 0 (USB2+H05261)
Correct for Electrical Dark: No (USB2+H05261)
Strobe/Lamp Enabled: No (USB2+H05261)
Correct for Detector Non-linearity: No (USB2+H05261)
Correct for Stray Light: No (USB2+H05261)
Number of Pixels in Processed Spectrum: 2048
>>>>>Begin Processed Spectral Data<<<<<
365.73	210.65
365.92	210.65
366.12	210.65
366.32	161.50
366.52	140.43
366.72	77.24
366.91	37.45
367.11	126.39
367.31	133.41
367.51	156.82
367.70	53.83
367.90	117.03
368.10	79.58
368.30	117.03
368.49	154.48
368.69	100.64
368.89	175.54
369.09	124.05
369.28	147.45
369.48	156.82
369.68	156.82
369.87	135.75
370.07	220.01
370.27	255.12
370.47	383.85
370.66	571.09
370.86	601.52
371.06	676.41
371.25	613.22
371.45	601.52
371.65	669.39
371.84	650.67
372.04	751.31
372.24	685.78
372.44	608.54
372.63	744.29
372.83	791.10
373.03	755.99
373.22	781.74
373.42	819.19
373.62	805.14
373.81	758.33
374.01	819.19
374.21	833.23
374.40	805.14
374.60	828.55
374.79	786.42
374.99	816.85
375.19	840.25
375.38	807.48
375.58	760.67
375.78	880.04
375.97	873.02
376.17	891.74
376.37	861.32
376.56	891.74
376.76	856.64
376.95	908.13
377.15	873.02
377.35	854.30
377.54	849.61
377.74	837.91
377.93	966.64
378.13	926.85
378.33	945.58
378.52	950.26
378.72	1025.15
378.91	903.45
379.11	793.44
379.31	847.27
379.50	952.60
379.70	1006.43
379.89	926.85
380.09	933.87
380.28	880.04
380.48	973.66
380.68	959.62
380.87	1013.45
381.07	1050.90
381.26	983.02
381.46	961.96
381.65	971.32
381.85	945.58
382.04	1050.90
382.24	1121.12
382.43	1114.10
382.63	1018.13
382.83	1090.69
383.02	1053.24
383.22	1130.48
383.41	1095.37
383.61	1039.20
383.80	1132.82
384.00	1109.41
384.19	1221.76
384.39	1104.73
384.58	1174.95
384.78	1121.12
384.97	1256.87
385.17	1151.54
385.36	1214.74
385.56	1151.54
385.75	1181.97
385.95	1158.57
386.14	1165.59
386.34	1266.23
386.53	1121.12
386.72	1116.44
386.92	1212.40
387.11	1214.74
387.31	1231.12
387.50	1238.14
387.70	1313.04
387.89	1299.00
388.09	1221.76
388.28	1327.08
388.48	1219.42
388.67	1336.45
388.86	1240.48
389.06	1247.51
389.25	1357.51
389.45	1247.51
389.64	1294.32
389.84	1371.55
390.03	1409.00
390.22	1455.81
390.42	1362.19
390.61	1394.96
390.81	1371.55
391.00	1476.88
391.19	1502.62
391.39	1458.15
391.58	1437.09
391.78	1446.45
391.97	1488.58
392.16	1507.30
392.36	1540.07
392.55	1544.75
392.75	1427.73
392.94	1575.18
393.13	1528.37
393.33	1519.01
393.52	1563.48
393.71	1549.43
393.91	1502.62
394.10	1577.52
394.29	1682.85
394.49	1526.03
394.68	1582.20
394.88	1650.08
395.07	1614.97
395.26	1647.74
395.46	1650.08
395.65	1769.44
395.84	1682.85
396.04	1696.89
396.23	1689.87
396.42	1703.91
396.62	1746.04
396.81	1893.49
397.00	1781.15
397.19	1727.32
397.39	1872.43
397.58	1809.23
397.77	1832.64
397.97	1809.23
398.16	1839.66
398.35	1863.07
398.55	1851.36
398.74	1930.94
398.93	1984.77
399.12	1884.13
399.32	2015.20
399.51	1982.43
399.70	2008.18
399.90	1907.54
400.09	2005.84
400.28	2038.61
400.47	2099.46
400.67	2153.29
400.86	2040.95
401.05	2080.74
401.24	2157.97
401.44	2118.18
401.63	2165.00
401.82	2118.18
402.01	2174.36
402.21	2181.38
402.40	2125.21
402.59	2120.53
402.78	2214.15
402.97	2228.19
403.17	2305.43
403.36	2289.04
403.55	2230.53
403.74	2354.58
403.93	2335.85
404.13	2303.09
404.32	2361.60
404.51	2457.56
404.70	2427.14
404.89	2359.26
405.09	2487.99
405.28	2459.90
405.47	2443.52
405.66	2359.26
405.85	2579.27
406.05	2530.12
406.24	2525.44
406.43	2551.18
406.62	2548.84
406.81	2689.28
407.00	2558.21
407.20	2623.74
407.39	2623.74
407.58	2649.49
407.77	2700.98
407.96	2754.81
408.15	2605.02
408.34	2731.41
408.54	2869.50
408.73	2778.22
408.92	2813.32
409.11	2920.99
409.30	2930.35
409.49	2979.50
409.68	2864.82
409.87	2932.69
410.07	2986.52
410.26	2988.86
410.45	2965.46
410.64	3026.31
410.83	3068.44
411.02	3049.72
411.21	3229.94
411.40	3119.93
411.59	3197.17
411.78	3115.25
411.98	3136.32
412.17	3211.22
412.36	3194.83
412.55	3400.80
412.74	3616.13
412.93	3487.40
413.12	3398.46
413.31	3529.53
413.50	3414.84
413.69	3452.29
413.88	3674.64
414.07	3595.06
414.26	3644.21
414.45	3602.08
414.64	3538.89
414.83	3695.71
415.02	3679.32
415.22	3831.46
415.41	3843.16
415.60	3803.37
415.79	3808.05
415.98	3950.82
416.17	3894.65
416.36	3871.25
416.55	3967.21
416.74	4079.55
416.93	3985.93
417.12	4147.43
417.31	4210.62
417.50	4168.49
417.69	4280.84
417.88	4212.96
418.07	4381.48
418.26	4339.35
418.45	4486.81
418.64	4547.66
418.83	4407.23
419.02	4475.10
419.21	4461.06
419.39	4470.42
419.58	4407.23
419.77	4489.15
419.96	4571.07
420.15	4454.04
420.34	4477.44
420.53	4585.11
420.72	4704.48
420.91	4685.75
421.10	4807.46
421.29	4788.74
421.48	4690.43
421.67	4865.97
421.86	4748.95
422.05	4741.93
422.24	4751.29
422.43	4791.08
422.61	4915.12
422.80	4912.78
422.99	4922.15
423.18	5064.92
423.37	5032.15
423.56	5055.56
423.75	4809.80
423.94	4880.02
424.13	4542.98
424.32	4734.90
424.50	5034.49
424.69	5078.96
424.88	5142.16
425.07	4985.34
425.26	4779.37
425.45	4952.57
425.64	4985.34
425.83	4985.34
426.01	5100.03
426.20	5163.22
426.39	4980.66
426.58	4938.53
426.77	5036.83
426.96	5282.59
427.15	4922.15
427.33	5163.22
427.52	5097.69
427.71	5397.28
427.90	5151.52
428.09	5282.59
428.28	5390.25
428.46	5369.19
428.65	5296.63
428.84	5612.60
429.03	5479.19
429.22	5317.70
429.40	5474.51
429.59	5511.96
429.78	5336.42
429.97	5160.88
430.16	5413.66
430.34	5593.88
430.53	5776.44
430.72	5497.92
430.91	5837.30
431.10	5537.71
431.28	5792.83
431.47	5757.72
431.66	5914.53
431.85	5813.89
432.03	5923.90
432.22	5970.71
432.41	5944.96
432.60	5949.64
432.79	5942.62
432.97	5916.87
433.16	5987.09
433.35	6050.28
433.54	6169.65
433.72	6214.12
433.91	6031.56
434.10	6253.91
434.28	6057.31
434.47	6242.21
434.66	6293.70
434.85	6359.24
435.03	6335.83
435.22	6359.24
435.41	6459.88
435.59	6340.51
435.78	6272.64
435.97	6532.44
436.16	6492.65
436.34	6384.98
436.53	6502.01
436.72	6722.02
436.90	6520.73
437.09	6778.19
437.28	6462.22
437.46	6626.06
437.65	6509.03
437.84	6806.28
438.02	6747.76
438.21	6834.36
438.40	6843.73
438.58	7098.84
438.77	7103.53
438.96	6967.77
439.14	7126.93
439.33	7204.17
439.52	7211.19
439.70	7157.36
439.89	7222.89
440.08	7431.20
440.26	7323.54
440.45	7461.63
440.63	7435.88
440.82	7653.55
441.01	7569.29
441.19	7721.43
441.38	7705.04
441.57	7758.88
441.75	7779.94
441.94	7868.88
442.12	7995.27
442.31	7939.10
442.50	8030.38
442.68	7932.08
442.87	8131.02
443.05	8051.44
443.24	8245.71
443.43	8100.59
443.61	8112.30
443.80	8456.36
443.98	8030.38
444.17	7906.33
444.35	8039.74
444.54	8297.20
444.73	8369.76
444.91	8395.50
445.10	8208.26
445.28	8128.68
445.47	8177.83
445.65	8313.58
445.84	8329.97
446.02	8423.59
446.21	8496.14
446.39	8451.67
446.58	8659.98
446.77	8575.72
446.95	8245.71
447.14	8416.57
447.32	8587.43
447.51	8386.14
447.69	8622.53
447.88	8610.83
448.06	8519.55
448.25	8554.66
448.43	8685.73
448.62	8655.30
448.80	8643.60
448.99	8519.55
449.17	8751.26
449.36	8629.56
449.54	8858.93
449.73	9025.11
449.91	9114.05
450.10	8978.30
450.28	8997.02
450.46	9184.26
450.65	8964.25
450.83	9104.68
451.02	9022.77
451.20	9118.73
451.39	9114.05
451.57	9067.24
451.76	8903.40
451.94	9160.86
452.13	9408.95
452.31	9320.01
452.49	9205.33
452.68	9423.00
452.86	9451.08
453.05	9280.22
453.23	9348.10
453.42	9401.93
453.60	9645.35
453.78	9607.90
453.97	9420.66
454.15	9540.02
454.34	9558.75
454.52	9797.48
454.70	9708.54
454.89	9809.19
455.07	9680.46
455.26	9853.66
455.44	10003.45
455.62	9823.23
455.81	9937.91
455.99	10099.41
456.17	10099.41
456.36	10005.79
456.54	10249.21
456.73	10394.32
456.91	10431.77
457.09	10384.96
457.28	10628.37
457.46	10321.76
457.64	10661.14
457.83	10436.45
458.01	10490.28
458.19	10778.17
458.38	10595.61
458.56	10787.53
458.74	10466.88
458.93	10836.68
459.11	10745.40
459.29	10719.65
459.48	10773.49
459.66	10857.75
459.84	10944.34
460.03	11073.07
460.21	11005.20
460.39	11080.10
460.57	11129.25
460.76	11136.27
460.94	10958.39
461.12	11059.03
461.31	11084.78
461.49	11243.93
461.67	11154.99
461.85	11384.37
462.04	11250.96
462.22	11810.34
462.40	11461.60
462.59	11566.93
462.77	11445.22
462.95	11669.91
463.13	11461.60
463.32	11714.38
463.50	11786.94
463.68	11644.17
463.86	11875.88
464.05	11618.42
464.23	11800.98
464.41	11892.26
464.59	11698.00
464.78	12166.10
464.96	12002.27
465.14	11765.87
465.32	12025.67
465.50	11976.52
465.69	12226.96
465.87	12084.19
466.05	11868.86
466.23	12243.34
466.41	12091.21
466.60	12395.48
466.78	12212.92
466.96	12292.49
467.14	12507.82
467.32	12498.46
467.51	12627.19
467.69	12175.47
467.87	12678.68
468.05	12718.47
468.23	12257.39
468.41	12465.69
468.60	12503.14
468.78	12765.28
468.96	12575.70
469.14	12891.67
469.32	12968.91
469.50	12556.97
469.69	12641.23
469.87	13193.60
470.05	13149.13
470.23	13245.09
470.41	13188.92
470.59	13413.61
470.77	13202.96
470.95	13039.12
471.14	13460.42
471.32	13305.95
471.50	13596.17
471.68	13472.12
471.86	13729.58
472.04	13907.46
472.22	13916.83
472.40	13825.54
472.58	13951.93
472.77	14015.13
472.95	14422.38
473.13	14792.19
473.31	14054.92
473.49	14195.35
473.67	14310.04
473.85	14258.54
474.03	14731.33
474.21	14689.20
474.39	14752.40
474.57	14733.67
474.75	14970.07
474.93	15054.33
475.12	15105.82
475.30	15115.18
475.48	15293.06
475.66	15538.82
475.84	15173.69
476.02	15428.81
476.20	15515.41
476.38	15836.06
476.56	16091.18
476.74	16102.89
476.92	15953.09
477.10	15803.30
477.28	16009.26
477.46	16451.63
477.64	16386.09
477.82	16475.03
478.00	16868.24
478.18	16994.63
478.36	16905.69
478.54	17357.41
478.72	17242.73
478.90	17483.80
479.08	17652.32
479.26	17628.92
479.44	17839.56
479.62	17987.02
479.80	17951.91
479.98	18455.12
480.16	18642.37
480.34	18162.56
480.52	18560.45
480.70	18679.82
480.88	18485.55
481.06	18450.44
481.24	18656.41
481.41	19049.62
481.59	19583.26
481.77	19711.99
481.95	19700.29
482.13	19847.74
482.31	19658.16
482.49	20327.55
482.67	20386.07
482.85	20556.93
483.03	20727.78
483.21	20952.48
483.39	21025.03
483.57	20673.95
483.74	21013.33
483.92	21465.05
484.10	21333.98
484.28	21647.61
484.46	21869.97
484.64	22555.74
484.82	22281.90
485.00	22340.41
485.18	23007.47
485.35	23166.62
485.53	22979.38
485.71	23262.58
485.89	23534.09
486.07	23297.69
486.25	23335.14
486.43	23693.24
486.61	24074.75
486.78	24039.64
486.96	24196.46
487.14	24510.09
487.32	24533.50
487.50	25003.94
487.68	25099.90
487.85	25390.13
488.03	25720.15
488.21	25413.54
488.39	25881.64
488.57	26333.37
488.75	26188.25
488.92	26312.30
489.10	26941.91
489.28	26719.56
489.46	27260.22
489.64	27175.96
489.81	27828.97
489.99	27882.80
490.17	27742.37
490.35	28149.62
490.53	28271.33
490.70	28556.88
490.88	28308.78
491.06	28886.89
491.24	28774.55
491.41	29067.11
491.59	29340.96
491.77	29376.06
491.95	29867.58
492.13	29640.54
492.30	30101.63
492.48	30192.91
492.66	30199.93
492.84	30534.63
493.01	30916.14
493.19	30476.12
493.37	31072.95
493.54	30850.60
493.72	31534.04
493.90	31564.46
494.08	32158.96
494.25	32149.60
494.43	31615.96
494.61	32456.21
494.79	32613.02
494.96	32718.35
495.14	32985.17
495.32	33280.08
495.49	32690.26
495.67	33333.91
495.85	33659.24
496.02	33724.78
496.20	34054.79
496.38	34256.08
496.55	34679.72
496.73	34859.94
496.91	34691.42
497.09	34511.20
497.26	35168.89
497.44	34866.96
497.62	35105.70
497.79	35700.19
497.97	35625.29
498.14	36212.77
498.32	36215.11
498.50	36041.91
498.67	36676.19
498.85	36650.45
499.03	37095.15
499.20	36825.99
499.38	37174.73
499.56	36996.85
499.73	36931.31
499.91	37703.69
500.08	37684.97
500.26	37146.64
500.44	37610.07
500.61	38223.29
500.79	37663.90
500.97	38326.27
501.14	38869.28
501.32	38878.64
501.49	38775.66
501.67	38686.71
501.84	38899.70
502.02	38770.97
502.20	39175.89
502.37	39070.56
502.55	39510.58
502.72	39887.41
502.90	39452.07
503.07	39473.13
503.25	40285.30
503.43	39786.77
503.60	40187.00
503.78	40414.03
503.95	40697.24
504.13	40783.83
504.30	40896.18
504.48	40533.40
504.65	41041.29
504.83	40868.09
505.01	41633.45
505.18	41193.43
505.36	41612.38
505.53	41102.15
505.71	41530.47
505.88	42066.45
506.06	41820.69
506.23	41682.60
506.41	41914.31
506.58	42665.63
506.76	42286.46
506.93	42143.69
507.11	42426.89
507.28	42997.98
507.46	42576.69
507.63	42763.93
507.81	43150.12
507.98	42824.78
508.16	43147.78
508.33	43236.72
508.50	43824.19
508.68	44100.37
508.85	44069.95
509.03	44083.99
509.20	44186.97
509.38	44580.18
509.55	44194.00
509.73	44767.43
509.90	44313.36
510.08	44814.24
510.25	44540.39
510.42	44626.99
510.60	44835.30
510.77	45375.97
510.95	45296.39
511.12	45713.00
511.30	45207.45
511.47	45705.98
511.64	45500.01
511.82	46017.27
511.99	45703.64
512.17	45984.51
512.34	45867.48
512.51	46183.45
512.69	46476.02
512.86	46279.41
513.04	47086.90
513.21	46487.72
513.38	46981.57
513.56	47454.36
513.73	47007.32
513.90	46892.63
514.08	46866.89
514.25	47096.26
514.43	47372.44
514.60	47604.16
514.77	47679.05
514.95	47880.34
515.12	47683.73
515.29	47814.80
515.47	48072.26
515.64	48280.57
515.81	48266.53
515.99	48018.43
516.16	48327.38
516.33	48451.43
516.51	48825.92
516.68	48633.99
516.85	48727.61
517.03	48931.24
517.20	49102.10
517.37	49083.37
517.54	49127.84
517.72	49303.38
517.89	49134.87
518.06	49368.92
518.24	49303.38
518.41	49607.65
518.58	49453.18
518.75	49326.79
518.93	49467.22
519.10	49729.36
519.27	49935.33
519.45	49556.16
519.62	49909.58
519.79	50101.51
519.96	50532.17
520.14	49956.39
520.31	50122.57
520.48	50609.40
520.65	50263.00
520.83	50562.59
521.00	50340.24
521.17	50740.47
521.34	50766.22
521.52	51009.64
521.69	50920.70
521.86	51332.63
522.03	51152.41
522.20	51419.23
522.38	51625.20
522.55	51608.81
522.72	51400.50
522.89	51288.16
523.07	51742.22
523.24	51599.45
523.41	51512.85
523.58	51217.94
523.75	51826.48
523.92	51978.62
524.10	52135.43
524.27	52069.90
524.44	52294.59
524.61	51957.55
524.78	52303.95
524.96	52266.50
525.13	52360.12
525.30	52573.11
525.47	52687.80
525.64	52505.24
525.81	52664.39
525.98	52996.75
526.16	52844.62
526.33	52877.38
526.50	53137.18
526.67	53022.50
526.84	53048.24
527.01	52678.44
527.18	52685.46
527.36	52947.60
527.53	53057.60
527.70	53670.82
527.87	53174.63
528.04	53191.01
528.21	53574.86
528.38	53315.06
528.55	53708.27
528.72	53680.19
528.89	53563.16
529.07	53722.32
529.24	53595.93
529.41	53839.34
529.58	53565.50
529.75	53642.74
529.92	53909.56
530.09	53827.64
530.26	53874.45
530.43	54094.46
530.60	53827.64
530.77	54136.59
530.94	54176.38
531.11	54127.23
531.28	54506.40
531.46	54220.85
531.63	54309.79
531.80	54124.89
531.97	54342.56
532.14	54712.36
532.31	54705.34
532.48	54672.57
532.65	54789.60
532.82	54574.27
532.99	54791.94
533.16	55009.61
533.33	54969.82
533.50	55000.25
533.67	54695.98
533.84	55054.08
534.01	55018.97
534.18	55025.99
534.35	55400.48
534.52	55189.83
534.69	55367.71
534.86	55468.36
535.03	55159.41
535.20	55260.05
535.37	55590.06
535.54	55494.10
535.71	55475.38
535.88	55571.34
536.05	55508.14
536.22	55466.02
536.38	55681.34
536.55	55505.80
536.72	55798.37
536.89	55697.73
537.06	55737.52
537.23	55863.91
537.40	55667.30
537.57	55894.33
537.74	55948.17
537.91	55917.74
538.08	55796.03
538.25	55884.97
538.42	55922.42
538.59	56184.56
538.75	55882.63
538.92	56168.18
539.09	56240.73
539.26	56245.41
539.43	56062.85
539.60	56247.75
539.77	56268.82
539.94	56554.36
540.11	56467.76
540.28	56521.60
540.44	56526.28
540.61	56640.96
540.78	56486.49
540.95	56491.17
541.12	56144.77
541.29	56596.49
541.46	56640.96
541.62	56809.48
541.79	56947.57
541.96	56870.34
542.13	56608.20
542.30	56793.10
542.47	56961.62
542.63	56907.79
542.80	57006.09
542.97	57258.87
543.14	57249.50
543.31	57106.73
543.48	57139.50
543.64	57537.39
543.81	57286.95
543.98	57556.11
544.15	57315.04
544.32	57567.82
544.48	57719.95
544.65	57455.47
544.82	57579.52
544.99	57146.52
545.16	57289.29
545.32	57621.65
545.49	57668.46
545.66	57895.49
545.83	57670.80
546.00	57729.31
546.16	57659.10
546.33	57794.85
546.50	57659.10
546.67	58017.20
546.83	57530.37
547.00	57991.45
547.17	57937.62
547.34	57829.96
547.50	58014.86
547.67	58117.84
547.84	57946.98
548.00	58326.15
548.17	58349.56
548.34	58202.10
548.51	58464.24
548.67	58335.51
548.84	58080.39
549.01	58232.53
549.18	58265.30
549.34	58417.43
549.51	58298.06
549.68	58569.57
549.84	58379.98
550.01	58398.71
550.18	58347.21
550.34	58534.46
550.51	58527.44
550.68	58389.34
550.84	58363.60
551.01	58721.70
551.18	58541.48
551.34	58649.14
551.51	58705.32
551.68	58529.78
551.84	58571.91
552.01	58527.44
552.18	58777.87
552.34	58684.25
552.51	58651.48
552.68	58379.98
552.84	58738.08
553.01	58876.18
553.18	58862.13
553.34	58934.69
553.51	58920.65
553.67	58876.18
553.84	59103.21
554.01	59061.08
554.17	59114.91
554.34	59025.97
554.51	59093.85
554.67	59091.51
554.84	59030.65
555.00	59166.40
555.17	59051.72
555.33	59051.72
555.50	59250.66
555.67	59157.04
555.83	58974.48
556.00	59276.41
556.16	59440.24
556.33	59290.45
556.50	59229.60
556.66	59320.88
556.83	59276.41
556.99	59468.33
557.16	59449.61
557.32	59601.74
557.49	59592.38
557.65	59423.86
557.82	59501.10
557.98	59454.29
558.15	59463.65
558.32	59550.25
558.48	59477.69
558.65	59477.69
558.81	59501.10
558.98	59503.44
559.14	59686.00
559.31	59838.14
559.47	59760.90
559.64	59564.29
559.80	59739.83
559.97	59793.67
560.13	59688.34
560.30	59791.33
560.46	59725.79
560.63	59655.57
560.79	59882.61
560.96	59964.52
561.12	59938.78
561.29	59817.07
561.45	59882.61
561.61	59817.07
561.78	59803.03
561.94	59962.18
562.11	59854.52
562.27	59957.50
562.44	59941.12
562.60	60140.07
562.77	60212.62
562.93	59852.18
563.10	60102.62
563.26	59994.95
563.42	60238.37
563.59	60025.38
563.75	60310.92
563.92	60189.22
564.08	60238.37
564.24	60182.19
564.41	60168.15
564.57	60151.77
564.74	60250.07
564.90	60287.52
565.07	60074.53
565.23	60385.82
565.39	60102.62
565.56	60170.49
565.72	60177.51
565.88	60198.58
566.05	60264.11
566.21	60156.45
566.38	60219.64
566.54	60308.58
566.70	60411.57
566.87	60603.49
567.03	60308.58
567.19	60460.72
567.36	60362.42
567.52	60306.24
567.68	60460.72
567.85	60458.38
568.01	60381.14
568.17	60411.57
568.34	60633.92
568.50	60350.71
568.66	60512.21
568.83	60343.69
568.99	60406.89
569.15	60786.05
569.32	60341.35
569.48	60252.41
569.64	60582.43
569.81	60427.95
569.97	60514.55
570.13	60577.75
570.30	60355.39
570.46	60725.20
570.62	60783.71
570.78	60624.56
570.95	60502.85
571.11	60577.75
571.27	60367.10
571.43	60594.13
571.60	60832.86
571.76	60610.51
571.92	60701.79
572.09	60783.71
572.25	60701.79
572.41	60615.19
572.57	60727.54
572.74	60999.04
572.90	60563.70
573.06	60629.24
573.22	60776.69
573.38	60692.43
573.55	60643.28
573.71	60987.34
573.87	60720.52
574.03	60500.51
574.20	60769.67
574.36	60769.67
574.52	60743.92
574.68	60713.50
574.84	60954.57
575.01	60872.65
575.17	60781.37
575.33	60683.07
575.49	60725.20
575.65	60793.07
575.82	60846.91
575.98	60816.48
576.14	60989.68
576.30	60893.72
576.46	60729.88
576.62	60683.07
576.79	60900.74
576.95	60809.46
577.11	60879.67
577.27	61003.72
577.43	61020.11
577.59	60781.37
577.75	60851.59
577.92	60772.01
578.08	60676.05
578.24	60795.42
578.40	61123.09
578.56	61062.24
578.72	61162.88
578.88	61001.38
579.04	61188.63
579.21	61183.94
579.37	61048.19
579.53	61303.31
579.69	60507.53
579.85	61017.77
580.01	60874.99
580.17	60783.71
580.33	61043.51
580.49	61057.56
580.65	61001.38
580.82	60804.78
580.98	60942.87
581.14	60872.65
581.30	60942.87
581.46	61006.06
581.62	61055.21
581.78	60837.54
581.94	61289.27
582.10	61029.47
582.26	61069.26
582.42	60947.55
582.58	61130.11
582.74	60900.74
582.90	60856.27
583.06	60828.18
583.22	60968.61
583.38	60996.70
583.54	61003.72
583.70	61123.09
583.86	60959.25
584.02	60786.05
584.18	61102.03
584.34	61099.68
584.50	61034.15
584.66	61020.11
584.82	60867.97
584.98	61207.35
585.14	61158.20
585.30	60767.33
585.46	61195.65
585.62	61076.28
585.78	61209.69
585.94	60966.27
586.10	61162.88
586.26	61137.13
586.42	61188.63
586.58	61277.57
586.74	61092.66
586.90	61092.66
587.06	61275.22
587.22	61289.27
587.38	61226.07
587.54	61137.13
587.70	61268.20
587.86	60980.32
588.02	60952.23
588.18	61153.52
588.34	61083.30
588.49	61120.75
588.65	61024.79
588.81	61111.39
588.97	61464.81
589.13	61235.44
589.29	61216.71
589.45	61413.32
589.61	61303.31
589.77	61537.36
589.93	61567.79
590.08	61315.01
590.24	61474.17
590.40	61619.28
590.56	61371.19
590.72	61495.24
590.88	61209.69
591.04	61315.01
591.20	61579.49
591.35	61450.77
591.51	61614.60
591.67	61485.87
591.83	61661.41
591.99	61406.30
592.15	61347.78
592.31	61567.79
592.46	61450.77
592.62	61572.47
592.78	61385.23
592.94	61471.83
593.10	61427.36
593.26	61673.12
593.41	61502.26
593.57	61429.70
593.73	61462.47
593.89	61719.93
594.05	61733.97
594.20	61326.72
594.36	61586.52
594.52	61535.02
594.68	61523.32
594.84	61279.91
594.99	61708.22
595.15	61616.94
595.31	61612.26
595.47	61469.49
595.62	61544.39
595.78	61436.72
595.94	61783.12
596.10	61659.07
596.25	61790.14
596.41	61778.44
596.57	61642.69
596.73	61654.39
596.88	61579.49
597.04	61729.29
597.20	61619.28
597.36	61731.63
597.51	61752.69
597.67	61602.90
597.83	61551.41
597.99	61663.75
598.14	61705.88
598.30	61689.50
598.46	61813.55
598.61	61715.25
598.77	61593.54
598.93	61848.66
599.09	61630.99
599.24	62026.54
599.40	61680.14
599.56	61703.54
599.71	61860.36
599.87	61883.76
600.03	61733.97
600.18	61668.44
600.34	61773.76
600.50	61729.29
600.65	61731.63
600.81	61675.46
600.97	61907.17
601.12	61958.66
601.28	61750.35
601.44	61565.45
601.59	61843.98
601.75	61731.63
601.91	62033.56
602.06	61946.96
602.22	62115.48
602.37	61886.10
602.53	61666.09
602.69	61911.85
602.84	61815.89
603.00	61804.19
603.16	61928.23
603.31	61862.70
603.47	61841.63
603.62	61708.22
603.78	61834.61
603.94	61806.53
604.09	61951.64
604.25	61818.23
604.40	61769.08
604.56	61771.42
604.71	62061.64
604.87	61647.37
605.03	61799.50
605.18	61862.70
605.34	61778.44
605.49	61673.12
605.65	62063.99
605.80	61822.91
605.96	61961.00
606.12	61836.95
606.27	61942.28
606.43	61659.07
606.58	61897.81
606.74	61577.15
606.89	61687.16
607.05	61907.17
607.20	61900.15
607.36	61687.16
607.51	61588.86
607.67	61773.76
607.82	61710.56
607.98	61626.31
608.13	61694.18
608.29	61904.83
608.44	61666.09
608.60	61638.01
608.75	61865.04
608.91	61415.66
609.06	61293.95
609.22	61652.05
609.37	61743.33
609.53	61759.72
609.68	61623.96
609.84	61652.05
609.99	61652.05
610.15	61719.93
610.30	61918.87
610.46	61740.99
610.61	61736.31
610.76	61532.68
610.92	61549.07
611.07	61462.47
611.23	61544.39
611.38	61581.84
611.54	61403.95
611.69	61621.62
611.84	61605.24
612.00	61614.60
612.15	61453.11
612.31	61740.99
612.46	61429.70
612.62	61607.58
612.77	61401.61
612.92	61563.11
613.08	61572.47
613.23	61722.27
613.39	61570.13
613.54	61305.65
613.69	61635.67
613.85	61312.67
614.00	61638.01
614.15	61729.29
614.31	61396.93
614.46	61415.66
614.62	61504.60
614.77	61467.15
614.92	61418.00
615.08	61303.31
615.23	61560.77
615.38	61474.17
615.54	61216.71
615.69	61485.87
615.84	61338.42
616.00	61401.61
616.15	61453.11
616.30	61495.24
616.46	61366.51
616.61	61413.32
616.76	61359.48
616.92	61160.54
617.07	61448.42
617.22	61410.98
617.37	61242.46
617.53	61567.79
617.68	61502.26
617.83	61230.75
617.99	61324.38
618.14	61279.91
618.29	61410.98
618.45	61132.45
618.60	61432.04
618.75	61076.28
618.90	61270.54
619.06	61268.20
619.21	61209.69
619.36	61616.94
619.51	61340.76
619.67	60996.70
619.82	61331.40
619.97	61160.54
620.12	61237.78
620.28	61151.18
620.43	61146.50
620.58	61329.06
620.73	61036.49
620.89	61022.45
621.04	61291.61
621.19	60935.85
621.34	60956.91
621.49	61034.15
621.65	61083.30
621.80	61127.77
621.95	61003.72
622.10	60963.93
622.25	60755.63
622.41	61087.98
622.56	60858.61
622.71	61137.13
622.86	60788.39
623.01	60676.05
623.16	60849.25
623.32	60779.03
623.47	60987.34
623.62	61034.15
623.77	60832.86
623.92	61041.17
624.07	60863.29
624.23	60949.89
624.38	60907.76
624.53	60713.50
624.68	60659.66
624.83	60921.80
624.98	60814.14
625.13	60500.51
625.29	60856.27
625.44	60636.26
625.59	60608.17
625.74	60573.06
625.89	60561.36
626.04	60378.80
626.19	60339.01
626.34	60486.46
626.49	60383.48
626.65	60479.44
626.80	60631.58
626.95	60528.59
627.10	60362.42
627.25	60500.51
627.40	60402.21
627.55	60591.79
627.70	60521.57
627.85	60320.29
628.00	60348.37
628.15	60479.44
628.30	60271.14
628.45	60301.56
628.60	60275.82
628.76	60250.07
628.91	60402.21
629.06	60458.38
629.21	60516.89
629.36	60313.26
629.51	60252.41
629.66	60324.97
629.81	60266.45
629.96	60044.10
630.11	60189.22
630.26	60339.01
630.41	60310.92
630.56	60275.82
630.71	60306.24
630.86	60233.69
631.01	60130.70
631.16	60140.07
631.31	59709.41
631.46	59814.73
631.61	60009.00
631.76	60163.47
631.91	60151.77
632.06	60126.02
632.21	60243.05
632.36	59945.80
632.51	59756.22
632.66	59973.89
632.81	59833.46
632.96	60217.30
633.10	60062.83
633.25	59891.97
633.40	60093.25
633.55	59840.48
633.70	59653.23
633.85	59767.92
634.00	59831.11
634.15	59697.70
634.30	59758.56
634.45	59889.63
634.60	60009.00
634.75	60039.42
634.90	59707.07
635.05	59601.74
635.19	59835.80
635.34	59770.26
635.49	59758.56
635.64	59796.01
635.79	59760.90
635.94	59634.51
636.09	59524.50
636.24	59678.98
636.39	59618.13
636.53	59564.29
636.68	59594.72
636.83	59561.95
636.98	59875.58
637.13	59360.67
637.28	59522.16
637.43	59709.41
637.57	59636.85
637.72	59430.88
637.87	59512.80
638.02	59402.80
638.17	59529.19
638.32	59599.40
638.46	59437.90
638.61	59355.99
638.76	59220.23
638.91	59597.06
639.06	59208.53
639.20	59309.18
639.35	59152.36
639.50	59157.04
639.65	59152.36
639.80	59210.87
639.94	59253.00
640.09	59327.90
640.24	59168.74
640.39	58990.86
640.54	59042.35
640.68	59412.16
640.83	59140.66
640.98	59269.39
641.13	59159.38
641.27	59360.67
641.42	58836.39
641.57	58848.09
641.72	58983.84
641.86	59032.99
642.01	58927.67
642.16	59018.95
642.31	58728.72
642.45	59236.62
642.60	58981.50
642.75	59143.00
642.90	59157.04
643.04	59037.67
643.19	58944.05
643.34	58815.32
643.48	58932.35
643.63	58939.37
643.78	58873.84
643.93	59138.32
644.07	59004.91
644.22	58731.06
644.37	58850.43
644.51	58581.27
644.66	58967.46
644.81	58965.12
644.95	58791.92
645.10	58719.36
645.25	58595.31
645.39	58726.38
645.54	58588.29
645.69	58639.78
645.83	58717.02
645.98	58487.65
646.13	58670.21
646.27	58635.10
646.42	58515.73
646.57	58398.71
646.71	58583.61
646.86	58710.00
647.00	58829.37
647.15	58599.99
647.30	58707.66
647.44	58546.16
647.59	58609.35
647.74	58635.10
647.88	58611.70
648.03	58475.94
648.17	58457.22
648.32	58347.21
648.47	58539.14
648.61	58239.55
648.76	58529.78
648.90	58293.38
649.05	58370.62
649.20	58515.73
649.34	58529.78
649.49	58365.94
649.63	58534.46
649.78	58513.39
649.92	58326.15
650.07	58525.10
650.21	58356.58
650.36	58218.49
650.51	58061.67
650.65	58286.36
650.80	58356.58
650.94	57991.45
651.09	58089.76
651.23	57846.34
651.38	58162.31
651.52	58003.16
651.67	58080.39
651.81	57902.51
651.96	58103.80
652.10	57897.83
652.25	57939.96
652.39	57659.10
652.54	57832.30
652.68	57460.15
652.83	57897.83
652.97	57820.59
653.12	57797.19
653.26	57673.14
653.41	58000.82
653.55	57886.13
653.70	57832.30
653.84	58049.97
653.99	57696.55
654.13	57848.68
654.27	57780.81
654.42	57813.57
654.56	57670.80
654.71	57652.08
654.85	57598.24
655.00	57932.94
655.14	57499.94
655.29	57670.80
655.43	57827.62
655.57	57439.09
655.72	57408.66
655.86	57502.28
656.01	57474.20
656.15	57265.89
656.30	57752.72
656.44	57748.04
656.58	57336.10
656.73	57406.32
656.87	57528.03
657.01	57572.50
657.16	57654.42
657.30	57425.04
657.45	57354.83
657.59	57490.58
657.73	57113.75
657.88	57212.06
658.02	57336.10
658.16	57240.14
658.31	57240.14
658.45	57160.56
658.60	57242.48
658.74	57230.78
658.88	57106.73
659.03	57080.98
659.17	56940.55
659.31	57160.56
659.46	57125.46
659.60	57057.58
659.74	56807.14
659.89	56900.76
660.03	56952.26
660.17	56938.21
660.32	56846.93
660.46	56956.94
660.60	56718.20
660.74	56786.08
660.89	56917.15
661.03	56594.15
661.17	56460.74
661.32	56474.79
661.46	56442.02
661.60	56580.11
661.74	56526.28
661.89	56416.27
662.03	56442.02
662.17	56399.89
662.31	56238.39
662.46	56591.81
662.60	56521.60
662.74	56149.45
662.88	56051.15
663.03	55976.25
663.17	56158.81
663.31	55990.30
663.45	55908.38
663.60	55585.38
663.74	55770.28
663.88	55662.62
664.02	55779.65
664.17	55971.57
664.31	55784.33
664.45	55819.44
664.59	55800.71
664.73	55526.87
664.88	55770.28
665.02	55199.19
665.16	55393.46
665.30	55477.72
665.44	55426.23
665.59	55477.72
665.73	55751.56
665.87	55192.17
666.01	55386.44
666.15	55412.18
666.29	55334.95
666.44	55311.54
666.58	55344.31
666.72	55049.40
666.86	54953.44
667.00	55110.25
667.14	54747.47
667.28	54918.33
667.43	54827.05
667.57	54789.60
667.71	54740.45
667.85	54644.49
667.99	54583.63
668.13	54695.98
668.27	54658.53
668.41	54768.54
668.56	54560.23
668.70	54052.33
668.84	54522.78
668.98	54293.41
669.12	54520.44
669.26	54361.28
669.40	54302.77
669.54	54417.46
669.68	54138.93
669.82	54031.27
669.96	54270.00
670.10	54092.12
670.25	54288.73
670.39	54031.27
670.53	53916.58
670.67	53951.69
670.81	54199.79
670.95	53982.12
671.09	53752.74
671.23	53560.82
671.37	53696.57
671.51	53539.75
671.65	53558.48
671.79	53282.30
671.93	53666.14
672.07	53422.73
672.21	53132.50
672.35	53127.82
672.49	52884.40
672.63	53041.22
672.77	52905.47
672.91	53102.07
673.05	52835.25
673.19	52921.85
673.33	52320.34
673.47	52308.63
673.61	52458.43
673.75	52474.81
673.89	52446.72
674.03	52048.83
674.17	52224.37
674.31	52128.41
674.45	51662.64
674.59	51870.95
674.73	52217.35
674.87	51936.49
675.01	51409.87
675.15	51700.09
675.29	51695.41
675.43	51585.41
675.56	51147.73
675.70	51304.54
675.84	51105.60
675.98	50092.15
676.12	51365.40
676.26	51353.69
676.40	50890.27
676.54	50911.33
676.68	50784.94
676.82	50122.57
676.96	50183.43
677.10	50115.55
677.23	49771.49
677.37	49862.77
677.51	50000.86
677.65	49769.15
677.79	48966.35
677.93	48968.69
678.07	49083.37
678.21	49219.13
678.34	48818.89
678.48	48657.40
678.62	48942.94
678.76	48598.88
678.90	48303.98
679.04	48706.55
679.18	48706.55
679.31	48390.58
679.45	47796.08
679.59	47978.64
679.73	48140.14
679.87	48275.89
680.00	47566.71
680.14	47751.61
680.28	47264.78
680.42	47512.88
680.56	46763.90
680.70	46878.59
680.83	46492.40
680.97	47119.66
681.11	47428.62
681.25	46864.55
681.39	46412.82
681.52	46749.86
681.66	46752.20
681.80	45975.14
681.94	46087.49
682.07	46368.35
682.21	45422.78
682.35	44889.13
682.49	45659.17
682.62	45879.18
682.76	45727.05
682.90	45233.19
683.04	45605.34
683.17	44996.80
683.31	44416.35
683.45	44914.88
683.59	44414.01
683.72	44278.25
683.86	44395.28
684.00	44165.91
684.13	44617.63
684.27	43763.34
684.41	44161.23
684.55	43550.35
684.68	43676.74
684.82	43194.59
684.96	43201.61
685.09	43302.25
685.23	42848.19
685.37	42483.06
685.50	42667.97
685.64	42450.30
685.78	42770.95
685.91	42433.91
686.05	41830.05
686.19	41596.00
686.32	41591.32
686.46	41230.88
686.60	40884.48
686.73	40603.61
686.87	41172.36
687.01	40959.38
687.14	40861.07
687.28	40680.85
687.42	40662.13
687.55	40432.75
687.69	40282.96
687.82	40259.55
687.96	39817.19
688.10	39693.15
688.23	39835.92
688.37	39412.28
688.50	39325.68
688.64	39002.69
688.78	39089.29
688.91	38574.37
689.05	38618.84
689.18	38602.46
689.32	37963.49
689.46	37680.28
689.59	38122.65
689.73	37996.26
689.86	37486.02
690.00	37661.56
690.13	37584.32
690.27	37530.49
690.41	38071.15
690.54	37050.68
690.68	37060.04
690.81	36517.04
690.95	36718.32
691.08	36425.76
691.22	36444.48
691.35	36495.97
691.49	36339.16
691.62	36439.80
691.76	35763.39
691.89	35248.47
692.03	35597.21
692.16	35416.99
692.30	35241.45
692.43	35693.17
692.57	35173.57
692.70	35126.76
692.84	34707.80
692.97	34443.32
693.11	34527.58
693.24	34321.62
693.38	34029.05
693.51	34038.41
693.65	33862.87
693.78	33345.61
693.92	33528.17
694.05	33329.23
694.19	33067.09
694.32	33408.81
694.45	33064.75
694.59	32842.40
694.72	32755.80
694.86	32488.98
694.99	32180.03
695.13	32147.26
695.26	31945.97
695.39	31749.37
695.53	31690.85
695.66	31840.65
695.80	31653.40
695.93	31367.86
696.07	30918.48
696.20	30799.11
696.33	30728.89
696.47	30518.25
696.60	30768.68
696.73	30387.18
696.87	30408.24
697.00	30071.20
697.14	30298.23
697.27	29865.24
697.40	29883.96
697.54	29972.90
697.67	29916.73
697.80	29844.17
697.94	29024.98
698.07	29174.78
698.21	28933.70
698.34	29268.40
698.47	28683.27
698.61	28276.01
698.74	28573.26
698.87	28748.80
699.01	27847.69
699.14	28217.50
699.27	28070.04
699.40	28400.06
699.54	27880.46
699.67	27955.36
699.80	27545.76
699.94	27756.41
700.07	27527.04
700.20	27192.34
700.34	27164.26
700.47	26876.37
700.60	26305.28
700.73	26520.61
700.87	25951.86
701.00	25785.68
701.13	25921.43
701.26	25806.75
701.40	26103.99
701.53	25656.95
701.66	26085.27
701.79	25202.89
701.93	25034.37
702.06	25081.18
702.19	24975.86
702.32	24966.49
702.46	25340.98
702.59	24833.08
702.72	24414.13
702.85	24765.21
702.99	24470.30
703.12	24620.10
703.25	23971.77
703.38	23859.42
703.51	23892.19
703.65	23756.44
703.78	23608.98
703.91	23098.75
704.04	23356.21
704.17	23267.27
704.31	23293.01
704.44	22979.38
704.57	22562.76
704.70	22780.43
704.83	22675.11
704.96	22490.21
705.10	22338.07
705.23	22370.84
>>>>>End Processed Spectral Data<<<<<
