SpectraSuite Data File
++++++++++++++++++++++++++++++++++++
Date: Fri Oct 25 11:25:52 EDT 2013
User: price-jones
Dark Spectrum Present: No
Reference Spectrum Present: No
Number of Sampled Component Spectra: 1
Spectrometers: USB2+H05261
Integration Time (usec): 100000 (USB2+H05261)
Spectra Averaged: 1 (USB2+H05261)
Boxcar Smoothing: 0 (USB2+H05261)
Correct for Electrical Dark: No (USB2+H05261)
Strobe/Lamp Enabled: No (USB2+H05261)
Correct for Detector Non-linearity: No (USB2+H05261)
Correct for Stray Light: No (USB2+H05261)
Number of Pixels in Processed Spectrum: 2048
>>>>>Begin Processed Spectral Data<<<<<
365.73	173.20
365.92	173.20
366.12	173.20
366.32	110.01
366.52	107.66
366.72	140.43
366.91	140.43
367.11	110.01
367.31	102.98
367.51	198.95
367.70	121.71
367.90	117.03
368.10	180.22
368.30	147.45
368.49	138.09
368.69	112.35
368.89	154.48
369.09	149.79
369.28	187.24
369.48	203.63
369.68	161.50
369.87	259.80
370.07	210.65
370.27	236.39
370.47	264.48
370.66	568.75
370.86	608.54
371.06	692.80
371.25	631.94
371.45	678.76
371.65	748.97
371.84	685.78
372.04	664.71
372.24	685.78
372.44	791.10
372.63	692.80
372.83	791.10
373.03	791.10
373.22	812.17
373.42	767.70
373.62	770.04
373.81	812.17
374.01	830.89
374.21	781.74
374.40	755.99
374.60	833.23
374.79	739.61
374.99	800.46
375.19	891.74
375.38	861.32
375.58	819.19
375.78	912.81
375.97	798.12
376.17	842.59
376.37	868.34
376.56	905.79
376.76	842.59
376.95	943.24
377.15	940.90
377.35	964.30
377.54	875.36
377.74	912.81
377.93	947.92
378.13	973.66
378.33	929.19
378.52	945.58
378.72	978.34
378.91	924.51
379.11	901.11
379.31	959.62
379.50	940.90
379.70	866.00
379.89	997.07
380.09	915.15
380.28	994.73
380.48	1057.92
380.68	968.98
380.87	1004.09
381.07	945.58
381.26	1034.52
381.46	866.00
381.65	1100.05
381.85	1039.20
382.04	1074.31
382.24	1069.62
382.43	1041.54
382.63	1046.22
382.83	1062.60
383.02	1153.88
383.22	1130.48
383.41	1041.54
383.61	1057.92
383.80	1071.97
384.00	1004.09
384.19	1109.41
384.39	1165.59
384.58	1095.37
384.78	1240.48
384.97	1151.54
385.17	1149.20
385.36	1151.54
385.56	1151.54
385.75	1104.73
385.95	1184.31
386.14	1200.69
386.34	1221.76
386.53	1221.76
386.72	1184.31
386.92	1301.34
387.11	1268.57
387.31	1167.93
387.50	1280.27
387.70	1235.80
387.89	1308.36
388.09	1254.53
388.28	1247.51
388.48	1240.48
388.67	1296.66
388.86	1383.26
389.06	1306.02
389.25	1458.15
389.45	1294.32
389.64	1392.62
389.84	1423.05
390.03	1390.28
390.22	1301.34
390.42	1444.11
390.61	1406.66
390.81	1352.83
391.00	1409.00
391.19	1404.32
391.39	1479.22
391.58	1502.62
391.78	1446.45
391.97	1596.25
392.16	1497.94
392.36	1563.48
392.55	1530.71
392.75	1570.50
392.94	1465.18
393.13	1495.60
393.33	1575.18
393.52	1614.97
393.71	1584.54
393.91	1652.42
394.10	1668.80
394.29	1619.65
394.49	1582.20
394.68	1600.93
394.88	1584.54
395.07	1661.78
395.26	1593.90
395.46	1671.14
395.65	1708.59
395.84	1720.29
396.04	1713.27
396.23	1816.26
396.42	1685.19
396.62	1870.09
396.81	1706.25
397.00	1720.29
397.19	1830.30
397.39	1788.17
397.58	1844.34
397.77	1799.87
397.97	1727.32
398.16	1785.83
398.35	1872.43
398.55	1893.49
398.74	1837.32
398.93	1937.96
399.12	1987.11
399.32	1916.90
399.51	1907.54
399.70	1959.03
399.90	1970.73
400.09	2087.76
400.28	2012.86
400.47	2052.65
400.67	2139.25
400.86	2122.87
401.05	2111.16
401.24	2211.81
401.44	2108.82
401.63	2108.82
401.82	2127.55
402.01	2069.03
402.21	2047.97
402.40	2132.23
402.59	2267.98
402.78	2216.49
402.97	2354.58
403.17	2223.51
403.36	2162.66
403.55	2298.41
403.74	2335.85
403.93	2399.05
404.13	2356.92
404.32	2382.67
404.51	2321.81
404.70	2499.69
404.89	2520.76
405.09	2492.67
405.28	2443.52
405.47	2509.05
405.66	2527.78
405.85	2511.39
406.05	2565.23
406.24	2502.03
406.43	2537.14
406.62	2626.08
406.81	2700.98
407.00	2642.46
407.20	2513.74
407.39	2553.52
407.58	2726.72
407.77	2691.62
407.96	2682.25
408.15	2633.10
408.34	2736.09
408.54	2799.28
408.73	2829.71
408.92	2815.66
409.11	2888.22
409.30	2885.88
409.49	2930.35
409.68	2949.08
409.87	2946.73
410.07	3007.59
410.26	2956.10
410.45	3075.46
410.64	3070.78
410.83	3129.30
411.02	3145.68
411.21	3164.40
411.40	3087.17
411.59	3133.98
411.78	3197.17
411.98	3061.42
412.17	3164.40
412.36	3157.38
412.55	3260.37
412.74	3370.37
412.93	3337.60
413.12	3269.73
413.31	3712.09
413.50	3564.64
413.69	3555.27
413.88	3646.55
414.07	3501.44
414.26	3613.79
414.45	3667.62
414.64	3770.60
414.83	3772.94
415.02	3831.46
415.22	3875.93
415.41	3805.71
415.60	3885.29
415.79	4018.70
415.98	3918.06
416.17	4004.66
416.36	4025.72
416.55	3810.39
416.74	3894.65
416.93	4086.58
417.12	4053.81
417.31	4224.67
417.50	4187.22
417.69	4283.18
417.88	4135.73
418.07	4217.65
418.26	4205.94
418.45	4400.21
418.64	4538.30
418.83	4421.27
419.02	4297.22
419.21	4638.94
419.39	4526.60
419.58	4322.97
419.77	4496.17
419.96	4629.58
420.15	4575.75
420.34	4578.09
420.53	4559.36
420.72	4690.43
420.91	4594.47
421.10	4643.62
421.29	4786.40
421.48	4800.44
421.67	4770.01
421.86	4788.74
422.05	4823.84
422.24	4690.43
422.43	4772.35
422.61	4760.65
422.80	4978.32
422.99	4905.76
423.18	4812.14
423.37	5109.39
423.56	4936.19
423.75	4821.50
423.94	4791.08
424.13	4552.34
424.32	4727.88
424.50	4980.66
424.69	5210.03
424.88	5093.01
425.07	5039.17
425.26	4905.76
425.45	4922.15
425.64	4898.74
425.83	4891.72
426.01	4973.64
426.20	5104.71
426.39	5153.86
426.58	4990.02
426.77	5093.01
426.96	5039.17
427.15	5135.14
427.33	5203.01
427.52	5139.82
427.71	5315.36
427.90	5146.84
428.09	5366.85
428.28	5320.04
428.46	5249.82
428.65	5408.98
428.84	5598.56
429.03	5537.71
429.22	5277.91
429.40	5526.00
429.59	5242.80
429.78	5226.42
429.97	5233.44
430.16	5451.11
430.34	5467.49
430.53	5699.20
430.72	5540.05
430.91	5764.74
431.10	5612.60
431.28	5645.37
431.47	5774.10
431.66	5834.96
431.85	5823.25
432.03	5895.81
432.22	6010.50
432.41	5909.85
432.60	5849.00
432.79	6038.58
432.97	5982.41
433.16	6038.58
433.35	5867.72
433.54	6136.88
433.72	6120.50
433.91	6026.88
434.10	6057.31
434.28	6087.73
434.47	6080.71
434.66	6246.89
434.85	6197.74
435.03	6258.59
435.22	6326.47
435.41	6520.73
435.59	6349.87
435.78	6279.66
435.97	6340.51
436.16	6490.31
436.34	6485.62
436.53	6635.42
436.72	6715.00
436.90	6317.11
437.09	6530.09
437.28	6504.35
437.46	6417.75
437.65	6607.33
437.84	6640.10
438.02	6684.57
438.21	6841.39
438.40	6635.42
438.58	6958.41
438.77	6960.75
438.96	6792.23
439.14	6986.50
439.33	7133.95
439.52	7105.87
439.70	7204.17
439.89	7447.58
440.08	7279.07
440.26	7246.30
440.45	7229.91
440.63	7297.79
440.82	7538.87
441.01	7524.82
441.19	7763.56
441.38	7606.74
441.57	7651.21
441.75	7620.78
441.94	7838.45
442.12	7728.45
442.31	7953.14
442.50	8152.09
442.68	8124.00
442.87	8060.80
443.05	8133.36
443.24	8128.68
443.43	8203.58
443.61	8109.96
443.80	8278.47
443.98	8051.44
444.17	7672.28
444.35	8367.42
444.54	8351.03
444.73	8299.54
444.91	8472.74
445.10	8044.42
445.28	8308.90
445.47	8168.47
445.65	8245.71
445.84	8325.29
446.02	8528.91
446.21	8451.67
446.39	8243.37
446.58	8318.26
446.77	8524.23
446.95	8318.26
447.14	8327.63
447.32	8264.43
447.51	8662.32
447.69	8332.31
447.88	8613.17
448.06	8496.14
448.25	8697.43
448.43	8442.31
448.62	8425.93
448.80	8482.10
448.99	8608.49
449.17	8627.21
449.36	8622.53
449.54	8758.28
449.73	8865.95
449.91	8879.99
450.10	8891.70
450.28	8975.95
450.46	9004.04
450.65	9055.53
450.83	9048.51
451.02	9097.66
451.20	9210.01
451.39	9163.20
451.57	9064.89
451.76	9174.90
451.94	9184.26
452.13	9167.88
452.31	9158.52
452.49	9270.86
452.68	9238.09
452.86	9448.74
453.05	9406.61
453.23	9516.62
453.42	9207.67
453.60	9181.92
453.78	9628.96
453.97	9455.76
454.15	9643.01
454.34	9369.16
454.52	9666.41
454.70	9673.43
454.89	9621.94
455.07	9593.86
455.26	9858.34
455.44	9877.06
455.62	9741.31
455.81	9902.81
455.99	10036.22
456.17	10204.74
456.36	9888.76
456.54	10296.02
456.73	10270.27
456.91	10361.55
457.09	10244.52
457.28	10555.82
457.46	10113.45
457.64	10485.60
457.83	10448.15
458.01	10377.94
458.19	10656.46
458.38	10729.02
458.56	10920.94
458.74	10604.97
458.93	10686.89
459.11	10839.02
459.29	10839.02
459.48	10721.99
459.66	10906.90
459.84	10752.42
460.03	11119.89
460.21	11096.48
460.39	10874.13
460.57	10902.22
460.76	11171.38
460.94	11239.25
461.12	11384.37
461.31	11286.06
461.49	11236.91
461.67	11342.24
461.85	11485.01
462.04	11307.13
462.22	11892.26
462.40	11702.68
462.59	11435.86
462.77	11272.02
462.95	11442.88
463.13	11424.15
463.32	11707.36
463.50	11871.20
463.68	11602.04
463.86	11871.20
464.05	11667.57
464.23	11765.87
464.41	12112.27
464.59	11646.51
464.78	12037.38
464.96	12016.31
465.14	11850.13
465.32	12006.95
465.50	11918.01
465.69	12297.17
465.87	12362.71
466.05	12016.31
466.23	12198.87
466.41	12231.64
466.60	12395.48
466.78	12093.55
466.96	12093.55
467.14	12175.47
467.32	12383.77
467.51	12390.80
467.69	12245.68
467.87	12393.14
468.05	12430.59
468.23	12505.48
468.41	12498.46
468.60	12762.94
468.78	12919.76
468.96	12652.94
469.14	12767.62
469.32	12884.65
469.50	12648.26
469.69	12915.08
469.87	12844.86
470.05	13111.68
470.23	13062.53
470.41	13109.34
470.59	13228.71
470.77	13149.13
470.95	13202.96
471.14	13460.42
471.32	13167.85
471.50	13584.47
471.68	13591.49
471.86	13575.11
472.04	13736.60
472.22	13832.57
472.40	13554.04
472.58	13722.56
472.77	13853.63
472.95	14038.53
473.13	14766.44
473.31	14127.47
473.49	14214.07
473.67	14183.65
473.85	14286.63
474.03	14499.62
474.21	14623.67
474.39	14572.18
474.57	14869.42
474.75	14719.63
474.93	14796.87
475.12	15021.56
475.30	14939.64
475.48	15176.03
475.66	15176.03
475.84	15059.01
476.02	15236.89
476.20	15524.77
476.38	15477.96
476.56	15990.54
476.74	15969.48
476.92	15768.19
477.10	15833.72
477.28	16376.73
477.46	15903.94
477.64	16112.25
477.82	16669.30
478.00	16933.78
478.18	16809.73
478.36	16713.77
478.54	17207.62
478.72	17214.64
478.90	17603.17
479.08	17694.45
479.26	17380.82
479.44	17678.07
479.62	17916.80
479.80	17998.72
479.98	17877.01
480.16	18590.88
480.34	18281.92
480.52	18487.89
480.70	18574.49
480.88	18267.88
481.06	18541.72
481.24	18930.25
481.41	19070.68
481.59	19377.30
481.77	19421.77
481.95	19676.88
482.13	19716.67
482.31	19316.44
482.49	20159.03
482.67	19924.98
482.85	20594.37
483.03	20566.29
483.21	20945.45
483.39	20772.25
483.57	20624.80
483.74	21443.99
483.92	21305.90
484.10	21137.38
484.28	21649.96
484.46	21659.32
484.64	22560.42
484.82	21998.70
485.00	22300.62
485.18	22588.51
485.35	22883.42
485.53	22473.82
485.71	22920.87
485.89	23534.09
486.07	23171.30
486.25	23391.31
486.43	23667.50
486.61	23494.30
486.78	24079.43
486.96	24540.52
487.14	24400.08
487.32	24819.04
487.50	24638.82
487.68	25062.46
487.85	24952.45
488.03	25722.49
488.21	25778.66
488.39	25745.89
488.57	25940.16
488.75	26061.87
488.92	26113.36
489.10	26745.30
489.28	26644.66
489.46	27147.87
489.64	27012.12
489.81	27480.23
489.99	27559.81
490.17	27543.42
490.35	28030.26
490.53	28093.45
490.70	28191.75
490.88	28243.24
491.06	28835.40
491.24	28713.69
491.41	28807.31
491.59	29392.45
491.77	29041.37
491.95	29799.70
492.13	29902.68
492.30	29996.31
492.48	30061.84
492.66	29907.37
492.84	30459.73
493.01	30532.29
493.19	30387.18
493.37	30911.46
493.54	30930.18
493.72	31386.58
493.90	31501.27
494.08	31637.02
494.25	32086.40
494.43	32002.14
494.61	31887.46
494.79	32374.29
494.96	32692.60
495.14	32816.65
495.32	33209.86
495.49	32608.34
495.67	33198.16
495.85	33701.37
496.02	33528.17
496.20	33722.44
496.38	34277.15
496.55	34188.21
496.73	34653.97
496.91	34314.59
497.09	35075.27
497.26	34981.65
497.44	34508.86
497.62	35379.54
497.79	35000.37
497.97	35496.56
498.14	36046.59
498.32	36062.97
498.50	35875.73
498.67	36285.33
498.85	36142.55
499.03	36528.74
499.20	36598.96
499.38	37062.38
499.56	36830.67
499.73	36715.98
499.91	37291.76
500.08	37518.79
500.26	37053.02
500.44	37865.19
500.61	37497.72
500.79	37509.43
500.97	37738.80
501.14	38333.29
501.32	38583.73
501.49	38473.73
501.67	38403.51
501.84	39108.01
502.02	38534.58
502.20	39093.97
502.37	39143.12
502.55	39276.53
502.72	39201.63
502.90	39480.16
503.07	39714.21
503.25	39730.59
503.43	39768.04
503.60	39686.12
503.78	40224.45
503.95	40100.40
504.13	40509.99
504.30	40416.37
504.48	40395.31
504.65	40821.28
504.83	40446.80
505.01	41048.32
505.18	40919.59
505.36	41408.76
505.53	41127.89
505.71	41399.40
505.88	41167.68
506.06	41401.74
506.23	41944.74
506.41	41191.09
506.58	42232.63
506.76	42588.39
506.93	42562.64
507.11	42047.72
507.28	42792.01
507.46	42384.76
507.63	43105.65
507.81	42649.24
507.98	42916.06
508.16	43210.97
508.33	43676.74
508.50	43545.67
508.68	43887.39
508.85	44219.74
509.03	43683.76
509.20	44383.58
509.38	44322.72
509.55	43988.03
509.73	44301.66
509.90	44935.95
510.08	44563.80
510.25	44629.34
510.42	44802.53
510.60	44509.97
510.77	44999.14
510.95	44889.13
511.12	45090.42
511.30	45160.64
511.47	45666.19
511.64	45492.99
511.82	45937.69
511.99	45401.71
512.17	45600.66
512.34	45708.32
512.51	46234.94
512.69	46124.94
512.86	46450.27
513.04	46897.31
513.21	46464.32
513.38	46600.07
513.56	46834.12
513.73	46691.35
513.90	46909.02
514.08	46789.65
514.25	47360.74
514.43	47131.37
514.60	47459.04
514.77	47288.18
514.95	47576.07
515.12	47452.02
515.29	47538.62
515.47	47632.24
515.64	48200.99
515.81	47894.38
515.99	47908.43
516.16	48311.00
516.33	48205.67
516.51	48683.14
516.68	48163.54
516.85	48357.81
517.03	48832.94
517.20	48622.29
517.37	48781.45
517.54	48736.98
517.72	48942.94
517.89	48917.20
518.06	49581.91
518.24	49432.11
518.41	49071.67
518.58	49167.63
518.75	48828.26
518.93	49661.49
519.10	48928.90
519.27	49832.35
519.45	49572.55
519.62	49925.97
519.79	49787.88
519.96	49928.31
520.14	50286.41
520.31	50078.10
520.48	50251.30
520.65	50337.90
520.83	50368.33
521.00	50557.91
521.17	50457.27
521.34	50623.45
521.52	50967.51
521.69	50770.90
521.86	50749.84
522.03	51192.20
522.20	51379.44
522.38	51276.46
522.55	51114.96
522.72	51082.19
522.89	51620.52
523.07	51480.08
523.24	51199.22
523.41	51803.08
523.58	51620.52
523.75	51828.82
523.92	51517.53
524.10	51987.98
524.27	51744.56
524.44	51833.50
524.61	51915.42
524.78	52039.47
524.96	52376.51
525.13	52310.97
525.30	52374.17
525.47	52226.71
525.64	52449.06
525.81	52568.43
525.98	52535.66
526.16	52858.66
526.33	52519.28
526.50	52875.04
526.67	52463.11
526.84	52851.64
527.01	52516.94
527.18	52449.06
527.36	53055.26
527.53	53064.63
527.70	53226.12
527.87	53258.89
528.04	52940.58
528.21	53247.19
528.38	53216.76
528.55	53301.02
528.72	53069.31
528.89	53345.49
529.07	53429.75
529.24	53514.01
529.41	53584.22
529.58	53488.26
529.75	53635.72
529.92	53712.95
530.09	53689.55
530.26	53469.54
530.43	53771.47
530.60	53815.94
530.77	53844.02
530.94	54103.82
531.11	53696.57
531.28	54181.06
531.46	54333.20
531.63	54152.97
531.80	54190.42
531.97	54443.20
532.14	54148.29
532.31	54326.17
532.48	54401.07
532.65	54536.82
532.82	54550.87
532.99	54784.92
533.16	54457.24
533.33	54787.26
533.50	54688.96
533.67	54752.15
533.84	54703.00
534.01	55007.27
534.18	54688.96
534.35	54944.08
534.52	54939.39
534.69	55077.49
534.86	55356.01
535.03	54913.65
535.20	55381.76
535.37	55065.78
535.54	55082.17
535.71	55121.96
535.88	55304.52
536.05	55430.91
536.22	55554.96
536.38	55894.33
536.55	55526.87
536.72	55613.47
536.89	55592.40
537.06	55590.06
537.23	55796.03
537.40	55348.99
537.57	55585.38
537.74	55681.34
537.91	55959.87
538.08	55711.77
538.25	55442.61
538.42	55943.48
538.59	56238.39
538.75	56051.15
538.92	56203.28
539.09	56109.66
539.26	56046.47
539.43	56072.21
539.60	56264.14
539.77	56261.80
539.94	56346.06
540.11	56090.94
540.28	56168.18
540.44	56472.45
540.61	56446.70
540.78	56240.73
540.95	56271.16
541.12	56397.55
541.29	56357.76
541.46	56240.73
541.62	56449.04
541.79	56552.02
541.96	56226.69
542.13	56671.39
542.30	56645.65
542.47	56760.33
542.63	56802.46
542.80	56655.01
542.97	56844.59
543.14	57050.56
543.31	57186.31
543.48	57359.51
543.64	57155.88
543.81	57312.70
543.98	57263.55
544.15	57198.01
544.32	57382.91
544.48	57631.01
544.65	57242.48
544.82	57649.74
544.99	57310.36
545.16	57532.71
545.32	57411.00
545.49	57577.18
545.66	57621.65
545.83	57401.64
546.00	57752.72
546.16	57570.16
546.33	57511.64
546.50	57595.90
546.67	57523.35
546.83	57116.09
547.00	57675.48
547.17	57654.42
547.34	57876.77
547.50	57977.41
547.67	58253.59
547.84	57860.38
548.00	58157.63
548.17	57984.43
548.34	58115.50
548.51	58295.72
548.67	58319.13
548.84	58258.27
549.01	58094.44
549.18	58038.26
549.34	58251.25
549.51	58241.89
549.68	58199.76
549.84	58253.59
550.01	58368.28
550.18	58171.67
550.34	58223.17
550.51	58365.94
550.68	58436.16
550.84	58127.20
551.01	58560.20
551.18	58342.53
551.34	58518.07
551.51	58466.58
551.68	58506.37
551.84	58504.03
552.01	58436.16
552.18	58632.76
552.34	58536.80
552.51	58585.95
552.68	58440.84
552.84	58457.22
553.01	58960.44
553.18	58880.86
553.34	58887.88
553.51	58693.61
553.67	58688.93
553.84	59056.40
554.01	59040.01
554.17	58979.16
554.34	59119.59
554.51	58913.62
554.67	58780.21
554.84	58897.24
555.00	58946.39
555.17	58871.49
555.33	58997.88
555.50	58768.51
555.67	59040.01
555.83	58908.94
556.00	59194.49
556.16	59402.80
556.33	59128.95
556.50	59215.55
556.66	59255.34
556.83	58997.88
556.99	59393.43
557.16	59498.76
557.32	59664.94
557.49	59449.61
557.65	59346.62
557.82	59250.66
557.98	59250.66
558.15	59468.33
558.32	59391.09
558.48	59311.52
558.65	59475.35
558.81	59337.26
558.98	59510.46
559.14	59547.91
559.31	59524.50
559.47	59664.94
559.64	59578.34
559.80	59683.66
559.97	59812.39
560.13	59622.81
560.30	59587.70
560.46	59707.07
560.63	59709.41
560.79	59608.76
560.96	59983.25
561.12	59819.41
561.29	59756.22
561.45	59884.95
561.61	59842.82
561.78	59840.48
561.94	59812.39
562.11	59831.11
562.27	59941.12
562.44	59889.63
562.60	60170.49
562.77	59924.74
562.93	59866.22
563.10	60062.83
563.26	59735.15
563.42	60039.42
563.59	59938.78
563.75	60034.74
563.92	60053.47
564.08	59898.99
564.24	60287.52
564.41	60168.15
564.57	60020.70
564.74	60004.31
564.90	60109.64
565.07	60011.34
565.23	60020.70
565.39	59831.11
565.56	60252.41
565.72	60058.15
565.88	60055.81
566.05	60154.11
566.21	60130.70
566.38	60126.02
566.54	60034.74
566.70	60306.24
566.87	60434.97
567.03	60224.32
567.19	60214.96
567.36	60294.54
567.52	60357.74
567.68	60427.95
567.85	60329.65
568.01	60339.01
568.17	60207.94
568.34	60446.68
568.50	60289.86
568.66	60224.32
568.83	60116.66
568.99	60250.07
569.15	60376.46
569.32	60381.14
569.48	60320.29
569.64	60619.88
569.81	60434.97
569.97	60465.40
570.13	60589.45
570.30	60135.38
570.46	60441.99
570.62	60439.65
570.78	60364.76
570.95	60636.26
571.11	60690.09
571.27	60331.99
571.43	60498.17
571.60	60722.86
571.76	60563.70
571.92	60746.26
572.09	60299.22
572.25	60456.04
572.41	60360.08
572.57	60451.36
572.74	60680.73
572.90	60692.43
573.06	60540.30
573.22	60456.04
573.38	60647.96
573.55	60556.68
573.71	60772.01
573.87	60580.09
574.03	60645.62
574.20	60685.41
574.36	60566.04
574.52	60678.39
574.68	60830.52
574.84	60809.46
575.01	60563.70
575.17	60732.22
575.33	60676.05
575.49	60528.59
575.65	60619.88
575.82	60652.64
575.98	60767.33
576.14	60938.19
576.30	60877.33
576.46	60729.88
576.62	60715.84
576.79	60732.22
576.95	60647.96
577.11	60729.88
577.27	60636.26
577.43	60774.35
577.59	60666.69
577.75	60647.96
577.92	60921.80
578.08	60760.31
578.24	60666.69
578.40	60786.05
578.56	60970.96
578.72	60954.57
578.88	60954.57
579.04	60858.61
579.21	60720.52
579.37	60858.61
579.53	60816.48
579.69	60685.41
579.85	60713.50
580.01	60598.81
580.17	60767.33
580.33	60755.63
580.49	60935.85
580.65	60952.23
580.82	60788.39
580.98	60739.24
581.14	60900.74
581.30	60870.31
581.46	60865.63
581.62	60954.57
581.78	60809.46
581.94	60942.87
582.10	60781.37
582.26	61003.72
582.42	60835.20
582.58	60994.36
582.74	60722.86
582.90	60797.76
583.06	61022.45
583.22	60779.03
583.38	60828.18
583.54	60842.23
583.70	60942.87
583.86	60910.10
584.02	60800.10
584.18	60954.57
584.34	61034.15
584.50	61059.90
584.66	60743.92
584.82	60842.23
584.98	61062.24
585.14	60898.40
585.30	61048.19
585.46	61034.15
585.62	60867.97
585.78	61003.72
585.94	60900.74
586.10	60940.53
586.26	60963.93
586.42	60966.27
586.58	61080.96
586.74	60949.89
586.90	60879.67
587.06	60858.61
587.22	61066.92
587.38	60882.02
587.54	61078.62
587.70	61162.88
587.86	60900.74
588.02	60987.34
588.18	61052.87
588.34	61179.26
588.49	60926.49
588.65	60954.57
588.81	61099.68
588.97	61165.22
589.13	61090.32
589.29	60942.87
589.45	61382.89
589.61	61176.92
589.77	61455.45
589.93	61106.71
590.08	61254.16
590.24	61268.20
590.40	61399.27
590.56	61219.05
590.72	61282.25
590.88	61137.13
591.04	61144.16
591.20	61504.60
591.35	61392.25
591.51	61642.69
591.67	61443.74
591.83	61659.07
591.99	61350.12
592.15	61474.17
592.31	61324.38
592.46	61256.50
592.62	61474.17
592.78	61240.12
592.94	61516.30
593.10	61413.32
593.26	61525.66
593.41	61354.80
593.57	61565.45
593.73	61516.30
593.89	61560.77
594.05	61518.64
594.20	61425.02
594.36	61455.45
594.52	61525.66
594.68	61558.43
594.84	61261.18
594.99	61572.47
595.15	61408.64
595.31	61399.27
595.47	61371.19
595.62	61623.96
595.78	61382.89
595.94	61537.36
596.10	61609.92
596.25	61623.96
596.41	61516.30
596.57	61387.57
596.73	61633.33
596.88	61443.74
597.04	61556.09
597.20	61542.05
597.36	61703.54
597.51	61881.42
597.67	61516.30
597.83	61453.11
597.99	61598.22
598.14	61560.77
598.30	61600.56
598.46	61647.37
598.61	61848.66
598.77	61457.79
598.93	61513.96
599.09	61719.93
599.24	61865.04
599.40	61872.06
599.56	61771.42
599.71	61865.04
599.87	62092.07
600.03	61621.62
600.18	61698.86
600.34	61619.28
600.50	61799.50
600.65	61586.52
600.81	61762.06
600.97	61675.46
601.12	61804.19
601.28	61584.18
601.44	61612.26
601.59	61776.10
601.75	61532.68
601.91	61675.46
602.06	61769.08
602.22	61820.57
602.37	61619.28
602.53	61776.10
602.69	61712.91
602.84	61633.33
603.00	61799.50
603.16	61811.21
603.31	61712.91
603.47	61673.12
603.62	61642.69
603.78	61792.48
603.94	61530.34
604.09	61806.53
604.25	61923.55
604.40	61609.92
604.56	61862.70
604.71	61815.89
604.87	61745.67
605.03	61539.71
605.18	61656.73
605.34	61766.74
605.49	61525.66
605.65	61932.92
605.80	61759.72
605.96	61602.90
606.12	61874.40
606.27	61888.45
606.43	61736.31
606.58	61804.19
606.74	61525.66
606.89	61572.47
607.05	61801.85
607.20	61827.59
607.36	61502.26
607.51	61544.39
607.67	61453.11
607.82	61478.85
607.98	61399.27
608.13	61460.13
608.29	61673.12
608.44	61663.75
608.60	61593.54
608.75	61605.24
608.91	61488.21
609.06	61462.47
609.22	61680.14
609.37	61464.81
609.53	61528.00
609.68	61649.71
609.84	61504.60
609.99	61563.11
610.15	61738.65
610.30	61792.48
610.46	61499.92
610.61	61588.86
610.76	61443.74
610.92	61284.59
611.07	61567.79
611.23	61572.47
611.38	61520.98
611.54	61368.85
611.69	61537.36
611.84	61572.47
612.00	61630.99
612.15	61254.16
612.31	61436.72
612.46	61179.26
612.62	61357.14
612.77	61563.11
612.92	61633.33
613.08	61506.94
613.23	61453.11
613.39	61425.02
613.54	61240.12
613.69	61429.70
613.85	61352.46
614.00	61567.79
614.15	61593.54
614.31	61324.38
614.46	61464.81
614.62	61434.38
614.77	61315.01
614.92	61307.99
615.08	61300.97
615.23	61249.48
615.38	61413.32
615.54	61123.09
615.69	61300.97
615.84	61303.31
616.00	61439.06
616.15	61293.95
616.30	61446.08
616.46	61087.98
616.61	61195.65
616.76	61338.42
616.92	61190.97
617.07	61434.38
617.22	61008.40
617.37	61130.11
617.53	61228.41
617.68	61256.50
617.83	61155.86
617.99	61151.18
618.14	61043.51
618.29	61113.73
618.45	61027.13
618.60	61179.26
618.75	61006.06
618.90	61015.43
619.06	61186.28
619.21	61226.07
619.36	61080.96
619.51	61158.20
619.67	60919.46
619.82	61034.15
619.97	60989.68
620.12	61073.94
620.28	60945.21
620.43	60942.87
620.58	61015.43
620.73	60956.91
620.89	61055.21
621.04	61130.11
621.19	60825.84
621.34	61024.79
621.49	60631.58
621.65	60996.70
621.80	61001.38
621.95	60832.86
622.10	60865.63
622.25	60910.10
622.41	60877.33
622.56	60891.38
622.71	60746.26
622.86	60676.05
623.01	60706.47
623.16	60596.47
623.32	60804.78
623.47	60793.07
623.62	60617.53
623.77	60781.37
623.92	60889.04
624.07	60842.23
624.23	60905.42
624.38	60821.16
624.53	60491.15
624.68	60549.66
624.83	60598.81
624.98	60701.79
625.13	60589.45
625.29	60725.20
625.44	60718.18
625.59	60439.65
625.74	60603.49
625.89	60324.97
626.04	60313.26
626.19	60467.74
626.34	60294.54
626.49	60409.23
626.65	60268.79
626.80	60397.52
626.95	60142.41
627.10	60402.21
627.25	60266.45
627.40	60245.39
627.55	60516.89
627.70	60467.74
627.85	60182.19
628.00	60310.92
628.15	60376.46
628.30	59978.57
628.45	60294.54
628.60	60135.38
628.76	60322.63
628.91	60514.55
629.06	60224.32
629.21	60161.13
629.36	59931.76
629.51	60247.73
629.66	60079.21
629.81	59948.14
629.96	59973.89
630.11	60074.53
630.26	60128.36
630.41	59985.59
630.56	59934.10
630.71	59833.46
630.86	59859.20
631.01	60217.30
631.16	60088.57
631.31	59828.77
631.46	59700.04
631.61	59927.08
631.76	60006.65
631.91	60060.49
632.06	60102.62
632.21	60060.49
632.36	59788.98
632.51	59597.06
632.66	59718.77
632.81	59517.48
632.96	59847.50
633.10	59859.20
633.25	59877.93
633.40	59863.88
633.55	59831.11
633.70	59992.61
633.85	59526.84
634.00	59557.27
634.15	59470.67
634.30	59576.00
634.45	59742.17
634.60	59697.70
634.75	59573.66
634.90	59358.33
635.05	59547.91
635.19	59662.60
635.34	59798.35
635.49	59599.40
635.64	59655.57
635.79	59667.28
635.94	59480.03
636.09	59620.47
636.24	59377.05
636.39	59512.80
636.53	59620.47
636.68	59590.04
636.83	59599.40
636.98	59625.15
637.13	59440.24
637.28	59538.55
637.43	59480.03
637.57	59213.21
637.72	59306.83
637.87	59330.24
638.02	59353.65
638.17	59222.58
638.32	59456.63
638.46	59501.10
638.61	59402.80
638.76	59145.34
638.91	58976.82
639.06	59035.33
639.20	59002.56
639.35	59121.93
639.50	59084.48
639.65	59220.23
639.80	59157.04
639.94	59077.46
640.09	59000.22
640.24	59325.56
640.39	58941.71
640.54	59028.31
640.68	59185.13
640.83	58915.96
640.98	58979.16
641.13	58862.13
641.27	59138.32
641.42	59100.87
641.57	58817.66
641.72	58932.35
641.86	58918.31
642.01	58574.25
642.16	59028.31
642.31	58740.42
642.45	59054.06
642.60	58714.68
642.75	58997.88
642.90	58817.66
643.04	58965.12
643.19	58801.28
643.34	58878.52
643.48	58700.64
643.63	58871.49
643.78	58710.00
643.93	58768.51
644.07	58724.04
644.22	58590.63
644.37	58541.48
644.51	58464.24
644.66	58752.13
644.81	58567.23
644.95	58599.99
645.10	58578.93
645.25	58635.10
645.39	58501.69
645.54	58525.10
645.69	58635.10
645.83	58571.91
645.98	58735.74
646.13	58588.29
646.27	58298.06
646.42	58344.87
646.57	58305.09
646.71	58541.48
646.86	58564.88
647.00	58543.82
647.15	58440.84
647.30	58312.11
647.44	58426.79
647.59	58536.80
647.74	58527.44
647.88	58148.27
648.03	58403.39
648.17	58284.02
648.32	58213.80
648.47	58408.07
648.61	58326.15
648.76	58354.24
648.90	58024.22
649.05	58078.05
649.20	58419.77
649.34	58391.68
649.49	58178.70
649.63	58286.36
649.78	58171.67
649.92	58272.32
650.07	58255.93
650.21	58241.89
650.36	58286.36
650.51	57844.00
650.65	58365.94
650.80	58216.14
650.94	58028.90
651.09	57935.28
651.23	57811.23
651.38	58134.23
651.52	57595.90
651.67	57839.32
651.81	57932.94
651.96	57968.05
652.10	57869.75
652.25	57766.76
652.39	57872.09
652.54	57724.63
652.68	57799.53
652.83	57656.76
652.97	57869.75
653.12	57766.76
653.26	57808.89
653.41	57897.83
653.55	57865.06
653.70	57705.91
653.84	57724.63
653.99	57762.08
654.13	57698.89
654.27	57595.90
654.42	57340.78
654.56	57504.62
654.71	57612.29
654.85	57710.59
655.00	57787.83
655.14	57432.07
655.29	57394.62
655.43	57588.88
655.57	57272.91
655.72	57663.78
655.86	57476.54
656.01	57530.37
656.15	57270.57
656.30	57312.70
656.44	57551.43
656.58	57645.05
656.73	57607.61
656.87	57434.41
657.01	57223.76
657.16	57425.04
657.30	57347.81
657.45	57125.46
657.59	57258.87
657.73	57076.30
657.88	57109.07
658.02	57195.67
658.16	57097.37
658.31	57226.10
658.45	57251.84
658.60	57132.48
658.74	57195.67
658.88	57024.81
659.03	56757.99
659.17	57172.27
659.31	57036.51
659.46	56970.98
659.60	56828.21
659.74	57111.41
659.89	56863.32
660.03	56954.60
660.17	57109.07
660.32	56942.89
660.46	56748.63
660.60	56629.26
660.74	56659.69
660.89	56793.10
661.03	56547.34
661.17	56357.76
661.32	56339.04
661.46	56788.42
661.60	56287.54
661.74	56388.19
661.89	56339.04
662.03	56093.28
662.17	56013.70
662.31	55999.66
662.46	56425.64
662.60	56182.22
662.74	56137.75
662.88	56107.32
663.03	56025.40
663.17	56250.09
663.31	55917.74
663.45	55852.20
663.60	56072.21
663.74	55660.28
663.88	55629.85
664.02	55664.96
664.17	55880.29
664.31	55428.57
664.45	55503.46
664.59	55536.23
664.73	55564.32
664.88	55473.04
665.02	55159.41
665.16	55494.10
665.30	55442.61
665.44	55133.66
665.59	55327.92
665.73	55250.69
665.87	55192.17
666.01	55561.98
666.15	55189.83
666.29	55344.31
666.44	55421.55
666.58	55068.12
666.72	54798.96
666.86	54827.05
667.00	55091.53
667.14	54761.51
667.28	54667.89
667.43	54651.51
667.57	54649.17
667.71	54724.07
667.85	54447.88
667.99	54410.43
668.13	54595.34
668.27	54513.42
668.41	54365.96
668.56	54150.63
668.70	54143.61
668.84	54363.62
668.98	53930.62
669.12	54323.83
669.26	54071.06
669.40	54412.77
669.54	54305.11
669.68	53902.54
669.82	54049.99
669.96	54138.93
670.10	53738.70
670.25	54321.49
670.39	53712.95
670.53	53844.02
670.67	53743.38
670.81	53811.26
670.95	53752.74
671.09	53488.26
671.23	53532.73
671.37	53642.74
671.51	53663.80
671.65	53380.60
671.79	53368.90
671.93	53104.41
672.07	53359.53
672.21	53118.46
672.35	52914.83
672.49	52397.57
672.63	52680.78
672.77	52905.47
672.91	52765.04
673.05	52563.75
673.19	52659.71
673.33	52179.90
673.47	52346.08
673.61	52451.41
673.75	52182.24
673.89	51756.27
674.03	51952.87
674.17	51758.61
674.31	52093.30
674.45	51559.66
674.59	51730.52
674.73	51838.18
674.87	51882.66
675.01	51714.14
675.15	51648.60
675.29	51470.72
675.43	51604.13
675.56	51381.78
675.70	51236.67
675.84	50876.22
675.98	50216.19
676.12	50518.12
676.26	50885.59
676.40	50691.32
676.54	50408.12
676.68	50754.52
676.82	49935.33
676.96	50349.60
677.10	50195.13
677.23	50026.61
677.37	49916.61
677.51	49736.38
677.65	49401.69
677.79	48825.92
677.93	49251.89
678.07	49064.65
678.21	49010.82
678.34	49275.30
678.48	48619.95
678.62	48753.36
678.76	48509.94
678.90	48353.13
679.04	48390.58
679.18	48769.74
679.31	48264.19
679.45	47770.33
679.59	48002.05
679.73	48275.89
679.87	47725.86
680.00	47393.51
680.14	46986.25
680.28	47650.97
680.42	47105.62
680.56	46873.91
680.70	46590.70
680.83	46745.18
680.97	46663.26
681.11	46522.83
681.25	46408.14
681.39	46394.10
681.52	46340.27
681.66	46469.00
681.80	45869.82
681.94	45792.58
682.07	45890.88
682.21	44893.82
682.35	45497.67
682.49	44980.42
682.62	45392.35
682.76	44971.05
682.90	45294.05
683.04	45221.49
683.17	44498.26
683.31	43966.96
683.45	44074.63
683.59	44011.43
683.72	44402.30
683.86	43772.70
684.00	44149.53
684.13	44395.28
684.27	43889.73
684.41	43957.60
684.55	43175.86
684.68	43475.45
684.82	43175.86
684.96	43019.05
685.09	43140.75
685.23	42323.91
685.37	42181.13
685.50	41956.44
685.64	42391.78
685.78	42284.12
685.91	41853.46
686.05	41792.61
686.19	40987.46
686.32	41450.89
686.46	40713.62
686.60	40631.70
686.73	40912.56
686.87	40437.44
687.01	40933.63
687.14	40683.19
687.28	39971.67
687.42	40292.32
687.55	39849.96
687.69	40334.45
687.82	39988.05
687.96	39643.99
688.10	39704.85
688.23	39941.24
688.37	39372.49
688.50	39005.03
688.64	38703.10
688.78	38869.28
688.91	38153.07
689.05	38363.72
689.18	38380.10
689.32	38073.49
689.46	37785.61
689.59	37832.42
689.73	37923.70
689.86	37773.91
690.00	37275.37
690.13	37495.38
690.27	37500.06
690.41	37141.96
690.54	37284.73
690.68	36758.11
690.81	36650.45
690.95	36158.94
691.08	36566.19
691.22	35976.37
691.35	35894.46
691.49	36137.87
691.62	36098.08
691.76	35739.98
691.89	35786.79
692.03	35264.85
692.16	35105.70
692.30	34904.41
692.43	35548.06
692.57	34831.85
692.70	34263.10
692.84	34845.90
692.97	34443.32
693.11	34621.20
693.24	34370.77
693.38	33832.44
693.51	33481.36
693.65	33549.24
693.78	33324.55
693.92	33661.58
694.05	33160.71
694.19	33289.44
694.32	32999.21
694.45	32851.76
694.59	32786.22
694.72	32507.70
694.86	32704.31
694.99	32273.65
695.13	32013.85
695.26	31887.46
695.39	31842.99
695.53	31784.48
695.66	31674.47
695.80	31512.97
695.93	31096.36
696.07	31227.43
696.20	30618.89
696.33	30513.56
696.47	30555.69
696.60	30560.37
696.73	30431.65
696.87	30249.08
697.00	30333.34
697.14	30146.10
697.27	29867.58
697.40	29687.36
697.54	29558.63
697.67	29223.93
697.80	29200.52
697.94	29099.88
698.07	28753.48
698.21	28697.31
698.34	29067.11
698.47	28837.74
698.61	28437.51
698.74	28547.51
698.87	28210.48
699.01	27864.08
699.14	28079.41
699.27	27580.87
699.40	28088.77
699.54	27999.83
699.67	27192.34
699.80	27475.55
699.94	27105.74
700.07	27367.88
700.20	26913.82
700.34	26532.31
700.47	26506.57
700.60	26422.31
700.73	26235.06
700.87	26216.34
701.00	25951.86
701.13	25823.13
701.26	25429.92
701.40	26103.99
701.53	25631.21
701.66	25560.99
701.79	25411.20
701.93	25184.16
702.06	25083.52
702.19	25303.53
702.32	24847.13
702.46	24933.73
702.59	24470.30
702.72	24428.17
702.85	24498.39
702.99	24086.45
703.12	24278.38
703.25	23843.04
703.38	23667.50
703.51	23730.69
703.65	23143.22
703.78	23623.03
703.91	23267.27
704.04	23576.22
704.17	23414.72
704.31	22955.97
704.44	22995.76
704.57	22876.40
704.70	22965.34
704.83	22829.59
704.96	22462.12
705.10	22417.65
705.23	22033.80
>>>>>End Processed Spectral Data<<<<<
