SpectraSuite Data File
++++++++++++++++++++++++++++++++++++
Date: Fri Oct 25 11:34:14 EDT 2013
User: price-jones
Dark Spectrum Present: No
Reference Spectrum Present: No
Number of Sampled Component Spectra: 1
Spectrometers: USB2+H05261
Integration Time (usec): 100000 (USB2+H05261)
Spectra Averaged: 1 (USB2+H05261)
Boxcar Smoothing: 0 (USB2+H05261)
Correct for Electrical Dark: No (USB2+H05261)
Strobe/Lamp Enabled: No (USB2+H05261)
Correct for Detector Non-linearity: No (USB2+H05261)
Correct for Stray Light: No (USB2+H05261)
Number of Pixels in Processed Spectrum: 2048
>>>>>Begin Processed Spectral Data<<<<<
365.73	198.95
365.92	198.95
366.12	198.95
366.32	217.67
366.52	145.11
366.72	264.48
366.91	166.18
367.11	257.46
367.31	250.44
367.51	170.86
367.70	173.20
367.90	250.44
368.10	173.20
368.30	205.97
368.49	84.26
368.69	252.78
368.89	201.29
369.09	147.45
369.28	184.90
369.48	264.48
369.68	276.18
369.87	330.02
370.07	262.14
370.27	205.97
370.47	320.65
370.66	440.02
370.86	507.90
371.06	512.58
371.25	545.34
371.45	531.30
371.65	505.56
371.84	517.26
372.04	503.22
372.24	620.24
372.44	545.34
372.63	627.26
372.83	660.03
373.03	627.26
373.22	629.60
373.42	578.11
373.62	631.94
373.81	610.88
374.01	620.24
374.21	692.80
374.40	655.35
374.60	585.13
374.79	624.92
374.99	657.69
375.19	627.26
375.38	641.31
375.58	622.58
375.78	643.65
375.97	669.39
376.17	760.67
376.37	648.33
376.56	622.58
376.76	697.48
376.95	650.67
377.15	795.78
377.35	629.60
377.54	622.58
377.74	645.99
377.93	720.88
378.13	674.07
378.33	657.69
378.52	631.94
378.72	767.70
378.91	671.73
379.11	669.39
379.31	676.41
379.50	704.50
379.70	711.52
379.89	772.38
380.09	711.52
380.28	737.27
380.48	727.91
380.68	758.33
380.87	755.99
381.07	730.25
381.26	788.76
381.46	805.14
381.65	816.85
381.85	781.74
382.04	814.51
382.24	592.16
382.43	727.91
382.63	678.76
382.83	767.70
383.02	861.32
383.22	866.00
383.41	758.33
383.61	800.46
383.80	809.83
384.00	748.97
384.19	802.80
384.39	758.33
384.58	873.02
384.78	755.99
384.97	837.91
385.17	772.38
385.36	847.27
385.56	781.74
385.75	830.89
385.95	830.89
386.14	943.24
386.34	784.08
386.53	833.23
386.72	858.98
386.92	870.68
387.11	851.96
387.31	844.93
387.50	800.46
387.70	908.13
387.89	936.21
388.09	880.04
388.28	919.83
388.48	896.43
388.67	940.90
388.86	898.77
389.06	936.21
389.25	882.38
389.45	931.53
389.64	994.73
389.84	917.49
390.03	887.06
390.22	922.17
390.42	919.83
390.61	973.66
390.81	919.83
391.00	901.11
391.19	1004.09
391.39	938.55
391.58	1032.18
391.78	1020.47
391.97	964.30
392.16	952.60
392.36	1069.62
392.55	1004.09
392.75	1050.90
392.94	1036.86
393.13	1097.71
393.33	959.62
393.52	1041.54
393.71	1064.94
393.91	1083.67
394.10	985.37
394.29	1043.88
394.49	1097.71
394.68	1139.84
394.88	1104.73
395.07	1174.95
395.26	1203.04
395.46	1163.25
395.65	1074.31
395.84	1160.91
396.04	1238.14
396.23	1158.57
396.42	1266.23
396.62	1188.99
396.81	1217.08
397.00	1219.42
397.19	1193.67
397.39	1191.33
397.58	1200.69
397.77	1177.29
397.97	1245.16
398.16	1235.80
398.35	1284.95
398.55	1313.04
398.74	1221.76
398.93	1291.98
399.12	1282.61
399.32	1188.99
399.51	1263.89
399.70	1338.79
399.90	1352.83
400.09	1327.08
400.28	1306.02
400.47	1338.79
400.67	1380.92
400.86	1458.15
401.05	1460.49
401.24	1404.32
401.44	1439.43
401.63	1462.83
401.82	1371.55
402.01	1378.58
402.21	1441.77
402.40	1404.32
402.59	1357.51
402.78	1385.60
402.97	1394.96
403.17	1423.05
403.36	1462.83
403.55	1533.05
403.74	1563.48
403.93	1605.61
404.13	1526.03
404.32	1511.99
404.51	1547.09
404.70	1643.06
404.89	1563.48
405.09	1652.42
405.28	1596.25
405.47	1650.08
405.66	1795.19
405.85	1629.01
406.05	1685.19
406.24	1720.29
406.43	1830.30
406.62	1729.66
406.81	1844.34
407.00	1767.10
407.20	1671.14
407.39	1678.16
407.58	1689.87
407.77	1830.30
407.96	1839.66
408.15	1727.32
408.34	1795.19
408.54	1837.32
408.73	1907.54
408.92	1884.13
409.11	2069.03
409.30	2017.54
409.49	2062.01
409.68	2015.20
409.87	1989.46
410.07	2115.84
410.26	2003.50
410.45	1994.14
410.64	1961.37
410.83	2054.99
411.02	2087.76
411.21	2071.37
411.40	2029.24
411.59	2186.06
411.78	2176.70
411.98	2146.27
412.17	2197.76
412.36	2321.81
412.55	2286.70
412.74	2342.88
412.93	2284.36
413.12	2244.57
413.31	2408.41
413.50	2286.70
413.69	2326.49
413.88	2466.92
414.07	2396.71
414.26	2396.71
414.45	2450.54
414.64	2455.22
414.83	2523.10
415.02	2452.88
415.22	2555.86
415.41	2579.27
415.60	2619.06
415.79	2715.02
415.98	2576.93
416.17	2602.68
416.36	2609.70
416.55	2775.88
416.74	2729.06
416.93	2761.83
417.12	2855.45
417.31	2745.45
417.50	2799.28
417.69	3000.57
417.88	2956.10
418.07	2839.07
418.26	2794.60
418.45	2923.33
418.64	3040.36
418.83	3005.25
419.02	2979.50
419.21	3019.29
419.39	3045.04
419.58	3084.83
419.77	3084.83
419.96	3038.02
420.15	3073.12
420.34	3141.00
420.53	3162.06
420.72	3246.32
420.91	3124.62
421.10	3117.59
421.29	3178.45
421.48	3218.24
421.67	3260.37
421.86	3227.60
422.05	3255.69
422.24	3267.39
422.43	3309.52
422.61	3180.79
422.80	3251.00
422.99	3351.65
423.18	3283.77
423.37	3269.73
423.56	3400.80
423.75	3309.52
423.94	3131.64
424.13	3049.72
424.32	3229.94
424.50	3269.73
424.69	3389.10
424.88	3302.50
425.07	3335.26
425.26	3267.39
425.45	3253.34
425.64	3328.24
425.83	3300.16
426.01	3431.23
426.20	3288.45
426.39	3391.44
426.58	3311.86
426.77	3251.00
426.96	3349.31
427.15	3321.22
427.33	3407.82
427.52	3517.83
427.71	3456.97
427.90	3520.17
428.09	3538.89
428.28	3651.24
428.46	3534.21
428.65	3538.89
428.84	3611.45
429.03	3606.77
429.22	3625.49
429.40	3662.94
429.59	3658.26
429.78	3623.15
429.97	3627.83
430.16	3599.74
430.34	3712.09
430.53	3843.16
430.72	3667.62
430.91	3744.86
431.10	3695.71
431.28	3847.84
431.47	3948.48
431.66	4037.42
431.85	3819.75
432.03	4037.42
432.22	3885.29
432.41	3756.56
432.60	3969.55
432.79	4035.08
432.97	3974.23
433.16	4014.02
433.35	4014.02
433.54	3985.93
433.72	4095.94
433.91	4091.26
434.10	4095.94
434.28	3999.98
434.47	4058.49
434.66	4163.81
434.85	4161.47
435.03	4196.58
435.22	4294.88
435.41	4142.75
435.59	4290.20
435.78	4348.72
435.97	4131.05
436.16	4266.80
436.34	4215.30
436.53	4299.56
436.72	4386.16
436.90	4205.94
437.09	4409.57
437.28	4334.67
437.46	4325.31
437.65	4337.01
437.84	4470.42
438.02	4479.79
438.21	4526.60
438.40	4482.13
438.58	4505.53
438.77	4702.14
438.96	4512.55
439.14	4685.75
439.33	4720.86
439.52	4711.50
439.70	4823.84
439.89	4964.28
440.08	4851.93
440.26	4856.61
440.45	4739.58
440.63	4940.87
440.82	4873.00
441.01	4950.23
441.19	4873.00
441.38	5046.20
441.57	5022.79
441.75	5203.01
441.94	5259.18
442.12	5231.10
442.31	5324.72
442.50	5359.83
442.68	5219.39
442.87	5238.12
443.05	5298.97
443.24	5455.79
443.43	5366.85
443.61	5448.77
443.80	5640.69
443.98	5320.04
444.17	5060.24
444.35	5366.85
444.54	5481.53
444.73	5380.89
444.91	5465.15
445.10	5446.43
445.28	5511.96
445.47	5493.24
445.65	5617.29
445.84	5645.37
446.02	5607.92
446.21	5364.51
446.39	5575.16
446.58	5497.92
446.77	5380.89
446.95	5439.40
447.14	5596.22
447.32	5628.99
447.51	5650.05
447.69	5612.60
447.88	5666.44
448.06	5563.45
448.25	5600.90
448.43	5411.32
448.62	5699.20
448.80	5598.56
448.99	5631.33
449.17	5797.51
449.36	5666.44
449.54	5636.01
449.73	5701.54
449.91	5909.85
450.10	5813.89
450.28	5961.34
450.46	5947.30
450.65	5921.56
450.83	5874.74
451.02	5916.87
451.20	5996.45
451.39	5830.27
451.57	5991.77
451.76	5919.21
451.94	5944.96
452.13	6024.54
452.31	6078.37
452.49	5935.60
452.68	6164.97
452.86	6059.65
453.05	6282.00
453.23	6284.34
453.42	6174.33
453.60	6073.69
453.78	6209.44
453.97	6052.63
454.15	6214.12
454.34	6239.87
454.52	6366.26
454.70	6448.18
454.89	6221.14
455.07	6345.19
455.26	6413.07
455.44	6520.73
455.62	6576.91
455.81	6389.66
455.99	6548.82
456.17	6562.86
456.36	6590.95
456.54	6752.45
456.73	6539.46
456.91	6930.33
457.09	6754.79
457.28	6892.88
457.46	6729.04
457.64	6871.81
457.83	6883.52
458.01	6841.39
458.19	6881.18
458.38	6885.86
458.56	7110.55
458.74	6916.28
458.93	6991.18
459.11	7077.78
459.29	7269.70
459.48	6993.52
459.66	7089.48
459.84	7035.65
460.03	7265.02
460.21	7304.81
460.39	7068.42
460.57	7218.21
460.76	7414.82
460.94	7356.30
461.12	7236.94
461.31	7428.86
461.49	7342.26
461.67	7155.02
461.85	7368.01
462.04	7463.97
462.22	7740.15
462.40	7489.71
462.59	7597.38
462.77	7283.75
462.95	7705.04
463.13	7606.74
463.32	7632.49
463.50	7728.45
463.68	7721.43
463.86	7812.71
464.05	7609.08
464.23	7761.22
464.41	7566.95
464.59	7541.21
464.78	7812.71
464.96	7796.32
465.14	7719.09
465.32	7756.54
465.50	7978.89
465.69	7843.14
465.87	7655.89
466.05	7784.62
466.23	8081.87
466.41	7936.76
466.60	8250.39
466.78	7906.33
466.96	7854.84
467.14	7845.48
467.32	8035.06
467.51	8142.72
467.69	7801.01
467.87	8030.38
468.05	8266.77
468.23	8182.51
468.41	8109.96
468.60	8327.63
468.78	8081.87
468.96	8219.96
469.14	8210.60
469.32	8320.60
469.50	8198.90
469.69	8381.46
469.87	8554.66
470.05	8531.25
470.23	8395.50
470.41	8664.66
470.59	8596.79
470.77	8493.80
470.95	8491.46
471.14	8741.90
471.32	8730.20
471.50	8840.20
471.68	8645.94
471.86	8528.91
472.04	8887.01
472.22	8938.51
472.40	8849.57
472.58	8856.59
472.77	9011.06
472.95	9298.95
473.13	9392.57
473.31	9144.47
473.49	8950.21
473.67	9137.45
473.85	9261.50
474.03	9434.70
474.21	9369.16
474.39	9359.80
474.57	9453.42
474.75	9610.24
474.93	9631.30
475.12	9411.29
475.30	9607.90
475.48	9586.83
475.66	9781.10
475.84	9544.70
476.02	9872.38
476.20	9958.98
476.38	10249.21
476.56	10225.80
476.74	10293.68
476.92	10162.61
477.10	10281.97
477.28	10178.99
477.46	10246.87
477.64	10656.46
477.82	10551.14
478.00	10642.42
478.18	10949.03
478.36	10874.13
478.54	10930.30
478.72	10939.66
478.90	11286.06
479.08	11403.09
479.26	11358.62
479.44	11337.56
479.62	11459.26
479.80	11527.14
479.98	11370.32
480.16	11836.09
480.34	11669.91
480.52	11922.69
480.70	11997.59
480.88	11941.41
481.06	12182.49
481.24	12088.87
481.41	12135.68
481.59	12507.82
481.77	12435.27
481.95	12549.95
482.13	12617.83
482.31	12634.21
482.49	12931.46
482.67	12868.27
482.85	12994.65
483.03	13062.53
483.21	13256.79
483.39	13427.65
483.57	13205.30
483.74	13441.70
483.92	13687.45
484.10	13544.68
484.28	13846.61
484.46	13937.89
484.64	13975.34
484.82	14178.97
485.00	14178.97
485.18	14459.83
485.35	14560.47
485.53	14604.94
485.71	14675.16
485.89	15126.88
486.07	14771.12
486.25	14984.11
486.43	15059.01
486.61	15143.27
486.78	15372.64
486.96	15382.00
487.14	15712.02
487.32	15527.11
487.50	15534.14
487.68	16086.50
487.85	15871.17
488.03	16180.12
488.21	16397.79
488.39	16269.06
488.57	16713.77
488.75	16329.92
488.92	16688.02
489.10	16964.20
489.28	17069.53
489.46	17224.00
489.64	17083.57
489.81	17537.63
489.99	17310.60
490.17	17926.16
490.35	17956.59
490.53	17923.82
490.70	18033.83
490.88	17752.96
491.06	18071.28
491.24	18513.64
491.41	18609.60
491.59	18583.85
491.77	18277.24
491.95	18614.28
492.13	18707.90
492.30	18831.95
492.48	19098.77
492.66	18951.32
492.84	19276.65
493.01	19513.05
493.19	19456.87
493.37	19805.61
493.54	19775.19
493.72	19880.51
493.90	19903.92
494.08	20198.82
494.25	20374.36
494.43	20418.83
494.61	20444.58
494.79	20659.91
494.96	20582.67
495.14	20673.95
495.32	20826.09
495.49	21120.99
495.67	21238.02
495.85	21610.17
496.02	21357.39
496.20	21413.56
496.38	21741.24
496.55	21781.03
496.73	22225.73
496.91	21926.14
497.09	21923.80
497.26	22279.56
497.44	22286.58
497.62	22518.29
497.79	22766.39
497.97	22462.12
498.14	22710.22
498.32	22977.04
498.50	23075.34
498.67	23508.34
498.85	23014.49
499.03	23393.65
499.20	23147.90
499.38	23138.54
499.56	23779.84
499.73	23372.59
499.91	24025.60
500.08	24074.75
500.26	24009.22
500.44	23920.28
500.61	23953.04
500.79	23838.36
500.97	24194.12
501.14	24496.05
501.32	24828.40
501.49	24631.80
501.67	24355.61
501.84	24772.23
502.02	24737.12
502.20	24800.32
502.37	24830.74
502.55	24706.70
502.72	24943.09
502.90	25090.54
503.07	25252.04
503.25	25383.11
503.43	25331.62
503.60	25610.14
503.78	25891.01
503.95	25678.02
504.13	25869.94
504.30	26396.56
504.48	26218.68
504.65	26143.78
504.83	26199.96
505.01	26085.27
505.18	26387.20
505.36	26309.96
505.53	26368.48
505.71	26724.24
505.88	26632.96
506.06	26497.20
506.23	26876.37
506.41	26307.62
506.58	27129.15
506.76	26796.79
506.93	27063.61
507.11	26969.99
507.28	27119.79
507.46	27175.96
507.63	27133.83
507.81	27386.61
507.98	27302.35
508.16	27777.48
508.33	27960.04
508.50	27981.10
508.68	27843.01
508.85	28264.31
509.03	27807.90
509.20	28364.95
509.38	28533.47
509.55	28280.69
509.73	28500.70
509.90	28547.51
510.08	28627.09
510.25	28599.01
510.42	28753.48
510.60	28926.68
510.77	28783.91
510.95	29151.37
511.12	28795.61
511.30	29340.96
511.47	29385.43
511.64	29277.76
511.82	29483.73
511.99	28957.11
512.17	29748.21
512.34	29127.97
512.51	29743.53
512.69	29727.14
512.86	29825.45
513.04	29825.45
513.21	30066.52
513.38	29626.50
513.56	30242.06
513.73	30244.40
513.90	30242.06
514.08	30155.46
514.25	30476.12
514.43	30216.32
514.60	30394.20
514.77	30855.28
514.95	30815.49
515.12	30639.95
515.29	30801.45
515.47	30827.20
515.64	30960.61
515.81	30630.59
515.99	31058.91
516.16	31461.48
516.33	31386.58
516.51	31255.51
516.68	31337.43
516.85	31417.01
517.03	31374.88
517.20	31690.85
517.37	31754.05
517.54	31861.71
517.72	31807.88
517.89	31866.39
518.06	31938.95
518.24	31707.24
518.41	31770.43
518.58	32161.30
518.75	31969.38
518.93	32095.77
519.10	32388.33
519.27	32526.42
519.45	32591.96
519.62	32685.58
519.79	32135.56
519.96	32662.18
520.14	32957.08
520.31	32393.01
520.48	33151.35
520.65	33064.75
520.83	33401.79
521.00	32968.79
521.17	33237.95
521.34	33347.95
521.52	33722.44
521.69	33347.95
521.86	33273.06
522.03	33862.87
522.20	33661.58
522.38	34075.86
522.55	34122.67
522.72	33736.48
522.89	33729.46
523.07	34059.48
523.24	34099.26
523.41	34190.55
523.58	34270.12
523.75	34464.39
523.92	34625.89
524.10	34403.53
524.27	34284.17
524.44	34366.09
524.61	34703.12
524.78	34824.83
524.96	34796.74
525.13	34806.11
525.30	35072.93
525.47	34923.13
525.64	35110.38
525.81	34939.52
525.98	34684.40
526.16	35601.89
526.33	34742.91
526.50	35257.83
526.67	35278.89
526.84	35250.81
527.01	35353.79
527.18	35419.33
527.36	35592.53
527.53	35175.91
527.70	36088.72
527.87	36093.40
528.04	35503.59
528.21	35826.58
528.38	35798.49
528.55	36091.06
528.72	35754.02
528.89	35922.54
529.07	36121.49
529.24	35899.14
529.41	36222.13
529.58	36350.86
529.75	36088.72
529.92	36287.67
530.09	36596.62
530.26	36531.08
530.43	36900.89
530.60	36378.95
530.77	36655.13
530.94	36840.03
531.11	36215.11
531.28	36500.65
531.46	37008.55
531.63	37134.94
531.80	36973.44
531.97	37083.45
532.14	37261.33
532.31	37015.57
532.48	37209.84
532.65	37062.38
532.82	37368.99
532.99	37439.21
533.16	37090.47
533.33	37312.82
533.50	37422.83
533.67	37736.46
533.84	37296.44
534.01	37813.70
534.18	37823.06
534.35	38000.94
534.52	37844.12
534.69	38401.17
534.86	37949.45
535.03	37972.85
535.20	38410.53
535.37	37935.40
535.54	38057.11
535.71	38415.21
535.88	38340.32
536.05	38347.34
536.22	38286.48
536.38	38333.29
536.55	38174.14
536.72	38288.82
536.89	38543.94
537.06	38976.94
537.23	38518.20
537.40	38431.60
537.57	38326.27
537.74	38557.99
537.91	39070.56
538.08	38852.89
538.25	38885.66
538.42	39187.59
538.59	39323.34
538.75	38728.84
538.92	38923.11
539.09	39084.61
539.26	38752.25
539.43	39374.83
539.60	39873.37
539.77	39239.08
539.94	39428.66
540.11	39433.35
540.28	39360.79
540.44	39365.47
540.61	39225.04
540.78	39548.03
540.95	39545.69
541.12	40084.01
541.29	39140.78
541.46	39611.23
541.62	39770.38
541.79	39693.15
541.96	39775.06
542.13	39758.68
542.30	39889.75
542.47	40144.87
542.63	40509.99
542.80	39910.82
542.97	40765.11
543.14	40432.75
543.31	40540.42
543.48	40280.62
543.64	41441.53
543.81	40893.84
543.98	40580.21
544.15	40662.13
544.32	40652.76
544.48	40814.26
544.65	40802.56
544.82	41130.23
544.99	40540.42
545.16	40825.96
545.32	41191.09
545.49	41593.66
545.66	41710.69
545.83	41109.17
546.00	41483.66
546.16	41249.60
546.33	40879.80
546.50	41226.20
546.67	41429.82
546.83	40652.76
547.00	41329.18
547.17	41397.06
547.34	41645.15
547.50	41874.52
547.67	41811.33
547.84	41811.33
548.00	41574.94
548.17	41888.57
548.34	41874.52
548.51	42370.72
548.67	41900.27
548.84	41553.87
549.01	41865.16
549.18	41860.48
549.34	42363.70
549.51	42059.43
549.68	41867.50
549.84	42038.36
550.01	42572.00
550.18	41883.89
550.34	42260.71
550.51	42508.81
550.68	42478.38
550.84	42113.26
551.01	42527.53
551.18	41780.90
551.34	42239.65
551.51	42593.07
551.68	42176.45
551.84	42714.78
552.01	42447.96
552.18	42796.70
552.34	42815.42
552.51	42674.99
552.68	42447.96
552.84	42890.32
553.01	42660.94
553.18	42777.97
553.34	42939.47
553.51	42916.06
553.67	42902.02
553.84	43033.09
554.01	43295.23
554.17	43208.63
554.34	43040.11
554.51	42841.17
554.67	43145.44
554.84	42951.17
555.00	43021.39
555.17	43250.76
555.33	43650.99
555.50	43026.07
555.67	43452.05
555.83	43597.16
556.00	43288.21
556.16	43863.98
556.33	43400.55
556.50	43435.66
556.66	43590.14
556.83	43358.42
556.99	43746.95
557.16	43936.54
557.32	43662.69
557.49	44147.18
557.65	43442.68
557.82	43796.10
557.98	43629.93
558.15	44034.84
558.32	43976.33
558.48	43723.55
558.65	44198.68
558.81	43941.22
558.98	43807.81
559.14	43842.92
559.31	43679.08
559.47	43735.25
559.64	44285.28
559.80	44137.82
559.97	44158.89
560.13	44067.61
560.30	43999.73
560.46	44367.20
560.63	44266.55
560.79	44339.11
560.96	44355.49
561.12	44130.80
561.29	44404.64
561.45	44402.30
561.61	44388.26
561.78	44163.57
561.94	44423.37
562.11	44507.63
562.27	44156.55
562.44	44617.63
562.60	44395.28
562.77	44552.10
562.93	43990.37
563.10	44399.96
563.26	44179.95
563.42	44706.57
563.59	44884.45
563.75	44374.22
563.92	44399.96
564.08	44409.32
564.24	45043.61
564.41	44676.15
564.57	44650.40
564.74	44858.71
564.90	44444.43
565.07	44821.26
565.23	44430.39
565.39	44720.62
565.56	45015.52
565.72	44804.88
565.88	44952.33
566.05	44912.54
566.21	44713.59
566.38	44837.64
566.54	44636.36
566.70	45343.20
566.87	44914.88
567.03	44671.46
567.19	45022.54
567.36	44652.74
567.52	44987.44
567.68	45092.76
567.85	44957.01
568.01	45474.27
568.17	44989.78
568.34	45298.73
568.50	45226.17
568.66	44952.33
568.83	44973.39
568.99	44818.92
569.15	45265.96
569.32	44762.75
569.48	44849.35
569.64	45237.87
569.81	45106.80
569.97	44879.77
570.13	45277.66
570.30	45212.13
570.46	45460.23
570.62	45581.93
570.78	45202.77
570.95	45675.55
571.11	45401.71
571.27	45343.20
571.43	45191.06
571.60	45528.10
571.76	45530.44
571.92	45462.57
572.09	45284.68
572.25	45050.63
572.41	45118.51
572.57	45411.07
572.74	45787.90
572.90	45570.23
573.06	45216.81
573.22	45654.49
573.38	45177.02
573.55	45319.79
573.71	45928.33
573.87	46080.47
574.03	45560.87
574.20	45830.03
574.36	45624.06
574.52	45406.39
574.68	45705.98
574.84	46017.27
575.01	45490.65
575.17	46227.92
575.33	45612.36
575.49	45895.56
575.65	45595.98
575.82	45532.78
575.98	45516.40
576.14	45954.08
576.30	45488.31
576.46	45556.19
576.62	45574.91
576.79	45551.51
576.95	45497.67
577.11	45319.79
577.27	45354.90
577.43	45638.11
577.59	45457.88
577.75	45432.14
577.92	45399.37
578.08	45581.93
578.24	45591.30
578.40	45593.64
578.56	45633.42
578.72	45827.69
578.88	45556.19
579.04	45191.06
579.21	45556.19
579.37	45705.98
579.53	45911.95
579.69	45617.04
579.85	45441.50
580.01	46080.47
580.17	45687.26
580.33	45897.91
580.49	45682.58
580.65	46232.60
580.82	45663.85
580.98	45778.54
581.14	45291.71
581.30	45977.48
581.46	45848.75
581.62	45696.62
581.78	45628.74
581.94	46000.89
582.10	45862.80
582.26	45865.14
582.42	46064.08
582.58	46017.27
582.74	45799.60
582.90	46028.98
583.06	46408.14
583.22	46014.93
583.38	46319.20
583.54	45790.24
583.70	45837.05
583.86	46239.62
584.02	45708.32
584.18	46230.26
584.34	46204.52
584.50	46251.33
584.66	46178.77
584.82	46426.87
584.98	46387.08
585.14	46302.82
585.30	46253.67
585.46	45951.74
585.62	46136.64
585.78	46068.76
585.94	45755.13
586.10	46218.56
586.26	46075.79
586.42	45862.80
586.58	46244.30
586.74	45605.34
586.90	46052.38
587.06	45567.89
587.22	46040.68
587.38	45834.71
587.54	46342.61
587.70	46347.29
587.86	45696.62
588.02	46263.03
588.18	46286.43
588.34	46110.89
588.49	46038.34
588.65	45443.84
588.81	46433.89
588.97	46326.22
589.13	45846.41
589.29	45923.65
589.45	46440.91
589.61	45890.88
589.77	46478.36
589.93	46157.70
590.08	46028.98
590.24	46560.28
590.40	46595.38
590.56	46433.89
590.72	46822.42
590.88	46120.26
591.04	46237.28
591.20	46876.25
591.35	46883.27
591.51	46714.75
591.67	46553.26
591.83	46967.53
591.99	46270.05
592.15	46459.63
592.31	46686.67
592.46	46096.85
592.62	46424.53
592.78	46876.25
592.94	46693.69
593.10	46726.46
593.26	46850.50
593.41	46639.86
593.57	46815.40
593.73	46887.95
593.89	47056.47
594.05	46763.90
594.20	46733.48
594.36	46969.87
594.52	46810.71
594.68	46913.70
594.84	46520.49
594.99	46850.50
595.15	46614.11
595.31	46845.82
595.47	46958.17
595.62	47028.38
595.78	46625.81
595.94	46560.28
596.10	46616.45
596.25	46997.96
596.41	46756.88
596.57	46445.59
596.73	46679.64
596.88	46710.07
597.04	46426.87
597.20	46747.52
597.36	46696.03
597.51	47157.11
597.67	46424.53
597.83	47000.30
597.99	46911.36
598.14	46513.47
598.30	46777.95
598.46	47138.39
598.61	47028.38
598.77	47136.05
598.93	46808.37
599.09	47056.47
599.24	47344.36
599.40	46997.96
599.56	47047.11
599.71	47339.68
599.87	47517.56
600.03	47267.12
600.18	47531.60
600.34	47002.64
600.50	46487.72
600.65	46948.81
600.81	46911.36
600.97	47086.90
601.12	46876.25
601.28	46899.65
601.44	46909.02
601.59	46810.71
601.75	46824.76
601.91	47030.72
602.06	46796.67
602.22	46894.97
602.37	47009.66
602.53	47196.90
602.69	47370.10
602.84	46848.16
603.00	47012.00
603.16	46707.73
603.31	46752.20
603.47	46932.42
603.62	47086.90
603.78	47342.02
603.94	46466.66
604.09	47306.91
604.25	46932.42
604.40	46824.76
604.56	46855.18
604.71	47466.06
604.87	46815.40
605.03	46366.01
605.18	47304.57
605.34	46930.08
605.49	46525.17
605.65	46749.86
605.80	46930.08
605.96	46887.95
606.12	46696.03
606.27	47026.04
606.43	46567.30
606.58	47227.33
606.74	46705.39
606.89	47054.13
607.05	47161.79
607.20	46946.47
607.36	46696.03
607.51	47007.32
607.67	46820.08
607.82	46576.66
607.98	46897.31
608.13	46726.46
608.29	46899.65
608.44	46539.21
608.60	46511.13
608.75	46656.24
608.91	46609.43
609.06	46220.90
609.22	46595.38
609.37	46232.60
609.53	46780.29
609.68	46445.59
609.84	46447.93
609.99	46539.21
610.15	46803.69
610.30	46604.75
610.46	46815.40
610.61	46770.93
610.76	46836.46
610.92	46220.90
611.07	46389.42
611.23	46017.27
611.38	46466.66
611.54	46497.08
611.69	46637.51
611.84	46506.44
612.00	46450.27
612.15	46373.03
612.31	46595.38
612.46	46476.02
612.62	46347.29
612.77	46483.04
612.92	46525.17
613.08	46225.58
613.23	46127.28
613.39	46124.94
613.54	46192.81
613.69	46403.46
613.85	46239.62
614.00	46684.33
614.15	46333.24
614.31	46234.94
614.46	46220.90
614.62	46021.95
614.77	46604.75
614.92	46330.90
615.08	46064.08
615.23	46103.87
615.38	46080.47
615.54	46085.15
615.69	46490.06
615.84	46199.83
616.00	46295.80
616.15	46410.48
616.30	46354.31
616.46	45979.82
616.61	46096.85
616.76	46429.21
616.92	45715.34
617.07	46108.55
617.22	45734.07
617.37	45497.67
617.53	45818.33
617.68	45956.42
617.83	46033.66
617.99	46195.15
618.14	46164.73
618.29	45469.59
618.45	45378.31
618.60	45408.73
618.75	45825.35
618.90	45507.04
619.06	45776.20
619.21	45865.14
619.36	46045.36
619.51	45509.38
619.67	45525.76
619.82	45780.88
619.97	45806.62
620.12	45600.66
620.28	45324.47
620.43	45830.03
620.58	45776.20
620.73	45666.19
620.89	45738.75
621.04	45656.83
621.19	45567.89
621.34	45626.40
621.49	45088.08
621.65	45310.43
621.80	45776.20
621.95	45591.30
622.10	45593.64
622.25	45310.43
622.41	45104.46
622.56	45357.24
622.71	45184.04
622.86	45324.47
623.01	45361.92
623.16	44729.98
623.32	44942.97
623.47	45549.17
623.62	45268.30
623.77	45579.59
623.92	45067.02
624.07	44863.39
624.23	45251.92
624.38	45322.13
624.53	45256.60
624.68	44371.88
624.83	44945.31
624.98	44975.73
625.13	44856.37
625.29	44928.92
625.44	45165.32
625.59	45017.86
625.74	45216.81
625.89	44596.57
626.04	44580.18
626.19	44465.50
626.34	44521.67
626.49	44435.07
626.65	44294.64
626.80	44811.90
626.95	44524.01
627.10	44343.79
627.25	44432.73
627.40	44619.97
627.55	44509.97
627.70	44556.78
627.85	44729.98
628.00	44877.43
628.15	44374.22
628.30	44114.42
628.45	43931.86
628.60	43847.60
628.76	44538.05
628.91	43763.34
629.06	44076.97
629.21	44058.24
629.36	43985.69
629.51	43952.92
629.66	44392.94
629.81	44079.31
629.96	44165.91
630.11	44018.46
630.26	44130.80
630.41	43791.42
630.56	43981.01
630.71	44039.52
630.86	43613.54
631.01	43810.15
631.16	43875.68
631.31	43711.84
631.46	43377.15
631.61	43985.69
631.76	44332.09
631.91	43840.57
632.06	44098.03
632.21	43601.84
632.36	44212.72
632.51	43461.41
632.66	44037.18
632.81	43999.73
632.96	43775.04
633.10	43349.06
633.25	43709.50
633.40	43679.08
633.55	43861.64
633.70	43721.21
633.85	43845.26
634.00	43400.55
634.15	42902.02
634.30	43318.64
634.45	43159.48
634.60	43700.14
634.75	43681.42
634.90	43679.08
635.05	43646.31
635.19	42995.64
635.34	43400.55
635.49	43208.63
635.64	43133.73
635.79	43667.37
635.94	42876.27
636.09	43175.86
636.24	43225.01
636.39	43271.82
636.53	43370.13
636.68	42536.90
636.83	42408.17
636.98	42595.41
637.13	42574.34
637.28	42541.58
637.43	42864.57
637.57	42990.96
637.72	42541.58
637.87	42508.81
638.02	42841.17
638.17	42946.49
638.32	43208.63
638.46	42569.66
638.61	42616.47
638.76	42550.94
638.91	42639.88
639.06	42543.92
639.20	42445.62
639.35	42469.02
639.50	42614.13
639.65	42672.65
639.80	42672.65
639.94	42373.06
640.09	42459.66
640.24	42897.34
640.39	41970.49
640.54	42052.41
640.68	42527.53
640.83	42557.96
640.98	42066.45
641.13	42712.44
641.27	42883.30
641.42	42209.22
641.57	42033.68
641.72	42607.11
641.86	42150.71
642.01	41701.32
642.16	41921.34
642.31	41574.94
642.45	41762.18
642.60	41741.11
642.75	42206.88
642.90	41911.97
643.04	41752.82
643.19	42092.19
643.34	41958.78
643.48	41687.28
643.63	41420.46
643.78	41808.99
643.93	42314.55
644.07	41738.77
644.22	42036.02
644.37	41261.30
644.51	41911.97
644.66	41418.12
644.81	41598.34
644.95	41874.52
645.10	41228.54
645.25	41640.47
645.39	41343.22
645.54	41469.61
645.69	40935.97
645.83	41301.09
645.98	41383.01
646.13	41675.58
646.27	41317.48
646.42	41418.12
646.57	41668.56
646.71	41581.96
646.86	41427.48
647.00	41574.94
647.15	41455.57
647.30	40968.74
647.44	40926.61
647.59	41303.43
647.74	41132.57
647.88	40886.82
648.03	41617.07
648.17	41918.99
648.32	41502.38
648.47	41806.65
648.61	40875.12
648.76	41177.04
648.90	41060.02
649.05	40868.09
649.20	41020.23
649.34	41205.13
649.49	41329.18
649.63	41134.92
649.78	40914.90
649.92	40942.99
650.07	41429.82
650.21	41017.89
650.36	41476.63
650.51	40666.81
650.65	40931.29
650.80	41174.70
650.94	40994.48
651.09	40872.78
651.23	40814.26
651.38	40011.46
651.52	40264.24
651.67	40542.76
651.81	40627.02
651.96	40673.83
652.10	40481.91
652.25	40067.63
652.39	40231.47
652.54	40648.08
652.68	40322.75
652.83	40509.99
652.97	41132.57
653.12	40458.50
653.26	40493.61
653.41	40158.91
653.55	40369.56
653.70	40460.84
653.84	40210.40
653.99	40198.70
654.13	40418.71
654.27	40245.51
654.42	39892.09
654.56	40175.30
654.71	40025.50
654.85	40266.58
655.00	40144.87
655.14	40299.34
655.29	40531.06
655.43	40568.51
655.57	40093.38
655.72	39931.88
655.86	40259.55
656.01	39512.92
656.15	39400.58
656.30	39669.74
656.44	40130.83
656.58	40245.51
656.73	39924.86
656.87	40095.72
657.01	39833.58
657.16	39725.91
657.30	39658.04
657.45	39435.69
657.59	39480.16
657.73	39431.01
657.88	40116.78
658.02	39749.32
658.16	39856.98
658.31	39438.03
658.45	39695.49
658.60	39426.32
658.74	39285.89
658.88	39433.35
659.03	38852.89
659.17	38918.43
659.31	38859.91
659.46	38653.95
659.60	38897.36
659.74	38586.07
659.89	39016.73
660.03	38433.94
660.17	39072.90
660.32	38553.30
660.46	38822.47
660.60	38440.96
660.74	38712.46
660.89	38939.49
661.03	38508.83
661.17	38242.01
661.32	38405.85
661.46	38284.14
661.60	38110.94
661.74	38387.13
661.89	38220.95
662.03	38550.96
662.17	38087.54
662.31	37624.11
662.46	38073.49
662.60	38047.75
662.74	37916.68
662.88	37682.62
663.03	37055.36
663.17	37385.38
663.31	37535.17
663.45	37668.58
663.60	38026.68
663.74	37713.05
663.88	37647.52
664.02	37397.08
664.17	37883.91
664.31	37048.34
664.45	37399.42
664.59	37427.51
664.73	37172.39
664.88	37645.18
665.02	37008.55
665.16	37523.47
665.30	37195.79
665.44	37280.05
665.59	36622.36
665.73	37097.49
665.87	36247.88
666.01	36919.61
666.15	37081.11
666.29	37198.13
666.44	36811.95
666.58	36809.61
666.72	36257.24
666.86	36191.70
667.00	36554.49
667.14	36348.52
667.28	36510.02
667.43	36601.30
667.57	36402.35
667.71	35997.44
667.85	36355.54
667.99	36107.44
668.13	35819.56
668.27	35711.89
668.41	35674.45
668.56	35239.11
668.70	35531.67
668.84	35037.82
668.98	35583.16
669.12	35583.16
669.26	35632.32
669.40	35667.42
669.54	35573.80
669.68	35468.48
669.82	35295.28
669.96	34859.94
670.10	34632.91
670.25	34972.28
670.39	34930.16
670.53	35215.70
670.67	34974.63
670.81	35409.96
670.95	34771.00
671.09	34478.43
671.23	34822.49
671.37	34689.08
671.51	34394.17
671.65	34148.42
671.79	34707.80
671.93	34415.24
672.07	34668.02
672.21	34660.99
672.35	34078.20
672.49	34141.39
672.63	34256.08
672.77	33848.83
672.91	34043.09
673.05	33792.65
673.19	34024.37
673.33	34113.31
673.47	33486.04
673.61	33312.84
673.75	33481.36
673.89	33432.21
674.03	33092.83
674.17	32816.65
674.31	33244.97
674.45	33097.52
674.59	32559.19
674.73	33085.81
674.87	32685.58
675.01	32189.39
675.15	32390.67
675.29	32353.23
675.43	32390.67
675.56	32568.55
675.70	32107.47
675.84	32194.07
675.98	31241.47
676.12	32299.39
676.26	32465.57
676.40	31599.57
676.54	31557.44
676.68	31278.92
676.82	31370.20
676.96	31449.78
677.10	31484.89
677.23	31527.02
677.37	31206.36
677.51	30885.71
677.65	31452.12
677.79	31227.43
677.93	31035.50
678.07	30841.24
678.21	30644.63
678.34	30541.65
678.48	30047.80
678.62	30185.89
678.76	30211.64
678.90	30118.01
679.04	30183.55
679.18	30239.72
679.31	29673.31
679.45	29261.38
679.59	29383.09
679.73	29895.66
679.87	29404.15
680.00	29579.69
680.14	29369.04
680.28	29263.72
680.42	29289.46
680.56	28851.78
680.70	29001.58
680.83	28566.24
680.97	28559.22
681.11	28393.04
681.25	28479.64
681.39	28362.61
681.52	28166.01
681.66	28222.18
681.80	28095.79
681.94	27770.46
682.07	27641.73
682.21	28070.04
682.35	27999.83
682.49	27777.48
682.62	27803.22
682.76	27580.87
682.90	27796.20
683.04	27225.11
683.17	27424.06
683.31	27133.83
683.45	27145.53
683.59	26588.49
683.72	27002.76
683.86	26635.30
684.00	26520.61
684.13	26841.26
684.27	26478.48
684.41	25907.39
684.55	26272.51
684.68	26546.36
684.82	25809.09
684.96	26087.61
685.09	26094.63
685.23	25933.14
685.37	26335.71
685.50	26265.49
685.64	25530.56
685.78	25762.28
685.91	25312.89
686.05	25076.50
686.19	24603.71
686.32	25099.90
686.46	24638.82
686.60	24652.86
686.73	24676.27
686.87	24694.99
687.01	24837.76
687.14	24863.51
687.28	24416.47
687.42	24287.74
687.55	24741.80
687.69	24320.51
687.82	24039.64
687.96	24149.65
688.10	24121.56
688.23	23845.38
688.37	24222.20
688.50	23946.02
688.64	24039.64
688.78	23625.37
688.91	23426.42
689.05	23440.47
689.18	23438.12
689.32	22869.37
689.46	22960.66
689.59	22965.34
689.73	22827.24
689.86	22934.91
690.00	22677.45
690.13	22913.84
690.27	22506.59
690.41	22696.17
690.54	22328.71
690.68	22150.83
690.81	22061.89
690.95	22246.79
691.08	22071.25
691.22	21661.66
691.35	21790.39
691.49	21982.31
691.62	21621.87
691.76	21280.15
691.89	21329.30
692.03	21397.18
692.16	21212.28
692.30	21364.41
692.43	21104.61
692.57	20875.24
692.70	20910.35
692.84	21006.31
692.97	20484.37
693.11	20669.27
693.24	20528.84
693.38	20496.07
693.51	20210.53
693.65	19997.54
693.78	19941.36
693.92	19990.52
694.05	20032.65
694.19	19688.59
694.32	20006.90
694.45	20060.73
694.59	19995.20
694.72	19651.14
694.86	19435.81
694.99	19136.22
695.13	19185.37
695.26	19037.92
695.39	19136.22
695.53	18775.78
695.66	18909.19
695.80	18913.87
695.93	19014.51
696.07	18520.66
696.20	18272.56
696.33	18483.21
696.47	18246.82
696.60	18349.80
696.73	18581.51
696.87	18232.77
697.00	18214.05
697.14	18164.90
697.27	17799.77
697.40	17884.03
697.54	18026.81
697.67	17823.18
697.80	18104.04
697.94	17673.39
698.07	17551.68
698.21	17369.12
698.34	17476.78
698.47	17202.94
698.61	17006.33
698.74	16931.44
698.87	16889.31
699.01	16678.66
699.14	16957.18
699.27	16666.95
699.40	16725.47
699.54	16739.51
699.67	16821.43
699.80	16549.93
699.94	16355.66
700.07	16407.16
700.20	16107.57
700.34	16170.76
700.47	16315.87
700.60	16294.81
700.73	16231.62
700.87	15901.60
701.00	15742.44
701.13	15690.95
701.26	15414.77
701.40	15665.21
701.53	15461.58
701.66	15494.35
701.79	15428.81
701.93	15211.14
702.06	15056.67
702.19	15241.57
702.32	15267.31
702.46	15023.90
702.59	15056.67
702.72	15159.65
702.85	14895.17
702.99	14946.66
703.12	14633.03
703.25	14462.17
703.38	14242.16
703.51	14665.80
703.65	14235.14
703.78	14012.79
703.91	14101.73
704.04	13944.91
704.17	13858.31
704.31	14169.60
704.44	13970.66
704.57	13678.09
704.70	13600.85
704.83	13675.75
704.96	13516.59
705.10	13635.96
705.23	13486.17
>>>>>End Processed Spectral Data<<<<<
