SpectraSuite Data File
++++++++++++++++++++++++++++++++++++
Date: Fri Oct 25 11:25:39 EDT 2013
User: price-jones
Dark Spectrum Present: No
Reference Spectrum Present: No
Number of Sampled Component Spectra: 1
Spectrometers: USB2+H05261
Integration Time (usec): 100000 (USB2+H05261)
Spectra Averaged: 1 (USB2+H05261)
Boxcar Smoothing: 0 (USB2+H05261)
Correct for Electrical Dark: No (USB2+H05261)
Strobe/Lamp Enabled: No (USB2+H05261)
Correct for Detector Non-linearity: No (USB2+H05261)
Correct for Stray Light: No (USB2+H05261)
Number of Pixels in Processed Spectrum: 2048
>>>>>Begin Processed Spectral Data<<<<<
365.73	285.55
365.92	285.55
366.12	285.55
366.32	145.11
366.52	100.64
366.72	138.09
366.91	107.66
367.11	180.22
367.31	102.98
367.51	30.43
367.70	189.58
367.90	121.71
368.10	131.07
368.30	170.86
368.49	142.77
368.69	95.96
368.89	196.60
369.09	184.90
369.28	191.92
369.48	107.66
369.68	194.26
369.87	217.67
370.07	215.33
370.27	292.57
370.47	339.38
370.66	587.47
370.86	671.73
371.06	657.69
371.25	678.76
371.45	674.07
371.65	711.52
371.84	695.14
372.04	645.99
372.24	655.35
372.44	629.60
372.63	772.38
372.83	737.27
373.03	753.65
373.22	755.99
373.42	760.67
373.62	786.42
373.81	784.08
374.01	788.76
374.21	802.80
374.40	849.61
374.60	784.08
374.79	805.14
374.99	795.78
375.19	812.17
375.38	870.68
375.58	905.79
375.78	887.06
375.97	866.00
376.17	882.38
376.37	821.53
376.56	896.43
376.76	802.80
376.95	840.25
377.15	945.58
377.35	887.06
377.54	847.27
377.74	901.11
377.93	870.68
378.13	936.21
378.33	1053.24
378.52	931.53
378.72	933.87
378.91	945.58
379.11	931.53
379.31	929.19
379.50	922.17
379.70	978.34
379.89	954.94
380.09	936.21
380.28	940.90
380.48	1006.43
380.68	966.64
380.87	1027.50
381.07	983.02
381.26	1015.79
381.46	954.94
381.65	1008.77
381.85	1083.67
382.04	1109.41
382.24	1071.97
382.43	1048.56
382.63	1069.62
382.83	1032.18
383.02	1083.67
383.22	1179.63
383.41	1093.03
383.61	1041.54
383.80	1139.84
384.00	1128.14
384.19	1104.73
384.39	1123.46
384.58	1078.99
384.78	1107.07
384.97	1146.86
385.17	1071.97
385.36	1198.35
385.56	1109.41
385.75	1146.86
385.95	1151.54
386.14	1135.16
386.34	1245.16
386.53	1203.04
386.72	1203.04
386.92	1294.32
387.11	1277.93
387.31	1238.14
387.50	1254.53
387.70	1158.57
387.89	1249.85
388.09	1284.95
388.28	1315.38
388.48	1345.81
388.67	1270.91
388.86	1303.68
389.06	1348.15
389.25	1334.11
389.45	1341.13
389.64	1294.32
389.84	1359.85
390.03	1357.51
390.22	1369.21
390.42	1425.39
390.61	1451.13
390.81	1296.66
391.00	1383.26
391.19	1416.02
391.39	1467.52
391.58	1446.45
391.78	1453.47
391.97	1479.22
392.16	1453.47
392.36	1509.65
392.55	1497.94
392.75	1474.54
392.94	1495.60
393.13	1519.01
393.33	1497.94
393.52	1575.18
393.71	1591.56
393.91	1563.48
394.10	1488.58
394.29	1528.37
394.49	1589.22
394.68	1626.67
394.88	1584.54
395.07	1664.12
395.26	1680.50
395.46	1654.76
395.65	1750.72
395.84	1746.04
396.04	1760.08
396.23	1678.16
396.42	1769.44
396.62	1783.49
396.81	1834.98
397.00	1776.47
397.19	1858.39
397.39	1802.21
397.58	1804.55
397.77	1685.19
397.97	1816.26
398.16	1886.47
398.35	1842.00
398.55	1813.92
398.74	1851.36
398.93	1909.88
399.12	1900.52
399.32	1865.41
399.51	2043.29
399.70	1912.22
399.90	1966.05
400.09	2066.69
400.28	2073.71
400.47	2029.24
400.67	2099.46
400.86	2066.69
401.05	2019.88
401.24	2136.91
401.44	2200.10
401.63	2104.14
401.82	2050.31
402.01	2057.33
402.21	2190.74
402.40	2232.87
402.59	2134.57
402.78	2251.60
402.97	2326.49
403.17	2258.62
403.36	2260.96
403.55	2317.13
403.74	2260.96
403.93	2267.98
404.13	2382.67
404.32	2289.04
404.51	2326.49
404.70	2377.98
404.89	2431.82
405.09	2590.97
405.28	2492.67
405.47	2420.11
405.66	2600.34
405.85	2490.33
406.05	2553.52
406.24	2541.82
406.43	2532.46
406.62	2696.30
406.81	2656.51
407.00	2497.35
407.20	2619.06
407.39	2630.76
407.58	2693.96
407.77	2626.08
407.96	2815.66
408.15	2764.17
408.34	2649.49
408.54	2841.41
408.73	2778.22
408.92	2855.45
409.11	2818.00
409.30	2956.10
409.49	2846.09
409.68	2874.18
409.87	2911.63
410.07	3084.83
410.26	3035.67
410.45	2918.65
410.64	2906.95
410.83	3115.25
411.02	2939.71
411.21	3094.19
411.40	3105.89
411.59	3279.09
411.78	3314.20
411.98	3166.74
412.17	3288.45
412.36	3211.22
412.55	3255.69
412.74	3499.10
412.93	3332.92
413.12	3283.77
413.31	3475.70
413.50	3405.48
413.69	3375.05
413.88	3559.95
414.07	3585.70
414.26	3641.87
414.45	3691.02
414.64	3660.60
414.83	3705.07
415.02	3833.80
415.22	3740.18
415.41	3929.76
415.60	3936.78
415.79	3995.29
415.98	3826.78
416.17	4058.49
416.36	3925.08
416.55	3878.27
416.74	4074.87
416.93	4086.58
417.12	4053.81
417.31	4114.66
417.50	4046.79
417.69	4163.81
417.88	4252.75
418.07	4262.12
418.26	4372.12
418.45	4358.08
418.64	4418.93
418.83	4409.57
419.02	4367.44
419.21	4514.89
419.39	4528.94
419.58	4381.48
419.77	4365.10
419.96	4451.70
420.15	4725.54
420.34	4360.42
420.53	4690.43
420.72	4601.49
420.91	4727.88
421.10	4758.31
421.29	4709.16
421.48	4589.79
421.67	4697.46
421.86	4753.63
422.05	4741.93
422.24	4793.42
422.43	4788.74
422.61	4880.02
422.80	4896.40
422.99	4936.19
423.18	5004.07
423.37	4826.18
423.56	4997.04
423.75	4805.12
423.94	4901.08
424.13	4601.49
424.32	4786.40
424.50	5083.64
424.69	5195.99
424.88	4884.70
425.07	5055.56
425.26	4931.51
425.45	4880.02
425.64	4947.89
425.83	4990.02
426.01	5259.18
426.20	5109.39
426.39	5149.18
426.58	5088.32
426.77	5062.58
426.96	5104.71
427.15	4936.19
427.33	5188.97
427.52	5156.20
427.71	5221.74
427.90	5184.29
428.09	5254.50
428.28	5296.63
428.46	5198.33
428.65	5207.69
428.84	5593.88
429.03	5418.34
429.22	5423.02
429.40	5472.17
429.59	5547.07
429.78	5287.27
429.97	5298.97
430.16	5390.25
430.34	5582.18
430.53	5706.23
430.72	5650.05
430.91	5678.14
431.10	5680.48
431.28	5687.50
431.47	5858.36
431.66	5757.72
431.85	5809.21
432.03	5738.99
432.22	5984.75
432.41	5771.76
432.60	5937.94
432.79	5755.38
432.97	5881.77
433.16	6052.63
433.35	5902.83
433.54	6008.16
433.72	6143.91
433.91	6183.70
434.10	6059.65
434.28	6211.78
434.47	6164.97
434.66	6157.95
434.85	6143.91
435.03	6279.66
435.22	6134.54
435.41	6445.84
435.59	6534.78
435.78	6462.22
435.97	6443.49
436.16	6506.69
436.34	6267.95
436.53	6319.45
436.72	6597.97
436.90	6408.39
437.09	6691.59
437.28	6597.97
437.46	6619.04
437.65	6698.61
437.84	6736.06
438.02	6654.14
438.21	6670.53
438.40	6722.02
438.58	6810.96
438.77	7129.27
438.96	6946.71
439.14	7084.80
439.33	7187.79
439.52	7117.57
439.70	7274.38
439.89	7150.34
440.08	7283.75
440.26	7309.49
440.45	7272.04
440.63	7573.97
440.82	7566.95
441.01	7391.41
441.19	7543.55
441.38	7571.63
441.57	7681.64
441.75	7873.56
441.94	7906.33
442.12	7831.43
442.31	7976.55
442.50	8112.30
442.68	7889.95
442.87	7915.69
443.05	8135.70
443.24	8315.92
443.43	8116.98
443.61	8121.66
443.80	8367.42
443.98	7747.17
444.17	7702.70
444.35	8152.09
444.54	8411.89
444.73	8259.75
444.91	8205.92
445.10	8332.31
445.28	8458.70
445.47	8065.49
445.65	8269.11
445.84	8659.98
446.02	8383.80
446.21	8269.11
446.39	8269.11
446.58	8461.04
446.77	8421.25
446.95	8393.16
447.14	8592.11
447.32	8601.47
447.51	8650.62
447.69	8374.44
447.88	8557.00
448.06	8545.30
448.25	8531.25
448.43	8596.79
448.62	8582.74
448.80	8538.27
448.99	8690.41
449.17	8760.63
449.36	8542.96
449.54	8734.88
449.73	8978.30
449.91	8898.72
450.10	8931.48
450.28	8926.80
450.46	9104.68
450.65	9144.47
450.83	9125.75
451.02	9043.83
451.20	9202.99
451.39	9228.73
451.57	9085.96
451.76	8903.40
451.94	9071.92
452.13	9193.62
452.31	9317.67
452.49	9181.92
452.68	9387.89
452.86	9268.52
453.05	9303.63
453.23	9439.38
453.42	9437.04
453.60	9266.18
453.78	9488.53
453.97	9315.33
454.15	9556.41
454.34	9493.21
454.52	9638.33
454.70	9495.55
454.89	9645.35
455.07	9788.12
455.26	9631.30
455.44	9832.59
455.62	9839.61
455.81	9940.26
455.99	10094.73
456.17	9980.04
456.36	10073.67
456.54	10141.54
456.73	10394.32
456.91	10466.88
457.09	10382.62
457.28	10504.32
457.46	10438.79
457.64	10506.66
457.83	10485.60
458.01	10178.99
458.19	10862.43
458.38	10532.41
458.56	10721.99
458.74	10958.39
458.93	10714.97
459.11	10567.52
459.29	10429.43
459.48	10780.51
459.66	10897.53
459.84	10895.19
460.03	10925.62
460.21	10843.70
460.39	10927.96
460.57	10911.58
460.76	11201.80
460.94	11077.76
461.12	11185.42
461.31	10995.84
461.49	11047.33
461.67	11047.33
461.85	11417.13
462.04	11241.59
462.22	11962.48
462.40	11548.20
462.59	11445.22
462.77	11412.45
462.95	11452.24
463.13	11604.38
463.32	11440.54
463.50	11625.44
463.68	11683.95
463.86	11875.88
464.05	11548.20
464.23	11751.83
464.41	11985.88
464.59	11651.19
464.78	12243.34
464.96	12009.29
465.14	11990.56
465.32	12077.16
465.50	12128.66
465.69	12114.61
465.87	12430.59
466.05	12070.14
466.23	12306.54
466.41	12257.39
466.60	12430.59
466.78	12049.08
466.96	12222.28
467.14	12327.60
467.32	12233.98
467.51	12575.70
467.69	12152.06
467.87	12531.23
468.05	12465.69
468.23	12578.04
468.41	12519.53
468.60	12411.86
468.78	12615.49
468.96	12575.70
469.14	12776.98
469.32	12945.50
469.50	12315.90
469.69	12814.43
469.87	13018.06
470.05	12973.59
470.23	13020.40
470.41	13008.70
470.59	13149.13
470.77	13263.82
470.95	13305.95
471.14	13614.90
471.32	13275.52
471.50	13532.98
471.68	13404.25
471.86	13540.00
472.04	13624.26
472.22	13926.19
472.40	13678.09
472.58	13673.41
472.77	13830.23
472.95	13855.97
473.13	14658.78
473.31	14181.31
473.49	13944.91
473.67	14017.47
473.85	14033.85
474.03	14525.36
474.21	14516.00
474.39	14700.90
474.57	14513.66
474.75	14530.05
474.93	15007.52
475.12	14757.08
475.30	14970.07
475.48	14864.74
475.66	15194.76
475.84	14817.93
476.02	15330.51
476.20	15414.77
476.38	15590.31
476.56	15765.85
476.74	15784.57
476.92	15964.79
477.10	15625.42
477.28	16269.06
477.46	16187.14
477.64	16065.44
477.82	16507.80
478.00	16837.81
478.18	16931.44
478.36	16636.53
478.54	17191.23
478.72	17104.64
478.90	17186.55
479.08	17226.34
479.26	17776.37
479.44	17671.04
479.62	18040.85
479.80	17809.14
479.98	18017.44
480.16	18422.36
480.34	18024.47
480.52	18122.77
480.70	18644.71
480.88	18230.43
481.06	18675.13
481.24	18745.35
481.41	18998.13
481.59	18995.79
481.77	19449.85
481.95	19653.48
482.13	19641.78
482.31	19761.14
482.49	20271.38
482.67	20025.62
482.85	20472.67
483.03	20603.74
483.21	20706.72
483.39	20823.75
483.57	20666.93
483.74	21027.37
483.92	21305.90
484.10	20989.92
484.28	21729.53
484.46	21986.99
484.64	22319.35
484.82	21731.87
485.00	22324.03
485.18	22527.66
485.35	22916.19
485.53	22609.58
485.71	22712.56
485.89	23536.43
486.07	23236.84
486.25	23239.18
486.43	23644.09
486.61	23566.85
486.78	23946.02
486.96	23960.06
487.14	24306.46
487.32	24664.57
487.50	24563.92
487.68	24922.02
487.85	24968.84
488.03	25305.87
488.21	25458.01
488.39	25326.94
488.57	26031.44
488.75	26040.80
488.92	26396.56
489.10	26647.00
489.28	26829.56
489.46	27019.14
489.64	26768.71
489.81	27482.57
489.99	27545.76
490.17	27704.92
490.35	27733.01
490.53	27936.63
490.70	28507.72
490.88	28409.42
491.06	28924.34
491.24	28762.84
491.41	28690.29
491.59	29181.80
491.77	28875.19
491.95	29383.09
492.13	29975.24
492.30	29766.93
492.48	29848.85
492.66	30305.26
492.84	30260.79
493.01	30581.44
493.19	30836.56
493.37	30855.28
493.54	30785.07
493.72	31229.77
493.90	31386.58
494.08	32011.51
494.25	32077.04
494.43	31608.93
494.61	32187.05
494.79	32334.50
494.96	32304.07
495.14	32767.50
495.32	32910.27
495.49	33109.22
495.67	32921.98
495.85	33488.38
496.02	33378.38
496.20	33972.88
496.38	34110.97
496.55	33909.68
496.73	34487.79
496.91	34902.07
497.09	34632.91
497.26	34450.35
497.44	34960.58
497.62	34981.65
497.79	35812.54
497.97	35393.58
498.14	35810.20
498.32	35988.08
498.50	36154.26
498.67	36109.78
498.85	36392.99
499.03	36519.38
499.20	36395.33
499.38	36914.93
499.56	36811.95
499.73	36947.70
499.91	37202.82
500.08	37773.91
500.26	37560.92
500.44	37603.05
500.61	37823.06
500.79	37240.26
500.97	38291.16
501.14	38227.97
501.32	38471.39
501.49	38192.86
501.67	38813.10
501.84	39079.92
502.02	38827.15
502.20	38913.75
502.37	39075.24
502.55	39180.57
502.72	39014.39
502.90	39662.72
503.07	39367.81
503.25	39615.91
503.43	39299.94
503.60	40114.44
503.78	39775.06
503.95	39674.42
504.13	40542.76
504.30	40545.10
504.48	40105.08
504.65	40795.54
504.83	41219.17
505.01	41106.83
505.18	40781.49
505.36	41256.62
505.53	41113.85
505.71	41610.04
505.88	41654.51
506.06	41390.03
506.23	41914.31
506.41	41390.03
506.58	42124.96
506.76	41958.78
506.93	42436.25
507.11	42061.77
507.28	42749.88
507.46	42583.71
507.63	42506.47
507.81	42553.28
507.98	42576.69
508.16	42733.50
508.33	43117.35
508.50	42916.06
508.68	43339.70
508.85	43667.37
509.03	43777.38
509.20	44055.90
509.38	44011.43
509.55	44360.17
509.73	44467.84
509.90	44421.03
510.08	44362.51
510.25	44437.41
510.42	44671.46
510.60	44964.03
510.77	45118.51
510.95	45261.28
511.12	44926.58
511.30	44933.60
511.47	44989.78
511.64	45359.58
511.82	45502.35
511.99	45219.15
512.17	45455.54
512.34	46005.57
512.51	46494.74
512.69	45979.82
512.86	46241.96
513.04	46445.59
513.21	46611.77
513.38	46595.38
513.56	46878.59
513.73	46391.76
513.90	46724.11
514.08	46384.74
514.25	46827.10
514.43	47325.63
514.60	47330.31
514.77	46740.50
514.95	47519.90
515.12	47267.12
515.29	47524.58
515.47	47997.37
515.64	47955.24
515.81	47665.01
515.99	47917.79
516.16	47676.71
516.33	48002.05
516.51	48413.98
516.68	48603.56
516.85	48399.94
517.03	48872.73
517.20	48633.99
517.37	48676.12
517.54	48823.58
517.72	48678.46
517.89	48786.13
518.06	48935.92
518.24	49251.89
518.41	49174.66
518.58	49020.18
518.75	49502.33
518.93	49127.84
519.10	49223.81
519.27	49291.68
519.45	49619.36
519.62	50127.25
519.79	49748.09
519.96	49743.41
520.14	50045.33
520.31	50230.24
520.48	50511.10
520.65	50267.69
520.83	50225.56
521.00	50581.32
521.17	50597.70
521.34	50501.74
521.52	50916.01
521.69	50501.74
521.86	51063.47
522.03	51187.52
522.20	50916.01
522.38	51269.43
522.55	51428.59
522.72	50997.93
522.89	51175.81
523.07	51681.37
523.24	51503.49
523.41	51758.61
523.58	51164.11
523.75	51817.12
523.92	51377.10
524.10	51756.27
524.27	51709.46
524.44	51688.39
524.61	51854.57
524.78	51725.84
524.96	51845.21
525.13	52247.78
525.30	52470.13
525.47	52325.02
525.64	52271.18
525.81	52463.11
525.98	52371.83
526.16	52481.83
526.33	52514.60
526.50	52800.15
526.67	52914.83
526.84	52947.60
527.01	52509.92
527.18	52720.57
527.36	52816.53
527.53	52861.00
527.70	53010.79
527.87	53160.59
528.04	53036.54
528.21	53549.12
528.38	53240.17
528.55	53488.26
528.72	53399.32
528.89	53399.32
529.07	53291.66
529.24	53212.08
529.41	53476.56
529.58	53448.47
529.75	53572.52
529.92	53616.99
530.09	53722.32
530.26	53476.56
530.43	53727.00
530.60	53736.36
530.77	53848.71
530.94	53734.02
531.11	53932.96
531.28	53982.12
531.46	54052.33
531.63	54316.81
531.80	54057.01
531.97	54398.73
532.14	54415.11
532.31	54178.72
532.48	54511.08
532.65	54658.53
532.82	54117.87
532.99	54681.94
533.16	54302.77
533.33	54688.96
533.50	54782.58
533.67	54714.70
533.84	54595.34
534.01	54784.92
534.18	54937.05
534.35	54932.37
534.52	54932.37
534.69	55227.28
534.86	55238.98
535.03	54873.86
535.20	55054.08
535.37	55145.36
535.54	55533.89
535.71	55051.74
535.88	55381.76
536.05	55454.31
536.22	55526.87
536.38	55295.16
536.55	55512.83
536.72	55306.86
536.89	55435.59
537.06	55475.38
537.23	55622.83
537.40	55398.14
537.57	55456.65
537.74	55662.62
537.91	55959.87
538.08	55798.37
538.25	55573.68
538.42	55707.09
538.59	56390.53
538.75	55587.72
538.92	56055.83
539.09	56086.26
539.26	56065.19
539.43	56140.09
539.60	56074.55
539.77	55957.53
539.94	56296.91
540.11	55992.64
540.28	56360.10
540.44	56439.68
540.61	56324.99
540.78	56189.24
540.95	56451.38
541.12	56341.38
541.29	56432.66
541.46	56385.85
541.62	56603.52
541.79	56484.15
541.96	56374.14
542.13	56376.48
542.30	56479.47
542.47	56699.48
542.63	56666.71
542.80	56769.69
542.97	56797.78
543.14	56970.98
543.31	57073.96
543.48	57228.44
543.64	57364.19
543.81	57066.94
543.98	57284.61
544.15	57539.73
544.32	57359.51
544.48	57483.56
544.65	57123.11
544.82	57270.57
544.99	57146.52
545.16	57368.87
545.32	57247.16
545.49	57607.61
545.66	57602.92
545.83	57551.43
546.00	57542.07
546.16	57528.03
546.33	57502.28
546.50	57521.01
546.67	57556.11
546.83	57401.64
547.00	57689.52
547.17	57755.06
547.34	57829.96
547.50	57970.39
547.67	57904.85
547.84	57932.94
548.00	58040.60
548.17	58199.76
548.34	57944.64
548.51	58358.92
548.67	58124.86
548.84	57733.99
549.01	57888.47
549.18	58124.86
549.34	58298.06
549.51	58429.13
549.68	58314.45
549.84	58127.20
550.01	58375.30
550.18	58138.91
550.34	58265.30
550.51	58181.04
550.68	58157.63
550.84	58143.59
551.01	58429.13
551.18	58412.75
551.34	58408.07
551.51	58356.58
551.68	58403.39
551.84	58461.90
552.01	58234.87
552.18	58394.03
552.34	58302.74
552.51	58520.41
552.68	58316.79
552.84	58440.84
553.01	58471.26
553.18	58976.82
553.34	58820.00
553.51	58534.46
553.67	58787.24
553.84	58869.15
554.01	58791.92
554.17	58960.44
554.34	58845.75
554.51	58897.24
554.67	58922.99
554.84	59025.97
555.00	58646.80
555.17	58808.30
555.33	58939.37
555.50	58843.41
555.67	58908.94
555.83	58880.86
556.00	59119.59
556.16	59370.03
556.33	59093.85
556.50	59096.19
556.66	59318.54
556.83	59091.51
556.99	59238.96
557.16	59234.28
557.32	59451.95
557.49	59585.36
557.65	59297.47
557.82	59206.19
557.98	59175.76
558.15	59327.90
558.32	59276.41
558.48	59313.86
558.65	59604.08
558.81	59412.16
558.98	59545.57
559.14	59442.59
559.31	59505.78
559.47	59669.62
559.64	59447.27
559.80	59552.59
559.97	59587.70
560.13	59585.36
560.30	59714.09
560.46	59505.78
560.63	59711.75
560.79	59662.60
560.96	59669.62
561.12	59681.32
561.29	59906.01
561.45	59568.97
561.61	59824.09
561.78	59648.55
561.94	59594.72
562.11	59648.55
562.27	59852.18
562.44	59732.81
562.60	59894.31
562.77	59854.52
562.93	59716.43
563.10	59870.90
563.26	59840.48
563.42	60081.55
563.59	59882.61
563.75	59826.43
563.92	59990.27
564.08	59889.63
564.24	59922.40
564.41	60074.53
564.57	59943.46
564.74	60104.96
564.90	59863.88
565.07	60107.30
565.23	60016.02
565.39	60023.04
565.56	59945.80
565.72	60114.32
565.88	60006.65
566.05	59994.95
566.21	59929.42
566.38	60060.49
566.54	59936.44
566.70	60257.09
566.87	60254.75
567.03	60172.83
567.19	60388.16
567.36	60250.07
567.52	60067.51
567.68	60458.38
567.85	60313.26
568.01	60285.18
568.17	60055.81
568.34	60196.24
568.50	60189.22
568.66	60420.93
568.83	60355.39
568.99	60287.52
569.15	60193.90
569.32	60385.82
569.48	60336.67
569.64	60299.22
569.81	60430.29
569.97	60306.24
570.13	60285.18
570.30	60360.08
570.46	60420.93
570.62	60390.50
570.78	60294.54
570.95	60299.22
571.11	60687.75
571.27	60427.95
571.43	60252.41
571.60	60336.67
571.76	60474.76
571.92	60301.56
572.09	60542.64
572.25	60210.28
572.41	60336.67
572.57	60441.99
572.74	60676.05
572.90	60521.57
573.06	60676.05
573.22	60416.25
573.38	60465.40
573.55	60385.82
573.71	60676.05
573.87	60535.62
574.03	60420.93
574.20	60568.38
574.36	60491.15
574.52	60673.71
574.68	60559.02
574.84	60673.71
575.01	60708.82
575.17	60739.24
575.33	60697.11
575.49	60537.96
575.65	60640.94
575.82	60750.94
575.98	60739.24
576.14	60889.04
576.30	60931.17
576.46	60552.00
576.62	60683.07
576.79	60500.51
576.95	60591.79
577.11	60643.28
577.27	60753.29
577.43	60757.97
577.59	60718.18
577.75	60638.60
577.92	60453.70
578.08	60776.69
578.24	60823.50
578.40	60793.07
578.56	60905.42
578.72	60746.26
578.88	60865.63
579.04	60966.27
579.21	60849.25
579.37	61010.74
579.53	60748.60
579.69	60692.43
579.85	60612.85
580.01	60601.15
580.17	60678.39
580.33	60846.91
580.49	61038.83
580.65	60933.51
580.82	60774.35
580.98	60828.18
581.14	60804.78
581.30	60804.78
581.46	60931.17
581.62	60797.76
581.78	60830.52
581.94	60837.54
582.10	60956.91
582.26	60989.68
582.42	60690.09
582.58	60832.86
582.74	60828.18
582.90	60973.30
583.06	60739.24
583.22	60687.75
583.38	60832.86
583.54	61027.13
583.70	60779.03
583.86	60921.80
584.02	60837.54
584.18	60772.01
584.34	60870.31
584.50	60959.25
584.66	60659.66
584.82	60451.36
584.98	61066.92
585.14	61155.86
585.30	60956.91
585.46	60800.10
585.62	60804.78
585.78	60917.12
585.94	60720.52
586.10	60844.57
586.26	61113.73
586.42	60919.46
586.58	61076.28
586.74	60828.18
586.90	60814.14
587.06	60856.27
587.22	60949.89
587.38	60884.36
587.54	60938.19
587.70	61116.07
587.86	60889.04
588.02	60985.00
588.18	61104.37
588.34	61120.75
588.49	61029.47
588.65	61043.51
588.81	60996.70
588.97	61134.79
589.13	61083.30
589.29	61141.81
589.45	61207.35
589.61	61228.41
589.77	61338.42
589.93	61146.50
590.08	61197.99
590.24	61389.91
590.40	61535.02
590.56	61464.81
590.72	61556.09
590.88	61043.51
591.04	61237.78
591.20	61410.98
591.35	61298.63
591.51	61469.49
591.67	61361.82
591.83	61446.08
591.99	61317.35
592.15	61087.98
592.31	61347.78
592.46	61219.05
592.62	61275.22
592.78	61286.93
592.94	61492.89
593.10	61432.04
593.26	61436.72
593.41	61331.40
593.57	61293.95
593.73	61401.61
593.89	61694.18
594.05	61352.46
594.20	61249.48
594.36	61399.27
594.52	61516.30
594.68	61216.71
594.84	61343.10
594.99	61495.24
595.15	61279.91
595.31	61359.48
595.47	61413.32
595.62	61265.86
595.78	61300.97
595.94	61638.01
596.10	61640.35
596.25	61364.17
596.41	61523.32
596.57	61418.00
596.73	61609.92
596.88	61453.11
597.04	61509.28
597.20	61509.28
597.36	61623.96
597.51	61614.60
597.67	61340.76
597.83	61279.91
597.99	61584.18
598.14	61609.92
598.30	61553.75
598.46	61614.60
598.61	61387.57
598.77	61633.33
598.93	61553.75
599.09	61567.79
599.24	61724.61
599.40	61743.33
599.56	61530.34
599.71	61743.33
599.87	61799.50
600.03	61661.41
600.18	61616.94
600.34	61368.85
600.50	61609.92
600.65	61528.00
600.81	61675.46
600.97	61691.84
601.12	61581.84
601.28	61656.73
601.44	61331.40
601.59	61764.40
601.75	61549.07
601.91	61862.70
602.06	61666.09
602.22	61769.08
602.37	61708.22
602.53	61598.22
602.69	61717.59
602.84	61520.98
603.00	61535.02
603.16	61656.73
603.31	61689.50
603.47	61689.50
603.62	61513.96
603.78	61661.41
603.94	61621.62
604.09	61808.87
604.25	61677.80
604.40	61385.23
604.56	61736.31
604.71	61759.72
604.87	61715.25
605.03	61738.65
605.18	61698.86
605.34	61628.65
605.49	61598.22
605.65	61701.20
605.80	61572.47
605.96	61855.68
606.12	61773.76
606.27	61752.69
606.43	61677.80
606.58	61649.71
606.74	61638.01
606.89	61783.12
607.05	61628.65
607.20	61757.38
607.36	61574.81
607.51	61663.75
607.67	61455.45
607.82	61401.61
607.98	61600.56
608.13	61666.09
608.29	61570.13
608.44	61586.52
608.60	61511.62
608.75	61666.09
608.91	61565.45
609.06	61427.36
609.22	61668.44
609.37	61425.02
609.53	61577.15
609.68	61485.87
609.84	61387.57
609.99	61595.88
610.15	61703.54
610.30	61623.96
610.46	61649.71
610.61	61546.73
610.76	61602.90
610.92	61499.92
611.07	61544.39
611.23	61410.98
611.38	61546.73
611.54	61415.66
611.69	61432.04
611.84	61574.81
612.00	61677.80
612.15	61401.61
612.31	61453.11
612.46	61399.27
612.62	61640.35
612.77	61420.34
612.92	61464.81
613.08	61549.07
613.23	61537.36
613.39	61186.28
613.54	61160.54
613.69	61462.47
613.85	61485.87
614.00	61485.87
614.15	61490.55
614.31	61324.38
614.46	61202.67
614.62	61499.92
614.77	61329.06
614.92	61282.25
615.08	61401.61
615.23	61190.97
615.38	61167.56
615.54	61268.20
615.69	61237.78
615.84	61282.25
616.00	61240.12
616.15	61385.23
616.30	61422.68
616.46	61197.99
616.61	61083.30
616.76	61242.46
616.92	61057.56
617.07	61305.65
617.22	61132.45
617.37	61130.11
617.53	61284.59
617.68	61195.65
617.83	61120.75
617.99	61062.24
618.14	61132.45
618.29	61237.78
618.45	60877.33
618.60	61141.81
618.75	60942.87
618.90	61043.51
619.06	61134.79
619.21	61151.18
619.36	61394.59
619.51	61097.34
619.67	61020.11
619.82	60956.91
619.97	61062.24
620.12	60919.46
620.28	61076.28
620.43	61017.77
620.58	61125.43
620.73	60694.77
620.89	60982.66
621.04	61048.19
621.19	60940.53
621.34	60914.78
621.49	60720.52
621.65	61066.92
621.80	60959.25
621.95	60523.91
622.10	60867.97
622.25	60963.93
622.41	60823.50
622.56	60594.13
622.71	60860.95
622.86	60481.78
623.01	60610.51
623.16	60701.79
623.32	60896.06
623.47	60701.79
623.62	60804.78
623.77	60561.36
623.92	60760.31
624.07	60786.05
624.23	60786.05
624.38	60612.85
624.53	60563.70
624.68	60544.98
624.83	60860.95
624.98	60568.38
625.13	60470.08
625.29	60570.72
625.44	60591.79
625.59	60601.15
625.74	60430.29
625.89	60238.37
626.04	60303.90
626.19	60287.52
626.34	60355.39
626.49	60315.61
626.65	60257.09
626.80	60521.57
626.95	60287.52
627.10	60268.79
627.25	60154.11
627.40	60395.18
627.55	60252.41
627.70	60210.28
627.85	60097.94
628.00	60214.96
628.15	60308.58
628.30	60306.24
628.45	60086.23
628.60	60184.54
628.76	60210.28
628.91	60186.88
629.06	60100.28
629.21	60198.58
629.36	60191.56
629.51	59980.91
629.66	60046.44
629.81	59980.91
629.96	59983.25
630.11	60037.08
630.26	60100.28
630.41	60074.53
630.56	59856.86
630.71	59971.55
630.86	59920.05
631.01	59875.58
631.16	59985.59
631.31	59903.67
631.46	59592.38
631.61	59948.14
631.76	60076.87
631.91	59955.16
632.06	59943.46
632.21	59863.88
632.36	59751.54
632.51	59494.08
632.66	59779.62
632.81	59784.30
632.96	59955.16
633.10	59737.49
633.25	59746.86
633.40	59915.37
633.55	59650.89
633.70	59723.45
633.85	59292.79
634.00	59597.06
634.15	59639.19
634.30	59430.88
634.45	59796.01
634.60	59676.64
634.75	59718.77
634.90	59456.63
635.05	59480.03
635.19	59625.15
635.34	59690.68
635.49	59470.67
635.64	59688.34
635.79	59590.04
635.94	59559.61
636.09	59536.21
636.24	59367.69
636.39	59414.50
636.53	59363.01
636.68	59365.35
636.83	59484.72
636.98	59648.55
637.13	59386.41
637.28	59463.65
637.43	59536.21
637.57	59461.31
637.72	59210.87
637.87	59253.00
638.02	59299.81
638.17	59360.67
638.32	59164.06
638.46	59185.13
638.61	59508.12
638.76	59447.27
638.91	59004.91
639.06	59110.23
639.20	59157.04
639.35	58894.90
639.50	59147.68
639.65	59075.12
639.80	59203.85
639.94	59061.08
640.09	59091.51
640.24	59040.01
640.39	59056.40
640.54	58972.14
640.68	59035.33
640.83	58834.05
640.98	59028.31
641.13	58752.13
641.27	59224.92
641.42	58937.03
641.57	59021.29
641.72	58913.62
641.86	59018.95
642.01	58590.63
642.16	58878.52
642.31	58766.17
642.45	58918.31
642.60	58756.81
642.75	59011.93
642.90	58965.12
643.04	58700.64
643.19	58787.24
643.34	58742.77
643.48	58901.92
643.63	58777.87
643.78	58607.01
643.93	58691.27
644.07	58677.23
644.22	58515.73
644.37	58335.51
644.51	58454.88
644.66	58691.27
644.81	58672.55
644.95	58578.93
645.10	58361.26
645.25	58532.12
645.39	58389.34
645.54	58492.33
645.69	58291.04
645.83	58637.44
645.98	58508.71
646.13	58541.48
646.27	58349.56
646.42	58550.84
646.57	58557.86
646.71	58260.62
646.86	58471.26
647.00	58508.71
647.15	58494.67
647.30	58515.73
647.44	58199.76
647.59	58408.07
647.74	58412.75
647.88	58319.13
648.03	58546.16
648.17	58447.86
648.32	58047.63
648.47	58347.21
648.61	58230.19
648.76	58269.98
648.90	58218.49
649.05	58024.22
649.20	58176.36
649.34	58183.38
649.49	58323.81
649.63	58267.64
649.78	58370.62
649.92	58047.63
650.07	58379.98
650.21	58157.63
650.36	58108.48
650.51	57932.94
650.65	58248.91
650.80	58192.74
650.94	57841.66
651.09	57851.02
651.23	57628.67
651.38	57928.26
651.52	57661.44
651.67	57893.15
651.81	57829.96
651.96	57869.75
652.10	57872.09
652.25	57689.52
652.39	57792.51
652.54	57757.40
652.68	57392.28
652.83	57818.25
652.97	57748.04
653.12	57715.27
653.26	57600.58
653.41	57834.64
653.55	57584.20
653.70	57776.12
653.84	57757.40
653.99	57518.67
654.13	57460.15
654.27	57551.43
654.42	57701.23
654.56	57420.36
654.71	57619.31
654.85	57832.30
655.00	57748.04
655.14	57436.75
655.29	57195.67
655.43	57584.20
655.57	57350.15
655.72	57429.72
655.86	57567.82
656.01	57279.93
656.15	57530.37
656.30	57340.78
656.44	57701.23
656.58	57563.14
656.73	57504.62
656.87	57308.02
657.01	57249.50
657.16	57317.38
657.30	57153.54
657.45	57214.40
657.59	57069.28
657.73	56905.44
657.88	57038.86
658.02	57090.35
658.16	56959.28
658.31	57069.28
658.45	57097.37
658.60	57010.77
658.74	56924.17
658.88	56872.68
659.03	57230.78
659.17	56919.49
659.31	56966.30
659.46	56949.92
659.60	57031.83
659.74	57041.20
659.89	56781.40
660.03	56905.44
660.17	56931.19
660.32	56715.86
660.46	56788.42
660.60	56601.18
660.74	56687.78
660.89	56933.53
661.03	56374.14
661.17	56629.26
661.32	56313.29
661.46	56470.11
661.60	56357.76
661.74	56278.18
661.89	56135.41
662.03	56226.69
662.17	56037.11
662.31	56341.38
662.46	56479.47
662.60	55842.84
662.74	56086.26
662.88	56074.55
663.03	56156.47
663.17	55920.08
663.31	56086.26
663.45	55945.83
663.60	55821.78
663.74	55423.89
663.88	55657.94
664.02	55674.32
664.17	55756.24
664.31	55473.04
664.45	55583.04
664.59	55683.69
664.73	55449.63
664.88	55398.14
665.02	55229.62
665.16	55440.27
665.30	55311.54
665.44	55323.24
665.59	55248.35
665.73	55271.75
665.87	55295.16
666.01	55407.50
666.15	55014.29
666.29	55016.63
666.44	55285.79
666.58	54794.28
666.72	54679.60
666.86	54866.84
667.00	54719.38
667.14	54480.65
667.28	54576.61
667.43	54721.72
667.57	54859.82
667.71	54646.83
667.85	54429.16
667.99	54405.75
668.13	54403.41
668.27	54637.47
668.41	54429.16
668.56	53916.58
668.70	54064.03
668.84	54176.38
668.98	54281.70
669.12	54101.48
669.26	54225.53
669.40	54150.63
669.54	54382.35
669.68	54232.55
669.82	53837.00
669.96	54141.27
670.10	54057.01
670.25	54284.04
670.39	54092.12
670.53	53900.20
670.67	53701.25
670.81	53825.30
670.95	53769.13
671.09	53813.60
671.23	53045.90
671.37	53418.05
671.51	53488.26
671.65	53605.29
671.79	53183.99
671.93	53113.78
672.07	53212.08
672.21	52839.93
672.35	52701.84
672.49	52418.64
672.63	52671.42
672.77	52484.17
672.91	52310.97
673.05	52310.97
673.19	52437.36
673.33	52514.60
673.47	52423.32
673.61	52570.77
673.75	52360.12
673.89	52135.43
674.03	52013.73
674.17	51875.63
674.31	51901.38
674.45	51578.39
674.59	51618.17
674.73	51798.40
674.87	51559.66
675.01	50974.53
675.15	51178.15
675.29	51304.54
675.43	51384.12
675.56	51536.26
675.70	51236.67
675.84	50789.62
675.98	50206.83
676.12	50590.68
676.26	50831.75
676.40	50796.65
676.54	50684.30
676.68	50754.52
676.82	49977.46
676.96	49982.14
677.10	49806.60
677.23	50003.20
677.37	49827.66
677.51	49841.71
677.65	49275.30
677.79	48633.99
677.93	49029.54
678.07	49062.31
678.21	48961.67
678.34	48594.20
678.48	48917.20
678.62	48975.71
678.76	48563.78
678.90	48027.79
679.04	48669.10
679.18	48385.89
679.31	48006.73
679.45	47861.61
679.59	47973.96
679.73	47702.46
679.87	47669.69
680.00	47351.38
680.14	46677.30
680.28	47239.03
680.42	46787.31
680.56	46611.77
680.70	46394.10
680.83	46644.54
680.97	46681.98
681.11	46710.07
681.25	46293.46
681.39	46461.97
681.52	46211.54
681.66	46110.89
681.80	45755.13
681.94	45439.16
682.07	45595.98
682.21	45460.23
682.35	45406.39
682.49	45237.87
682.62	45141.91
682.76	45490.65
682.90	45195.74
683.04	44797.85
683.17	44421.03
683.31	44306.34
683.45	44519.33
683.59	44406.98
683.72	43550.35
683.86	43363.11
684.00	43746.95
684.13	44088.67
684.27	43428.64
684.41	43798.44
684.55	43613.54
684.68	43187.56
684.82	43152.46
684.96	42770.95
685.09	42843.51
685.23	42574.34
685.37	42319.23
685.50	42431.57
685.64	42740.52
685.78	41879.21
685.91	42436.25
686.05	41574.94
686.19	41301.09
686.32	41563.23
686.46	40650.42
686.60	40732.34
686.73	40591.91
686.87	40112.10
687.01	40996.82
687.14	40961.72
687.28	40392.97
687.42	39922.52
687.55	40105.08
687.69	40261.90
687.82	39309.30
687.96	39648.68
688.10	39194.61
688.23	39948.26
688.37	39386.54
688.50	38618.84
688.64	38712.46
688.78	38581.39
688.91	38117.96
689.05	38916.09
689.18	38462.02
689.32	37469.64
689.46	37331.54
689.59	37666.24
689.73	37479.00
689.86	37441.55
690.00	37174.73
690.13	37706.03
690.27	36938.33
690.41	37350.27
690.54	36875.14
690.68	36596.62
690.81	36739.39
690.95	36751.09
691.08	36222.13
691.22	35903.82
691.35	35709.55
691.49	35637.00
691.62	35920.20
691.76	35723.60
691.89	35482.52
692.03	35360.81
692.16	35227.40
692.30	35098.67
692.43	34841.21
692.57	34897.39
692.70	34923.13
692.84	34277.15
692.97	34593.12
693.11	34085.22
693.24	33589.03
693.38	34143.74
693.51	33488.38
693.65	33418.17
693.78	33598.39
693.92	33104.54
694.05	33106.88
694.19	33259.01
694.32	32687.92
694.45	32613.02
694.59	32430.46
694.72	32119.17
694.86	32217.47
694.99	31875.76
695.13	31873.42
695.26	32287.69
695.39	31370.20
695.53	31456.80
695.66	31793.84
695.80	30979.33
695.93	31393.61
696.07	30773.36
696.20	30363.77
696.33	30412.92
696.47	30642.29
696.60	30710.17
696.73	30410.58
696.87	30621.23
697.00	30326.32
697.14	29977.58
697.27	29848.85
697.40	29668.63
697.54	29893.32
697.67	29411.17
697.80	29422.87
697.94	28914.98
698.07	28982.85
698.21	29071.79
698.34	29226.27
698.47	28432.83
698.61	28505.38
698.74	28252.61
698.87	28301.76
699.01	27796.20
699.14	28386.02
699.27	27538.74
699.40	27969.40
699.54	27927.27
699.67	27800.88
699.80	27711.94
699.94	27344.48
700.07	27297.67
700.20	26977.01
700.34	26888.07
700.47	26478.48
700.60	26024.42
700.73	26679.77
700.87	26122.72
701.00	25764.62
701.13	25675.68
701.26	26082.93
701.40	25902.71
701.53	25565.67
701.66	25652.27
701.79	25083.52
701.93	25174.80
702.06	25043.73
702.19	25069.48
702.32	25099.90
702.46	24800.32
702.59	24442.21
702.72	24395.40
702.85	25050.75
702.99	24814.36
703.12	24451.58
703.25	23939.00
703.38	23826.65
703.51	23627.71
703.65	23035.55
703.78	23154.92
703.91	23213.43
704.04	23381.95
704.17	23264.92
704.31	22934.91
704.44	22960.66
704.57	22478.50
704.70	22384.88
704.83	22080.61
704.96	22583.83
705.10	22232.75
705.23	22263.18
>>>>>End Processed Spectral Data<<<<<
