SpectraSuite Data File
++++++++++++++++++++++++++++++++++++
Date: Fri Oct 25 11:23:11 EDT 2013
User: price-jones
Dark Spectrum Present: No
Reference Spectrum Present: No
Number of Sampled Component Spectra: 1
Spectrometers: USB2+H05261
Integration Time (usec): 100000 (USB2+H05261)
Spectra Averaged: 1 (USB2+H05261)
Boxcar Smoothing: 0 (USB2+H05261)
Correct for Electrical Dark: No (USB2+H05261)
Strobe/Lamp Enabled: No (USB2+H05261)
Correct for Detector Non-linearity: No (USB2+H05261)
Correct for Stray Light: No (USB2+H05261)
Number of Pixels in Processed Spectrum: 2048
>>>>>Begin Processed Spectral Data<<<<<
365.73	224.69
365.92	224.69
366.12	224.69
366.32	124.05
366.52	79.58
366.72	205.97
366.91	56.17
367.11	168.52
367.31	86.60
367.51	49.15
367.70	93.62
367.90	163.84
368.10	140.43
368.30	105.32
368.49	128.73
368.69	154.48
368.89	128.73
369.09	170.86
369.28	156.82
369.48	161.50
369.68	133.41
369.87	175.54
370.07	154.48
370.27	294.91
370.47	353.42
370.66	596.84
370.86	643.65
371.06	697.48
371.25	568.75
371.45	667.05
371.65	690.46
371.84	655.35
372.04	681.10
372.24	667.05
372.44	753.65
372.63	784.08
372.83	718.54
373.03	748.97
373.22	779.40
373.42	779.40
373.62	830.89
373.81	812.17
374.01	837.91
374.21	816.85
374.40	814.51
374.60	819.19
374.79	788.76
374.99	798.12
375.19	805.14
375.38	809.83
375.58	894.08
375.78	863.66
375.97	851.96
376.17	896.43
376.37	826.21
376.56	924.51
376.76	842.59
376.95	889.40
377.15	912.81
377.35	880.04
377.54	1032.18
377.74	880.04
377.93	945.58
378.13	922.17
378.33	912.81
378.52	905.79
378.72	894.08
378.91	908.13
379.11	980.68
379.31	849.61
379.50	940.90
379.70	999.41
379.89	980.68
380.09	943.24
380.28	1050.90
380.48	940.90
380.68	903.45
380.87	994.73
381.07	997.07
381.26	1046.22
381.46	945.58
381.65	1109.41
381.85	1064.94
382.04	1020.47
382.24	1090.69
382.43	1081.33
382.63	1015.79
382.83	1048.56
383.02	1074.31
383.22	1078.99
383.41	1081.33
383.61	1132.82
383.80	1172.61
384.00	1132.82
384.19	1153.88
384.39	1212.40
384.58	1181.97
384.78	1032.18
384.97	1165.59
385.17	1097.71
385.36	1179.63
385.56	1219.42
385.75	1153.88
385.95	1111.75
386.14	1165.59
386.34	1186.65
386.53	1273.25
386.72	1153.88
386.92	1210.06
387.11	1249.85
387.31	1259.21
387.50	1233.46
387.70	1228.78
387.89	1289.64
388.09	1259.21
388.28	1270.91
388.48	1320.06
388.67	1306.02
388.86	1366.87
389.06	1277.93
389.25	1327.08
389.45	1439.43
389.64	1291.98
389.84	1357.51
390.03	1493.26
390.22	1409.00
390.42	1399.64
390.61	1423.05
390.81	1406.66
391.00	1413.68
391.19	1430.07
391.39	1343.47
391.58	1425.39
391.78	1497.94
391.97	1619.65
392.16	1521.35
392.36	1497.94
392.55	1542.41
392.75	1493.26
392.94	1514.33
393.13	1563.48
393.33	1502.62
393.52	1629.01
393.71	1582.20
393.91	1675.82
394.10	1624.33
394.29	1528.37
394.49	1502.62
394.68	1671.14
394.88	1673.48
395.07	1624.33
395.26	1633.69
395.46	1687.53
395.65	1687.53
395.84	1788.17
396.04	1818.60
396.23	1799.87
396.42	1741.36
396.62	1706.25
396.81	1877.11
397.00	1755.40
397.19	1806.89
397.39	1830.30
397.58	1888.81
397.77	1846.68
397.97	1893.49
398.16	1954.35
398.35	1905.20
398.55	1825.62
398.74	1870.09
398.93	1952.01
399.12	1921.58
399.32	1933.28
399.51	1926.26
399.70	2059.67
399.90	1975.41
400.09	2010.52
400.28	2038.61
400.47	2040.95
400.67	2113.50
400.86	2120.53
401.05	2066.69
401.24	2169.68
401.44	2150.95
401.63	2118.18
401.82	2183.72
402.01	2150.95
402.21	2195.42
402.40	2209.47
402.59	2092.44
402.78	2342.88
402.97	2310.11
403.17	2445.86
403.36	2265.64
403.55	2267.98
403.74	2345.22
403.93	2436.50
404.13	2363.94
404.32	2401.39
404.51	2373.30
404.70	2520.76
404.89	2356.92
405.09	2441.18
405.28	2406.07
405.47	2520.76
405.66	2520.76
405.85	2602.68
406.05	2567.57
406.24	2621.40
406.43	2640.12
406.62	2663.53
406.81	2602.68
407.00	2548.84
407.20	2567.57
407.39	2743.11
407.58	2633.10
407.77	2780.56
407.96	2754.81
408.15	2834.39
408.34	2818.00
408.54	2803.96
408.73	2841.41
408.92	2775.88
409.11	2860.13
409.30	2942.05
409.49	2909.29
409.68	2881.20
409.87	2925.67
410.07	2923.33
410.26	3023.97
410.45	3049.72
410.64	3052.06
410.83	3204.19
411.02	3068.44
411.21	3119.93
411.40	3171.43
411.59	3211.22
411.78	3459.31
411.98	3262.71
412.17	3342.28
412.36	3400.80
412.55	3414.84
412.74	3407.82
412.93	3531.87
413.12	3496.76
413.31	3627.83
413.50	3393.78
413.69	3492.08
413.88	3641.87
414.07	3552.93
414.26	3606.77
414.45	3632.51
414.64	3665.28
414.83	3852.52
415.02	3808.05
415.22	3782.31
415.41	3868.91
415.60	3904.01
415.79	4021.04
415.98	3999.98
416.17	4014.02
416.36	3988.27
416.55	3957.85
416.74	4138.07
416.93	4109.98
417.12	4072.53
417.31	4191.90
417.50	4180.20
417.69	4166.15
417.88	4365.10
418.07	4339.35
418.26	4266.80
418.45	4292.54
418.64	4528.94
418.83	4430.63
419.02	4369.78
419.21	4636.60
419.39	4521.92
419.58	4620.22
419.77	4531.28
419.96	4582.77
420.15	4542.98
420.34	4779.37
420.53	4617.88
420.72	4755.97
420.91	4847.25
421.10	4657.67
421.29	4800.44
421.48	4835.55
421.67	4865.97
421.86	4772.35
422.05	4894.06
422.24	4830.87
422.43	4926.83
422.61	4795.76
422.80	5093.01
422.99	5043.85
423.18	5076.62
423.37	5043.85
423.56	4884.70
423.75	5034.49
423.94	4854.27
424.13	4716.18
424.32	4863.63
424.50	5125.77
424.69	5093.01
424.88	5322.38
425.07	4983.00
425.26	4926.83
425.45	5039.17
425.64	5013.43
425.83	4959.60
426.01	4924.49
426.20	5144.50
426.39	5055.56
426.58	5036.83
426.77	5100.03
426.96	5221.74
427.15	5219.39
427.33	5308.34
427.52	5137.48
427.71	5310.68
427.90	5210.03
428.09	5324.72
428.28	5495.58
428.46	5359.83
428.65	5474.51
428.84	5455.79
429.03	5511.96
429.22	5397.28
429.40	5294.29
429.59	5437.06
429.78	5245.14
429.97	5324.72
430.16	5474.51
430.34	5715.59
430.53	5717.93
430.72	5776.44
430.91	5851.34
431.10	5753.04
431.28	5797.51
431.47	5877.09
431.66	5984.75
431.85	5809.21
432.03	5846.66
432.22	5984.75
432.41	6010.50
432.60	5853.68
432.79	5951.98
432.97	6057.31
433.16	6040.92
433.35	5984.75
433.54	6134.54
433.72	6174.33
433.91	6113.48
434.10	6085.39
434.28	6218.80
434.47	6300.72
434.66	6282.00
434.85	6389.66
435.03	6361.58
435.22	6211.78
435.41	6614.35
435.59	6415.41
435.78	6457.54
435.97	6558.18
436.16	6466.90
436.34	6520.73
436.53	6537.12
436.72	6553.50
436.90	6424.77
437.09	6637.76
437.28	6534.78
437.46	6719.68
437.65	6815.64
437.84	6890.54
438.02	6923.30
438.21	6942.03
438.40	6525.41
438.58	7194.81
438.77	7201.83
438.96	7150.34
439.14	7091.82
439.33	7117.57
439.52	7115.23
439.70	7517.80
439.89	7330.56
440.08	7346.94
440.26	7492.05
440.45	7250.98
440.63	7466.31
440.82	7735.47
441.01	7618.44
441.19	7672.28
441.38	7665.25
441.57	7712.07
441.75	7819.73
441.94	8044.42
442.12	7934.42
442.31	7868.88
442.50	8084.21
442.68	8053.78
442.87	8224.64
443.05	8042.08
443.24	8336.99
443.43	8189.53
443.61	8229.32
443.80	8519.55
443.98	8161.45
444.17	8053.78
444.35	8451.67
444.54	8285.50
444.73	8383.80
444.91	8353.37
445.10	8470.40
445.28	8255.07
445.47	8482.10
445.65	8271.45
445.84	8503.17
446.02	8547.64
446.21	8231.66
446.39	8503.17
446.58	8575.72
446.77	8549.98
446.95	8219.96
447.14	8566.36
447.32	8667.00
447.51	8566.36
447.69	8503.17
447.88	8629.56
448.06	8528.91
448.25	8667.00
448.43	8793.39
448.62	8645.94
448.80	8582.74
448.99	8760.63
449.17	8954.89
449.36	8819.14
449.54	8793.39
449.73	9039.15
449.91	9064.89
450.10	9179.58
450.28	9137.45
450.46	9303.63
450.65	9151.49
450.83	9092.98
451.02	9235.75
451.20	9263.84
451.39	9107.02
451.57	9242.78
451.76	9219.37
451.94	9291.93
452.13	9355.12
452.31	9383.21
452.49	9439.38
452.68	9511.94
452.86	9547.05
453.05	9551.73
453.23	9514.28
453.42	9341.08
453.60	9383.21
453.78	9624.28
453.97	9397.25
454.15	9764.72
454.34	9547.05
454.52	9909.83
454.70	9874.72
454.89	9790.46
455.07	9710.88
455.26	10024.51
455.44	10022.17
455.62	9970.68
455.81	9966.00
455.99	10017.49
456.17	10207.08
456.36	10225.80
456.54	10420.06
456.73	10310.06
456.91	10331.12
457.09	10326.44
457.28	10569.86
457.46	10450.49
457.64	10621.35
457.83	10698.59
458.01	10403.68
458.19	10778.17
458.38	10633.05
458.56	10843.70
458.74	10944.34
458.93	10635.39
459.11	10855.40
459.29	10876.47
459.48	10801.57
459.66	10794.55
459.84	11054.35
460.03	11075.42
460.21	10974.77
460.39	11077.76
460.57	10988.82
460.76	11311.81
460.94	11349.26
461.12	11365.64
461.31	11098.82
461.49	11311.81
461.67	11307.13
461.85	11318.83
462.04	11328.19
462.22	11440.54
462.40	11775.24
462.59	11501.39
462.77	11637.14
462.95	11669.91
463.13	11595.01
463.32	11712.04
463.50	11695.66
463.68	11749.49
463.86	11967.16
464.05	11777.58
464.23	12112.27
464.41	12114.61
464.59	11887.58
464.78	12468.03
464.96	12060.78
465.14	11974.18
465.32	12152.06
465.50	12236.32
465.69	12376.75
465.87	12107.59
466.05	12182.49
466.23	12212.92
466.41	12393.14
466.60	12575.70
466.78	12336.96
466.96	12444.63
467.14	12575.70
467.32	12451.65
467.51	12500.80
467.69	12320.58
467.87	12519.53
468.05	12676.34
468.23	12549.95
468.41	12922.10
468.60	12582.72
468.78	12786.35
468.96	12690.38
469.14	13008.70
469.32	13090.62
469.50	12678.68
469.69	13046.15
469.87	13083.59
470.05	13078.91
470.23	13266.16
470.41	13256.79
470.59	13757.67
470.77	13495.53
470.95	13399.57
471.14	13654.69
471.32	13336.37
471.50	13642.98
471.68	13839.59
471.86	13713.20
472.04	14010.45
472.22	13973.00
472.40	14125.13
472.58	14153.22
472.77	14246.84
472.95	14223.44
473.13	14448.13
473.31	14413.02
473.49	14476.21
473.67	14356.85
473.85	14310.04
474.03	14647.07
474.21	14679.84
474.39	14796.87
474.57	14757.08
474.75	14824.95
474.93	15150.29
475.12	15040.28
475.30	15250.93
475.48	15035.60
475.66	15241.57
475.84	15480.30
476.02	15611.37
476.20	15456.90
476.38	15826.70
476.56	16070.12
476.74	15854.79
476.92	16102.89
477.10	16109.91
477.28	16283.11
477.46	16102.89
477.64	16318.22
477.82	16751.21
478.00	17186.55
478.18	17273.15
478.36	17282.52
478.54	17383.16
478.72	17362.09
478.90	17525.93
479.08	17537.63
479.26	17774.03
479.44	17944.89
479.62	17970.63
479.80	18190.64
479.98	18235.11
480.16	18679.82
480.34	18628.32
480.52	18841.31
480.70	19002.81
480.88	18530.02
481.06	18956.00
481.24	18897.49
481.41	19330.48
481.59	19784.55
481.77	19810.29
481.95	20051.37
482.13	19932.00
482.31	19737.74
482.49	20339.26
482.67	20273.72
482.85	20697.36
483.03	20798.00
483.21	20858.85
483.39	21214.62
483.57	20879.92
483.74	21308.24
483.92	21841.88
484.10	21289.51
484.28	21717.83
484.46	22211.68
484.64	22410.63
484.82	21928.48
485.00	22452.76
485.18	23035.55
485.35	22967.68
485.53	23108.11
485.71	23028.53
485.89	23704.95
486.07	23585.58
486.25	23702.61
486.43	23840.70
486.61	23887.51
486.78	24570.94
486.96	24439.87
487.14	25111.61
487.32	24915.00
487.50	25336.30
487.68	25523.54
487.85	25682.70
488.03	25914.41
488.21	25963.56
488.39	26232.72
488.57	26263.15
488.75	26490.18
488.92	26408.26
489.10	27143.19
489.28	27117.45
489.46	27395.97
489.64	27665.13
489.81	27826.63
489.99	28037.28
490.17	28254.95
490.35	28435.17
490.53	28318.14
490.70	28596.67
490.88	28788.59
491.06	29127.97
491.24	29200.52
491.41	29369.04
491.59	29750.55
491.77	29406.49
491.95	29928.43
492.13	30050.14
492.30	30321.64
492.48	30305.26
492.66	30054.82
492.84	30679.74
493.01	30878.69
493.19	30906.77
493.37	31288.28
493.54	31527.02
493.72	31887.46
493.90	31908.52
494.08	32645.79
494.25	32112.15
494.43	32369.61
494.61	32556.85
494.79	32840.06
494.96	32818.99
495.14	33605.41
495.32	33429.87
495.49	33385.40
495.67	33544.56
495.85	33668.61
496.02	34543.97
496.20	34167.14
496.38	34380.13
496.55	34143.74
496.73	35393.58
496.91	35220.38
497.09	35583.16
497.26	35047.18
497.44	35473.16
497.62	35276.55
497.79	36229.15
497.97	35931.90
498.14	36360.22
498.32	36727.69
498.50	36507.68
498.67	37013.23
498.85	36610.66
499.03	36975.78
499.20	37055.36
499.38	37432.19
499.56	37474.32
499.73	37284.73
499.91	37879.23
500.08	38080.52
500.26	38202.22
500.44	37951.79
500.61	38431.60
500.79	38309.89
500.97	38686.71
501.14	38803.74
501.32	38965.24
501.49	38888.00
501.67	39096.31
501.84	39079.92
502.02	39122.05
502.20	39435.69
502.37	39672.08
502.55	39356.11
502.72	39903.79
502.90	40020.82
503.07	39756.34
503.25	40311.05
503.43	40266.58
503.60	40662.13
503.78	40371.90
503.95	40500.63
504.13	40683.19
504.30	41008.53
504.48	41158.32
504.65	40975.76
504.83	41172.36
505.01	41521.10
505.18	41806.65
505.36	41916.65
505.53	41560.89
505.71	42291.14
505.88	42293.48
506.06	41736.43
506.23	42162.41
506.41	41940.06
506.58	42712.44
506.76	42607.11
506.93	42976.92
507.11	43054.15
507.28	42815.42
507.46	43103.31
507.63	43524.60
507.81	43531.62
507.98	43302.25
508.16	43468.43
508.33	43943.56
508.50	43768.02
508.68	43957.60
508.85	44261.87
509.03	44240.81
509.20	44289.96
509.38	44664.44
509.55	44655.08
509.73	44624.65
509.90	45212.13
510.08	44975.73
510.25	45228.51
510.42	45343.20
510.60	45603.00
510.77	45514.06
510.95	45972.80
511.12	45450.86
511.30	45422.78
511.47	45546.82
511.64	46122.60
511.82	46155.36
511.99	46265.37
512.17	46347.29
512.34	46300.48
512.51	46635.17
512.69	46742.84
512.86	46803.69
513.04	47171.16
513.21	47042.43
513.38	47178.18
513.56	47402.87
513.73	47084.56
513.90	47510.53
514.08	47037.75
514.25	47594.79
514.43	47742.25
514.60	47690.76
514.77	47875.66
514.95	48072.26
515.12	47746.93
515.29	47870.98
515.47	48622.29
515.64	48474.84
515.81	48341.42
515.99	48741.66
516.16	48893.79
516.33	48823.58
516.51	49226.15
516.68	48959.33
516.85	48891.45
517.03	49242.53
517.20	49237.85
517.37	49162.95
517.54	49595.95
517.72	49144.23
517.89	49319.77
518.06	49698.94
518.24	49539.78
518.41	49659.15
518.58	49879.16
518.75	49462.54
518.93	49771.49
519.10	49689.57
519.27	49834.69
519.45	50045.33
519.62	50298.11
519.79	50412.80
519.96	50373.01
520.14	50464.29
520.31	50375.35
520.48	50766.22
520.65	50827.07
520.83	51033.04
521.00	51047.08
521.17	50803.67
521.34	50892.61
521.52	51058.79
521.69	51405.19
521.86	51384.12
522.03	51400.50
522.20	51470.72
522.38	51501.15
522.55	51620.52
522.72	51739.88
522.89	51877.97
523.07	52144.80
523.24	52025.43
523.41	51866.27
523.58	51863.93
523.75	51980.96
523.92	52069.90
524.10	51999.68
524.27	52215.01
524.44	52512.26
524.61	52580.13
524.78	52500.56
524.96	52680.78
525.13	52622.26
525.30	52940.58
525.47	52816.53
525.64	52697.16
525.81	52758.02
525.98	53043.56
526.16	53020.16
526.33	53092.71
526.50	53120.80
526.67	53081.01
526.84	53207.40
527.01	52938.24
527.18	53411.02
527.36	53289.32
527.53	53443.79
527.70	53858.07
527.87	53567.84
528.04	53305.70
528.21	53387.62
528.38	53565.50
528.55	53841.68
528.72	53425.07
528.89	53932.96
529.07	53607.63
529.24	53698.91
529.41	54014.88
529.58	53916.58
529.75	53951.69
529.92	54110.85
530.09	53939.99
530.26	54162.34
530.43	54134.25
530.60	54073.40
530.77	54337.88
530.94	54588.31
531.11	54316.81
531.28	54686.62
531.46	54429.16
531.63	54707.68
531.80	54885.56
531.97	54438.52
532.14	54780.24
532.31	55061.10
532.48	54892.58
532.65	55037.70
532.82	54686.62
532.99	54707.68
533.16	54810.67
533.33	55126.64
533.50	55374.73
533.67	55285.79
533.84	54988.55
534.01	55243.66
534.18	55084.51
534.35	55501.12
534.52	55154.72
534.69	55449.63
534.86	55330.26
535.03	55632.19
535.20	55475.38
535.37	55601.77
535.54	55430.91
535.71	55606.45
535.88	55929.44
536.05	55592.40
536.22	55671.98
536.38	56016.04
536.55	55955.19
536.72	55798.37
536.89	55810.07
537.06	55934.12
537.23	56214.99
537.40	55887.31
537.57	55903.70
537.74	56032.42
537.91	56065.19
538.08	56027.74
538.25	55992.64
538.42	56130.73
538.59	56285.20
538.75	55817.10
538.92	56247.75
539.09	56500.53
539.26	56259.46
539.43	56589.47
539.60	56388.19
539.77	56439.68
539.94	56884.38
540.11	56636.28
540.28	56720.54
540.44	56779.06
540.61	56959.28
540.78	56825.87
540.95	56676.07
541.12	56753.31
541.29	56626.92
541.46	56914.81
541.62	56743.95
541.79	56659.69
541.96	56559.05
542.13	56711.18
542.30	57088.01
542.47	56978.00
542.63	57261.21
542.80	56961.62
542.97	57471.85
543.14	57588.88
543.31	57347.81
543.48	57371.21
543.64	57544.41
543.81	57745.70
543.98	57509.30
544.15	57703.57
544.32	57825.28
544.48	57954.00
544.65	57752.72
544.82	57560.79
544.99	57523.35
545.16	57813.57
545.32	57762.08
545.49	58110.82
545.66	57939.96
545.83	57844.00
546.00	58192.74
546.16	58101.46
546.33	57794.85
546.50	57827.62
546.67	58047.63
546.83	57724.63
547.00	58136.57
547.17	57928.26
547.34	58059.33
547.50	58117.84
547.67	58408.07
547.84	58099.12
548.00	58588.29
548.17	58288.70
548.34	58485.31
548.51	58372.96
548.67	58471.26
548.84	58401.05
549.01	58415.09
549.18	58323.81
549.34	58489.99
549.51	58452.54
549.68	58632.76
549.84	58698.30
550.01	58499.35
550.18	58585.95
550.34	59000.22
550.51	58871.49
550.68	58712.34
550.84	58518.07
551.01	58812.98
551.18	58681.91
551.34	58829.37
551.51	58937.03
551.68	58922.99
551.84	58990.86
552.01	58714.68
552.18	59028.31
552.34	58637.44
552.51	59000.22
552.68	58735.74
552.84	58852.77
553.01	59093.85
553.18	59274.07
553.34	58997.88
553.51	59035.33
553.67	59086.82
553.84	59271.73
554.01	59004.91
554.17	59220.23
554.34	59206.19
554.51	59372.37
554.67	59269.39
554.84	59049.38
555.00	59285.77
555.17	59283.43
555.33	59348.96
555.50	59051.72
555.67	59187.47
555.83	59348.96
556.00	59426.20
556.16	59657.91
556.33	59573.66
556.50	59531.53
556.66	59505.78
556.83	59463.65
556.99	59662.60
557.16	59842.82
557.32	59948.14
557.49	59784.30
557.65	59732.81
557.82	59386.41
557.98	59533.87
558.15	59746.86
558.32	59655.57
558.48	59517.48
558.65	59697.70
558.81	59622.81
558.98	59721.11
559.14	59931.76
559.31	60060.49
559.47	59847.50
559.64	59870.90
559.80	59803.03
559.97	60037.08
560.13	59814.73
560.30	60086.23
560.46	59887.29
560.63	60025.38
560.79	59898.99
560.96	59950.48
561.12	59950.48
561.29	59987.93
561.45	60135.38
561.61	60198.58
561.78	60140.07
561.94	60306.24
562.11	60182.19
562.27	60123.68
562.44	60013.68
562.60	60257.09
562.77	60310.92
562.93	59959.84
563.10	60158.79
563.26	60245.39
563.42	60378.80
563.59	60179.85
563.75	60072.19
563.92	60135.38
564.08	59863.88
564.24	60439.65
564.41	60292.20
564.57	60191.56
564.74	60381.14
564.90	60310.92
565.07	60320.29
565.23	60350.71
565.39	60406.89
565.56	60406.89
565.72	60207.94
565.88	60446.68
566.05	60329.65
566.21	60427.95
566.38	60573.06
566.54	60420.93
566.70	60533.28
566.87	60636.26
567.03	60392.84
567.19	60573.06
567.36	60603.49
567.52	60542.64
567.68	60821.16
567.85	60629.24
568.01	60727.54
568.17	60355.39
568.34	60711.16
568.50	60589.45
568.66	60516.89
568.83	60643.28
568.99	60441.99
569.15	60495.83
569.32	60673.71
569.48	60512.21
569.64	60767.33
569.81	60690.09
569.97	60673.71
570.13	60692.43
570.30	60711.16
570.46	60910.10
570.62	60800.10
570.78	60526.25
570.95	60821.16
571.11	60884.36
571.27	60678.39
571.43	60898.40
571.60	60947.55
571.76	60786.05
571.92	60694.77
572.09	60741.58
572.25	61057.56
572.41	60772.01
572.57	60757.97
572.74	61048.19
572.90	60774.35
573.06	61015.43
573.22	60879.67
573.38	61099.68
573.55	60853.93
573.71	60933.51
573.87	60935.85
574.03	60762.65
574.20	60949.89
574.36	60818.82
574.52	60973.30
574.68	61034.15
574.84	60980.32
575.01	61038.83
575.17	60694.77
575.33	60907.76
575.49	60809.46
575.65	61015.43
575.82	60935.85
575.98	60982.66
576.14	61137.13
576.30	61015.43
576.46	60917.12
576.62	60982.66
576.79	60956.91
576.95	60992.02
577.11	61052.87
577.27	61111.39
577.43	61055.21
577.59	60891.38
577.75	60804.78
577.92	60837.54
578.08	60940.53
578.24	60807.12
578.40	61092.66
578.56	61078.62
578.72	61169.90
578.88	61181.60
579.04	61205.01
579.21	61195.65
579.37	61272.88
579.53	61396.93
579.69	60856.27
579.85	61087.98
580.01	61017.77
580.17	60966.27
580.33	61310.33
580.49	61272.88
580.65	61188.63
580.82	61095.00
580.98	61043.51
581.14	60999.04
581.30	61230.75
581.46	61205.01
581.62	61254.16
581.78	61006.06
581.94	61300.97
582.10	61247.14
582.26	61183.94
582.42	61188.63
582.58	61052.87
582.74	61254.16
582.90	60898.40
583.06	61029.47
583.22	60980.32
583.38	61329.06
583.54	61120.75
583.70	61141.81
583.86	61174.58
584.02	61242.46
584.18	61219.05
584.34	61361.82
584.50	61279.91
584.66	61127.77
584.82	61155.86
584.98	61378.21
585.14	61378.21
585.30	61373.53
585.46	61396.93
585.62	61275.22
585.78	61460.13
585.94	61071.60
586.10	61233.10
586.26	61256.50
586.42	61389.91
586.58	61528.00
586.74	61146.50
586.90	61399.27
587.06	61076.28
587.22	61443.74
587.38	61113.73
587.54	61315.01
587.70	61581.84
587.86	61207.35
588.02	61387.57
588.18	61535.02
588.34	61214.37
588.49	61357.14
588.65	61219.05
588.81	61345.44
588.97	61549.07
589.13	61197.99
589.29	61354.80
589.45	61453.11
589.61	61635.67
589.77	61556.09
589.93	61516.30
590.08	61565.45
590.24	61469.49
590.40	61773.76
590.56	61619.28
590.72	61614.60
590.88	61380.55
591.04	61329.06
591.20	61752.69
591.35	61708.22
591.51	61668.44
591.67	61635.67
591.83	61652.05
591.99	61570.13
592.15	61546.73
592.31	61663.75
592.46	61841.63
592.62	61464.81
592.78	61731.63
592.94	61893.13
593.10	61591.20
593.26	61698.86
593.41	61869.72
593.57	61563.11
593.73	61556.09
593.89	61846.32
594.05	61801.85
594.20	61773.76
594.36	61661.41
594.52	61762.06
594.68	61640.35
594.84	61504.60
594.99	61745.67
595.15	61740.99
595.31	61705.88
595.47	61642.69
595.62	61579.49
595.78	61773.76
595.94	61717.59
596.10	61726.95
596.25	61766.74
596.41	61834.61
596.57	61778.44
596.73	61968.02
596.88	61736.31
597.04	61874.40
597.20	61750.35
597.36	61846.32
597.51	61998.45
597.67	61902.49
597.83	61832.27
597.99	61890.79
598.14	61935.26
598.30	61762.06
598.46	61932.92
598.61	61869.72
598.77	61841.63
598.93	61895.47
599.09	61755.03
599.24	62089.73
599.40	61944.62
599.56	62014.83
599.71	61846.32
599.87	62136.54
600.03	61961.00
600.18	61834.61
600.34	61755.03
600.50	61916.53
600.65	61818.23
600.81	61921.21
600.97	61914.19
601.12	62059.30
601.28	61890.79
601.44	61951.64
601.59	62143.56
601.75	61986.75
601.91	62211.44
602.06	62085.05
602.22	62230.16
602.37	61923.55
602.53	61968.02
602.69	61914.19
602.84	61806.53
603.00	61825.25
603.16	61787.80
603.31	62007.81
603.47	61904.83
603.62	61996.11
603.78	62063.99
603.94	61977.39
604.09	61942.28
604.25	62106.12
604.40	61879.08
604.56	62014.83
604.71	62195.06
604.87	61890.79
605.03	61972.70
605.18	61979.73
605.34	61853.34
605.49	61769.08
605.65	62045.26
605.80	61930.58
605.96	62272.29
606.12	61975.05
606.27	62099.09
606.43	62092.07
606.58	62178.67
606.74	61764.40
606.89	61869.72
607.05	61946.96
607.20	62141.22
607.36	61738.65
607.51	61956.32
607.67	61722.27
607.82	61801.85
607.98	61836.95
608.13	61780.78
608.29	61956.32
608.44	61858.02
608.60	61759.72
608.75	62014.83
608.91	61801.85
609.06	61577.15
609.22	61792.48
609.37	61670.78
609.53	61874.40
609.68	61806.53
609.84	62047.60
609.99	61914.19
610.15	61848.66
610.30	62024.20
610.46	61801.85
610.61	61811.21
610.76	61801.85
610.92	61883.76
611.07	61729.29
611.23	61715.25
611.38	61900.15
611.54	61872.06
611.69	61586.52
611.84	61705.88
612.00	61670.78
612.15	61766.74
612.31	61804.19
612.46	61612.26
612.62	61792.48
612.77	61801.85
612.92	61834.61
613.08	61738.65
613.23	61516.30
613.39	61619.28
613.54	61490.55
613.69	61544.39
613.85	61743.33
614.00	61715.25
614.15	61836.95
614.31	61647.37
614.46	61740.99
614.62	61471.83
614.77	61546.73
614.92	61462.47
615.08	61677.80
615.23	61549.07
615.38	61698.86
615.54	61488.21
615.69	61553.75
615.84	61701.20
616.00	61586.52
616.15	61633.33
616.30	61684.82
616.46	61523.32
616.61	61630.99
616.76	61528.00
616.92	61263.52
617.07	61546.73
617.22	61258.84
617.37	61385.23
617.53	61703.54
617.68	61300.97
617.83	61619.28
617.99	61418.00
618.14	61495.24
618.29	61581.84
618.45	61240.12
618.60	61247.14
618.75	61268.20
618.90	61272.88
619.06	61621.62
619.21	61408.64
619.36	61602.90
619.51	61450.77
619.67	61249.48
619.82	61277.57
619.97	61532.68
620.12	61097.34
620.28	61265.86
620.43	61190.97
620.58	61043.51
620.73	60970.96
620.89	61151.18
621.04	61478.85
621.19	61109.05
621.34	61146.50
621.49	60954.57
621.65	61389.91
621.80	61162.88
621.95	61095.00
622.10	61277.57
622.25	60980.32
622.41	61043.51
622.56	61144.16
622.71	61160.54
622.86	61022.45
623.01	61092.66
623.16	60846.91
623.32	60959.25
623.47	61111.39
623.62	61080.96
623.77	61010.74
623.92	61034.15
624.07	61125.43
624.23	61080.96
624.38	61244.80
624.53	60762.65
624.68	60973.30
624.83	61017.77
624.98	60879.67
625.13	60650.30
625.29	60750.94
625.44	60860.95
625.59	60739.24
625.74	60683.07
625.89	60814.14
626.04	60542.64
626.19	60554.34
626.34	60690.09
626.49	60631.58
626.65	60537.96
626.80	61036.49
626.95	60624.56
627.10	60535.62
627.25	60636.26
627.40	60495.83
627.55	60589.45
627.70	60587.11
627.85	60465.40
628.00	60662.00
628.15	60750.94
628.30	60552.00
628.45	60626.90
628.60	60385.82
628.76	60460.72
628.91	60549.66
629.06	60549.66
629.21	60528.59
629.36	60301.56
629.51	60362.42
629.66	60453.70
629.81	60392.84
629.96	60381.14
630.11	60364.76
630.26	60563.70
630.41	60303.90
630.56	60205.60
630.71	60346.03
630.86	60413.91
631.01	60315.61
631.16	60100.28
631.31	60191.56
631.46	59959.84
631.61	60224.32
631.76	60189.22
631.91	60142.41
632.06	60254.75
632.21	60374.12
632.36	60154.11
632.51	59934.10
632.66	60275.82
632.81	60060.49
632.96	60135.38
633.10	60179.85
633.25	60018.36
633.40	60200.92
633.55	59992.61
633.70	59985.59
633.85	60009.00
634.00	59898.99
634.15	59777.28
634.30	59805.37
634.45	60074.53
634.60	60121.34
634.75	60032.40
634.90	59746.86
635.05	59849.84
635.19	59931.76
635.34	59845.16
635.49	59997.29
635.64	60020.70
635.79	59906.01
635.94	59906.01
636.09	59793.67
636.24	59599.40
636.39	59948.14
636.53	59803.03
636.68	59730.47
636.83	59833.46
636.98	59959.84
637.13	59718.77
637.28	59863.88
637.43	59732.81
637.57	59592.38
637.72	59723.45
637.87	59732.81
638.02	59379.39
638.17	59833.46
638.32	59896.65
638.46	59669.62
638.61	59601.74
638.76	59550.25
638.91	59285.77
639.06	59564.29
639.20	59274.07
639.35	59477.69
639.50	59103.21
639.65	59377.05
639.80	59592.38
639.94	59021.29
640.09	59407.48
640.24	59313.86
640.39	59433.22
640.54	59220.23
640.68	59152.36
640.83	59568.97
640.98	59203.85
641.13	59339.60
641.27	59482.37
641.42	59323.22
641.57	59072.78
641.72	58937.03
641.86	59152.36
642.01	58951.07
642.16	59084.48
642.31	59002.56
642.45	59260.02
642.60	59018.95
642.75	59245.98
642.90	59143.00
643.04	59281.09
643.19	59082.14
643.34	59224.92
643.48	59175.76
643.63	59157.04
643.78	58990.86
643.93	59135.98
644.07	59250.66
644.22	59042.35
644.37	58663.19
644.51	59007.25
644.66	58962.78
644.81	58876.18
644.95	59035.33
645.10	58892.56
645.25	58749.79
645.39	58780.21
645.54	58864.47
645.69	58651.48
645.83	58864.47
645.98	58742.77
646.13	58752.13
646.27	58686.59
646.42	58714.68
646.57	58674.89
646.71	58672.55
646.86	59037.67
647.00	58922.99
647.15	58695.95
647.30	58756.81
647.44	58719.36
647.59	58651.48
647.74	58567.23
647.88	58749.79
648.03	58724.04
648.17	58731.06
648.32	58398.71
648.47	58618.72
648.61	58536.80
648.76	58520.41
648.90	58702.98
649.05	58616.38
649.20	58614.04
649.34	58515.73
649.49	58365.94
649.63	58576.59
649.78	58763.83
649.92	58513.39
650.07	58609.35
650.21	58230.19
650.36	58347.21
650.51	58534.46
650.65	58588.29
650.80	58525.10
650.94	58202.10
651.09	58258.27
651.23	58078.05
651.38	58232.53
651.52	57965.71
651.67	58174.02
651.81	58216.14
651.96	57993.79
652.10	58045.29
652.25	58176.36
652.39	58078.05
652.54	58017.20
652.68	57879.11
652.83	57846.34
652.97	58113.16
653.12	57867.40
653.26	58148.27
653.41	58225.51
653.55	57881.45
653.70	58202.10
653.84	58120.18
653.99	57982.09
654.13	57946.98
654.27	57937.62
654.42	57900.17
654.56	57818.25
654.71	58110.82
654.85	58040.60
655.00	58035.92
655.14	57677.82
655.29	57649.74
655.43	57939.96
655.57	57638.03
655.72	57900.17
655.86	57918.90
656.01	57621.65
656.15	57712.93
656.30	57846.34
656.44	57932.94
656.58	57825.28
656.73	57780.81
656.87	57762.08
657.01	57670.80
657.16	57853.36
657.30	57490.58
657.45	57518.67
657.59	57499.94
657.73	57148.86
657.88	57340.78
658.02	57389.94
658.16	57411.00
658.31	57340.78
658.45	57385.25
658.60	57308.02
658.74	57326.74
658.88	57394.62
659.03	57326.74
659.17	57181.63
659.31	57148.86
659.46	57134.82
659.60	57106.73
659.74	57293.97
659.89	57092.69
660.03	57031.83
660.17	57104.39
660.32	57010.77
660.46	56989.70
660.60	56835.23
660.74	56900.76
660.89	57247.16
661.03	56662.03
661.17	56844.59
661.32	56818.84
661.46	56746.29
661.60	56952.26
661.74	56704.16
661.89	56655.01
662.03	56793.10
662.17	56502.87
662.31	56650.33
662.46	56856.29
662.60	56465.42
662.74	56364.78
662.88	56128.39
663.03	56186.90
663.17	56423.29
663.31	56175.20
663.45	56229.03
663.60	56207.97
663.74	55880.29
663.88	55997.32
664.02	55817.10
664.17	56055.83
664.31	55725.81
664.45	56055.83
664.59	55707.09
664.73	55629.85
664.88	55777.31
665.02	55531.55
665.16	55679.00
665.30	55494.10
665.44	55812.41
665.59	55440.27
665.73	55554.96
665.87	55356.01
666.01	55683.69
666.15	55482.40
666.29	55348.99
666.44	55449.63
666.58	55468.36
666.72	55325.58
666.86	55150.04
667.00	55421.55
667.14	54817.69
667.28	54813.01
667.43	54782.58
667.57	54976.84
667.71	54995.57
667.85	54939.39
667.99	54934.71
668.13	54653.85
668.27	54791.94
668.41	54646.83
668.56	54438.52
668.70	54475.97
668.84	54625.76
668.98	54443.20
669.12	54838.75
669.26	54775.56
669.40	54639.81
669.54	54466.61
669.68	54230.21
669.82	54253.62
669.96	54300.43
670.10	54234.89
670.25	54464.27
670.39	54138.93
670.53	54192.76
670.67	53837.00
670.81	53979.78
670.95	53832.32
671.09	53818.28
671.23	53860.41
671.37	53801.89
671.51	53752.74
671.65	54227.87
671.79	53450.81
671.93	53752.74
672.07	53378.26
672.21	53422.73
672.35	53151.23
672.49	52835.25
672.63	52879.72
672.77	53148.88
672.91	52900.79
673.05	52739.29
673.19	52961.64
673.33	52638.65
673.47	52612.90
673.61	52886.74
673.75	52807.17
673.89	52315.65
674.03	52491.19
674.17	52240.76
674.31	52271.18
674.45	52207.99
674.59	52081.60
674.73	52163.52
674.87	51742.22
675.01	51938.83
675.15	51587.75
675.29	52088.62
675.43	52009.04
675.56	51627.54
675.70	51634.56
675.84	51449.66
675.98	50321.52
676.12	51196.88
676.26	51318.59
676.40	51201.56
676.54	51145.39
676.68	51199.22
676.82	50302.79
676.96	50527.48
677.10	50157.68
677.23	50019.59
677.37	50143.64
677.51	49968.10
677.65	50164.70
677.79	49544.46
677.93	49443.82
678.07	49495.31
678.21	49406.37
678.34	49406.37
678.48	49640.42
678.62	49052.95
678.76	49003.80
678.90	48910.17
679.04	48589.52
679.18	49392.33
679.31	48406.96
679.45	48617.61
679.59	48598.88
679.73	48664.42
679.87	48282.91
680.00	47400.53
680.14	47543.30
680.28	47547.98
680.42	47435.64
680.56	47430.96
680.70	47290.52
680.83	47203.92
680.97	47377.12
681.11	47243.71
681.25	47304.57
681.39	46801.35
681.52	47131.37
681.66	47012.00
681.80	46323.88
681.94	46279.41
682.07	45860.46
682.21	46094.51
682.35	45876.84
682.49	45713.00
682.62	45577.25
682.76	45839.39
682.90	45617.04
683.04	45598.32
683.17	45408.73
683.31	44678.49
683.45	44659.76
683.59	44519.33
683.72	44093.35
683.86	44186.97
684.00	44708.91
684.13	44226.76
684.27	44266.55
684.41	43629.93
684.55	44055.90
684.68	43894.41
684.82	43690.78
684.96	43126.71
685.09	43419.28
685.23	43180.54
685.37	42834.14
685.50	42504.13
685.64	42827.12
685.78	42960.53
685.91	42792.01
686.05	41876.86
686.19	42005.59
686.32	41703.67
686.46	41408.76
686.60	41280.03
686.73	41036.61
686.87	41031.93
687.01	41352.58
687.14	41336.20
687.28	40722.98
687.42	40722.98
687.55	40397.65
687.69	40673.83
687.82	40432.75
687.96	40027.84
688.10	39938.90
688.23	40325.09
688.37	39590.16
688.50	39161.84
688.64	39452.07
688.78	39246.10
688.91	38955.88
689.05	38789.70
689.18	38911.41
689.32	38478.41
689.46	38185.84
689.59	37666.24
689.73	38101.58
689.86	38103.92
690.00	37729.44
690.13	38005.62
690.27	37890.93
690.41	37598.37
690.54	37165.37
690.68	37343.25
690.81	36638.75
690.95	36669.17
691.08	36666.83
691.22	36620.02
691.35	36217.45
691.49	36926.63
691.62	36414.05
691.76	35957.65
691.89	36107.44
692.03	35545.72
692.16	35732.96
692.30	34944.20
692.43	35325.71
692.57	34899.73
692.70	35297.62
692.84	34974.63
692.97	34986.33
693.11	34785.04
693.24	34494.82
693.38	34513.54
693.51	34078.20
693.65	34174.16
693.78	33972.88
693.92	34199.91
694.05	33542.22
694.19	33464.98
694.32	33266.03
694.45	33046.02
694.59	33345.61
694.72	32872.82
694.86	32872.82
694.99	32533.45
695.13	32320.46
695.26	32308.76
695.39	31798.52
695.53	32257.26
695.66	32306.41
695.80	31508.29
695.93	31662.77
696.07	30979.33
696.20	30625.91
696.33	30876.35
696.47	31075.29
696.60	31152.53
696.73	30555.69
696.87	30670.38
697.00	29914.39
697.14	30132.06
697.27	30059.50
697.40	30639.95
697.54	29965.88
697.67	30073.54
697.80	29640.54
697.94	29654.59
698.07	29759.91
698.21	28863.49
698.34	28968.81
698.47	28835.40
698.61	28226.86
698.74	28360.27
698.87	28753.48
699.01	28180.05
699.14	28446.87
699.27	28027.92
699.40	28423.47
699.54	28231.54
699.67	27889.82
699.80	27782.16
699.94	27672.15
700.07	27601.94
700.20	27199.37
700.34	26939.57
700.47	26792.11
700.60	26728.92
700.73	26396.56
700.87	26265.49
701.00	25898.03
701.13	25965.90
701.26	26150.81
701.40	25874.62
701.53	26209.32
701.66	25977.61
701.79	25671.00
701.93	25104.59
702.06	25060.12
702.19	24622.44
702.32	25221.61
702.46	25120.97
702.59	24498.39
702.72	24465.62
702.85	24620.10
702.99	24727.76
703.12	24311.14
703.25	23997.51
703.38	23910.91
703.51	24238.59
703.65	23990.49
703.78	23616.01
703.91	23515.36
704.04	23349.18
704.17	23812.61
704.31	23473.23
704.44	23283.65
704.57	23161.94
704.70	22869.37
704.83	22600.21
704.96	22597.87
705.10	22497.23
705.23	22373.18
>>>>>End Processed Spectral Data<<<<<
