SpectraSuite Data File
++++++++++++++++++++++++++++++++++++
Date: Fri Oct 25 11:26:34 EDT 2013
User: price-jones
Dark Spectrum Present: No
Reference Spectrum Present: No
Number of Sampled Component Spectra: 1
Spectrometers: USB2+H05261
Integration Time (usec): 100000 (USB2+H05261)
Spectra Averaged: 1 (USB2+H05261)
Boxcar Smoothing: 0 (USB2+H05261)
Correct for Electrical Dark: No (USB2+H05261)
Strobe/Lamp Enabled: No (USB2+H05261)
Correct for Detector Non-linearity: No (USB2+H05261)
Correct for Stray Light: No (USB2+H05261)
Number of Pixels in Processed Spectrum: 2048
>>>>>Begin Processed Spectral Data<<<<<
365.73	168.52
365.92	168.52
366.12	168.52
366.32	154.48
366.52	142.77
366.72	191.92
366.91	147.45
367.11	161.50
367.31	105.32
367.51	147.45
367.70	138.09
367.90	138.09
368.10	121.71
368.30	95.96
368.49	93.62
368.69	182.56
368.89	121.71
369.09	170.86
369.28	149.79
369.48	220.01
369.68	145.11
369.87	222.35
370.07	243.42
370.27	248.10
370.47	367.46
370.66	538.32
370.86	629.60
371.06	638.97
371.25	695.14
371.45	606.20
371.65	699.82
371.84	695.14
372.04	655.35
372.24	699.82
372.44	770.04
372.63	730.25
372.83	748.97
373.03	830.89
373.22	767.70
373.42	805.14
373.62	828.55
373.81	809.83
374.01	882.38
374.21	877.70
374.40	809.83
374.60	847.27
374.79	809.83
374.99	884.72
375.19	767.70
375.38	802.80
375.58	826.21
375.78	854.30
375.97	812.17
376.17	926.85
376.37	870.68
376.56	847.27
376.76	952.60
376.95	947.92
377.15	997.07
377.35	891.74
377.54	952.60
377.74	840.25
377.93	983.02
378.13	919.83
378.33	964.30
378.52	954.94
378.72	908.13
378.91	1006.43
379.11	947.92
379.31	987.71
379.50	983.02
379.70	945.58
379.89	1013.45
380.09	1018.13
380.28	898.77
380.48	929.19
380.68	931.53
380.87	1050.90
381.07	994.73
381.26	1055.58
381.46	1041.54
381.65	1013.45
381.85	985.37
382.04	1048.56
382.24	1067.28
382.43	1071.97
382.63	1043.88
382.83	994.73
383.02	1062.60
383.22	1050.90
383.41	1111.75
383.61	1062.60
383.80	1160.91
384.00	1226.44
384.19	1146.86
384.39	1235.80
384.58	1207.72
384.78	1128.14
384.97	1200.69
385.17	1172.61
385.36	1240.48
385.56	1160.91
385.75	1078.99
385.95	1198.35
386.14	1226.44
386.34	1231.12
386.53	1233.46
386.72	1179.63
386.92	1203.04
387.11	1198.35
387.31	1327.08
387.50	1177.29
387.70	1252.19
387.89	1308.36
388.09	1217.08
388.28	1242.82
388.48	1315.38
388.67	1336.45
388.86	1359.85
389.06	1315.38
389.25	1380.92
389.45	1313.04
389.64	1310.70
389.84	1350.49
390.03	1390.28
390.22	1437.09
390.42	1465.18
390.61	1397.30
390.81	1362.19
391.00	1432.41
391.19	1432.41
391.39	1528.37
391.58	1509.65
391.78	1495.60
391.97	1483.90
392.16	1434.75
392.36	1565.82
392.55	1488.58
392.75	1455.81
392.94	1502.62
393.13	1504.96
393.33	1657.10
393.52	1586.88
393.71	1474.54
393.91	1526.03
394.10	1558.80
394.29	1547.09
394.49	1629.01
394.68	1591.56
394.88	1619.65
395.07	1715.61
395.26	1654.76
395.46	1586.88
395.65	1762.42
395.84	1755.40
396.04	1774.13
396.23	1863.07
396.42	1799.87
396.62	1750.72
396.81	1818.60
397.00	1783.49
397.19	1717.95
397.39	1860.73
397.58	1909.88
397.77	1781.15
397.97	1739.02
398.16	1858.39
398.35	1860.73
398.55	1907.54
398.74	1944.99
398.93	1870.09
399.12	1898.17
399.32	1870.09
399.51	1968.39
399.70	2015.20
399.90	1877.11
400.09	1989.46
400.28	2153.29
400.47	2024.56
400.67	2085.42
400.86	2162.66
401.05	2022.22
401.24	2113.50
401.44	2246.91
401.63	2064.35
401.82	2120.53
402.01	2092.44
402.21	2136.91
402.40	2249.25
402.59	2258.62
402.78	2122.87
402.97	2312.45
403.17	2228.19
403.36	2179.04
403.55	2335.85
403.74	2328.83
403.93	2354.58
404.13	2321.81
404.32	2359.26
404.51	2338.20
404.70	2401.39
404.89	2349.90
405.09	2516.08
405.28	2476.29
405.47	2473.95
405.66	2511.39
405.85	2576.93
406.05	2572.25
406.24	2562.89
406.43	2565.23
406.62	2693.96
406.81	2665.87
407.00	2616.72
407.20	2593.31
407.39	2682.25
407.58	2637.78
407.77	2752.47
407.96	2820.35
408.15	2768.85
408.34	2832.05
408.54	2829.71
408.73	2799.28
408.92	2731.41
409.11	2815.66
409.30	2939.71
409.49	2733.75
409.68	2792.26
409.87	2897.58
410.07	2958.44
410.26	3038.02
410.45	2890.56
410.64	3007.59
410.83	3042.70
411.02	3145.68
411.21	3197.17
411.40	3110.57
411.59	3337.60
411.78	3253.34
411.98	3229.94
412.17	3166.74
412.36	3311.86
412.55	3389.10
412.74	3452.29
412.93	3386.76
413.12	3372.71
413.31	3508.46
413.50	3431.23
413.69	3431.23
413.88	3676.98
414.07	3576.34
414.26	3662.94
414.45	3531.87
414.64	3655.92
414.83	3634.85
415.02	3836.14
415.22	3719.11
415.41	3754.22
415.60	3878.27
415.79	3817.41
415.98	3992.95
416.17	3908.69
416.36	4002.32
416.55	3967.21
416.74	4105.30
416.93	3941.46
417.12	4227.01
417.31	4259.78
417.50	4184.88
417.69	4189.56
417.88	4292.54
418.07	4322.97
418.26	4320.63
418.45	4329.99
418.64	4402.55
418.83	4442.34
419.02	4538.30
419.21	4601.49
419.39	4416.59
419.58	4531.28
419.77	4456.38
419.96	4587.45
420.15	4514.89
420.34	4463.40
420.53	4568.73
420.72	4528.94
420.91	4589.79
421.10	4535.96
421.29	4784.06
421.48	4830.87
421.67	4734.90
421.86	4858.95
422.05	4854.27
422.24	4875.34
422.43	4884.70
422.61	4877.68
422.80	4863.63
422.99	5088.32
423.18	5004.07
423.37	4781.71
423.56	5008.75
423.75	4945.55
423.94	4887.04
424.13	4580.43
424.32	4634.26
424.50	4957.25
424.69	5210.03
424.88	5078.96
425.07	4919.81
425.26	4835.55
425.45	4933.85
425.64	4819.16
425.83	4924.49
426.01	5116.41
426.20	5188.97
426.39	5151.52
426.58	4994.70
426.77	5102.37
426.96	4966.62
427.15	5221.74
427.33	5298.97
427.52	5170.24
427.71	5294.29
427.90	5245.14
428.09	5317.70
428.28	5401.96
428.46	5383.23
428.65	5387.91
428.84	5540.05
429.03	5497.92
429.22	5324.72
429.40	5514.30
429.59	5341.10
429.78	5327.06
429.97	5170.24
430.16	5720.27
430.34	5706.23
430.53	5596.22
430.72	5591.54
430.91	5575.16
431.10	5600.90
431.28	5591.54
431.47	5851.34
431.66	5858.36
431.85	5668.78
432.03	5806.87
432.22	5970.71
432.41	5813.89
432.60	5888.79
432.79	5944.96
432.97	5970.71
433.16	5951.98
433.35	5996.45
433.54	5975.39
433.72	6071.35
433.91	6106.46
434.10	6160.29
434.28	6134.54
434.47	6377.96
434.66	6347.53
434.85	6279.66
435.03	6207.10
435.22	6319.45
435.41	6487.96
435.59	6417.75
435.78	6434.13
435.97	6530.09
436.16	6361.58
436.34	6415.41
436.53	6354.55
436.72	6572.22
436.90	6420.09
437.09	6647.12
437.28	6588.61
437.46	6719.68
437.65	6705.63
437.84	6853.09
438.02	6775.85
438.21	6693.93
438.40	6700.95
438.58	7068.42
438.77	7047.35
438.96	7016.93
439.14	7122.25
439.33	7215.87
439.52	7300.13
439.70	7358.64
439.89	7239.28
440.08	7335.24
440.26	7302.47
440.45	7260.34
440.63	7447.58
440.82	7707.38
441.01	7389.07
441.19	7686.32
441.38	7648.87
441.57	7829.09
441.75	7768.24
441.94	7936.76
442.12	8072.51
442.31	7981.23
442.50	8046.76
442.68	8053.78
442.87	8133.36
443.05	8163.79
443.24	8374.44
443.43	8269.11
443.61	8182.51
443.80	8531.25
443.98	7803.35
444.17	7992.93
444.35	8344.01
444.54	8383.80
444.73	8334.65
444.91	8283.16
445.10	8496.14
445.28	8374.44
445.47	8294.86
445.65	8395.50
445.84	8465.72
446.02	8500.83
446.21	8414.23
446.39	8482.10
446.58	8475.08
446.77	8587.43
446.95	8255.07
447.14	8554.66
447.32	8587.43
447.51	8592.11
447.69	8528.91
447.88	8549.98
448.06	8369.76
448.25	8655.30
448.43	8528.91
448.62	8657.64
448.80	8557.00
448.99	8681.05
449.17	8629.56
449.36	8592.11
449.54	8802.75
449.73	9128.09
449.91	8950.21
450.10	8936.17
450.28	9186.60
450.46	9043.83
450.65	9053.19
450.83	8868.29
451.02	9081.28
451.20	9214.69
451.39	9142.13
451.57	9029.79
451.76	9048.51
451.94	9214.69
452.13	9355.12
452.31	9273.20
452.49	9495.55
452.68	9275.54
452.86	9191.28
453.05	9607.90
453.23	9504.92
453.42	9425.34
453.60	9270.86
453.78	9465.13
453.97	9488.53
454.15	9544.70
454.34	9544.70
454.52	9804.50
454.70	9500.23
454.89	9731.95
455.07	9846.63
455.26	10001.11
455.44	9980.04
455.62	9753.01
455.81	10183.67
455.99	10148.56
456.17	10146.22
456.36	10019.83
456.54	10181.33
456.73	10162.61
456.91	10457.51
457.09	10410.70
457.28	10562.84
457.46	10352.19
457.64	10410.70
457.83	10569.86
458.01	10347.51
458.19	10665.82
458.38	10642.42
458.56	10619.01
458.74	10640.08
458.93	10567.52
459.11	10778.17
459.29	10567.52
459.48	10832.00
459.66	10679.86
459.84	10967.75
460.03	10960.73
460.21	11054.35
460.39	10813.28
460.57	11208.83
460.76	11211.17
460.94	11199.46
461.12	11073.07
461.31	11140.95
461.49	10995.84
461.67	11136.27
461.85	11449.90
462.04	11358.62
462.22	11424.15
462.40	11623.10
462.59	11548.20
462.77	11410.11
462.95	11513.10
463.13	11634.80
463.32	11712.04
463.50	11524.80
463.68	11901.62
463.86	11854.81
464.05	11742.47
464.23	11838.43
464.41	11688.64
464.59	11529.48
464.78	12208.23
464.96	11934.39
465.14	11934.39
465.32	11836.09
465.50	12088.87
465.69	12020.99
465.87	11988.22
466.05	12116.95
466.23	12266.75
466.41	12271.43
466.60	12458.67
466.78	12308.88
466.96	12376.75
467.14	12266.75
467.32	12432.93
467.51	12556.97
467.69	12264.41
467.87	12451.65
468.05	12580.38
468.23	12468.03
468.41	12554.63
468.60	12489.10
468.78	12884.65
468.96	12564.00
469.14	13163.17
469.32	12877.63
469.50	12566.34
469.69	12959.55
469.87	13071.89
470.05	13025.08
470.23	13242.75
470.41	13167.85
470.59	13228.71
470.77	13193.60
470.95	13408.93
471.14	13612.56
471.32	13509.57
471.50	13504.89
471.68	13483.83
471.86	13547.02
472.04	13558.72
472.22	14047.90
472.40	13724.90
472.58	13839.59
472.77	14010.45
472.95	14031.51
473.13	14452.81
473.31	14108.75
473.49	14059.60
473.67	14356.85
473.85	14319.40
474.03	14595.58
474.21	14637.71
474.39	14834.32
474.57	14569.83
474.75	14801.55
474.93	14995.81
475.12	14946.66
475.30	15098.80
475.48	15124.54
475.66	15323.49
475.84	15140.93
476.02	15424.13
476.20	15461.58
476.38	15740.10
476.56	15978.84
476.74	15756.49
476.92	15962.45
477.10	15690.95
477.28	16414.18
477.46	16182.46
477.64	16329.92
477.82	16507.80
478.00	16964.20
478.18	16720.79
478.36	17088.25
478.54	16950.16
478.72	17254.43
478.90	17322.30
479.08	17872.33
479.26	17687.43
479.44	17682.75
479.62	17621.89
479.80	18403.63
479.98	18183.62
480.16	18593.22
480.34	18305.33
480.52	18761.73
480.70	18651.73
480.88	18520.66
481.06	18773.44
481.24	18857.70
481.41	19140.90
481.59	19463.90
481.77	19861.79
481.95	19468.58
482.13	19779.87
482.31	19695.61
482.49	20304.15
482.67	20168.40
482.85	20636.50
483.03	20538.20
483.21	20702.04
483.39	21092.91
483.57	20933.75
483.74	21240.36
483.92	21172.49
484.10	21212.28
484.28	21502.50
484.46	22066.57
484.64	22497.23
484.82	22036.14
485.00	22370.84
485.18	22469.14
485.35	23014.49
485.53	22707.88
485.71	23091.73
485.89	23297.69
486.07	23625.37
486.25	23325.78
486.43	23438.12
486.61	23784.52
486.78	23990.49
486.96	24240.93
487.14	24465.62
487.32	24592.01
487.50	25006.28
487.68	25099.90
487.85	25387.79
488.03	25766.96
488.21	25619.50
488.39	26141.44
488.57	26082.93
488.75	26274.85
488.92	26506.57
489.10	26604.87
489.28	26773.39
489.46	27356.18
489.64	27117.45
489.81	27503.64
489.99	27908.55
490.17	27646.41
490.35	28540.49
490.53	28030.26
490.70	28393.04
490.88	28229.20
491.06	28479.64
491.24	28882.21
491.41	28975.83
491.59	28814.34
491.77	29584.37
491.95	29476.71
492.13	29710.76
492.30	30122.69
492.48	30307.60
492.66	29895.66
492.84	30295.89
493.01	30323.98
493.19	30558.03
493.37	31356.16
493.54	31398.29
493.72	31445.10
493.90	31332.75
494.08	31871.07
494.25	31716.60
494.43	31828.95
494.61	32804.95
494.79	32751.12
494.96	32400.04
495.14	33053.05
495.32	33116.24
495.49	33071.77
495.67	33214.54
495.85	33589.03
496.02	33713.08
496.20	34251.40
496.38	34031.39
496.55	34099.26
496.73	34834.19
496.91	34417.58
497.09	34852.92
497.26	34930.16
497.44	35058.88
497.62	35363.15
497.79	35983.40
497.97	35566.78
498.14	35812.54
498.32	36409.37
498.50	36144.89
498.67	36760.45
498.85	36397.67
499.03	36587.25
499.20	36786.20
499.38	37001.53
499.56	36652.79
499.73	37158.34
499.91	37521.13
500.08	37668.58
500.26	37237.92
500.44	37619.43
500.61	38094.56
500.79	37963.49
500.97	38134.35
501.14	38445.64
501.32	38298.19
501.49	38232.65
501.67	39002.69
501.84	38927.79
502.02	39206.31
502.20	39309.30
502.37	39576.12
502.55	39849.96
502.72	39482.50
502.90	40069.97
503.07	39325.68
503.25	39653.36
503.43	39482.50
503.60	40229.13
503.78	40165.93
503.95	40282.96
504.13	40360.20
504.30	40505.31
504.48	40847.03
504.65	40683.19
504.83	41282.37
505.01	41013.21
505.18	41151.30
505.36	41584.30
505.53	41006.19
505.71	41488.34
505.88	42010.28
506.06	41326.84
506.23	42279.44
506.41	42113.26
506.58	42330.93
506.76	42211.56
506.93	42560.30
507.11	42237.31
507.28	42419.87
507.46	42831.80
507.63	42948.83
507.81	43475.45
507.98	42911.38
508.16	43075.22
508.33	43583.12
508.50	43360.76
508.68	43969.30
508.85	43814.83
509.03	43454.39
509.20	44020.80
509.38	44435.07
509.55	44715.93
509.73	44271.23
509.90	44875.09
510.08	44935.95
510.25	44416.35
510.42	45092.76
510.60	45385.33
510.77	45478.95
510.95	45102.12
511.12	45038.93
511.30	45191.06
511.47	45382.99
511.64	45687.26
511.82	45450.86
511.99	45895.56
512.17	45745.77
512.34	45794.92
512.51	46384.74
512.69	46515.81
512.86	46754.54
513.04	46857.52
513.21	46579.00
513.38	47061.15
513.56	46897.31
513.73	46780.29
513.90	47150.09
514.08	46817.74
514.25	47058.81
514.43	47510.53
514.60	47402.87
514.77	47650.97
514.95	48013.75
515.12	47136.05
515.29	47374.78
515.47	47636.92
515.64	48243.12
515.81	48222.06
515.99	48198.65
516.16	48711.23
516.33	48605.91
516.51	48797.83
516.68	48498.24
516.85	48521.65
517.03	48699.53
517.20	48610.59
517.37	49052.95
517.54	48453.77
517.72	49069.33
517.89	48795.49
518.06	49247.21
518.24	48849.32
518.41	49045.93
518.58	49298.70
518.75	49427.43
518.93	49614.68
519.10	49544.46
519.27	49621.70
519.45	49710.64
519.62	50042.99
519.79	50277.05
519.96	50131.93
520.14	50145.98
520.31	50206.83
520.48	50220.87
520.65	50024.27
520.83	50567.27
521.00	50951.12
521.17	50473.65
521.34	50665.58
521.52	51037.72
521.69	51199.22
521.86	50770.90
522.03	51047.08
522.20	51267.09
522.38	51538.60
522.55	51194.54
522.72	51337.31
522.89	51402.85
523.07	51632.22
523.24	51498.81
523.41	51831.16
523.58	51264.75
523.75	52060.54
523.92	51557.32
524.10	51552.64
524.27	52097.98
524.44	52266.50
524.61	51952.87
524.78	52137.77
524.96	52121.39
525.13	52278.21
525.30	52317.99
525.47	52526.30
525.64	52418.64
525.81	52463.11
525.98	52479.49
526.16	52282.89
526.33	52390.55
526.50	53064.63
526.67	52856.32
526.84	52935.90
527.01	52968.66
527.18	53116.12
527.36	53120.80
527.53	52814.19
527.70	53249.53
527.87	53563.16
528.04	53305.70
528.21	53205.06
528.38	53350.17
528.55	53588.91
528.72	53137.18
528.89	53584.22
529.07	53296.34
529.24	53598.27
529.41	53745.72
529.58	53698.91
529.75	53881.47
529.92	53757.42
530.09	53968.07
530.26	53827.64
530.43	54167.02
530.60	53750.40
530.77	54110.85
530.94	54253.62
531.11	54068.72
531.28	54309.79
531.46	54417.46
531.63	54358.94
531.80	54190.42
531.97	54658.53
532.14	54473.63
532.31	54597.68
532.48	54553.21
532.65	54576.61
532.82	54499.37
532.99	54639.81
533.16	54597.68
533.33	54759.17
533.50	54866.84
533.67	55002.59
533.84	54925.35
534.01	54845.77
534.18	54876.20
534.35	55206.22
534.52	54974.50
534.69	55227.28
534.86	55475.38
535.03	55297.50
535.20	55110.25
535.37	55353.67
535.54	55470.70
535.71	55285.79
535.88	55489.42
536.05	55482.40
536.22	55679.00
536.38	55526.87
536.55	55547.93
536.72	55622.83
536.89	55374.73
537.06	55737.52
537.23	55538.57
537.40	55498.78
537.57	55814.76
537.74	55978.59
537.91	56055.83
538.08	55873.27
538.25	55739.86
538.42	55994.98
538.59	56158.81
538.75	55681.34
538.92	56121.37
539.09	56231.37
539.26	56315.63
539.43	56090.94
539.60	56172.86
539.77	56055.83
539.94	56409.25
540.11	56259.46
540.28	56488.83
540.44	56582.45
540.61	56449.04
540.78	56432.66
540.95	56470.11
541.12	56481.81
541.29	56404.57
541.46	56474.79
541.62	56502.87
541.79	56507.55
541.96	56250.09
542.13	56683.09
542.30	56526.28
542.47	56807.14
542.63	56985.02
542.80	56963.96
542.97	57244.82
543.14	57366.53
543.31	57146.52
543.48	57284.61
543.64	57354.83
543.81	57352.49
543.98	57368.87
544.15	57146.52
544.32	57598.24
544.48	57635.69
544.65	57242.48
544.82	57446.11
544.99	57301.00
545.16	57485.90
545.32	57448.45
545.49	57511.64
545.66	57785.49
545.83	57570.16
546.00	57518.67
546.16	57649.74
546.33	57640.37
546.50	57499.94
546.67	57741.02
546.83	57551.43
547.00	57670.80
547.17	57719.95
547.34	57694.21
547.50	57935.28
547.67	58035.92
547.84	57848.68
548.00	58216.14
548.17	58230.19
548.34	57881.45
548.51	57979.75
548.67	58337.85
548.84	58124.86
549.01	58148.27
549.18	58148.27
549.34	58255.93
549.51	58244.23
549.68	58279.34
549.84	58204.44
550.01	58248.91
550.18	58307.43
550.34	58478.28
550.51	58403.39
550.68	58464.24
550.84	58485.31
551.01	58691.27
551.18	58396.37
551.34	58391.68
551.51	58707.66
551.68	58614.04
551.84	58798.94
552.01	58574.25
552.18	58599.99
552.34	58560.20
552.51	58747.45
552.68	58342.53
552.84	58705.32
553.01	58827.02
553.18	58857.45
553.34	58873.84
553.51	58562.54
553.67	58838.73
553.84	58904.26
554.01	59000.22
554.17	59054.06
554.34	59131.29
554.51	59185.13
554.67	59224.92
554.84	59077.46
555.00	58944.05
555.17	58988.52
555.33	59068.10
555.50	58843.41
555.67	59243.64
555.83	59047.04
556.00	58927.67
556.16	59372.37
556.33	59091.51
556.50	59241.30
556.66	59447.27
556.83	58976.82
556.99	59571.32
557.16	59639.19
557.32	59611.10
557.49	59451.95
557.65	59304.49
557.82	59391.09
557.98	59407.48
558.15	59564.29
558.32	59634.51
558.48	59281.09
558.65	59377.05
558.81	59451.95
558.98	59688.34
559.14	59601.74
559.31	59599.40
559.47	59646.21
559.64	59552.59
559.80	59615.79
559.97	59756.22
560.13	59723.45
560.30	59674.30
560.46	59746.86
560.63	59700.04
560.79	59632.17
560.96	59915.37
561.12	59716.43
561.29	60027.72
561.45	59924.74
561.61	59973.89
561.78	59667.28
561.94	59779.62
562.11	59735.15
562.27	60044.10
562.44	59660.26
562.60	60030.06
562.77	60044.10
562.93	59849.84
563.10	60097.94
563.26	59737.49
563.42	59994.95
563.59	60032.40
563.75	60004.31
563.92	60013.68
564.08	60004.31
564.24	60172.83
564.41	59985.59
564.57	60219.64
564.74	60121.34
564.90	60158.79
565.07	60100.28
565.23	60280.50
565.39	60236.03
565.56	60362.42
565.72	60144.75
565.88	60116.66
566.05	60083.89
566.21	60282.84
566.38	60104.96
566.54	60243.05
566.70	60409.23
566.87	60339.01
567.03	60088.57
567.19	60584.77
567.36	60189.22
567.52	60243.05
567.68	60456.04
567.85	60418.59
568.01	60608.17
568.17	60486.46
568.34	60566.04
568.50	60205.60
568.66	60076.87
568.83	60467.74
568.99	60392.84
569.15	60563.70
569.32	60423.27
569.48	60324.97
569.64	60563.70
569.81	60591.79
569.97	60280.50
570.13	60371.78
570.30	60315.61
570.46	60587.11
570.62	60397.52
570.78	60390.50
570.95	60507.53
571.11	60601.15
571.27	60402.21
571.43	60430.29
571.60	60537.96
571.76	60516.89
571.92	60692.43
572.09	60713.50
572.25	60580.09
572.41	60575.40
572.57	60544.98
572.74	60882.02
572.90	60460.72
573.06	60488.80
573.22	60626.90
573.38	60683.07
573.55	60654.98
573.71	60835.20
573.87	60865.63
574.03	60542.64
574.20	60580.09
574.36	60631.58
574.52	60647.96
574.68	60874.99
574.84	60680.73
575.01	60720.52
575.17	60615.19
575.33	60715.84
575.49	60608.17
575.65	60832.86
575.82	60697.11
575.98	60809.46
576.14	60954.57
576.30	60699.45
576.46	60767.33
576.62	60673.71
576.79	60706.47
576.95	60697.11
577.11	60685.41
577.27	60935.85
577.43	60882.02
577.59	60720.52
577.75	60736.90
577.92	60673.71
578.08	60764.99
578.24	60870.31
578.40	61085.64
578.56	61169.90
578.72	60706.47
578.88	61010.74
579.04	61069.26
579.21	60844.57
579.37	60942.87
579.53	61001.38
579.69	60591.79
579.85	60865.63
580.01	60748.60
580.17	60699.45
580.33	60952.23
580.49	60919.46
580.65	61006.06
580.82	60701.79
580.98	60835.20
581.14	60807.12
581.30	61078.62
581.46	61127.77
581.62	60867.97
581.78	60694.77
581.94	60903.08
582.10	60996.70
582.26	60821.16
582.42	61015.43
582.58	60884.36
582.74	60926.49
582.90	61008.40
583.06	60970.96
583.22	60809.46
583.38	60877.33
583.54	60914.78
583.70	60898.40
583.86	61064.58
584.02	61080.96
584.18	60954.57
584.34	61022.45
584.50	60809.46
584.66	60954.57
584.82	60912.44
584.98	61303.31
585.14	60980.32
585.30	60945.21
585.46	61120.75
585.62	60910.10
585.78	60992.02
585.94	60760.31
586.10	60945.21
586.26	60982.66
586.42	61209.69
586.58	61183.94
586.74	61024.79
586.90	60952.23
587.06	60954.57
587.22	60987.34
587.38	60870.31
587.54	61080.96
587.70	61207.35
587.86	61020.11
588.02	60844.57
588.18	61090.32
588.34	61059.90
588.49	61195.65
588.65	60945.21
588.81	61165.22
588.97	61254.16
589.13	61268.20
589.29	60994.36
589.45	61256.50
589.61	61130.11
589.77	61572.47
589.93	61373.53
590.08	61307.99
590.24	61532.68
590.40	61567.79
590.56	61539.71
590.72	61272.88
590.88	61504.60
591.04	61338.42
591.20	61537.36
591.35	61307.99
591.51	61703.54
591.67	61579.49
591.83	61537.36
591.99	61389.91
592.15	61392.25
592.31	61509.28
592.46	61471.83
592.62	61310.33
592.78	61413.32
592.94	61492.89
593.10	61298.63
593.26	61436.72
593.41	61361.82
593.57	61471.83
593.73	61600.56
593.89	61717.59
594.05	61420.34
594.20	61513.96
594.36	61813.55
594.52	61460.13
594.68	61347.78
594.84	61476.51
594.99	61616.94
595.15	61525.66
595.31	61801.85
595.47	61474.17
595.62	61307.99
595.78	61553.75
595.94	61694.18
596.10	61614.60
596.25	61499.92
596.41	61563.11
596.57	61467.15
596.73	61553.75
596.88	61502.26
597.04	61556.09
597.20	61731.63
597.36	61612.26
597.51	61675.46
597.67	61410.98
597.83	61389.91
597.99	61778.44
598.14	61712.91
598.30	61630.99
598.46	61757.38
598.61	61752.69
598.77	61593.54
598.93	61661.41
599.09	61630.99
599.24	61839.29
599.40	61829.93
599.56	61832.27
599.71	61771.42
599.87	61965.68
600.03	61717.59
600.18	61609.92
600.34	61733.97
600.50	61680.14
600.65	61736.31
600.81	61766.74
600.97	61783.12
601.12	61764.40
601.28	61687.16
601.44	61628.65
601.59	61755.03
601.75	61626.31
601.91	61724.61
602.06	61853.34
602.22	61935.26
602.37	61914.19
602.53	61740.99
602.69	61647.37
602.84	61544.39
603.00	61755.03
603.16	61757.38
603.31	61961.00
603.47	61822.91
603.62	61532.68
603.78	61900.15
603.94	61670.78
604.09	61956.32
604.25	61621.62
604.40	61528.00
604.56	61881.42
604.71	61939.94
604.87	61638.01
605.03	61801.85
605.18	61736.31
605.34	61680.14
605.49	61745.67
605.65	61860.36
605.80	61911.85
605.96	62040.58
606.12	61858.02
606.27	61867.38
606.43	61638.01
606.58	61764.40
606.74	61752.69
606.89	61724.61
607.05	61904.83
607.20	61750.35
607.36	61595.88
607.51	61776.10
607.67	61567.79
607.82	61628.65
607.98	61820.57
608.13	61645.03
608.29	61886.10
608.44	61502.26
608.60	61385.23
608.75	61549.07
608.91	61710.56
609.06	61600.56
609.22	61696.52
609.37	61645.03
609.53	61748.01
609.68	61560.77
609.84	61677.80
609.99	61628.65
610.15	61687.16
610.30	61659.07
610.46	61705.88
610.61	61684.82
610.76	61778.44
610.92	61638.01
611.07	61752.69
611.23	61460.13
611.38	61691.84
611.54	61483.53
611.69	61520.98
611.84	61380.55
612.00	61591.20
612.15	61418.00
612.31	61516.30
612.46	61528.00
612.62	61591.20
612.77	61560.77
612.92	61607.58
613.08	61408.64
613.23	61347.78
613.39	61474.17
613.54	61593.54
613.69	61415.66
613.85	61694.18
614.00	61726.95
614.15	61654.39
614.31	61605.24
614.46	61558.43
614.62	61359.48
614.77	61261.18
614.92	61382.89
615.08	61361.82
615.23	61336.08
615.38	61429.70
615.54	61408.64
615.69	61303.31
615.84	61268.20
616.00	61457.79
616.15	61289.27
616.30	61460.13
616.46	61352.46
616.61	61216.71
616.76	61338.42
616.92	61329.06
617.07	61418.00
617.22	61179.26
617.37	61221.39
617.53	61434.38
617.68	61310.33
617.83	61195.65
617.99	61207.35
618.14	61254.16
618.29	61214.37
618.45	60980.32
618.60	61090.32
618.75	61095.00
618.90	61123.09
619.06	61207.35
619.21	60985.00
619.36	61289.27
619.51	61254.16
619.67	60872.65
619.82	60966.27
619.97	61179.26
620.12	60928.83
620.28	60945.21
620.43	61066.92
620.58	61034.15
620.73	60825.84
620.89	61181.60
621.04	61111.39
621.19	61003.72
621.34	61083.30
621.49	60821.16
621.65	61006.06
621.80	61022.45
621.95	60701.79
622.10	60928.83
622.25	60879.67
622.41	61139.47
622.56	60917.12
622.71	60992.02
622.86	60718.18
623.01	60772.01
623.16	60886.70
623.32	60772.01
623.47	61034.15
623.62	60856.27
623.77	60870.31
623.92	60830.52
624.07	60910.10
624.23	60816.48
624.38	60757.97
624.53	60568.38
624.68	60659.66
624.83	60561.36
624.98	60755.63
625.13	60519.23
625.29	60624.56
625.44	60589.45
625.59	60533.28
625.74	60643.28
625.89	60516.89
626.04	60453.70
626.19	60383.48
626.34	60526.25
626.49	60247.73
626.65	60437.31
626.80	60598.81
626.95	60214.96
627.10	60254.75
627.25	60268.79
627.40	60257.09
627.55	60463.06
627.70	60331.99
627.85	60331.99
628.00	60334.33
628.15	60381.14
628.30	60254.75
628.45	60336.67
628.60	60205.60
628.76	60310.92
628.91	60587.11
629.06	60203.26
629.21	60243.05
629.36	60200.92
629.51	60233.69
629.66	60212.62
629.81	59849.84
629.96	60016.02
630.11	59978.57
630.26	60184.54
630.41	60210.28
630.56	60053.47
630.71	60055.81
630.86	60116.66
631.01	60119.00
631.16	59985.59
631.31	59945.80
631.46	59653.23
631.61	59906.01
631.76	59952.82
631.91	60079.21
632.06	59927.08
632.21	60093.25
632.36	59910.69
632.51	59592.38
632.66	59852.18
632.81	59695.36
632.96	60013.68
633.10	59779.62
633.25	59908.35
633.40	59863.88
633.55	60083.89
633.70	59868.56
633.85	59786.64
634.00	59576.00
634.15	59587.70
634.30	59681.32
634.45	59636.85
634.60	60053.47
634.75	59796.01
634.90	59400.46
635.05	59819.41
635.19	59758.56
635.34	59760.90
635.49	59870.90
635.64	59728.13
635.79	59423.86
635.94	59449.61
636.09	59578.34
636.24	59484.72
636.39	59653.23
636.53	59796.01
636.68	59522.16
636.83	59643.87
636.98	59700.04
637.13	59409.82
637.28	59400.46
637.43	59421.52
637.57	59646.21
637.72	59295.13
637.87	59433.22
638.02	59517.48
638.17	59463.65
638.32	59355.99
638.46	59330.24
638.61	59292.79
638.76	59348.96
638.91	59451.95
639.06	59229.60
639.20	59124.27
639.35	59166.40
639.50	59077.46
639.65	59238.96
639.80	59269.39
639.94	59063.42
640.09	59217.89
640.24	59107.89
640.39	59051.72
640.54	58967.46
640.68	59126.61
640.83	59098.53
640.98	58885.54
641.13	59189.81
641.27	59353.65
641.42	59138.32
641.57	59040.01
641.72	59089.16
641.86	58770.85
642.01	58829.37
642.16	58972.14
642.31	58745.11
642.45	59274.07
642.60	59168.74
642.75	58939.37
642.90	58836.39
643.04	58878.52
643.19	58712.34
643.34	58892.56
643.48	58763.83
643.63	58719.36
643.78	58937.03
643.93	58958.09
644.07	58759.15
644.22	58810.64
644.37	58447.86
644.51	58429.13
644.66	58663.19
644.81	58611.70
644.95	58632.76
645.10	58618.72
645.25	58595.31
645.39	58520.41
645.54	58375.30
645.69	58651.48
645.83	58618.72
645.98	58520.41
646.13	58817.66
646.27	58658.51
646.42	58497.01
646.57	58597.65
646.71	58548.50
646.86	58777.87
647.00	58602.33
647.15	58536.80
647.30	58525.10
647.44	58665.53
647.59	58426.79
647.74	58784.90
647.88	58487.65
648.03	58651.48
648.17	58450.20
648.32	58450.20
648.47	58370.62
648.61	58209.12
648.76	58419.77
648.90	58274.66
649.05	58103.80
649.20	58438.50
649.34	58342.53
649.49	58426.79
649.63	58567.23
649.78	58630.42
649.92	58145.93
650.07	58300.40
650.21	58094.44
650.36	58141.25
650.51	57942.30
650.65	58445.52
650.80	58068.69
650.94	58152.95
651.09	57977.41
651.23	57855.70
651.38	58052.31
651.52	57750.38
651.67	57841.66
651.81	57963.37
651.96	57888.47
652.10	58302.74
652.25	57862.72
652.39	57853.36
652.54	57757.40
652.68	57666.12
652.83	57642.71
652.97	57883.79
653.12	57600.58
653.26	57890.81
653.41	57944.64
653.55	57614.63
653.70	57806.55
653.84	57921.24
653.99	57916.56
654.13	57748.04
654.27	57621.65
654.42	57659.10
654.56	57558.45
654.71	57544.41
654.85	57682.50
655.00	57923.58
655.14	57446.11
655.29	57511.64
655.43	57673.14
655.57	57432.07
655.72	57521.01
655.86	57380.57
656.01	57631.01
656.15	57502.28
656.30	57680.16
656.44	57668.46
656.58	57537.39
656.73	57425.04
656.87	57588.88
657.01	57207.37
657.16	57539.73
657.30	57389.94
657.45	57242.48
657.59	57261.21
657.73	57034.17
657.88	57069.28
658.02	57160.56
658.16	57226.10
658.31	57202.69
658.45	57261.21
658.60	57113.75
658.74	57237.80
658.88	57109.07
659.03	56802.46
659.17	56872.68
659.31	57076.30
659.46	56999.07
659.60	57029.49
659.74	57024.81
659.89	56662.03
660.03	56842.25
660.17	56999.07
660.32	56755.65
660.46	57057.58
660.60	56966.30
660.74	56900.76
660.89	57027.15
661.03	56582.45
661.17	56399.89
661.32	56402.23
661.46	56301.59
661.60	56378.82
661.74	56207.97
661.89	56371.80
662.03	56360.10
662.17	56161.15
662.31	56261.80
662.46	56402.23
662.60	56149.45
662.74	56133.07
662.88	56200.94
663.03	56013.70
663.17	56170.52
663.31	55964.55
663.45	56135.41
663.60	55625.17
663.74	55770.28
663.88	55477.72
664.02	55770.28
664.17	55922.42
664.31	55440.27
664.45	55573.68
664.59	55578.36
664.73	55852.20
664.88	55407.50
665.02	55662.62
665.16	55501.12
665.30	55295.16
665.44	55559.64
665.59	55119.62
665.73	55262.39
665.87	55082.17
666.01	55325.58
666.15	55316.22
666.29	55360.69
666.44	55290.48
666.58	55070.46
666.72	54766.20
666.86	55084.51
667.00	54911.31
667.14	54775.56
667.28	55192.17
667.43	54705.34
667.57	54798.96
667.71	54714.70
667.85	54585.97
667.99	54382.35
668.13	54471.29
668.27	54258.30
668.41	54286.39
668.56	54475.97
668.70	54096.80
668.84	54274.68
668.98	54087.44
669.12	54005.52
669.26	54213.83
669.40	54143.61
669.54	54253.62
669.68	54265.32
669.82	54391.71
669.96	54061.69
670.10	53993.82
670.25	54340.22
670.39	53944.67
670.53	53935.30
670.67	53708.27
670.81	53851.05
670.95	53731.68
671.09	53670.82
671.23	53614.65
671.37	53659.12
671.51	53614.65
671.65	53301.02
671.79	53223.78
671.93	53247.19
672.07	53256.55
672.21	53319.74
672.35	52961.64
672.49	52643.33
672.63	52704.18
672.77	52577.79
672.91	52612.90
673.05	52474.81
673.19	52334.38
673.33	52285.23
673.47	52390.55
673.61	52559.07
673.75	52423.32
673.89	52273.52
674.03	51971.60
674.17	51835.84
674.31	51732.86
674.45	51987.98
674.59	51409.87
674.73	51709.46
674.87	51686.05
675.01	51517.53
675.15	51569.02
675.29	51531.57
675.43	51552.64
675.56	51117.30
675.70	51143.05
675.84	51136.02
675.98	49916.61
676.12	51447.32
676.26	50965.17
676.40	50806.01
676.54	50539.19
676.68	50843.46
676.82	49977.46
676.96	50319.18
677.10	50167.04
677.23	50153.00
677.37	50019.59
677.51	49741.06
677.65	49219.13
677.79	48612.93
677.93	49202.74
678.07	49125.50
678.21	48846.98
678.34	48856.34
678.48	49254.23
678.62	48790.81
678.76	48556.75
678.90	48624.63
679.04	48786.13
679.18	48821.23
679.31	47751.61
679.45	48020.77
679.59	48252.48
679.73	48217.38
679.87	47789.06
680.00	47870.98
680.14	46862.21
680.28	47227.33
680.42	46930.08
680.56	46937.10
680.70	46710.07
680.83	46590.70
680.97	46773.27
681.11	47157.11
681.25	46415.16
681.39	46267.71
681.52	46234.94
681.66	46424.53
681.80	45773.86
681.94	45900.25
682.07	45834.71
682.21	45471.93
682.35	45872.16
682.49	45146.59
682.62	44910.20
682.76	45109.14
682.90	45350.22
683.04	45069.36
683.17	44582.52
683.31	44346.13
683.45	44418.69
683.59	44425.71
683.72	44540.39
683.86	43950.58
684.00	43693.12
684.13	44079.31
684.27	44039.52
684.41	44325.07
684.55	43672.06
684.68	43400.55
684.82	43196.93
684.96	42787.33
685.09	43019.05
685.23	42454.98
685.37	42742.86
685.50	42295.82
685.64	42335.61
685.78	42288.80
685.91	42295.82
686.05	41771.54
686.19	41333.86
686.32	41273.01
686.46	41193.43
686.60	40823.62
686.73	40947.67
686.87	41067.04
687.01	40713.62
687.14	40882.14
687.28	40233.81
687.42	40737.02
687.55	40065.29
687.69	40643.40
687.82	39812.51
687.96	39538.67
688.10	39461.43
688.23	39772.72
688.37	39374.83
688.50	39222.70
688.64	39075.24
688.78	38686.71
688.91	38323.93
689.05	39014.39
689.18	38401.17
689.32	37413.46
689.46	37708.37
689.59	37799.65
689.73	37876.89
689.86	37141.96
690.00	36886.84
690.13	37380.70
690.27	37701.35
690.41	37621.77
690.54	36678.54
690.68	36835.35
690.81	36343.84
690.95	36538.10
691.08	36299.37
691.22	36182.34
691.35	36077.02
691.49	35519.97
691.62	35728.28
691.76	35405.28
691.89	35395.92
692.03	35325.71
692.16	35431.03
692.30	35019.10
692.43	35402.94
692.57	34464.39
692.70	34597.80
692.84	34352.04
692.97	34827.17
693.11	34380.13
693.24	34190.55
693.38	33582.01
693.51	33593.71
693.65	33799.68
693.78	33352.63
693.92	33371.36
694.05	33301.14
694.19	33095.18
694.32	32872.82
694.45	33144.33
694.59	32659.84
694.72	32524.08
694.86	32723.03
694.99	32224.50
695.13	31887.46
695.26	32226.84
695.39	31550.42
695.53	32402.38
695.66	31805.54
695.80	31693.19
695.93	31271.90
696.07	30583.78
696.20	30663.36
696.33	30764.00
696.47	30782.73
696.60	30625.91
696.73	30551.01
696.87	30024.39
697.00	30314.62
697.14	30197.59
697.27	29823.11
697.40	30092.27
697.54	29544.58
697.67	29680.33
697.80	29481.39
697.94	29387.77
698.07	28910.30
698.21	28823.70
698.34	29179.46
698.47	28786.25
698.61	28367.29
698.74	28414.10
698.87	28458.57
699.01	28416.44
699.14	28013.87
699.27	28479.64
699.40	28189.41
699.54	27803.22
699.67	27515.34
699.80	27639.39
699.94	27517.68
700.07	27548.11
700.20	26888.07
700.34	26618.91
700.47	26501.89
700.60	26342.73
700.73	26450.39
700.87	25888.67
701.00	25900.37
701.13	25631.21
701.26	25837.17
701.40	26384.86
701.53	25841.85
701.66	25488.43
701.79	25544.61
701.93	25230.98
702.06	24774.57
702.19	25413.54
702.32	24737.12
702.46	24652.86
702.59	24634.14
702.72	24479.66
702.85	24603.71
702.99	24575.62
703.12	24233.91
703.25	23728.35
703.38	23798.57
703.51	23803.25
703.65	23578.56
703.78	23143.22
703.91	23316.42
704.04	23407.70
704.17	23192.37
704.31	23253.22
704.44	22904.48
704.57	22684.47
704.70	22614.26
704.83	22548.72
704.96	22146.15
705.10	22197.64
705.23	22054.87
>>>>>End Processed Spectral Data<<<<<
