SpectraSuite Data File
++++++++++++++++++++++++++++++++++++
Date: Fri Oct 25 11:23:20 EDT 2013
User: price-jones
Dark Spectrum Present: No
Reference Spectrum Present: No
Number of Sampled Component Spectra: 1
Spectrometers: USB2+H05261
Integration Time (usec): 100000 (USB2+H05261)
Spectra Averaged: 1 (USB2+H05261)
Boxcar Smoothing: 0 (USB2+H05261)
Correct for Electrical Dark: No (USB2+H05261)
Strobe/Lamp Enabled: No (USB2+H05261)
Correct for Detector Non-linearity: No (USB2+H05261)
Correct for Stray Light: No (USB2+H05261)
Number of Pixels in Processed Spectrum: 2048
>>>>>Begin Processed Spectral Data<<<<<
365.73	208.31
365.92	208.31
366.12	208.31
366.32	205.97
366.52	121.71
366.72	161.50
366.91	105.32
367.11	100.64
367.31	107.66
367.51	121.71
367.70	154.48
367.90	208.31
368.10	126.39
368.30	161.50
368.49	163.84
368.69	140.43
368.89	166.18
369.09	142.77
369.28	196.60
369.48	182.56
369.68	170.86
369.87	168.52
370.07	175.54
370.27	210.65
370.47	276.18
370.66	566.41
370.86	669.39
371.06	685.78
371.25	683.44
371.45	695.14
371.65	655.35
371.84	627.26
372.04	692.80
372.24	716.20
372.44	760.67
372.63	809.83
372.83	800.46
373.03	779.40
373.22	800.46
373.42	725.57
373.62	758.33
373.81	723.23
374.01	786.42
374.21	786.42
374.40	798.12
374.60	833.23
374.79	741.95
374.99	709.18
375.19	854.30
375.38	807.48
375.58	793.44
375.78	791.10
375.97	861.32
376.17	851.96
376.37	823.87
376.56	866.00
376.76	898.77
376.95	858.98
377.15	887.06
377.35	945.58
377.54	933.87
377.74	898.77
377.93	917.49
378.13	915.15
378.33	882.38
378.52	908.13
378.72	896.43
378.91	908.13
379.11	980.68
379.31	971.32
379.50	912.81
379.70	994.73
379.89	1027.50
380.09	931.53
380.28	901.11
380.48	936.21
380.68	959.62
380.87	947.92
381.07	959.62
381.26	1104.73
381.46	1043.88
381.65	938.55
381.85	1008.77
382.04	1062.60
382.24	1107.07
382.43	1100.05
382.63	1057.92
382.83	1062.60
383.02	1081.33
383.22	1137.50
383.41	1114.10
383.61	1128.14
383.80	1165.59
384.00	1172.61
384.19	1083.67
384.39	1167.93
384.58	1139.84
384.78	1144.52
384.97	1123.46
385.17	1151.54
385.36	1142.18
385.56	1203.04
385.75	1095.37
385.95	1188.99
386.14	1228.78
386.34	1198.35
386.53	1188.99
386.72	1149.20
386.92	1111.75
387.11	1188.99
387.31	1263.89
387.50	1174.95
387.70	1249.85
387.89	1240.48
388.09	1280.27
388.28	1345.81
388.48	1282.61
388.67	1266.23
388.86	1352.83
389.06	1357.51
389.25	1376.24
389.45	1352.83
389.64	1355.17
389.84	1359.85
390.03	1444.11
390.22	1371.55
390.42	1476.88
390.61	1329.42
390.81	1369.21
391.00	1404.32
391.19	1364.53
391.39	1458.15
391.58	1481.56
391.78	1488.58
391.97	1432.41
392.16	1437.09
392.36	1572.84
392.55	1495.60
392.75	1558.80
392.94	1556.46
393.13	1577.52
393.33	1502.62
393.52	1556.46
393.71	1551.78
393.91	1600.93
394.10	1633.69
394.29	1612.63
394.49	1668.80
394.68	1584.54
394.88	1652.42
395.07	1643.06
395.26	1724.97
395.46	1771.79
395.65	1671.14
395.84	1802.21
396.04	1757.74
396.23	1746.04
396.42	1764.76
396.62	1734.34
396.81	1701.57
397.00	1802.21
397.19	1844.34
397.39	1886.47
397.58	1839.66
397.77	1851.36
397.97	1874.77
398.16	1912.22
398.35	1944.99
398.55	1867.75
398.74	1980.09
398.93	1895.83
399.12	1879.45
399.32	2024.56
399.51	1923.92
399.70	2022.22
399.90	1937.96
400.09	2024.56
400.28	2139.25
400.47	2010.52
400.67	2125.21
400.86	2066.69
401.05	2160.31
401.24	2225.85
401.44	2162.66
401.63	2258.62
401.82	2167.34
402.01	2036.27
402.21	2169.68
402.40	2160.31
402.59	2216.49
402.78	2246.91
402.97	2326.49
403.17	2338.20
403.36	2286.70
403.55	2307.77
403.74	2347.56
403.93	2380.32
404.13	2420.11
404.32	2441.18
404.51	2345.22
404.70	2380.32
404.89	2534.80
405.09	2597.99
405.28	2511.39
405.47	2448.20
405.66	2438.84
405.85	2462.24
406.05	2621.40
406.24	2548.84
406.43	2621.40
406.62	2656.51
406.81	2738.43
407.00	2616.72
407.20	2729.06
407.39	2647.15
407.58	2686.94
407.77	2768.85
407.96	2806.30
408.15	2766.51
408.34	2768.85
408.54	2810.98
408.73	2754.81
408.92	2757.15
409.11	2946.73
409.30	2825.03
409.49	2834.39
409.68	2946.73
409.87	2993.55
410.07	2942.05
410.26	2890.56
410.45	2904.60
410.64	3030.99
410.83	3049.72
411.02	3077.80
411.21	3243.98
411.40	3236.96
411.59	3141.00
411.78	3346.97
411.98	3077.80
412.17	3386.76
412.36	3243.98
412.55	3288.45
412.74	3478.04
412.93	3426.54
413.12	3405.48
413.31	3599.74
413.50	3419.52
413.69	3499.10
413.88	3646.55
414.07	3637.19
414.26	3648.90
414.45	3702.73
414.64	3756.56
414.83	3817.41
415.02	3831.46
415.22	3932.10
415.41	4053.81
415.60	3969.55
415.79	3946.14
415.98	4067.85
416.17	4025.72
416.36	3939.12
416.55	4098.28
416.74	4016.36
416.93	4131.05
417.12	4135.73
417.31	4135.73
417.50	4194.24
417.69	4245.73
417.88	4332.33
418.07	4159.13
418.26	4269.14
418.45	4278.50
418.64	4542.98
418.83	4341.69
419.02	4571.07
419.21	4517.23
419.39	4573.41
419.58	4491.49
419.77	4533.62
419.96	4636.60
420.15	4671.71
420.34	4674.05
420.53	4692.77
420.72	4739.58
420.91	4823.84
421.10	4830.87
421.29	4781.71
421.48	4802.78
421.67	4842.57
421.86	4922.15
422.05	4805.12
422.24	4875.34
422.43	4961.94
422.61	5034.49
422.80	5020.45
422.99	5034.49
423.18	4961.94
423.37	5259.18
423.56	5029.81
423.75	4901.08
423.94	4945.55
424.13	4655.33
424.32	4779.37
424.50	5188.97
424.69	5207.69
424.88	5305.99
425.07	5050.88
425.26	4997.04
425.45	5008.75
425.64	5146.84
425.83	5085.98
426.01	5191.31
426.20	5221.74
426.39	5242.80
426.58	5170.24
426.77	5156.20
426.96	5207.69
427.15	5186.63
427.33	5291.95
427.52	5193.65
427.71	5275.57
427.90	5355.15
428.09	5523.66
428.28	5385.57
428.46	5462.81
428.65	5432.38
428.84	5696.86
429.03	5610.26
429.22	5481.53
429.40	5497.92
429.59	5533.03
429.78	5558.77
429.97	5256.84
430.16	5591.54
430.34	5565.79
430.53	5790.49
430.72	5823.25
430.91	5802.19
431.10	5673.46
431.28	5804.53
431.47	5895.81
431.66	5987.09
431.85	5823.25
432.03	6003.47
432.22	6115.82
432.41	5998.79
432.60	6064.33
432.79	5989.43
432.97	6080.71
433.16	6237.53
433.35	6036.24
433.54	6225.82
433.72	6296.04
433.91	6174.33
434.10	6314.77
434.28	6104.12
434.47	6200.08
434.66	6424.77
434.85	6380.30
435.03	6401.37
435.22	6289.02
435.41	6581.59
435.59	6373.28
435.78	6612.01
435.97	6476.26
436.16	6422.43
436.34	6516.05
436.53	6654.14
436.72	6733.72
436.90	6626.06
437.09	6558.18
437.28	6602.65
437.46	6707.98
437.65	6817.98
437.84	6895.22
438.02	6583.93
438.21	7000.54
438.40	6853.09
438.58	7012.24
438.77	7152.68
438.96	7026.29
439.14	7122.25
439.33	7236.94
439.52	7162.04
439.70	7283.75
439.89	7482.69
440.08	7456.95
440.26	7585.68
440.45	7302.47
440.63	7538.87
440.82	7646.53
441.01	7618.44
441.19	7857.18
441.38	7786.96
441.57	7885.26
441.75	7873.56
441.94	8065.49
442.12	8124.00
442.31	8088.89
442.50	8140.38
442.68	7983.57
442.87	8161.45
443.05	8222.30
443.24	8154.43
443.43	8215.28
443.61	8131.02
443.80	8393.16
443.98	8140.38
444.17	7911.01
444.35	8407.20
444.54	8465.72
444.73	8454.02
444.91	8451.67
445.10	8355.71
445.28	8336.99
445.47	8573.38
445.65	8308.90
445.84	8461.04
446.02	8531.25
446.21	8624.87
446.39	8423.59
446.58	8463.38
446.77	8514.87
446.95	8283.16
447.14	8521.89
447.32	8599.13
447.51	8402.52
447.69	8449.33
447.88	8461.04
448.06	8695.09
448.25	8437.63
448.43	8741.90
448.62	8571.04
448.80	8650.62
448.99	8826.16
449.17	8910.42
449.36	8739.56
449.54	9132.77
449.73	9085.96
449.91	9291.93
450.10	9107.02
450.28	9308.31
450.46	9139.79
450.65	9217.03
450.83	9210.01
451.02	9235.75
451.20	9364.48
451.39	9085.96
451.57	9327.03
451.76	9107.02
451.94	9544.70
452.13	9488.53
452.31	9427.68
452.49	9338.74
452.68	9320.01
452.86	9465.13
453.05	9664.07
453.23	9497.89
453.42	9439.38
453.60	9401.93
453.78	9584.49
453.97	9659.39
454.15	9699.18
454.34	9640.67
454.52	9619.60
454.70	9874.72
454.89	9792.80
455.07	9949.62
455.26	9905.15
455.44	9888.76
455.62	10136.86
455.81	9968.34
455.99	10143.88
456.17	10092.39
456.36	10059.62
456.54	10427.09
456.73	10281.97
456.91	10759.44
457.09	10562.84
457.28	10736.04
457.46	10401.34
457.64	10780.51
457.83	10586.24
458.01	10422.41
458.19	10834.34
458.38	10567.52
458.56	10892.85
458.74	10813.28
458.93	10712.63
459.11	10911.58
459.29	10721.99
459.48	10881.15
459.66	11061.37
459.84	11035.63
460.03	11204.14
460.21	11169.04
460.39	11225.21
460.57	11241.59
460.76	11288.40
460.94	11185.42
461.12	11290.74
461.31	11180.74
461.49	11363.30
461.67	11323.51
461.85	11723.74
462.04	11382.03
462.22	11716.72
462.40	11721.40
462.59	11555.22
462.77	11810.34
462.95	11641.82
463.13	11712.04
463.32	11960.14
463.50	11630.12
463.68	12009.29
463.86	12175.47
464.05	11840.77
464.23	11798.64
464.41	11953.12
464.59	11934.39
464.78	12559.31
464.96	12006.95
465.14	12161.42
465.32	12245.68
465.50	12458.67
465.69	12212.92
465.87	12456.33
466.05	12241.00
466.23	12453.99
466.41	12421.22
466.60	12599.10
466.78	12311.22
466.96	12432.93
467.14	12381.43
467.32	12491.44
467.51	12624.85
467.69	12475.06
467.87	12442.29
468.05	12896.35
468.23	12573.36
468.41	12671.66
468.60	12634.21
468.78	13163.17
468.96	12716.13
469.14	12966.57
469.32	13027.42
469.50	12765.28
469.69	13104.66
469.87	13188.92
470.05	13198.28
470.23	13469.78
470.41	13362.12
470.59	13472.12
470.77	13341.05
470.95	13245.09
471.14	13745.97
471.32	13245.09
471.50	13991.72
471.68	13818.52
471.86	13818.52
472.04	14015.13
472.22	14129.81
472.40	13724.90
472.58	13830.23
472.77	14260.88
472.95	14176.62
473.13	14785.16
473.31	14216.41
473.49	14164.92
473.67	14185.99
473.85	14427.06
474.03	14850.70
474.21	14972.41
474.39	15115.18
474.57	14981.77
474.75	15075.39
474.93	15279.02
475.12	15377.32
475.30	15370.30
475.48	15272.00
475.66	15555.20
475.84	15531.80
476.02	15449.88
476.20	15644.14
476.38	16121.61
476.56	16128.63
476.74	16266.72
476.92	16343.96
477.10	16086.50
477.28	16372.05
477.46	16769.94
477.64	16358.00
477.82	16762.92
478.00	17018.04
478.18	17156.13
478.36	17174.85
478.54	17385.50
478.72	17202.94
478.90	17785.73
479.08	17666.36
479.26	18015.10
479.44	17776.37
479.62	18216.39
479.80	18277.24
479.98	18555.77
480.16	18890.46
480.34	18677.48
480.52	18616.62
480.70	18977.06
480.88	18782.80
481.06	19124.52
481.24	19241.54
481.41	19463.90
481.59	19594.96
481.77	19784.55
481.95	19908.60
482.13	19688.59
482.31	19899.23
482.49	20652.89
482.67	20615.44
482.85	20835.45
483.03	20798.00
483.21	21184.19
483.39	20940.77
483.57	21245.04
483.74	21207.59
483.92	21441.65
484.10	21291.85
484.28	21598.46
484.46	22593.19
484.64	22469.14
484.82	22324.03
485.00	22555.74
485.18	22857.67
485.35	22899.80
485.53	23236.84
485.71	23302.37
485.89	23910.91
486.07	23461.53
486.25	23742.39
486.43	24156.67
486.61	24093.47
486.78	24458.60
486.96	24374.34
487.14	25226.29
487.32	24971.18
487.50	25069.48
487.68	25149.06
487.85	25432.26
488.03	25799.73
488.21	25956.54
488.39	25949.52
488.57	26525.29
488.75	26639.98
488.92	26560.40
489.10	27021.48
489.28	27388.95
489.46	27456.82
489.64	27552.79
489.81	28016.21
489.99	28032.60
490.17	27941.32
490.35	28528.79
490.53	28226.86
490.70	28875.19
490.88	28872.85
491.06	29186.48
491.24	29338.62
491.41	29546.92
491.59	29624.16
491.77	29481.39
491.95	29940.13
492.13	30103.97
492.30	30382.49
492.48	30635.27
492.66	30834.22
492.84	30541.65
493.01	31168.91
493.19	31101.04
493.37	31218.07
493.54	31393.61
493.72	31971.72
493.90	31955.33
494.08	32315.78
494.25	32257.26
494.43	32332.16
494.61	32802.61
494.79	32554.51
494.96	33017.94
495.14	33247.31
495.32	33308.16
495.49	33785.63
495.67	33598.39
495.85	34132.03
496.02	34162.46
496.20	34319.28
496.38	34487.79
496.55	34513.54
496.73	34998.03
496.91	34993.35
497.09	35187.61
497.26	35316.34
497.44	35524.65
497.62	36098.08
497.79	36226.81
497.97	35899.14
498.14	36278.30
498.32	36683.22
498.50	36868.12
498.67	37078.77
498.85	37008.55
499.03	37090.47
499.20	37673.26
499.38	37109.19
499.56	37809.01
499.73	37500.06
499.91	38024.34
500.08	38014.98
500.26	38052.43
500.44	37972.85
500.61	38370.74
500.79	38286.48
500.97	38424.57
501.14	39079.92
501.32	39019.07
501.49	39222.70
501.67	39632.29
501.84	39297.59
502.02	39454.41
502.20	39491.86
502.37	39510.58
502.55	39803.15
502.72	39964.65
502.90	39906.13
503.07	40030.18
503.25	40088.70
503.43	40304.02
503.60	40383.60
503.78	40449.14
503.95	41038.95
504.13	41469.61
504.30	41184.07
504.48	41181.73
504.65	41333.86
504.83	41368.97
505.01	41914.31
505.18	41940.06
505.36	41986.87
505.53	41918.99
505.71	41930.70
505.88	42120.28
506.06	42410.51
506.23	42677.33
506.41	42181.13
506.58	42483.06
506.76	42553.28
506.93	42752.23
507.11	43278.85
507.28	42995.64
507.46	43452.05
507.63	43753.97
507.81	43786.74
507.98	43611.20
508.16	43498.86
508.33	44128.46
508.50	43840.57
508.68	43938.88
508.85	44332.09
509.03	44194.00
509.20	44624.65
509.38	44847.00
509.55	44252.51
509.73	45043.61
509.90	45134.89
510.08	44758.06
510.25	45254.26
510.42	45216.81
510.60	45275.32
510.77	45890.88
510.95	45804.28
511.12	45315.11
511.30	45734.07
511.47	45656.83
511.64	45858.12
511.82	46190.47
511.99	46440.91
512.17	46356.65
512.34	46335.59
512.51	47192.22
512.69	47119.66
512.86	46899.65
513.04	47161.79
513.21	46997.96
513.38	47323.29
513.56	47665.01
513.73	47182.86
513.90	47435.64
514.08	47267.12
514.25	47636.92
514.43	47880.34
514.60	48002.05
514.77	47934.17
514.95	48364.83
515.12	47938.85
515.29	48076.94
515.47	48949.96
515.64	48659.74
515.81	48236.10
515.99	48947.62
516.16	49109.12
516.33	48739.32
516.51	49057.63
516.68	49090.40
516.85	48807.19
517.03	49298.70
517.20	49507.01
517.37	49052.95
517.54	49069.33
517.72	49841.71
517.89	49696.59
518.06	49834.69
518.24	49701.28
518.41	49720.00
518.58	50021.93
518.75	50124.91
518.93	50422.16
519.10	50068.74
519.27	50220.87
519.45	50461.95
519.62	50333.22
519.79	50401.10
519.96	50127.25
520.14	50492.38
520.31	50291.09
520.48	50738.13
520.65	50740.47
520.83	51353.69
521.00	51323.27
521.17	51058.79
521.34	51231.99
521.52	51246.03
521.69	51154.75
521.86	51531.57
522.03	51564.34
522.20	51679.03
522.38	51847.55
522.55	51714.14
522.72	51496.47
522.89	51688.39
523.07	51859.25
523.24	51983.30
523.41	52067.56
523.58	51824.14
523.75	52327.36
523.92	52034.79
524.10	52687.80
524.27	52271.18
524.44	52573.11
524.61	52540.35
524.78	52603.54
524.96	52584.82
525.13	52935.90
525.30	52910.15
525.47	52928.87
525.64	52617.58
525.81	53221.44
525.98	53340.81
526.16	52982.71
526.33	53144.20
526.50	53345.49
526.67	53219.10
526.84	53518.69
527.01	52954.62
527.18	53200.38
527.36	53488.26
527.53	53642.74
527.70	53703.59
527.87	53876.79
528.04	53497.62
528.21	53705.93
528.38	53600.61
528.55	54141.27
528.72	53921.26
528.89	53769.13
529.07	53820.62
529.24	53710.61
529.41	54085.10
529.58	53918.92
529.75	54281.70
529.92	53954.03
530.09	54220.85
530.26	54281.70
530.43	54569.59
530.60	53972.75
530.77	54447.88
530.94	54658.53
531.11	54571.93
531.28	54724.07
531.46	54450.22
531.63	54850.45
531.80	54398.73
531.97	54749.81
532.14	55016.63
532.31	54855.14
532.48	54684.28
532.65	54983.86
532.82	54911.31
532.99	55011.95
533.16	54948.76
533.33	55011.95
533.50	55124.30
533.67	54939.39
533.84	55091.53
534.01	55199.19
534.18	55339.63
534.35	55363.03
534.52	55657.94
534.69	56044.13
534.86	55601.77
535.03	55297.50
535.20	55728.16
535.37	55636.87
535.54	55608.79
535.71	55482.40
535.88	55915.40
536.05	55976.25
536.22	55978.59
536.38	55959.87
536.55	56062.85
536.72	55976.25
536.89	55957.53
537.06	56137.75
537.23	56009.02
537.40	56140.09
537.57	56137.75
537.74	56390.53
537.91	56285.20
538.08	56507.55
538.25	55903.70
538.42	56191.58
538.59	56673.73
538.75	56205.62
538.92	56425.64
539.09	56556.70
539.26	56280.52
539.43	56769.69
539.60	56638.62
539.77	56540.32
539.94	56664.37
540.11	56757.99
540.28	56767.35
540.44	56811.82
540.61	56924.17
540.78	56814.16
540.95	57022.47
541.12	56626.92
541.29	56830.55
541.46	57008.43
541.62	56882.04
541.79	57029.49
541.96	56741.61
542.13	56978.00
542.30	57059.92
542.47	57240.14
542.63	57144.18
542.80	57249.50
542.97	57528.03
543.14	57668.46
543.31	57799.53
543.48	57518.67
543.64	57771.44
543.81	57581.86
543.98	57752.72
544.15	57518.67
544.32	57813.57
544.48	57820.59
544.65	57623.99
544.82	57745.70
544.99	57689.52
545.16	57780.81
545.32	57663.78
545.49	57944.64
545.66	58122.52
545.83	58078.05
546.00	57900.17
546.16	57858.04
546.33	57914.22
546.50	58071.03
546.67	57998.48
546.83	57495.26
547.00	58202.10
547.17	58064.01
547.34	58115.50
547.50	58141.25
547.67	58632.76
547.84	58110.82
548.00	58398.71
548.17	58515.73
548.34	58389.34
548.51	58632.76
548.67	58515.73
548.84	58553.18
549.01	58368.28
549.18	58319.13
549.34	58365.94
549.51	58543.82
549.68	58740.42
549.84	58534.46
550.01	58688.93
550.18	58574.25
550.34	58894.90
550.51	58782.55
550.68	58773.19
550.84	58539.14
551.01	58738.08
551.18	59030.65
551.34	58925.33
551.51	58988.52
551.68	58848.09
551.84	59004.91
552.01	58763.83
552.18	59037.67
552.34	59032.99
552.51	59159.38
552.68	59007.25
552.84	58983.84
553.01	59098.53
553.18	59192.15
553.34	59250.66
553.51	59117.25
553.67	59119.59
553.84	59164.06
554.01	59339.60
554.17	59243.64
554.34	59405.14
554.51	59341.94
554.67	59508.12
554.84	59355.99
555.00	59377.05
555.17	59220.23
555.33	59381.73
555.50	59203.85
555.67	59264.70
555.83	59435.56
556.00	59405.14
556.16	59423.86
556.33	59744.51
556.50	59496.42
556.66	59491.74
556.83	59454.29
556.99	59707.07
557.16	59833.46
557.32	59636.85
557.49	59985.59
557.65	59529.19
557.82	59671.96
557.98	59601.74
558.15	59847.50
558.32	59817.07
558.48	59636.85
558.65	59805.37
558.81	59737.49
558.98	60037.08
559.14	60044.10
559.31	59987.93
559.47	60076.87
559.64	59906.01
559.80	60158.79
559.97	59976.23
560.13	59882.61
560.30	60142.41
560.46	60245.39
560.63	60097.94
560.79	60149.43
560.96	60324.97
561.12	60189.22
561.29	60219.64
561.45	60334.33
561.61	60097.94
561.78	60032.40
561.94	60357.74
562.11	60147.09
562.27	60140.07
562.44	60292.20
562.60	60406.89
562.77	60383.48
562.93	60095.60
563.10	60198.58
563.26	60116.66
563.42	60505.19
563.59	60357.74
563.75	60034.74
563.92	60362.42
564.08	60200.92
564.24	60369.44
564.41	60594.13
564.57	60378.80
564.74	60449.02
564.90	60411.57
565.07	60547.32
565.23	60484.12
565.39	60378.80
565.56	60397.52
565.72	60418.59
565.88	60505.19
566.05	60250.07
566.21	60486.46
566.38	60495.83
566.54	60584.77
566.70	60697.11
566.87	60800.10
567.03	60509.87
567.19	60809.46
567.36	60678.39
567.52	60491.15
567.68	60788.39
567.85	60760.31
568.01	60729.88
568.17	60673.71
568.34	60711.16
568.50	60741.58
568.66	60493.49
568.83	60622.22
568.99	60603.49
569.15	60816.48
569.32	60786.05
569.48	60715.84
569.64	60874.99
569.81	60591.79
569.97	60774.35
570.13	60837.54
570.30	60678.39
570.46	60940.53
570.62	60793.07
570.78	60900.74
570.95	60605.83
571.11	60893.72
571.27	60755.63
571.43	60933.51
571.60	60985.00
571.76	60713.50
571.92	61008.40
572.09	60898.40
572.25	60856.27
572.41	60807.12
572.57	60736.90
572.74	61340.76
572.90	60956.91
573.06	61041.17
573.22	60811.80
573.38	60889.04
573.55	61020.11
573.71	61186.28
573.87	60872.65
574.03	60739.24
574.20	61078.62
574.36	60931.17
574.52	60835.20
574.68	61001.38
574.84	60938.19
575.01	60982.66
575.17	60898.40
575.33	61055.21
575.49	60870.31
575.65	60903.08
575.82	61022.45
575.98	61092.66
576.14	61268.20
576.30	61130.11
576.46	61087.98
576.62	60900.74
576.79	61017.77
576.95	60914.78
577.11	61134.79
577.27	61214.37
577.43	61092.66
577.59	60996.70
577.75	61153.52
577.92	60872.65
578.08	60926.49
578.24	61137.13
578.40	61230.75
578.56	61193.31
578.72	61111.39
578.88	61305.65
579.04	61324.38
579.21	61031.81
579.37	61329.06
579.53	61331.40
579.69	60907.76
579.85	61057.56
580.01	61045.85
580.17	61090.32
580.33	61085.64
580.49	61190.97
580.65	61083.30
580.82	61190.97
580.98	61172.24
581.14	60935.85
581.30	61151.18
581.46	61127.77
581.62	61303.31
581.78	61202.67
581.94	61315.01
582.10	61041.17
582.26	61223.73
582.42	61050.53
582.58	61165.22
582.74	61263.52
582.90	61315.01
583.06	61251.82
583.22	61052.87
583.38	61340.76
583.54	61312.67
583.70	61277.57
583.86	61254.16
584.02	61036.49
584.18	61263.52
584.34	61263.52
584.50	61331.40
584.66	61186.28
584.82	61116.07
584.98	61528.00
585.14	61237.78
585.30	61270.54
585.46	61406.30
585.62	61359.48
585.78	61298.63
585.94	61312.67
586.10	61289.27
586.26	61432.04
586.42	61319.70
586.58	61338.42
586.74	61420.34
586.90	61340.76
587.06	61197.99
587.22	61427.36
587.38	61413.32
587.54	61460.13
587.70	61537.36
587.86	61469.49
588.02	61099.68
588.18	61352.46
588.34	61240.12
588.49	61495.24
588.65	61256.50
588.81	61329.06
588.97	61460.13
589.13	61495.24
589.29	61654.39
589.45	61654.39
589.61	61560.77
589.77	61778.44
589.93	61736.31
590.08	61680.14
590.24	61418.00
590.40	61743.33
590.56	61811.21
590.72	61535.02
590.88	61675.46
591.04	61523.32
591.20	61890.79
591.35	61656.73
591.51	61893.13
591.67	61792.48
591.83	61733.97
591.99	61696.52
592.15	61668.44
592.31	61607.58
592.46	61778.44
592.62	61682.48
592.78	61591.20
592.94	61888.45
593.10	61661.41
593.26	61876.74
593.41	61726.95
593.57	61652.05
593.73	61829.93
593.89	62031.22
594.05	61822.91
594.20	61661.41
594.36	61769.08
594.52	61776.10
594.68	61736.31
594.84	61684.82
594.99	61860.36
595.15	61628.65
595.31	61755.03
595.47	61729.29
595.62	61771.42
595.78	61691.84
595.94	62120.16
596.10	62010.15
596.25	62042.92
596.41	61977.39
596.57	61745.67
596.73	61783.12
596.88	61909.51
597.04	61855.68
597.20	61975.05
597.36	62129.52
597.51	61989.09
597.67	61815.89
597.83	61813.55
597.99	61986.75
598.14	62059.30
598.30	62024.20
598.46	62026.54
598.61	62101.43
598.77	61804.19
598.93	62031.22
599.09	61794.82
599.24	62237.19
599.40	62230.16
599.56	61977.39
599.71	62017.17
599.87	62134.20
600.03	62038.24
600.18	62042.92
600.34	61904.83
600.50	62028.88
600.65	61776.10
600.81	62040.58
600.97	61953.98
601.12	62049.94
601.28	62056.96
601.44	61900.15
601.59	62080.37
601.75	61921.21
601.91	62033.56
602.06	61991.43
602.22	62150.59
602.37	62087.39
602.53	61970.36
602.69	62003.13
602.84	61977.39
603.00	62071.01
603.16	62148.24
603.31	61923.55
603.47	62052.28
603.62	61993.77
603.78	62152.93
603.94	62225.48
604.09	62178.67
604.25	62223.14
604.40	62005.47
604.56	62054.62
604.71	62049.94
604.87	62038.24
605.03	62047.60
605.18	62150.59
605.34	62211.44
605.49	61914.19
605.65	62305.06
605.80	61897.81
605.96	62213.78
606.12	62145.90
606.27	62042.92
606.43	61815.89
606.58	62384.64
606.74	61944.62
606.89	62085.05
607.05	61867.38
607.20	61977.39
607.36	61860.36
607.51	61949.30
607.67	61726.95
607.82	61769.08
607.98	61726.95
608.13	61860.36
608.29	61914.19
608.44	61773.76
608.60	61932.92
608.75	61832.27
608.91	61874.40
609.06	61630.99
609.22	62005.47
609.37	61986.75
609.53	61846.32
609.68	61965.68
609.84	61832.27
609.99	61984.41
610.15	62178.67
610.30	62054.62
610.46	62054.62
610.61	61804.19
610.76	61855.68
610.92	61843.98
611.07	61719.93
611.23	61832.27
611.38	61792.48
611.54	61694.18
611.69	61825.25
611.84	61801.85
612.00	61694.18
612.15	61769.08
612.31	61918.87
612.46	61579.49
612.62	61766.74
612.77	61776.10
612.92	61813.55
613.08	61689.50
613.23	61769.08
613.39	61715.25
613.54	61577.15
613.69	61783.12
613.85	61605.24
614.00	62003.13
614.15	61961.00
614.31	61766.74
614.46	61696.52
614.62	61846.32
614.77	61675.46
614.92	61752.69
615.08	61684.82
615.23	61673.12
615.38	61799.50
615.54	61684.82
615.69	61504.60
615.84	61661.41
616.00	61649.71
616.15	61680.14
616.30	61811.21
616.46	61530.34
616.61	61621.62
616.76	61549.07
616.92	61186.28
617.07	61633.33
617.22	61408.64
617.37	61506.94
617.53	61773.76
617.68	61595.88
617.83	61572.47
617.99	61460.13
618.14	61551.41
618.29	61467.15
618.45	61389.91
618.60	61354.80
618.75	61237.78
618.90	61389.91
619.06	61605.24
619.21	61511.62
619.36	61528.00
619.51	61516.30
619.67	61123.09
619.82	61373.53
619.97	61408.64
620.12	61315.01
620.28	61261.18
620.43	61481.19
620.58	61249.48
620.73	61303.31
620.89	61235.44
621.04	61284.59
621.19	61137.13
621.34	61296.29
621.49	61167.56
621.65	61169.90
621.80	61403.95
621.95	61118.41
622.10	61214.37
622.25	61069.26
622.41	61410.98
622.56	61109.05
622.71	61284.59
622.86	60949.89
623.01	60910.10
623.16	61069.26
623.32	60767.33
623.47	61130.11
623.62	61200.33
623.77	61153.52
623.92	61095.00
624.07	61197.99
624.23	61153.52
624.38	60982.66
624.53	61043.51
624.68	60905.42
624.83	61010.74
624.98	61043.51
625.13	60886.70
625.29	61155.86
625.44	60825.84
625.59	60910.10
625.74	60928.83
625.89	60657.32
626.04	60664.35
626.19	60757.97
626.34	60732.22
626.49	60664.35
626.65	60575.40
626.80	60629.24
626.95	60662.00
627.10	60484.12
627.25	60430.29
627.40	60437.31
627.55	60465.40
627.70	60561.36
627.85	60605.83
628.00	60542.64
628.15	60715.84
628.30	60687.75
628.45	60654.98
628.60	60449.02
628.76	60573.06
628.91	60713.50
629.06	60617.53
629.21	60596.47
629.36	60383.48
629.51	60383.48
629.66	60439.65
629.81	60385.82
629.96	60313.26
630.11	60507.53
630.26	60441.99
630.41	60430.29
630.56	60418.59
630.71	60413.91
630.86	60575.40
631.01	60151.77
631.16	60458.38
631.31	60093.25
631.46	60034.74
631.61	60303.90
631.76	60268.79
631.91	60257.09
632.06	60411.57
632.21	60303.90
632.36	60170.49
632.51	60107.30
632.66	60203.26
632.81	60055.81
632.96	60205.60
633.10	60161.13
633.25	60116.66
633.40	60259.43
633.55	60116.66
633.70	60243.05
633.85	59887.29
634.00	60156.45
634.15	59898.99
634.30	60001.97
634.45	59983.25
634.60	60308.58
634.75	60020.70
634.90	59784.30
635.05	59842.82
635.19	60032.40
635.34	60060.49
635.49	59824.09
635.64	59969.21
635.79	59781.96
635.94	59969.21
636.09	60233.69
636.24	59849.84
636.39	59812.39
636.53	60104.96
636.68	59751.54
636.83	59814.73
636.98	60023.04
637.13	59852.18
637.28	59594.72
637.43	59812.39
637.57	59983.25
637.72	59700.04
637.87	59688.34
638.02	59564.29
638.17	59917.71
638.32	59861.54
638.46	59405.14
638.61	59573.66
638.76	59348.96
638.91	59503.44
639.06	59381.73
639.20	59615.79
639.35	59487.06
639.50	59318.54
639.65	59587.70
639.80	59531.53
639.94	59428.54
640.09	59559.61
640.24	59437.90
640.39	59470.67
640.54	59248.32
640.68	59370.03
640.83	59313.86
640.98	59334.92
641.13	59238.96
641.27	59501.10
641.42	59309.18
641.57	59276.41
641.72	59110.23
641.86	59096.19
642.01	59086.82
642.16	59274.07
642.31	59203.85
642.45	59430.88
642.60	59105.55
642.75	59416.84
642.90	59241.30
643.04	59030.65
643.19	59178.10
643.34	59011.93
643.48	59248.32
643.63	59126.61
643.78	59061.08
643.93	59133.63
644.07	59264.70
644.22	59143.00
644.37	58990.86
644.51	58918.31
644.66	59042.35
644.81	58798.94
644.95	58958.09
645.10	59128.95
645.25	58951.07
645.39	58798.94
645.54	58789.58
645.69	58873.84
645.83	58798.94
645.98	58820.00
646.13	58646.80
646.27	58871.49
646.42	58822.34
646.57	58915.96
646.71	58990.86
646.86	58974.48
647.00	58836.39
647.15	58775.53
647.30	58543.82
647.44	58670.21
647.59	58859.79
647.74	58852.77
647.88	58845.75
648.03	58841.07
648.17	58618.72
648.32	58475.94
648.47	58735.74
648.61	58672.55
648.76	58609.35
648.90	58328.49
649.05	58541.48
649.20	58812.98
649.34	58658.51
649.49	58805.96
649.63	58721.70
649.78	58801.28
649.92	58651.48
650.07	58534.46
650.21	58574.25
650.36	58578.93
650.51	58382.32
650.65	58637.44
650.80	58602.33
650.94	58272.32
651.09	58082.73
651.23	58183.38
651.38	58141.25
651.52	58379.98
651.67	58337.85
651.81	58178.70
651.96	58059.33
652.10	58082.73
652.25	58138.91
652.39	58185.72
652.54	58033.58
652.68	58010.18
652.83	58251.25
652.97	58342.53
653.12	58045.29
653.26	58204.44
653.41	58213.80
653.55	58007.84
653.70	58148.27
653.84	57982.09
653.99	58064.01
654.13	57942.30
654.27	57820.59
654.42	57904.85
654.56	58005.50
654.71	58284.02
654.85	57979.75
655.00	58159.97
655.14	57909.53
655.29	57666.12
655.43	57893.15
655.57	57602.92
655.72	57705.91
655.86	57801.87
656.01	57982.09
656.15	57666.12
656.30	57516.32
656.44	57890.81
656.58	57687.18
656.73	57794.85
656.87	57736.34
657.01	57808.89
657.16	57703.57
657.30	57701.23
657.45	57705.91
657.59	57556.11
657.73	57361.85
657.88	57450.79
658.02	57488.24
658.16	57567.82
658.31	57317.38
658.45	57312.70
658.60	57567.82
658.74	57443.77
658.88	57469.51
659.03	57190.99
659.17	57205.03
659.31	57066.94
659.46	57268.23
659.60	57202.69
659.74	57293.97
659.89	57235.46
660.03	57345.47
660.17	57102.05
660.32	56966.30
660.46	57052.90
660.60	56921.83
660.74	57106.73
660.89	57120.77
661.03	56884.38
661.17	56760.33
661.32	56638.62
661.46	56554.36
661.60	56982.68
661.74	56631.60
661.89	56622.24
662.03	56554.36
662.17	56580.11
662.31	56528.62
662.46	56624.58
662.60	56528.62
662.74	56577.77
662.88	56610.54
663.03	56172.86
663.17	56198.60
663.31	56254.78
663.45	56310.95
663.60	56114.34
663.74	55847.52
663.88	56044.13
664.02	56133.07
664.17	56072.21
664.31	55781.99
664.45	55910.72
664.59	56158.81
664.73	55847.52
664.88	56020.72
665.02	55451.97
665.16	55793.69
665.30	55969.23
665.44	55700.07
665.59	55597.09
665.73	55608.79
665.87	55302.18
666.01	55494.10
666.15	55564.32
666.29	55416.86
666.44	55686.03
666.58	55554.96
666.72	55473.04
666.86	55238.98
667.00	55327.92
667.14	54871.52
667.28	55192.17
667.43	55320.90
667.57	55267.07
667.71	54930.03
667.85	54630.44
667.99	54798.96
668.13	55065.78
668.27	55044.72
668.41	55089.19
668.56	54597.68
668.70	54740.45
668.84	54553.21
668.98	54775.56
669.12	54497.03
669.26	54843.43
669.40	55014.29
669.54	54578.95
669.68	54370.64
669.82	54358.94
669.96	54340.22
670.10	54394.05
670.25	54452.56
670.39	54148.29
670.53	54213.83
670.67	54162.34
670.81	54028.93
670.95	54068.72
671.09	53928.28
671.23	53818.28
671.37	53998.50
671.51	53544.44
671.65	53743.38
671.79	53518.69
671.93	53865.09
672.07	53701.25
672.21	53467.20
672.35	53123.14
672.49	53118.46
672.63	53008.45
672.77	52889.09
672.91	52818.87
673.05	52903.13
673.19	53048.24
673.33	52832.91
673.47	52406.94
673.61	52739.29
673.75	52753.33
673.89	52439.70
674.03	52282.89
674.17	52729.93
674.31	52292.25
674.45	51730.52
674.59	52002.02
674.73	52161.18
674.87	51908.40
675.01	51716.48
675.15	51880.31
675.29	51987.98
675.43	51704.77
675.56	51395.82
675.70	51433.27
675.84	51456.68
675.98	50602.38
676.12	51400.50
676.26	51517.53
676.40	51433.27
676.54	51334.97
676.68	51168.79
676.82	50497.06
676.96	50843.46
677.10	50321.52
677.23	50272.37
677.37	50206.83
677.51	50447.91
677.65	49853.41
677.79	49703.62
677.93	49680.21
678.07	49621.70
678.21	49141.89
678.34	49694.25
678.48	49153.59
678.62	49361.90
678.76	49099.76
678.90	49001.46
679.04	48875.07
679.18	49059.97
679.31	48210.35
679.45	48722.93
679.59	48603.56
679.73	48603.56
679.87	48336.74
680.00	47842.89
680.14	47683.73
680.28	47906.08
680.42	48032.47
680.56	47316.27
680.70	47192.22
680.83	47255.42
680.97	47367.76
681.11	47742.25
681.25	47370.10
681.39	46742.84
681.52	46717.09
681.66	46684.33
681.80	46696.03
681.94	46260.69
682.07	46546.23
682.21	46003.23
682.35	45771.52
682.49	45942.38
682.62	45663.85
682.76	45827.69
682.90	45607.68
683.04	45996.21
683.17	45289.37
683.31	45038.93
683.45	45104.46
683.59	44886.79
683.72	44706.57
683.86	44814.24
684.00	44790.83
684.13	44708.91
684.27	44254.85
684.41	44334.43
684.55	44098.03
684.68	44390.60
684.82	43702.48
684.96	43536.30
685.09	43683.76
685.23	43405.23
685.37	42958.19
685.50	42658.60
685.64	42653.92
685.78	42820.10
685.91	42738.18
686.05	42508.81
686.19	41909.63
686.32	41853.46
686.46	41780.90
686.60	41001.50
686.73	41233.22
686.87	40889.16
687.01	41134.92
687.14	41167.68
687.28	40872.78
687.42	41137.26
687.55	40713.62
687.69	40830.65
687.82	40280.62
687.96	39702.51
688.10	39789.11
688.23	40559.14
688.37	40114.44
688.50	39295.25
688.64	39658.04
688.78	39484.84
688.91	38913.75
689.05	38972.26
689.18	38600.12
689.32	38265.42
689.46	38211.59
689.59	38382.45
689.73	38251.38
689.86	37738.80
690.00	37670.92
690.13	38134.35
690.27	37633.47
690.41	37787.95
690.54	37074.09
690.68	37247.29
690.81	37186.43
690.95	36966.42
691.08	37067.06
691.22	36872.80
691.35	36128.51
691.49	36491.29
691.62	36910.25
691.76	35805.52
691.89	35868.71
692.03	36084.04
692.16	35765.73
692.30	35346.77
692.43	35679.13
692.57	34899.73
692.70	35325.71
692.84	35274.21
692.97	35054.20
693.11	34916.11
693.24	34768.66
693.38	34005.64
693.51	34089.90
693.65	33998.62
693.78	33689.67
693.92	33666.27
694.05	34213.95
694.19	33167.73
694.32	33802.02
694.45	32889.21
694.59	32982.83
694.72	33134.96
694.86	33301.14
694.99	32701.96
695.13	32240.88
695.26	32610.68
695.39	31519.99
695.53	31906.18
695.66	32311.10
695.80	31807.88
695.93	31721.28
696.07	31115.08
696.20	31262.54
696.33	31070.61
696.47	31204.02
696.60	31194.66
696.73	30691.44
696.87	30658.68
697.00	30377.81
697.14	30693.79
697.27	30272.49
697.40	29926.09
697.54	29970.56
697.67	29785.66
697.80	29806.72
697.94	29846.51
698.07	29385.43
698.21	29266.06
698.34	29638.20
698.47	28882.21
698.61	28240.90
698.74	28510.07
698.87	29003.92
699.01	28151.96
699.14	28704.33
699.27	28386.02
699.40	28346.23
699.54	28474.96
699.67	27800.88
699.80	27878.12
699.94	27985.79
700.07	27475.55
700.20	27491.93
700.34	27131.49
700.47	26871.69
700.60	26977.01
700.73	26457.42
700.87	25965.90
701.00	26127.40
701.13	26384.86
701.26	25963.56
701.40	26249.11
701.53	26216.34
701.66	26024.42
701.79	25575.03
701.93	25518.86
702.06	25076.50
702.19	25158.42
702.32	25436.94
702.46	25142.03
702.59	24882.24
702.72	24898.62
702.85	24554.56
702.99	24765.21
703.12	24545.20
703.25	24238.59
703.38	23775.16
703.51	24180.07
703.65	23763.46
703.78	23623.03
703.91	23812.61
704.04	23468.55
704.17	23360.89
704.31	23651.11
704.44	23194.71
704.57	23276.63
704.70	23246.20
704.83	22867.03
704.96	22946.61
705.10	22588.51
705.23	22427.01
>>>>>End Processed Spectral Data<<<<<
