SpectraSuite Data File
++++++++++++++++++++++++++++++++++++
Date: Fri Oct 25 11:26:19 EDT 2013
User: price-jones
Dark Spectrum Present: No
Reference Spectrum Present: No
Number of Sampled Component Spectra: 1
Spectrometers: USB2+H05261
Integration Time (usec): 100000 (USB2+H05261)
Spectra Averaged: 1 (USB2+H05261)
Boxcar Smoothing: 0 (USB2+H05261)
Correct for Electrical Dark: No (USB2+H05261)
Strobe/Lamp Enabled: No (USB2+H05261)
Correct for Detector Non-linearity: No (USB2+H05261)
Correct for Stray Light: No (USB2+H05261)
Number of Pixels in Processed Spectrum: 2048
>>>>>Begin Processed Spectral Data<<<<<
365.73	234.05
365.92	234.05
366.12	234.05
366.32	133.41
366.52	107.66
366.72	210.65
366.91	147.45
367.11	191.92
367.31	175.54
367.51	177.88
367.70	140.43
367.90	163.84
368.10	149.79
368.30	234.05
368.49	135.75
368.69	196.60
368.89	168.52
369.09	166.18
369.28	140.43
369.48	161.50
369.68	149.79
369.87	187.24
370.07	201.29
370.27	217.67
370.47	339.38
370.66	566.41
370.86	660.03
371.06	711.52
371.25	699.82
371.45	601.52
371.65	704.50
371.84	755.99
372.04	763.01
372.24	770.04
372.44	697.48
372.63	653.01
372.83	739.61
373.03	657.69
373.22	751.31
373.42	800.46
373.62	809.83
373.81	784.08
374.01	889.40
374.21	873.02
374.40	875.36
374.60	875.36
374.79	835.57
374.99	774.72
375.19	833.23
375.38	821.53
375.58	842.59
375.78	875.36
375.97	866.00
376.17	870.68
376.37	842.59
376.56	826.21
376.76	882.38
376.95	891.74
377.15	933.87
377.35	858.98
377.54	875.36
377.74	894.08
377.93	828.55
378.13	854.30
378.33	922.17
378.52	851.96
378.72	966.64
378.91	938.55
379.11	933.87
379.31	847.27
379.50	926.85
379.70	997.07
379.89	968.98
380.09	933.87
380.28	945.58
380.48	1071.97
380.68	1022.81
380.87	973.66
381.07	1039.20
381.26	1055.58
381.46	1013.45
381.65	1043.88
381.85	1132.82
382.04	1036.86
382.24	1090.69
382.43	1078.99
382.63	1062.60
382.83	1111.75
383.02	1069.62
383.22	1144.52
383.41	1067.28
383.61	1128.14
383.80	1125.80
384.00	1109.41
384.19	1142.18
384.39	1156.22
384.58	1163.25
384.78	1177.29
384.97	1200.69
385.17	1165.59
385.36	1200.69
385.56	1170.27
385.75	1086.01
385.95	1263.89
386.14	1160.91
386.34	1261.55
386.53	1242.82
386.72	1198.35
386.92	1174.95
387.11	1282.61
387.31	1226.44
387.50	1214.74
387.70	1294.32
387.89	1371.55
388.09	1212.40
388.28	1240.48
388.48	1261.55
388.67	1373.89
388.86	1390.28
389.06	1331.76
389.25	1294.32
389.45	1355.17
389.64	1366.87
389.84	1336.45
390.03	1357.51
390.22	1430.07
390.42	1343.47
390.61	1210.06
390.81	1437.09
391.00	1385.60
391.19	1380.92
391.39	1401.98
391.58	1446.45
391.78	1448.79
391.97	1549.43
392.16	1406.66
392.36	1519.01
392.55	1469.86
392.75	1502.62
392.94	1533.05
393.13	1617.31
393.33	1462.83
393.52	1652.42
393.71	1664.12
393.91	1600.93
394.10	1537.73
394.29	1556.46
394.49	1636.03
394.68	1668.80
394.88	1619.65
395.07	1647.74
395.26	1680.50
395.46	1621.99
395.65	1636.03
395.84	1703.91
396.04	1708.59
396.23	1734.34
396.42	1729.66
396.62	1769.44
396.81	1706.25
397.00	1694.55
397.19	1816.26
397.39	1790.51
397.58	1905.20
397.77	1776.47
397.97	1755.40
398.16	1825.62
398.35	1806.89
398.55	1804.55
398.74	1762.42
398.93	1886.47
399.12	1933.28
399.32	1975.41
399.51	1944.99
399.70	1989.46
399.90	1956.69
400.09	2012.86
400.28	2010.52
400.47	2036.27
400.67	2033.93
400.86	2092.44
401.05	2059.67
401.24	2127.55
401.44	2150.95
401.63	2312.45
401.82	2155.63
402.01	2113.50
402.21	2209.47
402.40	2141.59
402.59	2139.25
402.78	2160.31
402.97	2249.25
403.17	2237.55
403.36	2328.83
403.55	2307.77
403.74	2354.58
403.93	2303.09
404.13	2260.96
404.32	2368.62
404.51	2272.66
404.70	2319.47
404.89	2347.56
405.09	2464.58
405.28	2359.26
405.47	2539.48
405.66	2506.71
405.85	2530.12
406.05	2429.48
406.24	2539.48
406.43	2614.38
406.62	2626.08
406.81	2794.60
407.00	2675.23
407.20	2572.25
407.39	2574.59
407.58	2691.62
407.77	2801.62
407.96	2731.41
408.15	2874.18
408.34	2759.49
408.54	2878.86
408.73	2715.02
408.92	2747.79
409.11	2850.77
409.30	3026.31
409.49	2733.75
409.68	2951.42
409.87	2869.50
410.07	2942.05
410.26	2974.82
410.45	2988.86
410.64	2986.52
410.83	3016.95
411.02	3033.33
411.21	3169.09
411.40	3141.00
411.59	3155.04
411.78	3091.85
411.98	3222.92
412.17	3115.25
412.36	3251.00
412.55	3276.75
412.74	3361.01
412.93	3398.46
413.12	3393.78
413.31	3550.59
413.50	3421.86
413.69	3410.16
413.88	3597.40
414.07	3559.95
414.26	3602.08
414.45	3620.81
414.64	3691.02
414.83	3915.72
415.02	3672.30
415.22	3794.01
415.41	3822.09
415.60	3712.09
415.79	3904.01
415.98	3901.67
416.17	4039.76
416.36	3936.78
416.55	3878.27
416.74	4140.41
416.93	4079.55
417.12	4079.55
417.31	4102.96
417.50	4147.43
417.69	4353.40
417.88	4259.78
418.07	4334.67
418.26	4245.73
418.45	4285.52
418.64	4655.33
418.83	4306.59
419.02	4580.43
419.21	4561.70
419.39	4444.68
419.58	4365.10
419.77	4404.89
419.96	4461.06
420.15	4601.49
420.34	4589.79
420.53	4720.86
420.72	4767.67
420.91	4674.05
421.10	4582.77
421.29	4786.40
421.48	4657.67
421.67	4765.33
421.86	4772.35
422.05	4770.01
422.24	4798.10
422.43	4837.89
422.61	4938.53
422.80	4844.91
422.99	4828.53
423.18	4870.65
423.37	4898.74
423.56	4938.53
423.75	4898.74
423.94	4795.76
424.13	4547.66
424.32	4884.70
424.50	4992.36
424.69	4966.62
424.88	5064.92
425.07	4910.44
425.26	4753.63
425.45	4987.68
425.64	4915.12
425.83	5060.24
426.01	5018.11
426.20	5064.92
426.39	4985.34
426.58	4910.44
426.77	5062.58
426.96	5172.58
427.15	5102.37
427.33	5270.89
427.52	5181.95
427.71	5172.58
427.90	5378.55
428.09	5334.08
428.28	5296.63
428.46	5371.53
428.65	5205.35
428.84	5518.98
429.03	5343.44
429.22	5231.10
429.40	5614.95
429.59	5465.15
429.78	5446.43
429.97	5357.49
430.16	5465.15
430.34	5497.92
430.53	5685.16
430.72	5600.90
430.91	5549.41
431.10	5797.51
431.28	5816.23
431.47	5954.32
431.66	5802.19
431.85	5750.70
432.03	6005.81
432.22	5975.39
432.41	5977.73
432.60	5982.41
432.79	5959.00
432.97	6073.69
433.16	5963.68
433.35	6019.86
433.54	6080.71
433.72	6045.60
433.91	5907.51
434.10	6160.29
434.28	5893.47
434.47	6059.65
434.66	6108.80
434.85	6331.15
435.03	6312.42
435.22	6181.35
435.41	6303.06
435.59	6429.45
435.78	6576.91
435.97	6462.22
436.16	6363.92
436.34	6509.03
436.53	6352.21
436.72	6497.33
436.90	6544.14
437.09	6579.25
437.28	6490.31
437.46	6647.12
437.65	6567.54
437.84	6719.68
438.02	6736.06
438.21	6703.29
438.40	6759.47
438.58	7052.03
438.77	6939.69
438.96	6876.49
439.14	7073.10
439.33	6972.46
439.52	7180.76
439.70	7185.44
439.89	7267.36
440.08	7300.13
440.26	7442.90
440.45	7461.63
440.63	7468.65
440.82	7508.44
441.01	7482.69
441.19	7616.10
441.38	7679.30
441.57	7875.90
441.75	7693.34
441.94	7838.45
442.12	7969.52
442.31	7878.24
442.50	7859.52
442.68	7981.23
442.87	7992.93
443.05	8095.91
443.24	8182.51
443.43	8163.79
443.61	8243.37
443.80	8376.78
443.98	8091.23
444.17	7789.30
444.35	8168.47
444.54	8175.49
444.73	8210.60
444.91	8093.57
445.10	8182.51
445.28	8304.22
445.47	8299.54
445.65	8285.50
445.84	8451.67
446.02	8489.12
446.21	8517.21
446.39	8304.22
446.58	8454.02
446.77	8346.35
446.95	8297.20
447.14	8461.04
447.32	8652.96
447.51	8404.86
447.69	8435.29
447.88	8348.69
448.06	8631.90
448.25	8730.20
448.43	8585.08
448.62	8470.40
448.80	8617.85
448.99	8589.77
449.17	8650.62
449.36	8617.85
449.54	8760.63
449.73	8905.74
449.91	8994.68
450.10	8730.20
450.28	9179.58
450.46	8950.21
450.65	8945.53
450.83	9008.72
451.02	8821.48
451.20	9231.07
451.39	9046.17
451.57	9076.60
451.76	8910.42
451.94	9298.95
452.13	9235.75
452.31	9256.82
452.49	9163.20
452.68	9305.97
452.86	9481.51
453.05	9401.93
453.23	9516.62
453.42	9261.50
453.60	9446.40
453.78	9617.26
453.97	9434.70
454.15	9385.55
454.34	9533.00
454.52	9621.94
454.70	9481.51
454.89	9797.48
455.07	9795.14
455.26	9764.72
455.44	9888.76
455.62	9944.94
455.81	9834.93
455.99	10193.03
456.17	9944.94
456.36	9905.15
456.54	10108.77
456.73	10249.21
456.91	10342.83
457.09	10527.73
457.28	10289.00
457.46	10267.93
457.64	10602.63
457.83	10459.85
458.01	10352.19
458.19	10750.08
458.38	10595.61
458.56	10626.03
458.74	10429.43
458.93	10707.95
459.11	10789.87
459.29	10663.48
459.48	10761.78
459.66	10693.91
459.84	10740.72
460.03	11019.24
460.21	11009.88
460.39	10832.00
460.57	11091.80
460.76	10897.53
460.94	11243.93
461.12	10981.79
461.31	11197.12
461.49	10974.77
461.67	11096.48
461.85	11433.52
462.04	11234.57
462.22	11836.09
462.40	11550.54
462.59	11187.76
462.77	11508.41
462.95	11466.28
463.13	11541.18
463.32	11522.46
463.50	11520.12
463.68	11777.58
463.86	11707.36
464.05	11407.77
464.23	11698.00
464.41	11967.16
464.59	11730.76
464.78	12070.14
464.96	11955.46
465.14	11779.92
465.32	11929.71
465.50	12173.13
465.69	12266.75
465.87	12037.38
466.05	12170.79
466.23	12170.79
466.41	12138.02
466.60	12294.83
466.78	12180.15
466.96	11925.03
467.14	12266.75
467.32	12245.68
467.51	12526.55
467.69	12348.67
467.87	12629.53
468.05	12692.73
468.23	12554.63
468.41	12453.99
468.60	12531.23
468.78	12896.35
468.96	12390.80
469.14	12676.34
469.32	13090.62
469.50	12751.24
469.69	12980.61
469.87	12992.31
470.05	13085.94
470.23	13163.17
470.41	12994.65
470.59	13380.84
470.77	13102.32
470.95	13214.66
471.14	13460.42
471.32	13011.04
471.50	13600.85
471.68	13429.99
471.86	13788.10
472.04	13666.39
472.22	13991.72
472.40	13617.24
472.58	13621.92
472.77	13902.78
472.95	14017.47
473.13	14614.30
473.31	14031.51
473.49	14005.77
473.67	14132.15
473.85	14387.27
474.03	14974.75
474.21	14553.45
474.39	14569.83
474.57	14476.21
474.75	14689.20
474.93	14850.70
475.12	15152.63
475.30	15059.01
475.48	14977.09
475.66	15044.96
475.84	15119.86
476.02	15389.02
476.20	15206.46
476.38	15634.78
476.56	16004.58
476.74	15892.24
476.92	15697.97
477.10	15377.32
477.28	16327.58
477.46	15917.98
477.64	16538.23
477.82	16304.17
478.00	16917.39
478.18	16606.10
478.36	17034.42
478.54	16875.26
478.72	17294.22
478.90	17453.37
479.08	17436.99
479.26	17654.66
479.44	17549.34
479.62	17834.88
479.80	17813.82
479.98	18235.11
480.16	18473.85
480.34	18155.54
480.52	18759.39
480.70	18506.62
480.88	18221.07
481.06	18647.05
481.24	18864.72
481.41	18733.65
481.59	19068.34
481.77	19386.66
481.95	19157.28
482.13	19690.93
482.31	19754.12
482.49	20386.07
482.67	20159.03
482.85	20475.01
483.03	20360.32
483.21	20463.30
483.39	20762.89
483.57	20634.16
483.74	20893.96
483.92	21329.30
484.10	20978.22
484.28	21949.54
484.46	21876.99
484.64	22148.49
484.82	21865.28
485.00	21994.01
485.18	22415.31
485.35	22656.39
485.53	22878.74
485.71	23077.68
485.89	23400.68
486.07	23307.05
486.25	23178.33
486.43	23700.26
486.61	23721.33
486.78	24159.01
486.96	23974.11
487.14	24556.90
487.32	24947.77
487.50	24706.70
487.68	24652.86
487.85	25020.33
488.03	25420.56
488.21	26038.46
488.39	25507.16
488.57	25876.96
488.75	26026.76
488.92	26192.94
489.10	26630.62
489.28	26583.80
489.46	26843.60
489.64	26682.11
489.81	27594.92
489.99	27534.06
490.17	27646.41
490.35	27845.35
490.53	27929.61
490.70	28201.11
490.88	27948.34
491.06	28432.83
491.24	28451.55
491.41	29113.92
491.59	29383.09
491.77	28905.62
491.95	29376.06
492.13	29455.64
492.30	29830.13
492.48	29759.91
492.66	29933.11
492.84	29773.95
493.01	30515.90
493.19	30431.65
493.37	30794.43
493.54	30969.97
493.72	31269.56
493.90	31297.64
494.08	31679.15
494.25	31800.86
494.43	31679.15
494.61	32245.56
494.79	32802.61
494.96	32568.55
495.14	32704.31
495.32	32690.26
495.49	33048.36
495.67	33212.20
495.85	33469.66
496.02	33741.16
496.20	33930.75
496.38	33780.95
496.55	34092.24
496.73	34738.23
496.91	34724.19
497.09	34740.57
497.26	35117.40
497.44	35056.54
497.62	35154.85
497.79	35714.23
497.97	35564.44
498.14	35639.34
498.32	35798.49
498.50	36137.87
498.67	36236.17
498.85	36449.16
499.03	36451.50
499.20	36837.69
499.38	36189.36
499.56	37144.30
499.73	36816.63
499.91	37352.61
500.08	37612.41
500.26	37404.10
500.44	37621.77
500.61	37787.95
500.79	37488.36
500.97	37883.91
501.14	38562.67
501.32	38518.20
501.49	38443.30
501.67	38597.77
501.84	38691.40
502.02	38850.55
502.20	39283.55
502.37	39131.42
502.55	39033.11
502.72	39267.17
502.90	39356.11
503.07	39283.55
503.25	39796.13
503.43	39367.81
503.60	39716.55
503.78	40170.61
503.95	39732.93
504.13	40280.62
504.30	40612.98
504.48	40425.73
504.65	40673.83
504.83	40711.28
505.01	40737.02
505.18	40957.03
505.36	41432.16
505.53	40830.65
505.71	41050.66
505.88	41331.52
506.06	41352.58
506.23	41511.74
506.41	41720.05
506.58	42031.34
506.76	41977.51
506.93	42087.51
507.11	42319.23
507.28	42134.32
507.46	42855.21
507.63	42674.99
507.81	43065.86
507.98	42719.46
508.16	43028.41
508.33	43342.04
508.50	43370.13
508.68	43753.97
508.85	43501.20
509.03	43849.94
509.20	44051.22
509.38	44236.12
509.55	43943.56
509.73	44453.79
509.90	44011.43
510.08	44596.57
510.25	44617.63
510.42	44486.56
510.60	44854.03
510.77	45392.35
510.95	45322.13
511.12	45116.17
511.30	45027.23
511.47	45324.47
511.64	45392.35
511.82	45577.25
511.99	45205.11
512.17	45588.95
512.34	45759.81
512.51	46286.43
512.69	46431.55
512.86	46426.87
513.04	46518.15
513.21	46038.34
513.38	46438.57
513.56	46703.05
513.73	46569.64
513.90	46775.61
514.08	47117.32
514.25	47262.44
514.43	47379.46
514.60	47430.96
514.77	46981.57
514.95	47482.45
515.12	47316.27
515.29	47437.98
515.47	47597.13
515.64	47835.87
515.81	47910.77
515.99	48086.31
516.16	48423.34
516.33	48177.59
516.51	48486.54
516.68	48341.42
516.85	48610.59
517.03	48545.05
517.20	48678.46
517.37	48786.13
517.54	48811.87
517.72	48638.67
517.89	48760.38
518.06	49027.20
518.24	49474.24
518.41	49357.22
518.58	49305.73
518.75	49036.56
518.93	49223.81
519.10	49764.47
519.27	49317.43
519.45	49549.14
519.62	49652.12
519.79	49675.53
519.96	49837.03
520.14	50045.33
520.31	50108.53
520.48	50248.96
520.65	50326.20
520.83	50429.18
521.00	50314.50
521.17	50349.60
521.34	50567.27
521.52	50918.35
521.69	50356.63
521.86	50981.55
522.03	50761.54
522.20	51037.72
522.38	51426.25
522.55	51299.86
522.72	51271.78
522.89	51175.81
523.07	51356.03
523.24	51538.60
523.41	51339.65
523.58	51189.86
523.75	51735.20
523.92	51405.19
524.10	51910.74
524.27	51964.57
524.44	52046.49
524.61	51976.28
524.78	52353.10
524.96	52163.52
525.13	52243.10
525.30	52229.05
525.47	52343.74
525.64	52322.68
525.81	52362.46
525.98	52692.48
526.16	52547.37
526.33	52481.83
526.50	52830.57
526.67	52530.98
526.84	52879.72
527.01	52563.75
527.18	52615.24
527.36	52570.77
527.53	53052.92
527.70	53294.00
527.87	53148.88
528.04	52938.24
528.21	53457.84
528.38	53141.86
528.55	53563.16
528.72	53179.31
528.89	53207.40
529.07	53277.61
529.24	52935.90
529.41	53469.54
529.58	53584.22
529.75	53380.60
529.92	53808.92
530.09	53942.33
530.26	53853.39
530.43	54094.46
530.60	53626.35
530.77	53825.30
530.94	54145.95
531.11	53832.32
531.28	53944.67
531.46	53914.24
531.63	54141.27
531.80	54316.81
531.97	54354.26
532.14	54429.16
532.31	54204.47
532.48	54600.02
532.65	54543.84
532.82	54316.81
532.99	54663.21
533.16	54649.17
533.33	54609.38
533.50	54787.26
533.67	54892.58
533.84	54562.57
534.01	54754.49
534.18	54698.32
534.35	54960.46
534.52	54951.10
534.69	55096.21
534.86	55124.30
535.03	54845.77
535.20	55002.59
535.37	55379.42
535.54	55379.42
535.71	54990.89
535.88	55372.39
536.05	55318.56
536.22	55449.63
536.38	55255.37
536.55	55430.91
536.72	55334.95
536.89	55536.23
537.06	55398.14
537.23	55540.91
537.40	55592.40
537.57	55576.02
537.74	55721.13
537.91	55887.31
538.08	55664.96
538.25	55828.80
538.42	55634.53
538.59	55987.95
538.75	55662.62
538.92	55934.12
539.09	55920.08
539.26	56210.31
539.43	56067.53
539.60	56214.99
539.77	56013.70
539.94	56362.44
540.11	56229.03
540.28	56147.11
540.44	56217.33
540.61	56334.35
540.78	56268.82
540.95	56165.84
541.12	56399.89
541.29	56128.39
541.46	56250.09
541.62	56334.35
541.79	56647.99
541.96	56467.76
542.13	56444.36
542.30	56395.21
542.47	56837.57
542.63	56727.56
542.80	57052.90
542.97	57226.10
543.14	57130.14
543.31	57066.94
543.48	57214.40
543.64	57111.41
543.81	57329.08
543.98	57251.84
544.15	57020.13
544.32	57455.47
544.48	57240.14
544.65	57106.73
544.82	57230.78
544.99	57202.69
545.16	57537.39
545.32	57265.89
545.49	57579.52
545.66	57542.07
545.83	57516.32
546.00	57539.73
546.16	57563.14
546.33	57483.56
546.50	57347.81
546.67	57836.98
546.83	57518.67
547.00	57434.41
547.17	57787.83
547.34	57694.21
547.50	57790.17
547.67	58068.69
547.84	57729.31
548.00	58000.82
548.17	58157.63
548.34	57825.28
548.51	58253.59
548.67	58101.46
548.84	58106.14
549.01	57970.39
549.18	58017.20
549.34	58120.18
549.51	58398.71
549.68	58127.20
549.84	58141.25
550.01	58377.64
550.18	57928.26
550.34	58532.12
550.51	58277.00
550.68	58475.94
550.84	58122.52
551.01	58581.27
551.18	58337.85
551.34	58473.60
551.51	58410.41
551.68	58731.06
551.84	58546.16
552.01	58305.09
552.18	58557.86
552.34	58361.26
552.51	58766.17
552.68	58384.66
552.84	58513.39
553.01	58798.94
553.18	58728.72
553.34	58824.68
553.51	58637.44
553.67	58604.67
553.84	58857.45
554.01	59014.27
554.17	58904.26
554.34	58880.86
554.51	58639.78
554.67	58791.92
554.84	58913.62
555.00	58728.72
555.17	59023.63
555.33	59028.31
555.50	58773.19
555.67	58986.18
555.83	58871.49
556.00	59002.56
556.16	59304.49
556.33	59295.13
556.50	59000.22
556.66	59243.64
556.83	59077.46
556.99	59370.03
557.16	59245.98
557.32	59517.48
557.49	59519.82
557.65	59138.32
557.82	59292.79
557.98	59288.11
558.15	59388.75
558.32	59311.52
558.48	59227.26
558.65	59290.45
558.81	59363.01
558.98	59599.40
559.14	59475.35
559.31	59601.74
559.47	59646.21
559.64	59550.25
559.80	59758.56
559.97	59384.07
560.13	59388.75
560.30	59573.66
560.46	59690.68
560.63	59578.34
560.79	59772.60
560.96	59568.97
561.12	59524.50
561.29	59735.15
561.45	59552.59
561.61	59758.56
561.78	59629.83
561.94	59784.30
562.11	59756.22
562.27	59810.05
562.44	59943.46
562.60	60107.30
562.77	60004.31
562.93	59695.36
563.10	60177.51
563.26	59634.51
563.42	60079.21
563.59	59927.08
563.75	59908.35
563.92	59856.86
564.08	59894.31
564.24	60266.45
564.41	60006.65
564.57	60095.60
564.74	59880.27
564.90	60039.42
565.07	60140.07
565.23	59884.95
565.39	59943.46
565.56	60214.96
565.72	59987.93
565.88	60158.79
566.05	60067.51
566.21	60053.47
566.38	60130.70
566.54	59980.91
566.70	60233.69
566.87	60535.62
567.03	59973.89
567.19	60247.73
567.36	60252.41
567.52	60212.62
567.68	60502.85
567.85	60177.51
568.01	60367.10
568.17	60257.09
568.34	60406.89
568.50	60423.27
568.66	60327.31
568.83	60369.44
568.99	60226.66
569.15	60341.35
569.32	60292.20
569.48	60353.05
569.64	60360.08
569.81	60364.76
569.97	60292.20
570.13	60404.55
570.30	60200.92
570.46	60430.29
570.62	60463.06
570.78	60523.91
570.95	60519.23
571.11	60715.84
571.27	60369.44
571.43	60324.97
571.60	60449.02
571.76	60467.74
571.92	60402.21
572.09	60498.17
572.25	60381.14
572.41	60203.26
572.57	60685.41
572.74	60669.03
572.90	60430.29
573.06	60659.66
573.22	60591.79
573.38	60720.52
573.55	60444.33
573.71	60631.58
573.87	60706.47
574.03	60453.70
574.20	60554.34
574.36	60420.93
574.52	60615.19
574.68	60542.64
574.84	60556.68
575.01	60594.13
575.17	60720.52
575.33	60610.51
575.49	60383.48
575.65	60577.75
575.82	60683.07
575.98	60549.66
576.14	60842.23
576.30	60720.52
576.46	60460.72
576.62	60568.38
576.79	60638.60
576.95	60587.11
577.11	60633.92
577.27	60741.58
577.43	60568.38
577.59	60734.56
577.75	60512.21
577.92	60601.15
578.08	60622.22
578.24	60774.35
578.40	60933.51
578.56	60945.21
578.72	60659.66
578.88	61006.06
579.04	60917.12
579.21	60764.99
579.37	60814.14
579.53	60767.33
579.69	60530.93
579.85	60692.43
580.01	60697.11
580.17	60502.85
580.33	60818.82
580.49	60853.93
580.65	60982.66
580.82	60598.81
580.98	60659.66
581.14	60612.85
581.30	60624.56
581.46	60743.92
581.62	60867.97
581.78	60741.58
581.94	60886.70
582.10	60886.70
582.26	60624.56
582.42	60671.37
582.58	60797.76
582.74	60692.43
582.90	60762.65
583.06	60874.99
583.22	60804.78
583.38	60732.22
583.54	60727.54
583.70	60970.96
583.86	60914.78
584.02	60776.69
584.18	60924.14
584.34	60907.76
584.50	60844.57
584.66	60830.52
584.82	60977.98
584.98	61001.38
585.14	61045.85
585.30	60786.05
585.46	61064.58
585.62	60933.51
585.78	60994.36
585.94	60633.92
586.10	60961.59
586.26	60963.93
586.42	60956.91
586.58	61095.00
586.74	60973.30
586.90	60952.23
587.06	60807.12
587.22	61214.37
587.38	60809.46
587.54	60959.25
587.70	61207.35
587.86	61034.15
588.02	61073.94
588.18	61029.47
588.34	60914.78
588.49	60994.36
588.65	60975.64
588.81	60954.57
588.97	60959.25
589.13	61123.09
589.29	60994.36
589.45	61401.61
589.61	61186.28
589.77	61305.65
589.93	61197.99
590.08	61197.99
590.24	61272.88
590.40	61347.78
590.56	61251.82
590.72	61214.37
590.88	61113.73
591.04	61064.58
591.20	61403.95
591.35	61310.33
591.51	61504.60
591.67	61368.85
591.83	61485.87
591.99	61162.88
592.15	61261.18
592.31	61120.75
592.46	61132.45
592.62	61319.70
592.78	61305.65
592.94	61340.76
593.10	61169.90
593.26	61284.59
593.41	61279.91
593.57	61340.76
593.73	61394.59
593.89	61677.80
594.05	61450.77
594.20	61240.12
594.36	61520.98
594.52	61345.44
594.68	61230.75
594.84	61202.67
594.99	61322.04
595.15	61275.22
595.31	61263.52
595.47	61413.32
595.62	61221.39
595.78	61329.06
595.94	61396.93
596.10	61542.05
596.25	61361.82
596.41	61403.95
596.57	61511.62
596.73	61429.70
596.88	61345.44
597.04	61677.80
597.20	61698.86
597.36	61621.62
597.51	61591.20
597.67	61209.69
597.83	61436.72
597.99	61579.49
598.14	61544.39
598.30	61520.98
598.46	61488.21
598.61	61535.02
598.77	61535.02
598.93	61579.49
599.09	61485.87
599.24	61684.82
599.40	61769.08
599.56	61612.26
599.71	61745.67
599.87	61902.49
600.03	61621.62
600.18	61506.94
600.34	61717.59
600.50	61673.12
600.65	61605.24
600.81	61638.01
600.97	61762.06
601.12	61839.29
601.28	61715.25
601.44	61364.17
601.59	61673.12
601.75	61427.36
601.91	61848.66
602.06	61701.20
602.22	61783.12
602.37	61825.25
602.53	61680.14
602.69	61677.80
602.84	61717.59
603.00	61670.78
603.16	61630.99
603.31	61682.48
603.47	61755.03
603.62	61691.84
603.78	61808.87
603.94	61691.84
604.09	61846.32
604.25	61687.16
604.40	61591.20
604.56	61748.01
604.71	61853.34
604.87	61591.20
605.03	61499.92
605.18	61684.82
605.34	61680.14
605.49	61797.16
605.65	61535.02
605.80	61680.14
605.96	61745.67
606.12	61745.67
606.27	61780.78
606.43	61546.73
606.58	61750.35
606.74	61481.19
606.89	61731.63
607.05	61722.27
607.20	61822.91
607.36	61420.34
607.51	61574.81
607.67	61460.13
607.82	61366.51
607.98	61598.22
608.13	61602.90
608.29	61680.14
608.44	61520.98
608.60	61364.17
608.75	61588.86
608.91	61680.14
609.06	61303.31
609.22	61705.88
609.37	61401.61
609.53	61621.62
609.68	61422.68
609.84	61368.85
609.99	61553.75
610.15	61860.36
610.30	61680.14
610.46	61638.01
610.61	61593.54
610.76	61623.96
610.92	61387.57
611.07	61539.71
611.23	61282.25
611.38	61598.22
611.54	61471.83
611.69	61584.18
611.84	61495.24
612.00	61455.45
612.15	61385.23
612.31	61518.64
612.46	61556.09
612.62	61439.06
612.77	61448.42
612.92	61483.53
613.08	61396.93
613.23	61378.21
613.39	61144.16
613.54	61151.18
613.69	61595.88
613.85	61343.10
614.00	61443.74
614.15	61467.15
614.31	61378.21
614.46	61347.78
614.62	61361.82
614.77	61368.85
614.92	61366.51
615.08	61394.59
615.23	61080.96
615.38	61410.98
615.54	61207.35
615.69	61429.70
615.84	61441.40
616.00	61317.35
616.15	61120.75
616.30	61207.35
616.46	61193.31
616.61	60942.87
616.76	61277.57
616.92	60992.02
617.07	61137.13
617.22	61172.24
617.37	61261.18
617.53	61261.18
617.68	61160.54
617.83	61214.37
617.99	61029.47
618.14	61130.11
618.29	61312.67
618.45	61008.40
618.60	60860.95
618.75	61043.51
618.90	60898.40
619.06	61144.16
619.21	61167.56
619.36	61282.25
619.51	61212.03
619.67	60898.40
619.82	60903.08
619.97	61205.01
620.12	61050.53
620.28	60924.14
620.43	60917.12
620.58	60863.29
620.73	60849.25
620.89	60961.59
621.04	60977.98
621.19	60945.21
621.34	60905.42
621.49	60884.36
621.65	60931.17
621.80	61038.83
621.95	60704.13
622.10	60636.26
622.25	60872.65
622.41	60732.22
622.56	60757.97
622.71	60697.11
622.86	60449.02
623.01	60605.83
623.16	60807.12
623.32	60722.86
623.47	60835.20
623.62	60741.58
623.77	60781.37
623.92	60743.92
624.07	60814.14
624.23	60783.71
624.38	60640.94
624.53	60413.91
624.68	60589.45
624.83	60711.16
624.98	60636.26
625.13	60505.19
625.29	60491.15
625.44	60544.98
625.59	60528.59
625.74	60404.55
625.89	60299.22
626.04	60376.46
626.19	60367.10
626.34	60404.55
626.49	60301.56
626.65	60320.29
626.80	60385.82
626.95	60081.55
627.10	60231.35
627.25	60240.71
627.40	60158.79
627.55	60299.22
627.70	60168.15
627.85	60346.03
628.00	60011.34
628.15	60390.50
628.30	60088.57
628.45	60163.47
628.60	60030.06
628.76	59934.10
628.91	60289.86
629.06	60233.69
629.21	60371.78
629.36	59917.71
629.51	59962.18
629.66	60016.02
629.81	59777.28
629.96	59908.35
630.11	60013.68
630.26	60170.49
630.41	59915.37
630.56	60086.23
630.71	60048.78
630.86	59987.93
631.01	59784.30
631.16	60074.53
631.31	59959.84
631.46	59737.49
631.61	59774.94
631.76	60011.34
631.91	59945.80
632.06	59943.46
632.21	60044.10
632.36	59873.24
632.51	59414.50
632.66	60004.31
632.81	59615.79
632.96	59763.24
633.10	59796.01
633.25	59863.88
633.40	59840.48
633.55	59910.69
633.70	59955.16
633.85	59648.55
634.00	59566.63
634.15	59309.18
634.30	59667.28
634.45	59721.11
634.60	59796.01
634.75	59606.42
634.90	59412.16
635.05	59861.54
635.19	59547.91
635.34	59664.94
635.49	59421.52
635.64	59526.84
635.79	59657.91
635.94	59671.96
636.09	59430.88
636.24	59480.03
636.39	59505.78
636.53	59543.23
636.68	59297.47
636.83	59566.63
636.98	59456.63
637.13	59505.78
637.28	59264.70
637.43	59313.86
637.57	59393.43
637.72	59351.30
637.87	59412.16
638.02	59201.51
638.17	59421.52
638.32	59288.11
638.46	59447.27
638.61	59449.61
638.76	59025.97
638.91	59267.05
639.06	59332.58
639.20	59157.04
639.35	59133.63
639.50	58731.06
639.65	59072.78
639.80	59201.51
639.94	59098.53
640.09	59103.21
640.24	59154.70
640.39	58803.62
640.54	58939.37
640.68	58862.13
640.83	59032.99
640.98	58841.07
641.13	58822.34
641.27	59409.82
641.42	59054.06
641.57	58759.15
641.72	58885.54
641.86	58962.78
642.01	58733.40
642.16	58782.55
642.31	58632.76
642.45	58915.96
642.60	58740.42
642.75	58756.81
642.90	59061.08
643.04	58789.58
643.19	58597.65
643.34	58805.96
643.48	58958.09
643.63	58649.14
643.78	58717.02
643.93	58801.28
644.07	58707.66
644.22	58642.12
644.37	58269.98
644.51	58494.67
644.66	58731.06
644.81	58585.95
644.95	58630.42
645.10	58599.99
645.25	58445.52
645.39	58745.11
645.54	58379.98
645.69	58532.12
645.83	58422.11
645.98	58475.94
646.13	58415.09
646.27	58525.10
646.42	58260.62
646.57	58255.93
646.71	58478.28
646.86	58564.88
647.00	58358.92
647.15	58197.42
647.30	58433.81
647.44	58431.47
647.59	58419.77
647.74	58560.20
647.88	58541.48
648.03	58396.37
648.17	58262.96
648.32	58073.37
648.47	58295.72
648.61	58274.66
648.76	58361.26
648.90	58195.08
649.05	58206.78
649.20	58202.10
649.34	58134.23
649.49	58061.67
649.63	58248.91
649.78	58431.47
649.92	58183.38
650.07	58237.21
650.21	57954.00
650.36	58056.99
650.51	58152.95
650.65	58169.33
650.80	58185.72
650.94	57954.00
651.09	57954.00
651.23	57518.67
651.38	57804.21
651.52	57675.48
651.67	57834.64
651.81	57759.74
651.96	57970.39
652.10	57844.00
652.25	57921.24
652.39	57794.85
652.54	57436.75
652.68	57408.66
652.83	57506.96
652.97	57867.40
653.12	57495.26
653.26	57647.39
653.41	57790.17
653.55	57815.91
653.70	57528.03
653.84	57785.49
653.99	57733.99
654.13	57691.86
654.27	57588.88
654.42	57378.23
654.56	57621.65
654.71	57858.04
654.85	57794.85
655.00	57680.16
655.14	57607.61
655.29	57474.20
655.43	57354.83
655.57	57425.04
655.72	57570.16
655.86	57619.31
656.01	57254.18
656.15	57471.85
656.30	57380.57
656.44	57654.42
656.58	57034.17
656.73	57485.90
656.87	57324.40
657.01	57261.21
657.16	57158.22
657.30	57078.64
657.45	57233.12
657.59	57174.61
657.73	57015.45
657.88	57029.49
658.02	57165.24
658.16	57130.14
658.31	56896.08
658.45	57151.20
658.60	56917.15
658.74	57312.70
658.88	57031.83
659.03	56741.61
659.17	56818.84
659.31	56860.97
659.46	56989.70
659.60	56970.98
659.74	56734.59
659.89	56788.42
660.03	56610.54
660.17	56753.31
660.32	56741.61
660.46	56594.15
660.60	56729.90
660.74	56774.37
660.89	56786.08
661.03	56470.11
661.17	56320.31
661.32	56334.35
661.46	56149.45
661.60	56568.41
661.74	56329.67
661.89	56055.83
662.03	56296.91
662.17	56231.37
662.31	56119.02
662.46	56332.01
662.60	56018.38
662.74	56130.73
662.88	55716.45
663.03	55959.87
663.17	56161.15
663.31	55676.66
663.45	55943.48
663.60	55798.37
663.74	55739.86
663.88	55491.76
664.02	55695.39
664.17	55566.66
664.31	55426.23
664.45	55512.83
664.59	55875.61
664.73	55578.36
664.88	55505.80
665.02	55196.85
665.16	55290.48
665.30	55185.15
665.44	55646.24
665.59	55033.02
665.73	55367.71
665.87	55231.96
666.01	55278.77
666.15	54937.05
666.29	55255.37
666.44	55313.88
666.58	55058.76
666.72	54731.09
666.86	54763.85
667.00	54873.86
667.14	54550.87
667.28	54794.28
667.43	54422.14
667.57	54616.40
667.71	54794.28
667.85	54564.91
667.99	54461.93
668.13	54518.10
668.27	54450.22
668.41	54426.82
668.56	54019.56
668.70	53808.92
668.84	53951.69
668.98	53918.92
669.12	54342.56
669.26	54094.46
669.40	54246.60
669.54	54424.48
669.68	54038.29
669.82	53858.07
669.96	53904.88
670.10	53907.22
670.25	53949.35
670.39	53848.71
670.53	53703.59
670.67	53764.45
670.81	53820.62
670.95	53567.84
671.09	53453.15
671.23	53333.79
671.37	53352.51
671.51	53279.96
671.65	53375.92
671.79	53006.11
671.93	53216.76
672.07	53286.98
672.21	52924.19
672.35	52872.70
672.49	52758.02
672.63	52406.94
672.77	52481.83
672.91	52779.08
673.05	52378.85
673.19	52355.44
673.33	52320.34
673.47	52343.74
673.61	52662.05
673.75	52053.51
673.89	51929.47
674.03	51732.86
674.17	52158.84
674.31	51571.36
674.45	51466.04
674.59	51695.41
674.73	51625.20
674.87	51664.99
675.01	51512.85
675.15	51545.62
675.29	51393.48
675.43	51615.83
675.56	51147.73
675.70	50939.42
675.84	50972.19
675.98	50050.02
676.12	50871.54
676.26	51126.66
676.40	50557.91
676.54	50866.86
676.68	50724.09
676.82	49741.06
676.96	50160.02
677.10	50298.11
677.23	50078.10
677.37	50050.02
677.51	49879.16
677.65	49528.08
677.79	48580.16
677.93	49081.03
678.07	48966.35
678.21	48870.39
678.34	48877.41
678.48	48577.82
678.62	48842.30
678.76	49134.87
678.90	48355.47
679.04	48184.61
679.18	48341.42
679.31	47749.27
679.45	47821.83
679.59	47950.56
679.73	48079.28
679.87	47903.74
680.00	47002.64
680.14	46909.02
680.28	47227.33
680.42	47124.35
680.56	46607.09
680.70	46499.42
680.83	46497.08
680.97	46438.57
681.11	46607.09
681.25	46075.79
681.39	46525.17
681.52	46351.97
681.66	46143.66
681.80	45713.00
681.94	45691.94
682.07	45485.97
682.21	44830.62
682.35	45567.89
682.49	45783.22
682.62	45200.43
682.76	45228.51
682.90	44949.99
683.04	44917.22
683.17	44713.59
683.31	43985.69
683.45	44711.25
683.59	44051.22
683.72	43775.04
683.86	43871.00
684.00	43880.36
684.13	44004.41
684.27	43803.13
684.41	43695.46
684.55	43761.00
684.68	43409.92
684.82	43215.65
684.96	42628.18
685.09	43014.37
685.23	42677.33
685.37	42059.43
685.50	42485.40
685.64	42246.67
685.78	42230.29
685.91	41914.31
686.05	41642.81
686.19	41155.98
686.32	41881.55
686.46	40739.36
686.60	41326.84
686.73	40828.30
686.87	40837.67
687.01	40952.35
687.14	40542.76
687.28	40521.69
687.42	40416.37
687.55	40123.80
687.69	39873.37
687.82	39686.12
687.96	39328.02
688.10	39538.67
688.23	39864.00
688.37	39185.25
688.50	38848.21
688.64	39030.77
688.78	38796.72
688.91	38433.94
689.05	38712.46
689.18	38520.54
689.32	37834.76
689.46	37226.22
689.59	37514.11
689.73	37853.48
689.86	37256.65
690.00	37193.45
690.13	37134.94
690.27	37235.58
690.41	37521.13
690.54	36655.13
690.68	36739.39
690.81	36818.97
690.95	36395.33
691.08	36327.45
691.22	36055.95
691.35	35653.38
691.49	35833.60
691.62	35945.95
691.76	35505.93
691.89	35199.32
692.03	35360.81
692.16	34995.69
692.30	34976.97
692.43	34611.84
692.57	34593.12
692.70	34513.54
692.84	34621.20
692.97	34417.58
693.11	34064.16
693.24	34583.76
693.38	33715.42
693.51	33989.26
693.65	33652.22
693.78	33326.89
693.92	33383.06
694.05	33233.27
694.19	33270.72
694.32	32804.95
694.45	32809.63
694.59	32727.71
694.72	32411.74
694.86	32371.95
694.99	32290.03
695.13	31700.22
695.26	31592.55
695.39	31573.83
695.53	31840.65
695.66	31721.28
695.80	31152.53
695.93	31206.36
696.07	30813.15
696.20	30529.95
696.33	30373.13
696.47	30595.48
696.60	30689.10
696.73	30323.98
696.87	29855.87
697.00	30024.39
697.14	30352.07
697.27	29949.50
697.40	29347.98
697.54	29149.03
697.67	29481.39
697.80	29460.32
697.94	28933.70
698.07	28896.25
698.21	29158.39
698.34	28809.65
698.47	28720.71
698.61	28329.84
698.74	28350.91
698.87	28503.04
699.01	28070.04
699.14	28184.73
699.27	28114.52
699.40	27578.53
699.54	27798.54
699.67	27632.36
699.80	27557.47
699.94	27037.87
700.07	27292.99
700.20	26838.92
700.34	26731.26
700.47	26426.99
700.60	26094.63
700.73	26253.79
700.87	26132.08
701.00	26040.80
701.13	25909.73
701.26	25820.79
701.40	25968.24
701.53	25799.73
701.66	25514.18
701.79	25074.16
701.93	25184.16
702.06	25097.56
702.19	24973.52
702.32	24865.85
702.46	24704.35
702.59	24573.28
702.72	24627.12
702.85	24404.77
702.99	24240.93
703.12	24163.69
703.25	23796.23
703.38	23583.24
703.51	23660.48
703.65	23545.79
703.78	23138.54
703.91	22934.91
704.04	23271.95
704.17	23117.47
704.31	23016.83
704.44	22698.52
704.57	22555.74
704.70	22583.83
704.83	22195.30
704.96	22300.62
705.10	22387.22
705.23	22214.02
>>>>>End Processed Spectral Data<<<<<
