SpectraSuite Data File
++++++++++++++++++++++++++++++++++++
Date: Fri Oct 25 11:26:10 EDT 2013
User: price-jones
Dark Spectrum Present: No
Reference Spectrum Present: No
Number of Sampled Component Spectra: 1
Spectrometers: USB2+H05261
Integration Time (usec): 100000 (USB2+H05261)
Spectra Averaged: 1 (USB2+H05261)
Boxcar Smoothing: 0 (USB2+H05261)
Correct for Electrical Dark: No (USB2+H05261)
Strobe/Lamp Enabled: No (USB2+H05261)
Correct for Detector Non-linearity: No (USB2+H05261)
Correct for Stray Light: No (USB2+H05261)
Number of Pixels in Processed Spectrum: 2048
>>>>>Begin Processed Spectral Data<<<<<
365.73	208.31
365.92	208.31
366.12	208.31
366.32	72.56
366.52	133.41
366.72	117.03
366.91	79.58
367.11	149.79
367.31	163.84
367.51	175.54
367.70	152.13
367.90	161.50
368.10	142.77
368.30	180.22
368.49	191.92
368.69	210.65
368.89	154.48
369.09	133.41
369.28	170.86
369.48	184.90
369.68	163.84
369.87	198.95
370.07	184.90
370.27	252.78
370.47	362.78
370.66	653.01
370.86	671.73
371.06	643.65
371.25	697.48
371.45	655.35
371.65	732.59
371.84	692.80
372.04	627.26
372.24	702.16
372.44	816.85
372.63	699.82
372.83	746.63
373.03	711.52
373.22	713.86
373.42	767.70
373.62	711.52
373.81	774.72
374.01	770.04
374.21	844.93
374.40	828.55
374.60	873.02
374.79	819.19
374.99	774.72
375.19	847.27
375.38	830.89
375.58	840.25
375.78	779.40
375.97	875.36
376.17	945.58
376.37	847.27
376.56	887.06
376.76	905.79
376.95	898.77
377.15	968.98
377.35	891.74
377.54	842.59
377.74	912.81
377.93	959.62
378.13	882.38
378.33	905.79
378.52	891.74
378.72	985.37
378.91	973.66
379.11	1001.75
379.31	931.53
379.50	976.00
379.70	943.24
379.89	908.13
380.09	950.26
380.28	1053.24
380.48	933.87
380.68	964.30
380.87	976.00
381.07	1018.13
381.26	1039.20
381.46	1095.37
381.65	1027.50
381.85	1001.75
382.04	1029.84
382.24	1015.79
382.43	1090.69
382.63	1111.75
382.83	1071.97
383.02	1139.84
383.22	1165.59
383.41	1097.71
383.61	966.64
383.80	1090.69
384.00	1076.65
384.19	1057.92
384.39	1149.20
384.58	1104.73
384.78	1135.16
384.97	1207.72
385.17	1100.05
385.36	1125.80
385.56	1217.08
385.75	1104.73
385.95	1121.12
386.14	1198.35
386.34	1177.29
386.53	1228.78
386.72	1193.67
386.92	1249.85
387.11	1256.87
387.31	1217.08
387.50	1205.38
387.70	1188.99
387.89	1289.64
388.09	1282.61
388.28	1289.64
388.48	1282.61
388.67	1439.43
388.86	1245.16
389.06	1406.66
389.25	1448.79
389.45	1385.60
389.64	1301.34
389.84	1366.87
390.03	1380.92
390.22	1306.02
390.42	1418.36
390.61	1320.06
390.81	1446.45
391.00	1446.45
391.19	1448.79
391.39	1404.32
391.58	1497.94
391.78	1469.86
391.97	1561.14
392.16	1483.90
392.36	1509.65
392.55	1504.96
392.75	1544.75
392.94	1521.35
393.13	1483.90
393.33	1530.71
393.52	1540.07
393.71	1624.33
393.91	1554.12
394.10	1483.90
394.29	1739.02
394.49	1661.78
394.68	1797.53
394.88	1692.21
395.07	1685.19
395.26	1696.89
395.46	1645.40
395.65	1774.13
395.84	1757.74
396.04	1769.44
396.23	1708.59
396.42	1783.49
396.62	1781.15
396.81	1750.72
397.00	1846.68
397.19	1720.29
397.39	1792.85
397.58	1813.92
397.77	1781.15
397.97	1827.96
398.16	1839.66
398.35	1872.43
398.55	1893.49
398.74	1907.54
398.93	1998.82
399.12	1935.62
399.32	1832.64
399.51	1940.30
399.70	2062.01
399.90	1956.69
400.09	2050.31
400.28	2038.61
400.47	1968.39
400.67	2003.50
400.86	2043.29
401.05	2050.31
401.24	2017.54
401.44	2106.48
401.63	2174.36
401.82	2059.67
402.01	2047.97
402.21	2083.08
402.40	2204.78
402.59	2162.66
402.78	2146.27
402.97	2296.07
403.17	2321.81
403.36	2228.19
403.55	2284.36
403.74	2399.05
403.93	2455.22
404.13	2375.64
404.32	2303.09
404.51	2429.48
404.70	2487.99
404.89	2415.43
405.09	2424.80
405.28	2492.67
405.47	2480.97
405.66	2565.23
405.85	2509.05
406.05	2492.67
406.24	2562.89
406.43	2619.06
406.62	2623.74
406.81	2691.62
407.00	2602.68
407.20	2595.65
407.39	2555.86
407.58	2708.00
407.77	2649.49
407.96	2700.98
408.15	2686.94
408.34	2626.08
408.54	2794.60
408.73	2745.45
408.92	2822.69
409.11	2834.39
409.30	2888.22
409.49	2855.45
409.68	2920.99
409.87	2925.67
410.07	2979.50
410.26	2977.16
410.45	3038.02
410.64	3082.49
410.83	3084.83
411.02	3162.06
411.21	3192.49
411.40	3178.45
411.59	3236.96
411.78	3192.49
411.98	3185.47
412.17	3232.28
412.36	3325.90
412.55	3412.50
412.74	3391.44
412.93	3288.45
413.12	3253.34
413.31	3480.38
413.50	3529.53
413.69	3557.61
413.88	3510.80
414.07	3627.83
414.26	3646.55
414.45	3641.87
414.64	3751.88
414.83	3763.58
415.02	3861.88
415.22	3892.31
415.41	3978.91
415.60	3831.46
415.79	3887.63
415.98	3904.01
416.17	3894.65
416.36	3896.99
416.55	4051.47
416.74	3941.46
416.93	4063.17
417.12	4170.83
417.31	4203.60
417.50	4053.81
417.69	4177.86
417.88	4425.95
418.07	4224.67
418.26	4273.82
418.45	4147.43
418.64	4411.91
418.83	4334.67
419.02	4325.31
419.21	4493.83
419.39	4484.47
419.58	4564.04
419.77	4547.66
419.96	4514.89
420.15	4477.44
420.34	4550.00
420.53	4566.39
420.72	4692.77
420.91	4575.75
421.10	4643.62
421.29	4791.08
421.48	4753.63
421.67	4767.67
421.86	4863.63
422.05	4819.16
422.24	4959.60
422.43	4802.78
422.61	4835.55
422.80	4882.36
422.99	4873.00
423.18	4950.23
423.37	5050.88
423.56	5027.47
423.75	4793.42
423.94	4823.84
424.13	4697.46
424.32	4697.46
424.50	4861.29
424.69	5104.71
424.88	4926.83
425.07	4990.02
425.26	4870.65
425.45	4887.04
425.64	4873.00
425.83	5060.24
426.01	5020.45
426.20	4943.21
426.39	5034.49
426.58	5036.83
426.77	5083.64
426.96	5078.96
427.15	5242.80
427.33	5324.72
427.52	5186.63
427.71	5167.90
427.90	5158.54
428.09	5317.70
428.28	5430.04
428.46	5359.83
428.65	5345.78
428.84	5406.64
429.03	5521.32
429.22	5366.85
429.40	5544.73
429.59	5500.26
429.78	5273.23
429.97	5273.23
430.16	5406.64
430.34	5628.99
430.53	5621.97
430.72	5507.28
430.91	5497.92
431.10	5544.73
431.28	5701.54
431.47	5696.86
431.66	5783.46
431.85	5607.92
432.03	5947.30
432.22	5839.64
432.41	5984.75
432.60	5760.06
432.79	5823.25
432.97	5923.90
433.16	6001.13
433.35	6003.47
433.54	6059.65
433.72	6071.35
433.91	6050.28
434.10	6136.88
434.28	5954.32
434.47	6286.68
434.66	6162.63
434.85	6256.25
435.03	6303.06
435.22	6069.01
435.41	6576.91
435.59	6361.58
435.78	6438.81
435.97	6445.84
436.16	6431.79
436.34	6417.75
436.53	6471.58
436.72	6705.63
436.90	6518.39
437.09	6497.33
437.28	6438.81
437.46	6392.00
437.65	6534.78
437.84	6569.88
438.02	6691.59
438.21	6839.05
438.40	6668.19
438.58	6799.26
438.77	6923.30
438.96	6855.43
439.14	7037.99
439.33	7260.34
439.52	7236.94
439.70	7279.07
439.89	7288.43
440.08	7269.70
440.26	7389.07
440.45	7335.24
440.63	7482.69
440.82	7566.95
441.01	7435.88
441.19	7485.03
441.38	7803.35
441.57	7686.32
441.75	7815.05
441.94	7838.45
442.12	7999.95
442.31	8002.29
442.50	8011.65
442.68	8030.38
442.87	7999.95
443.05	8084.21
443.24	8124.00
443.43	8053.78
443.61	8042.08
443.80	8397.84
443.98	7852.50
444.17	7829.09
444.35	8306.56
444.54	8191.88
444.73	8191.88
444.91	8159.11
445.10	8383.80
445.28	8360.39
445.47	8138.04
445.65	8205.92
445.84	8489.12
446.02	8360.39
446.21	8198.90
446.39	8458.70
446.58	8407.20
446.77	8526.57
446.95	8231.66
447.14	8404.86
447.32	8580.40
447.51	8304.22
447.69	8379.12
447.88	8402.52
448.06	8540.61
448.25	8578.06
448.43	8704.45
448.62	8531.25
448.80	8620.19
448.99	8496.14
449.17	8561.68
449.36	8409.54
449.54	8849.57
449.73	8840.20
449.91	8915.10
450.10	8884.67
450.28	8947.87
450.46	9125.75
450.65	8968.93
450.83	9039.15
451.02	9013.40
451.20	9231.07
451.39	9158.52
451.57	9207.67
451.76	9160.86
451.94	9109.36
452.13	9289.59
452.31	9341.08
452.49	9116.39
452.68	9427.68
452.86	9430.02
453.05	9207.67
453.23	9277.88
453.42	9446.40
453.60	9205.33
453.78	9589.17
453.97	9427.68
454.15	9481.51
454.34	9305.97
454.52	9530.66
454.70	9509.60
454.89	9628.96
455.07	9533.00
455.26	9975.36
455.44	9841.95
455.62	9722.59
455.81	9774.08
455.99	9998.77
456.17	9956.64
456.36	9940.26
456.54	9980.04
456.73	10221.12
456.91	10087.71
457.09	10270.27
457.28	10406.02
457.46	10293.68
457.64	10403.68
457.83	10169.63
458.01	10391.98
458.19	10640.08
458.38	10476.24
458.56	10471.56
458.74	10546.45
458.93	10539.43
459.11	10436.45
459.29	10700.93
459.48	10827.32
459.66	10771.15
459.84	10874.13
460.03	10883.49
460.21	10888.17
460.39	10967.75
460.57	10850.72
460.76	11124.57
460.94	11185.42
461.12	11215.85
461.31	11112.86
461.49	11204.14
461.67	11037.97
461.85	11391.39
462.04	11248.61
462.22	11648.85
462.40	11620.76
462.59	11625.44
462.77	11400.75
462.95	11620.76
463.13	11473.31
463.32	11686.29
463.50	11742.47
463.68	11775.24
463.86	12013.97
464.05	11557.57
464.23	11747.15
464.41	11885.24
464.59	11438.20
464.78	12229.30
464.96	12037.38
465.14	11878.22
465.32	11992.90
465.50	12053.76
465.69	11990.56
465.87	11889.92
466.05	12191.85
466.23	12180.15
466.41	11981.20
466.60	12198.87
466.78	12322.92
466.96	12336.96
467.14	12409.52
467.32	12404.84
467.51	12339.30
467.69	12299.52
467.87	12561.66
468.05	12468.03
468.23	12304.20
468.41	12386.12
468.60	12367.39
468.78	12858.90
468.96	12379.09
469.14	12835.50
469.32	12987.63
469.50	12524.21
469.69	12781.67
469.87	13013.38
470.05	13060.19
470.23	13406.59
470.41	12879.97
470.59	13259.13
470.77	13422.97
470.95	13338.71
471.14	13579.79
471.32	13074.23
471.50	13547.02
471.68	13523.62
471.86	13507.23
472.04	13654.69
472.22	14001.08
472.40	13827.88
472.58	13350.42
472.77	13689.79
472.95	14127.47
473.13	14469.19
473.31	14195.35
473.49	14115.77
473.67	14040.87
473.85	14031.51
474.03	14630.69
474.21	14473.87
474.39	14565.15
474.57	14565.15
474.75	14684.52
474.93	14846.02
475.12	14913.89
475.30	14927.94
475.48	15267.31
475.66	14808.57
475.84	14895.17
476.02	15161.99
476.20	15302.42
476.38	15735.42
476.56	15728.40
476.74	15763.51
476.92	15749.46
477.10	15566.90
477.28	15815.00
477.46	15971.82
477.64	16102.89
477.82	16231.62
478.00	16641.21
478.18	16835.47
478.36	16898.67
478.54	16847.18
478.72	16996.97
478.90	17273.15
479.08	17418.27
479.26	17649.98
479.44	17429.97
479.62	17743.60
479.80	17867.65
479.98	18031.49
480.16	18703.22
480.34	18253.84
480.52	18614.28
480.70	18270.22
480.88	18291.29
481.06	18541.72
481.24	18981.74
481.41	19126.86
481.59	19393.68
481.77	19094.09
481.95	19398.36
482.13	19545.81
482.31	19351.55
482.49	20161.37
482.67	19878.17
482.85	20339.26
483.03	20568.63
483.21	20690.34
483.39	21184.19
483.57	20751.19
483.74	20704.38
483.92	21415.90
484.10	21092.91
484.28	21413.56
484.46	21619.53
484.64	22202.32
484.82	21907.41
485.00	22361.48
485.18	22703.20
485.35	22780.43
485.53	22843.63
485.71	22958.31
485.89	23159.60
486.07	23040.23
486.25	23187.69
486.43	23520.04
486.61	23524.72
486.78	23917.93
486.96	24285.40
487.14	24435.19
487.32	24343.91
487.50	24458.60
487.68	24915.00
487.85	25270.76
488.03	25371.41
488.21	25598.44
488.39	25649.93
488.57	25893.35
488.75	25984.63
488.92	26216.34
489.10	26244.43
489.28	26569.76
489.46	26939.57
489.64	26909.14
489.81	27419.38
489.99	27311.71
490.17	27630.02
490.35	27950.68
490.53	27679.18
490.70	28561.56
490.88	28243.24
491.06	28563.90
491.24	28517.09
491.41	29209.89
491.59	29237.97
491.77	29244.99
491.95	29572.67
492.13	29591.39
492.30	29839.49
492.48	29689.70
492.66	29949.50
492.84	30157.80
493.01	30630.59
493.19	30408.24
493.37	30806.13
493.54	30965.29
493.72	31489.57
493.90	31108.06
494.08	31529.36
494.25	31264.88
494.43	31625.32
494.61	31941.29
494.79	32409.40
494.96	32453.87
495.14	32671.54
495.32	32905.59
495.49	32973.47
495.67	32954.74
495.85	33380.72
496.02	33579.67
496.20	33535.20
496.38	33795.00
496.55	33914.36
496.73	34707.80
496.91	34284.17
497.09	34700.78
497.26	35056.54
497.44	35189.95
497.62	35257.83
497.79	35674.45
497.97	35295.28
498.14	35529.33
498.32	36266.60
498.50	35952.97
498.67	36334.48
498.85	36158.94
499.03	36486.61
499.20	36542.78
499.38	36828.33
499.56	36718.32
499.73	36980.46
499.91	37048.34
500.08	37294.10
500.26	37301.12
500.44	37137.28
500.61	37186.43
500.79	37270.69
500.97	37755.18
501.14	38080.52
501.32	38300.53
501.49	38328.61
501.67	38476.07
501.84	38707.78
502.02	38321.59
502.20	38653.95
502.37	39040.14
502.55	39360.79
502.72	38930.13
502.90	39269.51
503.07	39363.13
503.25	39576.12
503.43	39641.65
503.60	39950.60
503.78	40287.64
503.95	39964.65
504.13	40369.56
504.30	40783.83
504.48	40184.66
504.65	40711.28
504.83	40313.39
505.01	40996.82
505.18	41125.55
505.36	40987.46
505.53	40928.95
505.71	41471.95
505.88	41375.99
506.06	41408.76
506.23	41799.63
506.41	41748.14
506.58	42103.90
506.76	41942.40
506.93	42017.30
507.11	42326.25
507.28	42293.48
507.46	42209.22
507.63	42691.37
507.81	43042.45
507.98	42792.01
508.16	42958.19
508.33	43264.80
508.50	43625.25
508.68	43356.08
508.85	43700.14
509.03	43772.70
509.20	43667.37
509.38	44282.94
509.55	44177.61
509.73	44507.63
509.90	44142.50
510.08	44603.59
510.25	44669.12
510.42	44186.97
510.60	45289.37
510.77	44575.50
510.95	44910.20
511.12	45118.51
511.30	45095.10
511.47	44987.44
511.64	45216.81
511.82	45729.39
511.99	45588.95
512.17	45640.45
512.34	45537.46
512.51	46005.57
512.69	46045.36
512.86	46469.00
513.04	46403.46
513.21	46471.34
513.38	46714.75
513.56	46948.81
513.73	46419.84
513.90	46663.26
514.08	46670.28
514.25	47463.72
514.43	47669.69
514.60	47430.96
514.77	47119.66
514.95	47557.35
515.12	47531.60
515.29	47330.31
515.47	47704.80
515.64	47770.33
515.81	47688.42
515.99	47852.25
516.16	48135.46
516.33	48083.97
516.51	48334.40
516.68	48215.04
516.85	48512.28
517.03	48505.26
517.20	48865.70
517.37	48275.89
517.54	48697.19
517.72	48790.81
517.89	48760.38
518.06	49038.90
518.24	49066.99
518.41	48844.64
518.58	49317.43
518.75	48910.17
518.93	49312.75
519.10	49275.30
519.27	49392.33
519.45	49633.40
519.62	49443.82
519.79	49841.71
519.96	49827.66
520.14	49986.82
520.31	49717.66
520.48	50284.07
520.65	50429.18
520.83	50335.56
521.00	50382.37
521.17	50464.29
521.34	50471.31
521.52	50412.80
521.69	50557.91
521.86	50841.12
522.03	51096.24
522.20	51281.14
522.38	51505.83
522.55	50937.08
522.72	51110.28
522.89	51026.02
523.07	51569.02
523.24	51100.92
523.41	51271.78
523.58	51231.99
523.75	51442.63
523.92	51538.60
524.10	51842.87
524.27	51716.48
524.44	51959.89
524.61	51934.15
524.78	52278.21
524.96	51760.95
525.13	51945.85
525.30	52240.76
525.47	52406.94
525.64	52250.12
525.81	52519.28
525.98	52102.67
526.16	52463.11
526.33	52446.72
526.50	52570.77
526.67	52495.88
526.84	52921.85
527.01	52743.97
527.18	52697.16
527.36	52788.44
527.53	53055.26
527.70	53242.51
527.87	52884.40
528.04	52926.53
528.21	53118.46
528.38	53095.05
528.55	53429.75
528.72	53272.93
528.89	53191.01
529.07	53052.92
529.24	53045.90
529.41	53432.09
529.58	53516.35
529.75	53612.31
529.92	53577.20
530.09	53677.85
530.26	54000.84
530.43	53916.58
530.60	53460.18
530.77	54160.00
530.94	54155.32
531.11	53921.26
531.28	53858.07
531.46	54138.93
531.63	54082.76
531.80	54047.65
531.97	54078.08
532.14	54127.23
532.31	54340.22
532.48	54431.50
532.65	54471.29
532.82	54199.79
532.99	54775.56
533.16	54333.20
533.33	54581.29
533.50	54908.97
533.67	54593.00
533.84	54464.27
534.01	54656.19
534.18	54569.59
534.35	54859.82
534.52	54817.69
534.69	54927.69
534.86	55072.81
535.03	54915.99
535.20	55033.02
535.37	55339.63
535.54	55166.43
535.71	55297.50
535.88	55154.72
536.05	55236.64
536.22	55510.49
536.38	55412.18
536.55	55365.37
536.72	55283.45
536.89	54986.21
537.06	55386.44
537.23	55838.16
537.40	55302.18
537.57	55653.26
537.74	55498.78
537.91	55943.48
538.08	55920.08
538.25	55580.70
538.42	55641.56
538.59	55955.19
538.75	55983.27
538.92	55753.90
539.09	55859.23
539.26	55906.04
539.43	55969.23
539.60	55789.01
539.77	56294.56
539.94	56355.42
540.11	56144.77
540.28	56537.98
540.44	56107.32
540.61	56165.84
540.78	56020.72
540.95	56385.85
541.12	56399.89
541.29	56381.16
541.46	56322.65
541.62	56556.70
541.79	56378.82
541.96	56409.25
542.13	56219.67
542.30	56371.80
542.47	56589.47
542.63	56617.56
542.80	56615.22
542.97	56818.84
543.14	57092.69
543.31	56942.89
543.48	56989.70
543.64	57174.61
543.81	57296.31
543.98	57216.74
544.15	57106.73
544.32	57249.50
544.48	57642.71
544.65	57230.78
544.82	57338.44
544.99	57066.94
545.16	57317.38
545.32	57141.84
545.49	57535.05
545.66	57443.77
545.83	57385.25
546.00	57464.83
546.16	57467.17
546.33	57284.61
546.50	57268.23
546.67	57558.45
546.83	57343.12
547.00	57801.87
547.17	57521.01
547.34	57584.20
547.50	57918.90
547.67	57820.59
547.84	57836.98
548.00	57752.72
548.17	58183.38
548.34	57946.98
548.51	58134.23
548.67	58019.54
548.84	57918.90
549.01	57928.26
549.18	57818.25
549.34	58202.10
549.51	58162.31
549.68	58305.09
549.84	58284.02
550.01	58319.13
550.18	58234.87
550.34	58394.03
550.51	58216.14
550.68	58506.37
550.84	58195.08
551.01	58534.46
551.18	58511.05
551.34	58372.96
551.51	58379.98
551.68	58415.09
551.84	58365.94
552.01	58330.83
552.18	58529.78
552.34	58443.18
552.51	58394.03
552.68	58398.71
552.84	58569.57
553.01	58822.34
553.18	58684.25
553.34	58784.90
553.51	58623.40
553.67	58812.98
553.84	58815.32
554.01	58852.77
554.17	58791.92
554.34	58731.06
554.51	58810.64
554.67	59145.34
554.84	58852.77
555.00	58937.03
555.17	58822.34
555.33	58965.12
555.50	58803.62
555.67	58815.32
555.83	58965.12
556.00	58866.81
556.16	59262.36
556.33	59032.99
556.50	59093.85
556.66	59468.33
556.83	59082.14
556.99	59473.01
557.16	59384.07
557.32	59325.56
557.49	59327.90
557.65	59009.59
557.82	59222.58
557.98	59253.00
558.15	59346.62
558.32	59245.98
558.48	59054.06
558.65	59487.06
558.81	59260.02
558.98	59475.35
559.14	59175.76
559.31	59423.86
559.47	59306.83
559.64	59592.38
559.80	59433.22
559.97	59650.89
560.13	59536.21
560.30	59414.50
560.46	59636.85
560.63	59676.64
560.79	59632.17
560.96	59760.90
561.12	59730.47
561.29	59732.81
561.45	59838.14
561.61	59821.75
561.78	59618.13
561.94	59543.23
562.11	59657.91
562.27	59812.39
562.44	59599.40
562.60	59730.47
562.77	59838.14
562.93	59643.87
563.10	59948.14
563.26	59742.17
563.42	60109.64
563.59	59908.35
563.75	59957.50
563.92	59955.16
564.08	59779.62
564.24	60074.53
564.41	59938.78
564.57	59868.56
564.74	60065.17
564.90	59990.27
565.07	59803.03
565.23	60069.85
565.39	60051.12
565.56	59983.25
565.72	60011.34
565.88	59845.16
566.05	60048.78
566.21	59917.71
566.38	60231.35
566.54	60111.98
566.70	60465.40
566.87	59976.23
567.03	59950.48
567.19	60404.55
567.36	60128.36
567.52	60186.88
567.68	60591.79
567.85	60207.94
568.01	60243.05
568.17	60109.64
568.34	60170.49
568.50	60191.56
568.66	60212.62
568.83	60158.79
568.99	60186.88
569.15	60280.50
569.32	60264.11
569.48	60423.27
569.64	60420.93
569.81	60343.69
569.97	60156.45
570.13	60388.16
570.30	60140.07
570.46	60324.97
570.62	60350.71
570.78	60271.14
570.95	60371.78
571.11	60381.14
571.27	60285.18
571.43	60498.17
571.60	60493.49
571.76	60512.21
571.92	60418.59
572.09	60331.99
572.25	60423.27
572.41	60460.72
572.57	60322.63
572.74	60486.46
572.90	60449.02
573.06	60313.26
573.22	60491.15
573.38	60598.81
573.55	60287.52
573.71	60760.31
573.87	60547.32
574.03	60465.40
574.20	60425.61
574.36	60542.64
574.52	60654.98
574.68	60498.17
574.84	60610.51
575.01	60589.45
575.17	60554.34
575.33	60664.35
575.49	60535.62
575.65	60617.53
575.82	60736.90
575.98	60746.26
576.14	60907.76
576.30	60729.88
576.46	60425.61
576.62	60690.09
576.79	60617.53
576.95	60547.32
577.11	60671.37
577.27	60783.71
577.43	60488.80
577.59	60563.70
577.75	60676.05
577.92	60493.49
578.08	60488.80
578.24	60570.72
578.40	60858.61
578.56	60797.76
578.72	60783.71
578.88	60704.13
579.04	60917.12
579.21	60633.92
579.37	60907.76
579.53	60807.12
579.69	60690.09
579.85	60776.69
580.01	60601.15
580.17	60416.25
580.33	60729.88
580.49	60760.31
580.65	60797.76
580.82	60603.49
580.98	60636.26
581.14	60713.50
581.30	60956.91
581.46	60781.37
581.62	60835.20
581.78	60610.51
581.94	60839.89
582.10	60657.32
582.26	60804.78
582.42	60865.63
582.58	60804.78
582.74	60818.82
582.90	60858.61
583.06	60790.73
583.22	60470.08
583.38	60774.35
583.54	60818.82
583.70	60809.46
583.86	60938.19
584.02	60645.62
584.18	60879.67
584.34	60949.89
584.50	60687.75
584.66	60823.50
584.82	60617.53
584.98	61059.90
585.14	60846.91
585.30	60926.49
585.46	60914.78
585.62	60816.48
585.78	61024.79
585.94	60905.42
586.10	60970.96
586.26	60638.60
586.42	60919.46
586.58	61015.43
586.74	60959.25
586.90	60947.55
587.06	60907.76
587.22	61006.06
587.38	60867.97
587.54	60762.65
587.70	60945.21
587.86	61169.90
588.02	60987.34
588.18	60977.98
588.34	60849.25
588.49	60917.12
588.65	60933.51
588.81	61022.45
588.97	60910.10
589.13	61034.15
589.29	61095.00
589.45	61024.79
589.61	61127.77
589.77	61392.25
589.93	60956.91
590.08	61102.03
590.24	61244.80
590.40	61382.89
590.56	61329.06
590.72	61195.65
590.88	61001.38
591.04	60989.68
591.20	61413.32
591.35	61095.00
591.51	61408.64
591.67	61307.99
591.83	61104.37
591.99	61219.05
592.15	61195.65
592.31	61167.56
592.46	61282.25
592.62	61261.18
592.78	61261.18
592.94	61394.59
593.10	61268.20
593.26	61389.91
593.41	61378.21
593.57	61476.51
593.73	61151.18
593.89	61518.64
594.05	61506.94
594.20	61298.63
594.36	61551.41
594.52	61450.77
594.68	61289.27
594.84	61357.14
594.99	61553.75
595.15	61401.61
595.31	61485.87
595.47	61357.14
595.62	61272.88
595.78	61249.48
595.94	61441.40
596.10	61638.01
596.25	61282.25
596.41	61481.19
596.57	61380.55
596.73	61558.43
596.88	61492.89
597.04	61659.07
597.20	61553.75
597.36	61492.89
597.51	61698.86
597.67	61406.30
597.83	61483.53
597.99	61581.84
598.14	61509.28
598.30	61481.19
598.46	61441.40
598.61	61673.12
598.77	61385.23
598.93	61464.81
599.09	61436.72
599.24	61825.25
599.40	61846.32
599.56	61745.67
599.71	61829.93
599.87	61755.03
600.03	61563.11
600.18	61764.40
600.34	61544.39
600.50	61574.81
600.65	61312.67
600.81	61909.51
600.97	61804.19
601.12	61429.70
601.28	61528.00
601.44	61272.88
601.59	61577.15
601.75	61647.37
601.91	61675.46
602.06	61691.84
602.22	61825.25
602.37	61872.06
602.53	61666.09
602.69	61565.45
602.84	61577.15
603.00	61546.73
603.16	61532.68
603.31	61731.63
603.47	61647.37
603.62	61553.75
603.78	61755.03
603.94	61558.43
604.09	61595.88
604.25	61563.11
604.40	61572.47
604.56	61546.73
604.71	61694.18
604.87	61462.47
605.03	61736.31
605.18	61670.78
605.34	61572.47
605.49	61443.74
605.65	61677.80
605.80	61682.48
605.96	61827.59
606.12	61642.69
606.27	61785.46
606.43	61623.96
606.58	61928.23
606.74	61563.11
606.89	61577.15
607.05	61726.95
607.20	61649.71
607.36	61382.89
607.51	61485.87
607.67	61427.36
607.82	61488.21
607.98	61638.01
608.13	61518.64
608.29	61563.11
608.44	61523.32
608.60	61450.77
608.75	61675.46
608.91	61525.66
609.06	61476.51
609.22	61577.15
609.37	61378.21
609.53	61427.36
609.68	61488.21
609.84	61441.40
609.99	61495.24
610.15	61537.36
610.30	61666.09
610.46	61418.00
610.61	61485.87
610.76	61605.24
610.92	61478.85
611.07	61375.87
611.23	61399.27
611.38	61509.28
611.54	61378.21
611.69	61387.57
611.84	61425.02
612.00	61361.82
612.15	61230.75
612.31	61366.51
612.46	61495.24
612.62	61291.61
612.77	61310.33
612.92	61506.94
613.08	61467.15
613.23	61357.14
613.39	61228.41
613.54	61160.54
613.69	61286.93
613.85	61429.70
614.00	61539.71
614.15	61373.53
614.31	61282.25
614.46	61450.77
614.62	61153.52
614.77	61186.28
614.92	61293.95
615.08	61336.08
615.23	61322.04
615.38	61207.35
615.54	61207.35
615.69	61307.99
615.84	61223.73
616.00	61258.84
616.15	61219.05
616.30	61300.97
616.46	61022.45
616.61	61155.86
616.76	61205.01
616.92	61109.05
617.07	61188.63
617.22	61097.34
617.37	61073.94
617.53	61347.78
617.68	61249.48
617.83	61165.22
617.99	61197.99
618.14	61071.60
618.29	61385.23
618.45	61015.43
618.60	60975.64
618.75	60956.91
618.90	60893.72
619.06	61153.52
619.21	60910.10
619.36	61155.86
619.51	61141.81
619.67	60757.97
619.82	60776.69
619.97	61036.49
620.12	60999.04
620.28	60921.80
620.43	60996.70
620.58	60645.62
620.73	60889.04
620.89	60982.66
621.04	61045.85
621.19	60811.80
621.34	60856.27
621.49	60807.12
621.65	60636.26
621.80	60786.05
621.95	60500.51
622.10	60790.73
622.25	60839.89
622.41	60832.86
622.56	60870.31
622.71	60781.37
622.86	60713.50
623.01	60659.66
623.16	60547.32
623.32	60631.58
623.47	60647.96
623.62	60757.97
623.77	60865.63
623.92	60903.08
624.07	60783.71
624.23	60729.88
624.38	60313.26
624.53	60409.23
624.68	60528.59
624.83	60725.20
624.98	60807.12
625.13	60477.10
625.29	60559.02
625.44	60491.15
625.59	60308.58
625.74	60683.07
625.89	60289.86
626.04	60273.48
626.19	60437.31
626.34	60343.69
626.49	60388.16
626.65	60334.33
626.80	60425.61
626.95	60135.38
627.10	59962.18
627.25	60133.04
627.40	60170.49
627.55	60081.55
627.70	60203.26
627.85	60104.96
628.00	60163.47
628.15	60224.32
628.30	60163.47
628.45	60128.36
628.60	59901.33
628.76	60243.05
628.91	60324.97
629.06	60058.15
629.21	59957.50
629.36	60074.53
629.51	60004.31
629.66	60172.83
629.81	59859.20
629.96	59943.46
630.11	59976.23
630.26	59901.33
630.41	60027.72
630.56	59966.87
630.71	60109.64
630.86	60060.49
631.01	60011.34
631.16	59987.93
631.31	59884.95
631.46	59671.96
631.61	59817.07
631.76	59889.63
631.91	59833.46
632.06	60168.15
632.21	59964.52
632.36	59723.45
632.51	59372.37
632.66	59819.41
632.81	59746.86
632.96	60011.34
633.10	59840.48
633.25	59896.65
633.40	59678.98
633.55	59756.22
633.70	59662.60
633.85	59648.55
634.00	59456.63
634.15	59473.01
634.30	59585.36
634.45	59671.96
634.60	59952.82
634.75	59639.19
634.90	59482.37
635.05	59730.47
635.19	59550.25
635.34	59585.36
635.49	59550.25
635.64	59409.82
635.79	59512.80
635.94	59391.09
636.09	59416.84
636.24	59346.62
636.39	59522.16
636.53	59526.84
636.68	59260.02
636.83	59351.30
636.98	59749.20
637.13	59166.40
637.28	59295.13
637.43	59292.79
637.57	59260.02
637.72	59112.57
637.87	59152.36
638.02	59107.89
638.17	59451.95
638.32	59143.00
638.46	59269.39
638.61	59222.58
638.76	59168.74
638.91	59112.57
639.06	59044.69
639.20	58883.20
639.35	59082.14
639.50	58887.88
639.65	59086.82
639.80	59215.55
639.94	59187.47
640.09	58880.86
640.24	59079.80
640.39	58955.75
640.54	59009.59
640.68	58922.99
640.83	59007.25
640.98	59004.91
641.13	59016.61
641.27	59117.25
641.42	58829.37
641.57	58911.28
641.72	58932.35
641.86	58890.22
642.01	58869.15
642.16	58864.47
642.31	58855.11
642.45	58897.24
642.60	58609.35
642.75	58820.00
642.90	58822.34
643.04	58937.03
643.19	58602.33
643.34	58787.24
643.48	58721.70
643.63	58642.12
643.78	58499.35
643.93	58658.51
644.07	58635.10
644.22	58651.48
644.37	58408.07
644.51	58419.77
644.66	58614.04
644.81	58571.91
644.95	58487.65
645.10	58387.00
645.25	58527.44
645.39	58527.44
645.54	58440.84
645.69	58347.21
645.83	58501.69
645.98	58501.69
646.13	58583.61
646.27	58384.66
646.42	58255.93
646.57	58562.54
646.71	58499.35
646.86	58611.70
647.00	58576.59
647.15	58316.79
647.30	58185.72
647.44	58213.80
647.59	58489.99
647.74	58513.39
647.88	58513.39
648.03	58361.26
648.17	58489.99
648.32	58216.14
648.47	58525.10
648.61	57972.73
648.76	58281.68
648.90	58398.71
649.05	58152.95
649.20	58419.77
649.34	58248.91
649.49	58314.45
649.63	58211.46
649.78	58438.50
649.92	58138.91
650.07	58298.06
650.21	58082.73
650.36	58195.08
650.51	58155.29
650.65	58417.43
650.80	58124.86
650.94	57858.04
651.09	57865.06
651.23	57635.69
651.38	57813.57
651.52	57741.02
651.67	57741.02
651.81	57914.22
651.96	57691.86
652.10	57968.05
652.25	58000.82
652.39	58005.50
652.54	57593.56
652.68	57518.67
652.83	57736.34
652.97	57839.32
653.12	57600.58
653.26	57717.61
653.41	57607.61
653.55	57549.09
653.70	57865.06
653.84	57616.97
653.99	57661.44
654.13	57525.69
654.27	57429.72
654.42	57469.51
654.56	57588.88
654.71	57612.29
654.85	57549.09
655.00	57649.74
655.14	57631.01
655.29	57570.16
655.43	57382.91
655.57	57375.89
655.72	57289.29
655.86	57415.68
656.01	57361.85
656.15	57432.07
656.30	57366.53
656.44	57455.47
656.58	57354.83
656.73	57286.95
656.87	57296.31
657.01	57186.31
657.16	57460.15
657.30	57195.67
657.45	57176.95
657.59	57024.81
657.73	57029.49
657.88	57160.56
658.02	57144.18
658.16	56882.04
658.31	56966.30
658.45	57235.46
658.60	57045.88
658.74	57013.11
658.88	56978.00
659.03	56896.08
659.17	56919.49
659.31	56832.89
659.46	57069.28
659.60	56940.55
659.74	56793.10
659.89	56746.29
660.03	56610.54
660.17	56772.03
660.32	56690.12
660.46	56678.41
660.60	56395.21
660.74	56666.71
660.89	56772.03
661.03	56491.17
661.17	56200.94
661.32	56533.30
661.46	56214.99
661.60	56280.52
661.74	56371.80
661.89	56245.41
662.03	56140.09
662.17	55903.70
662.31	56137.75
662.46	56549.68
662.60	56065.19
662.74	56016.04
662.88	56130.73
663.03	55674.32
663.17	56044.13
663.31	55882.63
663.45	55824.12
663.60	55870.93
663.74	55566.66
663.88	55536.23
664.02	55526.87
664.17	55580.70
664.31	55318.56
664.45	55508.14
664.59	55571.34
664.73	55370.05
664.88	55552.62
665.02	55143.02
665.16	55594.74
665.30	55276.43
665.44	55255.37
665.59	55136.00
665.73	55337.29
665.87	55131.32
666.01	55374.73
666.15	55070.46
666.29	55316.22
666.44	55166.43
666.58	55000.25
666.72	54616.40
666.86	54782.58
667.00	54920.67
667.14	54590.66
667.28	54623.42
667.43	54724.07
667.57	54731.09
667.71	54700.66
667.85	54288.73
667.99	54527.46
668.13	54492.35
668.27	54356.60
668.41	54202.13
668.56	54265.32
668.70	53954.03
668.84	53937.65
668.98	53841.68
669.12	54092.12
669.26	54092.12
669.40	54279.36
669.54	54064.03
669.68	53867.43
669.82	53806.58
669.96	54021.90
670.10	53748.06
670.25	54012.54
670.39	53799.55
670.53	53907.22
670.67	53642.74
670.81	53883.81
670.95	53584.22
671.09	53446.13
671.23	53282.30
671.37	53649.76
671.51	53193.36
671.65	53237.83
671.79	53155.91
671.93	53198.04
672.07	52931.22
672.21	53155.91
672.35	52743.97
672.49	52573.11
672.63	52884.40
672.77	52655.03
672.91	52753.33
673.05	52617.58
673.19	52463.11
673.33	52481.83
673.47	52215.01
673.61	52449.06
673.75	52018.41
673.89	52184.58
674.03	51573.70
674.17	51913.08
674.31	51723.50
674.45	51437.95
674.59	51508.17
674.73	51360.72
674.87	51566.68
675.01	51463.70
675.15	51349.01
675.29	51358.38
675.43	51267.09
675.56	50822.39
675.70	51159.43
675.84	50948.78
675.98	50078.10
676.12	50885.59
676.26	50705.37
676.40	50314.50
676.54	50646.85
676.68	50492.38
676.82	49865.11
676.96	50190.45
677.10	49930.65
677.23	49729.36
677.37	49535.10
677.51	49467.22
677.65	49401.69
677.79	48741.66
677.93	48774.42
678.07	49155.93
678.21	48706.55
678.34	48615.27
678.48	48552.07
678.62	48619.95
678.76	48556.75
678.90	48322.70
679.04	48708.89
679.18	48156.52
679.31	47707.14
679.45	47856.93
679.59	47522.24
679.73	47901.40
679.87	47477.77
680.00	47260.10
680.14	46689.01
680.28	47295.21
680.42	46920.72
680.56	46878.59
680.70	46752.20
680.83	46714.75
680.97	46398.78
681.11	46768.58
681.25	45963.44
681.39	46188.13
681.52	46384.74
681.66	45820.67
681.80	45635.77
681.94	45813.65
682.07	45914.29
682.21	45092.76
682.35	45123.19
682.49	44767.43
682.62	44783.81
682.76	44938.29
682.90	44868.07
683.04	44729.98
683.17	44694.87
683.31	44147.18
683.45	44219.74
683.59	43945.90
683.72	43901.43
683.86	43866.32
684.00	43716.53
684.13	43753.97
684.27	43643.97
684.41	43686.10
684.55	43318.64
684.68	43423.96
684.82	43040.11
684.96	42696.05
685.09	42405.83
685.23	42117.94
685.37	42258.37
685.50	42478.38
685.64	42157.73
685.78	41874.52
685.91	42134.32
686.05	41895.59
686.19	41062.36
686.32	41027.25
686.46	41277.69
686.60	40638.72
686.73	40362.54
686.87	40521.69
687.01	40825.96
687.14	40397.65
687.28	40102.74
687.42	40041.88
687.55	39887.41
687.69	39999.76
687.82	39367.81
687.96	39023.75
688.10	39405.26
688.23	39800.81
688.37	39363.13
688.50	38920.77
688.64	39108.01
688.78	38740.55
688.91	38469.04
689.05	38670.33
689.18	38501.81
689.32	37544.53
689.46	37455.59
689.59	37450.91
689.73	37661.56
689.86	37406.44
690.00	36945.36
690.13	37254.31
690.27	37022.59
690.41	37621.77
690.54	36533.42
690.68	36928.97
690.81	36701.94
690.95	36701.94
691.08	36172.98
691.22	35641.68
691.35	35915.52
691.49	36009.14
691.62	35894.46
691.76	35550.40
691.89	35290.60
692.03	35185.27
692.16	35353.79
692.30	35079.95
692.43	35318.68
692.57	34335.66
692.70	34511.20
692.84	34855.26
692.97	34134.37
693.11	34139.05
693.24	34031.39
693.38	34089.90
693.51	34139.05
693.65	33570.30
693.78	33350.29
693.92	33212.20
694.05	33256.67
694.19	32863.46
694.32	32929.00
694.45	32797.93
694.59	32486.64
694.72	32842.40
694.86	32456.21
694.99	32016.19
695.13	31758.73
695.26	31938.95
695.39	31768.09
695.53	31585.53
695.66	31449.78
695.80	31321.05
695.93	31091.68
696.07	30644.63
696.20	30377.81
696.33	30602.50
696.47	30396.54
696.60	30649.32
696.73	30389.52
696.87	29649.91
697.00	30267.81
697.14	30251.42
697.27	29722.46
697.40	29900.34
697.54	29387.77
697.67	29589.05
697.80	29582.03
697.94	28870.51
698.07	28945.41
698.21	28814.34
698.34	28720.71
698.47	28910.30
698.61	28308.78
698.74	28608.37
698.87	28563.90
699.01	27906.21
699.14	28121.54
699.27	28011.53
699.40	28056.00
699.54	27676.83
699.67	27597.26
699.80	27374.91
699.94	27335.12
700.07	27398.31
700.20	26604.87
700.34	26799.13
700.47	26101.65
700.60	26115.70
700.73	26415.29
700.87	25781.00
701.00	25926.11
701.13	25642.91
701.26	25720.15
701.40	25706.10
701.53	25745.89
701.66	25455.67
701.79	25247.36
701.93	24872.87
702.06	25003.94
702.19	25153.74
702.32	25209.91
702.46	24758.19
702.59	24741.80
702.72	24229.23
702.85	24699.67
702.99	24334.55
703.12	24025.60
703.25	23555.15
703.38	23786.86
703.51	23482.59
703.65	23660.48
703.78	23028.53
703.91	23159.60
704.04	22874.06
704.17	23185.35
704.31	22705.54
704.44	22747.67
704.57	22874.06
704.70	22534.68
704.83	22473.82
704.96	22333.39
705.10	22295.94
705.23	22284.24
>>>>>End Processed Spectral Data<<<<<
