SpectraSuite Data File
++++++++++++++++++++++++++++++++++++
Date: Fri Oct 25 11:25:16 EDT 2013
User: price-jones
Dark Spectrum Present: No
Reference Spectrum Present: No
Number of Sampled Component Spectra: 1
Spectrometers: USB2+H05261
Integration Time (usec): 100000 (USB2+H05261)
Spectra Averaged: 1 (USB2+H05261)
Boxcar Smoothing: 0 (USB2+H05261)
Correct for Electrical Dark: No (USB2+H05261)
Strobe/Lamp Enabled: No (USB2+H05261)
Correct for Detector Non-linearity: No (USB2+H05261)
Correct for Stray Light: No (USB2+H05261)
Number of Pixels in Processed Spectrum: 2048
>>>>>Begin Processed Spectral Data<<<<<
365.73	248.10
365.92	248.10
366.12	248.10
366.32	205.97
366.52	156.82
366.72	124.05
366.91	112.35
367.11	102.98
367.31	98.30
367.51	117.03
367.70	138.09
367.90	166.18
368.10	163.84
368.30	159.16
368.49	107.66
368.69	210.65
368.89	182.56
369.09	145.11
369.28	196.60
369.48	252.78
369.68	140.43
369.87	140.43
370.07	177.88
370.27	208.31
370.47	330.02
370.66	554.71
370.86	613.22
371.06	636.63
371.25	624.92
371.45	678.76
371.65	664.71
371.84	730.25
372.04	767.70
372.24	727.91
372.44	732.59
372.63	812.17
372.83	765.36
373.03	718.54
373.22	727.91
373.42	720.88
373.62	802.80
373.81	798.12
374.01	835.57
374.21	781.74
374.40	870.68
374.60	786.42
374.79	844.93
374.99	814.51
375.19	779.40
375.38	868.34
375.58	788.76
375.78	880.04
375.97	880.04
376.17	947.92
376.37	821.53
376.56	954.94
376.76	882.38
376.95	889.40
377.15	863.66
377.35	903.45
377.54	858.98
377.74	863.66
377.93	896.43
378.13	868.34
378.33	929.19
378.52	945.58
378.72	954.94
378.91	954.94
379.11	940.90
379.31	952.60
379.50	896.43
379.70	997.07
379.89	1008.77
380.09	908.13
380.28	938.55
380.48	943.24
380.68	978.34
380.87	929.19
381.07	985.37
381.26	1011.11
381.46	1062.60
381.65	990.05
381.85	1032.18
382.04	1032.18
382.24	1011.11
382.43	1008.77
382.63	1011.11
382.83	1050.90
383.02	1151.54
383.22	1078.99
383.41	1018.13
383.61	1146.86
383.80	1144.52
384.00	1191.33
384.19	1125.80
384.39	1210.06
384.58	1165.59
384.78	1104.73
384.97	1095.37
385.17	1128.14
385.36	1186.65
385.56	1205.38
385.75	1163.25
385.95	1186.65
386.14	1128.14
386.34	1228.78
386.53	1299.00
386.72	1151.54
386.92	1254.53
387.11	1256.87
387.31	1348.15
387.50	1275.59
387.70	1282.61
387.89	1371.55
388.09	1357.51
388.28	1277.93
388.48	1345.81
388.67	1289.64
388.86	1308.36
389.06	1359.85
389.25	1364.53
389.45	1355.17
389.64	1289.64
389.84	1299.00
390.03	1385.60
390.22	1406.66
390.42	1378.58
390.61	1432.41
390.81	1371.55
391.00	1434.75
391.19	1439.43
391.39	1441.77
391.58	1537.73
391.78	1479.22
391.97	1460.49
392.16	1401.98
392.36	1483.90
392.55	1504.96
392.75	1530.71
392.94	1577.52
393.13	1554.12
393.33	1619.65
393.52	1558.80
393.71	1668.80
393.91	1544.75
394.10	1582.20
394.29	1605.61
394.49	1685.19
394.68	1565.82
394.88	1610.29
395.07	1586.88
395.26	1638.38
395.46	1650.08
395.65	1607.95
395.84	1703.91
396.04	1755.40
396.23	1767.10
396.42	1790.51
396.62	1689.87
396.81	1717.95
397.00	1846.68
397.19	1727.32
397.39	1907.54
397.58	1795.19
397.77	1849.02
397.97	1877.11
398.16	1811.57
398.35	1895.83
398.55	1867.75
398.74	1874.77
398.93	1975.41
399.12	1893.49
399.32	1893.49
399.51	1799.87
399.70	1963.71
399.90	2038.61
400.09	1921.58
400.28	2087.76
400.47	2092.44
400.67	2071.37
400.86	2012.86
401.05	1921.58
401.24	1994.14
401.44	2087.76
401.63	2167.34
401.82	2078.40
402.01	2120.53
402.21	2188.40
402.40	2153.29
402.59	2108.82
402.78	2221.17
402.97	2260.96
403.17	2249.25
403.36	2260.96
403.55	2354.58
403.74	2338.20
403.93	2399.05
404.13	2361.60
404.32	2331.17
404.51	2363.94
404.70	2441.18
404.89	2340.54
405.09	2452.88
405.28	2422.45
405.47	2352.24
405.66	2511.39
405.85	2410.75
406.05	2438.84
406.24	2504.37
406.43	2532.46
406.62	2628.42
406.81	2588.63
407.00	2520.76
407.20	2569.91
407.39	2630.76
407.58	2593.31
407.77	2829.71
407.96	2686.94
408.15	2787.58
408.34	2803.96
408.54	2808.64
408.73	2789.92
408.92	2850.77
409.11	2895.24
409.30	2874.18
409.49	2764.17
409.68	2857.79
409.87	2970.14
410.07	3000.57
410.26	2946.73
410.45	3080.14
410.64	2920.99
410.83	2988.86
411.02	2998.23
411.21	3042.70
411.40	3000.57
411.59	3063.76
411.78	3098.87
411.98	3054.40
412.17	3187.81
412.36	3272.07
412.55	3269.73
412.74	3300.16
412.93	3365.69
413.12	3325.90
413.31	3508.46
413.50	3445.27
413.69	3468.67
413.88	3625.49
414.07	3613.79
414.26	3684.00
414.45	3801.03
414.64	3688.68
414.83	3744.86
415.02	3833.80
415.22	3679.32
415.41	3801.03
415.60	3768.26
415.79	3803.37
415.98	3953.16
416.17	4009.34
416.36	3920.40
416.55	3964.87
416.74	4025.72
416.93	4051.47
417.12	4184.88
417.31	4105.30
417.50	4252.75
417.69	4397.87
417.88	4257.43
418.07	4271.48
418.26	4170.83
418.45	4259.78
418.64	4463.40
418.83	4505.53
419.02	4491.49
419.21	4575.75
419.39	4404.89
419.58	4437.66
419.77	4489.15
419.96	4620.22
420.15	4592.13
420.34	4535.96
420.53	4451.70
420.72	4631.92
420.91	4615.54
421.10	4739.58
421.29	4678.73
421.48	4624.90
421.67	4540.64
421.86	4683.41
422.05	4779.37
422.24	4762.99
422.43	4751.29
422.61	4819.16
422.80	5137.48
422.99	4954.91
423.18	4765.33
423.37	5011.09
423.56	4959.60
423.75	4891.72
423.94	4950.23
424.13	4566.39
424.32	4809.80
424.50	4971.30
424.69	4957.25
424.88	4903.42
425.07	5167.90
425.26	4854.27
425.45	4952.57
425.64	4910.44
425.83	4905.76
426.01	4968.96
426.20	4922.15
426.39	5001.72
426.58	5027.47
426.77	5060.24
426.96	5163.22
427.15	5057.90
427.33	5107.05
427.52	5205.35
427.71	5097.69
427.90	5233.44
428.09	5303.65
428.28	5369.19
428.46	5317.70
428.65	5313.02
428.84	5460.47
429.03	5425.36
429.22	5188.97
429.40	5399.62
429.59	5472.17
429.78	5334.08
429.97	5287.27
430.16	5579.84
430.34	5535.37
430.53	5582.18
430.72	5706.23
430.91	5621.97
431.10	5607.92
431.28	5685.16
431.47	5717.93
431.66	5809.21
431.85	5708.57
432.03	5762.40
432.22	5799.85
432.41	5830.27
432.60	5909.85
432.79	5959.00
432.97	5996.45
433.16	5956.66
433.35	5856.02
433.54	6017.52
433.72	6017.52
433.91	5959.00
434.10	6019.86
434.28	6022.20
434.47	6141.57
434.66	6324.13
434.85	6296.04
435.03	6195.40
435.22	6258.59
435.41	6424.77
435.59	6525.41
435.78	6363.92
435.97	6469.24
436.16	6272.64
436.34	6424.77
436.53	6530.09
436.72	6623.72
436.90	6270.30
437.09	6567.54
437.28	6492.65
437.46	6612.01
437.65	6511.37
437.84	6595.63
438.02	6609.67
438.21	6771.17
438.40	6633.08
438.58	6930.33
438.77	6932.67
438.96	6796.92
439.14	6995.86
439.33	7037.99
439.52	7258.00
439.70	7183.10
439.89	7346.94
440.08	7227.57
440.26	7482.69
440.45	7197.15
440.63	7321.20
440.82	7435.88
441.01	7272.04
441.19	7651.21
441.38	7515.46
441.57	7604.40
441.75	7758.88
441.94	7953.14
442.12	7920.37
442.31	8002.29
442.50	8079.53
442.68	7950.80
442.87	8035.06
443.05	7896.97
443.24	8131.02
443.43	8105.28
443.61	8060.80
443.80	8264.43
443.98	7922.71
444.17	7733.13
444.35	8201.24
444.54	8166.13
444.73	8306.56
444.91	8128.68
445.10	8236.35
445.28	8257.41
445.47	8299.54
445.65	8334.65
445.84	8416.57
446.02	8470.40
446.21	8236.35
446.39	8245.71
446.58	8479.76
446.77	8339.33
446.95	8205.92
447.14	8355.71
447.32	8472.74
447.51	8489.12
447.69	8596.79
447.88	8566.36
448.06	8439.97
448.25	8147.40
448.43	8491.46
448.62	8795.73
448.80	8552.32
448.99	8655.30
449.17	8634.24
449.36	8601.47
449.54	8706.79
449.73	8791.05
449.91	8926.80
450.10	8802.75
450.28	8990.00
450.46	9116.39
450.65	8854.25
450.83	9092.98
451.02	9132.77
451.20	9298.95
451.39	9114.05
451.57	9062.55
451.76	8940.85
451.94	9025.11
452.13	9078.94
452.31	9221.71
452.49	9252.14
452.68	9390.23
452.86	9327.03
453.05	9303.63
453.23	9577.47
453.42	9221.71
453.60	9348.10
453.78	9643.01
453.97	9427.68
454.15	9247.46
454.34	9455.76
454.52	9596.20
454.70	9572.79
454.89	9579.81
455.07	9650.03
455.26	9650.03
455.44	9675.77
455.62	9984.73
455.81	9926.21
455.99	9944.94
456.17	9874.72
456.36	9994.09
456.54	10183.67
456.73	10155.58
456.91	10209.42
457.09	10303.04
457.28	10583.90
457.46	10258.57
457.64	10328.78
457.83	10314.74
458.01	10349.85
458.19	10516.03
458.38	10422.41
458.56	10677.52
458.74	10497.30
458.93	10693.91
459.11	10651.78
459.29	10588.58
459.48	10696.25
459.66	10738.38
459.84	10806.25
460.03	10979.45
460.21	10881.15
460.39	10855.40
460.57	11047.33
460.76	10972.43
460.94	11033.29
461.12	11096.48
461.31	11101.16
461.49	11178.40
461.67	11192.44
461.85	11269.68
462.04	11094.14
462.22	11536.50
462.40	11552.88
462.59	11391.39
462.77	11332.87
462.95	11517.78
463.13	11618.42
463.32	11506.07
463.50	11817.36
463.68	11733.11
463.86	11763.53
464.05	11606.72
464.23	11747.15
464.41	11637.14
464.59	11681.61
464.78	11812.68
464.96	11999.93
465.14	11803.32
465.32	11866.52
465.50	12140.36
465.69	12123.98
465.87	12175.47
466.05	12121.63
466.23	12170.79
466.41	12114.61
466.60	12418.88
466.78	12119.29
466.96	12032.69
467.14	12278.45
467.32	12236.32
467.51	12510.16
467.69	12065.46
467.87	12428.24
468.05	12372.07
468.23	12374.41
468.41	12416.54
468.60	12453.99
468.78	12449.31
468.96	12475.06
469.14	12641.23
469.32	12744.22
469.50	12741.88
469.69	12760.60
469.87	13027.42
470.05	13102.32
470.23	13039.12
470.41	13088.28
470.59	13476.80
470.77	12943.16
470.95	13107.00
471.14	13359.78
471.32	13209.98
471.50	13472.12
471.68	13378.50
471.86	13666.39
472.04	13596.17
472.22	13755.33
472.40	13664.05
472.58	13701.50
472.77	13940.23
472.95	13970.66
473.13	14370.89
473.31	13980.02
473.49	13907.46
473.67	14129.81
473.85	14183.65
474.03	14455.15
474.21	14506.64
474.39	14944.32
474.57	14410.68
474.75	14607.28
474.93	14878.79
475.12	14548.77
475.30	14794.53
475.48	15201.78
475.66	15105.82
475.84	15108.16
476.02	15311.78
476.20	15316.47
476.38	15297.74
476.56	16056.08
476.74	15784.57
476.92	15669.89
477.10	15707.34
477.28	15971.82
477.46	16135.65
477.64	16095.86
477.82	16521.84
478.00	16854.20
478.18	16753.55
478.36	16446.94
478.54	17076.55
478.72	17018.04
478.90	17172.51
479.08	17495.50
479.26	17759.98
479.44	17476.78
479.62	18073.62
479.80	17614.87
479.98	18036.17
480.16	18181.28
480.34	18008.08
480.52	18441.08
480.70	18373.21
480.88	18258.52
481.06	18558.11
481.24	18478.53
481.41	19021.53
481.59	19056.64
481.77	19482.62
481.95	19286.01
482.13	19798.59
482.31	19154.94
482.49	20009.24
482.67	20067.75
482.85	20072.43
483.03	20353.30
483.21	20577.99
483.39	20758.21
483.57	21022.69
483.74	20840.13
483.92	21099.93
484.10	21191.21
484.28	21621.87
484.46	21776.34
484.64	22265.52
484.82	21654.64
485.00	22335.73
485.18	22239.77
485.35	23040.23
485.53	22693.83
485.71	22831.93
485.89	23262.58
486.07	23267.27
486.25	23360.89
486.43	23541.11
486.61	23651.11
486.78	23821.97
486.96	23672.18
487.14	24318.17
487.32	24301.78
487.50	24563.92
487.68	24552.22
487.85	25249.70
488.03	25092.88
488.21	25619.50
488.39	25516.52
488.57	26260.81
488.75	25600.78
488.92	26480.82
489.10	26506.57
489.28	26768.71
489.46	27112.77
489.64	26794.45
489.81	27508.32
489.99	27740.03
490.17	27580.87
490.35	27817.27
490.53	27604.28
490.70	28133.24
490.88	28313.46
491.06	28453.89
491.24	28720.71
491.41	28746.46
491.59	29078.82
491.77	29127.97
491.95	29542.24
492.13	29900.34
492.30	29696.72
492.48	29820.77
492.66	30204.61
492.84	30380.15
493.01	30293.55
493.19	30583.78
493.37	31065.93
493.54	31271.90
493.72	31435.74
493.90	31084.65
494.08	31835.97
494.25	32105.13
494.43	31859.37
494.61	32002.14
494.79	32584.94
494.96	32020.87
495.14	32577.92
495.32	32840.06
495.49	33125.60
495.67	33301.14
495.85	33039.00
496.02	33682.65
496.20	33759.89
496.38	33970.54
496.55	33745.84
496.73	34724.19
496.91	34469.07
497.09	34412.90
497.26	34895.05
497.44	34719.51
497.62	34890.37
497.79	35625.29
497.97	35096.33
498.14	35770.41
498.32	35861.69
498.50	35992.76
498.67	36378.95
498.85	36151.91
499.03	36357.88
499.20	36535.76
499.38	37284.73
499.56	37069.40
499.73	36723.01
499.91	36973.44
500.08	37464.96
500.26	36643.43
500.44	37291.76
500.61	37682.62
500.79	37553.90
500.97	37743.48
501.14	38120.31
501.32	38345.00
501.49	38717.14
501.67	38576.71
501.84	38934.81
502.02	38684.37
502.20	38511.17
502.37	39016.73
502.55	39351.43
502.72	39119.71
502.90	39206.31
503.07	39473.13
503.25	39533.99
503.43	39508.24
503.60	39721.23
503.78	39660.38
503.95	39931.88
504.13	40243.17
504.30	40353.18
504.48	40299.34
504.65	40495.95
504.83	40919.59
505.01	41336.20
505.18	40886.82
505.36	40999.16
505.53	40889.16
505.71	40849.37
505.88	41518.76
506.06	41074.06
506.23	42040.70
506.41	41598.34
506.58	41694.30
506.76	41769.20
506.93	42272.42
507.11	41818.35
507.28	42050.06
507.46	42777.97
507.63	42518.17
507.81	42876.27
507.98	42803.72
508.16	42864.57
508.33	43089.26
508.50	43105.65
508.68	43672.06
508.85	43959.94
509.03	43311.61
509.20	43688.44
509.38	44247.83
509.55	44074.63
509.73	44502.95
509.90	44399.96
510.08	44355.49
510.25	44704.23
510.42	44507.63
510.60	44591.89
510.77	45010.84
510.95	45144.25
511.12	44879.77
511.30	45427.46
511.47	45544.48
511.64	44622.31
511.82	45715.34
511.99	45689.60
512.17	45647.47
512.34	45914.29
512.51	45832.37
512.69	46394.10
512.86	46820.08
513.04	46319.20
513.21	46216.22
513.38	46440.91
513.56	46637.51
513.73	46674.96
513.90	46440.91
514.08	46831.78
514.25	47187.54
514.43	47288.18
514.60	47166.48
514.77	47206.26
514.95	47585.43
515.12	47131.37
515.29	47175.84
515.47	47805.44
515.64	47824.17
515.81	47484.79
515.99	48072.26
516.16	48416.32
516.33	48313.34
516.51	48598.88
516.68	47999.71
516.85	48044.18
517.03	48495.90
517.20	48589.52
517.37	48741.66
517.54	48638.67
517.72	48648.03
517.89	48589.52
518.06	48942.94
518.24	49020.18
518.41	49008.48
518.58	49296.36
518.75	49177.00
518.93	49811.28
519.10	48994.43
519.27	49432.11
519.45	49123.16
519.62	49696.59
519.79	50026.61
519.96	49792.56
520.14	49872.14
520.31	49902.56
520.48	50150.66
520.65	50040.65
520.83	50209.17
521.00	50536.85
521.17	50284.07
521.34	50417.48
521.52	50569.61
521.69	50223.22
521.86	50700.68
522.03	51023.68
522.20	51145.39
522.38	51405.19
522.55	51257.73
522.72	51030.70
522.89	50834.10
523.07	51192.20
523.24	51330.29
523.41	51620.52
523.58	51391.14
523.75	51557.32
523.92	51714.14
524.10	51910.74
524.27	51824.14
524.44	51728.18
524.61	51847.55
524.78	52168.20
524.96	51934.15
525.13	52308.63
525.30	52229.05
525.47	52240.76
525.64	52062.88
525.81	52212.67
525.98	52547.37
526.16	52671.42
526.33	52264.16
526.50	52568.43
526.67	52570.77
526.84	52645.67
527.01	52577.79
527.18	52542.69
527.36	52748.65
527.53	52849.30
527.70	53336.13
527.87	53279.96
528.04	52938.24
528.21	53205.06
528.38	52868.02
528.55	53588.91
528.72	53134.84
528.89	53289.32
529.07	53443.79
529.24	53109.10
529.41	53972.75
529.58	53268.25
529.75	53169.95
529.92	53633.38
530.09	53682.53
530.26	53787.85
530.43	53972.75
530.60	53544.44
530.77	53773.81
530.94	54035.95
531.11	53900.20
531.28	53855.73
531.46	54281.70
531.63	54035.95
531.80	54145.95
531.97	54326.17
532.14	54398.73
532.31	54150.63
532.48	54117.87
532.65	54595.34
532.82	54169.36
532.99	54520.44
533.16	54220.85
533.33	54522.78
533.50	54843.43
533.67	54677.25
533.84	54766.20
534.01	54834.07
534.18	54937.05
534.35	55260.05
534.52	54637.47
534.69	55098.55
534.86	55112.59
535.03	54887.90
535.20	55068.12
535.37	55260.05
535.54	55178.13
535.71	55164.09
535.88	55393.46
536.05	55175.79
536.22	55449.63
536.38	55599.43
536.55	55253.03
536.72	55660.28
536.89	55285.79
537.06	55238.98
537.23	55660.28
537.40	55379.42
537.57	55636.87
537.74	55702.41
537.91	55739.86
538.08	55999.66
538.25	55608.79
538.42	55936.46
538.59	56107.32
538.75	55690.71
538.92	55945.83
539.09	56119.02
539.26	55957.53
539.43	56179.88
539.60	55924.76
539.77	56266.48
539.94	56119.02
540.11	56060.51
540.28	56313.29
540.44	56144.77
540.61	56156.47
540.78	56069.87
540.95	56233.71
541.12	56217.33
541.29	56575.43
541.46	56257.12
541.62	56451.38
541.79	56573.09
541.96	56217.33
542.13	56425.64
542.30	56327.33
542.47	56704.16
542.63	56868.00
542.80	56938.21
542.97	56718.20
543.14	57109.07
543.31	56912.47
543.48	57174.61
543.64	57408.66
543.81	57223.76
543.98	57050.56
544.15	57113.75
544.32	57584.20
544.48	57396.96
544.65	57165.24
544.82	57293.97
544.99	57162.90
545.16	57366.53
545.32	57340.78
545.49	57640.37
545.66	57537.39
545.83	57591.22
546.00	57490.58
546.16	57537.39
546.33	57366.53
546.50	57478.88
546.67	57666.12
546.83	57551.43
547.00	57614.63
547.17	57675.48
547.34	57616.97
547.50	57808.89
547.67	57710.59
547.84	57733.99
548.00	57954.00
548.17	58042.95
548.34	57949.32
548.51	58234.87
548.67	58089.76
548.84	58012.52
549.01	57928.26
549.18	57970.39
549.34	58368.28
549.51	58260.62
549.68	58344.87
549.84	58075.71
550.01	58295.72
550.18	57874.43
550.34	58204.44
550.51	58328.49
550.68	58387.00
550.84	58176.36
551.01	58426.79
551.18	58309.77
551.34	58382.32
551.51	58447.86
551.68	58478.28
551.84	58398.71
552.01	58326.15
552.18	58548.50
552.34	58356.58
552.51	58639.78
552.68	58635.10
552.84	58471.26
553.01	58695.95
553.18	58546.16
553.34	58745.11
553.51	58578.93
553.67	58705.32
553.84	58901.92
554.01	58962.78
554.17	58815.32
554.34	58724.04
554.51	58841.07
554.67	59089.16
554.84	58873.84
555.00	58913.62
555.17	58787.24
555.33	59058.74
555.50	58829.37
555.67	58738.08
555.83	58899.58
556.00	59035.33
556.16	59171.08
556.33	59068.10
556.50	59018.95
556.66	59203.85
556.83	58899.58
556.99	59180.45
557.16	59379.39
557.32	59182.79
557.49	59451.95
557.65	58995.54
557.82	59234.28
557.98	59135.98
558.15	59283.43
558.32	59297.47
558.48	59175.76
558.65	59358.33
558.81	59175.76
558.98	59477.69
559.14	59442.59
559.31	59618.13
559.47	59636.85
559.64	59482.37
559.80	59557.27
559.97	59533.87
560.13	59526.84
560.30	59557.27
560.46	59531.53
560.63	59742.17
560.79	59861.54
560.96	59578.34
561.12	59634.51
561.29	59767.92
561.45	59863.88
561.61	59566.63
561.78	59714.09
561.94	59625.15
562.11	59793.67
562.27	59838.14
562.44	59927.08
562.60	59840.48
562.77	59966.87
562.93	59643.87
563.10	60004.31
563.26	59737.49
563.42	60072.19
563.59	59891.97
563.75	59880.27
563.92	59793.67
564.08	59861.54
564.24	60107.30
564.41	60013.68
564.57	60247.73
564.74	59927.08
564.90	59920.05
565.07	59950.48
565.23	60037.08
565.39	60135.38
565.56	59901.33
565.72	59901.33
565.88	60158.79
566.05	60004.31
566.21	60069.85
566.38	60083.89
566.54	60273.48
566.70	60126.02
566.87	60217.30
567.03	60109.64
567.19	60093.25
567.36	60266.45
567.52	60093.25
567.68	60507.53
567.85	59924.74
568.01	60324.97
568.17	60163.47
568.34	60308.58
568.50	60163.47
568.66	60357.74
568.83	60350.71
568.99	60317.95
569.15	60088.57
569.32	60397.52
569.48	60119.00
569.64	60446.68
569.81	60257.09
569.97	60313.26
570.13	60369.44
570.30	60196.24
570.46	60313.26
570.62	60367.10
570.78	60144.75
570.95	60296.88
571.11	60519.23
571.27	60353.05
571.43	60570.72
571.60	60589.45
571.76	60441.99
571.92	60481.78
572.09	60376.46
572.25	60301.56
572.41	60264.11
572.57	60654.98
572.74	60608.17
572.90	60640.94
573.06	60315.61
573.22	60563.70
573.38	60556.68
573.55	60559.02
573.71	60561.36
573.87	60353.05
574.03	60444.33
574.20	60711.16
574.36	60350.71
574.52	60645.62
574.68	60694.77
574.84	60715.84
575.01	60636.26
575.17	60458.38
575.33	60573.06
575.49	60409.23
575.65	60474.76
575.82	60554.34
575.98	60715.84
576.14	60872.65
576.30	60743.92
576.46	60437.31
576.62	60577.75
576.79	60645.62
576.95	60240.71
577.11	60671.37
577.27	60657.32
577.43	60793.07
577.59	60736.90
577.75	60495.83
577.92	60678.39
578.08	60783.71
578.24	60823.50
578.40	60788.39
578.56	60673.71
578.72	60556.68
578.88	61113.73
579.04	60725.20
579.21	60828.18
579.37	60657.32
579.53	60722.86
579.69	60526.25
579.85	60528.59
580.01	60739.24
580.17	60748.60
580.33	60783.71
580.49	60910.10
580.65	60629.24
580.82	60650.30
580.98	60549.66
581.14	60559.02
581.30	60889.04
581.46	60772.01
581.62	60807.12
581.78	60814.14
581.94	60814.14
582.10	60931.17
582.26	60882.02
582.42	60786.05
582.58	60940.53
582.74	60846.91
582.90	60795.42
583.06	60830.52
583.22	60619.88
583.38	60839.89
583.54	60924.14
583.70	60938.19
583.86	60769.67
584.02	60807.12
584.18	60851.59
584.34	60804.78
584.50	60947.55
584.66	60772.01
584.82	60671.37
584.98	61113.73
585.14	60800.10
585.30	60774.35
585.46	60956.91
585.62	60977.98
585.78	60858.61
585.94	60802.44
586.10	60844.57
586.26	61013.08
586.42	60921.80
586.58	61041.17
586.74	60769.67
586.90	60867.97
587.06	60874.99
587.22	61036.49
587.38	60896.06
587.54	60912.44
587.70	60942.87
587.86	61059.90
588.02	61041.17
588.18	61066.92
588.34	61055.21
588.49	60954.57
588.65	60821.16
588.81	60926.49
588.97	61048.19
589.13	61001.38
589.29	60982.66
589.45	61186.28
589.61	61027.13
589.77	61343.10
589.93	61338.42
590.08	61167.56
590.24	61300.97
590.40	61322.04
590.56	61312.67
590.72	61221.39
590.88	60919.46
591.04	61153.52
591.20	61436.72
591.35	61366.51
591.51	61436.72
591.67	61282.25
591.83	61455.45
591.99	61109.05
592.15	61251.82
592.31	61216.71
592.46	61228.41
592.62	61146.50
592.78	61244.80
592.94	61420.34
593.10	61329.06
593.26	61418.00
593.41	61216.71
593.57	61350.12
593.73	61492.89
593.89	61542.05
594.05	61504.60
594.20	61116.07
594.36	61172.24
594.52	61448.42
594.68	61331.40
594.84	61310.33
594.99	61467.15
595.15	61366.51
595.31	61570.13
595.47	61176.92
595.62	61329.06
595.78	61347.78
595.94	61350.12
596.10	61677.80
596.25	61350.12
596.41	61694.18
596.57	61258.84
596.73	61677.80
596.88	61422.68
597.04	61724.61
597.20	61652.05
597.36	61371.19
597.51	61572.47
597.67	61502.26
597.83	61464.81
597.99	61708.22
598.14	61691.84
598.30	61546.73
598.46	61373.53
598.61	61357.14
598.77	61296.29
598.93	61614.60
599.09	61490.55
599.24	61843.98
599.40	61593.54
599.56	61614.60
599.71	61638.01
599.87	61839.29
600.03	61478.85
600.18	61368.85
600.34	61687.16
600.50	61619.28
600.65	61769.08
600.81	61876.74
600.97	61621.62
601.12	61616.94
601.28	61607.58
601.44	61399.27
601.59	61605.24
601.75	61520.98
601.91	61783.12
602.06	61614.60
602.22	61965.68
602.37	61520.98
602.53	61748.01
602.69	61633.33
602.84	61609.92
603.00	61577.15
603.16	61689.50
603.31	61506.94
603.47	61698.86
603.62	61654.39
603.78	61579.49
603.94	61429.70
604.09	61539.71
604.25	61771.42
604.40	61600.56
604.56	61598.22
604.71	61719.93
604.87	61556.09
605.03	61656.73
605.18	61684.82
605.34	61544.39
605.49	61528.00
605.65	61724.61
605.80	61670.78
605.96	61778.44
606.12	61581.84
606.27	61549.07
606.43	61528.00
606.58	61652.05
606.74	61464.81
606.89	61609.92
607.05	61764.40
607.20	61991.43
607.36	61542.05
607.51	61588.86
607.67	61497.58
607.82	61504.60
607.98	61525.66
608.13	61588.86
608.29	61471.83
608.44	61364.17
608.60	61509.28
608.75	61413.32
608.91	61469.49
609.06	61329.06
609.22	61645.03
609.37	61453.11
609.53	61586.52
609.68	61663.75
609.84	61312.67
609.99	61448.42
610.15	61481.19
610.30	61677.80
610.46	61387.57
610.61	61537.36
610.76	61532.68
610.92	61408.64
611.07	61432.04
611.23	61158.20
611.38	61645.03
611.54	61483.53
611.69	61460.13
611.84	61441.40
612.00	61207.35
612.15	61333.74
612.31	61673.12
612.46	61307.99
612.62	61375.87
612.77	61111.39
612.92	61616.94
613.08	61453.11
613.23	61471.83
613.39	61127.77
613.54	61095.00
613.69	61282.25
613.85	61338.42
614.00	61513.96
614.15	61403.95
614.31	61207.35
614.46	61197.99
614.62	61244.80
614.77	61422.68
614.92	61453.11
615.08	61235.44
615.23	61233.10
615.38	61315.01
615.54	61102.03
615.69	61202.67
615.84	61401.61
616.00	61293.95
616.15	61076.28
616.30	61366.51
616.46	61130.11
616.61	61228.41
616.76	61092.66
616.92	61038.83
617.07	61336.08
617.22	60954.57
617.37	61106.71
617.53	61364.17
617.68	61083.30
617.83	61169.90
617.99	61183.94
618.14	61003.72
618.29	60921.80
618.45	60811.80
618.60	60877.33
618.75	61008.40
618.90	60818.82
619.06	61172.24
619.21	61080.96
619.36	61139.47
619.51	61099.68
619.67	60924.14
619.82	60949.89
619.97	61090.32
620.12	60839.89
620.28	60947.55
620.43	61048.19
620.58	60975.64
620.73	60680.73
620.89	61027.13
621.04	61137.13
621.19	60891.38
621.34	60608.17
621.49	60739.24
621.65	60891.38
621.80	60921.80
621.95	60764.99
622.10	60762.65
622.25	60750.94
622.41	60643.28
622.56	60676.05
622.71	60713.50
622.86	60535.62
623.01	60437.31
623.16	60699.45
623.32	60783.71
623.47	60713.50
623.62	60685.41
623.77	60608.17
623.92	60858.61
624.07	60619.88
624.23	60530.93
624.38	60629.24
624.53	60406.89
624.68	60601.15
624.83	60626.90
624.98	60673.71
625.13	60411.57
625.29	60535.62
625.44	60650.30
625.59	60559.02
625.74	60516.89
625.89	60409.23
626.04	60477.10
626.19	60601.15
626.34	60339.01
626.49	60404.55
626.65	60135.38
626.80	60463.06
626.95	59887.29
627.10	60245.39
627.25	60184.54
627.40	60226.66
627.55	60313.26
627.70	60226.66
627.85	60374.12
628.00	60331.99
628.15	60233.69
628.30	59971.55
628.45	60266.45
628.60	59927.08
628.76	60266.45
628.91	60219.64
629.06	60151.77
629.21	60083.89
629.36	59976.23
629.51	59950.48
629.66	60027.72
629.81	59948.14
629.96	59765.58
630.11	59859.20
630.26	59920.05
630.41	60088.57
630.56	59962.18
630.71	59852.18
630.86	60081.55
631.01	59903.67
631.16	60011.34
631.31	59657.91
631.46	59833.46
631.61	59840.48
631.76	60018.36
631.91	59906.01
632.06	60023.04
632.21	59812.39
632.36	59807.71
632.51	59566.63
632.66	59742.17
632.81	59576.00
632.96	59653.23
633.10	59884.95
633.25	59796.01
633.40	59700.04
633.55	59594.72
633.70	59819.41
633.85	59807.71
634.00	59568.97
634.15	59477.69
634.30	59353.65
634.45	59648.55
634.60	59875.58
634.75	59419.18
634.90	59456.63
635.05	59702.38
635.19	59536.21
635.34	59613.44
635.49	59671.96
635.64	59384.07
635.79	59470.67
635.94	59330.24
636.09	59512.80
636.24	59276.41
636.39	59592.38
636.53	59662.60
636.68	59414.50
636.83	59634.51
636.98	59791.33
637.13	59051.72
637.28	59253.00
637.43	59346.62
637.57	59304.49
637.72	59245.98
637.87	59496.42
638.02	59189.81
638.17	59468.33
638.32	59283.43
638.46	59461.31
638.61	59234.28
638.76	58981.50
638.91	59353.65
639.06	59016.61
639.20	58951.07
639.35	59016.61
639.50	59056.40
639.65	59133.63
639.80	59220.23
639.94	59128.95
640.09	59105.55
640.24	59147.68
640.39	59061.08
640.54	58965.12
640.68	59016.61
640.83	58904.26
640.98	58965.12
641.13	58871.49
641.27	59236.62
641.42	58890.22
641.57	58993.20
641.72	58820.00
641.86	58892.56
642.01	58595.31
642.16	58862.13
642.31	58822.34
642.45	58714.68
642.60	58834.05
642.75	58976.82
642.90	58869.15
643.04	58660.85
643.19	58639.78
643.34	58831.71
643.48	58791.92
643.63	58611.70
643.78	58724.04
643.93	58754.47
644.07	58798.94
644.22	58489.99
644.37	58309.77
644.51	58569.57
644.66	58658.51
644.81	58602.33
644.95	58532.12
645.10	58248.91
645.25	58452.54
645.39	58550.84
645.54	58527.44
645.69	58445.52
645.83	58560.20
645.98	58518.07
646.13	58480.63
646.27	58356.58
646.42	58419.77
646.57	58511.05
646.71	58291.04
646.86	58487.65
647.00	58356.58
647.15	58307.43
647.30	58251.25
647.44	58349.56
647.59	58403.39
647.74	58389.34
647.88	58450.20
648.03	58244.23
648.17	58398.71
648.32	58389.34
648.47	58417.43
648.61	57872.09
648.76	58265.30
648.90	58328.49
649.05	58162.31
649.20	58103.80
649.34	58024.22
649.49	58396.37
649.63	58358.92
649.78	58394.03
649.92	58056.99
650.07	58211.46
650.21	57937.62
650.36	58129.54
650.51	58085.07
650.65	58248.91
650.80	58080.39
650.94	58005.50
651.09	57797.19
651.23	57750.38
651.38	58085.07
651.52	57811.23
651.67	57640.37
651.81	57825.28
651.96	57900.17
652.10	57862.72
652.25	57946.98
652.39	57642.71
652.54	57492.92
652.68	57572.50
652.83	57565.48
652.97	57815.91
653.12	57584.20
653.26	57448.45
653.41	57858.04
653.55	57825.28
653.70	57455.47
653.84	57717.61
653.99	57521.01
654.13	57504.62
654.27	57750.38
654.42	57518.67
654.56	57647.39
654.71	57549.09
654.85	57539.73
655.00	57511.64
655.14	57647.39
655.29	57396.96
655.43	57450.79
655.57	57361.85
655.72	57151.20
655.86	57399.30
656.01	57439.09
656.15	57336.10
656.30	57544.41
656.44	57375.89
656.58	57602.92
656.73	57329.08
656.87	57237.80
657.01	57315.04
657.16	57542.07
657.30	57169.93
657.45	57120.77
657.59	57057.58
657.73	57029.49
657.88	56966.30
658.02	57066.94
658.16	57160.56
658.31	56804.80
658.45	57172.27
658.60	57111.41
658.74	56959.28
658.88	56898.42
659.03	56828.21
659.17	56757.99
659.31	57015.45
659.46	56985.02
659.60	56753.31
659.74	56629.26
659.89	56690.12
660.03	56835.23
660.17	56900.76
660.32	56664.37
660.46	56912.47
660.60	56545.00
660.74	56741.61
660.89	56739.27
661.03	56643.30
661.17	56355.42
661.32	56151.79
661.46	56399.89
661.60	56535.64
661.74	56196.26
661.89	56236.05
662.03	56189.24
662.17	56465.42
662.31	56055.83
662.46	56348.40
662.60	55917.74
662.74	56095.62
662.88	56002.00
663.03	56069.87
663.17	56053.49
663.31	55810.07
663.45	56020.72
663.60	55742.20
663.74	55400.48
663.88	55386.44
664.02	55571.34
664.17	55683.69
664.31	55288.13
664.45	55498.78
664.59	55580.70
664.73	55716.45
664.88	55325.58
665.02	55236.64
665.16	55363.03
665.30	55243.66
665.44	55220.26
665.59	55189.83
665.73	55175.79
665.87	55040.04
666.01	55114.94
666.15	55217.92
666.29	55143.02
666.44	55238.98
666.58	54801.30
666.72	54724.07
666.86	54876.20
667.00	55028.34
667.14	54497.03
667.28	54789.60
667.43	54831.73
667.57	54756.83
667.71	54651.51
667.85	54494.69
667.99	54515.76
668.13	54691.30
668.27	54270.00
668.41	54482.99
668.56	54267.66
668.70	54223.19
668.84	53752.74
668.98	54040.63
669.12	53956.37
669.26	54038.29
669.40	54347.24
669.54	54204.47
669.68	54094.46
669.82	54185.74
669.96	54354.26
670.10	53958.71
670.25	54068.72
670.39	53694.23
670.53	53738.70
670.67	53656.78
670.81	54024.25
670.95	53542.10
671.09	53251.87
671.23	53261.23
671.37	53546.78
671.51	53230.80
671.65	53399.32
671.79	53396.98
671.93	53202.72
672.07	53354.85
672.21	52861.00
672.35	52942.92
672.49	52610.56
672.63	52736.95
672.77	53003.77
672.91	52559.07
673.05	52409.28
673.19	52399.91
673.33	52420.98
673.47	52327.36
673.61	52275.87
673.75	52142.45
673.89	51948.19
674.03	51772.65
674.17	51737.54
674.31	52025.43
674.45	51695.41
674.59	51517.53
674.73	51449.66
674.87	51606.47
675.01	51517.53
675.15	51236.67
675.29	51274.12
675.43	51370.08
675.56	51316.25
675.70	50883.25
675.84	51311.56
675.98	50138.96
676.12	50698.34
676.26	50623.45
676.40	50906.65
676.54	50731.11
676.68	50609.40
676.82	49998.52
676.96	50305.13
677.10	50014.91
677.23	49621.70
677.37	49621.70
677.51	50021.93
677.65	49329.13
677.79	48463.13
677.93	48671.44
678.07	49158.27
678.21	48849.32
678.34	48704.21
678.48	48779.10
678.62	48664.42
678.76	48690.16
678.90	48437.39
679.04	48402.28
679.18	48430.36
679.31	47571.39
679.45	48170.57
679.59	47854.59
679.73	47980.98
679.87	47580.75
680.00	47147.75
680.14	46834.12
680.28	47250.74
680.42	47014.34
680.56	46534.53
680.70	46557.94
680.83	47126.69
680.97	46167.07
681.11	46763.90
681.25	46087.49
681.39	46195.15
681.52	46344.95
681.66	45991.53
681.80	45277.66
681.94	45382.99
682.07	45598.32
682.21	45436.82
682.35	45361.92
682.49	44774.45
682.62	45130.21
682.76	45572.57
682.90	44886.79
683.04	45020.20
683.17	44755.72
683.31	44245.49
683.45	44212.72
683.59	43945.90
683.72	43791.42
683.86	43901.43
684.00	44086.33
684.13	43903.77
684.27	43793.76
684.41	43875.68
684.55	43079.90
684.68	43400.55
684.82	43047.13
684.96	42703.07
685.09	42703.07
685.23	42368.38
685.37	41916.65
685.50	42185.82
685.64	42700.73
685.78	42469.02
685.91	41977.51
686.05	41808.99
686.19	41184.07
686.32	41181.73
686.46	40725.32
686.60	40797.88
686.73	40348.50
686.87	40430.41
687.01	40795.54
687.14	40425.73
687.28	40491.27
687.42	40346.15
687.55	40020.82
687.69	40219.77
687.82	39615.91
687.96	39599.52
688.10	39194.61
688.23	39845.28
688.37	39332.70
688.50	38778.00
688.64	39145.46
688.78	38885.66
688.91	38192.86
689.05	38642.24
689.18	38483.09
689.32	37708.37
689.46	37659.22
689.59	38066.47
689.73	37530.49
689.86	37497.72
690.00	37333.89
690.13	37532.83
690.27	37972.85
690.41	37076.43
690.54	36718.32
690.68	36903.23
690.81	36109.78
690.95	36355.54
691.08	36194.04
691.22	36100.42
691.35	35428.69
691.49	36060.63
691.62	35793.81
691.76	35747.00
691.89	35847.64
692.03	35655.72
692.16	35271.87
692.30	35058.88
692.43	35117.40
692.57	34061.82
692.70	34220.97
692.84	34492.47
692.97	34253.74
693.11	34363.75
693.24	33844.15
693.38	33839.47
693.51	33436.89
693.65	33596.05
693.78	33177.09
693.92	33624.14
694.05	33333.91
694.19	32816.65
694.32	32947.72
694.45	32498.34
694.59	32652.81
694.72	32613.02
694.86	32456.21
694.99	32081.72
695.13	31936.61
695.26	31798.52
695.39	31414.67
695.53	32109.81
695.66	31871.07
695.80	31559.78
695.93	31749.37
696.07	30988.69
696.20	30735.92
696.33	30370.79
696.47	30576.76
696.60	30352.07
696.73	30260.79
696.87	30597.82
697.00	30242.06
697.14	30221.00
697.27	30075.88
697.40	29759.91
697.54	29415.85
697.67	29612.46
697.80	29188.82
697.94	29156.05
698.07	28687.95
698.21	28678.58
698.34	28432.83
698.47	28287.71
698.61	28184.73
698.74	28451.55
698.87	28467.94
699.01	27545.76
699.14	27910.89
699.27	27852.38
699.40	28048.98
699.54	27908.55
699.67	27550.45
699.80	27227.45
699.94	26984.04
700.07	27262.56
700.20	26749.98
700.34	26703.17
700.47	26242.09
700.60	26614.23
700.73	26221.02
700.87	26139.10
701.00	25764.62
701.13	25876.96
701.26	25834.83
701.40	25759.94
701.53	25771.64
701.66	25689.72
701.79	25118.63
701.93	25170.12
702.06	24917.34
702.19	24559.24
702.32	25268.42
702.46	24758.19
702.59	24456.26
702.72	24240.93
702.85	24648.18
702.99	24514.77
703.12	24105.18
703.25	23756.44
703.38	23381.95
703.51	23646.43
703.65	22946.61
703.78	22981.72
703.91	23346.84
704.04	23246.20
704.17	23342.16
704.31	23012.15
704.44	22377.86
704.57	22593.19
704.70	22518.29
704.83	22223.39
704.96	22415.31
705.10	22349.78
705.23	22082.95
>>>>>End Processed Spectral Data<<<<<
