SpectraSuite Data File
++++++++++++++++++++++++++++++++++++
Date: Fri Oct 25 10:44:19 EDT 2013
User: price-jones
Dark Spectrum Present: No
Reference Spectrum Present: No
Number of Sampled Component Spectra: 1
Spectrometers: USB2+H05261
Integration Time (usec): 100000 (USB2+H05261)
Spectra Averaged: 1 (USB2+H05261)
Boxcar Smoothing: 0 (USB2+H05261)
Correct for Electrical Dark: No (USB2+H05261)
Strobe/Lamp Enabled: No (USB2+H05261)
Correct for Detector Non-linearity: No (USB2+H05261)
Correct for Stray Light: No (USB2+H05261)
Number of Pixels in Processed Spectrum: 2048
>>>>>Begin Processed Spectral Data<<<<<
365.73	107.66
365.92	107.66
366.12	107.66
366.32	30.43
366.52	53.83
366.72	56.17
366.91	11.70
367.11	93.62
367.31	25.75
367.51	9.36
367.70	95.96
367.90	11.70
368.10	0.00
368.30	60.85
368.49	11.70
368.69	39.79
368.89	58.51
369.09	39.79
369.28	32.77
369.48	14.04
369.68	0.00
369.87	142.77
370.07	67.88
370.27	152.13
370.47	180.22
370.66	404.91
370.86	447.04
371.06	482.15
371.25	545.34
371.45	423.64
371.65	500.87
371.84	451.72
372.04	601.52
372.24	444.70
372.44	510.24
372.63	554.71
372.83	500.87
373.03	543.00
373.22	486.83
373.42	514.92
373.62	503.22
373.81	472.79
374.01	596.84
374.21	561.73
374.40	531.30
374.60	521.94
374.79	657.69
374.99	566.41
375.19	596.84
375.38	599.18
375.58	641.31
375.78	603.86
375.97	582.79
376.17	645.99
376.37	566.41
376.56	685.78
376.76	631.94
376.95	599.18
377.15	636.63
377.35	706.84
377.54	723.23
377.74	573.43
377.93	599.18
378.13	685.78
378.33	737.27
378.52	669.39
378.72	739.61
378.91	732.59
379.11	650.67
379.31	706.84
379.50	657.69
379.70	674.07
379.89	683.44
380.09	624.92
380.28	664.71
380.48	688.12
380.68	751.31
380.87	805.14
381.07	702.16
381.26	739.61
381.46	809.83
381.65	638.97
381.85	669.39
382.04	671.73
382.24	681.10
382.43	702.16
382.63	678.76
382.83	678.76
383.02	709.18
383.22	791.10
383.41	732.59
383.61	763.01
383.80	800.46
384.00	877.70
384.19	786.42
384.39	751.31
384.58	856.64
384.78	751.31
384.97	908.13
385.17	847.27
385.36	863.66
385.56	882.38
385.75	828.55
385.95	793.44
386.14	856.64
386.34	830.89
386.53	812.17
386.72	873.02
386.92	882.38
387.11	903.45
387.31	950.26
387.50	950.26
387.70	908.13
387.89	1006.43
388.09	990.05
388.28	936.21
388.48	819.19
388.67	968.98
388.86	1032.18
389.06	1018.13
389.25	992.39
389.45	1064.94
389.64	1036.86
389.84	1062.60
390.03	936.21
390.22	1036.86
390.42	999.41
390.61	985.37
390.81	1055.58
391.00	1102.39
391.19	1151.54
391.39	1029.84
391.58	1100.05
391.78	1032.18
391.97	1100.05
392.16	1132.82
392.36	1086.01
392.55	933.87
392.75	1008.77
392.94	1041.54
393.13	983.02
393.33	1001.75
393.52	1088.35
393.71	1170.27
393.91	1102.39
394.10	1247.51
394.29	1156.22
394.49	1212.40
394.68	1198.35
394.88	1327.08
395.07	1252.19
395.26	1327.08
395.46	1245.16
395.65	1303.68
395.84	1165.59
396.04	1259.21
396.23	1210.06
396.42	1123.46
396.62	1198.35
396.81	1205.38
397.00	1254.53
397.19	1303.68
397.39	1401.98
397.58	1387.94
397.77	1430.07
397.97	1392.62
398.16	1394.96
398.35	1451.13
398.55	1453.47
398.74	1490.92
398.93	1638.38
399.12	1568.16
399.32	1509.65
399.51	1659.44
399.70	1664.12
399.90	1614.97
400.09	1535.39
400.28	1685.19
400.47	1750.72
400.67	1811.57
400.86	1724.97
401.05	1788.17
401.24	1739.02
401.44	1816.26
401.63	1809.23
401.82	1746.04
402.01	1795.19
402.21	1874.77
402.40	1722.63
402.59	1860.73
402.78	1764.76
402.97	1886.47
403.17	1893.49
403.36	2092.44
403.55	1837.32
403.74	1886.47
403.93	1937.96
404.13	1905.20
404.32	1832.64
404.51	1884.13
404.70	2118.18
404.89	2062.01
405.09	2090.10
405.28	2012.86
405.47	2054.99
405.66	2113.50
405.85	1956.69
406.05	2015.20
406.24	2010.52
406.43	2092.44
406.62	2209.47
406.81	2195.42
407.00	2073.71
407.20	1907.54
407.39	2202.44
407.58	2136.91
407.77	2235.21
407.96	2289.04
408.15	2246.91
408.34	2354.58
408.54	2363.94
408.73	2408.41
408.92	2436.50
409.11	2342.88
409.30	2431.82
409.49	2277.34
409.68	2354.58
409.87	2377.98
410.07	2457.56
410.26	2516.08
410.45	2427.14
410.64	2658.85
410.83	2544.16
411.02	2679.91
411.21	2602.68
411.40	2686.94
411.59	2698.64
411.78	2670.55
411.98	2747.79
412.17	2715.02
412.36	2808.64
412.55	2740.77
412.74	2818.00
412.93	2806.30
413.12	2874.18
413.31	3009.93
413.50	2974.82
413.69	3009.93
413.88	2953.76
414.07	2977.16
414.26	3016.95
414.45	3096.53
414.64	3136.32
414.83	3152.70
415.02	3171.43
415.22	3243.98
415.41	3288.45
415.60	3187.81
415.79	3267.39
415.98	3508.46
416.17	3412.50
416.36	3262.71
416.55	3316.54
416.74	3365.69
416.93	3412.50
417.12	3361.01
417.31	3499.10
417.50	3424.20
417.69	3576.34
417.88	3597.40
418.07	3449.95
418.26	3548.25
418.45	3541.23
418.64	3721.45
418.83	3679.32
419.02	3740.18
419.21	3768.26
419.39	3716.77
419.58	3719.11
419.77	3618.47
419.96	3728.47
420.15	3824.44
420.34	3854.86
420.53	3840.82
420.72	3955.51
420.91	3922.74
421.10	3960.19
421.29	4100.62
421.48	4028.06
421.67	4067.85
421.86	3805.71
422.05	3838.48
422.24	3882.95
422.43	3829.12
422.61	3857.20
422.80	3955.51
422.99	4095.94
423.18	4042.11
423.37	4142.75
423.56	4007.00
423.75	4023.38
423.94	3957.85
424.13	3756.56
424.32	3889.97
424.50	4210.62
424.69	4170.83
424.88	4102.96
425.07	4154.45
425.26	4044.45
425.45	4278.50
425.64	4168.49
425.83	4100.62
426.01	4184.88
426.20	4234.03
426.39	4205.94
426.58	4063.17
426.77	4142.75
426.96	4182.54
427.15	4100.62
427.33	4208.28
427.52	4133.39
427.71	4250.41
427.90	4428.29
428.09	4397.87
428.28	4318.29
428.46	4138.07
428.65	4248.07
428.84	4212.96
429.03	4367.44
429.22	4346.37
429.40	4250.41
429.59	4138.07
429.78	4070.19
429.97	3978.91
430.16	4210.62
430.34	4315.95
430.53	4320.63
430.72	4327.65
430.91	4227.01
431.10	4503.19
431.28	4734.90
431.47	4657.67
431.66	4805.12
431.85	4667.03
432.03	4774.69
432.22	4798.10
432.41	4849.59
432.60	4821.50
432.79	4807.46
432.97	4964.28
433.16	4870.65
433.35	4718.52
433.54	4770.01
433.72	4814.48
433.91	4809.80
434.10	4896.40
434.28	4997.04
434.47	4973.64
434.66	5046.20
434.85	5130.45
435.03	5191.31
435.22	5081.30
435.41	5210.03
435.59	5275.57
435.78	5210.03
435.97	5373.87
436.16	5160.88
436.34	5174.92
436.53	5303.65
436.72	5455.79
436.90	5233.44
437.09	5345.78
437.28	5235.78
437.46	5338.76
437.65	5294.29
437.84	5341.10
438.02	5217.05
438.21	5301.31
438.40	5273.23
438.58	5521.32
438.77	5593.88
438.96	5514.30
439.14	5762.40
439.33	5675.80
439.52	5916.87
439.70	5846.66
439.89	5856.02
440.08	5886.45
440.26	5926.24
440.45	5951.98
440.63	6019.86
440.82	6209.44
441.01	6139.23
441.19	6141.57
441.38	6300.72
441.57	6256.25
441.75	6516.05
441.94	6387.32
442.12	6499.67
442.31	6441.15
442.50	6497.33
442.68	6576.91
442.87	6604.99
443.05	6485.62
443.24	6773.51
443.43	6743.08
443.61	6757.13
443.80	6803.94
443.98	6644.78
444.17	6537.12
444.35	6710.32
444.54	6799.26
444.73	6729.04
444.91	6817.98
445.10	6750.10
445.28	6799.26
445.47	6504.35
445.65	6555.84
445.84	6530.09
446.02	6719.68
446.21	6717.34
446.39	6771.17
446.58	6956.07
446.77	6913.94
446.95	6855.43
447.14	6923.30
447.32	7035.65
447.51	6792.23
447.69	6754.79
447.88	6904.58
448.06	6829.68
448.25	6967.77
448.43	7033.31
448.62	6963.09
448.80	6958.41
448.99	6986.50
449.17	7087.14
449.36	6958.41
449.54	7176.08
449.73	7330.56
449.91	7208.85
450.10	7262.68
450.28	7426.52
450.46	7463.97
450.65	7456.95
450.83	7363.33
451.02	7358.64
451.20	7534.18
451.39	7396.09
451.57	7365.67
451.76	7351.62
451.94	7368.01
452.13	7557.59
452.31	7412.48
452.49	7260.34
452.68	7417.16
452.86	7412.48
453.05	7386.73
453.23	7847.82
453.42	7466.31
453.60	7552.91
453.78	7733.13
453.97	7648.87
454.15	7688.66
454.34	7578.65
454.52	7634.83
454.70	7850.16
454.89	7840.79
455.07	7634.83
455.26	7819.73
455.44	8072.51
455.62	8156.77
455.81	7988.25
455.99	7868.88
456.17	8248.05
456.36	8131.02
456.54	8245.71
456.73	8128.68
456.91	8320.60
457.09	8285.50
457.28	8538.27
457.46	8278.47
457.64	8465.72
457.83	8442.31
458.01	8184.85
458.19	8482.10
458.38	8425.93
458.56	8435.29
458.74	8549.98
458.93	8568.70
459.11	8421.25
459.29	8498.49
459.48	8594.45
459.66	8496.14
459.84	8718.50
460.03	8833.18
460.21	8788.71
460.39	8997.02
460.57	8723.18
460.76	8819.14
460.94	8964.25
461.12	8781.69
461.31	8891.70
461.49	8849.57
461.67	8922.12
461.85	9284.91
462.04	8936.17
462.22	9270.86
462.40	9114.05
462.59	9048.51
462.77	9291.93
462.95	9109.36
463.13	9181.92
463.32	9177.24
463.50	9369.16
463.68	9186.60
463.86	9563.43
464.05	9069.58
464.23	9298.95
464.41	9305.97
464.59	9100.00
464.78	9303.63
464.96	9383.21
465.14	9259.16
465.32	9430.02
465.50	9757.69
465.69	9680.46
465.87	9296.61
466.05	9376.19
466.23	9563.43
466.41	9528.32
466.60	9640.67
466.78	9488.53
466.96	9490.87
467.14	9514.28
467.32	9673.43
467.51	9738.97
467.69	9427.68
467.87	9654.71
468.05	9994.09
468.23	9621.94
468.41	9678.12
468.60	9694.50
468.78	9877.06
468.96	9778.76
469.14	10176.65
469.32	10171.97
469.50	9685.14
469.69	10090.05
469.87	10263.25
470.05	10106.43
470.23	10057.28
470.41	10045.58
470.59	10092.39
470.77	10136.86
470.95	10181.33
471.14	10422.41
471.32	10218.78
471.50	10705.61
471.68	10572.20
471.86	10640.08
472.04	10366.23
472.22	10759.44
472.40	10450.49
472.58	10808.59
472.77	10839.02
472.95	10860.09
473.13	11140.95
473.31	10703.27
473.49	10789.87
473.67	10925.62
473.85	11070.73
474.03	11140.95
474.21	11211.17
474.39	11204.14
474.57	11269.68
474.75	11384.37
474.93	11585.65
475.12	11576.29
475.30	11742.47
475.48	11538.84
475.66	11557.57
475.84	11620.76
476.02	11822.05
476.20	11953.12
476.38	12079.50
476.56	12208.23
476.74	12154.40
476.92	11988.22
477.10	12271.43
477.28	12463.35
477.46	12402.50
477.64	12606.13
477.82	12922.10
478.00	12919.76
478.18	13067.21
478.36	13050.83
478.54	13170.19
478.72	13125.72
478.90	13488.51
479.08	13619.58
479.26	13387.86
479.44	13465.10
479.62	13701.50
479.80	13954.27
479.98	13767.03
480.16	14120.45
480.34	13973.00
480.52	14228.12
480.70	14340.46
480.88	13907.46
481.06	14150.88
481.24	14377.91
481.41	14918.57
481.59	14773.46
481.77	14780.48
481.95	14810.91
482.13	15105.82
482.31	14841.34
482.49	15241.57
482.67	15194.76
482.85	15138.58
483.03	15594.99
483.21	15742.44
483.39	15953.09
483.57	15791.59
483.74	15824.36
483.92	16095.86
484.10	15976.50
484.28	16292.47
484.46	16671.64
484.64	16823.77
484.82	16449.28
485.00	16648.23
485.18	16879.94
485.35	16915.05
485.53	16336.94
485.71	16472.69
485.89	17095.27
486.07	16982.93
486.25	16943.14
486.43	17039.10
486.61	17502.53
486.78	17654.66
486.96	17872.33
487.14	18038.51
487.32	18321.71
487.50	18623.64
487.68	18633.00
487.85	18661.09
488.03	18824.93
488.21	19218.14
488.39	18939.62
488.57	19173.67
488.75	19328.14
488.92	19180.69
489.10	19974.13
489.28	19929.66
489.46	20341.60
489.64	20271.38
489.81	20638.84
489.99	20814.38
490.17	20737.15
490.35	20788.64
490.53	20528.84
490.70	20992.26
490.88	21301.22
491.06	21401.86
491.24	21151.42
491.41	21095.25
491.59	21312.92
491.77	21120.99
491.95	21771.66
492.13	21881.67
492.30	22324.03
492.48	22326.37
492.66	22338.07
492.84	22216.36
493.01	22438.72
493.19	22260.84
493.37	23105.77
493.54	23082.36
493.72	23080.02
493.90	23260.24
494.08	23686.22
494.25	23718.99
494.43	23843.04
494.61	24067.73
494.79	24348.59
494.96	24123.90
495.14	23840.70
495.32	24491.37
495.49	24285.40
495.67	24311.14
495.85	24446.90
496.02	24886.92
496.20	24704.35
496.38	25081.18
496.55	25539.93
496.73	25825.47
496.91	25680.36
497.09	25610.14
497.26	25989.31
497.44	25750.57
497.62	25766.96
497.79	26169.53
497.97	26216.34
498.14	25944.84
498.32	26394.22
498.50	26291.24
498.67	26621.25
498.85	26850.63
499.03	26574.44
499.20	27098.72
499.38	26867.01
499.56	27143.19
499.73	27213.41
499.91	27122.13
500.08	27538.74
500.26	26649.34
500.44	27400.65
500.61	27328.10
500.79	27150.21
500.97	27920.25
501.14	27901.53
501.32	27777.48
501.49	27840.67
501.67	28002.17
501.84	28173.03
502.02	28409.42
502.20	28467.94
502.37	28622.41
502.55	28648.16
502.72	28622.41
502.90	28442.19
503.07	28701.99
503.25	28959.45
503.43	28706.67
503.60	29048.39
503.78	28788.59
503.95	29074.13
504.13	29104.56
504.30	29242.65
504.48	29682.67
504.65	29603.10
504.83	29502.45
505.01	30120.35
505.18	29717.78
505.36	30504.20
505.53	30394.20
505.71	30345.05
505.88	30483.14
506.06	30022.05
506.23	30504.20
506.41	30183.55
506.58	30253.76
506.76	30686.76
506.93	30806.13
507.11	30689.10
507.28	30562.72
507.46	30370.79
507.63	30792.09
507.81	31094.02
507.98	30646.97
508.16	31398.29
508.33	31487.23
508.50	31363.18
508.68	31573.83
508.85	32011.51
509.03	31639.36
509.20	31938.95
509.38	32041.93
509.55	32009.17
509.73	32053.64
509.90	32088.74
510.08	32215.13
510.25	31908.52
510.42	32474.93
510.60	32844.74
510.77	32596.64
510.95	33179.43
511.12	32844.74
511.30	32954.74
511.47	33050.70
511.64	33132.62
511.82	33347.95
511.99	32950.06
512.17	33219.22
512.34	33457.96
512.51	33511.79
512.69	33902.66
512.86	33743.50
513.04	33694.35
513.21	33340.93
513.38	33923.72
513.56	34213.95
513.73	33596.05
513.90	33811.38
514.08	33979.90
514.25	33905.00
514.43	34029.05
514.60	34085.22
514.77	33991.60
514.95	34469.07
515.12	34541.63
515.29	34438.64
515.47	34888.03
515.64	34850.58
515.81	34375.45
515.99	34873.98
516.16	34293.53
516.33	34071.18
516.51	34497.16
516.68	34024.37
516.85	34155.44
517.03	34314.59
517.20	34373.11
517.37	35227.40
517.54	35232.08
517.72	34787.38
517.89	34731.21
518.06	34927.81
518.24	34878.66
518.41	35204.00
518.58	35405.28
518.75	35470.82
518.93	35365.49
519.10	35559.76
519.27	35676.79
519.45	35637.00
519.62	35887.43
519.79	36280.64
519.96	36154.26
520.14	36163.62
520.31	36470.23
520.48	36526.40
520.65	36313.41
520.83	36928.97
521.00	36615.34
521.17	36912.59
521.34	37324.52
521.52	36961.74
521.69	37413.46
521.86	36903.23
522.03	36961.74
522.20	37244.94
522.38	37359.63
522.55	37469.64
522.72	37188.77
522.89	37373.67
523.07	37748.16
523.24	37303.46
523.41	37883.91
523.58	37617.09
523.75	38157.75
523.92	38237.33
524.10	38295.85
524.27	38029.02
524.44	38117.96
524.61	38054.77
524.78	38225.63
524.96	38223.29
525.13	38281.80
525.30	38497.13
525.47	38274.78
525.64	38464.36
525.81	38480.75
525.98	38408.19
526.16	38265.42
526.33	38087.54
526.50	38169.46
526.67	37984.55
526.84	38176.48
527.01	38340.32
527.18	38799.06
527.36	38813.10
527.53	39255.46
527.70	39587.82
527.87	39119.71
528.04	38705.44
528.21	39473.13
528.38	39365.47
528.55	39608.89
528.72	39971.67
528.89	39838.26
529.07	39672.08
529.24	39381.85
529.41	39803.15
529.58	39943.58
529.75	39608.89
529.92	39906.13
530.09	39871.03
530.26	40058.27
530.43	40065.29
530.60	39943.58
530.77	40098.06
530.94	40439.78
531.11	40189.34
531.28	40311.05
531.46	40369.56
531.63	40332.11
531.80	40407.01
531.97	40275.94
532.14	40299.34
532.31	39892.09
532.48	40636.38
532.65	40514.67
532.82	40334.45
532.99	40678.51
533.16	40423.39
533.33	40741.71
533.50	41219.17
533.67	40821.28
533.84	40762.77
534.01	40994.48
534.18	40498.29
534.35	41315.14
534.52	41476.63
534.69	41184.07
534.86	41626.43
535.03	41099.81
535.20	41825.37
535.37	42284.12
535.54	41710.69
535.71	41450.89
535.88	41593.66
536.05	41486.00
536.22	41544.51
536.38	41869.84
536.55	41605.36
536.72	41696.64
536.89	41558.55
537.06	41551.53
537.23	41900.27
537.40	41612.38
537.57	42021.98
537.74	41792.61
537.91	42169.43
538.08	42148.37
538.25	42052.41
538.42	42464.34
538.59	42089.85
538.75	41673.24
538.92	41855.80
539.09	42253.69
539.26	42110.92
539.43	41867.50
539.60	42349.65
539.77	41848.78
539.94	42241.99
540.11	42204.54
540.28	42017.30
540.44	42457.32
540.61	42127.30
540.78	42323.91
540.95	42417.53
541.12	42139.00
541.29	43173.52
541.46	42246.67
541.62	43065.86
541.79	43086.92
541.96	42459.66
542.13	43035.43
542.30	42904.36
542.47	43222.67
542.63	43044.79
542.80	43023.73
542.97	43257.78
543.14	43999.73
543.31	43227.35
543.48	43779.72
543.64	43959.94
543.81	43854.62
543.98	43711.84
544.15	43571.41
544.32	43592.48
544.48	44095.69
544.65	43697.80
544.82	43468.43
544.99	43323.32
545.16	43466.09
545.32	43543.33
545.49	43981.01
545.66	43971.64
545.83	44095.69
546.00	43908.45
546.16	44025.48
546.33	43845.26
546.50	43971.64
546.67	44694.87
546.83	43908.45
547.00	44023.14
547.17	43835.89
547.34	44133.14
547.50	44355.49
547.67	44687.85
547.84	44081.65
548.00	44453.79
548.17	44755.72
548.34	44062.93
548.51	44692.53
548.67	44589.55
548.84	44842.32
549.01	44189.31
549.18	44430.39
549.34	44582.52
549.51	44868.07
549.68	45078.72
549.84	44645.72
550.01	44755.72
550.18	44638.70
550.34	44842.32
550.51	45048.29
550.68	45113.83
550.84	44601.25
551.01	44842.32
551.18	44650.40
551.34	45048.29
551.51	44912.54
551.68	44966.37
551.84	45013.18
552.01	45102.12
552.18	45326.81
552.34	44758.06
552.51	45240.21
552.68	45551.51
552.84	45195.74
553.01	45521.08
553.18	45382.99
553.34	45448.52
553.51	45507.04
553.67	45242.56
553.84	45663.85
554.01	45776.20
554.17	45432.14
554.34	45696.62
554.51	45521.08
554.67	45708.32
554.84	45514.06
555.00	45691.94
555.17	45280.00
555.33	45579.59
555.50	45642.79
555.67	45633.42
555.83	45467.25
556.00	45827.69
556.16	46457.29
556.33	45722.37
556.50	45507.04
556.66	45741.09
556.83	45563.21
556.99	45954.08
557.16	45965.78
557.32	45851.09
557.49	46054.72
557.65	45507.04
557.82	45284.68
557.98	45883.86
558.15	45694.28
558.32	45872.16
558.48	46010.25
558.65	45886.20
558.81	45741.09
558.98	45617.04
559.14	45326.81
559.31	45914.29
559.47	46209.20
559.64	46447.93
559.80	46160.05
559.97	45661.51
560.13	45755.13
560.30	45504.70
560.46	45825.35
560.63	46164.73
560.79	46232.60
560.96	46323.88
561.12	46197.49
561.29	46272.39
561.45	46419.84
561.61	46604.75
561.78	46410.48
561.94	45921.31
562.11	46096.85
562.27	46155.36
562.44	46410.48
562.60	46452.61
562.77	46342.61
562.93	46216.22
563.10	46836.46
563.26	45956.42
563.42	46548.57
563.59	46213.88
563.75	46548.57
563.92	46553.26
564.08	46557.94
564.24	46497.08
564.41	46256.01
564.57	46672.62
564.74	46583.68
564.90	46363.67
565.07	46415.16
565.23	46047.70
565.39	46351.97
565.56	46251.33
565.72	46337.93
565.88	46302.82
566.05	46080.47
566.21	46513.47
566.38	46941.78
566.54	46763.90
566.70	46932.42
566.87	46894.97
567.03	46707.73
567.19	47302.23
567.36	46766.24
567.52	46677.30
567.68	46712.41
567.85	46176.43
568.01	47070.51
568.17	46600.07
568.34	46972.21
568.50	46548.57
568.66	46611.77
568.83	46356.65
568.99	46663.26
569.15	46686.67
569.32	46794.33
569.48	46157.70
569.64	47019.02
569.81	46623.47
569.97	46983.91
570.13	46791.99
570.30	46361.33
570.46	46335.59
570.62	46354.31
570.78	46260.69
570.95	46064.08
571.11	46965.19
571.27	46333.24
571.43	46485.38
571.60	46445.59
571.76	46918.38
571.92	46532.19
572.09	46773.27
572.25	46890.29
572.41	46649.22
572.57	46628.15
572.74	47363.08
572.90	47180.52
573.06	46405.80
573.22	46740.50
573.38	46890.29
573.55	46780.29
573.71	46869.23
573.87	46986.25
574.03	46618.79
574.20	46927.74
574.36	46813.05
574.52	46766.24
574.68	46822.42
574.84	46869.23
575.01	46976.89
575.17	46927.74
575.33	46480.70
575.49	46745.18
575.65	46656.24
575.82	46759.22
575.98	46192.81
576.14	47327.97
576.30	46986.25
576.46	46387.08
576.62	46368.35
576.79	46941.78
576.95	46646.88
577.11	46920.72
577.27	46689.01
577.43	46925.40
577.59	46681.98
577.75	46609.43
577.92	46209.20
578.08	46267.71
578.24	46220.90
578.40	46494.74
578.56	46515.81
578.72	46939.44
578.88	46735.82
579.04	47026.04
579.21	46894.97
579.37	46471.34
579.53	47004.98
579.69	46586.02
579.85	46703.05
580.01	46906.68
580.17	46571.98
580.33	46909.02
580.49	46885.61
580.65	46843.48
580.82	46836.46
580.98	46583.68
581.14	46834.12
581.30	46988.60
581.46	47002.64
581.62	47243.71
581.78	47129.03
581.94	46873.91
582.10	46684.33
582.26	46937.10
582.42	46368.35
582.58	47089.24
582.74	46986.25
582.90	46885.61
583.06	47100.94
583.22	47484.79
583.38	47379.46
583.54	47175.84
583.70	47114.98
583.86	47136.05
584.02	46791.99
584.18	47077.54
584.34	47061.15
584.50	46799.01
584.66	46990.94
584.82	46747.52
584.98	46958.17
585.14	46707.73
585.30	47239.03
585.46	47105.62
585.62	46780.29
585.78	46848.16
585.94	46616.45
586.10	46897.31
586.26	46951.15
586.42	47283.50
586.58	46976.89
586.74	47014.34
586.90	46665.60
587.06	46864.55
587.22	46777.95
587.38	46747.52
587.54	47082.22
587.70	47007.32
587.86	47047.11
588.02	46740.50
588.18	47178.18
588.34	46712.41
588.49	46370.69
588.65	46529.85
588.81	46405.80
588.97	46277.07
589.13	46490.06
589.29	46752.20
589.45	46403.46
589.61	46721.77
589.77	47210.95
589.93	46962.85
590.08	46920.72
590.24	47014.34
590.40	47215.63
590.56	47260.10
590.72	46866.89
590.88	46944.12
591.04	47084.56
591.20	47491.81
591.35	47154.77
591.51	47454.36
591.67	47379.46
591.83	47126.69
591.99	47227.33
592.15	47150.09
592.31	47323.29
592.46	47192.22
592.62	46887.95
592.78	47283.50
592.94	47107.96
593.10	46995.62
593.26	47143.07
593.41	46951.15
593.57	47187.54
593.73	47133.71
593.89	47026.04
594.05	47012.00
594.20	47098.60
594.36	47292.86
594.52	46838.80
594.68	46878.59
594.84	47178.18
594.99	47583.09
595.15	47447.34
595.31	46930.08
595.47	46894.97
595.62	47107.96
595.78	47175.84
595.94	47232.01
596.10	47377.12
596.25	47224.99
596.41	47372.44
596.57	46904.34
596.73	47449.68
596.88	47103.28
597.04	46974.55
597.20	47229.67
597.36	47133.71
597.51	47590.11
597.67	46934.76
597.83	47210.95
597.99	47288.18
598.14	47051.79
598.30	46993.28
598.46	47042.43
598.61	46944.12
598.77	47070.51
598.93	47194.56
599.09	47274.14
599.24	47952.90
599.40	47320.95
599.56	47267.12
599.71	47288.18
599.87	47304.57
600.03	46834.12
600.18	47107.96
600.34	47009.66
600.50	46932.42
600.65	47143.07
600.81	47316.27
600.97	47159.45
601.12	47533.94
601.28	46997.96
601.44	46899.65
601.59	46689.01
601.75	46684.33
601.91	47030.72
602.06	46990.94
602.22	47234.35
602.37	46890.29
602.53	46618.79
602.69	47332.65
602.84	46829.44
603.00	47189.88
603.16	46873.91
603.31	46653.90
603.47	47049.45
603.62	47496.49
603.78	47662.67
603.94	47096.26
604.09	47065.83
604.25	47267.12
604.40	47344.36
604.56	47234.35
604.71	47239.03
604.87	47077.54
605.03	46979.23
605.18	46672.62
605.34	47248.39
605.49	46735.82
605.65	46841.14
605.80	47049.45
605.96	47297.55
606.12	47112.64
606.27	47269.46
606.43	46824.76
606.58	46831.78
606.74	46440.91
606.89	46857.52
607.05	46621.13
607.20	46897.31
607.36	46897.31
607.51	46817.74
607.67	46951.15
607.82	47037.75
607.98	46897.31
608.13	46635.17
608.29	46518.15
608.44	46466.66
608.60	46026.63
608.75	46487.72
608.91	46426.87
609.06	46195.15
609.22	46639.86
609.37	46382.40
609.53	46361.33
609.68	46277.07
609.84	46436.23
609.99	46340.27
610.15	46686.67
610.30	46412.82
610.46	46520.49
610.61	46227.92
610.76	46677.30
610.92	46436.23
611.07	46749.86
611.23	46653.90
611.38	46162.39
611.54	46312.18
611.69	46089.83
611.84	45830.03
612.00	46036.00
612.15	45787.90
612.31	46293.46
612.46	45862.80
612.62	46564.96
612.77	45890.88
612.92	46387.08
613.08	46328.56
613.23	45771.52
613.39	45631.08
613.54	45874.50
613.69	46101.53
613.85	45762.15
614.00	45918.97
614.15	46096.85
614.31	46028.98
614.46	46157.70
614.62	45975.14
614.77	45572.57
614.92	45904.93
615.08	46014.93
615.23	45492.99
615.38	45698.96
615.54	45301.07
615.69	45911.95
615.84	45488.31
616.00	45668.53
616.15	45361.92
616.30	45385.33
616.46	45308.09
616.61	45579.59
616.76	45312.77
616.92	44858.71
617.07	45247.24
617.22	44982.76
617.37	45209.79
617.53	45457.88
617.68	45404.05
617.83	45450.86
617.99	45406.39
618.14	45270.64
618.29	45111.49
618.45	44814.24
618.60	45109.14
618.75	45104.46
618.90	45113.83
619.06	45591.30
619.21	45249.58
619.36	45485.97
619.51	45240.21
619.67	44975.73
619.82	45633.42
619.97	45113.83
620.12	45092.76
620.28	44734.66
620.43	44804.88
620.58	45198.09
620.73	45062.33
620.89	45038.93
621.04	44727.64
621.19	44847.00
621.34	45226.17
621.49	44914.88
621.65	44397.62
621.80	44868.07
621.95	44311.02
622.10	44428.05
622.25	44425.71
622.41	44287.62
622.56	44231.44
622.71	44346.13
622.86	44540.39
623.01	44072.29
623.16	44271.23
623.32	44821.26
623.47	44428.05
623.62	44030.16
623.77	44353.15
623.92	44203.36
624.07	44243.15
624.23	43978.67
624.38	44439.75
624.53	43873.34
624.68	44315.70
624.83	43697.80
624.98	44669.12
625.13	43777.38
625.29	44069.95
625.44	43711.84
625.59	44161.23
625.74	43215.65
625.89	43697.80
626.04	43426.30
626.19	44123.78
626.34	43545.67
626.49	44233.78
626.65	44194.00
626.80	44322.72
626.95	43655.67
627.10	43796.10
627.25	43185.22
627.40	43728.23
627.55	42777.97
627.70	42953.51
627.85	43196.93
628.00	43295.23
628.15	42986.28
628.30	43342.04
628.45	43557.37
628.60	43239.06
628.76	43538.65
628.91	43421.62
629.06	43278.85
629.21	43337.36
629.36	43079.90
629.51	42876.27
629.66	43079.90
629.81	42810.74
629.96	42529.87
630.11	43084.58
630.26	43145.44
630.41	42775.63
630.56	43468.43
630.71	42822.44
630.86	42799.04
631.01	42904.36
631.16	43009.68
631.31	42464.34
631.46	42089.85
631.61	42480.72
631.76	42773.29
631.91	42930.11
632.06	42747.54
632.21	42913.72
632.36	42873.93
632.51	42429.23
632.66	42684.35
632.81	42433.91
632.96	42611.79
633.10	42377.74
633.25	42541.58
633.40	42539.24
633.55	42733.50
633.70	42316.89
633.85	42667.97
634.00	42108.58
634.15	42815.42
634.30	42401.14
634.45	42288.80
634.60	42270.08
634.75	42700.73
634.90	42227.95
635.05	42263.05
635.19	42068.79
635.34	42293.48
635.49	42106.24
635.64	42064.11
635.79	42167.09
635.94	42192.84
636.09	42050.06
636.24	42129.64
636.39	41560.89
636.53	42080.49
636.68	42253.69
636.83	41596.00
636.98	41741.11
637.13	41750.48
637.28	42019.64
637.43	41958.78
637.57	42288.80
637.72	41778.56
637.87	42010.28
638.02	41820.69
638.17	41588.98
638.32	41900.27
638.46	41539.83
638.61	41715.37
638.76	41600.68
638.91	41490.68
639.06	41762.18
639.20	41462.59
639.35	41535.15
639.50	41493.02
639.65	41574.94
639.80	41989.21
639.94	41291.73
640.09	41212.15
640.24	40751.07
640.39	40751.07
640.54	40643.40
640.68	40954.69
640.83	41134.92
640.98	40959.38
641.13	40921.93
641.27	41769.20
641.42	40928.95
641.57	40828.30
641.72	40830.65
641.86	40837.67
642.01	40804.90
642.16	40755.75
642.31	40741.71
642.45	41116.19
642.60	40568.51
642.75	40500.63
642.90	40851.71
643.04	40840.01
643.19	40449.14
643.34	40631.70
643.48	40767.45
643.63	40233.81
643.78	40360.20
643.93	40198.70
644.07	40612.98
644.22	40591.91
644.37	39931.88
644.51	40708.94
644.66	40612.98
644.81	40446.80
644.95	40364.88
645.10	40470.20
645.25	40397.65
645.39	40194.02
645.54	40411.69
645.69	40547.44
645.83	40472.54
645.98	40240.83
646.13	39775.06
646.27	39775.06
646.42	40189.34
646.57	40034.86
646.71	40222.11
646.86	40215.08
647.00	40023.16
647.15	40020.82
647.30	39782.09
647.44	39913.16
647.59	39594.84
647.74	39295.25
647.88	39990.39
648.03	39615.91
648.17	39721.23
648.32	39739.96
648.47	39950.60
648.61	39391.22
648.76	39768.04
648.90	39831.24
649.05	39533.99
649.20	39482.50
649.34	39126.74
649.49	39608.89
649.63	39288.23
649.78	39604.20
649.92	39555.05
650.07	39318.66
650.21	39161.84
650.36	39402.92
650.51	39068.22
650.65	39697.83
650.80	40172.96
650.94	39501.22
651.09	39688.46
651.23	39246.10
651.38	39442.71
651.52	39447.39
651.67	38967.58
651.81	39136.10
651.96	39026.09
652.10	39119.71
652.25	39203.97
652.39	39379.51
652.54	38993.32
652.68	39098.65
652.83	39140.78
652.97	39299.94
653.12	38806.08
653.26	39344.41
653.41	38770.97
653.55	38712.46
653.70	38710.12
653.84	39210.99
653.99	38902.04
654.13	38845.87
654.27	38843.53
654.42	38265.42
654.56	38237.33
654.71	38602.46
654.85	38518.20
655.00	38614.16
655.14	38497.13
655.29	37928.38
655.43	38024.34
655.57	38096.90
655.72	37933.06
655.86	37663.90
656.01	37434.53
656.15	37982.21
656.30	37951.79
656.44	38174.14
656.58	38242.01
656.73	37977.53
656.87	38059.45
657.01	37469.64
657.16	37888.59
657.30	37930.72
657.45	37387.72
657.59	37956.47
657.73	37951.79
657.88	38026.68
658.02	38220.95
658.16	37982.21
658.31	37830.08
658.45	38012.64
658.60	37399.42
658.74	37696.67
658.88	37242.60
659.03	37579.64
659.17	37724.75
659.31	37331.54
659.46	37338.57
659.60	37535.17
659.74	37949.45
659.89	37160.69
660.03	37221.54
660.17	37029.62
660.32	37537.51
660.46	37717.73
660.60	37207.50
660.74	37172.39
660.89	37186.43
661.03	36790.88
661.17	37148.98
661.32	36526.40
661.46	37027.28
661.60	36577.89
661.74	37017.91
661.89	37055.36
662.03	36503.00
662.17	36580.23
662.31	36531.08
662.46	36818.97
662.60	37137.28
662.74	36421.08
662.88	36392.99
663.03	35974.03
663.17	35964.67
663.31	36172.98
663.45	36158.94
663.60	36463.21
663.74	35711.89
663.88	35995.10
664.02	35978.72
664.17	35765.73
664.31	35861.69
664.45	36137.87
664.59	35461.46
664.73	35838.28
664.88	35810.20
665.02	35288.26
665.16	35515.29
665.30	35491.88
665.44	34962.92
665.59	35372.52
665.73	35091.65
665.87	35206.34
666.01	35274.21
666.15	35339.75
666.29	35332.73
666.44	35615.93
666.58	35386.56
666.72	35260.17
666.86	34873.98
667.00	34918.45
667.14	34881.00
667.28	34504.18
667.43	34775.68
667.57	34986.33
667.71	34630.57
667.85	34768.66
667.99	34609.50
668.13	34759.30
668.27	34663.33
668.41	34864.62
668.56	34375.45
668.70	34485.45
668.84	34195.23
668.98	34094.58
669.12	33668.61
669.26	33837.12
669.40	33783.29
669.54	33687.33
669.68	33993.94
669.82	33755.21
669.96	33617.11
670.10	33570.30
670.25	34003.30
670.39	33813.72
670.53	33200.50
670.67	33207.52
670.81	33486.04
670.95	33551.58
671.09	33528.17
671.23	33057.73
671.37	33024.96
671.51	32896.23
671.65	32727.71
671.79	32708.99
671.93	32851.76
672.07	33064.75
672.21	32713.67
672.35	32568.55
672.49	32615.37
672.63	32701.96
672.77	32390.67
672.91	32664.52
673.05	32645.79
673.19	32484.30
673.33	31927.25
673.47	31913.20
673.61	32105.13
673.75	31571.49
673.89	31632.34
674.03	31503.61
674.17	31611.28
674.31	31754.05
674.45	31674.47
674.59	31658.09
674.73	32091.09
674.87	31622.98
675.01	31805.54
675.15	31587.87
675.29	31248.49
675.43	31281.26
675.56	31358.50
675.70	30885.71
675.84	30911.46
675.98	30382.49
676.12	30845.92
676.26	30920.82
676.40	30806.13
676.54	30529.95
676.68	30347.39
676.82	30045.46
676.96	30288.87
677.10	30452.71
677.23	30593.14
677.37	30433.99
677.51	29865.24
677.65	29825.45
677.79	29558.63
677.93	29565.65
678.07	29935.45
678.21	29596.07
678.34	29359.68
678.48	29298.83
678.62	29003.92
678.76	28685.61
678.90	28762.84
679.04	28961.79
679.18	28985.19
679.31	28589.64
679.45	28671.56
679.59	28362.61
679.73	28395.38
679.87	28278.35
680.00	28173.03
680.14	28236.22
680.28	28095.79
680.42	28170.69
680.56	28362.61
680.70	27847.69
680.83	28493.68
680.97	27910.89
681.11	27433.42
681.25	27197.02
681.39	27496.61
681.52	27407.67
681.66	27304.69
681.80	27608.96
681.94	27620.66
682.07	27234.47
682.21	26984.04
682.35	27087.02
682.49	27091.70
682.62	27047.23
682.76	26679.77
682.90	26607.21
683.04	26686.79
683.17	26305.28
683.31	26209.32
683.45	25949.52
683.59	26066.55
683.72	25745.89
683.86	25858.24
684.00	26101.65
684.13	26094.63
684.27	26150.81
684.41	25420.56
684.55	25638.23
684.68	25408.86
684.82	25142.03
684.96	25675.68
685.09	25252.04
685.23	25177.14
685.37	25249.70
685.50	25228.63
685.64	24926.71
685.78	24716.06
685.91	24830.74
686.05	24542.86
686.19	23997.51
686.32	24212.84
686.46	23875.80
686.60	23646.43
686.73	23405.36
686.87	23578.56
687.01	23707.29
687.14	23220.45
687.28	23468.55
687.42	23367.91
687.55	23573.88
687.69	23370.25
687.82	23325.78
687.96	23316.42
688.10	23033.21
688.23	23112.79
688.37	22817.88
688.50	22618.94
688.64	22843.63
688.78	22944.27
688.91	22703.20
689.05	22434.03
689.18	22478.50
689.32	22331.05
689.46	22104.02
689.59	22361.48
689.73	22572.13
689.86	22361.48
690.00	22094.66
690.13	22349.78
690.27	21837.20
690.41	21841.88
690.54	21598.46
690.68	21586.76
690.81	21671.02
690.95	21621.87
691.08	21546.97
691.22	21200.57
691.35	21226.32
691.49	21694.43
691.62	21231.00
691.76	21139.72
691.89	21120.99
692.03	20868.22
692.16	20980.56
692.30	20409.47
692.43	20629.48
692.57	20180.10
692.70	20507.77
692.84	20552.24
692.97	20217.55
693.11	20098.18
693.24	19948.39
693.38	19756.46
693.51	20367.34
693.65	20128.61
693.78	20271.38
693.92	20184.78
694.05	19847.74
694.19	19480.28
694.32	19857.10
694.45	19578.58
694.59	19372.61
694.72	19005.15
694.86	19269.63
694.99	18970.04
695.13	19096.43
695.26	19115.16
695.39	18803.86
695.53	19016.85
695.66	18724.29
695.80	18913.87
695.93	18546.40
696.07	18382.57
696.20	18541.72
696.33	18775.78
696.47	18424.70
696.60	18270.22
696.73	18017.44
696.87	17947.23
697.00	18310.01
697.14	17872.33
697.27	18008.08
697.40	17825.52
697.54	17916.80
697.67	17514.23
697.80	17584.44
697.94	17334.01
698.07	17198.26
698.21	17331.67
698.34	17245.07
698.47	17184.21
698.61	17092.93
698.74	16842.50
698.87	16973.56
699.01	16798.02
699.14	16802.71
699.27	16374.39
699.40	16437.58
699.54	16608.44
699.67	16535.88
699.80	16259.70
699.94	16369.71
700.07	16493.76
700.20	15915.64
700.34	16201.19
700.47	16240.98
700.60	16332.26
700.73	16154.38
700.87	15985.86
701.00	15962.45
701.13	15999.90
701.26	15616.05
701.40	15534.14
701.53	15543.50
701.66	15602.01
701.79	15131.56
701.93	15548.18
702.06	15171.35
702.19	14984.11
702.32	15372.64
702.46	15009.86
702.59	15068.37
702.72	15147.95
702.85	14916.23
702.99	14843.68
703.12	14757.08
703.25	14757.08
703.38	14443.45
703.51	14537.07
703.65	14476.21
703.78	14672.82
703.91	14520.68
704.04	14424.72
704.17	14239.82
704.31	14195.35
704.44	14038.53
704.57	14171.94
704.70	14017.47
704.83	13818.52
704.96	14075.98
705.10	13996.40
705.23	13767.03
>>>>>End Processed Spectral Data<<<<<
