SpectraSuite Data File
++++++++++++++++++++++++++++++++++++
Date: Fri Oct 25 11:33:44 EDT 2013
User: price-jones
Dark Spectrum Present: No
Reference Spectrum Present: No
Number of Sampled Component Spectra: 1
Spectrometers: USB2+H05261
Integration Time (usec): 100000 (USB2+H05261)
Spectra Averaged: 1 (USB2+H05261)
Boxcar Smoothing: 0 (USB2+H05261)
Correct for Electrical Dark: No (USB2+H05261)
Strobe/Lamp Enabled: No (USB2+H05261)
Correct for Detector Non-linearity: No (USB2+H05261)
Correct for Stray Light: No (USB2+H05261)
Number of Pixels in Processed Spectrum: 2048
>>>>>Begin Processed Spectral Data<<<<<
365.73	301.93
365.92	301.93
366.12	301.93
366.32	262.14
366.52	149.79
366.72	205.97
366.91	119.37
367.11	84.26
367.31	112.35
367.51	135.75
367.70	163.84
367.90	210.65
368.10	184.90
368.30	175.54
368.49	180.22
368.69	257.46
368.89	189.58
369.09	173.20
369.28	203.63
369.48	245.76
369.68	196.60
369.87	271.50
370.07	98.30
370.27	308.95
370.47	344.06
370.66	484.49
370.86	514.92
371.06	554.71
371.25	486.83
371.45	561.73
371.65	538.32
371.84	430.66
372.04	543.00
372.24	486.83
372.44	552.37
372.63	571.09
372.83	505.56
373.03	603.86
373.22	641.31
373.42	571.09
373.62	526.62
373.81	734.93
374.01	685.78
374.21	594.50
374.40	685.78
374.60	662.37
374.79	636.63
374.99	543.00
375.19	634.29
375.38	571.09
375.58	746.63
375.78	718.54
375.97	678.76
376.17	706.84
376.37	692.80
376.56	678.76
376.76	617.90
376.95	664.71
377.15	725.57
377.35	711.52
377.54	711.52
377.74	706.84
377.93	685.78
378.13	667.05
378.33	748.97
378.52	702.16
378.72	748.97
378.91	662.37
379.11	723.23
379.31	671.73
379.50	741.95
379.70	716.20
379.89	711.52
380.09	685.78
380.28	737.27
380.48	741.95
380.68	730.25
380.87	683.44
381.07	713.86
381.26	746.63
381.46	758.33
381.65	795.78
381.85	772.38
382.04	697.48
382.24	786.42
382.43	753.65
382.63	812.17
382.83	746.63
383.02	873.02
383.22	875.36
383.41	774.72
383.61	755.99
383.80	826.21
384.00	877.70
384.19	798.12
384.39	823.87
384.58	770.04
384.78	835.57
384.97	894.08
385.17	896.43
385.36	858.98
385.56	837.91
385.75	788.76
385.95	814.51
386.14	891.74
386.34	833.23
386.53	905.79
386.72	896.43
386.92	940.90
387.11	933.87
387.31	971.32
387.50	784.08
387.70	837.91
387.89	819.19
388.09	929.19
388.28	882.38
388.48	961.96
388.67	961.96
388.86	1001.75
389.06	891.74
389.25	959.62
389.45	854.30
389.64	926.85
389.84	1015.79
390.03	1064.94
390.22	997.07
390.42	947.92
390.61	999.41
390.81	1013.45
391.00	990.05
391.19	954.94
391.39	1034.52
391.58	985.37
391.78	1086.01
391.97	983.02
392.16	954.94
392.36	1043.88
392.55	1025.15
392.75	1128.14
392.94	978.34
393.13	1006.43
393.33	1020.47
393.52	1071.97
393.71	1093.03
393.91	1048.56
394.10	966.64
394.29	1076.65
394.49	1118.78
394.68	1198.35
394.88	1071.97
395.07	1193.67
395.26	1172.61
395.46	1118.78
395.65	1163.25
395.84	1146.86
396.04	1273.25
396.23	1196.01
396.42	1167.93
396.62	1214.74
396.81	1249.85
397.00	1132.82
397.19	1160.91
397.39	1221.76
397.58	1315.38
397.77	1170.27
397.97	1329.42
398.16	1303.68
398.35	1320.06
398.55	1221.76
398.74	1303.68
398.93	1338.79
399.12	1301.34
399.32	1205.38
399.51	1238.14
399.70	1376.24
399.90	1296.66
400.09	1425.39
400.28	1394.96
400.47	1472.20
400.67	1437.09
400.86	1451.13
401.05	1387.94
401.24	1434.75
401.44	1430.07
401.63	1465.18
401.82	1502.62
402.01	1369.21
402.21	1373.89
402.40	1458.15
402.59	1593.90
402.78	1542.41
402.97	1554.12
403.17	1558.80
403.36	1556.46
403.55	1626.67
403.74	1593.90
403.93	1575.18
404.13	1612.63
404.32	1584.54
404.51	1610.29
404.70	1685.19
404.89	1710.93
405.09	1661.78
405.28	1685.19
405.47	1652.42
405.66	1739.02
405.85	1741.36
406.05	1734.34
406.24	1762.42
406.43	1781.15
406.62	1844.34
406.81	1942.64
407.00	1739.02
407.20	1734.34
407.39	1778.81
407.58	1837.32
407.77	1795.19
407.96	1870.09
408.15	1998.82
408.34	1811.57
408.54	1849.02
408.73	1909.88
408.92	1921.58
409.11	1968.39
409.30	1891.15
409.49	1902.86
409.68	1923.92
409.87	2029.24
410.07	2059.67
410.26	2040.95
410.45	2017.54
410.64	2136.91
410.83	2036.27
411.02	2165.00
411.21	2190.74
411.40	2005.84
411.59	2190.74
411.78	2029.24
411.98	2188.40
412.17	2263.30
412.36	2275.00
412.55	2326.49
412.74	2342.88
412.93	2406.07
413.12	2333.51
413.31	2457.56
413.50	2473.95
413.69	2331.17
413.88	2434.16
414.07	2537.14
414.26	2567.57
414.45	2485.65
414.64	2541.82
414.83	2502.03
415.02	2583.95
415.22	2651.83
415.41	2808.64
415.60	2792.26
415.79	2663.53
415.98	2750.13
416.17	2729.06
416.36	2700.98
416.55	2789.92
416.74	2864.82
416.93	2836.73
417.12	2977.16
417.31	2808.64
417.50	2867.16
417.69	3028.65
417.88	2920.99
418.07	2946.73
418.26	2918.65
418.45	2942.05
418.64	3194.83
418.83	3002.91
419.02	2984.18
419.21	3145.68
419.39	3073.12
419.58	3190.15
419.77	3145.68
419.96	3166.74
420.15	3152.70
420.34	3129.30
420.53	3187.81
420.72	3304.84
420.91	3283.77
421.10	3274.41
421.29	3309.52
421.48	3304.84
421.67	3267.39
421.86	3269.73
422.05	3311.86
422.24	3372.71
422.43	3536.55
422.61	3428.88
422.80	3424.20
422.99	3356.33
423.18	3471.01
423.37	3393.78
423.56	3475.70
423.75	3407.82
423.94	3293.13
424.13	3220.58
424.32	3286.11
424.50	3379.73
424.69	3517.83
424.88	3548.25
425.07	3513.14
425.26	3337.60
425.45	3410.16
425.64	3485.06
425.83	3405.48
426.01	3524.85
426.20	3475.70
426.39	3459.31
426.58	3454.63
426.77	3487.40
426.96	3688.68
427.15	3496.76
427.33	3644.21
427.52	3557.61
427.71	3660.60
427.90	3501.44
428.09	3559.95
428.28	3728.47
428.46	3571.66
428.65	3817.41
428.84	3843.16
429.03	3782.31
429.22	3672.30
429.40	3770.60
429.59	3819.75
429.78	3660.60
429.97	3618.47
430.16	3742.52
430.34	3882.95
430.53	3861.88
430.72	3878.27
430.91	4016.36
431.10	3892.31
431.28	3908.69
431.47	4030.40
431.66	4014.02
431.85	3941.46
432.03	4056.15
432.22	4093.60
432.41	4023.38
432.60	4016.36
432.79	4198.92
432.97	4004.66
433.16	4196.58
433.35	4014.02
433.54	4182.54
433.72	4102.96
433.91	4135.73
434.10	4301.90
434.28	4161.47
434.47	4241.05
434.66	4313.61
434.85	4341.69
435.03	4313.61
435.22	4421.27
435.41	4461.06
435.59	4292.54
435.78	4477.44
435.97	4482.13
436.16	4641.28
436.34	4496.17
436.53	4521.92
436.72	4641.28
436.90	4355.74
437.09	4477.44
437.28	4512.55
437.46	4622.56
437.65	4561.70
437.84	4606.17
438.02	4690.43
438.21	4709.16
438.40	4627.24
438.58	4713.84
438.77	4695.11
438.96	4741.93
439.14	4903.42
439.33	4835.55
439.52	4819.16
439.70	4943.21
439.89	5020.45
440.08	5053.22
440.26	5032.15
440.45	4957.25
440.63	5048.54
440.82	5214.71
441.01	5083.64
441.19	5217.05
441.38	5301.31
441.57	5418.34
441.75	5460.47
441.94	5387.91
442.12	5280.25
442.31	5493.24
442.50	5455.79
442.68	5399.62
442.87	5472.17
443.05	5420.68
443.24	5584.52
443.43	5453.45
443.61	5458.13
443.80	5877.09
443.98	5472.17
444.17	5305.99
444.35	5636.01
444.54	5678.14
444.73	5605.58
444.91	5694.52
445.10	5582.18
445.28	5523.66
445.47	5671.12
445.65	5593.88
445.84	5720.27
446.02	5881.77
446.21	5668.78
446.39	5753.04
446.58	5774.10
446.77	5708.57
446.95	5593.88
447.14	5788.14
447.32	5809.21
447.51	5689.84
447.69	5741.33
447.88	5734.31
448.06	5905.17
448.25	5841.98
448.43	5839.64
448.62	5788.14
448.80	5668.78
448.99	5846.66
449.17	5942.62
449.36	5930.92
449.54	5977.73
449.73	6164.97
449.91	6120.50
450.10	6040.92
450.28	6071.35
450.46	6181.35
450.65	6244.55
450.83	6129.86
451.02	6134.54
451.20	6270.30
451.39	6232.85
451.57	6239.87
451.76	6312.42
451.94	6314.77
452.13	6415.41
452.31	6286.68
452.49	6139.23
452.68	6420.09
452.86	6361.58
453.05	6267.95
453.23	6406.05
453.42	6267.95
453.60	6331.15
453.78	6509.03
453.97	6581.59
454.15	6338.17
454.34	6408.39
454.52	6581.59
454.70	6738.40
454.89	6476.26
455.07	6665.85
455.26	6628.40
455.44	6656.48
455.62	6801.60
455.81	6665.85
455.99	6806.28
456.17	6738.40
456.36	6630.74
456.54	6937.35
456.73	6958.41
456.91	7021.61
457.09	7059.06
457.28	7124.59
457.46	6843.73
457.64	7122.25
457.83	7028.63
458.01	6956.07
458.19	7157.36
458.38	7176.08
458.56	7351.62
458.74	7136.29
458.93	7262.68
459.11	7281.41
459.29	7192.47
459.48	7302.47
459.66	7136.29
459.84	7506.10
460.03	7470.99
460.21	7480.35
460.39	7424.18
460.57	7265.02
460.76	7435.88
460.94	7536.52
461.12	7501.42
461.31	7611.42
461.49	7506.10
461.67	7627.81
461.85	7705.04
462.04	7683.98
462.22	7988.25
462.40	7700.36
462.59	7822.07
462.77	7829.09
462.95	7971.86
463.13	7810.37
463.32	7754.19
463.50	7775.26
463.68	8095.91
463.86	7824.41
464.05	7852.50
464.23	7763.56
464.41	7775.26
464.59	7873.56
464.78	8367.42
464.96	7988.25
465.14	7925.05
465.32	7978.89
465.50	8184.85
465.69	8138.04
465.87	8191.88
466.05	8128.68
466.23	8290.18
466.41	8229.32
466.60	8313.58
466.78	8175.49
466.96	8102.93
467.14	8304.22
467.32	8259.75
467.51	8367.42
467.69	8229.32
467.87	8365.07
468.05	8411.89
468.23	8409.54
468.41	8355.71
468.60	8542.96
468.78	8435.29
468.96	8568.70
469.14	8512.53
469.32	8793.39
469.50	8676.37
469.69	8641.26
469.87	8657.64
470.05	8755.94
470.23	8798.07
470.41	8795.73
470.59	8779.35
470.77	8734.88
470.95	8879.99
471.14	9242.78
471.32	8847.22
471.50	8929.14
471.68	9043.83
471.86	9181.92
472.04	9142.13
472.22	9345.76
472.40	9149.15
472.58	9081.28
472.77	9474.49
472.95	9408.95
473.13	9675.77
473.31	9444.06
473.49	9586.83
473.67	9373.85
473.85	9563.43
474.03	9650.03
474.21	9753.01
474.39	9806.84
474.57	9745.99
474.75	9799.82
474.93	9942.60
475.12	9984.73
475.30	10031.54
475.48	9895.78
475.66	10157.92
475.84	10005.79
476.02	10260.91
476.20	10274.95
476.38	10513.69
476.56	10445.81
476.74	10483.26
476.92	10415.38
477.10	10530.07
477.28	10731.36
477.46	10637.73
477.64	10761.78
477.82	11007.54
478.00	11253.30
478.18	11290.74
478.36	11173.72
478.54	11424.15
478.72	11309.47
478.90	11382.03
479.08	11468.62
479.26	11583.31
479.44	11641.82
479.62	11955.46
479.80	11824.39
479.98	11887.58
480.16	12636.55
480.34	12243.34
480.52	12360.37
480.70	12404.84
480.88	12245.68
481.06	12292.49
481.24	12643.57
481.41	12540.59
481.59	12669.32
481.77	12755.92
481.95	13062.53
482.13	13252.11
482.31	13041.46
482.49	13500.21
482.67	13231.05
482.85	13486.17
483.03	13664.05
483.21	13624.26
483.39	13984.70
483.57	13916.83
483.74	13661.71
483.92	14113.43
484.10	14036.19
484.28	14452.81
484.46	14403.66
484.64	14923.26
484.82	14544.09
485.00	14654.09
485.18	14981.77
485.35	15190.08
485.53	15023.90
485.71	15199.44
485.89	15627.76
486.07	15421.79
486.25	15391.36
486.43	15704.99
486.61	15641.80
486.78	15737.76
486.96	16063.10
487.14	16196.51
487.32	16283.11
487.50	16278.43
487.68	16292.47
487.85	16786.32
488.03	16699.72
488.21	16971.22
488.39	16915.05
488.57	17036.76
488.75	16947.82
488.92	17879.35
489.10	17689.77
489.28	17523.59
489.46	17827.86
489.64	17722.54
489.81	18015.10
489.99	18345.12
490.17	18497.25
490.35	18476.19
490.53	18658.75
490.70	18480.87
490.88	18457.46
491.06	18803.86
491.24	19267.29
491.41	19187.71
491.59	19323.46
491.77	19307.08
491.95	19484.96
492.13	19428.79
492.30	19709.65
492.48	19819.66
492.66	19768.16
492.84	19990.52
493.01	20269.04
493.19	20201.16
493.37	20287.76
493.54	20416.49
493.72	20671.61
493.90	20601.40
494.08	20994.61
494.25	21015.67
494.43	20842.47
494.61	21172.49
494.79	21310.58
494.96	21085.89
495.14	21809.11
495.32	21642.93
495.49	21909.75
495.67	21743.58
495.85	22164.87
496.02	22298.28
496.20	22515.95
496.38	22394.25
496.55	22724.26
496.73	23108.11
496.91	22632.98
497.09	22920.87
497.26	23077.68
497.44	23033.21
497.62	22972.36
497.79	23433.44
497.97	23323.44
498.14	23843.04
498.32	23838.36
498.50	23665.16
498.67	24175.39
498.85	23915.59
499.03	24423.49
499.20	24156.67
499.38	24393.06
499.56	24554.56
499.73	24680.95
499.91	24599.03
500.08	24664.57
500.26	24620.10
500.44	25039.05
500.61	24886.92
500.79	24830.74
500.97	25532.90
501.14	25308.21
501.32	25741.21
501.49	25441.62
501.67	25570.35
501.84	25507.16
502.02	25671.00
502.20	25886.32
502.37	25692.06
502.55	25809.09
502.72	26190.59
502.90	25902.71
503.07	26066.55
503.25	26008.03
503.43	26108.68
503.60	26085.27
503.78	26412.95
503.95	26206.98
504.13	26693.81
504.30	26941.91
504.48	26679.77
504.65	26707.85
504.83	27211.07
505.01	27117.45
505.18	27236.81
505.36	27281.28
505.53	27339.80
505.71	27463.85
505.88	27302.35
506.06	27297.67
506.23	27782.16
506.41	27548.11
506.58	27922.59
506.76	27835.99
506.93	28379.00
507.11	28348.57
507.28	28254.95
507.46	28517.09
507.63	28142.60
507.81	28664.54
507.98	28507.72
508.16	28474.96
508.33	28966.47
508.50	28868.17
508.68	28982.85
508.85	29156.05
509.03	29186.48
509.20	28854.12
509.38	29677.99
509.55	29647.57
509.73	29289.46
509.90	29457.98
510.08	28896.25
510.25	29727.14
510.42	29425.22
510.60	29933.11
510.77	29890.98
510.95	30562.72
511.12	29879.28
511.30	30024.39
511.47	30218.66
511.64	29762.25
511.82	30216.32
511.99	30747.62
512.17	30735.92
512.34	30611.87
512.51	30682.08
512.69	31122.10
512.86	30682.08
513.04	31098.70
513.21	30792.09
513.38	31749.37
513.56	31182.96
513.73	30930.18
513.90	31332.75
514.08	31449.78
514.25	31639.36
514.43	31681.49
514.60	31896.82
514.77	31653.40
514.95	31644.04
515.12	31688.51
515.29	31718.94
515.47	31833.63
515.64	32060.66
515.81	32051.30
515.99	32271.31
516.16	32334.50
516.33	32449.19
516.51	32517.06
516.68	32507.70
516.85	32385.99
517.03	32994.53
517.20	32716.01
517.37	32840.06
517.54	32905.59
517.72	32950.06
517.89	33347.95
518.06	32863.46
518.24	33373.70
518.41	33039.00
518.58	33212.20
518.75	32933.68
518.93	33443.91
519.10	33326.89
519.27	33731.80
519.45	33462.64
519.62	33720.10
519.79	33916.70
519.96	33802.02
520.14	33813.72
520.31	33668.61
520.48	34260.76
520.65	34010.32
520.83	34511.20
521.00	34616.52
521.17	34478.43
521.34	34225.65
521.52	34518.22
521.69	34462.05
521.86	34848.24
522.03	34824.83
522.20	35208.68
522.38	34941.86
522.55	35105.70
522.72	35182.93
522.89	34932.50
523.07	35332.73
523.24	34864.62
523.41	35414.65
523.58	35159.53
523.75	35564.44
523.92	35180.59
524.10	35536.35
524.27	35718.92
524.44	36051.27
524.61	36053.61
524.78	36231.49
524.96	36128.51
525.13	35833.60
525.30	36329.80
525.47	36313.41
525.64	36322.77
525.81	36692.58
525.98	36367.24
526.16	36107.44
526.33	36172.98
526.50	36542.78
526.67	36711.30
526.84	36753.43
527.01	36580.23
527.18	36479.59
527.36	36605.98
527.53	36769.82
527.70	37158.34
527.87	37507.08
528.04	36903.23
528.21	37156.00
528.38	36898.55
528.55	37446.23
528.72	37228.56
528.89	37170.05
529.07	37179.41
529.24	37165.37
529.41	37670.92
529.58	37347.93
529.75	37305.80
529.92	37930.72
530.09	37867.53
530.26	38225.63
530.43	37963.49
530.60	37593.68
530.77	37762.20
530.94	38052.43
531.11	38075.84
531.28	38305.21
531.46	37612.41
531.63	38164.78
531.80	38223.29
531.97	38295.85
532.14	38157.75
532.31	38253.72
532.48	38946.51
532.65	38700.76
532.82	38335.63
532.99	38218.61
533.16	38527.56
533.33	38635.22
533.50	38946.51
533.67	38852.89
533.84	38768.63
534.01	38988.64
534.18	38979.28
534.35	39276.53
534.52	39438.03
534.69	39882.73
534.86	38960.56
535.03	39110.35
535.20	39000.35
535.37	39959.97
535.54	39562.08
535.71	39267.17
535.88	39569.10
536.05	39536.33
536.22	39758.68
536.38	40046.57
536.55	39791.45
536.72	39917.84
536.89	39770.38
537.06	39997.41
537.23	40137.85
537.40	39814.85
537.57	39805.49
537.74	39669.74
537.91	40446.80
538.08	40215.08
538.25	39503.56
538.42	40151.89
538.59	40627.02
538.75	40701.92
538.92	40718.30
539.09	40582.55
539.26	40353.18
539.43	40474.88
539.60	40662.13
539.77	40774.47
539.94	41177.04
540.11	41001.50
540.28	40903.20
540.44	40985.12
540.61	40573.19
540.78	40678.51
540.95	40985.12
541.12	41081.08
541.29	41144.28
541.46	41029.59
541.62	41038.95
541.79	41591.32
541.96	40942.99
542.13	41399.40
542.30	41048.32
542.47	40945.33
542.63	41319.82
542.80	41518.76
542.97	41804.31
543.14	42108.58
543.31	41869.84
543.48	41823.03
543.64	42272.42
543.81	42197.52
543.98	41677.92
544.15	42178.79
544.32	41961.12
544.48	42576.69
544.65	42382.42
544.82	42300.50
544.99	42216.24
545.16	42092.19
545.32	41895.59
545.49	42815.42
545.66	43058.84
545.83	42476.04
546.00	42829.46
546.16	42660.94
546.33	42485.40
546.50	41942.40
546.67	43161.82
546.83	42401.14
547.00	42515.83
547.17	42871.59
547.34	42698.39
547.50	43370.13
547.67	43115.01
547.84	43129.05
548.00	43239.06
548.17	43250.76
548.34	43288.21
548.51	43297.57
548.67	43430.98
548.84	43318.64
549.01	42995.64
549.18	43391.19
549.34	43599.50
549.51	43566.73
549.68	43489.49
549.84	43360.76
550.01	43744.61
550.18	43473.11
550.34	43257.78
550.51	43632.27
550.68	43810.15
550.84	43805.47
551.01	43564.39
551.18	43945.90
551.34	43714.19
551.51	44048.88
551.68	43959.94
551.84	43945.90
552.01	43625.25
552.18	44205.70
552.34	43840.57
552.51	43782.06
552.68	43964.62
552.84	44201.02
553.01	43894.41
553.18	43950.58
553.34	44692.53
553.51	43885.04
553.67	44357.83
553.84	44715.93
554.01	44587.21
554.17	44203.36
554.34	44828.28
554.51	44559.12
554.67	44692.53
554.84	44626.99
555.00	44498.26
555.17	44662.10
555.33	44273.57
555.50	44765.09
555.67	45050.63
555.83	45090.42
556.00	45139.57
556.16	45090.42
556.33	44751.04
556.50	44886.79
556.66	44989.78
556.83	44952.33
556.99	45144.25
557.16	45380.65
557.32	45457.88
557.49	45530.44
557.65	44884.45
557.82	45139.57
557.98	45427.46
558.15	45151.27
558.32	44928.92
558.48	45228.51
558.65	45017.86
558.81	45244.90
558.98	45092.76
559.14	45390.01
559.31	45076.38
559.47	45401.71
559.64	45535.12
559.80	45563.21
559.97	45661.51
560.13	45354.90
560.30	45319.79
560.46	45883.86
560.63	45972.80
560.79	45792.58
560.96	45731.73
561.12	45855.78
561.29	45390.01
561.45	45965.78
561.61	45750.45
561.78	46075.79
561.94	45485.97
562.11	45991.53
562.27	45846.41
562.44	45682.58
562.60	46005.57
562.77	46045.36
562.93	45933.01
563.10	46281.75
563.26	45633.42
563.42	46316.86
563.59	46223.24
563.75	45628.74
563.92	45722.37
564.08	46000.89
564.24	46237.28
564.41	46204.52
564.57	46258.35
564.74	46384.74
564.90	45862.80
565.07	46405.80
565.23	46050.04
565.39	46630.49
565.56	46670.28
565.72	45933.01
565.88	46096.85
566.05	46326.22
566.21	46080.47
566.38	46380.06
566.54	46611.77
566.70	46447.93
566.87	46256.01
567.03	46157.70
567.19	46532.19
567.36	46642.20
567.52	46356.65
567.68	46934.76
567.85	46504.10
568.01	46714.75
568.17	46398.78
568.34	46644.54
568.50	46906.68
568.66	46237.28
568.83	47082.22
568.99	46504.10
569.15	46616.45
569.32	47004.98
569.48	46307.50
569.64	46663.26
569.81	46618.79
569.97	46944.12
570.13	46454.95
570.30	46679.64
570.46	46600.07
570.62	46981.57
570.78	46469.00
570.95	46887.95
571.11	47075.19
571.27	46859.87
571.43	46347.29
571.60	46749.86
571.76	46724.11
571.92	46532.19
572.09	46590.70
572.25	46705.39
572.41	46532.19
572.57	47100.94
572.74	47002.64
572.90	46569.64
573.06	47105.62
573.22	46948.81
573.38	47040.09
573.55	47302.23
573.71	46911.36
573.87	47175.84
574.03	47077.54
574.20	47012.00
574.36	47203.92
574.52	47175.84
574.68	46986.25
574.84	47320.95
575.01	47262.44
575.17	47033.07
575.33	46684.33
575.49	46920.72
575.65	47337.33
575.82	46979.23
575.98	46939.44
576.14	47166.48
576.30	47473.09
576.46	47278.82
576.62	47019.02
576.79	47049.45
576.95	46651.56
577.11	46927.74
577.27	47178.18
577.43	47131.37
577.59	46628.15
577.75	47143.07
577.92	46958.17
578.08	47117.32
578.24	47435.64
578.40	47463.72
578.56	47669.69
578.72	47498.83
578.88	47274.14
579.04	47133.71
579.21	47302.23
579.37	47732.89
579.53	47365.42
579.69	47274.14
579.85	47306.91
580.01	47122.01
580.17	47372.44
580.33	47735.23
580.49	47306.91
580.65	47257.76
580.82	47208.61
580.98	47412.23
581.14	46681.98
581.30	47405.21
581.46	47257.76
581.62	47070.51
581.78	47416.91
581.94	47569.05
582.10	47192.22
582.26	47285.84
582.42	47290.52
582.58	47842.89
582.74	47590.11
582.90	47590.11
583.06	47767.99
583.22	47124.35
583.38	47503.51
583.54	47700.12
583.70	47639.26
583.86	47709.48
584.02	47395.85
584.18	47201.58
584.34	47585.43
584.50	47885.02
584.66	47714.16
584.82	47643.94
584.98	48011.41
585.14	47398.19
585.30	47395.85
585.46	47798.42
585.62	47187.54
585.78	47550.32
585.94	47117.32
586.10	47536.28
586.26	47540.96
586.42	47435.64
586.58	47613.52
586.74	47606.50
586.90	47665.01
587.06	47407.55
587.22	47503.51
587.38	47304.57
587.54	48140.14
587.70	48093.33
587.86	47917.79
588.02	47695.44
588.18	47295.21
588.34	47232.01
588.49	47531.60
588.65	47550.32
588.81	47267.12
588.97	47592.45
589.13	47215.63
589.29	47012.00
589.45	47805.44
589.61	47782.04
589.77	47777.36
589.93	47435.64
590.08	47782.04
590.24	48193.97
590.40	47896.72
590.56	48172.91
590.72	47945.87
590.88	47655.65
591.04	47372.44
591.20	47779.70
591.35	48226.74
591.51	48327.38
591.67	48163.54
591.83	47929.49
591.99	47917.79
592.15	48018.43
592.31	47718.84
592.46	47889.70
592.62	48128.44
592.78	48044.18
592.94	48470.15
593.10	48224.40
593.26	48287.59
593.41	47683.73
593.57	47945.87
593.73	48088.65
593.89	48327.38
594.05	48395.26
594.20	48184.61
594.36	48067.58
594.52	48205.67
594.68	48065.24
594.84	48137.80
594.99	48289.93
595.15	48074.60
595.31	48402.28
595.47	48303.98
595.62	48105.03
595.78	47849.91
595.94	48472.49
596.10	48266.53
596.25	48449.09
596.41	48184.61
596.57	48076.94
596.73	48364.83
596.88	48325.04
597.04	48203.33
597.20	48329.72
597.36	48175.25
597.51	48521.65
597.67	48231.42
597.83	48170.57
597.99	48243.12
598.14	48222.06
598.30	48472.49
598.46	48456.11
598.61	48376.53
598.77	48765.06
598.93	48296.95
599.09	48439.73
599.24	48561.44
599.40	48107.37
599.56	48322.70
599.71	48886.77
599.87	48704.21
600.03	48395.26
600.18	48776.76
600.34	48603.56
600.50	48570.80
600.65	48292.27
600.81	48825.92
600.97	48989.75
601.12	48374.19
601.28	48451.43
601.44	48252.48
601.59	48793.15
601.75	48435.05
601.91	48540.37
602.06	47920.13
602.22	48074.60
602.37	48325.04
602.53	48165.88
602.69	48456.11
602.84	48205.67
603.00	48222.06
603.16	48289.93
603.31	48680.80
603.47	48472.49
603.62	48341.42
603.78	48633.99
603.94	48502.92
604.09	48425.68
604.25	48116.73
604.40	48339.08
604.56	48463.13
604.71	48994.43
604.87	48107.37
605.03	48509.94
605.18	48411.64
605.34	47945.87
605.49	48231.42
605.65	48184.61
605.80	48170.57
605.96	48406.96
606.12	48135.46
606.27	48315.68
606.43	48294.61
606.58	48126.10
606.74	48264.19
606.89	48271.21
607.05	48320.36
607.20	48065.24
607.36	48224.40
607.51	48385.89
607.67	47845.23
607.82	48271.21
607.98	47992.68
608.13	48203.33
608.29	48175.25
608.44	48034.81
608.60	48273.55
608.75	48278.23
608.91	47814.80
609.06	47824.17
609.22	48374.19
609.37	48060.56
609.53	48318.02
609.68	48416.32
609.84	48287.59
609.99	48212.70
610.15	47833.53
610.30	48243.12
610.46	47821.83
610.61	48041.84
610.76	48353.13
610.92	47732.89
611.07	47892.04
611.23	47959.92
611.38	48048.86
611.54	48168.22
611.69	47999.71
611.84	48109.71
612.00	47648.63
612.15	47639.26
612.31	47440.32
612.46	47882.68
612.62	47798.42
612.77	47564.37
612.92	48041.84
613.08	47569.05
613.23	47512.88
613.39	47533.94
613.54	47503.51
613.69	47985.66
613.85	47484.79
614.00	47707.14
614.15	48069.92
614.31	47531.60
614.46	47592.45
614.62	47526.92
614.77	47980.98
614.92	47917.79
615.08	47229.67
615.23	47700.12
615.38	47934.17
615.54	47454.36
615.69	47782.04
615.84	47487.13
616.00	47906.08
616.15	47868.64
616.30	47545.64
616.46	47470.75
616.61	47704.80
616.76	47545.64
616.92	47056.47
617.07	47674.37
617.22	47178.18
617.37	47122.01
617.53	47515.22
617.68	47826.51
617.83	47477.77
617.99	47709.48
618.14	47388.83
618.29	47196.90
618.45	47306.91
618.60	47096.26
618.75	46965.19
618.90	47150.09
619.06	47164.14
619.21	47009.66
619.36	47033.07
619.51	47173.50
619.67	46649.22
619.82	46941.78
619.97	47107.96
620.12	47154.77
620.28	46866.89
620.43	47484.79
620.58	47086.90
620.73	47033.07
620.89	47250.74
621.04	47047.11
621.19	46932.42
621.34	46927.74
621.49	46424.53
621.65	47138.39
621.80	46883.27
621.95	46939.44
622.10	46616.45
622.25	46646.88
622.41	46681.98
622.56	47131.37
622.71	46918.38
622.86	46674.96
623.01	46941.78
623.16	46747.52
623.32	46412.82
623.47	46691.35
623.62	46581.34
623.77	46997.96
623.92	46639.86
624.07	46614.11
624.23	46920.72
624.38	46377.72
624.53	46454.95
624.68	46340.27
624.83	46302.82
624.98	46230.26
625.13	45942.38
625.29	46267.71
625.44	46286.43
625.59	46518.15
625.74	46312.18
625.89	45928.33
626.04	46148.34
626.19	46333.24
626.34	46171.75
626.49	45921.31
626.65	45998.55
626.80	46270.05
626.95	45975.14
627.10	45900.25
627.25	46099.19
627.40	46277.07
627.55	46237.28
627.70	45900.25
627.85	46169.41
628.00	45963.44
628.15	45851.09
628.30	45724.71
628.45	45205.11
628.60	45324.47
628.76	45710.66
628.91	46082.81
629.06	45427.46
629.21	45603.00
629.36	45162.98
629.51	45862.80
629.66	45940.04
629.81	45329.16
629.96	45610.02
630.11	45612.36
630.26	45322.13
630.41	45488.31
630.56	45715.34
630.71	45151.27
630.86	45247.24
631.01	45102.12
631.16	45401.71
631.31	45050.63
631.46	45390.01
631.61	45544.48
631.76	45507.04
631.91	45675.55
632.06	45478.95
632.21	45315.11
632.36	45640.45
632.51	45219.15
632.66	45446.18
632.81	45504.70
632.96	45514.06
633.10	44804.88
633.25	45408.73
633.40	45144.25
633.55	45198.09
633.70	45062.33
633.85	45165.32
634.00	44999.14
634.15	44942.97
634.30	44570.82
634.45	44432.73
634.60	44737.00
634.75	45102.12
634.90	45097.44
635.05	45106.80
635.19	45003.82
635.34	45251.92
635.49	44247.83
635.64	44704.23
635.79	44952.33
635.94	44882.11
636.09	44957.01
636.24	44793.17
636.39	44552.10
636.53	44856.37
636.68	44917.22
636.83	44109.74
636.98	44229.10
637.13	44041.86
637.28	44191.65
637.43	44201.02
637.57	44306.34
637.72	44584.86
637.87	43999.73
638.02	44172.93
638.17	44430.39
638.32	44194.00
638.46	44041.86
638.61	43922.49
638.76	44201.02
638.91	43763.34
639.06	43887.39
639.20	43861.64
639.35	43910.79
639.50	43772.70
639.65	43756.32
639.80	43653.33
639.94	44062.93
640.09	44287.62
640.24	43826.53
640.39	43548.01
640.54	44039.52
640.68	44025.48
640.83	44411.67
640.98	43564.39
641.13	43882.70
641.27	44416.35
641.42	43395.87
641.57	43796.10
641.72	43496.52
641.86	43543.33
642.01	43728.23
642.16	43484.81
642.31	43065.86
642.45	43320.98
642.60	43295.23
642.75	43475.45
642.90	43758.66
643.04	43650.99
643.19	43501.20
643.34	42983.94
643.48	43035.43
643.63	43475.45
643.78	43540.99
643.93	43430.98
644.07	43508.22
644.22	43210.97
644.37	43063.52
644.51	43494.18
644.66	43407.58
644.81	43276.51
644.95	43056.50
645.10	43339.70
645.25	42948.83
645.39	43267.14
645.54	42890.32
645.69	42478.38
645.83	42724.14
645.98	42719.46
646.13	43026.07
646.27	43196.93
646.42	42660.94
646.57	43030.75
646.71	43232.04
646.86	43028.41
647.00	42883.30
647.15	43005.00
647.30	42658.60
647.44	42756.91
647.59	42609.45
647.74	42480.72
647.88	42752.23
648.03	43030.75
648.17	42696.05
648.32	42773.29
648.47	42843.51
648.61	42202.20
648.76	42426.89
648.90	42515.83
649.05	42618.81
649.20	42696.05
649.34	42422.21
649.49	42859.89
649.63	42937.13
649.78	42134.32
649.92	42354.33
650.07	42525.19
650.21	42672.65
650.36	42768.61
650.51	42146.03
650.65	42501.79
650.80	42717.12
650.94	42478.38
651.09	42234.97
651.23	42085.17
651.38	42108.58
651.52	41757.50
651.67	42014.96
651.81	41977.51
651.96	41867.50
652.10	41631.11
652.25	41584.30
652.39	42213.90
652.54	41977.51
652.68	42139.00
652.83	41989.21
652.97	42270.08
653.12	41483.66
653.26	41914.31
653.41	41799.63
653.55	41659.20
653.70	41893.25
653.84	41876.86
653.99	42134.32
654.13	42167.09
654.27	41991.55
654.42	41989.21
654.56	41670.90
654.71	41530.47
654.85	41769.20
655.00	41825.37
655.14	41539.83
655.29	41516.42
655.43	41958.78
655.57	41593.66
655.72	41207.47
655.86	41397.06
656.01	41050.66
656.15	41045.97
656.30	41392.37
656.44	41102.15
656.58	41207.47
656.73	41076.40
656.87	41050.66
657.01	40662.13
657.16	41078.74
657.30	41060.02
657.45	41193.43
657.59	41001.50
657.73	40641.06
657.88	41174.70
658.02	41221.52
658.16	41251.94
658.31	40678.51
658.45	40762.77
658.60	41029.59
658.74	40673.83
658.88	41291.73
659.03	40470.20
659.17	40289.98
659.31	39920.18
659.46	40299.34
659.60	40463.18
659.74	40037.20
659.89	40287.64
660.03	40133.17
660.17	40175.30
660.32	39835.92
660.46	40191.68
660.60	39583.14
660.74	40076.99
660.89	40030.18
661.03	39943.58
661.17	39906.13
661.32	39377.17
661.46	39782.09
661.60	39775.06
661.74	39700.17
661.89	39608.89
662.03	39861.66
662.17	39604.20
662.31	39150.14
662.46	39227.38
662.60	39473.13
662.74	39079.92
662.88	39049.50
663.03	38644.59
663.17	39082.27
663.31	38614.16
663.45	39246.10
663.60	39407.60
663.74	38983.96
663.88	39070.56
664.02	38586.07
664.17	39194.61
664.31	38871.62
664.45	38974.60
664.59	38721.82
664.73	38518.20
664.88	38794.38
665.02	38396.49
665.16	38377.76
665.30	38403.51
665.44	38206.90
665.59	38326.27
665.73	38349.68
665.87	37979.87
666.01	38366.06
666.15	38148.39
666.29	37912.00
666.44	38590.75
666.58	37532.83
666.72	38024.34
666.86	37736.46
667.00	37500.06
667.14	37876.89
667.28	37535.17
667.43	37406.44
667.57	38007.96
667.71	37689.65
667.85	37546.87
667.99	37429.85
668.13	37469.64
668.27	37060.04
668.41	36919.61
668.56	37095.15
668.70	36795.56
668.84	36444.48
668.98	36488.95
669.12	37050.68
669.26	37242.60
669.40	36816.63
669.54	36821.31
669.68	36865.78
669.82	36657.47
669.96	36294.69
670.10	35948.29
670.25	35873.39
670.39	36058.29
670.53	36290.01
670.67	36282.98
670.81	36512.36
670.95	36837.69
671.09	36058.29
671.23	35686.15
671.37	36051.27
671.51	35775.09
671.65	35498.91
671.79	35786.79
671.93	35728.28
672.07	35508.27
672.21	35576.14
672.35	35150.17
672.49	35419.33
672.63	35089.31
672.77	35065.91
672.91	35306.98
673.05	35344.43
673.19	34579.07
673.33	34979.31
673.47	34897.39
673.61	34656.31
673.75	34939.52
673.89	34558.01
674.03	34487.79
674.17	34146.08
674.31	34218.63
674.45	34307.57
674.59	34335.66
674.73	33965.85
674.87	33820.74
675.01	33827.76
675.15	33612.43
675.29	33544.56
675.43	33546.90
675.56	33502.43
675.70	33486.04
675.84	32992.19
675.98	32552.17
676.12	33397.10
676.26	33467.32
676.40	33127.94
676.54	32793.25
676.68	32870.48
676.82	32407.06
676.96	32893.89
677.10	32425.78
677.23	32807.29
677.37	32496.00
677.51	32341.52
677.65	32084.06
677.79	32299.39
677.93	31990.44
678.07	31978.74
678.21	31512.97
678.34	31704.90
678.48	31641.70
678.62	31407.65
678.76	31417.01
678.90	31304.67
679.04	31201.68
679.18	31379.56
679.31	31070.61
679.45	30759.32
679.59	30518.25
679.73	31101.04
679.87	30780.39
680.00	30551.01
680.14	30668.04
680.28	30579.10
680.42	30410.58
680.56	30511.22
680.70	30302.92
680.83	30052.48
680.97	29703.74
681.11	29963.54
681.25	29603.10
681.39	29453.30
681.52	29811.40
681.66	29221.59
681.80	28851.78
681.94	28767.52
682.07	29106.90
682.21	28816.68
682.35	28636.45
682.49	28971.15
682.62	28336.87
682.76	29003.92
682.90	28545.17
683.04	28187.07
683.17	28411.76
683.31	28063.02
683.45	27864.08
683.59	27672.15
683.72	27667.47
683.86	27908.55
684.00	27480.23
684.13	27850.03
684.27	27330.44
684.41	27470.87
684.55	27548.11
684.68	27164.26
684.82	26972.33
684.96	26991.06
685.09	27035.53
685.23	27012.12
685.37	27421.72
685.50	27463.85
685.64	27061.27
685.78	26895.10
685.91	26532.31
686.05	26005.69
686.19	25671.00
686.32	26019.74
686.46	25577.37
686.60	25411.20
686.73	25827.81
686.87	25539.93
687.01	26281.88
687.14	25675.68
687.28	25687.38
687.42	25600.78
687.55	25436.94
687.69	25181.82
687.82	24985.22
687.96	25179.48
688.10	25177.14
688.23	24844.79
688.37	24837.76
688.50	25074.16
688.64	24655.20
688.78	24627.12
688.91	24299.44
689.05	24353.27
689.18	23936.66
689.32	23908.57
689.46	23599.62
689.59	23924.96
689.73	24208.16
689.86	24023.26
690.00	23784.52
690.13	23632.39
690.27	23435.78
690.41	23456.85
690.54	23346.84
690.68	23012.15
690.81	22597.87
690.95	22735.96
691.08	22932.57
691.22	22520.63
691.35	22649.36
691.49	23012.15
691.62	22572.13
691.76	22113.38
691.89	22544.04
692.03	21802.09
692.16	21687.40
692.30	22040.82
692.43	22148.49
692.57	21795.07
692.70	21544.63
692.84	21635.91
692.97	21348.03
693.11	21678.04
693.24	21245.04
693.38	21593.78
693.51	21153.76
693.65	20879.92
693.78	21144.40
693.92	20594.37
694.05	20863.54
694.19	20442.24
694.32	20725.44
694.45	20805.02
694.59	20819.07
694.72	20512.46
694.86	20112.22
694.99	20269.04
695.13	19850.08
695.26	20196.48
695.39	19695.61
695.53	19768.16
695.66	19674.54
695.80	19538.79
695.93	19538.79
696.07	19302.40
696.20	19545.81
696.33	19098.77
696.47	18754.71
696.60	19147.92
696.73	19197.07
696.87	19161.97
697.00	18857.70
697.14	18731.31
697.27	18494.91
697.40	18459.81
697.54	18478.53
697.67	18384.91
697.80	18401.29
697.94	18200.01
698.07	18246.82
698.21	18251.50
698.34	18054.89
698.47	17991.70
698.61	17762.33
698.74	17657.00
698.87	17343.37
699.01	17420.61
699.14	17514.23
699.27	17621.89
699.40	17282.52
699.54	17343.37
699.67	17228.68
699.80	17259.11
699.94	16758.24
700.07	16950.16
700.20	17041.44
700.34	16886.97
700.47	17018.04
700.60	16975.91
700.73	16613.12
700.87	16575.67
701.00	16287.79
701.13	16348.64
701.26	16098.20
701.40	16140.33
701.53	15864.15
701.66	16238.64
701.79	16126.29
701.93	15777.55
702.06	15683.93
702.19	15627.76
702.32	15733.08
702.46	15894.58
702.59	15927.35
702.72	15714.36
702.85	15463.92
702.99	15021.56
703.12	15075.39
703.25	15157.31
703.38	15035.60
703.51	15061.35
703.65	14956.02
703.78	14616.65
703.91	14413.02
704.04	14583.88
704.17	14703.25
704.31	14820.27
704.44	14551.11
704.57	14291.31
704.70	14286.63
704.83	14019.81
704.96	14026.83
705.10	14225.78
705.23	14064.28
>>>>>End Processed Spectral Data<<<<<
