SpectraSuite Data File
++++++++++++++++++++++++++++++++++++
Date: Fri Oct 25 10:44:46 EDT 2013
User: price-jones
Dark Spectrum Present: No
Reference Spectrum Present: No
Number of Sampled Component Spectra: 1
Spectrometers: USB2+H05261
Integration Time (usec): 100000 (USB2+H05261)
Spectra Averaged: 1 (USB2+H05261)
Boxcar Smoothing: 0 (USB2+H05261)
Correct for Electrical Dark: No (USB2+H05261)
Strobe/Lamp Enabled: No (USB2+H05261)
Correct for Detector Non-linearity: No (USB2+H05261)
Correct for Stray Light: No (USB2+H05261)
Number of Pixels in Processed Spectrum: 2048
>>>>>Begin Processed Spectral Data<<<<<
365.73	107.66
365.92	107.66
366.12	107.66
366.32	105.32
366.52	0.00
366.72	14.04
366.91	18.72
367.11	23.41
367.31	0.00
367.51	0.00
367.70	0.00
367.90	117.03
368.10	0.00
368.30	93.62
368.49	0.00
368.69	35.11
368.89	39.79
369.09	110.01
369.28	74.90
369.48	60.85
369.68	74.90
369.87	30.43
370.07	53.83
370.27	93.62
370.47	210.65
370.66	388.53
370.86	390.87
371.06	344.06
371.25	409.59
371.45	421.30
371.65	437.68
371.84	351.08
372.04	430.66
372.24	430.66
372.44	463.43
372.63	524.28
372.83	540.66
373.03	386.19
373.22	505.56
373.42	489.17
373.62	491.51
373.81	517.26
374.01	503.22
374.21	496.19
374.40	568.75
374.60	533.64
374.79	589.82
374.99	552.37
375.19	533.64
375.38	606.20
375.58	517.26
375.78	538.32
375.97	613.22
376.17	599.18
376.37	547.69
376.56	615.56
376.76	622.58
376.95	608.54
377.15	573.43
377.35	601.52
377.54	606.20
377.74	641.31
377.93	627.26
378.13	582.79
378.33	627.26
378.52	589.82
378.72	608.54
378.91	739.61
379.11	657.69
379.31	615.56
379.50	601.52
379.70	608.54
379.89	655.35
380.09	667.05
380.28	653.01
380.48	594.50
380.68	624.92
380.87	627.26
381.07	699.82
381.26	716.20
381.46	599.18
381.65	638.97
381.85	706.84
382.04	608.54
382.24	550.03
382.43	716.20
382.63	683.44
382.83	653.01
383.02	631.94
383.22	753.65
383.41	699.82
383.61	662.37
383.80	716.20
384.00	688.12
384.19	706.84
384.39	777.06
384.58	781.74
384.78	669.39
384.97	730.25
385.17	784.08
385.36	767.70
385.56	657.69
385.75	723.23
385.95	781.74
386.14	763.01
386.34	774.72
386.53	758.33
386.72	798.12
386.92	795.78
387.11	858.98
387.31	826.21
387.50	779.40
387.70	777.06
387.89	758.33
388.09	765.36
388.28	894.08
388.48	847.27
388.67	828.55
388.86	819.19
389.06	823.87
389.25	922.17
389.45	830.89
389.64	908.13
389.84	933.87
390.03	924.51
390.22	924.51
390.42	950.26
390.61	884.72
390.81	919.83
391.00	903.45
391.19	997.07
391.39	919.83
391.58	901.11
391.78	976.00
391.97	999.41
392.16	954.94
392.36	959.62
392.55	901.11
392.75	999.41
392.94	929.19
393.13	903.45
393.33	950.26
393.52	994.73
393.71	1050.90
393.91	1027.50
394.10	1008.77
394.29	1123.46
394.49	1008.77
394.68	1102.39
394.88	1111.75
395.07	1123.46
395.26	1151.54
395.46	1041.54
395.65	1128.14
395.84	1111.75
396.04	1259.21
396.23	1060.26
396.42	1067.28
396.62	1086.01
396.81	1074.31
397.00	1083.67
397.19	1221.76
397.39	1268.57
397.58	1226.44
397.77	1205.38
397.97	1270.91
398.16	1280.27
398.35	1299.00
398.55	1263.89
398.74	1327.08
398.93	1362.19
399.12	1345.81
399.32	1301.34
399.51	1294.32
399.70	1371.55
399.90	1411.34
400.09	1458.15
400.28	1336.45
400.47	1416.02
400.67	1446.45
400.86	1556.46
401.05	1451.13
401.24	1432.41
401.44	1453.47
401.63	1467.52
401.82	1526.03
402.01	1507.30
402.21	1537.73
402.40	1563.48
402.59	1605.61
402.78	1556.46
402.97	1549.43
403.17	1523.69
403.36	1614.97
403.55	1600.93
403.74	1689.87
403.93	1589.22
404.13	1659.44
404.32	1652.42
404.51	1757.74
404.70	1755.40
404.89	1640.72
405.09	1722.63
405.28	1720.29
405.47	1788.17
405.66	1757.74
405.85	1785.83
406.05	1739.02
406.24	1722.63
406.43	1886.47
406.62	1865.41
406.81	1949.67
407.00	1837.32
407.20	1865.41
407.39	1879.45
407.58	1874.77
407.77	1886.47
407.96	1998.82
408.15	2029.24
408.34	1905.20
408.54	2040.95
408.73	2015.20
408.92	2024.56
409.11	2115.84
409.30	2054.99
409.49	2010.52
409.68	1968.39
409.87	2015.20
410.07	2099.46
410.26	2099.46
410.45	2134.57
410.64	2101.80
410.83	2207.13
411.02	2225.85
411.21	2237.55
411.40	2223.51
411.59	2366.28
411.78	2188.40
411.98	2363.94
412.17	2394.37
412.36	2366.28
412.55	2415.43
412.74	2415.43
412.93	2537.14
413.12	2415.43
413.31	2544.16
413.50	2555.86
413.69	2480.97
413.88	2726.72
414.07	2562.89
414.26	2553.52
414.45	2684.59
414.64	2670.55
414.83	2740.77
415.02	2778.22
415.22	2672.89
415.41	2708.00
415.60	2766.51
415.79	2757.15
415.98	2956.10
416.17	2860.13
416.36	2855.45
416.55	2974.82
416.74	2953.76
416.93	2895.24
417.12	2913.97
417.31	3030.99
417.50	3049.72
417.69	3204.19
417.88	3101.21
418.07	3112.91
418.26	3066.10
418.45	3199.51
418.64	3227.60
418.83	3192.49
419.02	3162.06
419.21	3166.74
419.39	3272.07
419.58	3124.62
419.77	3229.94
419.96	3197.17
420.15	3302.50
420.34	3213.56
420.53	3353.99
420.72	3417.18
420.91	3585.70
421.10	3454.63
421.29	3494.42
421.48	3475.70
421.67	3550.59
421.86	3309.52
422.05	3522.51
422.24	3288.45
422.43	3522.51
422.61	3412.50
422.80	3611.45
422.99	3419.52
423.18	3520.17
423.37	3611.45
423.56	3538.89
423.75	3499.10
423.94	3480.38
424.13	3337.60
424.32	3384.41
424.50	3609.11
424.69	3496.76
424.88	3618.47
425.07	3581.02
425.26	3581.02
425.45	3625.49
425.64	3618.47
425.83	3602.08
426.01	3691.02
426.20	3779.97
426.39	3648.90
426.58	3623.15
426.77	3648.90
426.96	3707.41
427.15	3597.40
427.33	3667.62
427.52	3634.85
427.71	3648.90
427.90	3836.14
428.09	3786.99
428.28	3669.96
428.46	3887.63
428.65	3936.78
428.84	3875.93
429.03	3967.21
429.22	3782.31
429.40	3864.22
429.59	3927.42
429.78	3597.40
429.97	3513.14
430.16	3772.94
430.34	3873.59
430.53	3955.51
430.72	3873.59
430.91	3932.10
431.10	3960.19
431.28	4133.39
431.47	4180.20
431.66	4156.79
431.85	4135.73
432.03	4212.96
432.22	4273.82
432.41	4177.86
432.60	4161.47
432.79	4365.10
432.97	4376.80
433.16	4301.90
433.35	4205.94
433.54	4219.99
433.72	4205.94
433.91	4112.32
434.10	4180.20
434.28	4372.12
434.47	4463.40
434.66	4432.97
434.85	4606.17
435.03	4566.39
435.22	4414.25
435.41	4610.86
435.59	4603.83
435.78	4512.55
435.97	4650.64
436.16	4554.68
436.34	4676.39
436.53	4617.88
436.72	4809.80
436.90	4713.84
437.09	4751.29
437.28	4454.04
437.46	4716.18
437.65	4667.03
437.84	4587.45
438.02	4772.35
438.21	4751.29
438.40	4788.74
438.58	4791.08
438.77	5130.45
438.96	5067.26
439.14	5060.24
439.33	4992.36
439.52	5093.01
439.70	4968.96
439.89	5139.82
440.08	5270.89
440.26	5149.18
440.45	5256.84
440.63	5308.34
440.82	5392.59
441.01	5364.51
441.19	5416.00
441.38	5397.28
441.57	5596.22
441.75	5413.66
441.94	5685.16
442.12	5659.42
442.31	5818.57
442.50	5638.35
442.68	5680.48
442.87	5762.40
443.05	5802.19
443.24	5839.64
443.43	5762.40
443.61	5731.97
443.80	5963.68
443.98	5703.89
444.17	5596.22
444.35	5839.64
444.54	5877.09
444.73	5980.07
444.91	5825.59
445.10	5909.85
445.28	5891.13
445.47	5884.11
445.65	5685.16
445.84	5900.49
446.02	5902.83
446.21	6040.92
446.39	5884.11
446.58	5970.71
446.77	5914.53
446.95	5806.87
447.14	6026.88
447.32	6141.57
447.51	5863.04
447.69	5888.79
447.88	5982.41
448.06	5991.77
448.25	6031.56
448.43	6282.00
448.62	6270.30
448.80	6146.25
448.99	6111.14
449.17	6253.91
449.36	6057.31
449.54	6420.09
449.73	6352.21
449.91	6363.92
450.10	6457.54
450.28	6588.61
450.46	6441.15
450.65	6469.24
450.83	6574.56
451.02	6553.50
451.20	6490.31
451.39	6513.71
451.57	6473.92
451.76	6518.39
451.94	6392.00
452.13	6567.54
452.31	6511.37
452.49	6291.36
452.68	6696.27
452.86	6502.01
453.05	6740.74
453.23	6675.21
453.42	6509.03
453.60	6551.16
453.78	6649.46
453.97	6731.38
454.15	6525.41
454.34	6553.50
454.52	6857.77
454.70	6946.71
454.89	6930.33
455.07	6857.77
455.26	6963.09
455.44	7007.56
455.62	7061.40
455.81	6995.86
455.99	7030.97
456.17	6965.43
456.36	7063.74
456.54	7059.06
456.73	7077.78
456.91	7438.22
457.09	7403.11
457.28	7360.98
457.46	7440.56
457.64	7372.69
457.83	7241.62
458.01	7211.19
458.19	7365.67
458.38	7494.40
458.56	7515.46
458.74	7524.82
458.93	7403.11
459.11	7548.23
459.29	7637.17
459.48	7590.36
459.66	7641.85
459.84	7782.28
460.03	7777.60
460.21	7653.55
460.39	7653.55
460.57	7599.72
460.76	7726.11
460.94	7784.62
461.12	7845.48
461.31	7688.66
461.49	7777.60
461.67	7784.62
461.85	8161.45
462.04	7838.45
462.22	7880.58
462.40	7992.93
462.59	8058.46
462.77	8093.57
462.95	8163.79
463.13	7985.91
463.32	8058.46
463.50	8318.26
463.68	8322.94
463.86	8255.07
464.05	8095.91
464.23	8056.12
464.41	8142.72
464.59	8121.66
464.78	8346.35
464.96	8222.30
465.14	8276.13
465.32	8411.89
465.50	8585.08
465.69	8496.14
465.87	8315.92
466.05	8418.91
466.23	8149.75
466.41	8215.28
466.60	8592.11
466.78	8444.65
466.96	8650.62
467.14	8566.36
467.32	8400.18
467.51	8671.68
467.69	8390.82
467.87	8557.00
468.05	8734.88
468.23	8713.81
468.41	8664.66
468.60	8772.33
468.78	9060.21
468.96	8788.71
469.14	8805.10
469.32	9022.77
469.50	8599.13
469.69	8840.20
469.87	9039.15
470.05	8952.55
470.23	8987.66
470.41	8755.94
470.59	9090.64
470.77	8978.30
470.95	9043.83
471.14	9301.29
471.32	9149.15
471.50	9266.18
471.68	9322.35
471.86	9518.96
472.04	9291.93
472.22	9572.79
472.40	9312.99
472.58	9345.76
472.77	9455.76
472.95	9619.60
473.13	10066.64
473.31	9734.29
473.49	9645.35
473.67	9762.37
473.85	9717.90
474.03	10066.64
474.21	10052.60
474.39	10164.95
474.57	10136.86
474.75	10317.08
474.93	10183.67
475.12	10249.21
475.30	10244.52
475.48	10218.78
475.66	10202.40
475.84	10445.81
476.02	10436.45
476.20	10487.94
476.38	10731.36
476.56	10721.99
476.74	10815.62
476.92	10721.99
477.10	10752.42
477.28	11063.71
477.46	10974.77
477.64	11136.27
477.82	11185.42
478.00	11414.79
478.18	11426.50
478.36	11595.01
478.54	11681.61
478.72	11779.92
478.90	11707.36
479.08	11889.92
479.26	12009.29
479.44	11988.22
479.62	12152.06
479.80	12159.08
479.98	12173.13
480.16	12381.43
480.34	12365.05
480.52	12381.43
480.70	12861.24
480.88	12444.63
481.06	12636.55
481.24	12746.56
481.41	13184.24
481.59	13114.02
481.77	12978.27
481.95	13151.47
482.13	13277.86
482.31	13460.42
482.49	13434.68
482.67	13729.58
482.85	13809.16
483.03	13909.80
483.21	13982.36
483.39	13933.21
483.57	13958.96
483.74	14403.66
483.92	14153.22
484.10	14279.61
484.28	14640.05
484.46	14787.50
484.64	15108.16
484.82	14853.04
485.00	15159.65
485.18	15056.67
485.35	15269.66
485.53	15044.96
485.71	15035.60
485.89	15346.89
486.07	15396.04
486.25	15468.60
486.43	15594.99
486.61	15536.48
486.78	16035.01
486.96	15775.21
487.14	16194.17
487.32	16411.84
487.50	16350.98
487.68	16666.95
487.85	16664.61
488.03	16769.94
488.21	16964.20
488.39	17135.06
488.57	17259.11
488.75	17350.39
488.92	17654.66
489.10	17516.57
489.28	18024.47
489.46	18101.70
489.64	18176.60
489.81	18513.64
489.99	18417.68
490.17	18412.99
490.35	18876.42
490.53	18651.73
490.70	18714.92
490.88	18897.49
491.06	19365.59
491.24	19082.39
491.41	19206.44
491.59	19496.66
491.77	19206.44
491.95	19775.19
492.13	19487.30
492.30	19637.09
492.48	20009.24
492.66	20549.90
492.84	20149.67
493.01	20161.37
493.19	20208.19
493.37	20297.13
493.54	20374.36
493.72	20922.05
493.90	21025.03
494.08	21104.61
494.25	21088.23
494.43	21247.38
494.61	21504.84
494.79	21551.65
494.96	21628.89
495.14	21656.98
495.32	21914.44
495.49	21795.07
495.67	21823.16
495.85	21783.37
496.02	22457.44
496.20	22630.64
496.38	22328.71
496.55	22581.49
496.73	23087.04
496.91	22857.67
497.09	23126.83
497.26	22986.40
497.44	23194.71
497.62	23447.49
497.79	24011.56
497.97	23290.67
498.14	23417.06
498.32	23730.69
498.50	23850.06
498.67	23885.17
498.85	24170.71
499.03	24149.65
499.20	24393.06
499.38	24423.49
499.56	24334.55
499.73	24451.58
499.91	24687.97
500.08	24879.89
500.26	24517.11
500.44	24594.35
500.61	24671.59
500.79	24837.76
500.97	25039.05
501.14	25333.96
501.32	25500.14
501.49	25113.95
501.67	25617.16
501.84	25539.93
502.02	25432.26
502.20	25944.84
502.37	26103.99
502.55	25804.41
502.72	25797.38
502.90	26157.83
503.07	26047.82
503.25	26284.22
503.43	26146.12
503.60	26120.38
503.78	26265.49
503.95	26518.27
504.13	26583.80
504.30	26602.53
504.48	26558.06
504.65	26874.03
504.83	27091.70
505.01	27304.69
505.18	27056.59
505.36	27637.05
505.53	27119.79
505.71	27206.39
505.88	27536.40
506.06	27452.14
506.23	27662.79
506.41	27398.31
506.58	27871.10
506.76	27672.15
506.93	28041.96
507.11	27779.82
507.28	27953.02
507.46	27899.19
507.63	27784.50
507.81	28383.68
507.98	27948.34
508.16	28144.94
508.33	28596.67
508.50	28723.05
508.68	28425.81
508.85	28641.14
509.03	28711.35
509.20	28844.76
509.38	29142.01
509.55	29024.98
509.73	29333.93
509.90	29839.49
510.08	29205.20
510.25	29301.17
510.42	29291.80
510.60	29586.71
510.77	29553.94
510.95	30080.56
511.12	29958.86
511.30	29869.92
511.47	30082.91
511.64	30249.08
511.82	30244.40
511.99	30010.35
512.17	30267.81
512.34	30455.05
512.51	30536.97
512.69	30635.27
512.86	30377.81
513.04	30874.01
513.21	30600.16
513.38	30630.59
513.56	30338.02
513.73	30333.34
513.90	31023.80
514.08	30923.16
514.25	31087.00
514.43	31040.18
514.60	31452.12
514.77	31218.07
514.95	31398.29
515.12	31304.67
515.29	31576.17
515.47	32116.83
515.64	31777.45
515.81	31627.66
515.99	31723.62
516.16	31707.24
516.33	31412.33
516.51	31798.52
516.68	31267.22
516.85	31639.36
517.03	31585.53
517.20	32318.12
517.37	32407.06
517.54	32173.00
517.72	32479.61
517.89	32046.62
518.06	32201.09
518.24	32128.53
518.41	32552.17
518.58	32215.13
518.75	32306.41
518.93	32751.12
519.10	32739.41
519.27	32849.42
519.45	32622.39
519.62	33036.66
519.79	32912.61
519.96	33542.22
520.14	33266.03
520.31	33111.56
520.48	33280.08
520.65	33420.51
520.83	33731.80
521.00	33890.96
521.17	33940.11
521.34	34059.48
521.52	33785.63
521.69	33591.37
521.86	34513.54
522.03	34345.02
522.20	34178.84
522.38	34438.64
522.55	34237.36
522.72	34181.18
522.89	34368.43
523.07	34157.78
523.24	34504.18
523.41	34979.31
523.58	34827.17
523.75	34930.16
523.92	35129.10
524.10	34763.98
524.27	34983.99
524.44	35189.95
524.61	35042.50
524.78	35346.77
524.96	35402.94
525.13	35536.35
525.30	35461.46
525.47	35491.88
525.64	35456.78
525.81	35379.54
525.98	35283.58
526.16	35213.36
526.33	35260.17
526.50	35314.00
526.67	35091.65
526.84	35782.11
527.01	35594.87
527.18	35903.82
527.36	35831.26
527.53	36505.34
527.70	36392.99
527.87	36407.03
528.04	36135.53
528.21	36180.00
528.38	36093.40
528.55	36680.88
528.72	36676.19
528.89	37067.06
529.07	36627.04
529.24	36149.57
529.41	36877.48
529.58	36566.19
529.75	36381.29
529.92	37134.94
530.09	37001.53
530.26	37179.41
530.43	37261.33
530.60	37031.96
530.77	37010.89
530.94	37352.61
531.11	37041.32
531.28	37322.18
531.46	37895.61
531.63	37408.78
531.80	37715.39
531.97	37436.87
532.14	37113.87
532.31	37062.38
532.48	37303.46
532.65	37551.56
532.82	37263.67
532.99	37483.68
533.16	37837.10
533.33	37757.52
533.50	37886.25
533.67	38061.79
533.84	37708.37
534.01	38005.62
534.18	37621.77
534.35	38073.49
534.52	37596.03
534.69	38307.55
534.86	37991.58
535.03	38375.42
535.20	38958.22
535.37	38600.12
535.54	38742.89
535.71	38403.51
535.88	38532.24
536.05	38614.16
536.22	38527.56
536.38	38307.55
536.55	38267.76
536.72	38543.94
536.89	38548.62
537.06	38649.27
537.23	38801.40
537.40	38642.24
537.57	39239.08
537.74	38532.24
537.91	38930.13
538.08	39072.90
538.25	39005.03
538.42	39091.63
538.59	39117.37
538.75	38981.62
538.92	38918.43
539.09	39346.75
539.26	39580.80
539.43	39505.90
539.60	39693.15
539.77	39529.31
539.94	39278.87
540.11	39126.74
540.28	39611.23
540.44	39636.97
540.61	39271.85
540.78	39110.35
540.95	39658.04
541.12	39147.80
541.29	39065.88
541.46	39697.83
541.62	39969.33
541.79	40002.10
541.96	39770.38
542.13	39861.66
542.30	39936.56
542.47	39910.82
542.63	40004.44
542.80	40268.92
542.97	40481.91
543.14	40650.42
543.31	40641.06
543.48	40381.26
543.64	41055.34
543.81	40596.59
543.98	40582.55
544.15	40730.00
544.32	40643.40
544.48	41179.39
544.65	40718.30
544.82	40928.95
544.99	40399.99
545.16	41263.64
545.32	40823.62
545.49	40879.80
545.66	41265.99
545.83	41090.44
546.00	41188.75
546.16	41029.59
546.33	40861.07
546.50	40678.51
546.67	41319.82
546.83	40999.16
547.00	41202.79
547.17	40935.97
547.34	41202.79
547.50	41675.58
547.67	41450.89
547.84	41256.62
548.00	41455.57
548.17	41741.11
548.34	41703.67
548.51	42061.77
548.67	41804.31
548.84	41514.08
549.01	41493.02
549.18	41249.60
549.34	41926.02
549.51	41982.19
549.68	41605.36
549.84	41799.63
550.01	42202.20
550.18	41874.52
550.34	41940.06
550.51	42078.15
550.68	42139.00
550.84	41844.10
551.01	42277.10
551.18	42398.80
551.34	42188.16
551.51	41914.31
551.68	42164.75
551.84	42082.83
552.01	42038.36
552.18	42377.74
552.34	41722.39
552.51	42007.94
552.68	42401.14
552.84	42094.53
553.01	42188.16
553.18	42265.39
553.34	42279.44
553.51	42337.95
553.67	42422.21
553.84	42939.47
554.01	42234.97
554.17	43061.18
554.34	42422.21
554.51	42752.23
554.67	42808.40
554.84	42960.53
555.00	42838.83
555.17	42859.89
555.33	42799.04
555.50	42768.61
555.67	42710.10
555.83	42986.28
556.00	42684.35
556.16	43440.34
556.33	42864.57
556.50	42953.51
556.66	42803.72
556.83	42754.57
556.99	43222.67
557.16	43625.25
557.32	42651.58
557.49	43180.54
557.65	42948.83
557.82	43398.21
557.98	43489.49
558.15	43353.74
558.32	43330.34
558.48	43042.45
558.65	42969.90
558.81	42801.38
558.98	43232.04
559.14	43606.52
559.31	42953.51
559.47	43306.93
559.64	43643.97
559.80	43536.30
559.97	43084.58
560.13	43070.54
560.30	43065.86
560.46	43405.23
560.63	43398.21
560.79	43370.13
560.96	43896.75
561.12	43625.25
561.29	43292.89
561.45	43732.91
561.61	43367.79
561.78	43627.59
561.94	43133.73
562.11	43749.29
562.27	42974.58
562.44	43856.96
562.60	43910.79
562.77	43545.67
562.93	43758.66
563.10	43704.82
563.26	43304.59
563.42	43838.23
563.59	43833.55
563.75	43929.51
563.92	44273.57
564.08	44208.04
564.24	43969.30
564.41	43969.30
564.57	43777.38
564.74	43697.80
564.90	44032.50
565.07	44254.85
565.23	43941.22
565.39	44088.67
565.56	44158.89
565.72	43496.52
565.88	44109.74
566.05	43880.36
566.21	43615.88
566.38	43599.50
566.54	44161.23
566.70	43931.86
566.87	44133.14
567.03	44254.85
567.19	45015.52
567.36	44158.89
567.52	43924.83
567.68	44280.60
567.85	44282.94
568.01	44037.18
568.17	44006.75
568.34	44182.29
568.50	43934.20
568.66	44292.30
568.83	44002.07
568.99	44067.61
569.15	44306.34
569.32	43931.86
569.48	43634.61
569.64	44519.33
569.81	44261.87
569.97	44463.16
570.13	44224.42
570.30	44210.38
570.46	44060.58
570.62	43679.08
570.78	43894.41
570.95	44144.84
571.11	44439.75
571.27	43910.79
571.43	43969.30
571.60	44278.25
571.76	43894.41
571.92	44034.84
572.09	44346.13
572.25	44308.68
572.41	44114.42
572.57	44673.81
572.74	45038.93
572.90	44184.63
573.06	44655.08
573.22	44308.68
573.38	44194.00
573.55	43952.92
573.71	44264.21
573.87	44629.34
574.03	44196.34
574.20	44062.93
574.36	44421.03
574.52	44266.55
574.68	44112.08
574.84	44287.62
575.01	44311.02
575.17	44282.94
575.33	44013.77
575.49	44076.97
575.65	44318.04
575.82	44552.10
575.98	44385.92
576.14	44884.45
576.30	44634.02
576.46	44203.36
576.62	44240.81
576.79	44114.42
576.95	44285.28
577.11	44491.24
577.27	44418.69
577.43	44788.49
577.59	44699.55
577.75	44081.65
577.92	44048.88
578.08	44285.28
578.24	44418.69
578.40	44334.43
578.56	44470.18
578.72	44425.71
578.88	44645.72
579.04	44371.88
579.21	44552.10
579.37	44296.98
579.53	44032.50
579.69	44046.54
579.85	44561.46
580.01	44516.99
580.17	44353.15
580.33	44828.28
580.49	44421.03
580.65	44673.81
580.82	44779.13
580.98	44355.49
581.14	44500.61
581.30	44980.42
581.46	44788.49
581.62	44788.49
581.78	44229.10
581.94	45027.23
582.10	44292.30
582.26	44470.18
582.42	44601.25
582.58	44353.15
582.74	44458.48
582.90	44598.91
583.06	44519.33
583.22	44549.76
583.38	44692.53
583.54	44957.01
583.70	44406.98
583.86	44809.56
584.02	44460.82
584.18	44718.28
584.34	44552.10
584.50	44648.06
584.66	44624.65
584.82	44428.05
584.98	44755.72
585.14	44685.51
585.30	44467.84
585.46	44657.42
585.62	44294.64
585.78	44744.02
585.94	43931.86
586.10	44107.40
586.26	44509.97
586.42	45095.10
586.58	44465.50
586.74	44825.94
586.90	44414.01
587.06	44573.16
587.22	44453.79
587.38	44126.12
587.54	44708.91
587.70	44575.50
587.86	44931.26
588.02	44442.09
588.18	44809.56
588.34	44786.15
588.49	44449.11
588.65	44112.08
588.81	44648.06
588.97	44552.10
589.13	44287.62
589.29	44313.36
589.45	44601.25
589.61	44636.36
589.77	44758.06
589.93	44669.12
590.08	45125.53
590.24	45333.84
590.40	44605.93
590.56	44877.43
590.72	44706.57
590.88	44765.09
591.04	44776.79
591.20	45654.49
591.35	45052.97
591.51	45350.22
591.67	44711.25
591.83	44847.00
591.99	44666.78
592.15	45237.87
592.31	45148.93
592.46	44524.01
592.62	44928.92
592.78	45270.64
592.94	44914.88
593.10	44746.36
593.26	44666.78
593.41	44987.44
593.57	44425.71
593.73	44886.79
593.89	44985.10
594.05	44844.66
594.20	45029.57
594.36	45193.40
594.52	44879.77
594.68	44931.26
594.84	44629.34
594.99	45256.60
595.15	45067.02
595.31	45492.99
595.47	44741.68
595.62	44877.43
595.78	45052.97
595.94	45265.96
596.10	45188.72
596.25	45186.38
596.41	45017.86
596.57	44741.68
596.73	44804.88
596.88	44542.74
597.04	44645.72
597.20	45064.67
597.36	44924.24
597.51	45125.53
597.67	45670.87
597.83	45048.29
597.99	44886.79
598.14	45162.98
598.30	44727.64
598.46	44409.32
598.61	44549.76
598.77	44825.94
598.93	44877.43
599.09	45132.55
599.24	45605.34
599.40	45125.53
599.56	45193.40
599.71	45083.40
599.87	45331.50
600.03	44734.66
600.18	44982.76
600.34	45095.10
600.50	45017.86
600.65	45139.57
600.81	44783.81
600.97	45088.08
601.12	45413.41
601.28	45074.04
601.44	44809.56
601.59	45081.06
601.75	44879.77
601.91	45305.75
602.06	44872.75
602.22	44947.65
602.37	44989.78
602.53	45162.98
602.69	45275.32
602.84	45031.91
603.00	45170.00
603.16	45074.04
603.31	45027.23
603.47	45050.63
603.62	44926.58
603.78	44680.83
603.94	44612.95
604.09	45230.85
604.25	45333.84
604.40	44938.29
604.56	45179.36
604.71	45385.33
604.87	44680.83
605.03	44854.03
605.18	44823.60
605.34	44769.77
605.49	44399.96
605.65	44823.60
605.80	45099.78
605.96	44830.62
606.12	44856.37
606.27	45324.47
606.43	44722.96
606.58	44975.73
606.74	44701.89
606.89	44643.38
607.05	45221.49
607.20	44748.70
607.36	45076.38
607.51	45029.57
607.67	44886.79
607.82	44547.42
607.98	45006.16
608.13	44140.16
608.29	44666.78
608.44	45123.19
608.60	44194.00
608.75	44491.24
608.91	44563.80
609.06	44680.83
609.22	44739.34
609.37	44339.11
609.53	44847.00
609.68	44652.74
609.84	44100.37
609.99	44374.22
610.15	44713.59
610.30	44128.46
610.46	44320.38
610.61	44091.01
610.76	44006.75
610.92	44357.83
611.07	44725.30
611.23	44708.91
611.38	44397.62
611.54	43973.98
611.69	44737.00
611.84	44105.06
612.00	44215.06
612.15	44392.94
612.31	44219.74
612.46	44048.88
612.62	44175.27
612.77	44285.28
612.92	44355.49
613.08	43981.01
613.23	44219.74
613.39	43981.01
613.54	44191.65
613.69	44240.81
613.85	43793.76
614.00	44201.02
614.15	44151.87
614.31	44313.36
614.46	44240.81
614.62	44406.98
614.77	43962.28
614.92	44416.35
615.08	43746.95
615.23	43875.68
615.38	43833.55
615.54	43653.33
615.69	43866.32
615.84	43655.67
616.00	43660.35
616.15	43517.58
616.30	43342.04
616.46	43587.80
616.61	43819.51
616.76	43522.26
616.92	42852.87
617.07	43248.42
617.22	43370.13
617.37	42946.49
617.53	43714.19
617.68	43838.23
617.83	43129.05
617.99	43889.73
618.14	43620.56
618.29	43426.30
618.45	43250.76
618.60	43180.54
618.75	43409.92
618.90	43201.61
619.06	43543.33
619.21	43824.19
619.36	43866.32
619.51	43531.62
619.67	43232.04
619.82	43573.75
619.97	43241.40
620.12	43271.82
620.28	43208.63
620.43	42735.84
620.58	43012.02
620.73	42939.47
620.89	43201.61
621.04	42960.53
621.19	42909.04
621.34	43278.85
621.49	43077.56
621.65	42670.31
621.80	42471.36
621.95	42990.96
622.10	42817.76
622.25	42745.20
622.41	42227.95
622.56	42309.86
622.71	42553.28
622.86	42562.64
623.01	42878.61
623.16	42740.52
623.32	43016.71
623.47	42621.16
623.62	42480.72
623.77	42340.29
623.92	42499.45
624.07	42682.01
624.23	42581.37
624.38	42433.91
624.53	41977.51
624.68	42398.80
624.83	42330.93
624.98	42139.00
625.13	42188.16
625.29	42447.96
625.44	41867.50
625.59	41612.38
625.74	42080.49
625.89	41523.44
626.04	41647.49
626.19	41996.23
626.34	42141.35
626.49	42394.12
626.65	41837.08
626.80	42487.74
626.95	42003.25
627.10	42124.96
627.25	42146.03
627.40	41642.81
627.55	41687.28
627.70	41502.38
627.85	42047.72
628.00	41610.04
628.15	41553.87
628.30	41743.45
628.45	41743.45
628.60	41928.36
628.76	41911.97
628.91	42087.51
629.06	41450.89
629.21	41457.91
629.36	41706.01
629.51	41397.06
629.66	41113.85
629.81	41495.36
629.96	41448.55
630.11	41387.69
630.26	40975.76
630.41	41855.80
630.56	41139.60
630.71	41216.83
630.86	41024.91
631.01	41125.55
631.16	41368.97
631.31	41116.19
631.46	40814.26
631.61	41055.34
631.76	40942.99
631.91	40612.98
632.06	41050.66
632.21	41053.00
632.36	41045.97
632.51	40877.46
632.66	40982.78
632.81	40982.78
632.96	41116.19
633.10	40744.05
633.25	40865.75
633.40	40914.90
633.55	40837.67
633.70	40676.17
633.85	40605.95
634.00	40744.05
634.15	40484.25
634.30	40722.98
634.45	40919.59
634.60	40505.31
634.75	40500.63
634.90	40715.96
635.05	40428.07
635.19	40713.62
635.34	40858.73
635.49	40353.18
635.64	40191.68
635.79	40203.38
635.94	40591.91
636.09	40210.40
636.24	40107.42
636.39	40016.14
636.53	39913.16
636.68	40177.64
636.83	40652.76
636.98	40470.20
637.13	39831.24
637.28	40250.19
637.43	40580.21
637.57	40390.62
637.72	40037.20
637.87	40278.28
638.02	40425.73
638.17	40538.08
638.32	39819.53
638.46	39648.68
638.61	40236.15
638.76	39908.47
638.91	40013.80
639.06	40470.20
639.20	39290.57
639.35	39613.57
639.50	40156.57
639.65	39915.50
639.80	40039.54
639.94	39508.24
640.09	39152.48
640.24	39718.89
640.39	39487.18
640.54	39526.97
640.68	39213.34
640.83	39405.26
640.98	39372.49
641.13	39157.16
641.27	39739.96
641.42	39770.38
641.57	39597.18
641.72	39447.39
641.86	39304.62
642.01	39143.12
642.16	39274.19
642.31	38916.09
642.45	39407.60
642.60	39016.73
642.75	39173.55
642.90	39431.01
643.04	39208.65
643.19	39180.57
643.34	39180.57
643.48	39061.20
643.63	38998.01
643.78	39192.27
643.93	38834.17
644.07	38398.83
644.22	39068.22
644.37	38778.00
644.51	38909.07
644.66	39051.84
644.81	39100.99
644.95	39005.03
645.10	39309.30
645.25	38689.06
645.39	38307.55
645.54	39164.18
645.69	38607.14
645.83	38829.49
645.98	38583.73
646.13	38593.09
646.27	39150.14
646.42	38588.41
646.57	38504.15
646.71	38476.07
646.86	38871.62
647.00	38490.11
647.15	38483.09
647.30	38335.63
647.44	38548.62
647.59	38438.62
647.74	37977.53
647.88	38298.19
648.03	38579.05
648.17	38220.95
648.32	38106.26
648.47	38529.90
648.61	37972.85
648.76	38295.85
648.90	38335.63
649.05	38078.18
649.20	37865.19
649.34	38080.52
649.49	38033.71
649.63	38309.89
649.78	38536.92
649.92	38124.99
650.07	38167.12
650.21	37958.81
650.36	37900.29
650.51	37797.31
650.65	38174.14
650.80	38326.27
650.94	37883.91
651.09	37834.76
651.23	37427.51
651.38	38031.36
651.52	37947.11
651.67	37923.70
651.81	37368.99
651.96	37546.87
652.10	37357.29
652.25	37401.76
652.39	37691.99
652.54	37996.26
652.68	37790.29
652.83	37556.24
652.97	37612.41
653.12	37656.88
653.26	37301.12
653.41	37390.06
653.55	37329.20
653.70	37481.34
653.84	37301.12
653.99	37481.34
654.13	36847.05
654.27	37291.76
654.42	37090.47
654.56	37102.17
654.71	37324.52
654.85	37469.64
655.00	37422.83
655.14	36856.42
655.29	36842.37
655.43	36662.15
655.57	36926.63
655.72	36755.77
655.86	36772.16
656.01	36376.61
656.15	37120.90
656.30	36875.14
656.44	36847.05
656.58	36847.05
656.73	36804.92
656.87	36638.75
657.01	36636.41
657.16	36858.76
657.30	36416.40
657.45	36510.02
657.59	36720.66
657.73	36524.06
657.88	36690.24
658.02	36809.61
658.16	36577.89
658.31	37024.93
658.45	36912.59
658.60	36290.01
658.74	36554.49
658.88	36491.29
659.03	36259.58
659.17	36203.41
659.31	36212.77
659.46	35920.20
659.60	36339.16
659.74	35929.56
659.89	35950.63
660.03	35948.29
660.17	35931.90
660.32	35646.36
660.46	36252.56
660.60	35849.99
660.74	35992.76
660.89	35943.61
661.03	35438.05
661.17	35433.37
661.32	35311.66
661.46	35267.19
661.60	35283.58
661.74	35847.64
661.89	35381.88
662.03	35526.99
662.17	35503.59
662.31	35578.48
662.46	35269.53
662.60	35512.95
662.74	34925.47
662.88	34593.12
663.03	34448.00
663.17	34803.77
663.31	34782.70
663.45	34588.44
663.60	34890.37
663.74	34639.93
663.88	34983.99
664.02	34522.90
664.17	35164.21
664.31	34569.71
664.45	34440.98
664.59	34668.02
664.73	34298.21
664.88	34380.13
665.02	34167.14
665.16	34033.73
665.30	34607.16
665.44	34380.13
665.59	34202.25
665.73	33963.51
665.87	34113.31
666.01	33895.64
666.15	33921.38
666.29	33820.74
666.44	34127.35
666.58	34134.37
666.72	34120.33
666.86	33687.33
667.00	34115.65
667.14	33907.34
667.28	33511.79
667.43	33745.84
667.57	33490.73
667.71	33479.02
667.85	33237.95
667.99	33497.75
668.13	33249.65
668.27	33172.41
668.41	33713.08
668.56	32725.37
668.70	33343.27
668.84	33479.02
668.98	32659.84
669.12	32783.88
669.26	32779.20
669.40	32308.76
669.54	32390.67
669.68	32622.39
669.82	32708.99
669.96	32161.30
670.10	32547.49
670.25	32231.52
670.39	32402.38
670.53	31887.46
670.67	32320.46
670.81	32821.33
670.95	32577.92
671.09	32266.63
671.23	31927.25
671.37	32397.70
671.51	31903.84
671.65	31927.25
671.79	31878.10
671.93	31644.04
672.07	32180.03
672.21	31992.78
672.35	31693.19
672.49	31548.08
672.63	31931.93
672.77	31314.03
672.91	31487.23
673.05	31358.50
673.19	31246.15
673.33	30995.71
673.47	31269.56
673.61	30946.56
673.75	31126.78
673.89	31051.89
674.03	30941.88
674.17	30895.07
674.31	30841.24
674.45	30855.28
674.59	31037.84
674.73	31037.84
674.87	30801.45
675.01	30197.59
675.15	30689.10
675.29	30546.33
675.43	30253.76
675.56	29951.84
675.70	30113.33
675.84	29748.21
675.98	29195.84
676.12	29968.22
676.26	29972.90
676.40	29802.04
676.54	29818.42
676.68	29509.47
676.82	29207.55
676.96	29563.31
677.10	29720.12
677.23	29256.70
677.37	29259.04
677.51	28816.68
677.65	28723.05
677.79	28023.23
677.93	28692.63
678.07	29219.25
678.21	28355.59
678.34	28699.65
678.48	28280.69
678.62	28184.73
678.76	27995.15
678.90	27985.79
679.04	28098.13
679.18	27901.53
679.31	27948.34
679.45	27826.63
679.59	27124.47
679.73	27344.48
679.87	27391.29
680.00	27143.19
680.14	27255.54
680.28	27381.93
680.42	27187.66
680.56	27297.67
680.70	26672.74
680.83	27042.55
680.97	27356.18
681.11	26941.91
681.25	26555.72
681.39	26302.94
681.52	26878.71
681.66	26497.20
681.80	26445.71
681.94	26644.66
682.07	26588.49
682.21	26368.48
682.35	26192.94
682.49	25865.26
682.62	26338.05
682.76	26015.05
682.90	26073.57
683.04	25902.71
683.17	25813.77
683.31	25378.43
683.45	25324.60
683.59	25338.64
683.72	25469.71
683.86	24999.26
684.00	25282.47
684.13	25373.75
684.27	24870.53
684.41	24959.47
684.55	24376.68
684.68	24816.70
684.82	24582.65
684.96	24594.35
685.09	24397.74
685.23	24308.80
685.37	24161.35
685.50	24376.68
685.64	24290.08
685.78	24016.24
685.91	23637.07
686.05	23828.99
686.19	23704.95
686.32	23548.13
686.46	23098.75
686.60	23103.43
686.73	23520.04
686.87	22981.72
687.01	23061.30
687.14	22904.48
687.28	22970.02
687.42	23061.30
687.55	22923.21
687.69	23257.90
687.82	22799.16
687.96	22815.54
688.10	22817.88
688.23	22431.69
688.37	22298.28
688.50	22101.68
688.64	22300.62
688.78	22562.76
688.91	21902.73
689.05	22256.15
689.18	22094.66
689.32	21806.77
689.46	21876.99
689.59	22141.47
689.73	21785.71
689.86	21675.70
690.00	21268.45
690.13	21568.04
690.27	21282.49
690.41	21350.37
690.54	20889.28
690.68	20908.01
690.81	20947.79
690.95	20863.54
691.08	20790.98
691.22	20683.31
691.35	20798.00
691.49	21195.89
691.62	20711.40
691.76	20657.57
691.89	20173.08
692.03	20367.34
692.16	20229.25
692.30	20091.16
692.43	20046.69
692.57	19939.02
692.70	19730.72
692.84	19924.98
692.97	19475.60
693.11	19278.99
693.24	19480.28
693.38	19260.27
693.51	19412.40
693.65	19459.21
693.78	19491.98
693.92	19424.11
694.05	19342.19
694.19	19096.43
694.32	18888.12
694.45	18593.22
694.59	18544.06
694.72	18436.40
694.86	18726.63
694.99	18682.16
695.13	18415.34
695.26	18415.34
695.39	18340.44
695.53	18293.63
695.66	18333.42
695.80	18335.76
695.93	18080.64
696.07	17804.46
696.20	17869.99
696.33	18036.17
696.47	17811.48
696.60	17755.30
696.73	17774.03
696.87	17673.39
697.00	17465.08
697.14	17500.19
697.27	17591.47
697.40	17507.21
697.54	17397.20
697.67	17088.25
697.80	17191.23
697.94	16896.33
698.07	16886.97
698.21	16561.63
698.34	16521.84
698.47	16318.22
698.61	16460.99
698.74	16444.60
698.87	16243.32
699.01	16077.14
699.14	16198.85
699.27	16180.12
699.40	16212.89
699.54	15920.32
699.67	15948.41
699.80	15957.77
699.94	16058.42
700.07	15908.62
700.20	15632.44
700.34	15583.29
700.47	15873.51
700.60	15765.85
700.73	16027.99
700.87	15632.44
701.00	15433.49
701.13	15393.70
701.26	15253.27
701.40	15307.10
701.53	15145.61
701.66	15119.86
701.79	15204.12
701.93	14757.08
702.06	14897.51
702.19	14691.54
702.32	14902.19
702.46	14506.64
702.59	14576.86
702.72	14497.28
702.85	14487.92
702.99	14511.32
703.12	14333.44
703.25	14157.90
703.38	14174.28
703.51	13874.70
703.65	13947.25
703.78	13984.70
703.91	13987.04
704.04	13851.29
704.17	13996.40
704.31	13872.36
704.44	13593.83
704.57	13575.11
704.70	13523.62
704.83	13441.70
704.96	13362.12
705.10	13319.99
705.23	13610.22
>>>>>End Processed Spectral Data<<<<<
