SpectraSuite Data File
++++++++++++++++++++++++++++++++++++
Date: Fri Oct 25 11:26:04 EDT 2013
User: price-jones
Dark Spectrum Present: No
Reference Spectrum Present: No
Number of Sampled Component Spectra: 1
Spectrometers: USB2+H05261
Integration Time (usec): 100000 (USB2+H05261)
Spectra Averaged: 1 (USB2+H05261)
Boxcar Smoothing: 0 (USB2+H05261)
Correct for Electrical Dark: No (USB2+H05261)
Strobe/Lamp Enabled: No (USB2+H05261)
Correct for Detector Non-linearity: No (USB2+H05261)
Correct for Stray Light: No (USB2+H05261)
Number of Pixels in Processed Spectrum: 2048
>>>>>Begin Processed Spectral Data<<<<<
365.73	184.90
365.92	184.90
366.12	184.90
366.32	175.54
366.52	72.56
366.72	236.39
366.91	121.71
367.11	126.39
367.31	114.69
367.51	121.71
367.70	229.37
367.90	138.09
368.10	53.83
368.30	173.20
368.49	110.01
368.69	88.94
368.89	166.18
369.09	79.58
369.28	245.76
369.48	119.37
369.68	203.63
369.87	173.20
370.07	215.33
370.27	299.59
370.47	334.70
370.66	578.11
370.86	599.18
371.06	662.37
371.25	737.27
371.45	638.97
371.65	704.50
371.84	688.12
372.04	704.50
372.24	711.52
372.44	737.27
372.63	779.40
372.83	692.80
373.03	800.46
373.22	758.33
373.42	723.23
373.62	763.01
373.81	730.25
374.01	877.70
374.21	863.66
374.40	805.14
374.60	823.87
374.79	866.00
374.99	807.48
375.19	936.21
375.38	814.51
375.58	856.64
375.78	936.21
375.97	835.57
376.17	971.32
376.37	875.36
376.56	866.00
376.76	887.06
376.95	847.27
377.15	830.89
377.35	915.15
377.54	901.11
377.74	905.79
377.93	837.91
378.13	976.00
378.33	1006.43
378.52	968.98
378.72	961.96
378.91	947.92
379.11	912.81
379.31	863.66
379.50	933.87
379.70	1027.50
379.89	976.00
380.09	999.41
380.28	978.34
380.48	1032.18
380.68	912.81
380.87	1039.20
381.07	952.60
381.26	1011.11
381.46	1006.43
381.65	1025.15
381.85	1083.67
382.04	1118.78
382.24	1036.86
382.43	1078.99
382.63	1076.65
382.83	1109.41
383.02	1109.41
383.22	1179.63
383.41	1135.16
383.61	1109.41
383.80	1212.40
384.00	1088.35
384.19	1081.33
384.39	1177.29
384.58	1139.84
384.78	1156.22
384.97	1107.07
385.17	1196.01
385.36	1177.29
385.56	1207.72
385.75	1118.78
385.95	1200.69
386.14	1193.67
386.34	1165.59
386.53	1219.42
386.72	1205.38
386.92	1217.08
387.11	1172.61
387.31	1341.13
387.50	1261.55
387.70	1240.48
387.89	1364.53
388.09	1249.85
388.28	1263.89
388.48	1301.34
388.67	1331.76
388.86	1308.36
389.06	1341.13
389.25	1362.19
389.45	1371.55
389.64	1359.85
389.84	1373.89
390.03	1380.92
390.22	1434.75
390.42	1376.24
390.61	1359.85
390.81	1369.21
391.00	1425.39
391.19	1483.90
391.39	1437.09
391.58	1364.53
391.78	1434.75
391.97	1423.05
392.16	1486.24
392.36	1577.52
392.55	1523.69
392.75	1462.83
392.94	1502.62
393.13	1544.75
393.33	1549.43
393.52	1521.35
393.71	1535.39
393.91	1638.38
394.10	1572.84
394.29	1577.52
394.49	1596.25
394.68	1598.59
394.88	1549.43
395.07	1643.06
395.26	1657.10
395.46	1612.63
395.65	1736.68
395.84	1755.40
396.04	1830.30
396.23	1689.87
396.42	1687.53
396.62	1778.81
396.81	1774.13
397.00	1699.23
397.19	1760.08
397.39	1666.46
397.58	1914.56
397.77	1776.47
397.97	1823.28
398.16	1783.49
398.35	1921.58
398.55	1944.99
398.74	1898.17
398.93	1954.35
399.12	1900.52
399.32	1872.43
399.51	2017.54
399.70	1982.43
399.90	1975.41
400.09	2001.16
400.28	1998.82
400.47	2069.03
400.67	2073.71
400.86	2022.22
401.05	1980.09
401.24	2083.08
401.44	2108.82
401.63	2167.34
401.82	2167.34
402.01	2097.12
402.21	2153.29
402.40	2174.36
402.59	2202.44
402.78	2157.97
402.97	2207.13
403.17	2181.38
403.36	2279.68
403.55	2324.15
403.74	2352.24
403.93	2305.43
404.13	2345.22
404.32	2321.81
404.51	2462.24
404.70	2518.42
404.89	2523.10
405.09	2499.69
405.28	2492.67
405.47	2555.86
405.66	2455.22
405.85	2457.56
406.05	2509.05
406.24	2593.31
406.43	2670.55
406.62	2698.64
406.81	2595.65
407.00	2633.10
407.20	2581.61
407.39	2544.16
407.58	2771.19
407.77	2698.64
407.96	2696.30
408.15	2785.24
408.34	2698.64
408.54	2771.19
408.73	2885.88
408.92	2773.53
409.11	2928.01
409.30	2928.01
409.49	2874.18
409.68	2902.26
409.87	2916.31
410.07	2991.20
410.26	2902.26
410.45	3101.21
410.64	3087.17
410.83	3178.45
411.02	3089.51
411.21	3185.47
411.40	3080.14
411.59	3300.16
411.78	3248.66
411.98	3353.99
412.17	3218.24
412.36	3279.09
412.55	3262.71
412.74	3445.27
412.93	3361.01
413.12	3421.86
413.31	3559.95
413.50	3438.25
413.69	3452.29
413.88	3662.94
414.07	3602.08
414.26	3681.66
414.45	3611.45
414.64	3705.07
414.83	3714.43
415.02	3721.45
415.22	3843.16
415.41	3751.88
415.60	3922.74
415.79	3918.06
415.98	4009.34
416.17	3985.93
416.36	3939.12
416.55	4109.98
416.74	4016.36
416.93	3960.19
417.12	4039.76
417.31	4184.88
417.50	4173.18
417.69	4248.07
417.88	4315.95
418.07	4301.90
418.26	4308.93
418.45	4374.46
418.64	4484.47
418.83	4362.76
419.02	4489.15
419.21	4442.34
419.39	4608.51
419.58	4564.04
419.77	4418.93
419.96	4578.09
420.15	4695.11
420.34	4594.47
420.53	4606.17
420.72	4744.27
420.91	4657.67
421.10	4760.65
421.29	4980.66
421.48	4856.61
421.67	4851.93
421.86	4748.95
422.05	4732.56
422.24	4774.69
422.43	4924.49
422.61	5025.13
422.80	4952.57
422.99	4936.19
423.18	5015.77
423.37	5046.20
423.56	4912.78
423.75	4851.93
423.94	4784.06
424.13	4669.37
424.32	4737.24
424.50	4973.64
424.69	5081.30
424.88	5034.49
425.07	5132.79
425.26	4873.00
425.45	4837.89
425.64	4973.64
425.83	4851.93
426.01	5011.09
426.20	5032.15
426.39	5057.90
426.58	5174.92
426.77	4968.96
426.96	5284.93
427.15	5060.24
427.33	5284.93
427.52	5186.63
427.71	5357.49
427.90	5245.14
428.09	5210.03
428.28	5331.74
428.46	5364.51
428.65	5280.25
428.84	5423.02
429.03	5418.34
429.22	5357.49
429.40	5579.84
429.59	5472.17
429.78	5352.81
429.97	5298.97
430.16	5493.24
430.34	5633.67
430.53	5643.03
430.72	5600.90
430.91	5584.52
431.10	5603.24
431.28	5930.92
431.47	5682.82
431.66	5767.08
431.85	5706.23
432.03	5820.91
432.22	5991.77
432.41	6001.13
432.60	6071.35
432.79	5926.24
432.97	5865.38
433.16	5954.32
433.35	6012.84
433.54	6211.78
433.72	6263.27
433.91	6303.06
434.10	6225.82
434.28	6352.21
434.47	6115.82
434.66	6127.52
434.85	6204.76
435.03	6326.47
435.22	6146.25
435.41	6574.56
435.59	6401.37
435.78	6415.41
435.97	6382.64
436.16	6436.47
436.34	6436.47
436.53	6452.86
436.72	6558.18
436.90	6555.84
437.09	6621.38
437.28	6476.26
437.46	6466.90
437.65	6672.87
437.84	6569.88
438.02	6778.19
438.21	6881.18
438.40	6679.89
438.58	6897.56
438.77	7042.67
438.96	6935.01
439.14	7063.74
439.33	7288.43
439.52	7267.36
439.70	7133.95
439.89	7346.94
440.08	7438.22
440.26	7393.75
440.45	7187.79
440.63	7520.14
440.82	7583.34
441.01	7522.48
441.19	7829.09
441.38	7543.55
441.57	7707.38
441.75	7838.45
441.94	7810.37
442.12	8056.12
442.31	8002.29
442.50	8013.99
442.68	7932.08
442.87	7859.52
443.05	8161.45
443.24	8112.30
443.43	8276.13
443.61	8016.33
443.80	8339.33
443.98	7946.12
444.17	7871.22
444.35	8035.06
444.54	8390.82
444.73	8418.91
444.91	8339.33
445.10	8493.80
445.28	8381.46
445.47	8346.35
445.65	8484.44
445.84	8320.60
446.02	8369.76
446.21	8358.05
446.39	8393.16
446.58	8430.61
446.77	8564.02
446.95	8217.62
447.14	8528.91
447.32	8571.04
447.51	8468.06
447.69	8484.44
447.88	8439.97
448.06	8325.29
448.25	8549.98
448.43	8514.87
448.62	8542.96
448.80	8402.52
448.99	8652.96
449.17	8741.90
449.36	8592.11
449.54	8882.33
449.73	8971.27
449.91	8915.10
450.10	8943.19
450.28	8985.32
450.46	9027.45
450.65	9170.22
450.83	9039.15
451.02	9165.54
451.20	9364.48
451.39	9298.95
451.57	9371.50
451.76	9053.19
451.94	9165.54
452.13	9317.67
452.31	9315.33
452.49	9109.36
452.68	9284.91
452.86	9296.61
453.05	9446.40
453.23	9563.43
453.42	9476.83
453.60	9284.91
453.78	9563.43
453.97	9423.00
454.15	9460.45
454.34	9423.00
454.52	9783.44
454.70	9650.03
454.89	9748.33
455.07	9710.88
455.26	9919.19
455.44	9944.94
455.62	9769.40
455.81	9970.68
455.99	10026.86
456.17	10183.67
456.36	9923.87
456.54	10148.56
456.73	10279.63
456.91	10534.75
457.09	10289.00
457.28	10420.06
457.46	10368.57
457.64	10656.46
457.83	10506.66
458.01	10480.92
458.19	10827.32
458.38	10565.18
458.56	10700.93
458.74	10640.08
458.93	10607.31
459.11	10705.61
459.29	10857.75
459.48	10604.97
459.66	10686.89
459.84	11112.86
460.03	11070.73
460.21	11042.65
460.39	11000.52
460.57	10995.84
460.76	11173.72
460.94	11171.38
461.12	11002.86
461.31	11143.29
461.49	11129.25
461.67	11169.04
461.85	11344.58
462.04	11084.78
462.22	11833.75
462.40	11520.12
462.59	11379.68
462.77	11426.50
462.95	11672.25
463.13	11468.62
463.32	11833.75
463.50	11592.67
463.68	11812.68
463.86	11644.17
464.05	11599.70
464.23	11690.98
464.41	12044.40
464.59	11922.69
464.78	12067.80
464.96	11871.20
465.14	12056.10
465.32	12351.01
465.50	12049.08
465.69	12346.33
465.87	12189.51
466.05	12053.76
466.23	12233.98
466.41	12215.26
466.60	12624.85
466.78	12116.95
466.96	12343.99
467.14	12348.67
467.32	12250.36
467.51	12507.82
467.69	12236.32
467.87	12439.95
468.05	12468.03
468.23	12390.80
468.41	12343.99
468.60	12241.00
468.78	12428.24
468.96	12568.68
469.14	12999.34
469.32	12931.46
469.50	12571.02
469.69	12992.31
469.87	13163.17
470.05	13125.72
470.23	13245.09
470.41	13158.49
470.59	13511.91
470.77	13259.13
470.95	13242.75
471.14	13488.51
471.32	13163.17
471.50	13481.49
471.68	13603.19
471.86	13453.40
472.04	13837.25
472.22	14099.39
472.40	13680.43
472.58	13935.55
472.77	14045.55
472.95	14139.18
473.13	14445.79
473.31	13956.61
473.49	14118.11
473.67	14260.88
473.85	14148.54
474.03	14675.16
474.21	14724.31
474.39	14792.19
474.57	14670.48
474.75	15066.03
474.93	14974.75
475.12	14864.74
475.30	15037.94
475.48	14949.00
475.66	15066.03
475.84	15257.95
476.02	15295.40
476.20	15197.10
476.38	15667.55
476.56	15882.88
476.74	15824.36
476.92	15609.03
477.10	15829.04
477.28	16081.82
477.46	16226.93
477.64	16468.01
477.82	16725.47
478.00	16912.71
478.18	16716.11
478.36	16936.12
478.54	17032.08
478.72	17018.04
478.90	17408.90
479.08	17640.62
479.26	17635.94
479.44	17823.18
479.62	17841.90
479.80	18010.42
479.98	18253.84
480.16	18555.77
480.34	18398.95
480.52	18740.67
480.70	18764.07
480.88	18284.26
481.06	18661.09
481.24	19007.49
481.41	19433.47
481.59	19506.02
481.77	19686.25
481.95	19302.40
482.13	19777.53
482.31	19578.58
482.49	20283.08
482.67	20233.93
482.85	20233.93
483.03	20390.75
483.21	20680.97
483.39	20664.59
483.57	20732.47
483.74	21142.06
483.92	21270.79
484.10	21336.32
484.28	21516.54
484.46	22211.68
484.64	22169.55
484.82	21837.20
485.00	22417.65
485.18	22831.93
485.35	22796.82
485.53	22932.57
485.71	22672.77
485.89	23917.93
486.07	23302.37
486.25	23384.29
486.43	23573.88
486.61	23967.09
486.78	24105.18
486.96	24280.72
487.14	24617.75
487.32	24730.10
487.50	24744.14
487.68	25048.41
487.85	25235.66
488.03	25624.18
488.21	25919.09
488.39	25785.68
488.57	26291.24
488.75	26288.90
488.92	26300.60
489.10	26867.01
489.28	26939.57
489.46	26878.71
489.64	27049.57
489.81	27763.43
489.99	27615.98
490.17	27597.26
490.35	27957.70
490.53	28465.60
490.70	28276.01
490.88	28105.15
491.06	28774.55
491.24	28744.12
491.41	28907.96
491.59	28840.08
491.77	29294.14
491.95	29663.95
492.13	29668.63
492.30	30050.14
492.48	29893.32
492.66	30277.17
492.84	30284.19
493.01	30745.28
493.19	30251.42
493.37	31159.55
493.54	31173.60
493.72	31459.14
493.90	31587.87
494.08	31321.05
494.25	31896.82
494.43	32364.93
494.61	32531.11
494.79	32708.99
494.96	32416.42
495.14	32465.57
495.32	33013.26
495.49	33221.56
495.67	32870.48
495.85	33394.76
496.02	33893.30
496.20	33713.08
496.38	34162.46
496.55	34408.22
496.73	34946.54
496.91	34389.49
497.09	34803.77
497.26	34740.57
497.44	34675.04
497.62	34686.74
497.79	35613.59
497.97	35211.02
498.14	35583.16
498.32	36123.83
498.50	36231.49
498.67	36367.24
498.85	36510.02
499.03	36671.51
499.20	36627.04
499.38	36928.97
499.56	37085.79
499.73	36811.95
499.91	37085.79
500.08	37333.89
500.26	37158.34
500.44	37305.80
500.61	38227.97
500.79	37886.25
500.97	37787.95
501.14	38389.47
501.32	38450.32
501.49	38529.90
501.67	38675.01
501.84	39192.27
502.02	39236.74
502.20	38965.24
502.37	39398.24
502.55	38948.85
502.72	39484.84
502.90	39227.38
503.07	39325.68
503.25	39683.78
503.43	39407.60
503.60	40018.48
503.78	39931.88
503.95	39999.76
504.13	40711.28
504.30	40659.79
504.48	40603.61
504.65	40353.18
504.83	40961.72
505.01	41104.49
505.18	41317.48
505.36	41603.02
505.53	41301.09
505.71	41350.24
505.88	42143.69
506.06	41708.35
506.23	42258.37
506.41	42195.18
506.58	42176.45
506.76	41947.08
506.93	42438.59
507.11	42344.97
507.28	42808.40
507.46	42403.49
507.63	42815.42
507.81	43105.65
507.98	42976.92
508.16	43440.34
508.33	43161.82
508.50	43693.12
508.68	43650.99
508.85	43793.76
509.03	43814.83
509.20	44336.77
509.38	44378.90
509.55	44629.34
509.73	44243.15
509.90	44467.84
510.08	44739.34
510.25	44505.29
510.42	44737.00
510.60	44931.26
510.77	45345.54
510.95	45830.03
511.12	45207.45
511.30	45013.18
511.47	45223.83
511.64	45235.53
511.82	45806.62
511.99	45666.19
512.17	46122.60
512.34	45677.90
512.51	46389.42
512.69	45998.55
512.86	46218.56
513.04	46864.55
513.21	46218.56
513.38	46625.81
513.56	47126.69
513.73	46930.08
513.90	47136.05
514.08	46986.25
514.25	47358.40
514.43	47379.46
514.60	47299.89
514.77	47421.59
514.95	47583.09
515.12	47327.97
515.29	47229.67
515.47	48034.81
515.64	48053.54
515.81	47749.27
515.99	48210.35
516.16	48423.34
516.33	48200.99
516.51	48816.55
516.68	48355.47
516.85	48566.12
517.03	48849.32
517.20	48769.74
517.37	48385.89
517.54	49066.99
517.72	48783.79
517.89	48952.30
518.06	48999.12
518.24	49240.19
518.41	48662.08
518.58	49619.36
518.75	49240.19
518.93	49696.59
519.10	49354.88
519.27	49876.82
519.45	49853.41
519.62	49696.59
519.79	49867.45
519.96	49724.68
520.14	50513.44
520.31	49837.03
520.48	50513.44
520.65	50211.51
520.83	50710.05
521.00	50731.11
521.17	50754.52
521.34	50541.53
521.52	50894.95
521.69	50965.17
521.86	50855.16
522.03	51033.04
522.20	51327.95
522.38	51398.16
522.55	51452.00
522.72	51147.73
522.89	51222.62
523.07	51894.36
523.24	51182.84
523.41	51655.62
523.58	51442.63
523.75	51987.98
523.92	51583.07
524.10	51955.21
524.27	51927.13
524.44	51887.34
524.61	52083.94
524.78	52128.41
524.96	51948.19
525.13	52086.28
525.30	52320.34
525.47	52596.52
525.64	52554.39
525.81	52900.79
525.98	52556.73
526.16	52463.11
526.33	52762.70
526.50	52959.30
526.67	52554.39
526.84	52956.96
527.01	52996.75
527.18	52814.19
527.36	52851.64
527.53	53024.84
527.70	53389.96
527.87	53277.61
528.04	53275.27
528.21	53151.23
528.38	53478.90
528.55	53581.88
528.72	53200.38
528.89	53635.72
529.07	53284.64
529.24	53378.26
529.41	53794.87
529.58	53457.84
529.75	53839.34
529.92	53914.24
530.09	53965.73
530.26	53947.01
530.43	54010.20
530.60	53626.35
530.77	53687.21
530.94	53986.80
531.11	54113.19
531.28	54129.57
531.46	54288.73
531.63	54096.80
531.80	53951.69
531.97	54356.60
532.14	54436.18
532.31	54518.10
532.48	54525.12
532.65	54553.21
532.82	54241.92
532.99	54578.95
533.16	54281.70
533.33	54822.37
533.50	54913.65
533.67	54717.04
533.84	55180.47
534.01	54997.91
534.18	55224.94
534.35	55327.92
534.52	54862.16
534.69	55044.72
534.86	55093.87
535.03	55033.02
535.20	55065.78
535.37	55573.68
535.54	55384.10
535.71	55463.67
535.88	55433.25
536.05	55466.02
536.22	55559.64
536.38	55583.04
536.55	55613.47
536.72	55519.85
536.89	55304.52
537.06	55751.56
537.23	55957.53
537.40	55639.22
537.57	55772.63
537.74	55522.19
537.91	56163.50
538.08	55744.54
538.25	55774.97
538.42	55833.48
538.59	55877.95
538.75	56048.81
538.92	55945.83
539.09	56102.64
539.26	55994.98
539.43	55952.85
539.60	56109.66
539.77	56250.09
539.94	56383.51
540.11	56416.27
540.28	56315.63
540.44	56556.70
540.61	56451.38
540.78	56266.48
540.95	56285.20
541.12	56177.54
541.29	56612.88
541.46	56374.14
541.62	56395.21
541.79	56591.81
541.96	56135.41
542.13	56516.92
542.30	56650.33
542.47	56865.66
542.63	56762.67
542.80	57036.51
542.97	57151.20
543.14	57207.37
543.31	57195.67
543.48	57308.02
543.64	57242.48
543.81	57165.24
543.98	57132.48
544.15	57193.33
544.32	57324.40
544.48	57605.26
544.65	57340.78
544.82	57361.85
544.99	57120.77
545.16	57649.74
545.32	57733.99
545.49	57888.47
545.66	57535.05
545.83	57715.27
546.00	57687.18
546.16	57623.99
546.33	57616.97
546.50	57628.67
546.67	57631.01
546.83	57420.36
547.00	57656.76
547.17	57689.52
547.34	57598.24
547.50	57909.53
547.67	58073.37
547.84	57939.96
548.00	58061.67
548.17	58014.86
548.34	58159.97
548.51	58000.82
548.67	58237.21
548.84	58085.07
549.01	58134.23
549.18	58398.71
549.34	58064.01
549.51	58234.87
549.68	58244.23
549.84	58401.05
550.01	58478.28
550.18	58141.25
550.34	58340.19
550.51	58298.06
550.68	58438.50
550.84	57921.24
551.01	58513.39
551.18	58539.14
551.34	58349.56
551.51	58475.94
551.68	58424.45
551.84	58433.81
552.01	58443.18
552.18	58628.08
552.34	58145.93
552.51	58770.85
552.68	58464.24
552.84	58492.33
553.01	59079.80
553.18	58967.46
553.34	58749.79
553.51	58595.31
553.67	58698.30
553.84	59002.56
554.01	58801.28
554.17	59044.69
554.34	59025.97
554.51	58887.88
554.67	58820.00
554.84	59096.19
555.00	58801.28
555.17	58855.11
555.33	59166.40
555.50	59086.82
555.67	59037.67
555.83	58892.56
556.00	58782.55
556.16	59363.01
556.33	59157.04
556.50	59288.11
556.66	59290.45
556.83	59035.33
556.99	59309.18
557.16	59536.21
557.32	59391.09
557.49	59494.08
557.65	59449.61
557.82	59491.74
557.98	59400.46
558.15	59143.00
558.32	59545.57
558.48	59379.39
558.65	59358.33
558.81	59334.92
558.98	59601.74
559.14	59653.23
559.31	59608.76
559.47	59812.39
559.64	59657.91
559.80	59718.77
559.97	59678.98
560.13	59473.01
560.30	59337.26
560.46	59718.77
560.63	59594.72
560.79	59676.64
560.96	59723.45
561.12	59765.58
561.29	59917.71
561.45	59999.63
561.61	59639.19
561.78	59861.54
561.94	59777.28
562.11	59800.69
562.27	59854.52
562.44	60041.76
562.60	60006.65
562.77	59969.21
562.93	59716.43
563.10	60086.23
563.26	59896.65
563.42	60177.51
563.59	60051.12
563.75	60111.98
563.92	60027.72
564.08	60076.87
564.24	60090.91
564.41	60083.89
564.57	60247.73
564.74	60172.83
564.90	59962.18
565.07	60032.40
565.23	60236.03
565.39	60168.15
565.56	60053.47
565.72	60100.28
565.88	60259.43
566.05	60144.75
566.21	59927.08
566.38	60074.53
566.54	60133.04
566.70	60285.18
566.87	60292.20
567.03	60090.91
567.19	60446.68
567.36	60252.41
567.52	60156.45
567.68	60376.46
567.85	60343.69
568.01	60296.88
568.17	60259.43
568.34	60172.83
568.50	60406.89
568.66	60411.57
568.83	60334.33
568.99	60303.90
569.15	60521.57
569.32	60381.14
569.48	60250.07
569.64	60622.22
569.81	60610.51
569.97	60383.48
570.13	60238.37
570.30	60444.33
570.46	60280.50
570.62	60434.97
570.78	60498.17
570.95	60470.08
571.11	60446.68
571.27	60397.52
571.43	60512.21
571.60	60612.85
571.76	60713.50
571.92	60725.20
572.09	60594.13
572.25	60631.58
572.41	60505.19
572.57	60528.59
572.74	60823.50
572.90	60491.15
573.06	60535.62
573.22	60706.47
573.38	60591.79
573.55	60563.70
573.71	60825.84
573.87	60711.16
574.03	60743.92
574.20	60582.43
574.36	60629.24
574.52	60676.05
574.68	60837.54
574.84	60767.33
575.01	60488.80
575.17	60643.28
575.33	60561.36
575.49	60617.53
575.65	60783.71
575.82	60477.10
575.98	60764.99
576.14	60926.49
576.30	60633.92
576.46	60626.90
576.62	60992.02
576.79	60767.33
576.95	60622.22
577.11	60629.24
577.27	60839.89
577.43	60952.23
577.59	60736.90
577.75	60795.42
577.92	60893.72
578.08	60626.90
578.24	60877.33
578.40	60935.85
578.56	60793.07
578.72	60942.87
578.88	60980.32
579.04	61055.21
579.21	60919.46
579.37	60928.83
579.53	61097.34
579.69	60779.03
579.85	60839.89
580.01	60582.43
580.17	60552.00
580.33	60907.76
580.49	60846.91
580.65	60928.83
580.82	60818.82
580.98	60837.54
581.14	60786.05
581.30	61034.15
581.46	60872.65
581.62	61139.47
581.78	60807.12
581.94	60980.32
582.10	61029.47
582.26	60814.14
582.42	60814.14
582.58	60942.87
582.74	60853.93
582.90	61052.87
583.06	60816.48
583.22	60823.50
583.38	60882.02
583.54	61127.77
583.70	60933.51
583.86	60973.30
584.02	60659.66
584.18	60977.98
584.34	61036.49
584.50	61048.19
584.66	60954.57
584.82	60657.32
584.98	61207.35
585.14	61029.47
585.30	60732.22
585.46	61195.65
585.62	60973.30
585.78	61155.86
585.94	60830.52
586.10	60814.14
586.26	60999.04
586.42	60945.21
586.58	61109.05
586.74	61015.43
586.90	60935.85
587.06	60987.34
587.22	61137.13
587.38	60977.98
587.54	61240.12
587.70	61216.71
587.86	61062.24
588.02	60966.27
588.18	61226.07
588.34	61017.77
588.49	60977.98
588.65	60977.98
588.81	61141.81
588.97	61013.08
589.13	60961.59
589.29	61099.68
589.45	61385.23
589.61	61165.22
589.77	61368.85
589.93	61322.04
590.08	61160.54
590.24	61420.34
590.40	61467.15
590.56	61537.36
590.72	61242.46
590.88	61146.50
591.04	61230.75
591.20	61506.94
591.35	61420.34
591.51	61497.58
591.67	61289.27
591.83	61600.56
591.99	61385.23
592.15	61331.40
592.31	61284.59
592.46	61160.54
592.62	61427.36
592.78	61272.88
592.94	61357.14
593.10	61366.51
593.26	61659.07
593.41	61460.13
593.57	61410.98
593.73	61478.85
593.89	61698.86
594.05	61483.53
594.20	61357.14
594.36	61722.27
594.52	61354.80
594.68	61504.60
594.84	61572.47
594.99	61750.35
595.15	61410.98
595.31	61642.69
595.47	61336.08
595.62	61558.43
595.78	61450.77
595.94	61567.79
596.10	61696.52
596.25	61420.34
596.41	61623.96
596.57	61455.45
596.73	61654.39
596.88	61432.04
597.04	61446.08
597.20	61621.62
597.36	61701.20
597.51	61787.80
597.67	61457.79
597.83	61532.68
597.99	61619.28
598.14	61511.62
598.30	61717.59
598.46	61544.39
598.61	61666.09
598.77	61652.05
598.93	61602.90
599.09	61600.56
599.24	62012.49
599.40	61797.16
599.56	61694.18
599.71	61752.69
599.87	61928.23
600.03	61813.55
600.18	61567.79
600.34	61628.65
600.50	61759.72
600.65	61815.89
600.81	61588.86
600.97	61834.61
601.12	61743.33
601.28	61663.75
601.44	61523.32
601.59	61790.14
601.75	61680.14
601.91	61673.12
602.06	62054.62
602.22	61818.23
602.37	61935.26
602.53	61694.18
602.69	61673.12
602.84	61595.88
603.00	61897.81
603.16	61755.03
603.31	61738.65
603.47	61834.61
603.62	61663.75
603.78	61841.63
603.94	61843.98
604.09	61694.18
604.25	61712.91
604.40	61701.20
604.56	61881.42
604.71	61883.76
604.87	61780.78
605.03	61668.44
605.18	61839.29
605.34	61673.12
605.49	61528.00
605.65	61834.61
605.80	61755.03
605.96	61806.53
606.12	61687.16
606.27	61778.44
606.43	61645.03
606.58	61890.79
606.74	61890.79
606.89	61546.73
607.05	61872.06
607.20	61801.85
607.36	61652.05
607.51	61602.90
607.67	61673.12
607.82	61485.87
607.98	61616.94
608.13	61518.64
608.29	61666.09
608.44	61755.03
608.60	61623.96
608.75	61729.29
608.91	61446.08
609.06	61422.68
609.22	61712.91
609.37	61502.26
609.53	61708.22
609.68	61659.07
609.84	61350.12
609.99	61640.35
610.15	61682.48
610.30	61673.12
610.46	61605.24
610.61	61609.92
610.76	61530.34
610.92	61619.28
611.07	61520.98
611.23	61359.48
611.38	61715.25
611.54	61614.60
611.69	61511.62
611.84	61616.94
612.00	61520.98
612.15	61549.07
612.31	61640.35
612.46	61434.38
612.62	61408.64
612.77	61502.26
612.92	61504.60
613.08	61364.17
613.23	61595.88
613.39	61427.36
613.54	61312.67
613.69	61532.68
613.85	61275.22
614.00	61513.96
614.15	61490.55
614.31	61403.95
614.46	61483.53
614.62	61403.95
614.77	61422.68
614.92	61485.87
615.08	61237.78
615.23	61418.00
615.38	61385.23
615.54	61413.32
615.69	61247.14
615.84	61357.14
616.00	61439.06
616.15	61469.49
616.30	61340.76
616.46	61221.39
616.61	61010.74
616.76	61190.97
616.92	61160.54
617.07	61015.43
617.22	61202.67
617.37	61137.13
617.53	61315.01
617.68	61317.35
617.83	61357.14
617.99	61256.50
618.14	61132.45
618.29	61076.28
618.45	60961.59
618.60	61073.94
618.75	61071.60
618.90	61045.85
619.06	61146.50
619.21	61212.03
619.36	61169.90
619.51	61036.49
619.67	61097.34
619.82	60874.99
619.97	61167.56
620.12	61052.87
620.28	61167.56
620.43	60884.36
620.58	60954.57
620.73	61052.87
620.89	61130.11
621.04	61298.63
621.19	60884.36
621.34	60870.31
621.49	60872.65
621.65	60860.95
621.80	61017.77
621.95	60832.86
622.10	60793.07
622.25	60783.71
622.41	60828.18
622.56	60966.27
622.71	60772.01
622.86	60776.69
623.01	60629.24
623.16	60683.07
623.32	60711.16
623.47	60945.21
623.62	60898.40
623.77	60762.65
623.92	60900.74
624.07	61048.19
624.23	60697.11
624.38	60786.05
624.53	60650.30
624.68	60591.79
624.83	60694.77
624.98	60699.45
625.13	60402.21
625.29	60729.88
625.44	60647.96
625.59	60563.70
625.74	60619.88
625.89	60589.45
626.04	60423.27
626.19	60334.33
626.34	60477.10
626.49	60353.05
626.65	60303.90
626.80	60392.84
626.95	60425.61
627.10	60140.07
627.25	60327.31
627.40	60320.29
627.55	60191.56
627.70	60247.73
627.85	60226.66
628.00	60348.37
628.15	60348.37
628.30	60334.33
628.45	60376.46
628.60	60271.14
628.76	60348.37
628.91	60271.14
629.06	60364.76
629.21	60240.71
629.36	60006.65
629.51	60121.34
629.66	60212.62
629.81	59971.55
629.96	60121.34
630.11	59973.89
630.26	60074.53
630.41	60271.14
630.56	60032.40
630.71	59966.87
630.86	59854.52
631.01	59859.20
631.16	60081.55
631.31	59906.01
631.46	59587.70
631.61	59959.84
631.76	59915.37
631.91	60163.47
632.06	59903.67
632.21	60093.25
632.36	59828.77
632.51	59688.34
632.66	59800.69
632.81	59877.93
632.96	59980.91
633.10	59835.80
633.25	59999.63
633.40	59875.58
633.55	59868.56
633.70	59784.30
633.85	59718.77
634.00	59739.83
634.15	59660.26
634.30	59655.57
634.45	59650.89
634.60	59863.88
634.75	59648.55
634.90	59501.10
635.05	59683.66
635.19	59590.04
635.34	59629.83
635.49	59700.04
635.64	59791.33
635.79	59613.44
635.94	59536.21
636.09	59405.14
636.24	59393.43
636.39	59512.80
636.53	59671.96
636.68	59496.42
636.83	59508.12
636.98	59737.49
637.13	59309.18
637.28	59463.65
637.43	59594.72
637.57	59480.03
637.72	59290.45
637.87	59311.52
638.02	59412.16
638.17	59365.35
638.32	59395.77
638.46	59412.16
638.61	59409.82
638.76	59241.30
638.91	59332.58
639.06	59295.13
639.20	59030.65
639.35	59159.38
639.50	58965.12
639.65	59201.51
639.80	59292.79
639.94	59271.73
640.09	59325.56
640.24	59079.80
640.39	59168.74
640.54	58986.18
640.68	59018.95
640.83	59250.66
640.98	59037.67
641.13	59004.91
641.27	59241.30
641.42	58939.37
641.57	58831.71
641.72	58965.12
641.86	58850.43
642.01	58824.68
642.16	58880.86
642.31	58836.39
642.45	59224.92
642.60	58660.85
642.75	59110.23
642.90	58958.09
643.04	58719.36
643.19	58710.00
643.34	58848.09
643.48	58780.21
643.63	58688.93
643.78	58497.01
643.93	58543.82
644.07	58820.00
644.22	58618.72
644.37	58520.41
644.51	58686.59
644.66	58712.34
644.81	58515.73
644.95	58602.33
645.10	58611.70
645.25	58494.67
645.39	58660.85
645.54	58618.72
645.69	58508.71
645.83	58714.68
645.98	58571.91
646.13	58522.76
646.27	58379.98
646.42	58298.06
646.57	58262.96
646.71	58494.67
646.86	58489.99
647.00	58482.97
647.15	58370.62
647.30	58529.78
647.44	58347.21
647.59	58663.19
647.74	58511.05
647.88	58497.01
648.03	58520.41
648.17	58396.37
648.32	58293.38
648.47	58195.08
648.61	58319.13
648.76	58316.79
648.90	58396.37
649.05	58197.42
649.20	58347.21
649.34	58382.32
649.49	58204.44
649.63	58150.61
649.78	58553.18
649.92	58012.52
650.07	58178.70
650.21	58209.12
650.36	58159.97
650.51	58148.27
650.65	58188.06
650.80	58197.42
650.94	58176.36
651.09	58103.80
651.23	57668.46
651.38	57939.96
651.52	57691.86
651.67	57773.78
651.81	57909.53
651.96	57996.13
652.10	57881.45
652.25	57911.88
652.39	57804.21
652.54	57666.12
652.68	57750.38
652.83	57736.34
652.97	57867.40
653.12	57680.16
653.26	57806.55
653.41	58026.56
653.55	57844.00
653.70	57633.35
653.84	57579.52
653.99	57820.59
654.13	57457.81
654.27	57539.73
654.42	57588.88
654.56	57485.90
654.71	57705.91
654.85	57705.91
655.00	57855.70
655.14	57708.25
655.29	57462.49
655.43	57291.63
655.57	57675.48
655.72	57551.43
655.86	57293.97
656.01	57303.34
656.15	57240.14
656.30	57446.11
656.44	57605.26
656.58	57558.45
656.73	57467.17
656.87	57532.71
657.01	57427.38
657.16	57399.30
657.30	57242.48
657.45	57350.15
657.59	57200.35
657.73	57205.03
657.88	56985.02
658.02	57275.25
658.16	57443.77
658.31	57172.27
658.45	57418.02
658.60	57382.91
658.74	57057.58
658.88	56985.02
659.03	56767.35
659.17	57052.90
659.31	56835.23
659.46	57113.75
659.60	57083.33
659.74	56898.42
659.89	56790.76
660.03	56856.29
660.17	56706.50
660.32	56743.95
660.46	56821.19
660.60	56680.75
660.74	56891.40
660.89	56896.08
661.03	56582.45
661.17	56308.61
661.32	56341.38
661.46	56793.10
661.60	56411.59
661.74	56381.16
661.89	56411.59
662.03	56329.67
662.17	56086.26
662.31	56385.85
662.46	56296.91
662.60	56126.05
662.74	56161.15
662.88	56065.19
663.03	55950.51
663.17	56137.75
663.31	56018.38
663.45	55990.30
663.60	55746.88
663.74	55931.78
663.88	55842.84
664.02	55800.71
664.17	55686.03
664.31	55458.99
664.45	55660.28
664.59	55824.12
664.73	55812.41
664.88	55707.09
665.02	55157.06
665.16	55529.21
665.30	55356.01
665.44	55215.58
665.59	55388.78
665.73	55290.48
665.87	55238.98
666.01	55419.20
666.15	55140.68
666.29	55058.76
666.44	55489.42
666.58	55056.42
666.72	54965.14
666.86	54939.39
667.00	54791.94
667.14	54808.32
667.28	54906.63
667.43	54939.39
667.57	54600.02
667.71	54607.04
667.85	54719.38
667.99	54557.89
668.13	54457.24
668.27	54307.45
668.41	54564.91
668.56	54244.26
668.70	54141.27
668.84	54038.29
668.98	53949.35
669.12	54157.66
669.26	54204.47
669.40	54045.31
669.54	54145.95
669.68	54239.57
669.82	53963.39
669.96	54059.35
670.10	54136.59
670.25	53825.30
670.39	53785.51
670.53	53811.26
670.67	53759.76
670.81	54176.38
670.95	53741.04
671.09	53572.52
671.23	53160.59
671.37	53488.26
671.51	53371.24
671.65	53497.62
671.79	53169.95
671.93	53034.20
672.07	53303.36
672.21	52947.60
672.35	52816.53
672.49	52722.91
672.63	52479.49
672.77	52837.59
672.91	52626.95
673.05	52383.53
673.19	52594.18
673.33	52643.33
673.47	52116.71
673.61	52940.58
673.75	52411.62
673.89	52018.41
674.03	51828.82
674.17	51990.32
674.31	51835.84
674.45	51468.38
674.59	51688.39
674.73	51807.76
674.87	51679.03
675.01	51592.43
675.15	51110.28
675.29	51372.42
675.43	51344.33
675.56	51526.89
675.70	51243.69
675.84	50960.48
675.98	49837.03
676.12	50953.46
676.26	50857.50
676.40	50831.75
676.54	50656.21
676.68	50614.08
676.82	49935.33
676.96	50061.72
677.10	50183.43
677.23	49881.50
677.37	50054.70
677.51	50045.33
677.65	49504.67
677.79	48914.86
677.93	49184.02
678.07	49237.85
678.21	49333.81
678.34	49036.56
678.48	49240.19
678.62	48832.94
678.76	48596.54
678.90	48776.76
679.04	48432.71
679.18	49050.61
679.31	48334.40
679.45	48100.35
679.59	48210.35
679.73	48252.48
679.87	47543.30
680.00	47625.22
680.14	47049.45
680.28	47646.29
680.42	47274.14
680.56	46665.60
680.70	46700.71
680.83	46738.16
680.97	46316.86
681.11	46667.94
681.25	46569.64
681.39	46398.78
681.52	46323.88
681.66	46270.05
681.80	45918.97
681.94	45940.04
682.07	45977.48
682.21	45165.32
682.35	45511.72
682.49	45446.18
682.62	45118.51
682.76	45333.84
682.90	45361.92
683.04	45326.81
683.17	44811.90
683.31	44292.30
683.45	44626.99
683.59	44264.21
683.72	44130.80
683.86	44002.07
684.00	44215.06
684.13	43927.17
684.27	43894.41
684.41	43751.63
684.55	43915.47
684.68	43585.46
684.82	43161.82
684.96	42621.16
685.09	43030.75
685.23	42473.70
685.37	42181.13
685.50	42174.11
685.64	42410.51
685.78	42340.29
685.91	42337.95
686.05	41844.10
686.19	40996.82
686.32	41549.19
686.46	41006.19
686.60	40816.60
686.73	40964.06
686.87	41106.83
687.01	40830.65
687.14	40140.19
687.28	40231.47
687.42	40165.93
687.55	40027.84
687.69	39988.05
687.82	39709.53
687.96	39920.18
688.10	39604.20
688.23	39910.82
688.37	39138.44
688.50	38876.30
688.64	38770.97
688.78	38895.02
688.91	38426.92
689.05	38450.32
689.18	38555.64
689.32	37722.41
689.46	37661.56
689.59	37528.15
689.73	37720.07
689.86	37488.36
690.00	37366.65
690.13	37979.87
690.27	37469.64
690.41	37560.92
690.54	37010.89
690.68	36683.22
690.81	36711.30
690.95	36533.42
691.08	36250.22
691.22	35901.48
691.35	35786.79
691.49	35988.08
691.62	36102.76
691.76	35679.13
691.89	35559.76
692.03	35571.46
692.16	34979.31
692.30	34801.43
692.43	35428.69
692.57	34410.56
692.70	34279.49
692.84	34625.89
692.97	34485.45
693.11	34368.43
693.24	34005.64
693.38	33935.43
693.51	33844.15
693.65	33684.99
693.78	33287.10
693.92	33446.26
694.05	33167.73
694.19	33172.41
694.32	33137.30
694.45	33078.79
694.59	32769.84
694.72	32741.75
694.86	32793.25
694.99	32084.06
695.13	31934.27
695.26	31964.70
695.39	31627.66
695.53	32205.77
695.66	31723.62
695.80	31145.51
695.93	31400.63
696.07	30745.28
696.20	30726.55
696.33	30609.53
696.47	30829.54
696.60	30712.51
696.73	30277.17
696.87	30389.52
697.00	29876.94
697.14	30122.69
697.27	30274.83
697.40	29860.55
697.54	29476.71
697.67	29998.65
697.80	29612.46
697.94	29109.24
698.07	28982.85
698.21	28989.88
698.34	29092.86
698.47	28786.25
698.61	28561.56
698.74	28568.58
698.87	28617.73
699.01	28030.26
699.14	28182.39
699.27	28091.11
699.40	28016.21
699.54	27791.52
699.67	27644.07
699.80	27391.29
699.94	27393.63
700.07	27445.12
700.20	27220.43
700.34	26843.60
700.47	26536.99
700.60	26185.91
700.73	26001.01
700.87	26010.37
701.00	25731.85
701.13	26118.04
701.26	26085.27
701.40	26312.30
701.53	25610.14
701.66	25783.34
701.79	25340.98
701.93	25205.23
702.06	24950.11
702.19	25113.95
702.32	24603.71
702.46	24650.52
702.59	24603.71
702.72	24535.84
702.85	24936.07
702.99	24615.41
703.12	23866.44
703.25	24149.65
703.38	23791.55
703.51	23623.03
703.65	23566.85
703.78	23377.27
703.91	23042.57
704.04	23290.67
704.17	23447.49
704.31	22878.74
704.44	22771.07
704.57	22857.67
704.70	22750.01
704.83	22298.28
704.96	22167.21
705.10	22398.93
705.23	22436.38
>>>>>End Processed Spectral Data<<<<<
