SpectraSuite Data File
++++++++++++++++++++++++++++++++++++
Date: Fri Oct 25 11:22:50 EDT 2013
User: price-jones
Dark Spectrum Present: No
Reference Spectrum Present: No
Number of Sampled Component Spectra: 1
Spectrometers: USB2+H05261
Integration Time (usec): 100000 (USB2+H05261)
Spectra Averaged: 1 (USB2+H05261)
Boxcar Smoothing: 0 (USB2+H05261)
Correct for Electrical Dark: No (USB2+H05261)
Strobe/Lamp Enabled: No (USB2+H05261)
Correct for Detector Non-linearity: No (USB2+H05261)
Correct for Stray Light: No (USB2+H05261)
Number of Pixels in Processed Spectrum: 2048
>>>>>Begin Processed Spectral Data<<<<<
365.73	231.71
365.92	231.71
366.12	231.71
366.32	140.43
366.52	173.20
366.72	152.13
366.91	117.03
367.11	161.50
367.31	217.67
367.51	168.52
367.70	147.45
367.90	166.18
368.10	91.28
368.30	98.30
368.49	88.94
368.69	154.48
368.89	105.32
369.09	128.73
369.28	102.98
369.48	159.16
369.68	255.12
369.87	124.05
370.07	238.73
370.27	201.29
370.47	372.15
370.66	582.79
370.86	650.67
371.06	657.69
371.25	678.76
371.45	662.37
371.65	685.78
371.84	716.20
372.04	664.71
372.24	727.91
372.44	720.88
372.63	702.16
372.83	713.86
373.03	725.57
373.22	660.03
373.42	699.82
373.62	723.23
373.81	713.86
374.01	812.17
374.21	800.46
374.40	795.78
374.60	908.13
374.79	723.23
374.99	863.66
375.19	814.51
375.38	856.64
375.58	873.02
375.78	770.04
375.97	849.61
376.17	919.83
376.37	786.42
376.56	863.66
376.76	901.11
376.95	823.87
377.15	891.74
377.35	887.06
377.54	919.83
377.74	961.96
377.93	880.04
378.13	950.26
378.33	877.70
378.52	931.53
378.72	978.34
378.91	938.55
379.11	1006.43
379.31	873.02
379.50	924.51
379.70	940.90
379.89	1048.56
380.09	1008.77
380.28	936.21
380.48	950.26
380.68	933.87
380.87	997.07
381.07	957.28
381.26	950.26
381.46	992.39
381.65	980.68
381.85	1043.88
382.04	1041.54
382.24	1142.18
382.43	1034.52
382.63	1071.97
382.83	999.41
383.02	1069.62
383.22	1069.62
383.41	1022.81
383.61	1104.73
383.80	1151.54
384.00	1188.99
384.19	1055.58
384.39	1076.65
384.58	1097.71
384.78	1055.58
384.97	1160.91
385.17	1144.52
385.36	1174.95
385.56	1249.85
385.75	1135.16
385.95	1177.29
386.14	1217.08
386.34	1167.93
386.53	1172.61
386.72	1205.38
386.92	1301.34
387.11	1210.06
387.31	1270.91
387.50	1181.97
387.70	1170.27
387.89	1235.80
388.09	1207.72
388.28	1289.64
388.48	1284.95
388.67	1254.53
388.86	1306.02
389.06	1397.30
389.25	1322.40
389.45	1390.28
389.64	1416.02
389.84	1352.83
390.03	1371.55
390.22	1427.73
390.42	1373.89
390.61	1387.94
390.81	1406.66
391.00	1446.45
391.19	1504.96
391.39	1434.75
391.58	1474.54
391.78	1530.71
391.97	1434.75
392.16	1451.13
392.36	1533.05
392.55	1413.68
392.75	1519.01
392.94	1462.83
393.13	1497.94
393.33	1460.49
393.52	1504.96
393.71	1633.69
393.91	1535.39
394.10	1600.93
394.29	1636.03
394.49	1575.18
394.68	1666.46
394.88	1610.29
395.07	1699.23
395.26	1717.95
395.46	1554.12
395.65	1727.32
395.84	1689.87
396.04	1760.08
396.23	1769.44
396.42	1727.32
396.62	1748.38
396.81	1802.21
397.00	1689.87
397.19	1797.53
397.39	1816.26
397.58	1872.43
397.77	1898.17
397.97	1797.53
398.16	1954.35
398.35	1881.79
398.55	1907.54
398.74	1928.60
398.93	1940.30
399.12	2036.27
399.32	1872.43
399.51	1823.28
399.70	1937.96
399.90	1982.43
400.09	1844.34
400.28	2047.97
400.47	1916.90
400.67	2050.31
400.86	2106.48
401.05	2127.55
401.24	2078.40
401.44	2165.00
401.63	2183.72
401.82	2062.01
402.01	2115.84
402.21	2155.63
402.40	2193.08
402.59	2153.29
402.78	2263.30
402.97	2225.85
403.17	2258.62
403.36	2209.47
403.55	2272.66
403.74	2272.66
403.93	2319.47
404.13	2431.82
404.32	2403.73
404.51	2354.58
404.70	2485.65
404.89	2363.94
405.09	2562.89
405.28	2497.35
405.47	2534.80
405.66	2462.24
405.85	2506.71
406.05	2621.40
406.24	2555.86
406.43	2670.55
406.62	2574.59
406.81	2719.70
407.00	2539.48
407.20	2640.12
407.39	2605.02
407.58	2609.70
407.77	2869.50
407.96	2754.81
408.15	2773.53
408.34	2747.79
408.54	2761.83
408.73	2715.02
408.92	2775.88
409.11	2860.13
409.30	2909.29
409.49	2897.58
409.68	2998.23
409.87	2864.82
410.07	3112.91
410.26	2991.20
410.45	2963.12
410.64	3002.91
410.83	3026.31
411.02	3096.53
411.21	3094.19
411.40	3159.72
411.59	3169.09
411.78	3129.30
411.98	3323.56
412.17	3251.00
412.36	3311.86
412.55	3281.43
412.74	3412.50
412.93	3384.41
413.12	3386.76
413.31	3475.70
413.50	3424.20
413.69	3571.66
413.88	3576.34
414.07	3712.09
414.26	3574.00
414.45	3740.18
414.64	3733.15
414.83	3714.43
415.02	3892.31
415.22	3808.05
415.41	3922.74
415.60	3728.47
415.79	3927.42
415.98	4009.34
416.17	4011.68
416.36	3906.35
416.55	3857.20
416.74	4063.17
416.93	4203.60
417.12	4224.67
417.31	4252.75
417.50	4259.78
417.69	4325.31
417.88	4407.23
418.07	4203.60
418.26	4327.65
418.45	4259.78
418.64	4505.53
418.83	4465.74
419.02	4484.47
419.21	4547.66
419.39	4557.02
419.58	4535.96
419.77	4444.68
419.96	4486.81
420.15	4622.56
420.34	4507.87
420.53	4589.79
420.72	4755.97
420.91	4697.46
421.10	4678.73
421.29	4791.08
421.48	4713.84
421.67	4865.97
421.86	4739.58
422.05	4915.12
422.24	4971.30
422.43	4856.61
422.61	4849.59
422.80	5076.62
422.99	4961.94
423.18	4945.55
423.37	5027.47
423.56	4945.55
423.75	4990.02
423.94	4938.53
424.13	4517.23
424.32	4833.21
424.50	4997.04
424.69	4947.89
424.88	5100.03
425.07	4896.40
425.26	5018.11
425.45	4929.17
425.64	5034.49
425.83	4917.47
426.01	5041.51
426.20	5078.96
426.39	5107.05
426.58	5078.96
426.77	4987.68
426.96	5123.43
427.15	5144.50
427.33	5121.09
427.52	5266.21
427.71	5203.01
427.90	5249.82
428.09	5210.03
428.28	5387.91
428.46	5364.51
428.65	5287.27
428.84	5610.26
429.03	5561.11
429.22	5376.21
429.40	5572.82
429.59	5607.92
429.78	5359.83
429.97	5284.93
430.16	5589.20
430.34	5687.50
430.53	5497.92
430.72	5839.64
430.91	5600.90
431.10	5671.12
431.28	5933.26
431.47	5771.76
431.66	5853.68
431.85	5832.62
432.03	5956.66
432.22	6038.58
432.41	5933.26
432.60	5961.34
432.79	6104.12
432.97	6080.71
433.16	6141.57
433.35	5951.98
433.54	6183.70
433.72	6377.96
433.91	6155.61
434.10	6216.46
434.28	6164.97
434.47	6293.70
434.66	6235.19
434.85	6356.90
435.03	6399.02
435.22	6324.13
435.41	6445.84
435.59	6417.75
435.78	6469.24
435.97	6546.48
436.16	6436.47
436.34	6473.92
436.53	6628.40
436.72	6597.97
436.90	6675.21
437.09	6738.40
437.28	6450.52
437.46	6607.33
437.65	6663.51
437.84	6864.79
438.02	6677.55
438.21	6930.33
438.40	6738.40
438.58	6906.92
438.77	7140.97
438.96	6988.84
439.14	7253.32
439.33	7339.92
439.52	7260.34
439.70	7150.34
439.89	7463.97
440.08	7302.47
440.26	7435.88
440.45	7346.94
440.63	7555.25
440.82	7679.30
441.01	7606.74
441.19	7513.12
441.38	7679.30
441.57	7707.38
441.75	7976.55
441.94	8070.17
442.12	7838.45
442.31	7978.89
442.50	8051.44
442.68	8037.40
442.87	7981.23
443.05	8201.24
443.24	8329.97
443.43	8173.15
443.61	8353.37
443.80	8507.85
443.98	8079.53
444.17	7850.16
444.35	8344.01
444.54	8301.88
444.73	8273.79
444.91	8257.41
445.10	8395.50
445.28	8528.91
445.47	8320.60
445.65	8362.73
445.84	8489.12
446.02	8500.83
446.21	8250.39
446.39	8531.25
446.58	8627.21
446.77	8557.00
446.95	8336.99
447.14	8463.38
447.32	8681.05
447.51	8458.70
447.69	8496.14
447.88	8444.65
448.06	8514.87
448.25	8662.32
448.43	8575.72
448.62	8430.61
448.80	8589.77
448.99	8610.83
449.17	8791.05
449.36	8629.56
449.54	8943.19
449.73	8943.19
449.91	9085.96
450.10	9081.28
450.28	9151.49
450.46	9137.45
450.65	9142.13
450.83	9193.62
451.02	8933.82
451.20	9280.22
451.39	9219.37
451.57	9261.50
451.76	9151.49
451.94	9329.38
452.13	9502.58
452.31	9425.34
452.49	9156.18
452.68	9497.89
452.86	9418.32
453.05	9394.91
453.23	9413.63
453.42	9390.23
453.60	9408.95
453.78	9406.61
453.97	9495.55
454.15	9547.05
454.34	9441.72
454.52	9750.67
454.70	9680.46
454.89	9579.81
455.07	9844.29
455.26	9856.00
455.44	9757.69
455.62	10083.03
455.81	9912.17
455.99	9982.38
456.17	10064.30
456.36	10061.96
456.54	10146.22
456.73	10356.87
456.91	10377.94
457.09	10586.24
457.28	10483.26
457.46	10274.95
457.64	10602.63
457.83	10483.26
458.01	10399.00
458.19	10768.80
458.38	10628.37
458.56	10698.59
458.74	10588.58
458.93	10789.87
459.11	10890.51
459.29	10817.96
459.48	10984.13
459.66	10799.23
459.84	11096.48
460.03	11190.10
460.21	11061.37
460.39	11054.35
460.57	11052.01
460.76	11363.30
460.94	11162.01
461.12	11323.51
461.31	11009.88
461.49	11295.43
461.67	11410.11
461.85	11529.48
462.04	11379.68
462.22	11808.00
462.40	11763.53
462.59	11492.03
462.77	11597.35
462.95	11698.00
463.13	11655.87
463.32	11925.03
463.50	11590.33
463.68	11843.11
463.86	11808.00
464.05	11634.80
464.23	11686.29
464.41	11786.94
464.59	11822.05
464.78	12215.26
464.96	11925.03
465.14	11843.11
465.32	12273.77
465.50	12400.16
465.69	12168.45
465.87	12156.74
466.05	12196.53
466.23	12252.70
466.41	12299.52
466.60	12578.04
466.78	12222.28
466.96	12259.73
467.14	12325.26
467.32	12414.20
467.51	12533.57
467.69	12114.61
467.87	12559.31
468.05	12549.95
468.23	12545.27
468.41	12472.71
468.60	12798.05
468.78	12870.61
468.96	12538.25
469.14	12908.05
469.32	12903.37
469.50	12791.03
469.69	12992.31
469.87	13121.04
470.05	13170.19
470.23	13139.77
470.41	13291.90
470.59	13530.64
470.77	13455.74
470.95	13362.12
471.14	13657.03
471.32	13205.30
471.50	13446.38
471.68	13825.54
471.86	13958.96
472.04	13937.89
472.22	14148.54
472.40	13682.77
472.58	14207.05
472.77	13926.19
472.95	14092.37
473.13	14775.80
473.31	14228.12
473.49	14064.28
473.67	14059.60
473.85	14286.63
474.03	14728.99
474.21	14766.44
474.39	14892.83
474.57	14944.32
474.75	15054.33
474.93	15115.18
475.12	15016.88
475.30	15424.13
475.48	15110.50
475.66	14916.23
475.84	15337.53
476.02	15466.26
476.20	15531.80
476.38	16037.35
476.56	15957.77
476.74	16142.67
476.92	15871.17
477.10	15798.62
477.28	15962.45
477.46	16093.52
477.64	16308.85
477.82	16514.82
478.00	16957.18
478.18	16732.49
478.36	16929.09
478.54	17153.79
478.72	17111.66
478.90	17537.63
479.08	17921.48
479.26	17743.60
479.44	17640.62
479.62	17708.49
479.80	17914.46
479.98	18396.61
480.16	18731.31
480.34	18171.92
480.52	18670.45
480.70	18743.01
480.88	18427.04
481.06	18623.64
481.24	18995.79
481.41	19424.11
481.59	19585.60
481.77	19389.00
481.95	19822.00
482.13	19978.81
482.31	19859.45
482.49	20460.96
482.67	20123.93
482.85	20561.61
483.03	20975.88
483.21	21020.35
483.39	21317.60
483.57	20889.28
483.74	21443.99
483.92	21422.92
484.10	21563.36
484.28	21867.63
484.46	22345.09
484.64	22347.44
484.82	21982.31
485.00	22485.53
485.18	22647.02
485.35	23428.76
485.53	22923.21
485.71	23101.09
485.89	23908.57
486.07	23393.65
486.25	23623.03
486.43	23875.80
486.61	24025.60
486.78	24056.03
486.96	24503.07
487.14	24971.18
487.32	24788.61
487.50	24748.82
487.68	24851.81
487.85	25319.92
488.03	25750.57
488.21	26228.04
488.39	25923.77
488.57	26066.55
488.75	26295.92
488.92	26581.46
489.10	26962.97
489.28	26925.52
489.46	27267.24
489.64	27236.81
489.81	28114.52
489.99	27873.44
490.17	28051.32
490.35	28283.03
490.53	28421.13
490.70	28718.37
490.88	28638.80
491.06	29252.02
491.24	29139.67
491.41	29142.01
491.59	29532.88
491.77	29427.56
491.95	29958.86
492.13	30008.01
492.30	30012.69
492.48	30019.71
492.66	30279.51
492.84	30338.02
493.01	30885.71
493.19	31105.72
493.37	31220.41
493.54	31250.83
493.72	31716.60
493.90	31548.08
494.08	31859.37
494.25	32086.40
494.43	32315.78
494.61	32367.27
494.79	32456.21
494.96	32573.24
495.14	33081.13
495.32	33537.54
495.49	33441.57
495.67	33460.30
495.85	33804.36
496.02	33809.04
496.20	34356.72
496.38	34164.80
496.55	34127.35
496.73	34660.99
496.91	34731.21
497.09	35012.07
497.26	35372.52
497.44	35442.73
497.62	35264.85
497.79	35892.12
497.97	35784.45
498.14	36507.68
498.32	36484.27
498.50	37088.13
498.67	36935.99
498.85	36835.35
499.03	36865.78
499.20	36980.46
499.38	36828.33
499.56	37244.94
499.73	37406.44
499.91	37364.31
500.08	37614.75
500.26	37333.89
500.44	37567.94
500.61	38162.43
500.79	38167.12
500.97	38621.18
501.14	39157.16
501.32	38202.22
501.49	38504.15
501.67	38885.66
501.84	39196.95
502.02	38958.22
502.20	39438.03
502.37	39880.39
502.55	39578.46
502.72	39756.34
502.90	39917.84
503.07	40018.48
503.25	40128.48
503.43	39859.32
503.60	40341.47
503.78	40629.36
503.95	40545.10
504.13	40912.56
504.30	40767.45
504.48	40643.40
504.65	40774.47
504.83	41198.11
505.01	41703.67
505.18	41516.42
505.36	41586.64
505.53	41584.30
505.71	41626.43
505.88	42202.20
506.06	41574.94
506.23	42469.02
506.41	42003.25
506.58	42567.32
506.76	42082.83
506.93	42838.83
507.11	42691.37
507.28	42857.55
507.46	42817.76
507.63	42976.92
507.81	43555.03
507.98	43304.59
508.16	43185.22
508.33	43913.13
508.50	43969.30
508.68	43688.44
508.85	44465.50
509.03	44278.25
509.20	44306.34
509.38	44760.40
509.55	44715.93
509.73	44535.71
509.90	44879.77
510.08	44797.85
510.25	44879.77
510.42	44524.01
510.60	45439.16
510.77	45118.51
510.95	45785.56
511.12	45228.51
511.30	45118.51
511.47	45617.04
511.64	45771.52
511.82	46366.01
511.99	46333.24
512.17	45911.95
512.34	46403.46
512.51	46714.75
512.69	46373.03
512.86	46955.83
513.04	47035.41
513.21	47040.09
513.38	47224.99
513.56	47203.92
513.73	46784.97
513.90	47379.46
514.08	46925.40
514.25	47505.85
514.43	47821.83
514.60	48048.86
514.77	47082.22
514.95	47711.82
515.12	47812.46
515.29	48069.92
515.47	48266.53
515.64	48605.91
515.81	48193.97
515.99	48112.05
516.16	49031.88
516.33	48624.63
516.51	49090.40
516.68	48676.12
516.85	49031.88
517.03	49013.16
517.20	49244.87
517.37	48732.29
517.54	49066.99
517.72	49214.44
517.89	49249.55
518.06	49748.09
518.24	49251.89
518.41	49797.24
518.58	49691.91
518.75	49399.35
518.93	49715.32
519.10	49895.54
519.27	49911.92
519.45	49911.92
519.62	50286.41
519.79	50085.12
519.96	50312.16
520.14	50621.11
520.31	50199.81
520.48	50576.64
520.65	50667.92
520.83	50838.78
521.00	50981.55
521.17	50508.76
521.34	50820.05
521.52	50873.88
521.69	50930.06
521.86	51372.42
522.03	51526.89
522.20	51456.68
522.38	51990.32
522.55	51344.33
522.72	51695.41
522.89	51604.13
523.07	52156.50
523.24	51758.61
523.41	51882.66
523.58	51552.64
523.75	52163.52
523.92	52027.77
524.10	51978.62
524.27	52126.07
524.44	52603.54
524.61	52226.71
524.78	52439.70
524.96	52617.58
525.13	52680.78
525.30	52442.04
525.47	52767.38
525.64	52767.38
525.81	52963.98
525.98	52556.73
526.16	52790.78
526.33	52718.23
526.50	53296.34
526.67	52982.71
526.84	53392.30
527.01	53073.99
527.18	53186.33
527.36	53343.15
527.53	53212.08
527.70	53769.13
527.87	53478.90
528.04	53588.91
528.21	53542.10
528.38	53420.39
528.55	53780.83
528.72	53464.86
528.89	53687.21
529.07	53727.00
529.24	53385.28
529.41	53631.04
529.58	53682.53
529.75	53930.62
529.92	53947.01
530.09	53890.83
530.26	54204.47
530.43	54106.16
530.60	53851.05
530.77	54087.44
530.94	54160.00
531.11	54326.17
531.28	54213.83
531.46	54466.61
531.63	54258.30
531.80	54614.06
531.97	54164.68
532.14	54923.01
532.31	54738.11
532.48	54918.33
532.65	54934.71
532.82	54698.32
532.99	54988.55
533.16	54850.45
533.33	55100.89
533.50	55131.32
533.67	54969.82
533.84	54927.69
534.01	55234.30
534.18	55063.44
534.35	55330.26
534.52	55208.56
534.69	55283.45
534.86	55552.62
535.03	55210.90
535.20	55466.02
535.37	55538.57
535.54	55618.15
535.71	55346.65
535.88	55559.64
536.05	55781.99
536.22	55758.58
536.38	55735.18
536.55	55807.73
536.72	55924.76
536.89	56016.04
537.06	56023.06
537.23	55737.52
537.40	55730.50
537.57	55962.21
537.74	56219.67
537.91	56217.33
538.08	56207.97
538.25	56179.88
538.42	56088.60
538.59	56280.52
538.75	56301.59
538.92	56149.45
539.09	56404.57
539.26	56193.92
539.43	56467.76
539.60	56264.14
539.77	56296.91
539.94	56781.40
540.11	56430.32
540.28	56584.79
540.44	56680.75
540.61	56500.53
540.78	56549.68
540.95	56481.81
541.12	56519.26
541.29	56608.20
541.46	56898.42
541.62	56711.18
541.79	57090.35
541.96	56573.09
542.13	56821.19
542.30	56765.01
542.47	57064.60
542.63	56914.81
542.80	56928.85
542.97	57158.22
543.14	57375.89
543.31	57240.14
543.48	57312.70
543.64	57574.84
543.81	57359.51
543.98	57504.62
544.15	57385.25
544.32	57696.55
544.48	57874.43
544.65	57474.20
544.82	57453.13
544.99	57560.79
545.16	57572.50
545.32	57755.06
545.49	58007.84
545.66	57851.02
545.83	57801.87
546.00	57963.37
546.16	57776.12
546.33	57794.85
546.50	57506.96
546.67	58005.50
546.83	57619.31
547.00	58035.92
547.17	57996.13
547.34	58021.88
547.50	58108.48
547.67	58089.76
547.84	58164.65
548.00	58351.90
548.17	58492.33
548.34	58166.99
548.51	58499.35
548.67	58408.07
548.84	58183.38
549.01	58281.68
549.18	58253.59
549.34	58251.25
549.51	58417.43
549.68	58377.64
549.84	58440.84
550.01	58632.76
550.18	58419.77
550.34	58698.30
550.51	58735.74
550.68	58625.74
550.84	58365.94
551.01	58560.20
551.18	58738.08
551.34	58684.25
551.51	58567.23
551.68	58539.14
551.84	58630.42
552.01	58698.30
552.18	58908.94
552.34	58618.72
552.51	58831.71
552.68	58805.96
552.84	58845.75
553.01	59173.42
553.18	59032.99
553.34	59068.10
553.51	59084.48
553.67	58810.64
553.84	59107.89
554.01	59199.17
554.17	59274.07
554.34	59337.26
554.51	59267.05
554.67	59367.69
554.84	59093.85
555.00	59208.53
555.17	59206.19
555.33	59075.12
555.50	59295.13
555.67	59009.59
555.83	59154.70
556.00	59105.55
556.16	59391.09
556.33	59451.95
556.50	59568.97
556.66	59634.51
556.83	59440.24
556.99	59503.44
557.16	59557.27
557.32	59643.87
557.49	59821.75
557.65	59604.08
557.82	59519.82
557.98	59554.93
558.15	59344.28
558.32	59552.59
558.48	59545.57
558.65	59657.91
558.81	59674.30
558.98	59814.73
559.14	59920.05
559.31	59791.33
559.47	59760.90
559.64	59906.01
559.80	60093.25
559.97	59861.54
560.13	59655.57
560.30	59931.76
560.46	59870.90
560.63	59854.52
560.79	59906.01
560.96	60001.97
561.12	60130.70
561.29	60121.34
561.45	59941.12
561.61	59777.28
561.78	60095.60
561.94	60221.98
562.11	60013.68
562.27	60121.34
562.44	60030.06
562.60	60119.00
562.77	60224.32
562.93	60058.15
563.10	60074.53
563.26	60090.91
563.42	60320.29
563.59	60282.84
563.75	60219.64
563.92	60158.79
564.08	60020.70
564.24	60629.24
564.41	60135.38
564.57	60362.42
564.74	60420.93
564.90	60519.23
565.07	60172.83
565.23	60243.05
565.39	60584.77
565.56	60229.01
565.72	60381.14
565.88	60299.22
566.05	60236.03
566.21	60383.48
566.38	60397.52
566.54	60463.06
566.70	60409.23
566.87	60552.00
567.03	60411.57
567.19	60519.23
567.36	60427.95
567.52	60418.59
567.68	60570.72
567.85	60654.98
568.01	60657.32
568.17	60460.72
568.34	60697.11
568.50	60523.91
568.66	60603.49
568.83	60467.74
568.99	60617.53
569.15	60652.64
569.32	60549.66
569.48	60453.70
569.64	60669.03
569.81	60381.14
569.97	60617.53
570.13	60542.64
570.30	60540.30
570.46	60568.38
570.62	60657.32
570.78	60935.85
570.95	60612.85
571.11	60963.93
571.27	60507.53
571.43	60828.18
571.60	60910.10
571.76	60519.23
571.92	60860.95
572.09	60645.62
572.25	60608.17
572.41	60734.56
572.57	60591.79
572.74	61083.30
572.90	60788.39
573.06	60865.63
573.22	60720.52
573.38	60903.08
573.55	60851.59
573.71	60987.34
573.87	60690.09
574.03	60685.41
574.20	60729.88
574.36	60802.44
574.52	60889.04
574.68	60889.04
574.84	61003.72
575.01	60704.13
575.17	60919.46
575.33	60748.60
575.49	60870.31
575.65	60956.91
575.82	60683.07
575.98	60933.51
576.14	61106.71
576.30	61083.30
576.46	60872.65
576.62	60809.46
576.79	60935.85
576.95	60844.57
577.11	60842.23
577.27	60837.54
577.43	61141.81
577.59	60877.33
577.75	60849.25
577.92	60891.38
578.08	60970.96
578.24	60877.33
578.40	61174.58
578.56	61174.58
578.72	60956.91
578.88	61055.21
579.04	61118.41
579.21	61006.06
579.37	61235.44
579.53	61233.10
579.69	60818.82
579.85	61174.58
580.01	61059.90
580.17	60846.91
580.33	60940.53
580.49	61340.76
580.65	61174.58
580.82	61125.43
580.98	60963.93
581.14	61087.98
581.30	61153.52
581.46	61167.56
581.62	61148.84
581.78	60970.96
581.94	61155.86
582.10	61127.77
582.26	61015.43
582.42	60928.83
582.58	60992.02
582.74	61190.97
582.90	60821.16
583.06	61228.41
583.22	60961.59
583.38	61052.87
583.54	61270.54
583.70	60985.00
583.86	61286.93
584.02	60977.98
584.18	60982.66
584.34	61038.83
584.50	61083.30
584.66	60942.87
584.82	60837.54
584.98	61120.75
585.14	61244.80
585.30	61151.18
585.46	61193.31
585.62	61249.48
585.78	61368.85
585.94	60865.63
586.10	61010.74
586.26	60989.68
586.42	61132.45
586.58	61148.84
586.74	61261.18
586.90	61261.18
587.06	61095.00
587.22	61392.25
587.38	61106.71
587.54	61401.61
587.70	61387.57
587.86	61223.73
588.02	61293.95
588.18	61464.81
588.34	61223.73
588.49	61052.87
588.65	61137.13
588.81	61158.20
588.97	61286.93
589.13	61392.25
589.29	61399.27
589.45	61446.08
589.61	61432.04
589.77	61745.67
589.93	61553.75
590.08	61439.06
590.24	61588.86
590.40	61762.06
590.56	61733.97
590.72	61621.62
590.88	61436.72
591.04	61485.87
591.20	61790.14
591.35	61593.54
591.51	61715.25
591.67	61485.87
591.83	61600.56
591.99	61338.42
592.15	61455.45
592.31	61523.32
592.46	61434.38
592.62	61336.08
592.78	61539.71
592.94	61645.03
593.10	61553.75
593.26	61499.92
593.41	61572.47
593.57	61331.40
593.73	61652.05
593.89	61806.53
594.05	61783.12
594.20	61785.46
594.36	61649.71
594.52	61558.43
594.68	61443.74
594.84	61581.84
594.99	61872.06
595.15	61712.91
595.31	61930.58
595.47	61516.30
595.62	61574.81
595.78	61375.87
595.94	61701.20
596.10	61881.42
596.25	61731.63
596.41	61790.14
596.57	61769.08
596.73	62017.17
596.88	61619.28
597.04	61764.40
597.20	61612.26
597.36	61879.08
597.51	61900.15
597.67	61757.38
597.83	61563.11
597.99	61827.59
598.14	61818.23
598.30	61939.94
598.46	61858.02
598.61	61862.70
598.77	61879.08
598.93	61794.82
599.09	61815.89
599.24	61949.30
599.40	61904.83
599.56	62014.83
599.71	61935.26
599.87	62087.39
600.03	61975.05
600.18	61750.35
600.34	61736.31
600.50	62047.60
600.65	61918.87
600.81	62000.79
600.97	61846.32
601.12	61895.47
601.28	61965.68
601.44	61867.38
601.59	61963.34
601.75	61918.87
601.91	61965.68
602.06	62159.95
602.22	62047.60
602.37	61865.04
602.53	61893.13
602.69	61902.49
602.84	61904.83
603.00	62082.71
603.16	61921.21
603.31	62145.90
603.47	61979.73
603.62	61853.34
603.78	61869.72
603.94	61804.19
604.09	61881.42
604.25	61738.65
604.40	62003.13
604.56	61740.99
604.71	62103.77
604.87	61771.42
605.03	61834.61
605.18	61794.82
605.34	61977.39
605.49	61773.76
605.65	61975.05
605.80	61923.55
605.96	62005.47
606.12	61869.72
606.27	62176.33
606.43	61937.60
606.58	61949.30
606.74	61956.32
606.89	61963.34
607.05	61790.14
607.20	61904.83
607.36	61797.16
607.51	61829.93
607.67	61712.91
607.82	61879.08
607.98	61642.69
608.13	61897.81
608.29	61836.95
608.44	61724.61
608.60	61740.99
608.75	61712.91
608.91	61717.59
609.06	61371.19
609.22	61958.66
609.37	61773.76
609.53	61858.02
609.68	62007.81
609.84	61549.07
609.99	61909.51
610.15	61762.06
610.30	61813.55
610.46	61834.61
610.61	61820.57
610.76	61633.33
610.92	61593.54
611.07	61666.09
611.23	61656.73
611.38	61839.29
611.54	61755.03
611.69	61726.95
611.84	61773.76
612.00	61731.63
612.15	61638.01
612.31	61586.52
612.46	61544.39
612.62	61453.11
612.77	61696.52
612.92	61790.14
613.08	61537.36
613.23	61666.09
613.39	61654.39
613.54	61577.15
613.69	61502.26
613.85	61577.15
614.00	61581.84
614.15	61752.69
614.31	61359.48
614.46	61602.90
614.62	61612.26
614.77	61551.41
614.92	61687.16
615.08	61595.88
615.23	61450.77
615.38	61645.03
615.54	61371.19
615.69	61663.75
615.84	61621.62
616.00	61560.77
616.15	61605.24
616.30	61633.33
616.46	61244.80
616.61	61338.42
616.76	61539.71
616.92	61338.42
617.07	61336.08
617.22	61146.50
617.37	61359.48
617.53	61663.75
617.68	61345.44
617.83	61382.89
617.99	61427.36
618.14	61506.94
618.29	61483.53
618.45	61338.42
618.60	61200.33
618.75	61092.66
618.90	61017.77
619.06	61413.32
619.21	61286.93
619.36	61415.66
619.51	61415.66
619.67	61092.66
619.82	61300.97
619.97	61247.14
620.12	60856.27
620.28	61097.34
620.43	61258.84
620.58	61139.47
620.73	60928.83
620.89	61179.26
621.04	61188.63
621.19	61034.15
621.34	61078.62
621.49	60947.55
621.65	61073.94
621.80	61293.95
621.95	60870.31
622.10	61055.21
622.25	61148.84
622.41	60973.30
622.56	61057.56
622.71	61216.71
622.86	60959.25
623.01	60903.08
623.16	60989.68
623.32	60818.82
623.47	60926.49
623.62	60931.17
623.77	60867.97
623.92	60842.23
624.07	60992.02
624.23	61111.39
624.38	61080.96
624.53	60954.57
624.68	60619.88
624.83	61043.51
624.98	61048.19
625.13	60739.24
625.29	60853.93
625.44	60912.44
625.59	60800.10
625.74	60617.53
625.89	60657.32
626.04	60570.72
626.19	60594.13
626.34	60638.60
626.49	60451.36
626.65	60486.46
626.80	60683.07
626.95	60427.95
627.10	60339.01
627.25	60690.09
627.40	60425.61
627.55	60458.38
627.70	60439.65
627.85	60378.80
628.00	60458.38
628.15	60477.10
628.30	60395.18
628.45	60423.27
628.60	60491.15
628.76	60570.72
628.91	60479.44
629.06	60353.05
629.21	60552.00
629.36	60315.61
629.51	60140.07
629.66	60505.19
629.81	60111.98
629.96	60388.16
630.11	60320.29
630.26	60144.75
630.41	60268.79
630.56	60350.71
630.71	60287.52
630.86	60076.87
631.01	60273.48
631.16	60254.75
631.31	60165.81
631.46	59877.93
631.61	60156.45
631.76	60385.82
631.91	60231.35
632.06	60076.87
632.21	60219.64
632.36	59952.82
632.51	59814.73
632.66	60062.83
632.81	59962.18
632.96	60348.37
633.10	59959.84
633.25	60027.72
633.40	60097.94
633.55	60065.17
633.70	59805.37
633.85	59922.40
634.00	59849.84
634.15	59824.09
634.30	60032.40
634.45	59744.51
634.60	60126.02
634.75	60245.39
634.90	59770.26
635.05	59678.98
635.19	59796.01
635.34	59688.34
635.49	59735.15
635.64	59669.62
635.79	59922.40
635.94	59868.56
636.09	60001.97
636.24	59554.93
636.39	59744.51
636.53	59880.27
636.68	59540.89
636.83	59721.11
636.98	59781.96
637.13	59573.66
637.28	59618.13
637.43	59700.04
637.57	59732.81
637.72	59505.78
637.87	59458.97
638.02	59440.24
638.17	59852.18
638.32	59524.50
638.46	59341.94
638.61	59590.04
638.76	59503.44
638.91	59468.33
639.06	59508.12
639.20	59381.73
639.35	59320.88
639.50	59311.52
639.65	59245.98
639.80	59444.93
639.94	59421.52
640.09	59248.32
640.24	59430.88
640.39	59463.65
640.54	59243.64
640.68	59194.49
640.83	59306.83
640.98	59245.98
641.13	59143.00
641.27	59255.34
641.42	59023.63
641.57	59018.95
641.72	58878.52
641.86	58990.86
642.01	58937.03
642.16	59152.36
642.31	58932.35
642.45	59201.51
642.60	59117.25
642.75	59288.11
642.90	59133.63
643.04	59086.82
643.19	58979.16
643.34	59121.93
643.48	59061.08
643.63	58812.98
643.78	58789.58
643.93	58906.60
644.07	59068.10
644.22	58759.15
644.37	58759.15
644.51	58890.22
644.66	58836.39
644.81	58834.05
644.95	59128.95
645.10	58831.71
645.25	58946.39
645.39	59000.22
645.54	58714.68
645.69	58555.52
645.83	58824.68
645.98	58653.82
646.13	58801.28
646.27	58738.08
646.42	58569.57
646.57	58543.82
646.71	58681.91
646.86	58820.00
647.00	58890.22
647.15	58515.73
647.30	58599.99
647.44	58700.64
647.59	58450.20
647.74	58815.32
647.88	58553.18
648.03	58677.23
648.17	58787.24
648.32	58440.84
648.47	58667.87
648.61	58688.93
648.76	58417.43
648.90	58543.82
649.05	58445.52
649.20	58384.66
649.34	58576.59
649.49	58131.89
649.63	58368.28
649.78	58763.83
649.92	58440.84
650.07	58623.40
650.21	58340.19
650.36	58473.60
650.51	58431.47
650.65	58396.37
650.80	58447.86
650.94	58071.03
651.09	58031.24
651.23	58162.31
651.38	58178.70
651.52	58049.97
651.67	58049.97
651.81	58188.06
651.96	58026.56
652.10	57958.69
652.25	58124.86
652.39	58148.27
652.54	57963.37
652.68	57787.83
652.83	58017.20
652.97	58092.10
653.12	58035.92
653.26	57722.29
653.41	58181.04
653.55	57972.73
653.70	57680.16
653.84	58171.67
653.99	57977.41
654.13	57759.74
654.27	57939.96
654.42	57888.47
654.56	58005.50
654.71	57930.60
654.85	58049.97
655.00	58075.71
655.14	57726.97
655.29	57776.12
655.43	57848.68
655.57	57595.90
655.72	57729.31
655.86	57705.91
656.01	57724.63
656.15	57373.55
656.30	57584.20
656.44	57645.05
656.58	57666.12
656.73	57766.76
656.87	57572.50
657.01	57612.29
657.16	57776.12
657.30	57530.37
657.45	57649.74
657.59	57563.14
657.73	57340.78
657.88	57464.83
658.02	57467.17
658.16	57392.28
658.31	57190.99
658.45	57411.00
658.60	57230.78
658.74	57305.68
658.88	57415.68
659.03	57270.57
659.17	57010.77
659.31	56956.94
659.46	56992.04
659.60	57162.90
659.74	57195.67
659.89	56713.52
660.03	56896.08
660.17	57041.20
660.32	56938.21
660.46	56671.39
660.60	56837.57
660.74	56809.48
660.89	57020.13
661.03	56765.01
661.17	56973.32
661.32	56708.84
661.46	56631.60
661.60	56650.33
661.74	56907.79
661.89	56727.56
662.03	56451.38
662.17	56573.09
662.31	56299.25
662.46	56687.78
662.60	56416.27
662.74	56444.36
662.88	56282.86
663.03	56002.00
663.17	56280.52
663.31	56027.74
663.45	56240.73
663.60	56182.22
663.74	55859.23
663.88	56044.13
664.02	55845.18
664.17	56200.94
664.31	55676.66
664.45	55922.42
664.59	55842.84
664.73	56009.02
664.88	55646.24
665.02	55484.74
665.16	55484.74
665.30	55494.10
665.44	55784.33
665.59	55594.74
665.73	55585.38
665.87	55454.31
666.01	55421.55
666.15	55477.72
666.29	55449.63
666.44	55480.06
666.58	55257.71
666.72	55112.59
666.86	55171.11
667.00	55126.64
667.14	54852.80
667.28	54948.76
667.43	55098.55
667.57	55145.36
667.71	54724.07
667.85	54932.37
667.99	54752.15
668.13	54894.92
668.27	54726.41
668.41	54665.55
668.56	54539.16
668.70	54621.08
668.84	54520.44
668.98	54588.31
669.12	54644.49
669.26	54672.57
669.40	54253.62
669.54	54424.48
669.68	54321.49
669.82	54157.66
669.96	54300.43
670.10	54384.69
670.25	54621.08
670.39	54092.12
670.53	54244.26
670.67	54234.89
670.81	54401.07
670.95	54082.76
671.09	53787.85
671.23	53841.68
671.37	53762.11
671.51	53715.29
671.65	53612.31
671.79	53525.71
671.93	53420.39
672.07	53263.57
672.21	53162.93
672.35	52884.40
672.49	52973.34
672.63	52837.59
672.77	53083.35
672.91	52903.13
673.05	52938.24
673.19	52935.90
673.33	52732.27
673.47	52708.86
673.61	52851.64
673.75	52804.83
673.89	52332.04
674.03	52402.25
674.17	52109.69
674.31	52109.69
674.45	51959.89
674.59	51983.30
674.73	52226.71
674.87	52170.54
675.01	51707.12
675.15	51664.99
675.29	51716.48
675.43	51887.34
675.56	51636.90
675.70	51199.22
675.84	51140.71
675.98	50529.83
676.12	51337.31
676.26	51201.56
676.40	51332.63
676.54	51370.08
676.68	50796.65
676.82	50351.94
676.96	50752.18
677.10	50738.13
677.23	50057.04
677.37	50199.81
677.51	50073.42
677.65	49708.30
677.79	49254.23
677.93	49249.55
678.07	49464.88
678.21	49504.67
678.34	49490.63
678.48	49200.40
678.62	48844.64
678.76	48917.20
678.90	48568.46
679.04	48692.50
679.18	49036.56
679.31	48526.33
679.45	48336.74
679.59	48133.12
679.73	48203.33
679.87	48023.11
680.00	47421.59
680.14	47419.25
680.28	47711.82
680.42	47381.80
680.56	47241.37
680.70	46806.03
680.83	47349.04
680.97	47147.75
681.11	47222.65
681.25	47042.43
681.39	46529.85
681.52	46623.47
681.66	46691.35
681.80	46499.42
681.94	46199.83
682.07	46391.76
682.21	45956.42
682.35	45345.54
682.49	45647.47
682.62	45588.95
682.76	45617.04
682.90	45673.21
683.04	45251.92
683.17	45165.32
683.31	44772.11
683.45	45041.27
683.59	44837.64
683.72	44161.23
683.86	44449.11
684.00	44463.16
684.13	44524.01
684.27	43758.66
684.41	43756.32
684.55	43957.60
684.68	44172.93
684.82	43758.66
684.96	43428.64
685.09	43049.47
685.23	42834.14
685.37	42457.32
685.50	42756.91
685.64	42424.55
685.78	43026.07
685.91	42351.99
686.05	42349.65
686.19	41462.59
686.32	41652.17
686.46	41684.94
686.60	40804.90
686.73	41102.15
686.87	41144.28
687.01	41511.74
687.14	41347.90
687.28	40767.45
687.42	40865.75
687.55	40540.42
687.69	40587.23
687.82	40229.13
687.96	39990.39
688.10	39997.41
688.23	40315.73
688.37	39662.72
688.50	39487.18
688.64	39194.61
688.78	39210.99
688.91	38827.15
689.05	38899.70
689.18	38782.68
689.32	38396.49
689.46	38085.20
689.59	38204.56
689.73	38003.28
689.86	37626.45
690.00	37640.50
690.13	38270.10
690.27	37364.31
690.41	37818.38
690.54	37104.51
690.68	36767.48
690.81	37317.50
690.95	36531.08
691.08	36477.25
691.22	36311.07
691.35	36687.90
691.49	36638.75
691.62	36414.05
691.76	35967.01
691.89	36128.51
692.03	35363.15
692.16	35297.62
692.30	35482.52
692.43	35849.99
692.57	34988.67
692.70	35143.14
692.84	34646.95
692.97	34658.65
693.11	34937.18
693.24	34256.08
693.38	34424.60
693.51	33832.44
693.65	33865.21
693.78	34075.86
693.92	33905.00
694.05	33362.00
694.19	33500.09
694.32	33582.01
694.45	32685.58
694.59	33247.31
694.72	32753.46
694.86	32680.90
694.99	32381.31
695.13	32259.60
695.26	32257.26
695.39	31672.13
695.53	31880.44
695.66	32149.60
695.80	31824.26
695.93	31840.65
696.07	30745.28
696.20	30902.09
696.33	30473.78
696.47	31033.16
696.60	30927.84
696.73	30883.37
696.87	30761.66
697.00	29900.34
697.14	30551.01
697.27	30022.05
697.40	30036.09
697.54	30043.12
697.67	29757.57
697.80	29729.48
697.94	29617.14
698.07	29310.53
698.21	29022.64
698.34	28875.19
698.47	28868.17
698.61	28594.32
698.74	28453.89
698.87	28596.67
699.01	28334.53
699.14	28421.13
699.27	28290.06
699.40	27999.83
699.54	28304.10
699.67	28201.11
699.80	27599.60
699.94	27763.43
700.07	27754.07
700.20	27410.01
700.34	26939.57
700.47	26939.57
700.60	26761.69
700.73	26625.93
700.87	26277.19
701.00	25968.24
701.13	26157.83
701.26	26239.75
701.40	26251.45
701.53	26148.46
701.66	26022.08
701.79	25350.34
701.93	25207.57
702.06	24891.60
702.19	25029.69
702.32	25001.60
702.46	24919.68
702.59	24952.45
702.72	24311.14
702.85	24940.75
702.99	24711.38
703.12	24142.63
703.25	24121.56
703.38	23978.79
703.51	24233.91
703.65	23733.03
703.78	23269.61
703.91	23580.90
704.04	23438.12
704.17	23482.59
704.31	23503.66
704.44	23044.91
704.57	23316.42
704.70	23033.21
704.83	22981.72
704.96	22544.04
705.10	22326.37
705.23	22333.39
>>>>>End Processed Spectral Data<<<<<
