SpectraSuite Data File
++++++++++++++++++++++++++++++++++++
Date: Fri Oct 25 11:24:03 EDT 2013
User: price-jones
Dark Spectrum Present: No
Reference Spectrum Present: No
Number of Sampled Component Spectra: 1
Spectrometers: USB2+H05261
Integration Time (usec): 100000 (USB2+H05261)
Spectra Averaged: 1 (USB2+H05261)
Boxcar Smoothing: 0 (USB2+H05261)
Correct for Electrical Dark: No (USB2+H05261)
Strobe/Lamp Enabled: No (USB2+H05261)
Correct for Detector Non-linearity: No (USB2+H05261)
Correct for Stray Light: No (USB2+H05261)
Number of Pixels in Processed Spectrum: 2048
>>>>>Begin Processed Spectral Data<<<<<
365.73	236.39
365.92	236.39
366.12	236.39
366.32	175.54
366.52	133.41
366.72	156.82
366.91	124.05
367.11	95.96
367.31	177.88
367.51	84.26
367.70	180.22
367.90	112.35
368.10	100.64
368.30	140.43
368.49	74.90
368.69	180.22
368.89	93.62
369.09	133.41
369.28	163.84
369.48	166.18
369.68	145.11
369.87	217.67
370.07	227.03
370.27	203.63
370.47	322.99
370.66	528.96
370.86	606.20
371.06	653.01
371.25	638.97
371.45	592.16
371.65	681.10
371.84	634.29
372.04	606.20
372.24	699.82
372.44	627.26
372.63	772.38
372.83	732.59
373.03	805.14
373.22	758.33
373.42	713.86
373.62	788.76
373.81	760.67
374.01	835.57
374.21	765.36
374.40	753.65
374.60	793.44
374.79	793.44
374.99	819.19
375.19	870.68
375.38	854.30
375.58	861.32
375.78	791.10
375.97	868.34
376.17	863.66
376.37	870.68
376.56	990.05
376.76	882.38
376.95	905.79
377.15	903.45
377.35	929.19
377.54	912.81
377.74	870.68
377.93	947.92
378.13	957.28
378.33	1015.79
378.52	919.83
378.72	968.98
378.91	922.17
379.11	919.83
379.31	915.15
379.50	889.40
379.70	945.58
379.89	933.87
380.09	971.32
380.28	1032.18
380.48	1095.37
380.68	976.00
380.87	940.90
381.07	1034.52
381.26	1036.86
381.46	1057.92
381.65	1015.79
381.85	1078.99
382.04	1093.03
382.24	1118.78
382.43	1118.78
382.63	1118.78
382.83	1064.94
383.02	1111.75
383.22	1139.84
383.41	1090.69
383.61	1090.69
383.80	1130.48
384.00	1123.46
384.19	1123.46
384.39	1149.20
384.58	1256.87
384.78	1114.10
384.97	1210.06
385.17	1064.94
385.36	1123.46
385.56	1224.10
385.75	1167.93
385.95	1245.16
386.14	1247.51
386.34	1207.72
386.53	1254.53
386.72	1235.80
386.92	1308.36
387.11	1268.57
387.31	1331.76
387.50	1266.23
387.70	1245.16
387.89	1401.98
388.09	1306.02
388.28	1219.42
388.48	1329.42
388.67	1336.45
388.86	1474.54
389.06	1291.98
389.25	1387.94
389.45	1425.39
389.64	1336.45
389.84	1373.89
390.03	1469.86
390.22	1315.38
390.42	1462.83
390.61	1369.21
390.81	1338.79
391.00	1390.28
391.19	1425.39
391.39	1472.20
391.58	1476.88
391.78	1376.24
391.97	1582.20
392.16	1397.30
392.36	1586.88
392.55	1467.52
392.75	1586.88
392.94	1619.65
393.13	1614.97
393.33	1563.48
393.52	1523.69
393.71	1575.18
393.91	1502.62
394.10	1589.22
394.29	1682.85
394.49	1678.16
394.68	1621.99
394.88	1734.34
395.07	1661.78
395.26	1673.48
395.46	1666.46
395.65	1748.38
395.84	1654.76
396.04	1825.62
396.23	1668.80
396.42	1694.55
396.62	1790.51
396.81	1701.57
397.00	1699.23
397.19	1727.32
397.39	1851.36
397.58	1888.81
397.77	1687.53
397.97	1846.68
398.16	1902.86
398.35	1909.88
398.55	1900.52
398.74	1959.03
398.93	2092.44
399.12	1870.09
399.32	1912.22
399.51	1926.26
399.70	1989.46
399.90	1884.13
400.09	1982.43
400.28	2062.01
400.47	2148.61
400.67	2097.12
400.86	2059.67
401.05	2038.61
401.24	2118.18
401.44	2111.16
401.63	2155.63
401.82	2160.31
402.01	2078.40
402.21	2263.30
402.40	2204.78
402.59	2279.68
402.78	2174.36
402.97	2335.85
403.17	2223.51
403.36	2286.70
403.55	2239.89
403.74	2422.45
403.93	2284.36
404.13	2356.92
404.32	2382.67
404.51	2317.13
404.70	2420.11
404.89	2420.11
405.09	2483.31
405.28	2455.22
405.47	2537.14
405.66	2574.59
405.85	2548.84
406.05	2516.08
406.24	2609.70
406.43	2525.44
406.62	2693.96
406.81	2750.13
407.00	2551.18
407.20	2597.99
407.39	2651.83
407.58	2731.41
407.77	2729.06
407.96	2759.49
408.15	2761.83
408.34	2724.38
408.54	2839.07
408.73	2708.00
408.92	2871.84
409.11	2836.73
409.30	2925.67
409.49	2911.63
409.68	2871.84
409.87	3009.93
410.07	2935.03
410.26	3038.02
410.45	2991.20
410.64	3063.76
410.83	3077.80
411.02	3091.85
411.21	3211.22
411.40	3241.64
411.59	3180.79
411.78	3241.64
411.98	3239.30
412.17	3232.28
412.36	3323.56
412.55	3473.36
412.74	3382.07
412.93	3353.99
413.12	3419.52
413.31	3527.19
413.50	3482.72
413.69	3691.02
413.88	3660.60
414.07	3534.21
414.26	3543.57
414.45	3786.99
414.64	3880.61
414.83	3756.56
415.02	3854.86
415.22	3868.91
415.41	3908.69
415.60	3843.16
415.79	3939.12
415.98	3927.42
416.17	3988.27
416.36	3899.33
416.55	4044.45
416.74	3978.91
416.93	4135.73
417.12	4135.73
417.31	4182.54
417.50	4245.73
417.69	4313.61
417.88	4348.72
418.07	4215.30
418.26	4486.81
418.45	4456.38
418.64	4538.30
418.83	4437.66
419.02	4437.66
419.21	4425.95
419.39	4496.17
419.58	4510.21
419.77	4365.10
419.96	4585.11
420.15	4741.93
420.34	4730.22
420.53	4594.47
420.72	4641.28
420.91	4777.03
421.10	4741.93
421.29	4924.49
421.48	4730.22
421.67	4791.08
421.86	4770.01
422.05	4950.23
422.24	4751.29
422.43	5004.07
422.61	4959.60
422.80	5048.54
422.99	4964.28
423.18	4910.44
423.37	4961.94
423.56	4847.25
423.75	4861.29
423.94	4929.17
424.13	4706.82
424.32	4826.18
424.50	5107.05
424.69	5210.03
424.88	5130.45
425.07	4957.25
425.26	4854.27
425.45	4973.64
425.64	4992.36
425.83	5144.50
426.01	5205.35
426.20	5170.24
426.39	5032.15
426.58	4873.00
426.77	5118.75
426.96	5261.52
427.15	5198.33
427.33	5137.48
427.52	5057.90
427.71	5308.34
427.90	5195.99
428.09	5287.27
428.28	5348.12
428.46	5303.65
428.65	5327.06
428.84	5467.49
429.03	5647.71
429.22	5411.32
429.40	5502.60
429.59	5584.52
429.78	5439.40
429.97	5399.62
430.16	5472.17
430.34	5731.97
430.53	5671.12
430.72	5626.65
430.91	5708.57
431.10	5584.52
431.28	5860.70
431.47	5930.92
431.66	5902.83
431.85	5738.99
432.03	5813.89
432.22	5982.41
432.41	6022.20
432.60	6015.18
432.79	5907.51
432.97	6066.67
433.16	6092.41
433.35	6012.84
433.54	6057.31
433.72	6211.78
433.91	6106.46
434.10	6251.57
434.28	6141.57
434.47	6314.77
434.66	6153.27
434.85	6230.51
435.03	6359.24
435.22	6408.39
435.41	6356.90
435.59	6462.22
435.78	6581.59
435.97	6558.18
436.16	6352.21
436.34	6560.52
436.53	6506.69
436.72	6654.14
436.90	6541.80
437.09	6679.89
437.28	6637.76
437.46	6614.35
437.65	6759.47
437.84	6822.66
438.02	6724.36
438.21	6888.20
438.40	6796.92
438.58	6965.43
438.77	7023.95
438.96	7035.65
439.14	7293.11
439.33	7229.91
439.52	7346.94
439.70	7232.26
439.89	7314.17
440.08	7646.53
440.26	7396.09
440.45	7412.48
440.63	7562.27
440.82	7637.17
441.01	7606.74
441.19	7695.68
441.38	7861.86
441.57	7531.84
441.75	7791.64
441.94	7983.57
442.12	7962.50
442.31	8056.12
442.50	8074.85
442.68	8053.78
442.87	8016.33
443.05	8353.37
443.24	8189.53
443.43	8299.54
443.61	8138.04
443.80	8414.23
443.98	8170.81
444.17	7948.46
444.35	8112.30
444.54	8557.00
444.73	8339.33
444.91	8198.90
445.10	8414.23
445.28	8369.76
445.47	8266.77
445.65	8234.00
445.84	8704.45
446.02	8294.86
446.21	8367.42
446.39	8416.57
446.58	8601.47
446.77	8603.81
446.95	8416.57
447.14	8549.98
447.32	8456.36
447.51	8578.06
447.69	8407.20
447.88	8718.50
448.06	8610.83
448.25	8589.77
448.43	8622.53
448.62	8573.38
448.80	8706.79
448.99	8765.31
449.17	8723.18
449.36	8575.72
449.54	8828.50
449.73	8964.25
449.91	8828.50
450.10	9107.02
450.28	9062.55
450.46	9102.34
450.65	9034.47
450.83	9186.60
451.02	9062.55
451.20	9387.89
451.39	9399.59
451.57	9088.30
451.76	8968.93
451.94	9214.69
452.13	9439.38
452.31	9423.00
452.49	9186.60
452.68	9298.95
452.86	9252.14
453.05	9668.75
453.23	9680.46
453.42	9455.76
453.60	9254.48
453.78	9549.39
453.97	9474.49
454.15	9507.26
454.34	9432.36
454.52	9858.34
454.70	9671.09
454.89	9755.35
455.07	9872.38
455.26	9942.60
455.44	10167.29
455.62	9820.89
455.81	10090.05
455.99	10040.90
456.17	10169.63
456.36	10265.59
456.54	10289.00
456.73	10396.66
456.91	10628.37
457.09	10539.43
457.28	10679.86
457.46	10429.43
457.64	10504.32
457.83	10532.41
458.01	10609.65
458.19	10761.78
458.38	10560.50
458.56	10871.79
458.74	10897.53
458.93	10679.86
459.11	10965.41
459.29	10691.57
459.48	10963.07
459.66	10883.49
459.84	11000.52
460.03	10993.50
460.21	11056.69
460.39	11023.92
460.57	11124.57
460.76	11108.18
460.94	11274.36
461.12	11185.42
461.31	11424.15
461.49	11108.18
461.67	11183.08
461.85	11543.52
462.04	11269.68
462.22	11609.06
462.40	11569.27
462.59	11742.47
462.77	11714.38
462.95	11660.55
463.13	11634.80
463.32	11838.43
463.50	11850.13
463.68	11976.52
463.86	11786.94
464.05	11829.07
464.23	11906.31
464.41	11934.39
464.59	11833.75
464.78	12189.51
464.96	12278.45
465.14	11852.47
465.32	12105.25
465.50	12072.48
465.69	11943.75
465.87	12173.13
466.05	12201.21
466.23	12198.87
466.41	12191.85
466.60	12372.07
466.78	12407.18
466.96	12355.69
467.14	12236.32
467.32	12411.86
467.51	12629.53
467.69	12264.41
467.87	12549.95
468.05	12706.77
468.23	12709.11
468.41	12451.65
468.60	12594.42
468.78	12903.37
468.96	12734.85
469.14	12821.45
469.32	12940.82
469.50	12725.49
469.69	12898.69
469.87	13153.81
470.05	13153.81
470.23	13139.77
470.41	13132.75
470.59	13245.09
470.77	13502.55
470.95	13209.98
471.14	13460.42
471.32	13097.64
471.50	13820.86
471.68	13579.79
471.86	13884.06
472.04	13703.84
472.22	14141.52
472.40	13860.65
472.58	13940.23
472.77	14129.81
472.95	14015.13
473.13	14827.29
473.31	14001.08
473.49	14281.95
473.67	14045.55
473.85	14560.47
474.03	14677.50
474.21	14726.65
474.39	14703.25
474.57	14588.56
474.75	14995.81
474.93	14995.81
475.12	15073.05
475.30	15056.67
475.48	15138.58
475.66	15131.56
475.84	15314.13
476.02	15728.40
476.20	15421.79
476.38	15534.14
476.56	16278.43
476.74	16226.93
476.92	15955.43
477.10	16065.44
477.28	15932.03
477.46	16460.99
477.64	16428.22
477.82	16917.39
478.00	16849.52
478.18	16783.98
478.36	17088.25
478.54	17275.49
478.72	17427.63
478.90	17394.86
479.08	17685.09
479.26	17935.53
479.44	17769.35
479.62	17965.95
479.80	18204.69
479.98	18204.69
480.16	18644.71
480.34	18707.90
480.52	18682.16
480.70	18766.42
480.88	18801.52
481.06	19019.19
481.24	19000.47
481.41	18946.64
481.59	19482.62
481.77	19714.33
481.95	19784.55
482.13	19651.14
482.31	19964.77
482.49	20374.36
482.67	20266.70
482.85	20627.14
483.03	20900.98
483.21	20975.88
483.39	21469.73
483.57	21167.80
483.74	21116.31
483.92	21582.08
484.10	21362.07
484.28	21902.73
484.46	21774.00
484.64	22787.46
484.82	22115.72
485.00	22199.98
485.18	22831.93
485.35	22834.27
485.53	22778.09
485.71	23110.45
485.89	23819.63
486.07	23482.59
486.25	23456.85
486.43	23733.03
486.61	23836.02
486.78	24156.67
486.96	24428.17
487.14	24870.53
487.32	24245.61
487.50	25050.75
487.68	25142.03
487.85	25575.03
488.03	25516.52
488.21	26174.21
488.39	25776.32
488.57	26120.38
488.75	26389.54
488.92	26518.27
489.10	26871.69
489.28	27119.79
489.46	27201.71
489.64	27110.43
489.81	27828.97
489.99	27917.91
490.17	27938.97
490.35	28505.38
490.53	28442.19
490.70	28257.29
490.88	28205.80
491.06	29205.20
491.24	29186.48
491.41	29041.37
491.59	29411.17
491.77	29654.59
491.95	29956.52
492.13	30005.67
492.30	30586.12
492.48	30129.72
492.66	30181.21
492.84	30466.75
493.01	30890.39
493.19	30918.48
493.37	31054.23
493.54	31417.01
493.72	31908.52
493.90	31728.30
494.08	31770.43
494.25	32294.71
494.43	32091.09
494.61	32194.07
494.79	32830.69
494.96	32503.02
495.14	32936.02
495.32	33521.15
495.49	33460.30
495.67	33802.02
495.85	34120.33
496.02	33937.77
496.20	34094.58
496.38	34113.31
496.55	34609.50
496.73	34909.09
496.91	34925.47
497.09	35171.23
497.26	35386.56
497.44	35323.36
497.62	35187.61
497.79	35955.31
497.97	35807.86
498.14	36011.48
498.32	36528.74
498.50	36400.01
498.67	36608.32
498.85	36886.84
499.03	37137.28
499.20	36966.42
499.38	37359.63
499.56	37628.79
499.73	37516.45
499.91	37488.36
500.08	38373.08
500.26	37710.71
500.44	37542.19
500.61	38003.28
500.79	37935.40
500.97	38232.65
501.14	38904.38
501.32	38892.68
501.49	39115.03
501.67	38852.89
501.84	38888.00
502.02	39407.60
502.20	39480.16
502.37	39498.88
502.55	39573.78
502.72	39749.32
502.90	39601.86
503.07	39826.56
503.25	40292.32
503.43	39821.87
503.60	40273.60
503.78	40133.17
503.95	40638.72
504.13	40837.67
504.30	40804.90
504.48	40924.27
504.65	40905.54
504.83	41083.42
505.01	41490.68
505.18	41209.81
505.36	42057.09
505.53	41502.38
505.71	41839.42
505.88	42284.12
506.06	41902.61
506.23	42115.60
506.41	42270.08
506.58	42525.19
506.76	41977.51
506.93	42953.51
507.11	42913.72
507.28	42656.26
507.46	43140.75
507.63	42930.11
507.81	43859.30
507.98	43164.16
508.16	43978.67
508.33	43620.56
508.50	43945.90
508.68	44170.59
508.85	44449.11
509.03	44313.36
509.20	44374.22
509.38	44612.95
509.55	44921.90
509.73	45184.04
509.90	45090.42
510.08	44767.43
510.25	44589.55
510.42	45052.97
510.60	45727.05
510.77	45195.74
510.95	45968.12
511.12	45413.41
511.30	45160.64
511.47	45701.30
511.64	45855.78
511.82	46204.52
511.99	45745.77
512.17	46028.98
512.34	45902.59
512.51	46653.90
512.69	46457.29
512.86	46525.17
513.04	46932.42
513.21	47065.83
513.38	47042.43
513.56	47185.20
513.73	47093.92
513.90	47435.64
514.08	47414.57
514.25	47674.37
514.43	47878.00
514.60	47503.51
514.77	47646.29
514.95	47973.96
515.12	47732.89
515.29	47847.57
515.47	48287.59
515.64	48734.63
515.81	48341.42
515.99	48713.57
516.16	48905.49
516.33	48329.72
516.51	48781.45
516.68	48563.78
516.85	48563.78
517.03	49132.53
517.20	49184.02
517.37	48872.73
517.54	49298.70
517.72	49373.60
517.89	49434.45
518.06	49139.55
518.24	49528.08
518.41	49556.16
518.58	49940.01
518.75	49652.12
518.93	49949.37
519.10	49755.11
519.27	50157.68
519.45	49993.84
519.62	49940.01
519.79	50384.71
519.96	50190.45
520.14	50358.97
520.31	50618.77
520.48	50473.65
520.65	50728.77
520.83	50850.48
521.00	50960.48
521.17	50742.81
521.34	51007.29
521.52	50974.53
521.69	50607.06
521.86	51154.75
522.03	51325.61
522.20	51693.07
522.38	51915.42
522.55	51547.96
522.72	51489.45
522.89	51632.22
523.07	52020.75
523.24	51845.21
523.41	51983.30
523.58	51854.57
523.75	52196.29
523.92	51997.34
524.10	52175.22
524.27	52147.14
524.44	52226.71
524.61	52353.10
524.78	52168.20
524.96	52575.45
525.13	52481.83
525.30	52715.89
525.47	52851.64
525.64	52741.63
525.81	52615.24
525.98	53279.96
526.16	52753.33
526.33	52772.06
526.50	53317.40
526.67	53001.43
526.84	53102.07
527.01	53181.65
527.18	52968.66
527.36	53174.63
527.53	53279.96
527.70	53876.79
527.87	53631.04
528.04	53399.32
528.21	53652.10
528.38	53593.59
528.55	53846.36
528.72	53602.95
528.89	53354.85
529.07	53656.78
529.24	53563.16
529.41	53787.85
529.58	53932.96
529.75	53907.22
529.92	53876.79
530.09	53888.49
530.26	54328.52
530.43	54157.66
530.60	53820.62
530.77	53961.05
530.94	54557.89
531.11	54005.52
531.28	54401.07
531.46	54305.11
531.63	54546.18
531.80	54560.23
531.97	54754.49
532.14	54871.52
532.31	54962.80
532.48	54773.22
532.65	55063.44
532.82	54710.02
532.99	54871.52
533.16	54920.67
533.33	55114.94
533.50	55320.90
533.67	54885.56
533.84	54593.00
534.01	55182.81
534.18	55079.83
534.35	55444.95
534.52	55283.45
534.69	55302.18
534.86	55332.60
535.03	54972.16
535.20	55234.30
535.37	55423.89
535.54	55625.17
535.71	55185.15
535.88	55557.30
536.05	55681.34
536.22	55786.67
536.38	55735.18
536.55	55655.60
536.72	55737.52
536.89	55618.15
537.06	55931.78
537.23	55849.86
537.40	55891.99
537.57	55781.99
537.74	56072.21
537.91	56093.28
538.08	56083.92
538.25	55945.83
538.42	56076.90
538.59	56367.12
538.75	55983.27
538.92	56154.13
539.09	56437.34
539.26	56273.50
539.43	56147.11
539.60	56390.53
539.77	56404.57
539.94	56956.94
540.11	56533.30
540.28	56692.46
540.44	56615.22
540.61	56608.20
540.78	56390.53
540.95	56481.81
541.12	56603.52
541.29	56706.50
541.46	56664.37
541.62	56823.53
541.79	56863.32
541.96	56573.09
542.13	56542.66
542.30	56966.30
542.47	57083.33
542.63	57050.56
542.80	57069.28
542.97	57132.48
543.14	57242.48
543.31	57256.53
543.48	57354.83
543.64	57722.29
543.81	57455.47
543.98	57595.90
544.15	57401.64
544.32	57558.45
544.48	57595.90
544.65	57511.64
544.82	57652.08
544.99	57506.96
545.16	57705.91
545.32	57591.22
545.49	57883.79
545.66	57942.30
545.83	57776.12
546.00	57862.72
546.16	57755.06
546.33	57806.55
546.50	57530.37
546.67	57710.59
546.83	57544.41
547.00	58000.82
547.17	58031.24
547.34	57708.25
547.50	57965.71
547.67	58195.08
547.84	58056.99
548.00	58218.49
548.17	58279.34
548.34	58354.24
548.51	58534.46
548.67	58611.70
548.84	58445.52
549.01	58384.66
549.18	58227.85
549.34	58422.11
549.51	58597.65
549.68	58653.82
549.84	58618.72
550.01	58602.33
550.18	58181.04
550.34	58585.95
550.51	58630.42
550.68	58585.95
550.84	58555.52
551.01	58602.33
551.18	58695.95
551.34	58623.40
551.51	58742.77
551.68	58803.62
551.84	58738.08
552.01	58637.44
552.18	58578.93
552.34	58581.27
552.51	58820.00
552.68	58639.78
552.84	58782.55
553.01	59011.93
553.18	58836.39
553.34	59089.16
553.51	58951.07
553.67	59042.35
553.84	59105.55
554.01	59133.63
554.17	59164.06
554.34	58988.52
554.51	59304.49
554.67	59267.05
554.84	59208.53
555.00	59302.15
555.17	59086.82
555.33	59295.13
555.50	59299.81
555.67	59011.93
555.83	59327.90
556.00	59140.66
556.16	59564.29
556.33	59557.27
556.50	59426.20
556.66	59442.59
556.83	59323.22
556.99	59494.08
557.16	59753.88
557.32	59608.76
557.49	59908.35
557.65	59580.68
557.82	59531.53
557.98	59639.19
558.15	59592.38
558.32	59700.04
558.48	59681.32
558.65	59728.13
558.81	59744.51
558.98	59447.27
559.14	59891.97
559.31	59700.04
559.47	59774.94
559.64	59821.75
559.80	59749.20
559.97	60032.40
560.13	59686.00
560.30	59798.35
560.46	59693.02
560.63	59889.63
560.79	59807.71
560.96	60069.85
561.12	60205.60
561.29	59969.21
561.45	59938.78
561.61	60013.68
561.78	59915.37
561.94	59889.63
562.11	59969.21
562.27	60081.55
562.44	60027.72
562.60	60177.51
562.77	60086.23
562.93	59894.31
563.10	60175.17
563.26	60083.89
563.42	60430.29
563.59	60324.97
563.75	60133.04
563.92	60039.42
564.08	60030.06
564.24	60420.93
564.41	60207.94
564.57	60360.08
564.74	60221.98
564.90	60306.24
565.07	60219.64
565.23	60186.88
565.39	60236.03
565.56	60395.18
565.72	60427.95
565.88	60341.35
566.05	60402.21
566.21	60250.07
566.38	60526.25
566.54	60198.58
566.70	60491.15
566.87	60575.40
567.03	60322.63
567.19	60505.19
567.36	60481.78
567.52	60257.09
567.68	60701.79
567.85	60397.52
568.01	60575.40
568.17	60603.49
568.34	60891.38
568.50	60664.35
568.66	60573.06
568.83	60523.91
568.99	60507.53
569.15	60500.51
569.32	60671.37
569.48	60570.72
569.64	60561.36
569.81	60502.85
569.97	60580.09
570.13	60589.45
570.30	60617.53
570.46	60708.82
570.62	60650.30
570.78	60835.20
570.95	60608.17
571.11	60741.58
571.27	60755.63
571.43	60718.18
571.60	60666.69
571.76	60547.32
571.92	60739.24
572.09	60498.17
572.25	60774.35
572.41	60589.45
572.57	60694.77
572.74	60874.99
572.90	60966.27
573.06	60940.53
573.22	60601.15
573.38	60690.09
573.55	60755.63
573.71	61015.43
573.87	60832.86
574.03	60526.25
574.20	60816.48
574.36	60767.33
574.52	60779.03
574.68	61038.83
574.84	60919.46
575.01	60865.63
575.17	60870.31
575.33	60973.30
575.49	60636.26
575.65	60877.33
575.82	60977.98
575.98	60982.66
576.14	61130.11
576.30	60910.10
576.46	60928.83
576.62	61020.11
576.79	61080.96
576.95	60769.67
577.11	60933.51
577.27	61134.79
577.43	61202.67
577.59	60842.23
577.75	60839.89
577.92	60896.06
578.08	60926.49
578.24	60938.19
578.40	61102.03
578.56	61109.05
578.72	60818.82
578.88	61097.34
579.04	61275.22
579.21	61097.34
579.37	61329.06
579.53	61256.50
579.69	60954.57
579.85	60856.27
580.01	61052.87
580.17	60790.73
580.33	61216.71
580.49	61205.01
580.65	61172.24
580.82	61125.43
580.98	61062.24
581.14	60879.67
581.30	61195.65
581.46	61048.19
581.62	61186.28
581.78	61071.60
581.94	61190.97
582.10	61270.54
582.26	61130.11
582.42	61109.05
582.58	61127.77
582.74	60956.91
582.90	61111.39
583.06	61228.41
583.22	61087.98
583.38	61073.94
583.54	61109.05
583.70	61307.99
583.86	61116.07
584.02	60973.30
584.18	61207.35
584.34	61233.10
584.50	61188.63
584.66	60968.61
584.82	60776.69
584.98	61235.44
585.14	61087.98
585.30	61132.45
585.46	61333.74
585.62	61268.20
585.78	61207.35
585.94	60992.02
586.10	61097.34
586.26	60973.30
586.42	61343.10
586.58	61265.86
586.74	61151.18
586.90	61123.09
587.06	61111.39
587.22	61422.68
587.38	61221.39
587.54	61317.35
587.70	61338.42
587.86	61387.57
588.02	61160.54
588.18	61277.57
588.34	61291.61
588.49	61078.62
588.65	61226.07
588.81	61083.30
588.97	61460.13
589.13	61315.01
589.29	61439.06
589.45	61408.64
589.61	61076.28
589.77	61675.46
589.93	61450.77
590.08	61539.71
590.24	61549.07
590.40	61745.67
590.56	61525.66
590.72	61457.79
590.88	61509.28
591.04	61326.72
591.20	61677.80
591.35	61542.05
591.51	61689.50
591.67	61586.52
591.83	61549.07
591.99	61300.97
592.15	61565.45
592.31	61715.25
592.46	61535.02
592.62	61537.36
592.78	61542.05
592.94	61911.85
593.10	61668.44
593.26	61495.24
593.41	61717.59
593.57	61710.56
593.73	61609.92
593.89	61806.53
594.05	61923.55
594.20	61654.39
594.36	61724.61
594.52	61867.38
594.68	61549.07
594.84	61490.55
594.99	61628.65
595.15	61572.47
595.31	61696.52
595.47	61600.56
595.62	61684.82
595.78	61558.43
595.94	61612.26
596.10	61712.91
596.25	61961.00
596.41	61759.72
596.57	61577.15
596.73	61886.10
596.88	61696.52
597.04	61712.91
597.20	61820.57
597.36	61677.80
597.51	61951.64
597.67	61801.85
597.83	61731.63
597.99	61731.63
598.14	61722.27
598.30	61797.16
598.46	61935.26
598.61	61963.34
598.77	61900.15
598.93	61867.38
599.09	61836.95
599.24	61991.43
599.40	62024.20
599.56	61930.58
599.71	61921.21
599.87	61958.66
600.03	61956.32
600.18	61764.40
600.34	61989.09
600.50	61888.45
600.65	61799.50
600.81	61949.30
600.97	62066.33
601.12	61979.73
601.28	61818.23
601.44	61694.18
601.59	61890.79
601.75	62017.17
601.91	62080.37
602.06	61949.30
602.22	61846.32
602.37	61982.07
602.53	61792.48
602.69	61792.48
602.84	61972.70
603.00	61893.13
603.16	62150.59
603.31	62033.56
603.47	62024.20
603.62	61886.10
603.78	61937.60
603.94	61991.43
604.09	62101.43
604.25	61970.36
604.40	61862.70
604.56	61998.45
604.71	62061.64
604.87	61953.98
605.03	61939.94
605.18	61771.42
605.34	62007.81
605.49	61921.21
605.65	61893.13
605.80	61949.30
605.96	62122.50
606.12	61961.00
606.27	61951.64
606.43	61916.53
606.58	62124.84
606.74	61890.79
606.89	61813.55
607.05	61939.94
607.20	61914.19
607.36	61717.59
607.51	61808.87
607.67	61698.86
607.82	61764.40
607.98	61656.73
608.13	61883.76
608.29	61851.00
608.44	61790.14
608.60	61558.43
608.75	61710.56
608.91	61839.29
609.06	61797.16
609.22	61881.42
609.37	61689.50
609.53	61902.49
609.68	61694.18
609.84	61638.01
609.99	61848.66
610.15	61843.98
610.30	61832.27
610.46	61607.58
610.61	61806.53
610.76	61792.48
610.92	61556.09
611.07	61628.65
611.23	61752.69
611.38	61708.22
611.54	61523.32
611.69	61726.95
611.84	61666.09
612.00	61755.03
612.15	61523.32
612.31	61811.21
612.46	61474.17
612.62	61738.65
612.77	61668.44
612.92	61581.84
613.08	61666.09
613.23	61495.24
613.39	61556.09
613.54	61595.88
613.69	61743.33
613.85	61656.73
614.00	61661.41
614.15	61614.60
614.31	61647.37
614.46	61612.26
614.62	61418.00
614.77	61766.74
614.92	61556.09
615.08	61380.55
615.23	61441.40
615.38	61535.02
615.54	61525.66
615.69	61567.79
615.84	61467.15
616.00	61539.71
616.15	61574.81
616.30	61446.08
616.46	61502.26
616.61	61380.55
616.76	61315.01
616.92	61233.10
617.07	61378.21
617.22	61261.18
617.37	61415.66
617.53	61347.78
617.68	61378.21
617.83	61464.81
617.99	61233.10
618.14	61429.70
618.29	61406.30
618.45	61247.14
618.60	61282.25
618.75	61240.12
618.90	61169.90
619.06	61448.42
619.21	61275.22
619.36	61434.38
619.51	61279.91
619.67	61205.01
619.82	61291.61
619.97	61174.58
620.12	61111.39
620.28	61134.79
620.43	61207.35
620.58	61261.18
620.73	60856.27
620.89	61226.07
621.04	61202.67
621.19	61106.71
621.34	61169.90
621.49	61022.45
621.65	60917.12
621.80	61205.01
621.95	61052.87
622.10	61022.45
622.25	60872.65
622.41	60989.68
622.56	60996.70
622.71	61139.47
622.86	60797.76
623.01	60870.31
623.16	60823.50
623.32	61095.00
623.47	61125.43
623.62	60898.40
623.77	60992.02
623.92	61085.64
624.07	61099.68
624.23	60879.67
624.38	60938.19
624.53	60935.85
624.68	60886.70
624.83	60896.06
624.98	60947.55
625.13	60762.65
625.29	60893.72
625.44	60867.97
625.59	60821.16
625.74	60736.90
625.89	60610.51
626.04	60456.04
626.19	60788.39
626.34	60589.45
626.49	60720.52
626.65	60271.14
626.80	60828.18
626.95	60659.66
627.10	60374.12
627.25	60552.00
627.40	60528.59
627.55	60303.90
627.70	60519.23
627.85	60460.72
628.00	60409.23
628.15	60413.91
628.30	60282.84
628.45	60530.93
628.60	60390.50
628.76	60432.63
628.91	60720.52
629.06	60341.35
629.21	60432.63
629.36	60296.88
629.51	60425.61
629.66	60416.25
629.81	60184.54
629.96	60093.25
630.11	60189.22
630.26	60280.50
630.41	60364.76
630.56	60329.65
630.71	60322.63
630.86	60271.14
631.01	60158.79
631.16	60299.22
631.31	59849.84
631.46	59803.03
631.61	60224.32
631.76	60210.28
631.91	60217.30
632.06	60214.96
632.21	60198.58
632.36	60046.44
632.51	59852.18
632.66	60100.28
632.81	59842.82
632.96	60264.11
633.10	59934.10
633.25	60097.94
633.40	60097.94
633.55	60107.30
633.70	59880.27
633.85	59854.52
634.00	59810.05
634.15	59732.81
634.30	59898.99
634.45	59845.16
634.60	60161.13
634.75	59938.78
634.90	59456.63
635.05	59840.48
635.19	59784.30
635.34	59891.97
635.49	59772.60
635.64	59833.46
635.79	59702.38
635.94	59831.11
636.09	59648.55
636.24	59566.63
636.39	59604.08
636.53	59856.86
636.68	59576.00
636.83	59590.04
636.98	59732.81
637.13	59636.85
637.28	59583.02
637.43	59484.72
637.57	59428.54
637.72	59648.55
637.87	59510.46
638.02	59533.87
638.17	59650.89
638.32	59697.70
638.46	59304.49
638.61	59494.08
638.76	59234.28
638.91	59501.10
639.06	59267.05
639.20	59290.45
639.35	59185.13
639.50	59365.35
639.65	59409.82
639.80	59330.24
639.94	59559.61
640.09	59327.90
640.24	59426.20
640.39	59229.60
640.54	59236.62
640.68	59248.32
640.83	59433.22
640.98	59271.73
641.13	59068.10
641.27	59192.15
641.42	59208.53
641.57	59098.53
641.72	59089.16
641.86	59187.47
642.01	58960.44
642.16	58937.03
642.31	58904.26
642.45	59386.41
642.60	59000.22
642.75	59274.07
642.90	59056.40
643.04	58953.41
643.19	58944.05
643.34	59187.47
643.48	59061.08
643.63	58990.86
643.78	59082.14
643.93	58993.20
644.07	58913.62
644.22	58876.18
644.37	58497.01
644.51	58829.37
644.66	58775.53
644.81	58857.45
644.95	58927.67
645.10	59004.91
645.25	58883.20
645.39	58726.38
645.54	58906.60
645.69	58639.78
645.83	58740.42
645.98	58754.47
646.13	58864.47
646.27	58719.36
646.42	58731.06
646.57	58611.70
646.71	58738.08
646.86	58719.36
647.00	58747.45
647.15	58492.33
647.30	58581.27
647.44	58508.71
647.59	58670.21
647.74	58506.37
647.88	58688.93
648.03	58824.68
648.17	58717.02
648.32	58417.43
648.47	58553.18
648.61	58632.76
648.76	58583.61
648.90	58695.95
649.05	58567.23
649.20	58342.53
649.34	58436.16
649.49	58511.05
649.63	58667.87
649.78	58798.94
649.92	58337.85
650.07	58567.23
650.21	58145.93
650.36	58321.47
650.51	58141.25
650.65	58501.69
650.80	58557.86
650.94	58094.44
651.09	58028.90
651.23	57921.24
651.38	58286.36
651.52	58269.98
651.67	58127.20
651.81	58190.40
651.96	57963.37
652.10	58122.52
652.25	58033.58
652.39	58078.05
652.54	57907.19
652.68	57946.98
652.83	57865.06
652.97	57832.30
653.12	57925.92
653.26	58155.29
653.41	58192.74
653.55	57874.43
653.70	57750.38
653.84	58014.86
653.99	58117.84
654.13	57778.46
654.27	57937.62
654.42	57778.46
654.56	57876.77
654.71	57684.84
654.85	58021.88
655.00	57951.66
655.14	57888.47
655.29	57701.23
655.43	57769.10
655.57	57738.68
655.72	57762.08
655.86	57719.95
656.01	57652.08
656.15	57528.03
656.30	57755.06
656.44	57829.96
656.58	57799.53
656.73	57733.99
656.87	57565.48
657.01	57434.41
657.16	57743.36
657.30	57588.88
657.45	57502.28
657.59	57448.45
657.73	57254.18
657.88	57251.84
658.02	57415.68
658.16	57268.23
658.31	57055.24
658.45	57296.31
658.60	57359.51
658.74	57242.48
658.88	57270.57
659.03	56992.04
659.17	56992.04
659.31	56872.68
659.46	57298.65
659.60	57071.62
659.74	57017.79
659.89	57167.58
660.03	57153.54
660.17	57041.20
660.32	56809.48
660.46	56968.64
660.60	56877.36
660.74	57090.35
660.89	56896.08
661.03	56617.56
661.17	56636.28
661.32	56547.34
661.46	56507.55
661.60	56856.29
661.74	56655.01
661.89	56435.00
662.03	56467.76
662.17	56690.12
662.31	56612.88
662.46	56781.40
662.60	56392.87
662.74	56289.88
662.88	56240.73
663.03	56095.62
663.17	56296.91
663.31	56229.03
663.45	56222.01
663.60	55966.89
663.74	56006.68
663.88	56112.00
664.02	56069.87
664.17	56289.88
664.31	55781.99
664.45	55716.45
664.59	56044.13
664.73	55870.93
664.88	55800.71
665.02	55327.92
665.16	55643.90
665.30	55561.98
665.44	55662.62
665.59	55643.90
665.73	55494.10
665.87	55468.36
666.01	55461.33
666.15	55517.51
666.29	55337.29
666.44	55660.28
666.58	55257.71
666.72	55304.52
666.86	55159.41
667.00	55126.64
667.14	54801.30
667.28	54986.21
667.43	54887.90
667.57	54965.14
667.71	54920.67
667.85	54681.94
667.99	54780.24
668.13	54588.31
668.27	54576.61
668.41	54663.21
668.56	54604.70
668.70	54457.24
668.84	54363.62
668.98	54394.05
669.12	54461.93
669.26	54384.69
669.40	54309.79
669.54	54265.32
669.68	54265.32
669.82	54131.91
669.96	54291.07
670.10	54284.04
670.25	54550.87
670.39	53951.69
670.53	54103.82
670.67	53965.73
670.81	54232.55
670.95	54012.54
671.09	53586.57
671.23	53457.84
671.37	53841.68
671.51	53638.06
671.65	53729.34
671.79	53764.45
671.93	53408.68
672.07	53439.11
672.21	53588.91
672.35	53099.73
672.49	53270.59
672.63	52598.86
672.77	52931.22
672.91	53038.88
673.05	52685.46
673.19	52619.92
673.33	52687.80
673.47	52477.15
673.61	52685.46
673.75	52612.90
673.89	52367.15
674.03	52425.66
674.17	52203.31
674.31	52009.04
674.45	51910.74
674.59	52004.36
674.73	51971.60
674.87	52093.30
675.01	51814.78
675.15	51655.62
675.29	51758.61
675.43	51498.81
675.56	51267.09
675.70	51437.95
675.84	51152.41
675.98	49947.03
676.12	51285.82
676.26	51339.65
676.40	50960.48
676.54	51042.40
676.68	50965.17
676.82	50220.87
676.96	50770.90
677.10	50265.34
677.23	49993.84
677.37	50216.19
677.51	49928.31
677.65	49982.14
677.79	49198.06
677.93	49228.49
678.07	49701.28
678.21	48769.74
678.34	49207.42
678.48	49015.50
678.62	48701.87
678.76	48856.34
678.90	48533.35
679.04	48516.96
679.18	48999.12
679.31	48266.53
679.45	48385.89
679.59	48360.15
679.73	48390.58
679.87	47948.21
680.00	47515.22
680.14	47702.46
680.28	47320.95
680.42	47129.03
680.56	46880.93
680.70	46693.69
680.83	47374.78
680.97	47077.54
681.11	47786.72
681.25	46831.78
681.39	46691.35
681.52	46719.43
681.66	46351.97
681.80	46103.87
681.94	46061.74
682.07	46019.61
682.21	45614.70
682.35	45595.98
682.49	45778.54
682.62	45694.28
682.76	45684.92
682.90	45165.32
683.04	45289.37
683.17	44807.22
683.31	45074.04
683.45	44767.43
683.59	44430.39
683.72	44488.90
683.86	43997.39
684.00	44524.01
684.13	44821.26
684.27	44184.63
684.41	43901.43
684.55	43548.01
684.68	43639.29
684.82	43674.40
684.96	43269.48
685.09	43159.48
685.23	43005.00
685.37	43110.33
685.50	42616.47
685.64	43063.52
685.78	43337.36
685.91	42541.58
686.05	42031.34
686.19	41933.04
686.32	41383.01
686.46	40959.38
686.60	41120.87
686.73	41158.32
686.87	41151.30
687.01	41104.49
687.14	41221.52
687.28	40409.35
687.42	40559.14
687.55	40451.48
687.69	40568.51
687.82	40383.60
687.96	39814.85
688.10	39777.40
688.23	39903.79
688.37	39732.93
688.50	39384.19
688.64	39470.79
688.78	39576.12
688.91	38623.52
689.05	39089.29
689.18	38749.91
689.32	38019.66
689.46	37813.70
689.59	37762.20
689.73	38232.65
689.86	37703.69
690.00	37731.78
690.13	37860.51
690.27	37605.39
690.41	37560.92
690.54	37359.63
690.68	36591.94
690.81	37043.66
690.95	37130.26
691.08	36371.92
691.22	36582.57
691.35	36128.51
691.49	36378.95
691.62	36102.76
691.76	35758.70
691.89	35529.33
692.03	35676.79
692.16	35819.56
692.30	35068.25
692.43	35796.15
692.57	34717.17
692.70	35012.07
692.84	34529.92
692.97	34916.11
693.11	34614.18
693.24	34230.33
693.38	34094.58
693.51	34066.50
693.65	33944.79
693.78	33736.48
693.92	33701.37
694.05	33582.01
694.19	33146.67
694.32	33067.09
694.45	33158.37
694.59	33064.75
694.72	32566.21
694.86	33006.23
694.99	32378.97
695.13	32313.44
695.26	32100.45
695.39	32201.09
695.53	32077.04
695.66	31702.56
695.80	31428.71
695.93	31384.24
696.07	31087.00
696.20	30728.89
696.33	30799.11
696.47	31009.76
696.60	30892.73
696.73	30733.57
696.87	30394.20
697.00	30548.67
697.14	30429.30
697.27	29879.28
697.40	30235.04
697.54	29706.08
697.67	30054.82
697.80	29261.38
697.94	29357.34
698.07	29200.52
698.21	29127.97
698.34	29078.82
698.47	28950.09
698.61	28800.29
698.74	28631.77
698.87	28278.35
699.01	28051.32
699.14	28327.50
699.27	28130.90
699.40	28512.41
699.54	28423.47
699.67	28091.11
699.80	27140.85
699.94	27522.36
700.07	27475.55
700.20	26810.84
700.34	27154.90
700.47	26768.71
700.60	26803.82
700.73	26852.97
700.87	26092.29
701.00	25820.79
701.13	25942.50
701.26	25919.09
701.40	26209.32
701.53	26316.98
701.66	26277.19
701.79	25596.10
701.93	25504.82
702.06	25338.64
702.19	25216.93
702.32	25067.14
702.46	25172.46
702.59	24379.02
702.72	24460.94
702.85	25008.62
702.99	24580.31
703.12	24226.89
703.25	23826.65
703.38	23824.31
703.51	23789.20
703.65	23733.03
703.78	23426.42
703.91	23307.05
704.04	23452.17
704.17	23412.38
704.31	23012.15
704.44	23030.87
704.57	22934.91
704.70	22494.89
704.83	22824.90
704.96	22824.90
705.10	22555.74
705.23	22221.05
>>>>>End Processed Spectral Data<<<<<
