SpectraSuite Data File
++++++++++++++++++++++++++++++++++++
Date: Fri Oct 25 11:25:54 EDT 2013
User: price-jones
Dark Spectrum Present: No
Reference Spectrum Present: No
Number of Sampled Component Spectra: 1
Spectrometers: USB2+H05261
Integration Time (usec): 100000 (USB2+H05261)
Spectra Averaged: 1 (USB2+H05261)
Boxcar Smoothing: 0 (USB2+H05261)
Correct for Electrical Dark: No (USB2+H05261)
Strobe/Lamp Enabled: No (USB2+H05261)
Correct for Detector Non-linearity: No (USB2+H05261)
Correct for Stray Light: No (USB2+H05261)
Number of Pixels in Processed Spectrum: 2048
>>>>>Begin Processed Spectral Data<<<<<
365.73	243.42
365.92	243.42
366.12	243.42
366.32	110.01
366.52	65.54
366.72	170.86
366.91	163.84
367.11	117.03
367.31	74.90
367.51	154.48
367.70	154.48
367.90	133.41
368.10	128.73
368.30	107.66
368.49	135.75
368.69	212.99
368.89	205.97
369.09	177.88
369.28	229.37
369.48	163.84
369.68	149.79
369.87	198.95
370.07	175.54
370.27	238.73
370.47	264.48
370.66	587.47
370.86	596.84
371.06	664.71
371.25	688.12
371.45	573.43
371.65	765.36
371.84	608.54
372.04	627.26
372.24	716.20
372.44	695.14
372.63	805.14
372.83	746.63
373.03	730.25
373.22	746.63
373.42	788.76
373.62	739.61
373.81	751.31
374.01	816.85
374.21	840.25
374.40	760.67
374.60	833.23
374.79	816.85
374.99	840.25
375.19	779.40
375.38	849.61
375.58	887.06
375.78	896.43
375.97	866.00
376.17	828.55
376.37	861.32
376.56	889.40
376.76	807.48
376.95	917.49
377.15	870.68
377.35	849.61
377.54	917.49
377.74	844.93
377.93	887.06
378.13	891.74
378.33	891.74
378.52	889.40
378.72	947.92
378.91	985.37
379.11	959.62
379.31	889.40
379.50	889.40
379.70	1053.24
379.89	1048.56
380.09	987.71
380.28	945.58
380.48	994.73
380.68	980.68
380.87	926.85
381.07	1018.13
381.26	1036.86
381.46	1032.18
381.65	1011.11
381.85	1074.31
382.04	1011.11
382.24	1069.62
382.43	1050.90
382.63	940.90
382.83	1008.77
383.02	1158.57
383.22	1167.93
383.41	1078.99
383.61	1088.35
383.80	1163.25
384.00	1064.94
384.19	1071.97
384.39	1186.65
384.58	1196.01
384.78	1163.25
384.97	1153.88
385.17	1153.88
385.36	1123.46
385.56	1261.55
385.75	1160.91
385.95	1146.86
386.14	1214.74
386.34	1139.84
386.53	1245.16
386.72	1137.50
386.92	1324.74
387.11	1186.65
387.31	1270.91
387.50	1156.22
387.70	1263.89
387.89	1296.66
388.09	1261.55
388.28	1259.21
388.48	1261.55
388.67	1289.64
388.86	1338.79
389.06	1350.49
389.25	1313.04
389.45	1362.19
389.64	1355.17
389.84	1345.81
390.03	1406.66
390.22	1378.58
390.42	1338.79
390.61	1366.87
390.81	1437.09
391.00	1409.00
391.19	1394.96
391.39	1418.36
391.58	1411.34
391.78	1497.94
391.97	1420.71
392.16	1481.56
392.36	1556.46
392.55	1493.26
392.75	1554.12
392.94	1458.15
393.13	1540.07
393.33	1528.37
393.52	1476.88
393.71	1596.25
393.91	1542.41
394.10	1582.20
394.29	1575.18
394.49	1542.41
394.68	1558.80
394.88	1692.21
395.07	1720.29
395.26	1703.91
395.46	1778.81
395.65	1809.23
395.84	1729.66
396.04	1710.93
396.23	1802.21
396.42	1724.97
396.62	1818.60
396.81	1788.17
397.00	1685.19
397.19	1912.22
397.39	1802.21
397.58	1837.32
397.77	1870.09
397.97	1909.88
398.16	1783.49
398.35	1956.69
398.55	1856.04
398.74	1973.07
398.93	1966.05
399.12	1968.39
399.32	1851.36
399.51	1996.48
399.70	1893.49
399.90	1926.26
400.09	2019.88
400.28	2019.88
400.47	1984.77
400.67	2033.93
400.86	2108.82
401.05	2033.93
401.24	2108.82
401.44	2129.89
401.63	2172.02
401.82	2150.95
402.01	2019.88
402.21	2090.10
402.40	2195.42
402.59	2146.27
402.78	2092.44
402.97	2377.98
403.17	2260.96
403.36	2237.55
403.55	2232.87
403.74	2392.03
403.93	2333.51
404.13	2403.73
404.32	2338.20
404.51	2363.94
404.70	2497.35
404.89	2392.03
405.09	2462.24
405.28	2525.44
405.47	2487.99
405.66	2527.78
405.85	2532.46
406.05	2572.25
406.24	2654.17
406.43	2544.16
406.62	2644.81
406.81	2729.06
407.00	2595.65
407.20	2644.81
407.39	2651.83
407.58	2668.21
407.77	2693.96
407.96	2808.64
408.15	2719.70
408.34	2677.57
408.54	2911.63
408.73	2839.07
408.92	2825.03
409.11	2899.92
409.30	2857.79
409.49	2787.58
409.68	2897.58
409.87	3000.57
410.07	2946.73
410.26	2960.78
410.45	2902.26
410.64	2942.05
410.83	3012.27
411.02	3063.76
411.21	3183.13
411.40	3225.26
411.59	3166.74
411.78	3096.53
411.98	3258.03
412.17	3335.26
412.36	3220.58
412.55	3288.45
412.74	3559.95
412.93	3398.46
413.12	3435.91
413.31	3641.87
413.50	3391.44
413.69	3447.61
413.88	3545.91
414.07	3534.21
414.26	3625.49
414.45	3641.87
414.64	3805.71
414.83	3691.02
415.02	3756.56
415.22	3735.50
415.41	3815.07
415.60	3871.25
415.79	3901.67
415.98	4051.47
416.17	3983.59
416.36	4053.81
416.55	3784.65
416.74	3943.80
416.93	4088.92
417.12	4065.51
417.31	4159.13
417.50	4177.86
417.69	4198.92
417.88	4156.79
418.07	4414.25
418.26	4416.59
418.45	4325.31
418.64	4486.81
418.83	4458.72
419.02	4447.02
419.21	4643.62
419.39	4454.04
419.58	4524.26
419.77	4428.29
419.96	4695.11
420.15	4468.08
420.34	4615.54
420.53	4538.30
420.72	4645.96
420.91	4603.83
421.10	4725.54
421.29	4795.76
421.48	4758.31
421.67	4720.86
421.86	4667.03
422.05	4791.08
422.24	4873.00
422.43	4924.49
422.61	5036.83
422.80	5062.58
422.99	4975.98
423.18	4931.51
423.37	4889.38
423.56	4954.91
423.75	4931.51
423.94	4950.23
424.13	4461.06
424.32	4636.60
424.50	5153.86
424.69	5153.86
424.88	5121.09
425.07	4896.40
425.26	4889.38
425.45	4926.83
425.64	4968.96
425.83	5083.64
426.01	4961.94
426.20	4990.02
426.39	4938.53
426.58	4945.55
426.77	5020.45
426.96	5032.15
427.15	5111.73
427.33	5203.01
427.52	5277.91
427.71	5308.34
427.90	5163.22
428.09	5289.61
428.28	5411.32
428.46	5371.53
428.65	5327.06
428.84	5481.53
429.03	5472.17
429.22	5303.65
429.40	5413.66
429.59	5481.53
429.78	5114.07
429.97	5153.86
430.16	5378.55
430.34	5462.81
430.53	5701.54
430.72	5554.09
430.91	5661.76
431.10	5682.82
431.28	5874.74
431.47	5610.26
431.66	5996.45
431.85	5631.33
432.03	5916.87
432.22	5961.34
432.41	5907.51
432.60	5884.11
432.79	5977.73
432.97	6108.80
433.16	6076.03
433.35	5928.58
433.54	6033.90
433.72	6221.14
433.91	6045.60
434.10	6029.22
434.28	5973.05
434.47	6104.12
434.66	6228.17
434.85	6366.26
435.03	6200.08
435.22	6389.66
435.41	6424.77
435.59	6389.66
435.78	6457.54
435.97	6445.84
436.16	6324.13
436.34	6384.98
436.53	6693.93
436.72	6703.29
436.90	6396.68
437.09	6546.48
437.28	6490.31
437.46	6626.06
437.65	6497.33
437.84	6750.10
438.02	6581.59
438.21	6815.64
438.40	6773.51
438.58	6953.73
438.77	7293.11
438.96	6923.30
439.14	6953.73
439.33	7190.13
439.52	7211.19
439.70	7014.59
439.89	7295.45
440.08	7360.98
440.26	7379.71
440.45	7302.47
440.63	7527.16
440.82	7658.23
441.01	7573.97
441.19	7747.17
441.38	7702.70
441.57	7719.09
441.75	7793.98
441.94	7981.23
442.12	7892.29
442.31	7899.31
442.50	8042.08
442.68	7939.10
442.87	8093.57
443.05	8191.88
443.24	8147.40
443.43	8006.97
443.61	8159.11
443.80	8547.64
443.98	8180.17
444.17	7854.84
444.35	8351.03
444.54	8439.97
444.73	8198.90
444.91	8273.79
445.10	8545.30
445.28	8318.26
445.47	8290.18
445.65	8292.52
445.84	8388.48
446.02	8475.08
446.21	8468.06
446.39	8341.67
446.58	8505.51
446.77	8465.72
446.95	8238.69
447.14	8444.65
447.32	8601.47
447.51	8500.83
447.69	8374.44
447.88	8564.02
448.06	8374.44
448.25	8517.21
448.43	8444.65
448.62	8517.21
448.80	8500.83
448.99	8795.73
449.17	8683.39
449.36	8777.01
449.54	8730.20
449.73	8816.80
449.91	9163.20
450.10	8992.34
450.28	9008.72
450.46	9263.84
450.65	9046.17
450.83	9191.28
451.02	9104.68
451.20	9261.50
451.39	9076.60
451.57	9373.85
451.76	9200.65
451.94	9231.07
452.13	9380.87
452.31	9334.06
452.49	9198.31
452.68	9413.63
452.86	9263.84
453.05	9619.60
453.23	9589.17
453.42	9458.10
453.60	9350.44
453.78	9701.52
453.97	9500.23
454.15	9418.32
454.34	9359.80
454.52	9678.12
454.70	9467.47
454.89	9465.13
455.07	9825.57
455.26	9975.36
455.44	9900.47
455.62	9966.00
455.81	9720.24
455.99	10019.83
456.17	10045.58
456.36	9935.57
456.54	9881.74
456.73	10359.21
456.91	10263.25
457.09	10377.94
457.28	10562.84
457.46	10403.68
457.64	10555.82
457.83	10686.89
458.01	10338.15
458.19	10752.42
458.38	10333.47
458.56	10604.97
458.74	10574.54
458.93	10693.91
459.11	10792.21
459.29	10792.21
459.48	10654.12
459.66	10672.84
459.84	11157.33
460.03	11122.23
460.21	10803.91
460.39	10906.90
460.57	11094.14
460.76	10960.73
460.94	11349.26
461.12	11262.66
461.31	11150.31
461.49	11052.01
461.67	11042.65
461.85	11424.15
462.04	11304.79
462.22	11716.72
462.40	11552.88
462.59	11426.50
462.77	11531.82
462.95	11550.54
463.13	11587.99
463.32	11747.15
463.50	11854.81
463.68	11782.26
463.86	11676.93
464.05	11552.88
464.23	11496.71
464.41	11791.62
464.59	11613.74
464.78	12112.27
464.96	12105.25
465.14	11768.21
465.32	12072.48
465.50	11983.54
465.69	12135.68
465.87	12156.74
466.05	12102.91
466.23	12224.62
466.41	12156.74
466.60	12592.08
466.78	12226.96
466.96	12241.00
467.14	12294.83
467.32	12306.54
467.51	12355.69
467.69	12159.08
467.87	12273.77
468.05	12648.26
468.23	12402.50
468.41	12388.46
468.60	12561.66
468.78	12566.34
468.96	12575.70
469.14	12833.16
469.32	13107.00
469.50	12589.74
469.69	12926.78
469.87	12903.37
470.05	12879.97
470.23	13057.85
470.41	13046.15
470.59	13310.63
470.77	13345.73
470.95	13245.09
471.14	13650.00
471.32	13273.18
471.50	13544.68
471.68	13509.57
471.86	13577.45
472.04	13514.25
472.22	13984.70
472.40	13575.11
472.58	13949.59
472.77	14031.51
472.95	14162.58
473.13	14661.12
473.31	14185.99
473.49	14127.47
473.67	14204.71
473.85	14118.11
474.03	14614.30
474.21	14679.84
474.39	14839.00
474.57	14443.45
474.75	15087.09
474.93	15260.29
475.12	15002.83
475.30	15166.67
475.48	15239.23
475.66	15101.14
475.84	14991.13
476.02	15330.51
476.20	15604.35
476.38	15805.64
476.56	15941.39
476.74	15889.90
476.92	15740.10
477.10	15894.58
477.28	16142.67
477.46	16491.41
477.64	16166.08
477.82	16334.60
478.00	16952.50
478.18	16732.49
478.36	16826.11
478.54	17036.76
478.72	17128.04
478.90	17216.98
479.08	17575.08
479.26	17741.26
479.44	17834.88
479.62	17811.48
479.80	18122.77
479.98	18160.22
480.16	18750.03
480.34	18129.79
480.52	18789.82
480.70	18672.79
480.88	18551.09
481.06	18590.88
481.24	18665.77
481.41	19110.47
481.59	19377.30
481.77	19541.13
481.95	19564.54
482.13	19814.98
482.31	19501.34
482.49	19747.10
482.67	20039.67
482.85	20240.95
483.03	20643.52
483.21	20606.08
483.39	21186.53
483.57	20889.28
483.74	21158.44
483.92	21575.06
484.10	21245.04
484.28	21631.23
484.46	21710.81
484.64	22438.72
484.82	22003.38
485.00	22649.36
485.18	22614.26
485.35	22466.80
485.53	22766.39
485.71	23042.57
485.89	23630.05
486.07	22981.72
486.25	23166.62
486.43	23503.66
486.61	23840.70
486.78	24084.11
486.96	23936.66
487.14	24613.07
487.32	24416.47
487.50	24645.84
487.68	25088.20
487.85	25289.49
488.03	25266.08
488.21	25879.30
488.39	25853.56
488.57	26239.75
488.75	26450.39
488.92	26288.90
489.10	26787.43
489.28	26511.25
489.46	26958.29
489.64	26876.37
489.81	27887.48
489.99	27740.03
490.17	27733.01
490.35	28039.62
490.53	28156.64
490.70	28074.73
490.88	28280.69
491.06	28603.69
491.24	29010.94
491.41	28959.45
491.59	28943.06
491.77	29006.26
491.95	29212.23
492.13	29876.94
492.30	29912.05
492.48	30246.74
492.66	29996.31
492.84	30356.75
493.01	30389.52
493.19	30852.94
493.37	31070.61
493.54	31222.75
493.72	31519.99
493.90	31730.64
494.08	31625.32
494.25	31828.95
494.43	32058.32
494.61	32273.65
494.79	32617.71
494.96	32624.73
495.14	32760.48
495.32	32954.74
495.49	33109.22
495.67	33347.95
495.85	33413.49
496.02	33467.32
496.20	33991.60
496.38	34295.87
496.55	34117.99
496.73	34958.24
496.91	34511.20
497.09	34810.79
497.26	34965.26
497.44	34831.85
497.62	35377.20
497.79	35971.69
497.97	35335.07
498.14	35529.33
498.32	36107.44
498.50	35931.90
498.67	36566.19
498.85	36126.17
499.03	36484.27
499.20	36715.98
499.38	36643.43
499.56	36945.36
499.73	37193.45
499.91	37317.50
500.08	37663.90
500.26	37406.44
500.44	37853.48
500.61	37713.05
500.79	37593.68
500.97	38038.39
501.14	38457.34
501.32	38380.10
501.49	38464.36
501.67	38829.49
501.84	38986.30
502.02	38972.26
502.20	39122.05
502.37	38913.75
502.55	38958.22
502.72	39391.22
502.90	39868.69
503.07	39786.77
503.25	39779.74
503.43	39414.62
503.60	40151.89
503.78	40350.84
503.95	40339.13
504.13	40636.38
504.30	40250.19
504.48	40297.00
504.65	40474.88
504.83	41053.00
505.01	40964.06
505.18	41165.34
505.36	41106.83
505.53	41553.87
505.71	41188.75
505.88	41731.75
506.06	41153.64
506.23	42401.14
506.41	41897.93
506.58	41804.31
506.76	41911.97
506.93	42351.99
507.11	42211.56
507.28	42511.15
507.46	42777.97
507.63	42534.56
507.81	42880.95
507.98	42693.71
508.16	42731.16
508.33	43255.44
508.50	43147.78
508.68	43332.68
508.85	43433.32
509.03	44107.40
509.20	43735.25
509.38	43737.59
509.55	44231.44
509.73	44385.92
509.90	44421.03
510.08	44449.11
510.25	44526.35
510.42	44353.15
510.60	44669.12
510.77	45235.53
510.95	45317.45
511.12	45130.21
511.30	45296.39
511.47	45649.81
511.64	45514.06
511.82	45722.37
511.99	45914.29
512.17	46057.06
512.34	45549.17
512.51	46749.86
512.69	46429.21
512.86	46291.12
513.04	46628.15
513.21	46579.00
513.38	46469.00
513.56	46625.81
513.73	46974.55
513.90	47016.68
514.08	46953.49
514.25	47309.25
514.43	47538.62
514.60	47363.08
514.77	46932.42
514.95	47562.03
515.12	47452.02
515.29	47353.72
515.47	47503.51
515.64	48149.50
515.81	47573.73
515.99	48083.97
516.16	48392.92
516.33	48062.90
516.51	48755.70
516.68	48484.20
516.85	48399.94
517.03	48846.98
517.20	49116.14
517.37	49181.68
517.54	48629.31
517.72	48973.37
517.89	48648.03
518.06	49034.22
518.24	49284.66
518.41	49521.05
518.58	49254.23
518.75	49146.57
518.93	49404.03
519.10	49228.49
519.27	49481.27
519.45	49748.09
519.62	50014.91
519.79	49930.65
519.96	50012.57
520.14	50206.83
520.31	50337.90
520.48	50347.26
520.65	50370.67
520.83	50478.33
521.00	50384.71
521.17	50497.06
521.34	50754.52
521.52	51072.83
521.69	50960.48
521.86	50904.31
522.03	50883.25
522.20	51220.28
522.38	51241.35
522.55	51318.59
522.72	51231.99
522.89	51323.27
523.07	51737.54
523.24	51601.79
523.41	51187.52
523.58	51316.25
523.75	51615.83
523.92	51760.95
524.10	52116.71
524.27	51903.72
524.44	51945.85
524.61	51995.00
524.78	52224.37
524.96	52149.48
525.13	52509.92
525.30	52514.60
525.47	52575.45
525.64	52650.35
525.81	52505.24
525.98	52610.56
526.16	52545.03
526.33	52589.50
526.50	52893.77
526.67	52713.55
526.84	53052.92
527.01	52804.83
527.18	53113.78
527.36	53073.99
527.53	52971.00
527.70	53230.80
527.87	53233.14
528.04	53123.14
528.21	53219.10
528.38	53326.77
528.55	53694.23
528.72	53324.43
528.89	53258.89
529.07	53343.15
529.24	53326.77
529.41	53675.51
529.58	53722.32
529.75	53633.38
529.92	53862.75
530.09	53656.78
530.26	54024.25
530.43	54103.82
530.60	53748.06
530.77	53930.62
530.94	53975.09
531.11	54239.57
531.28	54291.07
531.46	54354.26
531.63	54466.61
531.80	54464.27
531.97	54637.47
532.14	54150.63
532.31	54291.07
532.48	54546.18
532.65	54508.74
532.82	54482.99
532.99	54894.92
533.16	54410.43
533.33	54724.07
533.50	54962.80
533.67	54677.25
533.84	54756.83
534.01	54925.35
534.18	54665.55
534.35	55112.59
534.52	55065.78
534.69	55033.02
534.86	55105.57
535.03	54981.52
535.20	55238.98
535.37	55168.77
535.54	55262.39
535.71	55058.76
535.88	55168.77
536.05	55473.04
536.22	55440.27
536.38	55253.03
536.55	55604.11
536.72	55737.52
536.89	55454.31
537.06	55496.44
537.23	55849.86
537.40	55664.96
537.57	55718.79
537.74	55576.02
537.91	55803.05
538.08	55934.12
538.25	55721.13
538.42	55873.27
538.59	56163.50
538.75	55751.56
538.92	56292.22
539.09	55969.23
539.26	56210.31
539.43	55920.08
539.60	56289.88
539.77	56376.48
539.94	56320.31
540.11	56526.28
540.28	56170.52
540.44	56296.91
540.61	56446.70
540.78	56184.56
540.95	56655.01
541.12	56144.77
541.29	56371.80
541.46	56416.27
541.62	56556.70
541.79	56638.62
541.96	56362.44
542.13	56605.86
542.30	56697.14
542.47	56669.05
542.63	56685.43
542.80	56863.32
542.97	57043.54
543.14	57286.95
543.31	57076.30
543.48	57209.71
543.64	57293.97
543.81	57322.06
543.98	57155.88
544.15	57219.08
544.32	57457.81
544.48	57715.27
544.65	57102.05
544.82	57296.31
544.99	57331.42
545.16	57361.85
545.32	57450.79
545.49	57542.07
545.66	57609.95
545.83	57549.09
546.00	57642.71
546.16	57684.84
546.33	57460.15
546.50	57382.91
546.67	57616.97
546.83	57619.31
547.00	57670.80
547.17	57549.09
547.34	57787.83
547.50	57766.76
547.67	57996.13
547.84	58031.24
548.00	58124.86
548.17	58368.28
548.34	58035.92
548.51	58227.85
548.67	58330.83
548.84	58085.07
549.01	57954.00
549.18	58300.40
549.34	58120.18
549.51	58272.32
549.68	58356.58
549.84	58546.16
550.01	58590.63
550.18	58127.20
550.34	58403.39
550.51	58436.16
550.68	58298.06
550.84	58183.38
551.01	58768.51
551.18	58361.26
551.34	58450.20
551.51	58604.67
551.68	58649.14
551.84	58543.82
552.01	58433.81
552.18	58616.38
552.34	58543.82
552.51	58637.44
552.68	58438.50
552.84	58555.52
553.01	58763.83
553.18	58820.00
553.34	58965.12
553.51	58712.34
553.67	58838.73
553.84	59070.44
554.01	58930.01
554.17	59075.12
554.34	58969.80
554.51	59143.00
554.67	58979.16
554.84	58890.22
555.00	58995.54
555.17	59040.01
555.33	59103.21
555.50	59011.93
555.67	58930.01
555.83	59061.08
556.00	59210.87
556.16	59451.95
556.33	59325.56
556.50	59199.17
556.66	59302.15
556.83	59037.67
556.99	59365.35
557.16	59477.69
557.32	59524.50
557.49	59400.46
557.65	59374.71
557.82	59463.65
557.98	59388.75
558.15	59381.73
558.32	59552.59
558.48	59302.15
558.65	59494.08
558.81	59538.55
558.98	59477.69
559.14	59604.08
559.31	59650.89
559.47	59650.89
559.64	60058.15
559.80	59774.94
559.97	59803.03
560.13	59639.19
560.30	59686.00
560.46	59999.63
560.63	59704.73
560.79	59587.70
560.96	59711.75
561.12	59655.57
561.29	59877.93
561.45	59999.63
561.61	59828.77
561.78	59746.86
561.94	59693.02
562.11	59950.48
562.27	59697.70
562.44	60009.00
562.60	59894.31
562.77	59948.14
562.93	59730.47
563.10	60030.06
563.26	59910.69
563.42	59980.91
563.59	60060.49
563.75	59882.61
563.92	59910.69
564.08	59957.50
564.24	60219.64
564.41	60051.12
564.57	60044.10
564.74	59987.93
564.90	60088.57
565.07	60016.02
565.23	59931.76
565.39	60048.78
565.56	60329.65
565.72	59936.44
565.88	60119.00
566.05	60163.47
566.21	60236.03
566.38	60238.37
566.54	60259.43
566.70	60437.31
566.87	60257.09
567.03	60016.02
567.19	60280.50
567.36	60364.76
567.52	60336.67
567.68	60484.12
567.85	60322.63
568.01	60324.97
568.17	60339.01
568.34	60467.74
568.50	60100.28
568.66	60142.41
568.83	60198.58
568.99	60287.52
569.15	60388.16
569.32	60355.39
569.48	60392.84
569.64	60446.68
569.81	60467.74
569.97	60156.45
570.13	60465.40
570.30	60376.46
570.46	60446.68
570.62	60350.71
570.78	60371.78
570.95	60320.29
571.11	60523.91
571.27	60444.33
571.43	60500.51
571.60	60584.77
571.76	60451.36
571.92	60601.15
572.09	60512.21
572.25	60420.93
572.41	60460.72
572.57	60343.69
572.74	60638.60
572.90	60418.59
573.06	60584.77
573.22	60451.36
573.38	60563.70
573.55	60507.53
573.71	60739.24
573.87	60474.76
574.03	60556.68
574.20	60540.30
574.36	60605.83
574.52	60816.48
574.68	60596.47
574.84	60849.25
575.01	60811.80
575.17	60666.69
575.33	60484.12
575.49	60526.25
575.65	60636.26
575.82	60743.92
575.98	60580.09
576.14	60748.60
576.30	60790.73
576.46	60603.49
576.62	60797.76
576.79	60774.35
576.95	60451.36
577.11	60926.49
577.27	60711.16
577.43	60619.88
577.59	60753.29
577.75	60872.65
577.92	60701.79
578.08	60699.45
578.24	60694.77
578.40	60968.61
578.56	60814.14
578.72	60760.31
578.88	60917.12
579.04	60837.54
579.21	60764.99
579.37	60832.86
579.53	61038.83
579.69	60662.00
579.85	60615.19
580.01	60769.67
580.17	60678.39
580.33	60650.30
580.49	60924.14
580.65	60851.59
580.82	60825.84
580.98	60624.56
581.14	60940.53
581.30	61043.51
581.46	60823.50
581.62	60774.35
581.78	60741.58
581.94	60982.66
582.10	60816.48
582.26	60783.71
582.42	60919.46
582.58	60949.89
582.74	60905.42
582.90	60793.07
583.06	60865.63
583.22	60863.29
583.38	61036.49
583.54	60739.24
583.70	60970.96
583.86	60956.91
584.02	60821.16
584.18	61078.62
584.34	61010.74
584.50	61027.13
584.66	60793.07
584.82	60814.14
584.98	61102.03
585.14	61078.62
585.30	60996.70
585.46	61008.40
585.62	61029.47
585.78	61179.26
585.94	60851.59
586.10	60919.46
586.26	60921.80
586.42	60968.61
586.58	61181.60
586.74	61134.79
586.90	61052.87
587.06	60783.71
587.22	60999.04
587.38	61160.54
587.54	61097.34
587.70	61272.88
587.86	61123.09
588.02	60999.04
588.18	61097.34
588.34	60903.08
588.49	60949.89
588.65	61109.05
588.81	61256.50
588.97	61315.01
589.13	61092.66
589.29	61293.95
589.45	61460.13
589.61	61116.07
589.77	61570.13
589.93	61223.73
590.08	61228.41
590.24	61254.16
590.40	61300.97
590.56	61249.48
590.72	61478.85
590.88	61399.27
591.04	61319.70
591.20	61403.95
591.35	61385.23
591.51	61556.09
591.67	61336.08
591.83	61499.92
591.99	61298.63
592.15	61132.45
592.31	61326.72
592.46	61310.33
592.62	61504.60
592.78	61293.95
592.94	61197.99
593.10	61408.64
593.26	61277.57
593.41	61345.44
593.57	61530.34
593.73	61485.87
593.89	61602.90
594.05	61462.47
594.20	61427.36
594.36	61645.03
594.52	61511.62
594.68	61235.44
594.84	61350.12
594.99	61420.34
595.15	61357.14
595.31	61387.57
595.47	61305.65
595.62	61389.91
595.78	61277.57
595.94	61593.54
596.10	61778.44
596.25	61670.78
596.41	61504.60
596.57	61558.43
596.73	61649.71
596.88	61394.59
597.04	61663.75
597.20	61659.07
597.36	61771.42
597.51	61815.89
597.67	61607.58
597.83	61453.11
597.99	61516.30
598.14	61544.39
598.30	61528.00
598.46	61455.45
598.61	61645.03
598.77	61502.26
598.93	61471.83
599.09	61586.52
599.24	61918.87
599.40	61640.35
599.56	61530.34
599.71	61710.56
599.87	61780.78
600.03	61829.93
600.18	61780.78
600.34	61612.26
600.50	61712.91
600.65	61551.41
600.81	61785.46
600.97	61813.55
601.12	61841.63
601.28	61647.37
601.44	61532.68
601.59	61645.03
601.75	61645.03
601.91	61740.99
602.06	61762.06
602.22	61911.85
602.37	61656.73
602.53	61633.33
602.69	61752.69
602.84	61656.73
603.00	61605.24
603.16	61776.10
603.31	61755.03
603.47	61900.15
603.62	61883.76
603.78	61771.42
603.94	61890.79
604.09	61785.46
604.25	61680.14
604.40	61635.67
604.56	61755.03
604.71	61907.17
604.87	61668.44
605.03	61726.95
605.18	61675.46
605.34	61684.82
605.49	61560.77
605.65	61890.79
605.80	61965.68
605.96	61836.95
606.12	61778.44
606.27	61783.12
606.43	61565.45
606.58	61642.69
606.74	61673.12
606.89	61467.15
607.05	61797.16
607.20	61801.85
607.36	61394.59
607.51	61755.03
607.67	61434.38
607.82	61518.64
607.98	61549.07
608.13	61712.91
608.29	61762.06
608.44	61446.08
608.60	61537.36
608.75	61635.67
608.91	61382.89
609.06	61434.38
609.22	61609.92
609.37	61467.15
609.53	61719.93
609.68	61591.20
609.84	61418.00
609.99	61694.18
610.15	61752.69
610.30	61642.69
610.46	61586.52
610.61	61572.47
610.76	61558.43
610.92	61425.02
611.07	61607.58
611.23	61331.40
611.38	61630.99
611.54	61635.67
611.69	61745.67
611.84	61619.28
612.00	61663.75
612.15	61516.30
612.31	61375.87
612.46	61352.46
612.62	61427.36
612.77	61375.87
612.92	61502.26
613.08	61303.31
613.23	61511.62
613.39	61403.95
613.54	61209.69
613.69	61373.53
613.85	61254.16
614.00	61441.40
614.15	61537.36
614.31	61265.86
614.46	61495.24
614.62	61256.50
614.77	61352.46
614.92	61450.77
615.08	61322.04
615.23	61488.21
615.38	61371.19
615.54	61399.27
615.69	61443.74
615.84	61268.20
616.00	61413.32
616.15	61237.78
616.30	61434.38
616.46	61209.69
616.61	61195.65
616.76	61268.20
616.92	61240.12
617.07	61078.62
617.22	61106.71
617.37	61212.03
617.53	61352.46
617.68	61258.84
617.83	61389.91
617.99	61125.43
618.14	61155.86
618.29	61307.99
618.45	61029.47
618.60	61048.19
618.75	60893.72
618.90	61193.31
619.06	61202.67
619.21	61202.67
619.36	61268.20
619.51	61130.11
619.67	60954.57
619.82	60977.98
619.97	61172.24
620.12	61064.58
620.28	61125.43
620.43	61066.92
620.58	60982.66
620.73	60912.44
620.89	61043.51
621.04	61127.77
621.19	60835.20
621.34	60912.44
621.49	60860.95
621.65	60851.59
621.80	61064.58
621.95	60612.85
622.10	60701.79
622.25	61020.11
622.41	60926.49
622.56	60783.71
622.71	60980.32
622.86	60643.28
623.01	60633.92
623.16	60772.01
623.32	60877.33
623.47	60814.14
623.62	60825.84
623.77	60846.91
623.92	60987.34
624.07	60863.29
624.23	60919.46
624.38	60633.92
624.53	60774.35
624.68	60360.08
624.83	60767.33
624.98	60690.09
625.13	60383.48
625.29	60713.50
625.44	60495.83
625.59	60568.38
625.74	60640.94
625.89	60470.08
626.04	60446.68
626.19	60523.91
626.34	60493.49
626.49	60303.90
626.65	60231.35
626.80	60275.82
626.95	60053.47
627.10	60329.65
627.25	60172.83
627.40	60093.25
627.55	60315.61
627.70	60329.65
627.85	60093.25
628.00	60275.82
628.15	60334.33
628.30	60247.73
628.45	60250.07
628.60	60100.28
628.76	60353.05
628.91	60142.41
629.06	60292.20
629.21	60339.01
629.36	60177.51
629.51	60100.28
629.66	59938.78
629.81	60151.77
629.96	59924.74
630.11	59927.08
630.26	60236.03
630.41	60200.92
630.56	60030.06
630.71	60236.03
630.86	59934.10
631.01	60018.36
631.16	59891.97
631.31	59924.74
631.46	59700.04
631.61	59891.97
631.76	60083.89
631.91	59931.76
632.06	60280.50
632.21	59700.04
632.36	59896.65
632.51	59627.49
632.66	59929.42
632.81	59671.96
632.96	59924.74
633.10	59805.37
633.25	59763.24
633.40	59861.54
633.55	59800.69
633.70	59803.03
633.85	59753.88
634.00	59810.05
634.15	59632.17
634.30	59580.68
634.45	59826.43
634.60	59908.35
634.75	59908.35
634.90	59639.19
635.05	59718.77
635.19	59580.68
635.34	59784.30
635.49	59744.51
635.64	59573.66
635.79	59257.68
635.94	59709.41
636.09	59618.13
636.24	59608.76
636.39	59508.12
636.53	59650.89
636.68	59508.12
636.83	59648.55
636.98	59756.22
637.13	59337.26
637.28	59185.13
637.43	59377.05
637.57	59348.96
637.72	59377.05
637.87	59318.54
638.02	59253.00
638.17	59501.10
638.32	59262.36
638.46	59344.28
638.61	59393.43
638.76	59135.98
638.91	59292.79
639.06	59360.67
639.20	58997.88
639.35	59316.20
639.50	59206.19
639.65	59206.19
639.80	59028.31
639.94	59271.73
640.09	59075.12
640.24	59302.15
640.39	59124.27
640.54	58777.87
640.68	59231.94
640.83	59028.31
640.98	58862.13
641.13	58976.82
641.27	59253.00
641.42	58918.31
641.57	58946.39
641.72	58899.58
641.86	58698.30
642.01	58782.55
642.16	58780.21
642.31	58742.77
642.45	59112.57
642.60	58763.83
642.75	58990.86
642.90	59117.25
643.04	58866.81
643.19	58717.02
643.34	58822.34
643.48	58897.24
643.63	58824.68
643.78	58555.52
643.93	58691.27
644.07	58740.42
644.22	58728.72
644.37	58349.56
644.51	58391.68
644.66	58630.42
644.81	58639.78
644.95	58628.08
645.10	58658.51
645.25	58459.56
645.39	58614.04
645.54	58520.41
645.69	58663.19
645.83	58922.99
645.98	58651.48
646.13	58590.63
646.27	58497.01
646.42	58370.62
646.57	58532.12
646.71	58686.59
646.86	58726.38
647.00	58576.59
647.15	58356.58
647.30	58422.11
647.44	58440.84
647.59	58522.76
647.74	58459.56
647.88	58602.33
648.03	58759.15
648.17	58567.23
648.32	58202.10
648.47	58347.21
648.61	58157.63
648.76	58499.35
648.90	58113.16
649.05	58216.14
649.20	58188.06
649.34	58061.67
649.49	58255.93
649.63	58379.98
649.78	58349.56
649.92	58227.85
650.07	58087.42
650.21	57914.22
650.36	58295.72
650.51	58155.29
650.65	58405.73
650.80	58337.85
650.94	57930.60
651.09	58148.27
651.23	57806.55
651.38	57977.41
651.52	57946.98
651.67	57956.35
651.81	57811.23
651.96	57605.26
652.10	58204.44
652.25	57736.34
652.39	57783.15
652.54	57839.32
652.68	57647.39
652.83	57631.01
652.97	57930.60
653.12	57591.22
653.26	57818.25
653.41	57736.34
653.55	57764.42
653.70	57939.96
653.84	57673.14
653.99	57677.82
654.13	57497.60
654.27	57338.44
654.42	57469.51
654.56	57511.64
654.71	57457.81
654.85	57560.79
655.00	57626.33
655.14	57731.65
655.29	57408.66
655.43	57558.45
655.57	57602.92
655.72	57301.00
655.86	57563.14
656.01	57626.33
656.15	57387.60
656.30	57642.71
656.44	57607.61
656.58	57560.79
656.73	57778.46
656.87	57446.11
657.01	57619.31
657.16	57626.33
657.30	57275.25
657.45	57317.38
657.59	57165.24
657.73	57221.42
657.88	57008.43
658.02	57181.63
658.16	57031.83
658.31	57251.84
658.45	57169.93
658.60	57251.84
658.74	57158.22
658.88	57120.77
659.03	56816.50
659.17	56835.23
659.31	57116.09
659.46	56996.73
659.60	56905.44
659.74	56926.51
659.89	56809.48
660.03	56781.40
660.17	57048.22
660.32	56552.02
660.46	56732.25
660.60	56711.18
660.74	56853.95
660.89	56673.73
661.03	56580.11
661.17	56322.65
661.32	56327.33
661.46	56591.81
661.60	56521.60
661.74	56432.66
661.89	56254.78
662.03	56222.01
662.17	56451.38
662.31	56357.76
662.46	56446.70
662.60	56348.40
662.74	56060.51
662.88	56357.76
663.03	55920.08
663.17	55884.97
663.31	55920.08
663.45	55571.34
663.60	56018.38
663.74	55749.22
663.88	55657.94
664.02	55987.95
664.17	55683.69
664.31	55517.51
664.45	55641.56
664.59	55697.73
664.73	55510.49
664.88	55714.11
665.02	55199.19
665.16	55615.81
665.30	55510.49
665.44	55353.67
665.59	55447.29
665.73	55255.37
665.87	55084.51
666.01	55285.79
666.15	55323.24
666.29	55178.13
666.44	55166.43
666.58	55189.83
666.72	54990.89
666.86	54731.09
667.00	55096.21
667.14	54695.98
667.28	54630.44
667.43	54632.78
667.57	54843.43
667.71	54810.67
667.85	54850.45
667.99	54578.95
668.13	54508.74
668.27	54464.27
668.41	54438.52
668.56	53956.37
668.70	54218.51
668.84	53829.98
668.98	54241.92
669.12	54262.98
669.26	54316.81
669.40	54288.73
669.54	54454.90
669.68	54019.56
669.82	54028.93
669.96	54017.22
670.10	54085.10
670.25	53879.13
670.39	53881.47
670.53	53755.08
670.67	53478.90
670.81	54155.32
670.95	53780.83
671.09	53485.92
671.23	53347.83
671.37	53497.62
671.51	53265.91
671.65	53542.10
671.79	53188.67
671.93	53167.61
672.07	53240.17
672.21	53090.37
672.35	52919.51
672.49	52851.64
672.63	52765.04
672.77	52797.80
672.91	52603.54
673.05	52676.10
673.19	52533.32
673.33	52378.85
673.47	52186.92
673.61	52523.96
673.75	52472.47
673.89	52060.54
674.03	52051.17
674.17	52095.64
674.31	51672.01
674.45	51524.55
674.59	51625.20
674.73	51784.35
674.87	51648.60
675.01	51641.58
675.15	51531.57
675.29	51538.60
675.43	51622.86
675.56	50927.72
675.70	50838.78
675.84	51072.83
675.98	49968.10
676.12	51061.13
676.26	50803.67
676.40	50735.79
676.54	50656.21
676.68	50761.54
676.82	50099.17
676.96	50216.19
677.10	49778.51
677.23	50031.29
677.37	50122.57
677.51	49965.76
677.65	49436.80
677.79	48765.06
677.93	48917.20
678.07	49392.33
678.21	49088.06
678.34	48776.76
678.48	48697.19
678.62	48736.98
678.76	48638.67
678.90	48371.85
679.04	48397.60
679.18	48928.90
679.31	48079.28
679.45	47992.68
679.59	48105.03
679.73	47934.17
679.87	47531.60
680.00	47707.14
680.14	47349.04
680.28	47657.99
680.42	46892.63
680.56	46955.83
680.70	46761.56
680.83	46653.90
680.97	47070.51
681.11	47002.64
681.25	46457.29
681.39	46480.70
681.52	46569.64
681.66	46314.52
681.80	46188.13
681.94	45717.68
682.07	45483.63
682.21	45202.77
682.35	45418.10
682.49	45397.03
682.62	45081.06
682.76	45549.17
682.90	45331.50
683.04	45148.93
683.17	44563.80
683.31	44299.32
683.45	44243.15
683.59	44247.83
683.72	44034.84
683.86	43927.17
684.00	43763.34
684.13	44325.07
684.27	43690.78
684.41	44102.71
684.55	43625.25
684.68	43269.48
684.82	43171.18
684.96	42916.06
685.09	43257.78
685.23	42600.09
685.37	42300.50
685.50	42476.04
685.64	42665.63
685.78	42426.89
685.91	42504.13
686.05	41825.37
686.19	41296.41
686.32	41083.42
686.46	41137.26
686.60	40591.91
686.73	40926.61
686.87	40456.16
687.01	40767.45
687.14	40631.70
687.28	40184.66
687.42	40095.72
687.55	40002.10
687.69	40067.63
687.82	39985.71
687.96	39447.39
688.10	39714.21
688.23	40119.12
688.37	39295.25
688.50	38618.84
688.64	39119.71
688.78	38960.56
688.91	38253.72
689.05	38981.62
689.18	37958.81
689.32	37893.27
689.46	37436.87
689.59	37385.38
689.73	37600.71
689.86	37401.76
690.00	37357.29
690.13	37324.52
690.27	37350.27
690.41	37663.90
690.54	37099.83
690.68	36603.64
690.81	36547.47
690.95	36580.23
691.08	36362.56
691.22	36030.21
691.35	35648.70
691.49	36210.43
691.62	35817.22
691.76	35601.89
691.89	35597.21
692.03	35012.07
692.16	35274.21
692.30	34841.21
692.43	35019.10
692.57	34433.96
692.70	34684.40
692.84	34579.07
692.97	34450.35
693.11	34405.88
693.24	34281.83
693.38	33764.57
693.51	33677.97
693.65	33762.23
693.78	33446.26
693.92	33450.94
694.05	33251.99
694.19	33532.86
694.32	33429.87
694.45	32879.85
694.59	32903.25
694.72	32222.16
694.86	32851.76
694.99	31866.39
695.13	31798.52
695.26	32077.04
695.39	31676.81
695.53	32133.21
695.66	31566.81
695.80	31405.31
695.93	31414.67
696.07	30808.47
696.20	30661.02
696.33	30258.45
696.47	30859.96
696.60	30410.58
696.73	30469.09
696.87	30529.95
697.00	30429.30
697.14	30096.95
697.27	29731.83
697.40	29832.47
697.54	29483.73
697.67	29504.79
697.80	29362.02
697.94	29186.48
698.07	29074.13
698.21	29350.32
698.34	29144.35
698.47	28858.81
698.61	28671.56
698.74	28514.75
698.87	28371.97
699.01	28414.10
699.14	28327.50
699.27	27665.13
699.40	28060.68
699.54	28271.33
699.67	27637.05
699.80	27480.23
699.94	27428.74
700.07	27508.32
700.20	26726.58
700.34	26848.29
700.47	26361.45
700.60	26438.69
700.73	26618.91
700.87	25944.84
701.00	25624.18
701.13	25993.99
701.26	25844.20
701.40	25874.62
701.53	25818.45
701.66	25671.00
701.79	25221.61
701.93	25130.33
702.06	24989.90
702.19	25156.08
702.32	25139.69
702.46	24865.85
702.59	24547.54
702.72	24526.47
702.85	24381.36
702.99	24388.38
703.12	24194.12
703.25	24159.01
703.38	23957.72
703.51	23889.85
703.65	23367.91
703.78	23517.70
703.91	23381.95
704.04	23527.06
704.17	23414.72
704.31	22920.87
704.44	22864.69
704.57	22867.03
704.70	22501.91
704.83	22387.22
704.96	22342.75
705.10	22314.67
705.23	22569.79
>>>>>End Processed Spectral Data<<<<<
