SpectraSuite Data File
++++++++++++++++++++++++++++++++++++
Date: Fri Oct 25 11:22:46 EDT 2013
User: price-jones
Dark Spectrum Present: No
Reference Spectrum Present: No
Number of Sampled Component Spectra: 1
Spectrometers: USB2+H05261
Integration Time (usec): 100000 (USB2+H05261)
Spectra Averaged: 1 (USB2+H05261)
Boxcar Smoothing: 0 (USB2+H05261)
Correct for Electrical Dark: No (USB2+H05261)
Strobe/Lamp Enabled: No (USB2+H05261)
Correct for Detector Non-linearity: No (USB2+H05261)
Correct for Stray Light: No (USB2+H05261)
Number of Pixels in Processed Spectrum: 2048
>>>>>Begin Processed Spectral Data<<<<<
365.73	205.97
365.92	205.97
366.12	205.97
366.32	184.90
366.52	100.64
366.72	205.97
366.91	138.09
367.11	154.48
367.31	91.28
367.51	110.01
367.70	135.75
367.90	79.58
368.10	28.09
368.30	163.84
368.49	126.39
368.69	152.13
368.89	196.60
369.09	170.86
369.28	124.05
369.48	128.73
369.68	159.16
369.87	196.60
370.07	198.95
370.27	234.05
370.47	346.40
370.66	587.47
370.86	627.26
371.06	711.52
371.25	608.54
371.45	620.24
371.65	622.58
371.84	615.56
372.04	695.14
372.24	648.33
372.44	702.16
372.63	744.29
372.83	753.65
373.03	763.01
373.22	755.99
373.42	772.38
373.62	748.97
373.81	713.86
374.01	861.32
374.21	819.19
374.40	779.40
374.60	795.78
374.79	774.72
374.99	793.44
375.19	905.79
375.38	788.76
375.58	849.61
375.78	809.83
375.97	884.72
376.17	915.15
376.37	821.53
376.56	826.21
376.76	873.02
376.95	786.42
377.15	896.43
377.35	889.40
377.54	966.64
377.74	908.13
377.93	889.40
378.13	936.21
378.33	1032.18
378.52	945.58
378.72	866.00
378.91	954.94
379.11	870.68
379.31	882.38
379.50	959.62
379.70	1083.67
379.89	964.30
380.09	985.37
380.28	978.34
380.48	952.60
380.68	1027.50
380.87	983.02
381.07	1060.26
381.26	1111.75
381.46	952.60
381.65	1083.67
381.85	985.37
382.04	1001.75
382.24	1036.86
382.43	1013.45
382.63	1020.47
382.83	1076.65
383.02	1067.28
383.22	1196.01
383.41	1114.10
383.61	1102.39
383.80	1107.07
384.00	1210.06
384.19	1137.50
384.39	1062.60
384.58	1144.52
384.78	1170.27
384.97	1156.22
385.17	1184.31
385.36	1203.04
385.56	1203.04
385.75	1081.33
385.95	1160.91
386.14	1060.26
386.34	1212.40
386.53	1181.97
386.72	1095.37
386.92	1247.51
387.11	1287.29
387.31	1219.42
387.50	1196.01
387.70	1231.12
387.89	1231.12
388.09	1280.27
388.28	1266.23
388.48	1296.66
388.67	1343.47
388.86	1334.11
389.06	1352.83
389.25	1284.95
389.45	1348.15
389.64	1334.11
389.84	1432.41
390.03	1376.24
390.22	1385.60
390.42	1359.85
390.61	1362.19
390.81	1474.54
391.00	1390.28
391.19	1446.45
391.39	1493.26
391.58	1469.86
391.78	1362.19
391.97	1481.56
392.16	1481.56
392.36	1493.26
392.55	1509.65
392.75	1509.65
392.94	1509.65
393.13	1633.69
393.33	1390.28
393.52	1568.16
393.71	1572.84
393.91	1617.31
394.10	1507.30
394.29	1551.78
394.49	1636.03
394.68	1633.69
394.88	1624.33
395.07	1617.31
395.26	1741.36
395.46	1619.65
395.65	1710.93
395.84	1706.25
396.04	1762.42
396.23	1729.66
396.42	1729.66
396.62	1816.26
396.81	1790.51
397.00	1879.45
397.19	1795.19
397.39	1937.96
397.58	1825.62
397.77	1856.04
397.97	1851.36
398.16	1846.68
398.35	1771.79
398.55	1914.56
398.74	1914.56
398.93	1895.83
399.12	1858.39
399.32	1785.83
399.51	1947.33
399.70	2071.37
399.90	2043.29
400.09	2029.24
400.28	2043.29
400.47	2209.47
400.67	2087.76
400.86	2019.88
401.05	2127.55
401.24	2008.18
401.44	2155.63
401.63	2127.55
401.82	2106.48
402.01	2050.31
402.21	2111.16
402.40	2211.81
402.59	2157.97
402.78	2162.66
402.97	2298.41
403.17	2363.94
403.36	2225.85
403.55	2317.13
403.74	2385.01
403.93	2333.51
404.13	2359.26
404.32	2307.77
404.51	2427.14
404.70	2328.83
404.89	2429.48
405.09	2555.86
405.28	2457.56
405.47	2558.21
405.66	2565.23
405.85	2464.58
406.05	2520.76
406.24	2518.42
406.43	2628.42
406.62	2565.23
406.81	2675.23
407.00	2670.55
407.20	2630.76
407.39	2729.06
407.58	2736.09
407.77	2740.77
407.96	2677.57
408.15	2696.30
408.34	2743.11
408.54	2843.75
408.73	2743.11
408.92	2775.88
409.11	2778.22
409.30	2867.16
409.49	2944.39
409.68	2916.31
409.87	2888.22
410.07	2932.69
410.26	3129.30
410.45	3082.49
410.64	3101.21
410.83	3061.42
411.02	3241.64
411.21	3211.22
411.40	3077.80
411.59	3222.92
411.78	3293.13
411.98	3253.34
412.17	3346.97
412.36	3349.31
412.55	3543.57
412.74	3389.10
412.93	3407.82
413.12	3506.12
413.31	3691.02
413.50	3566.98
413.69	3585.70
413.88	3684.00
414.07	3592.72
414.26	3517.83
414.45	3641.87
414.64	3833.80
414.83	3716.77
415.02	3651.24
415.22	3702.73
415.41	3840.82
415.60	3904.01
415.79	3990.61
415.98	4135.73
416.17	4009.34
416.36	4002.32
416.55	4014.02
416.74	4063.17
416.93	4107.64
417.12	4067.85
417.31	4140.41
417.50	4322.97
417.69	4337.01
417.88	4285.52
418.07	4238.71
418.26	4182.54
418.45	4332.33
418.64	4550.00
418.83	4498.51
419.02	4411.91
419.21	4507.87
419.39	4564.04
419.58	4559.36
419.77	4444.68
419.96	4599.15
420.15	4566.39
420.34	4732.56
420.53	4589.79
420.72	4765.33
420.91	4858.95
421.10	4758.31
421.29	4767.67
421.48	4762.99
421.67	4819.16
421.86	4849.59
422.05	4774.69
422.24	4725.54
422.43	4877.68
422.61	4990.02
422.80	4954.91
422.99	5006.41
423.18	5095.35
423.37	5074.28
423.56	4971.30
423.75	4936.19
423.94	4980.66
424.13	4512.55
424.32	4891.72
424.50	4999.38
424.69	5053.22
424.88	4959.60
425.07	4924.49
425.26	4933.85
425.45	4994.70
425.64	4975.98
425.83	5057.90
426.01	5160.88
426.20	5013.43
426.39	5027.47
426.58	5069.60
426.77	5081.30
426.96	5046.20
427.15	5153.86
427.33	5172.58
427.52	5296.63
427.71	5289.61
427.90	5380.89
428.09	5205.35
428.28	5413.66
428.46	5294.29
428.65	5387.91
428.84	5523.66
429.03	5673.46
429.22	5416.00
429.40	5523.66
429.59	5526.00
429.78	5483.88
429.97	5275.57
430.16	5385.57
430.34	5650.05
430.53	5785.80
430.72	5706.23
430.91	5661.76
431.10	5727.29
431.28	5823.25
431.47	6017.52
431.66	5959.00
431.85	5874.74
432.03	5879.43
432.22	6022.20
432.41	5909.85
432.60	5865.38
432.79	5877.09
432.97	6054.97
433.16	6150.93
433.35	5968.37
433.54	6029.22
433.72	6181.35
433.91	6263.27
434.10	6232.85
434.28	6197.74
434.47	6221.14
434.66	6317.11
434.85	6270.30
435.03	6392.00
435.22	6485.62
435.41	6387.32
435.59	6499.67
435.78	6370.94
435.97	6420.09
436.16	6459.88
436.34	6464.56
436.53	6656.48
436.72	6801.60
436.90	6623.72
437.09	6656.48
437.28	6361.58
437.46	6553.50
437.65	6689.25
437.84	6792.23
438.02	6803.94
438.21	6766.49
438.40	6642.44
438.58	7082.46
438.77	6977.14
438.96	7045.01
439.14	7084.80
439.33	7332.90
439.52	7279.07
439.70	7218.21
439.89	7435.88
440.08	7548.23
440.26	7328.22
440.45	7508.44
440.63	7592.70
440.82	7691.00
441.01	7538.87
441.19	7515.46
441.38	7723.77
441.57	7782.28
441.75	8044.42
441.94	8016.33
442.12	7941.44
442.31	8166.13
442.50	7929.74
442.68	8121.66
442.87	8131.02
443.05	8201.24
443.24	8189.53
443.43	8156.77
443.61	8379.12
443.80	8404.86
443.98	8042.08
444.17	8023.36
444.35	8187.19
444.54	8276.13
444.73	8322.94
444.91	8355.71
445.10	8348.69
445.28	8322.94
445.47	8376.78
445.65	8311.24
445.84	8610.83
446.02	8479.76
446.21	8568.70
446.39	8400.18
446.58	8514.87
446.77	8365.07
446.95	8280.82
447.14	8540.61
447.32	8620.19
447.51	8531.25
447.69	8610.83
447.88	8676.37
448.06	8608.49
448.25	8606.15
448.43	8538.27
448.62	8795.73
448.80	8606.15
448.99	8571.04
449.17	8727.86
449.36	8854.25
449.54	8746.58
449.73	9057.87
449.91	9043.83
450.10	9151.49
450.28	9114.05
450.46	9097.66
450.65	9102.34
450.83	8999.36
451.02	9032.13
451.20	9118.73
451.39	9135.11
451.57	9219.37
451.76	8994.68
451.94	9198.31
452.13	9359.80
452.31	9338.74
452.49	9202.99
452.68	9462.79
452.86	9413.63
453.05	9488.53
453.23	9734.29
453.42	9369.16
453.60	9444.06
453.78	9572.79
453.97	9549.39
454.15	9469.81
454.34	9703.86
454.52	9584.49
454.70	9650.03
454.89	9867.70
455.07	9893.44
455.26	9678.12
455.44	9827.91
455.62	9916.85
455.81	10097.07
455.99	10218.78
456.17	10237.50
456.36	10120.48
456.54	10083.03
456.73	10223.46
456.91	10619.01
457.09	10576.88
457.28	10637.73
457.46	10321.76
457.64	10544.11
457.83	10621.35
458.01	10670.50
458.19	10752.42
458.38	10698.59
458.56	10871.79
458.74	10787.53
458.93	10855.40
459.11	10930.30
459.29	10745.40
459.48	10712.63
459.66	10899.87
459.84	10942.00
460.03	11229.89
460.21	11007.54
460.39	11133.93
460.57	10904.56
460.76	11084.78
460.94	11330.53
461.12	11382.03
461.31	11183.08
461.49	11246.27
461.67	11222.87
461.85	11318.83
462.04	11239.25
462.22	11950.78
462.40	11609.06
462.59	11784.60
462.77	11466.28
462.95	11910.99
463.13	11702.68
463.32	11747.15
463.50	11941.41
463.68	11845.45
463.86	11981.20
464.05	11620.76
464.23	11667.57
464.41	11845.45
464.59	11857.15
464.78	12194.19
464.96	12028.01
465.14	11812.68
465.32	12252.70
465.50	12023.33
465.69	12248.02
465.87	12334.62
466.05	12374.41
466.23	12393.14
466.41	12238.66
466.60	12681.02
466.78	12224.62
466.96	12325.26
467.14	12311.22
467.32	12479.74
467.51	12748.90
467.69	12287.81
467.87	12564.00
468.05	12697.41
468.23	12472.71
468.41	12678.68
468.60	12725.49
468.78	12877.63
468.96	12732.51
469.14	13029.76
469.32	12856.56
469.50	12533.57
469.69	13055.51
469.87	12910.40
470.05	13593.83
470.23	13174.88
470.41	13247.43
470.59	13345.73
470.77	13245.09
470.95	13432.33
471.14	13680.43
471.32	13355.10
471.50	13458.08
471.68	13710.86
471.86	13825.54
472.04	13848.95
472.22	13830.23
472.40	13855.97
472.58	13994.06
472.77	13916.83
472.95	14022.15
473.13	14920.92
473.31	14115.77
473.49	14288.97
473.67	14326.42
473.85	14340.46
474.03	14785.16
474.21	14633.03
474.39	14806.23
474.57	14934.96
474.75	15145.61
474.93	15417.11
475.12	15115.18
475.30	15316.47
475.48	15117.52
475.66	15674.57
475.84	15302.42
476.02	15599.67
476.20	15602.01
476.38	16123.95
476.56	16009.26
476.74	16276.09
476.92	16119.27
477.10	16248.00
477.28	16470.35
477.46	16397.79
477.64	16395.45
477.82	16582.70
478.00	17015.69
478.18	16678.66
478.36	17219.32
478.54	17551.68
478.72	17092.93
478.90	17741.26
479.08	17689.77
479.26	17860.63
479.44	18085.32
479.62	18075.96
479.80	18029.15
479.98	18363.84
480.16	18843.65
480.34	18216.39
480.52	18665.77
480.70	18745.35
480.88	18633.00
481.06	18904.51
481.24	19176.01
481.41	19082.39
481.59	19410.06
481.77	19433.47
481.95	19824.34
482.13	20187.12
482.31	19878.17
482.49	20233.93
482.67	20482.03
482.85	20362.66
483.03	20482.03
483.21	21198.23
483.39	20980.56
483.57	21027.37
483.74	21553.99
483.92	21465.05
484.10	21266.11
484.28	22101.68
484.46	22272.54
484.64	22448.08
484.82	21986.99
485.00	22319.35
485.18	22918.53
485.35	22934.91
485.53	23194.71
485.71	22991.08
485.89	23655.79
486.07	23894.53
486.25	23985.81
486.43	23779.84
486.61	23807.93
486.78	24166.03
486.96	24470.30
487.14	24725.42
487.32	24769.89
487.50	25078.84
487.68	25081.18
487.85	25308.21
488.03	25940.16
488.21	26108.68
488.39	26106.34
488.57	26228.04
488.75	26466.78
488.92	26527.63
489.10	26773.39
489.28	26974.67
489.46	27215.75
489.64	27431.08
489.81	27665.13
489.99	27679.18
490.17	28196.43
490.35	28243.24
490.53	28526.45
490.70	28748.80
490.88	28353.25
491.06	28863.49
491.24	29322.23
491.41	29109.24
491.59	29773.95
491.77	29303.51
491.95	29460.32
492.13	30197.59
492.30	30199.93
492.48	30132.06
492.66	30651.66
492.84	30677.40
493.01	30845.92
493.19	30618.89
493.37	31438.08
493.54	31510.63
493.72	31899.16
493.90	31548.08
494.08	32081.72
494.25	32275.99
494.43	32699.62
494.61	32678.56
494.79	32594.30
494.96	32683.24
495.14	32608.34
495.32	33584.35
495.49	33628.82
495.67	33369.02
495.85	34108.63
496.02	33666.27
496.20	33961.17
496.38	34440.98
496.55	34621.20
496.73	34916.11
496.91	34679.72
497.09	35318.68
497.26	35522.31
497.44	35381.88
497.62	35775.09
497.79	36093.40
497.97	35943.61
498.14	36388.31
498.32	36479.59
498.50	36304.05
498.67	37221.54
498.85	36397.67
499.03	37408.78
499.20	36975.78
499.38	37535.17
499.56	37607.73
499.73	37661.56
499.91	37614.75
500.08	38096.90
500.26	37525.81
500.44	38232.65
500.61	38260.74
500.79	37825.40
500.97	38274.78
501.14	38883.32
501.32	38653.95
501.49	38604.80
501.67	39056.52
501.84	38955.88
502.02	39564.42
502.20	39267.17
502.37	39423.98
502.55	38976.94
502.72	39981.03
502.90	39688.46
503.07	39503.56
503.25	40161.25
503.43	39964.65
503.60	40502.97
503.78	40964.06
503.95	40453.82
504.13	40446.80
504.30	40683.19
504.48	40987.46
504.65	41275.35
504.83	41528.13
505.01	41713.03
505.18	41333.86
505.36	42148.37
505.53	41441.53
505.71	41703.67
505.88	42202.20
506.06	41914.31
506.23	42447.96
506.41	42190.50
506.58	42590.73
506.76	42651.58
506.93	43103.31
507.11	42866.91
507.28	43009.68
507.46	43117.35
507.63	43316.29
507.81	43613.54
507.98	43592.48
508.16	43533.96
508.33	43498.86
508.50	43782.06
508.68	43943.56
508.85	44664.44
509.03	43941.22
509.20	44203.36
509.38	44519.33
509.55	44509.97
509.73	44631.68
509.90	44877.43
510.08	45038.93
510.25	45130.21
510.42	45179.36
510.60	45322.13
510.77	45120.85
510.95	45621.72
511.12	45448.52
511.30	45322.13
511.47	45455.54
511.64	45846.41
511.82	46366.01
511.99	45867.48
512.17	46417.50
512.34	46087.49
512.51	46897.31
512.69	46834.12
512.86	46658.58
513.04	46913.70
513.21	46883.27
513.38	46670.28
513.56	47248.39
513.73	46883.27
513.90	47421.59
514.08	47292.86
514.25	47463.72
514.43	47800.76
514.60	48109.71
514.77	47896.72
514.95	47913.11
515.12	47749.27
515.29	48100.35
515.47	48076.94
515.64	48306.32
515.81	48280.57
515.99	48650.38
516.16	48542.71
516.33	48669.10
516.51	48905.49
516.68	48751.02
516.85	49144.23
517.03	49160.61
517.20	48863.36
517.37	48680.80
517.54	49282.32
517.72	49439.14
517.89	49481.27
518.06	49382.96
518.24	49422.75
518.41	49544.46
518.58	49595.95
518.75	49425.09
518.93	49745.75
519.10	49661.49
519.27	49846.39
519.45	50085.12
519.62	50272.37
519.79	50263.00
519.96	50061.72
520.14	50562.59
520.31	50475.99
520.48	50408.12
520.65	50571.96
520.83	51044.74
521.00	50939.42
521.17	50824.73
521.34	50710.05
521.52	51119.64
521.69	51129.00
521.86	51496.47
522.03	51358.38
522.20	51945.85
522.38	51681.37
522.55	51639.24
522.72	51611.15
522.89	51510.51
523.07	52062.88
523.24	51810.10
523.41	51767.97
523.58	51669.67
523.75	52374.17
523.92	52236.08
524.10	52243.10
524.27	52205.65
524.44	52147.14
524.61	52301.61
524.78	52416.30
524.96	52432.68
525.13	52743.97
525.30	52624.60
525.47	53024.84
525.64	52914.83
525.81	52971.00
525.98	52966.32
526.16	52788.44
526.33	52914.83
526.50	53240.17
526.67	53057.60
526.84	53202.72
527.01	53230.80
527.18	53139.52
527.36	53057.60
527.53	53249.53
527.70	53797.21
527.87	53773.81
528.04	53167.61
528.21	53675.51
528.38	53727.00
528.55	53593.59
528.72	53865.09
528.89	53848.71
529.07	53633.38
529.24	53497.62
529.41	53764.45
529.58	53965.73
529.75	53783.17
529.92	54099.14
530.09	54075.74
530.26	54131.91
530.43	54096.80
530.60	54232.55
530.77	54024.25
530.94	54672.57
531.11	54291.07
531.28	54525.12
531.46	54300.43
531.63	54611.72
531.80	54351.92
531.97	54637.47
532.14	54745.13
532.31	54646.83
532.48	54698.32
532.65	55002.59
532.82	54756.83
532.99	54756.83
533.16	55257.71
533.33	55014.29
533.50	55302.18
533.67	55068.12
533.84	55128.98
534.01	55126.64
534.18	55091.53
534.35	55442.61
534.52	55346.65
534.69	55611.13
534.86	55526.87
535.03	55194.51
535.20	55529.21
535.37	55849.86
535.54	55522.19
535.71	55414.52
535.88	55468.36
536.05	55887.31
536.22	55884.97
536.38	55976.25
536.55	55873.27
536.72	55732.84
536.89	55718.79
537.06	56030.08
537.23	56013.70
537.40	55868.59
537.57	55924.76
537.74	56315.63
537.91	56002.00
538.08	56086.26
538.25	55810.07
538.42	56034.77
538.59	56371.80
538.75	56088.60
538.92	56268.82
539.09	56509.89
539.26	56456.06
539.43	56184.56
539.60	56418.61
539.77	56633.94
539.94	56657.35
540.11	56451.38
540.28	56669.05
540.44	56612.88
540.61	56495.85
540.78	56484.15
540.95	56650.33
541.12	56713.52
541.29	56545.00
541.46	56832.89
541.62	56793.10
541.79	57001.41
541.96	56563.73
542.13	56858.63
542.30	56914.81
542.47	57010.77
542.63	57092.69
542.80	57099.71
542.97	56989.70
543.14	57359.51
543.31	57301.00
543.48	57354.83
543.64	57614.63
543.81	57521.01
543.98	57495.26
544.15	57399.30
544.32	57631.01
544.48	57897.83
544.65	57425.04
544.82	57572.50
544.99	57513.98
545.16	57792.51
545.32	57645.05
545.49	57956.35
545.66	58064.01
545.83	57752.72
546.00	57846.34
546.16	58010.18
546.33	57773.78
546.50	57471.85
546.67	58085.07
546.83	57778.46
547.00	58021.88
547.17	58117.84
547.34	58085.07
547.50	58113.16
547.67	58597.65
547.84	58330.83
548.00	58155.29
548.17	58433.81
548.34	58513.39
548.51	58564.88
548.67	58319.13
548.84	58375.30
549.01	58398.71
549.18	58279.34
549.34	58136.57
549.51	58443.18
549.68	58408.07
549.84	58721.70
550.01	58548.50
550.18	58560.20
550.34	58571.91
550.51	58768.51
550.68	58611.70
550.84	58555.52
551.01	58665.53
551.18	58735.74
551.34	58789.58
551.51	58710.00
551.68	58623.40
551.84	58635.10
552.01	58473.60
552.18	58986.18
552.34	58611.70
552.51	59070.44
552.68	58742.77
552.84	59028.31
553.01	59075.12
553.18	58995.54
553.34	58939.37
553.51	59114.91
553.67	58979.16
553.84	59250.66
554.01	59199.17
554.17	59154.70
554.34	59192.15
554.51	59051.72
554.67	59526.84
554.84	59227.26
555.00	59245.98
555.17	59229.60
555.33	59119.59
555.50	59189.81
555.67	59199.17
555.83	59210.87
556.00	59168.74
556.16	59678.98
556.33	59664.94
556.50	59622.81
556.66	59505.78
556.83	59512.80
556.99	59540.89
557.16	59702.38
557.32	59805.37
557.49	59770.26
557.65	59391.09
557.82	59814.73
557.98	59772.60
558.15	59557.27
558.32	59697.70
558.48	59608.76
558.65	59765.58
558.81	59660.26
558.98	59641.53
559.14	59763.24
559.31	59861.54
559.47	59791.33
559.64	59997.29
559.80	60041.76
559.97	59678.98
560.13	59913.03
560.30	59913.03
560.46	59906.01
560.63	59980.91
560.79	59849.84
560.96	60219.64
561.12	60172.83
561.29	59927.08
561.45	59898.99
561.61	59948.14
561.78	60135.38
561.94	59884.95
562.11	60214.96
562.27	60069.85
562.44	60353.05
562.60	60280.50
562.77	60219.64
562.93	59913.03
563.10	60193.90
563.26	59784.30
563.42	60484.12
563.59	60133.04
563.75	59917.71
563.92	60189.22
564.08	60217.30
564.24	60238.37
564.41	60369.44
564.57	60271.14
564.74	60343.69
564.90	60285.18
565.07	60399.86
565.23	60303.90
565.39	60355.39
565.56	60313.26
565.72	60247.73
565.88	60207.94
566.05	60425.61
566.21	60395.18
566.38	60509.87
566.54	60348.37
566.70	60699.45
566.87	60495.83
567.03	60369.44
567.19	60671.37
567.36	60427.95
567.52	60507.53
567.68	60748.60
567.85	60430.29
568.01	60554.34
568.17	60463.06
568.34	60612.85
568.50	60636.26
568.66	60507.53
568.83	60638.60
568.99	60591.79
569.15	60484.12
569.32	60605.83
569.48	60589.45
569.64	60631.58
569.81	60713.50
569.97	60434.97
570.13	60589.45
570.30	60477.10
570.46	60638.60
570.62	60872.65
570.78	60828.18
570.95	60526.25
571.11	60977.98
571.27	60722.86
571.43	60676.05
571.60	60842.23
571.76	60802.44
571.92	60872.65
572.09	60800.10
572.25	60542.64
572.41	60626.90
572.57	60942.87
572.74	60818.82
572.90	60800.10
573.06	60816.48
573.22	60924.14
573.38	60811.80
573.55	60804.78
573.71	61062.24
573.87	60872.65
574.03	60582.43
574.20	60945.21
574.36	60907.76
574.52	60867.97
574.68	60985.00
574.84	60959.25
575.01	61038.83
575.17	60917.12
575.33	60942.87
575.49	60945.21
575.65	60788.39
575.82	60994.36
575.98	61052.87
576.14	61125.43
576.30	60928.83
576.46	60949.89
576.62	60781.37
576.79	60956.91
576.95	60697.11
577.11	61132.45
577.27	60996.70
577.43	60879.67
577.59	60659.66
577.75	60867.97
577.92	60699.45
578.08	60977.98
578.24	60961.59
578.40	61045.85
578.56	61305.65
578.72	60879.67
578.88	61127.77
579.04	61083.30
579.21	61167.56
579.37	61268.20
579.53	61310.33
579.69	61127.77
579.85	61207.35
580.01	61146.50
580.17	60767.33
580.33	61045.85
580.49	61244.80
580.65	60959.25
580.82	61041.17
580.98	61080.96
581.14	60961.59
581.30	61235.44
581.46	61006.06
581.62	61036.49
581.78	61095.00
581.94	61158.20
582.10	61031.81
582.26	60926.49
582.42	61104.37
582.58	61109.05
582.74	61062.24
582.90	61099.68
583.06	61183.94
583.22	61048.19
583.38	60992.02
583.54	61038.83
583.70	61146.50
583.86	61322.04
584.02	61043.51
584.18	61200.33
584.34	61179.26
584.50	61205.01
584.66	61057.56
584.82	60966.27
584.98	61286.93
585.14	61207.35
585.30	61148.84
585.46	61172.24
585.62	61083.30
585.78	61230.75
585.94	61066.92
586.10	61043.51
586.26	61249.48
586.42	61345.44
586.58	61352.46
586.74	61343.10
586.90	61172.24
587.06	61169.90
587.22	61680.14
587.38	61197.99
587.54	61305.65
587.70	61373.53
587.86	61055.21
588.02	61249.48
588.18	61319.70
588.34	60970.96
588.49	61223.73
588.65	61300.97
588.81	61352.46
588.97	61406.30
589.13	61413.32
589.29	61403.95
589.45	61520.98
589.61	61427.36
589.77	61626.31
589.93	61560.77
590.08	61464.81
590.24	61471.83
590.40	61740.99
590.56	61691.84
590.72	61560.77
590.88	61284.59
591.04	61408.64
591.20	61605.24
591.35	61502.26
591.51	61890.79
591.67	61645.03
591.83	61705.88
591.99	61586.52
592.15	61567.79
592.31	61712.91
592.46	61757.38
592.62	61769.08
592.78	61528.00
592.94	61600.56
593.10	61645.03
593.26	61818.23
593.41	61726.95
593.57	61694.18
593.73	61673.12
593.89	62063.99
594.05	61682.48
594.20	61619.28
594.36	61729.29
594.52	61680.14
594.68	61560.77
594.84	61513.96
594.99	61745.67
595.15	61532.68
595.31	61680.14
595.47	61630.99
595.62	61476.51
595.78	61748.01
595.94	61715.25
596.10	61818.23
596.25	61776.10
596.41	61696.52
596.57	61698.86
596.73	61780.78
596.88	61916.53
597.04	61932.92
597.20	61883.76
597.36	61925.89
597.51	61876.74
597.67	61748.01
597.83	61661.41
597.99	61616.94
598.14	61848.66
598.30	61998.45
598.46	61958.66
598.61	61883.76
598.77	61755.03
598.93	61773.76
599.09	61801.85
599.24	62082.71
599.40	61841.63
599.56	61867.38
599.71	61939.94
599.87	61956.32
600.03	61748.01
600.18	61640.35
600.34	61682.48
600.50	61867.38
600.65	61907.17
600.81	62047.60
600.97	61996.11
601.12	62059.30
601.28	61914.19
601.44	61918.87
601.59	61759.72
601.75	61942.28
601.91	62148.24
602.06	61968.02
602.22	62075.69
602.37	62136.54
602.53	61935.26
602.69	61836.95
602.84	61757.38
603.00	61719.93
603.16	61731.63
603.31	61989.09
603.47	62056.96
603.62	62021.86
603.78	61951.64
603.94	61923.55
604.09	62042.92
604.25	61902.49
604.40	61853.34
604.56	62110.80
604.71	62059.30
604.87	61762.06
605.03	62033.56
605.18	61946.96
605.34	62005.47
605.49	61872.06
605.65	62003.13
605.80	62019.52
605.96	62071.01
606.12	62052.28
606.27	62040.58
606.43	61869.72
606.58	62019.52
606.74	61895.47
606.89	61935.26
607.05	61890.79
607.20	62038.24
607.36	61801.85
607.51	61677.80
607.67	61834.61
607.82	61743.33
607.98	61811.21
608.13	61902.49
608.29	62033.56
608.44	61827.59
608.60	61773.76
608.75	61893.13
608.91	61867.38
609.06	61542.05
609.22	61883.76
609.37	61591.20
609.53	61853.34
609.68	61778.44
609.84	61663.75
609.99	61762.06
610.15	61953.98
610.30	61822.91
610.46	61839.29
610.61	61762.06
610.76	61890.79
610.92	61661.41
611.07	61670.78
611.23	61691.84
611.38	61680.14
611.54	61595.88
611.69	61736.31
611.84	61907.17
612.00	61708.22
612.15	61546.73
612.31	61745.67
612.46	61460.13
612.62	61771.42
612.77	61607.58
612.92	61750.35
613.08	61401.61
613.23	61874.40
613.39	61565.45
613.54	61425.02
613.69	61654.39
613.85	61684.82
614.00	61792.48
614.15	61858.02
614.31	61769.08
614.46	61731.63
614.62	61401.61
614.77	61616.94
614.92	61712.91
615.08	61511.62
615.23	61497.58
615.38	61570.13
615.54	61471.83
615.69	61446.08
615.84	61591.20
616.00	61649.71
616.15	61399.27
616.30	61787.80
616.46	61516.30
616.61	61366.51
616.76	61520.98
616.92	61279.91
617.07	61380.55
617.22	61223.73
617.37	61343.10
617.53	61645.03
617.68	61488.21
617.83	61729.29
617.99	61317.35
618.14	61352.46
618.29	61371.19
618.45	61425.02
618.60	61190.97
618.75	61111.39
618.90	61097.34
619.06	61375.87
619.21	61528.00
619.36	61537.36
619.51	61233.10
619.67	61340.76
619.82	61315.01
619.97	61413.32
620.12	61230.75
620.28	61113.73
620.43	61378.21
620.58	61317.35
620.73	61113.73
620.89	61155.86
621.04	61226.07
621.19	61418.00
621.34	61188.63
621.49	61279.91
621.65	61099.68
621.80	61420.34
621.95	60921.80
622.10	61347.78
622.25	60914.78
622.41	61041.17
622.56	61146.50
622.71	60999.04
622.86	60912.44
623.01	60985.00
623.16	60821.16
623.32	60940.53
623.47	61286.93
623.62	61169.90
623.77	60837.54
623.92	61057.56
624.07	61165.22
624.23	61186.28
624.38	61017.77
624.53	60736.90
624.68	60790.73
624.83	61020.11
624.98	60715.84
625.13	60671.37
625.29	60985.00
625.44	60884.36
625.59	60839.89
625.74	60697.11
625.89	60825.84
626.04	60437.31
626.19	60371.78
626.34	60666.69
626.49	60596.47
626.65	60568.38
626.80	60795.42
626.95	60673.71
627.10	60437.31
627.25	60425.61
627.40	60533.28
627.55	60626.90
627.70	60617.53
627.85	60479.44
628.00	60507.53
628.15	60615.19
628.30	60371.78
628.45	60477.10
628.60	60570.72
628.76	60715.84
628.91	60647.96
629.06	60229.01
629.21	60669.03
629.36	60418.59
629.51	60198.58
629.66	60236.03
629.81	60154.11
629.96	60123.68
630.11	60350.71
630.26	60367.10
630.41	60313.26
630.56	60369.44
630.71	60289.86
630.86	60289.86
631.01	60203.26
631.16	60353.05
631.31	60027.72
631.46	60041.76
631.61	60229.01
631.76	60327.31
631.91	60236.03
632.06	60327.31
632.21	60184.54
632.36	60214.96
632.51	59812.39
632.66	60065.17
632.81	60186.88
632.96	60214.96
633.10	60233.69
633.25	59936.44
633.40	60137.72
633.55	59920.05
633.70	59880.27
633.85	59948.14
634.00	59966.87
634.15	59882.61
634.30	59838.14
634.45	60004.31
634.60	60109.64
634.75	60097.94
634.90	59973.89
635.05	59835.80
635.19	59917.71
635.34	59980.91
635.49	59772.60
635.64	59877.93
635.79	59936.44
635.94	59863.88
636.09	59849.84
636.24	59756.22
636.39	59803.03
636.53	59819.41
636.68	59777.28
636.83	59686.00
636.98	59903.67
637.13	59517.48
637.28	59622.81
637.43	59697.70
637.57	59571.32
637.72	59524.50
637.87	59784.30
638.02	59707.07
638.17	59639.19
638.32	59554.93
638.46	59585.36
638.61	59618.13
638.76	59372.37
638.91	59494.08
639.06	59395.77
639.20	59243.64
639.35	59243.64
639.50	59234.28
639.65	59245.98
639.80	59561.95
639.94	59428.54
640.09	59512.80
640.24	59154.70
640.39	59084.48
640.54	59412.16
640.68	59377.05
640.83	59363.01
640.98	59210.87
641.13	59250.66
641.27	59419.18
641.42	58925.33
641.57	59065.76
641.72	59135.98
641.86	58810.64
642.01	58904.26
642.16	59009.59
642.31	58930.01
642.45	59402.80
642.60	58972.14
642.75	59234.28
642.90	59210.87
643.04	59025.97
643.19	58958.09
643.34	59124.27
643.48	59054.06
643.63	59264.70
643.78	58920.65
643.93	58855.11
644.07	59082.14
644.22	58873.84
644.37	58670.21
644.51	58602.33
644.66	58983.84
644.81	58885.54
644.95	58766.17
645.10	59049.38
645.25	58941.71
645.39	58695.95
645.54	58908.94
645.69	58714.68
645.83	58677.23
645.98	58791.92
646.13	58621.06
646.27	58838.73
646.42	58717.02
646.57	58529.78
646.71	58787.24
646.86	58773.19
647.00	58747.45
647.15	58815.32
647.30	58721.70
647.44	58424.45
647.59	58827.02
647.74	58522.76
647.88	58649.14
648.03	58930.01
648.17	58871.49
648.32	58372.96
648.47	58485.31
648.61	58585.95
648.76	58649.14
648.90	58487.65
649.05	58611.70
649.20	58567.23
649.34	58635.10
649.49	58475.94
649.63	58735.74
649.78	58599.99
649.92	58384.66
650.07	58557.86
650.21	58255.93
650.36	58396.37
650.51	58204.44
650.65	58461.90
650.80	58454.88
650.94	58307.43
651.09	58141.25
651.23	57932.94
651.38	58068.69
651.52	58085.07
651.67	58253.59
651.81	58183.38
651.96	58155.29
652.10	58124.86
652.25	58129.54
652.39	58141.25
652.54	58056.99
652.68	57698.89
652.83	57722.29
652.97	57804.21
653.12	58183.38
653.26	58162.31
653.41	57902.51
653.55	58082.73
653.70	57909.53
653.84	58251.25
653.99	58248.91
654.13	57654.42
654.27	57944.64
654.42	57703.57
654.56	57841.66
654.71	57993.79
654.85	57937.62
655.00	58113.16
655.14	57853.36
655.29	57612.29
655.43	57689.52
655.57	57900.17
655.72	57572.50
655.86	57645.05
656.01	57535.05
656.15	57455.47
656.30	57680.16
656.44	57687.18
656.58	57698.89
656.73	57694.21
656.87	57701.23
657.01	57553.77
657.16	57652.08
657.30	57609.95
657.45	57645.05
657.59	57528.03
657.73	57151.20
657.88	57453.13
658.02	57193.33
658.16	57284.61
658.31	57195.67
658.45	57476.54
658.60	57378.23
658.74	57436.75
658.88	57380.57
659.03	57195.67
659.17	57289.29
659.31	57155.88
659.46	56846.93
659.60	57254.18
659.74	57233.12
659.89	56825.87
660.03	56882.04
660.17	56949.92
660.32	57216.74
660.46	57020.13
660.60	56755.65
660.74	56783.74
660.89	56860.97
661.03	56678.41
661.17	56757.99
661.32	56472.45
661.46	56659.69
661.60	56643.30
661.74	56722.88
661.89	56659.69
662.03	56718.20
662.17	56509.89
662.31	56591.81
662.46	56746.29
662.60	56552.02
662.74	56528.62
662.88	56406.91
663.03	56238.39
663.17	56470.11
663.31	56114.34
663.45	56423.29
663.60	55973.91
663.74	55894.33
663.88	55903.70
664.02	55948.17
664.17	55913.06
664.31	55737.52
664.45	55978.59
664.59	55765.60
664.73	56079.24
664.88	55559.64
665.02	55398.14
665.16	55468.36
665.30	55704.75
665.44	55564.32
665.59	55594.74
665.73	55611.13
665.87	55524.53
666.01	55323.24
666.15	55508.14
666.29	55398.14
666.44	55484.74
666.58	55365.37
666.72	55061.10
666.86	54983.86
667.00	55271.75
667.14	54866.84
667.28	54932.37
667.43	55222.60
667.57	55203.88
667.71	54932.37
667.85	54810.67
667.99	54803.64
668.13	55091.53
668.27	54562.57
668.41	54820.03
668.56	54777.90
668.70	54780.24
668.84	54457.24
668.98	54447.88
669.12	54614.06
669.26	54511.08
669.40	54475.97
669.54	54529.80
669.68	54218.51
669.82	54340.22
669.96	54143.61
670.10	54068.72
670.25	54527.46
670.39	54174.04
670.53	54286.39
670.67	54071.06
670.81	54487.67
670.95	54110.85
671.09	53549.12
671.23	53790.19
671.37	53670.82
671.51	53652.10
671.65	53801.89
671.79	53511.67
671.93	53666.14
672.07	53373.58
672.21	53066.97
672.35	52961.64
672.49	53095.05
672.63	52938.24
672.77	52832.91
672.91	52807.17
673.05	52692.48
673.19	52659.71
673.33	52633.97
673.47	52882.06
673.61	52736.95
673.75	52760.36
673.89	52549.71
674.03	52617.58
674.17	52678.44
674.31	52196.29
674.45	52076.92
674.59	52018.41
674.73	52051.17
674.87	51938.83
675.01	51618.17
675.15	51587.75
675.29	51758.61
675.43	52004.36
675.56	51709.46
675.70	51508.17
675.84	51569.02
675.98	49998.52
676.12	51330.29
676.26	51501.15
676.40	51363.06
676.54	50993.25
676.68	50951.12
676.82	50244.28
676.96	50281.73
677.10	50403.44
677.23	50443.23
677.37	50323.86
677.51	50059.38
677.65	49696.59
677.79	49216.78
677.93	49275.30
678.07	49298.70
678.21	49516.37
678.34	49413.39
678.48	49385.30
678.62	48776.76
678.76	48772.08
678.90	48781.45
679.04	48683.14
679.18	49265.94
679.31	48779.10
679.45	48203.33
679.59	48542.71
679.73	48664.42
679.87	48088.65
680.00	47992.68
680.14	47552.66
680.28	47693.10
680.42	47660.33
680.56	46993.28
680.70	47091.58
680.83	46913.70
680.97	46918.38
681.11	47140.73
681.25	47075.19
681.39	46679.64
681.52	46930.08
681.66	46674.96
681.80	46237.28
681.94	46059.40
682.07	46246.65
682.21	46052.38
682.35	45736.41
682.49	45413.41
682.62	45179.36
682.76	45823.01
682.90	45539.80
683.04	45298.73
683.17	45268.30
683.31	45134.89
683.45	44933.60
683.59	45059.99
683.72	44549.76
683.86	44383.58
684.00	44905.52
684.13	44516.99
684.27	43892.07
684.41	44147.18
684.55	44210.38
684.68	43753.97
684.82	43423.96
684.96	43416.94
685.09	43182.88
685.23	43524.60
685.37	42955.85
685.50	42553.28
685.64	42808.40
685.78	42948.83
685.91	42740.52
686.05	42277.10
686.19	41677.92
686.32	41574.94
686.46	41401.74
686.60	41631.11
686.73	40928.95
686.87	40872.78
687.01	41310.46
687.14	40926.61
687.28	40842.35
687.42	40959.38
687.55	40287.64
687.69	41024.91
687.82	40034.86
687.96	40044.23
688.10	40074.65
688.23	40168.27
688.37	39702.51
688.50	39372.49
688.64	39220.36
688.78	39152.48
688.91	38536.92
689.05	38836.51
689.18	38527.56
689.32	37914.34
689.46	38354.36
689.59	38064.13
689.73	38040.73
689.86	37769.22
690.00	37869.87
690.13	37883.91
690.27	37895.61
690.41	37699.01
690.54	37174.73
690.68	37022.59
690.81	37167.71
690.95	36514.70
691.08	36786.20
691.22	36566.19
691.35	36479.59
691.49	36439.80
691.62	36470.23
691.76	36172.98
691.89	35707.21
692.03	35955.31
692.16	35522.31
692.30	35541.03
692.43	35260.17
692.57	35328.05
692.70	35295.28
692.84	34953.56
692.97	34962.92
693.11	35023.78
693.24	34363.75
693.38	34307.57
693.51	33652.22
693.65	33839.47
693.78	33905.00
693.92	33890.96
694.05	33535.20
694.19	33860.53
694.32	33251.99
694.45	33177.09
694.59	32900.91
694.72	33071.77
694.86	32591.96
694.99	32285.35
695.13	32259.60
695.26	32238.54
695.39	31917.89
695.53	32119.17
695.66	31747.03
695.80	31611.28
695.93	31725.96
696.07	31508.29
696.20	30974.65
696.33	30742.94
696.47	31232.11
696.60	31105.72
696.73	30661.02
696.87	30944.22
697.00	30438.67
697.14	30328.66
697.27	30150.78
697.40	30118.01
697.54	30080.56
697.67	30347.39
697.80	30026.73
697.94	29577.35
698.07	29081.16
698.21	29256.70
698.34	29085.84
698.47	28931.36
698.61	28872.85
698.74	29111.58
698.87	28643.48
699.01	28147.28
699.14	28428.15
699.27	28126.22
699.40	27852.38
699.54	28006.85
699.67	27894.50
699.80	28126.22
699.94	27821.95
700.07	27854.72
700.20	27072.98
700.34	27157.24
700.47	27016.80
700.60	26675.09
700.73	26845.94
700.87	26331.03
701.00	26129.74
701.13	26029.10
701.26	26017.40
701.40	25825.47
701.53	26096.97
701.66	26146.12
701.79	25340.98
701.93	25336.30
702.06	24793.29
702.19	25099.90
702.32	25195.87
702.46	24837.76
702.59	24762.87
702.72	24837.76
702.85	25046.07
702.99	24479.66
703.12	24662.22
703.25	24149.65
703.38	24049.00
703.51	23948.36
703.65	24109.86
703.78	23363.23
703.91	23534.09
704.04	23658.14
704.17	23756.44
704.31	23206.41
704.44	23026.19
704.57	22981.72
704.70	22682.13
704.83	22874.06
704.96	22684.47
705.10	22214.02
705.23	21968.27
>>>>>End Processed Spectral Data<<<<<
