SpectraSuite Data File
++++++++++++++++++++++++++++++++++++
Date: Fri Oct 25 11:34:00 EDT 2013
User: price-jones
Dark Spectrum Present: No
Reference Spectrum Present: No
Number of Sampled Component Spectra: 1
Spectrometers: USB2+H05261
Integration Time (usec): 100000 (USB2+H05261)
Spectra Averaged: 1 (USB2+H05261)
Boxcar Smoothing: 0 (USB2+H05261)
Correct for Electrical Dark: No (USB2+H05261)
Strobe/Lamp Enabled: No (USB2+H05261)
Correct for Detector Non-linearity: No (USB2+H05261)
Correct for Stray Light: No (USB2+H05261)
Number of Pixels in Processed Spectrum: 2048
>>>>>Begin Processed Spectral Data<<<<<
365.73	259.80
365.92	259.80
366.12	259.80
366.32	234.05
366.52	201.29
366.72	238.73
366.91	170.86
367.11	159.16
367.31	140.43
367.51	222.35
367.70	145.11
367.90	191.92
368.10	145.11
368.30	149.79
368.49	161.50
368.69	198.95
368.89	234.05
369.09	224.69
369.28	126.39
369.48	236.39
369.68	191.92
369.87	189.58
370.07	264.48
370.27	259.80
370.47	306.61
370.66	512.58
370.86	545.34
371.06	521.94
371.25	557.05
371.45	505.56
371.65	592.16
371.84	538.32
372.04	470.45
372.24	543.00
372.44	627.26
372.63	681.10
372.83	587.47
373.03	514.92
373.22	561.73
373.42	608.54
373.62	709.18
373.81	613.22
374.01	683.44
374.21	685.78
374.40	629.60
374.60	681.10
374.79	629.60
374.99	615.56
375.19	617.90
375.38	674.07
375.58	631.94
375.78	631.94
375.97	683.44
376.17	683.44
376.37	681.10
376.56	667.05
376.76	688.12
376.95	704.50
377.15	660.03
377.35	697.48
377.54	641.31
377.74	631.94
377.93	634.29
378.13	655.35
378.33	664.71
378.52	660.03
378.72	791.10
378.91	709.18
379.11	730.25
379.31	671.73
379.50	667.05
379.70	730.25
379.89	800.46
380.09	709.18
380.28	702.16
380.48	763.01
380.68	730.25
380.87	730.25
381.07	795.78
381.26	770.04
381.46	800.46
381.65	716.20
381.85	795.78
382.04	798.12
382.24	807.48
382.43	744.29
382.63	802.80
382.83	774.72
383.02	781.74
383.22	877.70
383.41	765.36
383.61	807.48
383.80	837.91
384.00	770.04
384.19	856.64
384.39	807.48
384.58	805.14
384.78	812.17
384.97	758.33
385.17	800.46
385.36	746.63
385.56	828.55
385.75	781.74
385.95	828.55
386.14	903.45
386.34	910.47
386.53	823.87
386.72	915.15
386.92	961.96
387.11	816.85
387.31	931.53
387.50	908.13
387.70	894.08
387.89	983.02
388.09	919.83
388.28	896.43
388.48	915.15
388.67	936.21
388.86	924.51
389.06	919.83
389.25	938.55
389.45	964.30
389.64	933.87
389.84	933.87
390.03	978.34
390.22	961.96
390.42	1043.88
390.61	908.13
390.81	980.68
391.00	952.60
391.19	1041.54
391.39	947.92
391.58	992.39
391.78	1029.84
391.97	987.71
392.16	1008.77
392.36	1050.90
392.55	964.30
392.75	1118.78
392.94	994.73
393.13	1029.84
393.33	1034.52
393.52	1057.92
393.71	1097.71
393.91	992.39
394.10	1118.78
394.29	1109.41
394.49	1104.73
394.68	1109.41
394.88	1153.88
395.07	1160.91
395.26	1160.91
395.46	1114.10
395.65	1128.14
395.84	1107.07
396.04	1203.04
396.23	1200.69
396.42	1179.63
396.62	1170.27
396.81	1128.14
397.00	1256.87
397.19	1186.65
397.39	1219.42
397.58	1277.93
397.77	1144.52
397.97	1238.14
398.16	1329.42
398.35	1242.82
398.55	1277.93
398.74	1280.27
398.93	1254.53
399.12	1362.19
399.32	1303.68
399.51	1280.27
399.70	1327.08
399.90	1341.13
400.09	1364.53
400.28	1439.43
400.47	1406.66
400.67	1504.96
400.86	1455.81
401.05	1336.45
401.24	1404.32
401.44	1453.47
401.63	1544.75
401.82	1490.92
402.01	1409.00
402.21	1460.49
402.40	1497.94
402.59	1558.80
402.78	1476.88
402.97	1490.92
403.17	1568.16
403.36	1493.26
403.55	1593.90
403.74	1614.97
403.93	1673.48
404.13	1551.78
404.32	1586.88
404.51	1500.28
404.70	1666.46
404.89	1544.75
405.09	1710.93
405.28	1664.12
405.47	1675.82
405.66	1675.82
405.85	1703.91
406.05	1650.08
406.24	1675.82
406.43	1722.63
406.62	1748.38
406.81	1736.68
407.00	1746.04
407.20	1689.87
407.39	1727.32
407.58	1771.79
407.77	1790.51
407.96	1916.90
408.15	1898.17
408.34	1781.15
408.54	1874.77
408.73	1830.30
408.92	1870.09
409.11	1858.39
409.30	1956.69
409.49	1935.62
409.68	2001.16
409.87	1989.46
410.07	1996.48
410.26	1956.69
410.45	1987.11
410.64	2094.78
410.83	2099.46
411.02	1982.43
411.21	2174.36
411.40	2218.83
411.59	2136.91
411.78	2134.57
411.98	2211.81
412.17	2232.87
412.36	2291.38
412.55	2228.19
412.74	2307.77
412.93	2319.47
413.12	2307.77
413.31	2319.47
413.50	2319.47
413.69	2368.62
413.88	2424.80
414.07	2422.45
414.26	2495.01
414.45	2513.74
414.64	2537.14
414.83	2490.33
415.02	2485.65
415.22	2520.76
415.41	2661.19
415.60	2609.70
415.79	2588.63
415.98	2600.34
416.17	2658.85
416.36	2738.43
416.55	2689.28
416.74	2747.79
416.93	2860.13
417.12	2745.45
417.31	2885.88
417.50	2782.90
417.69	2946.73
417.88	3038.02
418.07	3000.57
418.26	2913.97
418.45	2930.35
418.64	3131.64
418.83	3105.89
419.02	2998.23
419.21	3002.91
419.39	3038.02
419.58	2972.48
419.77	3012.27
419.96	3176.11
420.15	3190.15
420.34	3180.79
420.53	3101.21
420.72	3180.79
420.91	3192.49
421.10	3316.54
421.29	3276.75
421.48	3199.51
421.67	3248.66
421.86	3211.22
422.05	3330.58
422.24	3300.16
422.43	3328.24
422.61	3351.65
422.80	3386.76
422.99	3356.33
423.18	3339.94
423.37	3456.97
423.56	3398.46
423.75	3332.92
423.94	3300.16
424.13	3096.53
424.32	3342.28
424.50	3361.01
424.69	3440.59
424.88	3585.70
425.07	3365.69
425.26	3330.58
425.45	3276.75
425.64	3398.46
425.83	3489.74
426.01	3515.48
426.20	3482.72
426.39	3452.29
426.58	3445.27
426.77	3531.87
426.96	3545.91
427.15	3527.19
427.33	3475.70
427.52	3545.91
427.71	3602.08
427.90	3684.00
428.09	3627.83
428.28	3648.90
428.46	3578.68
428.65	3578.68
428.84	3808.05
429.03	3768.26
429.22	3723.79
429.40	3634.85
429.59	3735.50
429.78	3576.34
429.97	3623.15
430.16	3709.75
430.34	3850.18
430.53	3941.46
430.72	3871.25
430.91	3819.75
431.10	3911.04
431.28	3817.41
431.47	3889.97
431.66	3957.85
431.85	3889.97
432.03	3932.10
432.22	4241.05
432.41	4098.28
432.60	4011.68
432.79	4093.60
432.97	4140.41
433.16	3955.51
433.35	4131.05
433.54	4124.02
433.72	4138.07
433.91	4217.65
434.10	4184.88
434.28	4121.68
434.47	4147.43
434.66	4259.78
434.85	4212.96
435.03	4355.74
435.22	4238.71
435.41	4210.62
435.59	4372.12
435.78	4470.42
435.97	4304.25
436.16	4348.72
436.34	4283.18
436.53	4472.76
436.72	4566.39
436.90	4414.25
437.09	4610.86
437.28	4477.44
437.46	4369.78
437.65	4491.49
437.84	4496.17
438.02	4535.96
438.21	4603.83
438.40	4550.00
438.58	4685.75
438.77	4699.80
438.96	4657.67
439.14	4786.40
439.33	4915.12
439.52	4751.29
439.70	4917.47
439.89	4971.30
440.08	5048.54
440.26	4985.34
440.45	4905.76
440.63	5022.79
440.82	5111.73
441.01	4891.72
441.19	5121.09
441.38	5121.09
441.57	5205.35
441.75	5174.92
441.94	5249.82
442.12	5210.03
442.31	5287.27
442.50	5387.91
442.68	5345.78
442.87	5420.68
443.05	5502.60
443.24	5509.62
443.43	5619.63
443.61	5418.34
443.80	5518.98
443.98	5350.46
444.17	5249.82
444.35	5551.75
444.54	5701.54
444.73	5570.48
444.91	5448.77
445.10	5556.43
445.28	5493.24
445.47	5575.16
445.65	5788.14
445.84	5680.48
446.02	5713.25
446.21	5584.52
446.39	5731.97
446.58	5748.36
446.77	5724.95
446.95	5657.07
447.14	5675.80
447.32	5734.31
447.51	5537.71
447.69	5860.70
447.88	5724.95
448.06	5612.60
448.25	5570.48
448.43	5729.63
448.62	5671.12
448.80	5715.59
448.99	5846.66
449.17	5895.81
449.36	5750.70
449.54	5860.70
449.73	5898.15
449.91	6097.10
450.10	6148.59
450.28	6066.67
450.46	6024.54
450.65	6113.48
450.83	6047.94
451.02	6066.67
451.20	6064.33
451.39	6246.89
451.57	6043.26
451.76	6179.01
451.94	6176.67
452.13	6143.91
452.31	6174.33
452.49	6069.01
452.68	6272.64
452.86	6317.11
453.05	6221.14
453.23	6373.28
453.42	6356.90
453.60	6260.93
453.78	6303.06
453.97	6335.83
454.15	6499.67
454.34	6183.70
454.52	6361.58
454.70	6382.64
454.89	6520.73
455.07	6473.92
455.26	6628.40
455.44	6686.91
455.62	6686.91
455.81	6604.99
455.99	6581.59
456.17	6686.91
456.36	6633.08
456.54	6743.08
456.73	6796.92
456.91	6970.12
457.09	7026.29
457.28	7091.82
457.46	6834.36
457.64	6920.96
457.83	6890.54
458.01	7016.93
458.19	7267.36
458.38	7040.33
458.56	7117.57
458.74	7026.29
458.93	7124.59
459.11	7171.40
459.29	7169.06
459.48	7152.68
459.66	7211.19
459.84	7288.43
460.03	7536.52
460.21	7368.01
460.39	7248.64
460.57	7344.60
460.76	7581.00
460.94	7440.56
461.12	7269.70
461.31	7276.73
461.49	7297.79
461.67	7342.26
461.85	7611.42
462.04	7473.33
462.22	7939.10
462.40	7655.89
462.59	7887.61
462.77	7550.57
462.95	7751.85
463.13	7700.36
463.32	7625.47
463.50	7803.35
463.68	7803.35
463.86	7927.39
464.05	7817.39
464.23	7742.49
464.41	7861.86
464.59	7885.26
464.78	8035.06
464.96	7819.73
465.14	7915.69
465.32	7985.91
465.50	7873.56
465.69	8215.28
465.87	8147.40
466.05	8049.10
466.23	8105.28
466.41	7992.93
466.60	8304.22
466.78	8121.66
466.96	8170.81
467.14	8269.11
467.32	8208.26
467.51	8423.59
467.69	8093.57
467.87	8168.47
468.05	8320.60
468.23	8315.92
468.41	8248.05
468.60	8175.49
468.78	8376.78
468.96	8280.82
469.14	8587.43
469.32	8589.77
469.50	8243.37
469.69	8456.36
469.87	8674.03
470.05	8830.84
470.23	8777.01
470.41	8807.44
470.59	8643.60
470.77	8655.30
470.95	8674.03
471.14	8870.63
471.32	8882.33
471.50	8990.00
471.68	8997.02
471.86	9078.94
472.04	9139.79
472.22	9085.96
472.40	9069.58
472.58	8997.02
472.77	9097.66
472.95	9350.44
473.13	9841.95
473.31	9226.39
473.49	9219.37
473.67	9390.23
473.85	9659.39
474.03	9472.15
474.21	9434.70
474.39	9514.28
474.57	9607.90
474.75	9860.68
474.93	9790.46
475.12	9825.57
475.30	9947.28
475.48	10097.07
475.66	10120.48
475.84	10057.28
476.02	10160.27
476.20	10068.98
476.38	10471.56
476.56	10373.25
476.74	10607.31
476.92	10403.68
477.10	10228.14
477.28	10630.71
477.46	10621.35
477.64	10574.54
477.82	10878.81
478.00	11206.48
478.18	10869.45
478.36	11037.97
478.54	11054.35
478.72	11131.59
478.90	10974.77
479.08	11623.10
479.26	11438.20
479.44	11534.16
479.62	11838.43
479.80	11712.04
479.98	11896.94
480.16	12180.15
480.34	12109.93
480.52	12271.43
480.70	12074.82
480.88	12053.76
481.06	12236.32
481.24	12245.68
481.41	12617.83
481.59	12587.40
481.77	12751.24
481.95	12840.18
482.13	12886.99
482.31	12765.28
482.49	13163.17
482.67	13067.21
482.85	13207.64
483.03	13451.06
483.21	13518.93
483.39	13680.43
483.57	13554.04
483.74	13750.65
483.92	13898.10
484.10	13930.87
484.28	14211.73
484.46	14438.76
484.64	14593.24
484.82	13846.61
485.00	14391.95
485.18	14572.18
485.35	14918.57
485.53	15077.73
485.71	15164.33
485.89	15105.82
486.07	15021.56
486.25	14944.32
486.43	15562.22
486.61	15194.76
486.78	15688.61
486.96	15742.44
487.14	15782.23
487.32	15925.00
487.50	16252.68
487.68	16477.37
487.85	16458.65
488.03	16519.50
488.21	16414.18
488.39	16669.30
488.57	16758.24
488.75	16975.91
488.92	16973.56
489.10	17355.07
489.28	17238.05
489.46	17668.70
489.64	17455.72
489.81	17975.31
489.99	17881.69
490.17	18293.63
490.35	18139.15
490.53	18272.56
490.70	18523.00
490.88	18738.33
491.06	18544.06
491.24	18806.20
491.41	18747.69
491.59	18871.74
491.77	18963.02
491.95	19119.84
492.13	19180.69
492.30	19405.38
492.48	19473.26
492.66	19503.68
492.84	19491.98
493.01	19763.48
493.19	20013.92
493.37	20011.58
493.54	20414.15
493.72	20252.66
493.90	20411.81
494.08	20444.58
494.25	20680.97
494.43	20744.17
494.61	20812.04
494.79	21324.62
494.96	21111.63
495.14	21228.66
495.32	21434.63
495.49	21514.20
495.67	21584.42
495.85	21493.14
496.02	21766.98
496.20	21963.59
496.38	21860.60
496.55	22288.92
496.73	22621.28
496.91	22405.95
497.09	22398.93
497.26	22677.45
497.44	22710.22
497.62	22679.79
497.79	23222.80
497.97	22878.74
498.14	23180.67
498.32	23578.56
498.50	23482.59
498.67	23730.69
498.85	23321.10
499.03	23543.45
499.20	23749.42
499.38	23791.55
499.56	23852.40
499.73	24081.77
499.91	24163.69
500.08	24451.58
500.26	24182.42
500.44	24435.19
500.61	24329.87
500.79	24346.25
500.97	24718.40
501.14	24978.20
501.32	25226.29
501.49	24758.19
501.67	25111.61
501.84	25071.82
502.02	25568.01
502.20	25326.94
502.37	25362.04
502.55	25233.32
502.72	25614.82
502.90	25673.34
503.07	25558.65
503.25	26111.02
503.43	25891.01
503.60	25961.22
503.78	25883.98
503.95	25876.96
504.13	26230.38
504.30	26426.99
504.48	26429.33
504.65	26588.49
504.83	26745.30
505.01	26801.47
505.18	26649.34
505.36	27159.58
505.53	26661.04
505.71	27239.15
505.88	26878.71
506.06	26862.33
506.23	27122.13
506.41	27143.19
506.58	27402.99
506.76	27515.34
506.93	27880.46
507.11	27571.51
507.28	27810.25
507.46	28006.85
507.63	28173.03
507.81	27929.61
507.98	28128.56
508.16	27831.31
508.33	28301.76
508.50	28329.84
508.68	28058.34
508.85	28601.35
509.03	28259.63
509.20	28723.05
509.38	28868.17
509.55	28936.04
509.73	28842.42
509.90	29032.00
510.08	28861.15
510.25	29085.84
510.42	29046.05
510.60	29134.99
510.77	29670.97
510.95	29745.87
511.12	29347.98
511.30	29401.81
511.47	29802.04
511.64	29663.95
511.82	29975.24
511.99	30026.73
512.17	29790.34
512.34	30209.29
512.51	30497.18
512.69	30281.85
512.86	30675.06
513.04	30242.06
513.21	30623.57
513.38	30820.17
513.56	31063.59
513.73	30410.58
513.90	30656.34
514.08	30822.51
514.25	30859.96
514.43	30794.43
514.60	31351.48
514.77	31274.24
514.95	31407.65
515.12	31395.95
515.29	31477.86
515.47	31426.37
515.64	31566.81
515.81	31311.69
515.99	31674.47
516.16	32257.26
516.33	31611.28
516.51	31978.74
516.68	32018.53
516.85	31903.84
517.03	32013.85
517.20	32086.40
517.37	32423.44
517.54	32168.32
517.72	32313.44
517.89	32608.34
518.06	32432.80
518.24	32343.86
518.41	32697.28
518.58	32978.15
518.75	32456.21
518.93	32716.01
519.10	33013.26
519.27	32954.74
519.45	33160.71
519.62	32891.55
519.79	33598.39
519.96	33340.93
520.14	33443.91
520.31	33242.63
520.48	33446.26
520.65	33757.55
520.83	33867.55
521.00	34066.50
521.17	33673.29
521.34	33755.21
521.52	34040.75
521.69	34038.41
521.86	34010.32
522.03	34312.25
522.20	34443.32
522.38	34532.26
522.55	34682.06
522.72	34572.05
522.89	34658.65
523.07	34574.39
523.24	34714.83
523.41	34785.04
523.58	34452.69
523.75	34927.81
523.92	34911.43
524.10	34836.53
524.27	35019.10
524.44	35419.33
524.61	35655.72
524.78	34869.30
524.96	35728.28
525.13	35828.92
525.30	35934.24
525.47	35899.14
525.64	35840.62
525.81	35627.63
525.98	35627.63
526.16	35833.60
526.33	35335.07
526.50	36079.36
526.67	36037.23
526.84	36292.35
527.01	36170.64
527.18	36175.32
527.36	36156.60
527.53	36355.54
527.70	36961.74
527.87	36704.28
528.04	36800.24
528.21	36547.47
528.38	36526.40
528.55	36996.85
528.72	36715.98
528.89	36928.97
529.07	36580.23
529.24	36685.56
529.41	36842.37
529.58	37226.22
529.75	37273.03
529.92	36999.19
530.09	37069.40
530.26	36914.93
530.43	37462.61
530.60	37305.80
530.77	37111.53
530.94	37289.42
531.11	37474.32
531.28	37205.16
531.46	37378.36
531.63	37731.78
531.80	37736.46
531.97	37790.29
532.14	37799.65
532.31	37691.99
532.48	38377.76
532.65	38227.97
532.82	38167.12
532.99	37951.79
533.16	37696.67
533.33	38347.34
533.50	38340.32
533.67	38501.81
533.84	38071.15
534.01	38316.91
534.18	38450.32
534.35	39023.75
534.52	38836.51
534.69	38569.69
534.86	38653.95
535.03	39065.88
535.20	38703.10
535.37	38990.98
535.54	39072.90
535.71	38946.51
535.88	39110.35
536.05	39321.00
536.22	39262.49
536.38	39103.33
536.55	39112.69
536.72	39044.82
536.89	39035.45
537.06	39431.01
537.23	39351.43
537.40	39435.69
537.57	39196.95
537.74	38951.20
537.91	39791.45
538.08	39798.47
538.25	39234.40
538.42	39136.10
538.59	40156.57
538.75	39828.90
538.92	40418.71
539.09	40067.63
539.26	39632.29
539.43	39978.69
539.60	40385.94
539.77	39775.06
539.94	40425.73
540.11	40172.96
540.28	40533.40
540.44	40149.55
540.61	40074.65
540.78	40032.52
540.95	39976.35
541.12	40179.98
541.29	40086.36
541.46	40367.22
541.62	40882.14
541.79	40992.14
541.96	40552.12
542.13	40463.18
542.30	40357.86
542.47	40842.35
542.63	40882.14
542.80	40783.83
542.97	41298.75
543.14	41514.08
543.31	41542.17
543.48	41099.81
543.64	41762.18
543.81	41734.09
543.98	41677.92
544.15	41682.60
544.32	41565.57
544.48	41741.11
544.65	41741.11
544.82	41949.42
544.99	41359.61
545.16	41647.49
545.32	41596.00
545.49	41853.46
545.66	42113.26
545.83	42246.67
546.00	42131.98
546.16	42263.05
546.33	41588.98
546.50	41916.65
546.67	42473.70
546.83	41537.49
547.00	41556.21
547.17	42117.94
547.34	41764.52
547.50	42249.01
547.67	42820.10
547.84	42462.00
548.00	42373.06
548.17	42682.01
548.34	42635.20
548.51	42843.51
548.67	42557.96
548.84	42880.95
549.01	43229.69
549.18	42672.65
549.34	42808.40
549.51	43283.53
549.68	42344.97
549.84	43030.75
550.01	43063.52
550.18	42974.58
550.34	43201.61
550.51	42845.85
550.68	43056.50
550.84	42834.14
551.01	43246.08
551.18	43157.14
551.34	42848.19
551.51	43578.43
551.68	43213.31
551.84	43405.23
552.01	43393.53
552.18	43299.91
552.34	43089.26
552.51	43475.45
552.68	43278.85
552.84	43672.06
553.01	43519.92
553.18	43356.08
553.34	43934.20
553.51	43278.85
553.67	43817.17
553.84	44186.97
554.01	43821.85
554.17	44243.15
554.34	43543.33
554.51	43957.60
554.67	44116.76
554.84	43917.81
555.00	44460.82
555.17	43976.33
555.33	44161.23
555.50	44072.29
555.67	44004.41
555.83	44091.01
556.00	43955.26
556.16	45050.63
556.33	44418.69
556.50	44638.70
556.66	44074.63
556.83	44027.82
556.99	44507.63
557.16	44421.03
557.32	44465.50
557.49	44591.89
557.65	44306.34
557.82	44622.31
557.98	44734.66
558.15	44844.66
558.32	44949.99
558.48	44409.32
558.65	44341.45
558.81	44472.52
558.98	44774.45
559.14	44921.90
559.31	44722.96
559.47	44495.92
559.64	45038.93
559.80	44652.74
559.97	44814.24
560.13	44734.66
560.30	44957.01
560.46	45191.06
560.63	44870.41
560.79	44949.99
560.96	45170.00
561.12	45347.88
561.29	45478.95
561.45	45125.53
561.61	45198.09
561.78	44839.98
561.94	44861.05
562.11	44994.46
562.27	44959.35
562.44	44966.37
562.60	45301.07
562.77	45312.77
562.93	45146.59
563.10	45659.17
563.26	45635.77
563.42	45495.33
563.59	45144.25
563.75	45488.31
563.92	45137.23
564.08	45504.70
564.24	45462.57
564.41	45144.25
564.57	45560.87
564.74	45401.71
564.90	45277.66
565.07	45556.19
565.23	45595.98
565.39	45368.94
565.56	46209.20
565.72	45427.46
565.88	45855.78
566.05	46033.66
566.21	45680.24
566.38	45268.30
566.54	45982.16
566.70	45572.57
566.87	46157.70
567.03	45743.43
567.19	45748.11
567.36	45528.10
567.52	46043.02
567.68	45944.72
567.85	45837.05
568.01	45741.09
568.17	45682.58
568.34	45567.89
568.50	45759.81
568.66	45645.13
568.83	45951.74
568.99	45972.80
569.15	45968.12
569.32	46005.57
569.48	45879.18
569.64	46092.17
569.81	45684.92
569.97	45893.22
570.13	46277.07
570.30	45958.76
570.46	46148.34
570.62	46241.96
570.78	46391.76
570.95	45965.78
571.11	46248.99
571.27	46141.32
571.43	45848.75
571.60	45848.75
571.76	45797.26
571.92	46143.66
572.09	46113.23
572.25	46241.96
572.41	46101.53
572.57	46298.14
572.74	46742.84
572.90	45989.19
573.06	46693.69
573.22	46307.50
573.38	46513.47
573.55	46527.51
573.71	46813.05
573.87	46412.82
574.03	46770.93
574.20	46752.20
574.36	46391.76
574.52	46452.61
574.68	46265.37
574.84	46532.19
575.01	46246.65
575.17	46323.88
575.33	46454.95
575.49	46335.59
575.65	46794.33
575.82	46728.80
575.98	46719.43
576.14	46644.54
576.30	46576.66
576.46	46197.49
576.62	46440.91
576.79	46422.19
576.95	45853.44
577.11	46291.12
577.27	46319.20
577.43	46789.65
577.59	46899.65
577.75	46220.90
577.92	46148.34
578.08	46131.96
578.24	46506.44
578.40	46651.56
578.56	46822.42
578.72	46712.41
578.88	46155.36
579.04	46490.06
579.21	46279.41
579.37	46590.70
579.53	46637.51
579.69	46550.91
579.85	46534.53
580.01	46609.43
580.17	46595.38
580.33	46707.73
580.49	46941.78
580.65	46361.33
580.82	46658.58
580.98	46293.46
581.14	46288.77
581.30	46595.38
581.46	46405.80
581.62	46611.77
581.78	46539.21
581.94	46394.10
582.10	46770.93
582.26	46876.25
582.42	46653.90
582.58	46911.36
582.74	46927.74
582.90	46696.03
583.06	46838.80
583.22	46480.70
583.38	46588.36
583.54	46569.64
583.70	46738.16
583.86	47114.98
584.02	46747.52
584.18	47538.62
584.34	46822.42
584.50	47206.26
584.66	47030.72
584.82	46763.90
584.98	47145.41
585.14	46738.16
585.30	46394.10
585.46	46916.04
585.62	46593.04
585.78	46822.42
585.94	46579.00
586.10	46527.51
586.26	46600.07
586.42	46838.80
586.58	46653.90
586.74	46763.90
586.90	46490.06
587.06	46806.03
587.22	47068.17
587.38	46754.54
587.54	46972.21
587.70	46653.90
587.86	47028.38
588.02	47173.50
588.18	47243.71
588.34	47082.22
588.49	46909.02
588.65	46419.84
588.81	46557.94
588.97	47150.09
589.13	46815.40
589.29	46864.55
589.45	47426.28
589.61	47009.66
589.77	46843.48
589.93	47040.09
590.08	47295.21
590.24	47269.46
590.40	47510.53
590.56	47395.85
590.72	47138.39
590.88	47192.22
591.04	47248.39
591.20	47407.55
591.35	47250.74
591.51	47683.73
591.67	47615.86
591.83	47655.65
591.99	47040.09
592.15	47751.61
592.31	47381.80
592.46	47299.89
592.62	47555.00
592.78	47405.21
592.94	47510.53
593.10	47608.84
593.26	47672.03
593.41	47920.13
593.57	47739.91
593.73	47494.15
593.89	47971.62
594.05	47672.03
594.20	47562.03
594.36	47966.94
594.52	47707.14
594.68	47681.39
594.84	47611.18
594.99	47786.72
595.15	47662.67
595.31	47512.88
595.47	47454.36
595.62	47810.12
595.78	47358.40
595.94	47442.66
596.10	47592.45
596.25	47643.94
596.41	47674.37
596.57	47681.39
596.73	47360.74
596.88	47674.37
597.04	47302.23
597.20	47363.08
597.36	47374.78
597.51	47826.51
597.67	47482.45
597.83	47306.91
597.99	47756.29
598.14	47215.63
598.30	47777.36
598.46	47391.17
598.61	47690.76
598.77	47938.85
598.93	47613.52
599.09	47779.70
599.24	48341.42
599.40	47643.94
599.56	47590.11
599.71	48020.77
599.87	48343.77
600.03	48018.43
600.18	47849.91
600.34	48006.73
600.50	47587.77
600.65	47725.86
600.81	47744.59
600.97	47899.06
601.12	47702.46
601.28	47608.84
601.44	47620.54
601.59	47772.67
601.75	47522.24
601.91	47817.14
602.06	47854.59
602.22	48133.12
602.37	47718.84
602.53	47821.83
602.69	48102.69
602.84	47920.13
603.00	47756.29
603.16	48016.09
603.31	47437.98
603.47	47943.53
603.62	47828.85
603.78	47831.19
603.94	47728.20
604.09	47489.47
604.25	47557.35
604.40	47966.94
604.56	47753.95
604.71	47695.44
604.87	47873.32
605.03	47608.84
605.18	47564.37
605.34	47660.33
605.49	47255.42
605.65	48030.13
605.80	47540.96
605.96	47456.70
606.12	47615.86
606.27	48208.01
606.43	47255.42
606.58	47676.71
606.74	47636.92
606.89	47662.67
607.05	47863.96
607.20	47840.55
607.36	47643.94
607.51	47583.09
607.67	47489.47
607.82	47709.48
607.98	47323.29
608.13	47423.93
608.29	47587.77
608.44	47449.68
608.60	47613.52
608.75	47641.60
608.91	47725.86
609.06	47243.71
609.22	47529.26
609.37	47278.82
609.53	47681.39
609.68	47442.66
609.84	47049.45
609.99	47295.21
610.15	47524.58
610.30	47503.51
610.46	47077.54
610.61	47555.00
610.76	47749.27
610.92	47166.48
611.07	47367.76
611.23	47140.73
611.38	46983.91
611.54	47215.63
611.69	47501.17
611.84	47803.10
612.00	47220.31
612.15	47248.39
612.31	47620.54
612.46	47175.84
612.62	47098.60
612.77	47590.11
612.92	47405.21
613.08	47175.84
613.23	46721.77
613.39	47208.61
613.54	46944.12
613.69	47133.71
613.85	47356.06
614.00	47194.56
614.15	47021.36
614.31	46890.29
614.46	46806.03
614.62	46892.63
614.77	46878.59
614.92	46721.77
615.08	46983.91
615.23	46815.40
615.38	47203.92
615.54	47208.61
615.69	46471.34
615.84	47009.66
616.00	47250.74
616.15	47271.80
616.30	46745.18
616.46	46913.70
616.61	46918.38
616.76	46799.01
616.92	46667.94
617.07	46962.85
617.22	46679.64
617.37	46560.28
617.53	46389.42
617.68	46822.42
617.83	46843.48
617.99	46845.82
618.14	46466.66
618.29	45837.05
618.45	46368.35
618.60	46454.95
618.75	46263.03
618.90	46567.30
619.06	46511.13
619.21	46354.31
619.36	46387.08
619.51	46220.90
619.67	46068.76
619.82	46314.52
619.97	46555.60
620.12	46438.57
620.28	46499.42
620.43	46415.16
620.58	46817.74
620.73	46574.32
620.89	46775.61
621.04	46511.13
621.19	46279.41
621.34	46295.80
621.49	46108.55
621.65	46471.34
621.80	46761.56
621.95	46541.55
622.10	46457.29
622.25	46300.48
622.41	46213.88
622.56	45656.83
622.71	46487.72
622.86	46153.02
623.01	46504.10
623.16	46045.36
623.32	46157.70
623.47	46454.95
623.62	45914.29
623.77	45869.82
623.92	46153.02
624.07	46043.02
624.23	45996.21
624.38	46078.13
624.53	45675.55
624.68	45961.10
624.83	45495.33
624.98	45530.44
625.13	45556.19
625.29	45483.63
625.44	45617.04
625.59	45525.76
625.74	45607.68
625.89	45144.25
626.04	45359.58
626.19	45642.79
626.34	45151.27
626.49	45265.96
626.65	45151.27
626.80	45095.10
626.95	45127.87
627.10	44854.03
627.25	45298.73
627.40	45619.38
627.55	45684.92
627.70	45476.61
627.85	45277.66
628.00	45373.63
628.15	45284.68
628.30	44814.24
628.45	44818.92
628.60	44781.47
628.76	45593.64
628.91	44821.26
629.06	44865.73
629.21	44973.39
629.36	44711.25
629.51	44737.00
629.66	45148.93
629.81	44793.17
629.96	45071.70
630.11	44942.97
630.26	44648.06
630.41	45043.61
630.56	44849.35
630.71	44828.28
630.86	45104.46
631.01	44767.43
631.16	44495.92
631.31	44779.13
631.46	44814.24
631.61	44694.87
631.76	44692.53
631.91	44839.98
632.06	45083.40
632.21	44835.30
632.36	44814.24
632.51	44617.63
632.66	44957.01
632.81	44285.28
632.96	44020.80
633.10	44072.29
633.25	44355.49
633.40	44449.11
633.55	44531.03
633.70	44500.61
633.85	44334.43
634.00	44212.72
634.15	44533.37
634.30	44385.92
634.45	43880.36
634.60	44046.54
634.75	44112.08
634.90	44708.91
635.05	44556.78
635.19	43819.51
635.34	44245.49
635.49	43945.90
635.64	43922.49
635.79	44222.08
635.94	44781.47
636.09	44296.98
636.24	43885.04
636.39	44051.22
636.53	44004.41
636.68	43611.20
636.83	43732.91
636.98	43688.44
637.13	43470.77
637.28	43548.01
637.43	43161.82
637.57	43468.43
637.72	43416.94
637.87	43833.55
638.02	43498.86
638.17	43650.99
638.32	43646.31
638.46	43257.78
638.61	43220.33
638.76	43250.76
638.91	43283.53
639.06	43098.62
639.20	43225.01
639.35	42997.98
639.50	43313.95
639.65	43225.01
639.80	43367.79
639.94	43826.53
640.09	43318.64
640.24	43545.67
640.39	42958.19
640.54	42735.84
640.68	43196.93
640.83	43391.19
640.98	43152.46
641.13	42923.08
641.27	43665.03
641.42	43096.28
641.57	42948.83
641.72	42920.74
641.86	42803.72
642.01	42836.48
642.16	42689.03
642.31	42693.71
642.45	43393.53
642.60	42745.20
642.75	42738.18
642.90	42656.26
643.04	43100.97
643.19	42817.76
643.34	42642.22
643.48	42433.91
643.63	42499.45
643.78	42492.43
643.93	43049.47
644.07	42794.36
644.22	42579.03
644.37	42574.34
644.51	42574.34
644.66	42625.84
644.81	42845.85
644.95	42642.22
645.10	42401.14
645.25	42014.96
645.39	42403.49
645.54	42410.51
645.69	41827.71
645.83	41888.57
645.98	41928.36
646.13	42527.53
646.27	42777.97
646.42	42000.91
646.57	42211.56
646.71	42518.17
646.86	42314.55
647.00	42590.73
647.15	42096.88
647.30	42078.15
647.44	41982.19
647.59	41741.11
647.74	41862.82
647.88	41911.97
648.03	42131.98
648.17	42415.19
648.32	42026.66
648.47	42394.12
648.61	41792.61
648.76	41865.16
648.90	41954.10
649.05	41673.24
649.20	41968.15
649.34	42071.13
649.49	41724.73
649.63	41783.24
649.78	42094.53
649.92	41710.69
650.07	42113.26
650.21	41801.97
650.36	41923.68
650.51	41670.90
650.65	42050.06
650.80	41904.95
650.94	42113.26
651.09	41411.10
651.23	41219.17
651.38	41172.36
651.52	41258.96
651.67	41471.95
651.81	41668.56
651.96	41361.95
652.10	41226.20
652.25	41130.23
652.39	41820.69
652.54	41979.85
652.68	41031.93
652.83	41359.61
652.97	40971.08
653.12	41413.44
653.26	40971.08
653.41	41132.57
653.55	40809.58
653.70	41207.47
653.84	41090.44
653.99	41567.91
654.13	41235.56
654.27	41055.34
654.42	40781.49
654.56	40598.93
654.71	40931.29
654.85	41186.41
655.00	40830.65
655.14	40762.77
655.29	41125.55
655.43	40847.03
655.57	40896.18
655.72	40685.53
655.86	40507.65
656.01	40594.25
656.15	40219.77
656.30	40678.51
656.44	40552.12
656.58	40484.25
656.73	41013.21
656.87	40435.10
657.01	40423.39
657.16	40594.25
657.30	40175.30
657.45	40308.71
657.59	40215.08
657.73	39831.24
657.88	40341.47
658.02	40430.41
658.16	40556.80
658.31	40453.82
658.45	40217.43
658.60	39887.41
658.74	39763.36
658.88	40140.19
659.03	40474.88
659.17	39908.47
659.31	39709.53
659.46	39796.13
659.60	39929.54
659.74	39660.38
659.89	39323.34
660.03	39239.08
660.17	39758.68
660.32	39658.04
660.46	39796.13
660.60	39634.63
660.74	39192.27
660.89	39449.73
661.03	39288.23
661.17	38803.74
661.32	39309.30
661.46	39302.28
661.60	39290.57
661.74	39075.24
661.89	38983.96
662.03	39353.77
662.17	38817.78
662.31	38948.85
662.46	38808.42
662.60	39421.64
662.74	38466.70
662.88	38504.15
663.03	38162.43
663.17	38445.64
663.31	38052.43
663.45	39203.97
663.60	38707.78
663.74	38621.18
663.88	38349.68
664.02	38263.08
664.17	38455.00
664.31	38242.01
664.45	37886.25
664.59	37935.40
664.73	38181.16
664.88	38560.33
665.02	37532.83
665.16	37673.26
665.30	37823.06
665.44	38270.10
665.59	37326.86
665.73	37766.88
665.87	36940.68
666.01	37354.95
666.15	37551.56
666.29	37205.16
666.44	37633.47
666.58	37158.34
666.72	37151.32
666.86	37179.41
667.00	36940.68
667.14	37043.66
667.28	37053.02
667.43	36940.68
667.57	37069.40
667.71	37160.69
667.85	37151.32
667.99	37127.92
668.13	36465.55
668.27	36837.69
668.41	36657.47
668.56	36109.78
668.70	36055.95
668.84	35913.18
668.98	36308.73
669.12	36582.57
669.26	36425.76
669.40	36737.05
669.54	36350.86
669.68	36327.45
669.82	35833.60
669.96	35852.33
670.10	35328.05
670.25	36041.91
670.39	35592.53
670.53	35775.09
670.67	35637.00
670.81	36135.53
670.95	35693.17
671.09	35281.24
671.23	35576.14
671.37	35054.20
671.51	35398.26
671.65	35344.43
671.79	35075.27
671.93	34991.01
672.07	35243.79
672.21	35182.93
672.35	35117.40
672.49	35239.11
672.63	34352.04
672.77	34621.20
672.91	34934.84
673.05	34476.09
673.19	33792.65
673.33	34321.62
673.47	34265.44
673.61	34045.43
673.75	34026.71
673.89	34043.09
674.03	34040.75
674.17	33472.00
674.31	33504.77
674.45	33591.37
674.59	33743.50
674.73	33584.35
674.87	33359.66
675.01	33336.25
675.15	33413.49
675.29	32760.48
675.43	33191.14
675.56	33153.69
675.70	33174.75
675.84	33074.11
675.98	31611.28
676.12	32671.54
676.26	32708.99
676.40	32332.16
676.54	32290.03
676.68	32402.38
676.82	31990.44
676.96	32156.62
677.10	32304.07
677.23	31782.13
677.37	31871.07
677.51	31852.35
677.65	31810.22
677.79	31594.89
677.93	31424.03
678.07	31470.84
678.21	31065.93
678.34	30902.09
678.48	30962.95
678.62	30780.39
678.76	30874.01
678.90	30766.34
679.04	30661.02
679.18	31087.00
679.31	30396.54
679.45	30279.51
679.59	30080.56
679.73	30230.36
679.87	30223.34
680.00	30012.69
680.14	30043.12
680.28	29958.86
680.42	30064.18
680.56	29827.79
680.70	29563.31
680.83	29230.95
680.97	29600.76
681.11	29446.28
681.25	29151.37
681.39	28945.41
681.52	28786.25
681.66	28858.81
681.80	28683.27
681.94	28290.06
682.07	28393.04
682.21	28493.68
682.35	28046.64
682.49	28652.84
682.62	28634.11
682.76	28100.47
682.90	28018.55
683.04	27946.00
683.17	27981.10
683.31	27559.81
683.45	27356.18
683.59	27108.08
683.72	27573.85
683.86	27159.58
684.00	27185.32
684.13	27477.89
684.27	26803.82
684.41	26951.27
684.55	27246.18
684.68	26855.31
684.82	26515.93
684.96	26579.12
685.09	26607.21
685.23	26588.49
685.37	27054.25
685.50	26984.04
685.64	26513.59
685.78	25972.92
685.91	25816.11
686.05	25516.52
686.19	25570.35
686.32	25766.96
686.46	25282.47
686.60	25275.45
686.73	25385.45
686.87	25015.65
687.01	25282.47
687.14	25111.61
687.28	24889.26
687.42	24971.18
687.55	25062.46
687.69	24772.23
687.82	24713.72
687.96	24559.24
688.10	24526.47
688.23	24561.58
688.37	24601.37
688.50	24584.99
688.64	24210.50
688.78	24161.35
688.91	24137.94
689.05	24264.33
689.18	23852.40
689.32	23704.95
689.46	23194.71
689.59	23307.05
689.73	23735.37
689.86	23885.17
690.00	23339.82
690.13	23669.84
690.27	23117.47
690.41	22953.63
690.54	22953.63
690.68	22745.33
690.81	22789.80
690.95	22850.65
691.08	22441.06
691.22	22265.52
691.35	22455.10
691.49	22527.66
691.62	22167.21
691.76	21710.81
691.89	21858.26
692.03	21734.21
692.16	21443.99
692.30	21811.45
692.43	21497.82
692.57	21069.50
692.70	21231.00
692.84	21312.92
692.97	20697.36
693.11	21048.44
693.24	20870.56
693.38	21036.74
693.51	20924.39
693.65	20765.23
693.78	20624.80
693.92	20521.82
694.05	20357.98
694.19	20409.47
694.32	20318.19
694.45	20439.90
694.59	20187.12
694.72	20159.03
694.86	19976.47
694.99	19770.51
695.13	19740.08
695.26	19552.84
695.39	19232.18
695.53	19316.44
695.66	19477.94
695.80	19342.19
695.93	19239.20
696.07	19232.18
696.20	18733.65
696.33	18661.09
696.47	18869.40
696.60	18553.43
696.73	18787.48
696.87	18836.63
697.00	18792.16
697.14	18515.98
697.27	18106.38
697.40	18356.82
697.54	18235.11
697.67	18223.41
697.80	18068.94
697.94	18244.48
698.07	17795.09
698.21	17767.01
698.34	17895.74
698.47	17514.23
698.61	17156.13
698.74	17116.34
698.87	17334.01
699.01	17144.42
699.14	17172.51
699.27	17228.68
699.40	16933.78
699.54	16807.39
699.67	17064.85
699.80	16936.12
699.94	16957.18
700.07	16711.42
700.20	16596.74
700.34	16369.71
700.47	16505.46
700.60	16893.99
700.73	16535.88
700.87	16475.03
701.00	15967.13
701.13	15983.52
701.26	15871.17
701.40	16032.67
701.53	15756.49
701.66	15704.99
701.79	15564.56
701.93	15442.85
702.06	15391.36
702.19	15529.45
702.32	15220.50
702.46	15428.81
702.59	15599.67
702.72	15080.07
702.85	15538.82
702.99	15260.29
703.12	15014.54
703.25	14721.97
703.38	14782.82
703.51	15037.94
703.65	14623.67
703.78	14307.69
703.91	13942.57
704.04	14312.38
704.17	14174.28
704.31	14434.08
704.44	14108.75
704.57	14277.27
704.70	14157.90
704.83	13811.50
704.96	13942.57
705.10	13844.27
705.23	13790.44
>>>>>End Processed Spectral Data<<<<<
