SpectraSuite Data File
++++++++++++++++++++++++++++++++++++
Date: Fri Oct 25 11:22:39 EDT 2013
User: price-jones
Dark Spectrum Present: No
Reference Spectrum Present: No
Number of Sampled Component Spectra: 1
Spectrometers: USB2+H05261
Integration Time (usec): 100000 (USB2+H05261)
Spectra Averaged: 1 (USB2+H05261)
Boxcar Smoothing: 0 (USB2+H05261)
Correct for Electrical Dark: No (USB2+H05261)
Strobe/Lamp Enabled: No (USB2+H05261)
Correct for Detector Non-linearity: No (USB2+H05261)
Correct for Stray Light: No (USB2+H05261)
Number of Pixels in Processed Spectrum: 2048
>>>>>Begin Processed Spectral Data<<<<<
365.73	189.58
365.92	189.58
366.12	189.58
366.32	124.05
366.52	74.90
366.72	140.43
366.91	107.66
367.11	88.94
367.31	121.71
367.51	117.03
367.70	189.58
367.90	152.13
368.10	166.18
368.30	126.39
368.49	81.92
368.69	119.37
368.89	135.75
369.09	70.22
369.28	166.18
369.48	147.45
369.68	210.65
369.87	152.13
370.07	173.20
370.27	208.31
370.47	318.31
370.66	571.09
370.86	610.88
371.06	688.12
371.25	688.12
371.45	615.56
371.65	667.05
371.84	645.99
372.04	655.35
372.24	730.25
372.44	657.69
372.63	704.50
372.83	699.82
373.03	779.40
373.22	725.57
373.42	784.08
373.62	779.40
373.81	765.36
374.01	732.59
374.21	781.74
374.40	821.53
374.60	870.68
374.79	882.38
374.99	800.46
375.19	880.04
375.38	882.38
375.58	880.04
375.78	887.06
375.97	835.57
376.17	891.74
376.37	908.13
376.56	849.61
376.76	840.25
376.95	793.44
377.15	835.57
377.35	910.47
377.54	894.08
377.74	894.08
377.93	903.45
378.13	968.98
378.33	884.72
378.52	912.81
378.72	908.13
378.91	919.83
379.11	999.41
379.31	959.62
379.50	933.87
379.70	1041.54
379.89	978.34
380.09	1076.65
380.28	947.92
380.48	1022.81
380.68	985.37
380.87	896.43
381.07	940.90
381.26	1067.28
381.46	945.58
381.65	929.19
381.85	987.71
382.04	1004.09
382.24	1046.22
382.43	1069.62
382.63	1057.92
382.83	1086.01
383.02	1118.78
383.22	1125.80
383.41	1116.44
383.61	1090.69
383.80	1188.99
384.00	1086.01
384.19	1130.48
384.39	1053.24
384.58	1076.65
384.78	1170.27
384.97	1184.31
385.17	1177.29
385.36	1132.82
385.56	1198.35
385.75	1170.27
385.95	1275.59
386.14	1224.10
386.34	1121.12
386.53	1228.78
386.72	1177.29
386.92	1238.14
387.11	1268.57
387.31	1231.12
387.50	1231.12
387.70	1301.34
387.89	1226.44
388.09	1238.14
388.28	1289.64
388.48	1226.44
388.67	1228.78
388.86	1376.24
389.06	1341.13
389.25	1420.71
389.45	1296.66
389.64	1348.15
389.84	1320.06
390.03	1427.73
390.22	1348.15
390.42	1394.96
390.61	1362.19
390.81	1366.87
391.00	1507.30
391.19	1490.92
391.39	1437.09
391.58	1519.01
391.78	1521.35
391.97	1437.09
392.16	1465.18
392.36	1523.69
392.55	1495.60
392.75	1504.96
392.94	1521.35
393.13	1439.43
393.33	1540.07
393.52	1556.46
393.71	1544.75
393.91	1584.54
394.10	1645.40
394.29	1582.20
394.49	1549.43
394.68	1598.59
394.88	1577.52
395.07	1659.44
395.26	1647.74
395.46	1645.40
395.65	1757.74
395.84	1750.72
396.04	1764.76
396.23	1818.60
396.42	1776.47
396.62	1736.68
396.81	1755.40
397.00	1692.21
397.19	1811.57
397.39	1858.39
397.58	1755.40
397.77	1806.89
397.97	1858.39
398.16	1851.36
398.35	1893.49
398.55	1827.96
398.74	1998.82
398.93	2005.84
399.12	1973.07
399.32	1947.33
399.51	1956.69
399.70	2045.63
399.90	1982.43
400.09	2015.20
400.28	2038.61
400.47	2012.86
400.67	2040.95
400.86	1973.07
401.05	2097.12
401.24	2127.55
401.44	2150.95
401.63	2052.65
401.82	2127.55
402.01	2179.04
402.21	2235.21
402.40	2242.23
402.59	2186.06
402.78	2293.72
402.97	2253.94
403.17	2246.91
403.36	2204.78
403.55	2368.62
403.74	2389.69
403.93	2420.11
404.13	2352.24
404.32	2352.24
404.51	2328.83
404.70	2569.91
404.89	2478.63
405.09	2389.69
405.28	2490.33
405.47	2576.93
405.66	2572.25
405.85	2504.37
406.05	2518.42
406.24	2562.89
406.43	2495.01
406.62	2623.74
406.81	2656.51
407.00	2513.74
407.20	2567.57
407.39	2583.95
407.58	2703.32
407.77	2715.02
407.96	2637.78
408.15	2705.66
408.34	2801.62
408.54	2722.04
408.73	2850.77
408.92	2754.81
409.11	2799.28
409.30	2965.46
409.49	2846.09
409.68	2808.64
409.87	2993.55
410.07	3054.40
410.26	3112.91
410.45	2974.82
410.64	2984.18
410.83	3063.76
411.02	3138.66
411.21	3389.10
411.40	3201.85
411.59	3159.72
411.78	3260.37
411.98	3187.81
412.17	3201.85
412.36	3194.83
412.55	3365.69
412.74	3438.25
412.93	3321.22
413.12	3372.71
413.31	3543.57
413.50	3529.53
413.69	3449.95
413.88	3658.26
414.07	3660.60
414.26	3691.02
414.45	3564.64
414.64	3730.81
414.83	3967.21
415.02	3885.29
415.22	3812.73
415.41	3908.69
415.60	3810.39
415.79	3927.42
415.98	4102.96
416.17	4035.08
416.36	4030.40
416.55	3918.06
416.74	4215.30
416.93	4133.39
417.12	4194.24
417.31	4072.53
417.50	4238.71
417.69	4381.48
417.88	4386.16
418.07	4252.75
418.26	4273.82
418.45	4397.87
418.64	4463.40
418.83	4472.76
419.02	4390.84
419.21	4458.72
419.39	4580.43
419.58	4440.00
419.77	4461.06
419.96	4631.92
420.15	4643.62
420.34	4856.61
420.53	4564.04
420.72	4690.43
420.91	4770.01
421.10	4758.31
421.29	4835.55
421.48	4772.35
421.67	4636.60
421.86	4739.58
422.05	4919.81
422.24	4826.18
422.43	4884.70
422.61	4994.70
422.80	4901.08
422.99	4933.85
423.18	4985.34
423.37	5022.79
423.56	4959.60
423.75	4950.23
423.94	4957.25
424.13	4727.88
424.32	4744.27
424.50	5022.79
424.69	5167.90
424.88	5062.58
425.07	5055.56
425.26	4952.57
425.45	5034.49
425.64	4926.83
425.83	4926.83
426.01	5102.37
426.20	5069.60
426.39	5104.71
426.58	5015.77
426.77	5212.37
426.96	5142.16
427.15	5139.82
427.33	5153.86
427.52	5235.78
427.71	5263.86
427.90	5320.04
428.09	5366.85
428.28	5291.95
428.46	5392.59
428.65	5469.83
428.84	5710.91
429.03	5572.82
429.22	5427.70
429.40	5530.69
429.59	5523.66
429.78	5224.08
429.97	5373.87
430.16	5357.49
430.34	5607.92
430.53	5638.35
430.72	5610.26
430.91	5750.70
431.10	5558.77
431.28	5804.53
431.47	5818.57
431.66	5907.51
431.85	5799.85
432.03	6003.47
432.22	5970.71
432.41	5879.43
432.60	6045.60
432.79	6284.34
432.97	6019.86
433.16	5994.11
433.35	6132.20
433.54	6211.78
433.72	6127.52
433.91	6258.59
434.10	6141.57
434.28	6111.14
434.47	6134.54
434.66	6403.71
434.85	6345.19
435.03	6413.07
435.22	6328.81
435.41	6445.84
435.59	6382.64
435.78	6480.94
435.97	6487.96
436.16	6382.64
436.34	6562.86
436.53	6607.33
436.72	6644.78
436.90	6448.18
437.09	6899.90
437.28	6609.67
437.46	6764.15
437.65	6752.45
437.84	6881.18
438.02	6733.72
438.21	6864.79
438.40	6759.47
438.58	7185.44
438.77	7042.67
438.96	7042.67
439.14	7300.13
439.33	7222.89
439.52	7187.79
439.70	7318.86
439.89	7410.14
440.08	7323.54
440.26	7417.16
440.45	7386.73
440.63	7470.99
440.82	7618.44
441.01	7653.55
441.19	7602.06
441.38	7749.51
441.57	7812.71
441.75	7878.24
441.94	8037.40
442.12	8058.46
442.31	8091.23
442.50	8210.60
442.68	8018.68
442.87	8116.98
443.05	8336.99
443.24	8332.31
443.43	8191.88
443.61	8308.90
443.80	8475.08
443.98	7943.78
444.17	7784.62
444.35	8147.40
444.54	8524.23
444.73	8325.29
444.91	8486.78
445.10	8278.47
445.28	8458.70
445.47	8266.77
445.65	8608.49
445.84	8514.87
446.02	8503.17
446.21	8552.32
446.39	8437.63
446.58	8573.38
446.77	8475.08
446.95	8432.95
447.14	8470.40
447.32	8531.25
447.51	8472.74
447.69	8533.59
447.88	8458.70
448.06	8414.23
448.25	8688.07
448.43	8610.83
448.62	8671.68
448.80	8514.87
448.99	8802.75
449.17	8784.03
449.36	8606.15
449.54	8917.44
449.73	8931.48
449.91	9071.92
450.10	9029.79
450.28	9132.77
450.46	9139.79
450.65	9191.28
450.83	9104.68
451.02	8966.59
451.20	9341.08
451.39	9284.91
451.57	9270.86
451.76	9081.28
451.94	9121.07
452.13	9270.86
452.31	9479.17
452.49	9401.93
452.68	9523.64
452.86	9287.25
453.05	9479.17
453.23	9378.53
453.42	9317.67
453.60	9369.16
453.78	9755.35
453.97	9343.42
454.15	9607.90
454.34	9598.54
454.52	9767.06
454.70	9802.16
454.89	9738.97
455.07	9717.90
455.26	9966.00
455.44	9907.49
455.62	10061.96
455.81	10087.71
455.99	10047.92
456.17	9907.49
456.36	10150.90
456.54	10356.87
456.73	10429.43
456.91	10586.24
457.09	10616.67
457.28	10644.76
457.46	10314.74
457.64	10459.85
457.83	10375.59
458.01	10661.14
458.19	10721.99
458.38	10593.26
458.56	10857.75
458.74	10937.32
458.93	10759.44
459.11	10630.71
459.29	10740.72
459.48	10930.30
459.66	10710.29
459.84	11007.54
460.03	11049.67
460.21	11342.24
460.39	10864.77
460.57	11145.63
460.76	11325.85
460.94	11119.89
461.12	11084.78
461.31	11356.28
461.49	11059.03
461.67	11082.44
461.85	11548.20
462.04	11641.82
462.22	11941.41
462.40	11693.32
462.59	11765.87
462.77	11721.40
462.95	11557.57
463.13	11709.70
463.32	11777.58
463.50	11920.35
463.68	11936.73
463.86	11943.75
464.05	11847.79
464.23	11695.66
464.41	11918.01
464.59	11679.27
464.78	12238.66
464.96	11974.18
465.14	11946.09
465.32	12367.39
465.50	12098.23
465.69	12229.30
465.87	12161.42
466.05	11999.93
466.23	12208.23
466.41	12175.47
466.60	12549.95
466.78	12255.04
466.96	12475.06
467.14	12135.68
467.32	12395.48
467.51	12652.94
467.69	12430.59
467.87	12362.71
468.05	12863.58
468.23	12468.03
468.41	12320.58
468.60	12784.01
468.78	12781.67
468.96	12648.26
469.14	12926.78
469.32	13095.30
469.50	12856.56
469.69	12971.25
469.87	13167.85
470.05	13076.57
470.23	13249.77
470.41	13060.19
470.59	13460.42
470.77	13439.36
470.95	13132.75
471.14	13781.07
471.32	13418.29
471.50	13638.30
471.68	13628.94
471.86	13769.37
472.04	13781.07
472.22	14031.51
472.40	13734.26
472.58	13884.06
472.77	14017.47
472.95	14558.13
473.13	14558.13
473.31	14258.54
473.49	14324.08
473.67	14256.20
473.85	14530.05
474.03	14487.92
474.21	14537.07
474.39	14787.50
474.57	14799.21
474.75	15145.61
474.93	15246.25
475.12	15243.91
475.30	15316.47
475.48	15302.42
475.66	15623.08
475.84	15276.68
476.02	15494.35
476.20	15665.21
476.38	15674.57
476.56	16067.78
476.74	16025.65
476.92	15983.52
477.10	16013.95
477.28	16301.83
477.46	16318.22
477.64	16343.96
477.82	16624.83
478.00	17060.16
478.18	16865.90
478.36	17043.78
478.54	17336.35
478.72	17245.07
478.90	17474.44
479.08	17759.98
479.26	17816.16
479.44	18288.95
479.62	18132.13
479.80	18001.06
479.98	18417.68
480.16	18721.95
480.34	18473.85
480.52	19082.39
480.70	18712.58
480.88	18625.98
481.06	18986.43
481.24	19016.85
481.41	19325.80
481.59	19550.49
481.77	19419.42
481.95	19648.80
482.13	19957.75
482.31	19777.53
482.49	20430.54
482.67	20276.06
482.85	20599.05
483.03	20685.65
483.21	21006.31
483.39	21088.23
483.57	21053.12
483.74	21383.13
483.92	21664.00
484.10	21656.98
484.28	21511.86
484.46	22265.52
484.64	22317.01
484.82	22256.15
485.00	22628.30
485.18	23131.51
485.35	23311.74
485.53	23112.79
485.71	23435.78
485.89	23522.38
486.07	23667.50
486.25	23517.70
486.43	23723.67
486.61	24084.11
486.78	24308.80
486.96	24491.37
487.14	25060.12
487.32	24903.30
487.50	24844.79
487.68	25158.42
487.85	25465.03
488.03	25869.94
488.21	26094.63
488.39	25893.35
488.57	26494.86
488.75	26211.66
488.92	26548.70
489.10	27126.81
489.28	26838.92
489.46	27253.20
489.64	27087.02
489.81	28063.02
489.99	27763.43
490.17	28283.03
490.35	28137.92
490.53	28311.12
490.70	28435.17
490.88	28374.31
491.06	28929.02
491.24	28980.51
491.41	29259.04
491.59	29179.46
491.77	29584.37
491.95	29766.93
492.13	29724.80
492.30	30366.11
492.48	30553.35
492.66	30471.43
492.84	30469.09
493.01	31112.74
493.19	30752.30
493.37	31248.49
493.54	31632.34
493.72	31789.16
493.90	32161.30
494.08	31901.50
494.25	32458.55
494.43	32238.54
494.61	32547.49
494.79	32357.91
494.96	32765.16
495.14	33097.52
495.32	33244.97
495.49	33242.63
495.67	33879.25
495.85	33743.50
496.02	33998.62
496.20	34539.29
496.38	34937.18
496.55	34225.65
496.73	35452.09
496.91	34417.58
497.09	34955.90
497.26	35314.00
497.44	35152.51
497.62	35365.49
497.79	35880.41
497.97	35700.19
498.14	36198.73
498.32	36341.50
498.50	36458.52
498.67	36912.59
498.85	36577.89
499.03	36863.44
499.20	36900.89
499.38	37434.53
499.56	37563.26
499.73	37181.75
499.91	37390.06
500.08	38361.38
500.26	37921.36
500.44	37937.74
500.61	38457.34
500.79	38242.01
500.97	38565.01
501.14	38871.62
501.32	38667.99
501.49	38707.78
501.67	39093.97
501.84	39807.83
502.02	39133.76
502.20	39093.97
502.37	39498.88
502.55	39409.94
502.72	39735.27
502.90	39611.23
503.07	39768.04
503.25	40320.41
503.43	40289.98
503.60	40444.46
503.78	40332.11
503.95	40596.59
504.13	40713.62
504.30	41010.87
504.48	40786.18
504.65	41053.00
504.83	41315.14
505.01	41979.85
505.18	41483.66
505.36	42232.63
505.53	41305.77
505.71	41865.16
505.88	42164.75
506.06	41670.90
506.23	42354.33
506.41	42337.95
506.58	42431.57
506.76	42532.22
506.93	42827.12
507.11	42756.91
507.28	42784.99
507.46	43061.18
507.63	43093.94
507.81	43430.98
507.98	42967.55
508.16	43674.40
508.33	43702.48
508.50	43943.56
508.68	43922.49
508.85	44383.58
509.03	43723.55
509.20	44203.36
509.38	44514.65
509.55	44835.30
509.73	45097.44
509.90	44699.55
510.08	44959.35
510.25	45045.95
510.42	45127.87
510.60	45502.35
510.77	45390.01
510.95	45579.59
511.12	45448.52
511.30	45462.57
511.47	45738.75
511.64	45935.35
511.82	46396.44
511.99	46209.20
512.17	46405.80
512.34	46120.26
512.51	47065.83
512.69	46740.50
512.86	46763.90
513.04	46850.50
513.21	47009.66
513.38	46712.41
513.56	47037.75
513.73	46806.03
513.90	47061.15
514.08	47789.06
514.25	47760.97
514.43	47414.57
514.60	47784.38
514.77	47725.86
514.95	48170.57
515.12	47880.34
515.29	47379.46
515.47	48217.38
515.64	48556.75
515.81	47796.08
515.99	48505.26
516.16	48975.71
516.33	48734.63
516.51	49066.99
516.68	48746.34
516.85	49027.20
517.03	49221.47
517.20	49146.57
517.37	48774.42
517.54	49385.30
517.72	49389.98
517.89	49095.08
518.06	49570.21
518.24	49600.63
518.41	50012.57
518.58	49837.03
518.75	49668.51
518.93	49916.61
519.10	49497.65
519.27	49839.37
519.45	50162.36
519.62	50199.81
519.79	50258.32
519.96	50520.46
520.14	50433.86
520.31	50351.94
520.48	50621.11
520.65	50417.48
520.83	50831.75
521.00	51157.09
521.17	50939.42
521.34	50939.42
521.52	51217.94
521.69	51058.79
521.86	51264.75
522.03	51423.91
522.20	51618.17
522.38	51906.06
522.55	51826.48
522.72	51714.14
522.89	51613.49
523.07	51861.59
523.24	51655.62
523.41	51842.87
523.58	51625.20
523.75	52222.03
523.92	51840.53
524.10	52231.40
524.27	52163.52
524.44	52381.19
524.61	52257.14
524.78	52781.42
524.96	52821.21
525.13	52617.58
525.30	52919.51
525.47	52708.86
525.64	52891.43
525.81	52987.39
525.98	53024.84
526.16	53034.20
526.33	53120.80
526.50	52959.30
526.67	53020.16
526.84	53052.92
527.01	53001.43
527.18	53221.44
527.36	53212.08
527.53	53488.26
527.70	53588.91
527.87	53598.27
528.04	53066.97
528.21	53837.00
528.38	53490.60
528.55	53743.38
528.72	53844.02
528.89	53509.33
529.07	53659.12
529.24	53727.00
529.41	54150.63
529.58	53811.26
529.75	53813.60
529.92	54164.68
530.09	54040.63
530.26	54028.93
530.43	54232.55
530.60	54323.83
530.77	54216.17
530.94	54190.42
531.11	54183.40
531.28	54518.10
531.46	54487.67
531.63	54487.67
531.80	54588.31
531.97	54714.70
532.14	54831.73
532.31	54707.68
532.48	54789.60
532.65	55058.76
532.82	54869.18
532.99	55056.42
533.16	54892.58
533.33	55185.15
533.50	55320.90
533.67	55147.70
533.84	54981.52
534.01	54920.67
534.18	55360.69
534.35	55458.99
534.52	55128.98
534.69	55491.76
534.86	55531.55
535.03	55173.45
535.20	55416.86
535.37	55512.83
535.54	55569.00
535.71	55330.26
535.88	55657.94
536.05	55632.19
536.22	55683.69
536.38	55683.69
536.55	55756.24
536.72	55791.35
536.89	55796.03
537.06	55955.19
537.23	55913.06
537.40	55798.37
537.57	55833.48
537.74	55901.36
537.91	56179.88
538.08	55978.59
538.25	56055.83
538.42	55899.01
538.59	56406.91
538.75	56196.26
538.92	56088.60
539.09	56383.51
539.26	56425.64
539.43	56348.40
539.60	56631.60
539.77	56495.85
539.94	56788.42
540.11	56519.26
540.28	56587.13
540.44	56566.07
540.61	56376.48
540.78	56704.16
540.95	56402.23
541.12	56727.56
541.29	56853.95
541.46	56816.50
541.62	56809.48
541.79	56882.04
541.96	56566.07
542.13	56713.52
542.30	57095.03
542.47	57073.96
542.63	57006.09
542.80	57324.40
542.97	57261.21
543.14	57394.62
543.31	57240.14
543.48	57441.43
543.64	57710.59
543.81	57460.15
543.98	57542.07
544.15	57621.65
544.32	57724.63
544.48	57844.00
544.65	57682.50
544.82	57521.01
544.99	57476.54
545.16	57925.92
545.32	57467.17
545.49	57715.27
545.66	58031.24
545.83	57975.07
546.00	57869.75
546.16	57696.55
546.33	57717.61
546.50	57708.25
546.67	57916.56
546.83	57623.99
547.00	57965.71
547.17	57846.34
547.34	57886.13
547.50	58150.61
547.67	58183.38
547.84	58028.90
548.00	58403.39
548.17	58494.67
548.34	58239.55
548.51	58363.60
548.67	58382.32
548.84	58539.14
549.01	58286.36
549.18	58550.84
549.34	58497.01
549.51	58574.25
549.68	58632.76
549.84	58618.72
550.01	58468.92
550.18	58302.74
550.34	58880.86
550.51	58625.74
550.68	58578.93
550.84	58546.16
551.01	58805.96
551.18	58726.38
551.34	58670.21
551.51	58827.02
551.68	58595.31
551.84	58618.72
552.01	58789.58
552.18	58897.24
552.34	58686.59
552.51	58866.81
552.68	58656.17
552.84	58911.28
553.01	59194.49
553.18	59049.38
553.34	59002.56
553.51	58808.30
553.67	58960.44
553.84	59171.08
554.01	59166.40
554.17	59203.85
554.34	58920.65
554.51	59370.03
554.67	59370.03
554.84	59180.45
555.00	59341.94
555.17	59114.91
555.33	59290.45
555.50	59128.95
555.67	59168.74
555.83	59199.17
556.00	59283.43
556.16	59664.94
556.33	59473.01
556.50	59519.82
556.66	59498.76
556.83	59423.86
556.99	59639.19
557.16	59653.23
557.32	59678.98
557.49	59709.41
557.65	59559.61
557.82	59629.83
557.98	59517.48
558.15	59545.57
558.32	59777.28
558.48	59503.44
558.65	59744.51
558.81	59646.21
558.98	59786.64
559.14	59938.78
559.31	59849.84
559.47	60046.44
559.64	59889.63
559.80	59917.71
559.97	60133.04
560.13	59721.11
560.30	59863.88
560.46	59948.14
560.63	59877.93
560.79	59807.71
560.96	60053.47
561.12	60060.49
561.29	60044.10
561.45	60093.25
561.61	59966.87
561.78	60032.40
561.94	60149.43
562.11	60058.15
562.27	60296.88
562.44	60226.66
562.60	60158.79
562.77	60027.72
562.93	59955.16
563.10	60165.81
563.26	60060.49
563.42	60470.08
563.59	60016.02
563.75	60383.48
563.92	60247.73
564.08	60212.62
564.24	60369.44
564.41	60289.86
564.57	60374.12
564.74	60573.06
564.90	60273.48
565.07	60331.99
565.23	60430.29
565.39	60301.56
565.56	60308.58
565.72	60427.95
565.88	60472.42
566.05	60236.03
566.21	60371.78
566.38	60528.59
566.54	60495.83
566.70	60577.75
566.87	60458.38
567.03	60247.73
567.19	60472.42
567.36	60402.21
567.52	60413.91
567.68	60882.02
567.85	60491.15
568.01	60718.18
568.17	60308.58
568.34	60636.26
568.50	60329.65
568.66	60678.39
568.83	60807.12
568.99	60626.90
569.15	60580.09
569.32	60587.11
569.48	60720.52
569.64	60708.82
569.81	60566.04
569.97	60715.84
570.13	60729.88
570.30	60746.26
570.46	60851.59
570.62	60746.26
570.78	60832.86
570.95	60631.58
571.11	60853.93
571.27	60685.41
571.43	60622.22
571.60	60867.97
571.76	60790.73
571.92	60926.49
572.09	60919.46
572.25	60856.27
572.41	60685.41
572.57	60673.71
572.74	60886.70
572.90	60858.61
573.06	60992.02
573.22	60839.89
573.38	60874.99
573.55	60940.53
573.71	61050.53
573.87	60711.16
574.03	60977.98
574.20	61024.79
574.36	60917.12
574.52	60851.59
574.68	61015.43
574.84	61003.72
575.01	60907.76
575.17	60935.85
575.33	60823.50
575.49	60830.52
575.65	61041.17
575.82	60874.99
575.98	60914.78
576.14	61277.57
576.30	61045.85
576.46	60757.97
576.62	60823.50
576.79	61118.41
576.95	60994.36
577.11	60949.89
577.27	61050.53
577.43	61080.96
577.59	60774.35
577.75	60783.71
577.92	60945.21
578.08	60977.98
578.24	60996.70
578.40	61153.52
578.56	61080.96
578.72	61139.47
578.88	61305.65
579.04	61230.75
579.21	61073.94
579.37	61132.45
579.53	61291.61
579.69	60938.19
579.85	60954.57
580.01	61087.98
580.17	60947.55
580.33	61003.72
580.49	61296.29
580.65	61226.07
580.82	60858.61
580.98	61010.74
581.14	61130.11
581.30	61221.39
581.46	60746.26
581.62	61043.51
581.78	61090.32
581.94	61139.47
582.10	61057.56
582.26	60977.98
582.42	60982.66
582.58	61130.11
582.74	61055.21
582.90	61083.30
583.06	60982.66
583.22	61059.90
583.38	61247.14
583.54	61169.90
583.70	61244.80
583.86	61186.28
584.02	60849.25
584.18	61254.16
584.34	61127.77
584.50	61207.35
584.66	61226.07
584.82	61045.85
584.98	61223.73
585.14	61247.14
585.30	61144.16
585.46	61193.31
585.62	60980.32
585.78	61361.82
585.94	60825.84
586.10	61305.65
586.26	61116.07
586.42	61240.12
586.58	61272.88
586.74	61118.41
586.90	61071.60
587.06	61223.73
587.22	61490.55
587.38	61305.65
587.54	61300.97
587.70	61371.19
587.86	61310.33
588.02	61251.82
588.18	61497.58
588.34	61134.79
588.49	61240.12
588.65	61029.47
588.81	61427.36
588.97	61455.45
589.13	61410.98
589.29	61305.65
589.45	61408.64
589.61	61415.66
589.77	61701.20
589.93	61542.05
590.08	61593.54
590.24	61183.94
590.40	61584.18
590.56	61638.01
590.72	61666.09
590.88	61450.77
591.04	61408.64
591.20	61792.48
591.35	61645.03
591.51	61642.69
591.67	61619.28
591.83	61577.15
591.99	61415.66
592.15	61546.73
592.31	61581.84
592.46	61609.92
592.62	61642.69
592.78	61506.94
592.94	61696.52
593.10	61516.30
593.26	61595.88
593.41	61579.49
593.57	61542.05
593.73	61649.71
593.89	61949.30
594.05	61780.78
594.20	61677.80
594.36	61652.05
594.52	61670.78
594.68	61598.22
594.84	61520.98
594.99	61900.15
595.15	61579.49
595.31	61682.48
595.47	61666.09
595.62	61542.05
595.78	61525.66
595.94	61811.21
596.10	61914.19
596.25	61968.02
596.41	61778.44
596.57	61750.35
596.73	61530.34
596.88	61645.03
597.04	61804.19
597.20	61769.08
597.36	61953.98
597.51	61911.85
597.67	61818.23
597.83	61684.82
597.99	61963.34
598.14	61806.53
598.30	61834.61
598.46	61745.67
598.61	61928.23
598.77	61684.82
598.93	61893.13
599.09	61989.09
599.24	61996.11
599.40	61982.07
599.56	61867.38
599.71	62047.60
599.87	62181.01
600.03	62075.69
600.18	61872.06
600.34	61839.29
600.50	62019.52
600.65	61757.38
600.81	61904.83
600.97	61961.00
601.12	61935.26
601.28	61689.50
601.44	61953.98
601.59	61977.39
601.75	62061.64
601.91	62049.94
602.06	62007.81
602.22	62173.99
602.37	62124.84
602.53	61848.66
602.69	61853.34
602.84	61893.13
603.00	61979.73
603.16	62117.82
603.31	62045.26
603.47	62068.67
603.62	61972.70
603.78	61958.66
603.94	62087.39
604.09	62028.88
604.25	62047.60
604.40	61975.05
604.56	62049.94
604.71	62195.06
604.87	61851.00
605.03	61958.66
605.18	61911.85
605.34	61979.73
605.49	61846.32
605.65	62068.67
605.80	61982.07
605.96	61928.23
606.12	62120.16
606.27	62035.90
606.43	61822.91
606.58	62021.86
606.74	61787.80
606.89	61918.87
607.05	61790.14
607.20	61923.55
607.36	61656.73
607.51	61888.45
607.67	61689.50
607.82	61801.85
607.98	61815.89
608.13	61839.29
608.29	61979.73
608.44	61801.85
608.60	61820.57
608.75	61773.76
608.91	61689.50
609.06	61731.63
609.22	61879.08
609.37	61595.88
609.53	61839.29
609.68	61773.76
609.84	61804.19
609.99	61951.64
610.15	61764.40
610.30	61822.91
610.46	61860.36
610.61	61726.95
610.76	61855.68
610.92	61872.06
611.07	61729.29
611.23	61635.67
611.38	61825.25
611.54	61612.26
611.69	61535.02
611.84	61975.05
612.00	61633.33
612.15	61684.82
612.31	61670.78
612.46	61394.59
612.62	61645.03
612.77	61698.86
612.92	61736.31
613.08	61623.96
613.23	61616.94
613.39	61717.59
613.54	61528.00
613.69	61581.84
613.85	61579.49
614.00	61745.67
614.15	61780.78
614.31	61689.50
614.46	61607.58
614.62	61591.20
614.77	61532.68
614.92	61584.18
615.08	61560.77
615.23	61556.09
615.38	61656.73
615.54	61441.40
615.69	61598.22
615.84	61352.46
616.00	61509.28
616.15	61347.78
616.30	61703.54
616.46	61586.52
616.61	61340.76
616.76	61595.88
616.92	61209.69
617.07	61455.45
617.22	61286.93
617.37	61621.62
617.53	61703.54
617.68	61544.39
617.83	61307.99
617.99	61422.68
618.14	61450.77
618.29	61432.04
618.45	61317.35
618.60	61268.20
618.75	61235.44
618.90	61279.91
619.06	61422.68
619.21	61532.68
619.36	61380.55
619.51	61450.77
619.67	61158.20
619.82	61382.89
619.97	61300.97
620.12	61293.95
620.28	61212.03
620.43	61298.63
620.58	61085.64
620.73	61125.43
620.89	61022.45
621.04	61221.39
621.19	61186.28
621.34	61160.54
621.49	61148.84
621.65	61158.20
621.80	61237.78
621.95	61181.60
622.10	61244.80
622.25	61106.71
622.41	61137.13
622.56	61059.90
622.71	61478.85
622.86	60807.12
623.01	60992.02
623.16	60900.74
623.32	61158.20
623.47	60959.25
623.62	61024.79
623.77	60889.04
623.92	61064.58
624.07	61176.92
624.23	61127.77
624.38	61006.06
624.53	60793.07
624.68	60772.01
624.83	61001.38
624.98	60928.83
625.13	60640.94
625.29	61015.43
625.44	61022.45
625.59	60779.03
625.74	60783.71
625.89	60818.82
626.04	60336.67
626.19	60561.36
626.34	60767.33
626.49	60559.02
626.65	60339.01
626.80	60786.05
626.95	60512.21
627.10	60678.39
627.25	60507.53
627.40	60547.32
627.55	60509.87
627.70	60643.28
627.85	60390.50
628.00	60456.04
628.15	60743.92
628.30	60287.52
628.45	60519.23
628.60	60463.06
628.76	60341.35
628.91	60638.60
629.06	60666.69
629.21	60612.85
629.36	60280.50
629.51	60348.37
629.66	60371.78
629.81	60336.67
629.96	59962.18
630.11	60294.54
630.26	60441.99
630.41	60236.03
630.56	60341.35
630.71	60339.01
630.86	60289.86
631.01	60254.75
631.16	60231.35
631.31	60210.28
631.46	60001.97
631.61	60324.97
631.76	60264.11
631.91	60355.39
632.06	60369.44
632.21	60226.66
632.36	60011.34
632.51	59887.29
632.66	60128.36
632.81	60020.70
632.96	60172.83
633.10	60144.75
633.25	60177.51
633.40	60107.30
633.55	59803.03
633.70	59997.29
633.85	60186.88
634.00	59913.03
634.15	60009.00
634.30	59604.08
634.45	59992.61
634.60	60104.96
634.75	60217.30
634.90	59849.84
635.05	59767.92
635.19	59688.34
635.34	59798.35
635.49	59938.78
635.64	59800.69
635.79	59955.16
635.94	59859.20
636.09	59781.96
636.24	59580.68
636.39	59688.34
636.53	59819.41
636.68	59978.57
636.83	59587.70
636.98	60025.38
637.13	59594.72
637.28	59657.91
637.43	59615.79
637.57	59704.73
637.72	59501.10
637.87	59648.55
638.02	59454.29
638.17	59835.80
638.32	59533.87
638.46	59468.33
638.61	59473.01
638.76	59524.50
638.91	59491.74
639.06	59421.52
639.20	59416.84
639.35	59334.92
639.50	59152.36
639.65	59372.37
639.80	59433.22
639.94	59339.60
640.09	59290.45
640.24	59433.22
640.39	59346.62
640.54	59414.50
640.68	59444.93
640.83	59519.82
640.98	59341.94
641.13	59131.29
641.27	59381.73
641.42	59098.53
641.57	59222.58
641.72	59051.72
641.86	59213.21
642.01	58967.46
642.16	59042.35
642.31	59166.40
642.45	59229.60
642.60	58997.88
642.75	59044.69
642.90	59377.05
643.04	59241.30
643.19	58937.03
643.34	58869.15
643.48	59100.87
643.63	59236.62
643.78	58997.88
643.93	59035.33
644.07	59058.74
644.22	59058.74
644.37	58913.62
644.51	59021.29
644.66	59044.69
644.81	59018.95
644.95	58894.90
645.10	58787.24
645.25	59201.51
645.39	58937.03
645.54	58829.37
645.69	58719.36
645.83	58878.52
645.98	58789.58
646.13	58705.32
646.27	58798.94
646.42	58623.40
646.57	58630.42
646.71	58702.98
646.86	58822.34
647.00	58651.48
647.15	58635.10
647.30	58684.25
647.44	58595.31
647.59	58899.58
647.74	58614.04
647.88	58841.07
648.03	58834.05
648.17	58710.00
648.32	58625.74
648.47	58454.88
648.61	58702.98
648.76	58609.35
648.90	58452.54
649.05	58508.71
649.20	58454.88
649.34	58539.14
649.49	58440.84
649.63	58569.57
649.78	58859.79
649.92	58529.78
650.07	58534.46
650.21	58391.68
650.36	58553.18
650.51	58272.32
650.65	58410.41
650.80	58213.80
650.94	58064.01
651.09	58183.38
651.23	58164.65
651.38	58330.83
651.52	58014.86
651.67	58209.12
651.81	58047.63
651.96	58239.55
652.10	58136.57
652.25	58045.29
652.39	58295.72
652.54	57733.99
652.68	57684.84
652.83	58227.85
652.97	57942.30
653.12	57993.79
653.26	58141.25
653.41	58246.57
653.55	58122.52
653.70	58124.86
653.84	58021.88
653.99	57872.09
654.13	57942.30
654.27	57733.99
654.42	57738.68
654.56	57904.85
654.71	57741.02
654.85	58033.58
655.00	57970.39
655.14	57869.75
655.29	57708.25
655.43	57623.99
655.57	57602.92
655.72	57790.17
655.86	57722.29
656.01	57638.03
656.15	57436.75
656.30	57776.12
656.44	57865.06
656.58	57616.97
656.73	57932.94
656.87	57738.68
657.01	57827.62
657.16	57523.35
657.30	57570.16
657.45	57373.55
657.59	57432.07
657.73	57284.61
657.88	57462.49
658.02	57277.59
658.16	57296.31
658.31	57284.61
658.45	57436.75
658.60	57406.32
658.74	57497.60
658.88	57268.23
659.03	56994.39
659.17	57200.35
659.31	57216.74
659.46	57120.77
659.60	57167.58
659.74	57106.73
659.89	56968.64
660.03	56921.83
660.17	57298.65
660.32	56830.55
660.46	57064.60
660.60	56898.42
660.74	56921.83
660.89	56900.76
661.03	56774.37
661.17	56624.58
661.32	56884.38
661.46	56554.36
661.60	56748.63
661.74	56753.31
661.89	56804.80
662.03	56594.15
662.17	56418.61
662.31	56512.23
662.46	56809.48
662.60	56395.21
662.74	56133.07
662.88	56322.65
663.03	56252.44
663.17	56332.01
663.31	56130.73
663.45	56308.61
663.60	56090.94
663.74	55990.30
663.88	56069.87
664.02	56011.36
664.17	56156.47
664.31	55636.87
664.45	55936.46
664.59	56044.13
664.73	55990.30
664.88	55819.44
665.02	55440.27
665.16	55512.83
665.30	55473.04
665.44	55606.45
665.59	55611.13
665.73	55723.47
665.87	55451.97
666.01	55505.80
666.15	55559.64
666.29	55363.03
666.44	55426.23
666.58	55145.36
666.72	55002.59
666.86	54955.78
667.00	55285.79
667.14	54969.82
667.28	55136.00
667.43	54993.23
667.57	55220.26
667.71	54749.81
667.85	54848.11
667.99	55044.72
668.13	54815.35
668.27	54695.98
668.41	54787.26
668.56	54499.37
668.70	54766.20
668.84	54375.33
668.98	54822.37
669.12	54656.19
669.26	54719.38
669.40	54653.85
669.54	54494.69
669.68	54209.15
669.82	54265.32
669.96	54436.18
670.10	54335.54
670.25	54593.00
670.39	54017.22
670.53	54096.80
670.67	53979.78
670.81	54316.81
670.95	54120.21
671.09	53727.00
671.23	53537.41
671.37	53736.36
671.51	53668.48
671.65	53429.75
671.79	53614.65
671.93	53628.69
672.07	53338.47
672.21	53368.90
672.35	53193.36
672.49	53242.51
672.63	53036.54
672.77	53301.02
672.91	53064.63
673.05	53066.97
673.19	52921.85
673.33	52807.17
673.47	53090.37
673.61	52830.57
673.75	52645.67
673.89	52296.93
674.03	52392.89
674.17	52280.55
674.31	52226.71
674.45	51966.91
674.59	52046.49
674.73	52329.70
674.87	52154.16
675.01	51915.42
675.15	51791.37
675.29	52102.67
675.43	51758.61
675.56	51704.77
675.70	51487.10
675.84	51189.86
675.98	50323.86
676.12	51393.48
676.26	51285.82
676.40	51501.15
676.54	50866.86
676.68	50759.20
676.82	50153.00
676.96	50586.00
677.10	50312.16
677.23	49851.07
677.37	50293.43
677.51	50712.39
677.65	50197.47
677.79	49062.31
677.93	49158.27
678.07	49731.70
678.21	49305.73
678.34	49216.78
678.48	48711.23
678.62	49008.48
678.76	48622.29
678.90	48818.89
679.04	48828.26
679.18	49041.24
679.31	48348.45
679.45	48563.78
679.59	48390.58
679.73	48673.78
679.87	48168.22
680.00	47927.15
680.14	47868.64
680.28	47573.73
680.42	47475.43
680.56	47227.33
680.70	46766.24
680.83	47477.77
680.97	47009.66
681.11	47133.71
681.25	47016.68
681.39	46969.87
681.52	46754.54
681.66	46593.04
681.80	46630.49
681.94	46501.76
682.07	46131.96
682.21	45897.91
682.35	45579.59
682.49	45366.60
682.62	45757.47
682.76	45902.59
682.90	45453.20
683.04	45371.28
683.17	45380.65
683.31	44957.01
683.45	44999.14
683.59	44900.84
683.72	44500.61
683.86	44582.52
684.00	44875.09
684.13	44329.75
684.27	44210.38
684.41	43739.93
684.55	43768.02
684.68	43735.25
684.82	43641.63
684.96	43480.13
685.09	43194.59
685.23	43194.59
685.37	42644.56
685.50	42731.16
685.64	42883.30
685.78	42574.34
685.91	42398.80
686.05	42454.98
686.19	41933.04
686.32	41230.88
686.46	41148.96
686.60	40844.69
686.73	41111.51
686.87	40837.67
687.01	41378.33
687.14	41359.61
687.28	41109.17
687.42	40821.28
687.55	40713.62
687.69	40832.99
687.82	40114.44
687.96	40348.50
688.10	39880.39
688.23	40280.62
688.37	39959.97
688.50	39498.88
688.64	39777.40
688.78	39119.71
688.91	38550.96
689.05	39108.01
689.18	38586.07
689.32	38199.88
689.46	38183.50
689.59	38335.63
689.73	37696.67
689.86	37869.87
690.00	37635.81
690.13	37825.40
690.27	37703.69
690.41	37743.48
690.54	37401.76
690.68	37212.18
690.81	37322.18
690.95	36898.55
691.08	36980.46
691.22	36493.63
691.35	36037.23
691.49	36505.34
691.62	36271.28
691.76	35786.79
691.89	35742.32
692.03	35747.00
692.16	35480.18
692.30	35295.28
692.43	35344.43
692.57	34951.22
692.70	34974.63
692.84	35129.10
692.97	34623.54
693.11	34974.63
693.24	34831.85
693.38	34410.56
693.51	34263.10
693.65	34274.80
693.78	33771.59
693.92	33951.81
694.05	33528.17
694.19	33780.95
694.32	33469.66
694.45	32858.78
694.59	33303.48
694.72	32879.85
694.86	32409.40
694.99	32570.90
695.13	32151.94
695.26	32109.81
695.39	31714.26
695.53	31669.79
695.66	31831.29
695.80	31887.46
695.93	31660.43
696.07	31267.22
696.20	30649.32
696.33	30962.95
696.47	30845.92
696.60	30958.27
696.73	30698.47
696.87	30670.38
697.00	30331.00
697.14	30569.74
697.27	30136.74
697.40	29888.64
697.54	30356.75
697.67	29654.59
697.80	30012.69
697.94	29301.17
698.07	29364.36
698.21	28683.27
698.34	29177.12
698.47	28706.67
698.61	28577.94
698.74	28383.68
698.87	28409.42
699.01	28311.12
699.14	28283.03
699.27	28446.87
699.40	28215.16
699.54	28161.33
699.67	27585.55
699.80	27775.14
699.94	27473.21
700.07	27812.59
700.20	27417.04
700.34	27260.22
700.47	26876.37
700.60	26820.20
700.73	26628.27
700.87	26214.00
701.00	26108.68
701.13	26225.70
701.26	26057.18
701.40	26288.90
701.53	25748.23
701.66	26291.24
701.79	25549.29
701.93	25455.67
702.06	25050.75
702.19	24863.51
702.32	24973.52
702.46	24842.45
702.59	24617.75
702.72	24446.90
702.85	24814.36
702.99	24685.63
703.12	24348.59
703.25	24180.07
703.38	24102.84
703.51	24016.24
703.65	24196.46
703.78	23674.52
703.91	23396.00
704.04	23604.30
704.17	23608.98
704.31	23330.46
704.44	23061.30
704.57	23161.94
704.70	23283.65
704.83	22970.02
704.96	22799.16
705.10	22368.50
705.23	22293.60
>>>>>End Processed Spectral Data<<<<<
