SpectraSuite Data File
++++++++++++++++++++++++++++++++++++
Date: Fri Oct 25 10:48:04 EDT 2013
User: price-jones
Dark Spectrum Present: No
Reference Spectrum Present: No
Number of Sampled Component Spectra: 1
Spectrometers: USB2+H05261
Integration Time (usec): 100000 (USB2+H05261)
Spectra Averaged: 1 (USB2+H05261)
Boxcar Smoothing: 0 (USB2+H05261)
Correct for Electrical Dark: No (USB2+H05261)
Strobe/Lamp Enabled: No (USB2+H05261)
Correct for Detector Non-linearity: No (USB2+H05261)
Correct for Stray Light: No (USB2+H05261)
Number of Pixels in Processed Spectrum: 2048
>>>>>Begin Processed Spectral Data<<<<<
365.73	88.94
365.92	88.94
366.12	88.94
366.32	0.00
366.52	98.30
366.72	117.03
366.91	7.02
367.11	53.83
367.31	44.47
367.51	117.03
367.70	0.00
367.90	72.56
368.10	4.68
368.30	51.49
368.49	46.81
368.69	74.90
368.89	98.30
369.09	60.85
369.28	105.32
369.48	37.45
369.68	84.26
369.87	182.56
370.07	124.05
370.27	210.65
370.47	180.22
370.66	444.70
370.86	383.85
371.06	414.27
371.25	498.53
371.45	442.36
371.65	512.58
371.84	351.08
372.04	365.12
372.24	404.91
372.44	411.93
372.63	397.89
372.83	533.64
373.03	521.94
373.22	512.58
373.42	475.13
373.62	507.90
373.81	491.51
374.01	512.58
374.21	559.39
374.40	512.58
374.60	521.94
374.79	484.49
374.99	613.22
375.19	585.13
375.38	575.77
375.58	573.43
375.78	617.90
375.97	545.34
376.17	610.88
376.37	566.41
376.56	582.79
376.76	552.37
376.95	669.39
377.15	617.90
377.35	543.00
377.54	526.62
377.74	589.82
377.93	643.65
378.13	594.50
378.33	620.24
378.52	674.07
378.72	692.80
378.91	697.48
379.11	671.73
379.31	660.03
379.50	671.73
379.70	629.60
379.89	664.71
380.09	671.73
380.28	631.94
380.48	631.94
380.68	613.22
380.87	716.20
381.07	667.05
381.26	711.52
381.46	638.97
381.65	615.56
381.85	692.80
382.04	636.63
382.24	638.97
382.43	634.29
382.63	692.80
382.83	690.46
383.02	699.82
383.22	744.29
383.41	720.88
383.61	667.05
383.80	753.65
384.00	727.91
384.19	744.29
384.39	748.97
384.58	610.88
384.78	730.25
384.97	737.27
385.17	746.63
385.36	697.48
385.56	816.85
385.75	674.07
385.95	798.12
386.14	763.01
386.34	767.70
386.53	788.76
386.72	772.38
386.92	823.87
387.11	847.27
387.31	809.83
387.50	875.36
387.70	730.25
387.89	826.21
388.09	847.27
388.28	767.70
388.48	816.85
388.67	854.30
388.86	819.19
389.06	821.53
389.25	917.49
389.45	847.27
389.64	821.53
389.84	919.83
390.03	959.62
390.22	875.36
390.42	842.59
390.61	926.85
390.81	936.21
391.00	945.58
391.19	1041.54
391.39	992.39
391.58	971.32
391.78	894.08
391.97	896.43
392.16	964.30
392.36	926.85
392.55	968.98
392.75	964.30
392.94	978.34
393.13	1025.15
393.33	961.96
393.52	985.37
393.71	884.72
393.91	997.07
394.10	959.62
394.29	1104.73
394.49	999.41
394.68	1121.12
394.88	1081.33
395.07	1095.37
395.26	1125.80
395.46	1142.18
395.65	1060.26
395.84	1158.57
396.04	1125.80
396.23	1123.46
396.42	1191.33
396.62	1184.31
396.81	1170.27
397.00	1128.14
397.19	1125.80
397.39	1196.01
397.58	1226.44
397.77	1121.12
397.97	1329.42
398.16	1242.82
398.35	1235.80
398.55	1313.04
398.74	1327.08
398.93	1352.83
399.12	1303.68
399.32	1299.00
399.51	1355.17
399.70	1352.83
399.90	1345.81
400.09	1425.39
400.28	1362.19
400.47	1324.74
400.67	1411.34
400.86	1453.47
401.05	1495.60
401.24	1371.55
401.44	1507.30
401.63	1444.11
401.82	1486.24
402.01	1397.30
402.21	1500.28
402.40	1497.94
402.59	1474.54
402.78	1607.95
402.97	1460.49
403.17	1612.63
403.36	1591.56
403.55	1638.38
403.74	1666.46
403.93	1596.25
404.13	1657.10
404.32	1584.54
404.51	1685.19
404.70	1708.59
404.89	1640.72
405.09	1741.36
405.28	1736.68
405.47	1696.89
405.66	1762.42
405.85	1699.23
406.05	1706.25
406.24	1764.76
406.43	1802.21
406.62	1837.32
406.81	1818.60
407.00	1806.89
407.20	1776.47
407.39	1668.80
407.58	1966.05
407.77	1935.62
407.96	1940.30
408.15	1968.39
408.34	1867.75
408.54	1898.17
408.73	1902.86
408.92	2062.01
409.11	1961.37
409.30	2017.54
409.49	1921.58
409.68	2010.52
409.87	2059.67
410.07	2071.37
410.26	2057.33
410.45	2118.18
410.64	2125.21
410.83	2134.57
411.02	2062.01
411.21	2202.44
411.40	2291.38
411.59	2157.97
411.78	2235.21
411.98	2197.76
412.17	2275.00
412.36	2349.90
412.55	2377.98
412.74	2349.90
412.93	2326.49
413.12	2253.94
413.31	2511.39
413.50	2410.75
413.69	2473.95
413.88	2375.64
414.07	2478.63
414.26	2534.80
414.45	2544.16
414.64	2619.06
414.83	2562.89
415.02	2651.83
415.22	2534.80
415.41	2679.91
415.60	2700.98
415.79	2796.94
415.98	2890.56
416.17	2761.83
416.36	2715.02
416.55	2785.24
416.74	2796.94
416.93	2799.28
417.12	2719.70
417.31	2920.99
417.50	2836.73
417.69	2963.12
417.88	3019.29
418.07	3047.38
418.26	3005.25
418.45	2939.71
418.64	3070.78
418.83	3194.83
419.02	3110.57
419.21	3141.00
419.39	3187.81
419.58	3073.12
419.77	3101.21
419.96	3145.68
420.15	3187.81
420.34	3173.77
420.53	3318.88
420.72	3375.05
420.91	3293.13
421.10	3283.77
421.29	3382.07
421.48	3288.45
421.67	3339.94
421.86	3269.73
422.05	3335.26
422.24	3293.13
422.43	3262.71
422.61	3459.31
422.80	3478.04
422.99	3417.18
423.18	3456.97
423.37	3431.23
423.56	3499.10
423.75	3290.79
423.94	3471.01
424.13	3133.98
424.32	3276.75
424.50	3396.12
424.69	3510.80
424.88	3375.05
425.07	3595.06
425.26	3379.73
425.45	3384.41
425.64	3375.05
425.83	3499.10
426.01	3520.17
426.20	3405.48
426.39	3609.11
426.58	3578.68
426.77	3468.67
426.96	3536.55
427.15	3426.54
427.33	3609.11
427.52	3559.95
427.71	3665.28
427.90	3623.15
428.09	3602.08
428.28	3648.90
428.46	3543.57
428.65	3676.98
428.84	3698.05
429.03	3929.76
429.22	3702.73
429.40	3808.05
429.59	3768.26
429.78	3419.52
429.97	3581.02
430.16	3758.90
430.34	3894.65
430.53	3803.37
430.72	3857.20
430.91	3791.67
431.10	3786.99
431.28	3950.82
431.47	4105.30
431.66	4074.87
431.85	3974.23
432.03	4168.49
432.22	4208.28
432.41	4084.23
432.60	4121.68
432.79	4098.28
432.97	4255.09
433.16	4128.70
433.35	4051.47
433.54	4241.05
433.72	4121.68
433.91	4145.09
434.10	4243.39
434.28	4147.43
434.47	4241.05
434.66	4276.16
434.85	4353.40
435.03	4311.27
435.22	4397.87
435.41	4498.51
435.59	4470.42
435.78	4456.38
435.97	4526.60
436.16	4451.70
436.34	4500.85
436.53	4542.98
436.72	4655.33
436.90	4475.10
437.09	4451.70
437.28	4386.16
437.46	4531.28
437.65	4503.19
437.84	4517.23
438.02	4568.73
438.21	4730.22
438.40	4531.28
438.58	4725.54
438.77	4800.44
438.96	4802.78
439.14	4844.91
439.33	4894.06
439.52	4819.16
439.70	4847.25
439.89	4959.60
440.08	5025.13
440.26	5013.43
440.45	5067.26
440.63	5294.29
440.82	5259.18
441.01	5313.02
441.19	5233.44
441.38	5387.91
441.57	5369.19
441.75	5397.28
441.94	5455.79
442.12	5488.56
442.31	5572.82
442.50	5444.09
442.68	5451.11
442.87	5476.85
443.05	5399.62
443.24	5769.42
443.43	5738.99
443.61	5720.27
443.80	5738.99
443.98	5540.05
444.17	5385.57
444.35	5610.26
444.54	5577.50
444.73	5799.85
444.91	5785.80
445.10	5767.08
445.28	5799.85
445.47	5701.54
445.65	5799.85
445.84	5767.08
446.02	5823.25
446.21	5577.50
446.39	5884.11
446.58	5942.62
446.77	5736.65
446.95	5785.80
447.14	5902.83
447.32	5940.28
447.51	5994.11
447.69	5837.30
447.88	5797.51
448.06	5975.39
448.25	5926.24
448.43	6015.18
448.62	5921.56
448.80	5893.47
448.99	5802.19
449.17	5888.79
449.36	6099.44
449.54	6169.65
449.73	5949.64
449.91	6242.21
450.10	6214.12
450.28	6298.38
450.46	6167.31
450.65	6282.00
450.83	6162.63
451.02	6188.38
451.20	6235.19
451.39	6420.09
451.57	6429.45
451.76	6237.53
451.94	6293.70
452.13	6544.14
452.31	6415.41
452.49	6244.55
452.68	6476.26
452.86	6228.17
453.05	6408.39
453.23	6499.67
453.42	6347.53
453.60	6307.74
453.78	6384.98
453.97	6436.47
454.15	6406.05
454.34	6331.15
454.52	6576.91
454.70	6724.36
454.89	6654.14
455.07	6759.47
455.26	6759.47
455.44	6715.00
455.62	6747.76
455.81	6794.58
455.99	6806.28
456.17	6867.13
456.36	6743.08
456.54	6871.81
456.73	7056.72
456.91	7241.62
457.09	7133.95
457.28	7136.29
457.46	7035.65
457.64	7014.59
457.83	7126.93
458.01	6923.30
458.19	7372.69
458.38	7140.97
458.56	7311.83
458.74	7155.02
458.93	7337.58
459.11	7279.07
459.29	7300.13
459.48	7290.77
459.66	7288.43
459.84	7541.21
460.03	7344.60
460.21	7377.37
460.39	7412.48
460.57	7658.23
460.76	7492.05
460.94	7407.80
461.12	7506.10
461.31	7414.82
461.49	7609.08
461.67	7480.35
461.85	7824.41
462.04	7812.71
462.22	8304.22
462.40	7763.56
462.59	7861.86
462.77	7852.50
462.95	8021.02
463.13	7943.78
463.32	7765.90
463.50	7826.75
463.68	7913.35
463.86	8098.25
464.05	7880.58
464.23	7810.37
464.41	8056.12
464.59	7728.45
464.78	8053.78
464.96	8028.04
465.14	7913.35
465.32	8156.77
465.50	8201.24
465.69	8112.30
465.87	8283.16
466.05	8175.49
466.23	8203.58
466.41	8252.73
466.60	8423.59
466.78	8145.06
466.96	8128.68
467.14	8278.47
467.32	8273.79
467.51	8437.63
467.69	8248.05
467.87	8327.63
468.05	8458.70
468.23	8358.05
468.41	8273.79
468.60	8191.88
468.78	8514.87
468.96	8351.03
469.14	8538.27
469.32	8599.13
469.50	8472.74
469.69	8678.71
469.87	8727.86
470.05	8933.82
470.23	8711.47
470.41	8767.65
470.59	8947.87
470.77	8872.97
470.95	8662.32
471.14	9076.60
471.32	8664.66
471.50	8994.68
471.68	8821.48
471.86	9198.31
472.04	9282.56
472.22	9401.93
472.40	9158.52
472.58	9123.41
472.77	9228.73
472.95	9310.65
473.13	9561.09
473.31	9294.27
473.49	9411.29
473.67	9479.17
473.85	9437.04
474.03	9706.20
474.21	9528.32
474.39	9699.18
474.57	9806.84
474.75	9809.19
474.93	9834.93
475.12	9710.88
475.30	10050.26
475.48	10033.88
475.66	10097.07
475.84	10068.98
476.02	10242.18
476.20	10120.48
476.38	10389.64
476.56	10621.35
476.74	10366.23
476.92	10647.10
477.10	10602.63
477.28	10726.68
477.46	10633.05
477.64	10803.91
477.82	11012.22
478.00	11288.40
478.18	11229.89
478.36	11265.00
478.54	11101.16
478.72	11386.71
478.90	11573.95
479.08	11407.77
479.26	11573.95
479.44	11515.44
479.62	11939.07
479.80	11995.25
479.98	11756.51
480.16	12063.12
480.34	11871.20
480.52	12105.25
480.70	12133.34
480.88	12182.49
481.06	12423.56
481.24	12262.07
481.41	12669.32
481.59	12816.77
481.77	12730.17
481.95	12870.61
482.13	12957.21
482.31	12917.42
482.49	13202.96
482.67	13099.98
482.85	13584.47
483.03	13462.76
483.21	13472.12
483.39	13659.37
483.57	13724.90
483.74	13874.70
483.92	14094.71
484.10	13635.96
484.28	14061.94
484.46	14614.30
484.64	14384.93
484.82	14516.00
485.00	14562.81
485.18	14607.28
485.35	14860.06
485.53	14719.63
485.71	14595.58
485.89	15269.66
486.07	15166.67
486.25	15124.54
486.43	15384.34
486.61	15602.01
486.78	15562.22
486.96	15747.12
487.14	16231.62
487.32	16053.73
487.50	16145.02
487.68	16074.80
487.85	16545.25
488.03	16802.71
488.21	16840.15
488.39	16772.28
488.57	16826.11
488.75	16798.02
488.92	17291.88
489.10	17516.57
489.28	17296.56
489.46	17568.06
489.64	17771.69
489.81	17802.11
489.99	17909.78
490.17	18551.09
490.35	18239.79
490.53	18288.95
490.70	18441.08
490.88	18354.48
491.06	18764.07
491.24	18600.24
491.41	18778.12
491.59	19033.24
491.77	18970.04
491.95	18941.96
492.13	19456.87
492.30	19337.51
492.48	19456.87
492.66	19587.94
492.84	19513.05
493.01	19838.38
493.19	19515.39
493.37	19950.73
493.54	20231.59
493.72	20493.73
493.90	20255.00
494.08	20432.88
494.25	21106.95
494.43	20912.69
494.61	21085.89
494.79	20835.45
494.96	21212.28
495.14	21025.03
495.32	21451.01
495.49	21432.29
495.67	22026.78
495.85	21701.45
496.02	21675.70
496.20	21872.31
496.38	22080.61
496.55	22052.53
496.73	22541.70
496.91	22326.37
497.09	22314.67
497.26	22349.78
497.44	22415.31
497.62	22972.36
497.79	23180.67
497.97	22752.35
498.14	23035.55
498.32	23316.42
498.50	23021.51
498.67	23599.62
498.85	23236.84
499.03	23702.61
499.20	23456.85
499.38	23716.65
499.56	23924.96
499.73	24098.16
499.91	24133.26
500.08	24203.48
500.26	24060.71
500.44	23903.89
500.61	24187.10
500.79	24269.01
500.97	24362.64
501.14	24893.94
501.32	24807.34
501.49	24900.96
501.67	24711.38
501.84	25025.01
502.02	25165.44
502.20	25305.87
502.37	25420.56
502.55	25032.03
502.72	25343.32
502.90	25549.29
503.07	25298.85
503.25	25383.11
503.43	25771.64
503.60	25631.21
503.78	25858.24
503.95	25834.83
504.13	26125.06
504.30	26080.59
504.48	26235.06
504.65	26237.41
504.83	26604.87
505.01	26618.91
505.18	26429.33
505.36	26710.19
505.53	26583.80
505.71	26911.48
505.88	27199.37
506.06	26705.51
506.23	27014.46
506.41	26700.83
506.58	27365.54
506.76	27527.04
506.93	27323.41
507.11	27321.07
507.28	27192.34
507.46	27496.61
507.63	27871.10
507.81	27784.50
507.98	27660.45
508.16	27655.77
508.33	27840.67
508.50	28018.55
508.68	28109.83
508.85	27725.99
509.03	28474.96
509.20	28421.13
509.38	28432.83
509.55	28510.07
509.73	28369.63
509.90	28790.93
510.08	28430.49
510.25	28711.35
510.42	28734.76
510.60	29057.75
510.77	29053.07
510.95	29139.67
511.12	29085.84
511.30	29020.30
511.47	29186.48
511.64	29252.02
511.82	29596.07
511.99	29600.76
512.17	30265.47
512.34	29837.15
512.51	29879.28
512.69	29940.13
512.86	30155.46
513.04	30579.10
513.21	30052.48
513.38	30050.14
513.56	30143.76
513.73	30178.87
513.90	30642.29
514.08	30202.27
514.25	30529.95
514.43	30426.96
514.60	30534.63
514.77	30960.61
514.95	30845.92
515.12	30567.40
515.29	30948.90
515.47	31255.51
515.64	31412.33
515.81	30953.58
515.99	31070.61
516.16	31288.28
516.33	31304.67
516.51	31501.27
516.68	31166.57
516.85	31480.21
517.03	31428.71
517.20	31227.43
517.37	31857.03
517.54	31599.57
517.72	31859.37
517.89	31182.96
518.06	31835.97
518.24	31833.63
518.41	31601.91
518.58	31747.03
518.75	31754.05
518.93	32636.43
519.10	32320.46
519.27	32573.24
519.45	32208.11
519.62	32701.96
519.79	32830.69
519.96	32875.16
520.14	32842.40
520.31	32603.66
520.48	32964.10
520.65	32772.18
520.83	33167.73
521.00	32790.91
521.17	33221.56
521.34	33132.62
521.52	33422.85
521.69	33277.74
521.86	33743.50
522.03	33542.22
522.20	33792.65
522.38	34101.61
522.55	34190.55
522.72	33663.93
522.89	33883.94
523.07	34368.43
523.24	33771.59
523.41	34300.55
523.58	33722.44
523.75	34057.14
523.92	34181.18
524.10	34644.61
524.27	34443.32
524.44	34218.63
524.61	34637.59
524.78	34639.93
524.96	34937.18
525.13	34759.30
525.30	35019.10
525.47	34918.45
525.64	35028.46
525.81	35040.16
525.98	35021.44
526.16	35213.36
526.33	34981.65
526.50	35204.00
526.67	34754.61
526.84	34740.57
527.01	35091.65
527.18	35093.99
527.36	35615.93
527.53	35309.32
527.70	35590.19
527.87	35721.26
528.04	35772.75
528.21	35885.09
528.38	35725.94
528.55	36126.17
528.72	35800.83
528.89	36158.94
529.07	35889.77
529.24	36119.15
529.41	36322.77
529.58	36100.42
529.75	35629.98
529.92	36453.84
530.09	36149.57
530.26	36182.34
530.43	36456.18
530.60	36521.72
530.77	36481.93
530.94	36577.89
531.11	36744.07
531.28	36650.45
531.46	36465.55
531.63	36732.37
531.80	36851.73
531.97	36732.37
532.14	36622.36
532.31	36563.85
532.48	37212.18
532.65	37060.04
532.82	37008.55
532.99	36840.03
533.16	36535.76
533.33	37116.22
533.50	37277.71
533.67	37193.45
533.84	37081.11
534.01	37420.48
534.18	36952.38
534.35	37687.31
534.52	37069.40
534.69	37855.82
534.86	37947.11
535.03	37649.86
535.20	37773.91
535.37	38103.92
535.54	38199.88
535.71	37556.24
535.88	37874.55
536.05	38026.68
536.22	37933.06
536.38	38396.49
536.55	38141.37
536.72	38300.53
536.89	38153.07
537.06	38281.80
537.23	38094.56
537.40	38199.88
537.57	38232.65
537.74	38595.43
537.91	38649.27
538.08	38487.77
538.25	38359.04
538.42	38256.06
538.59	39051.84
538.75	38174.14
538.92	38721.82
539.09	39084.61
539.26	38691.40
539.43	38859.91
539.60	38562.67
539.77	38778.00
539.94	39166.52
540.11	38778.00
540.28	39105.67
540.44	39000.35
540.61	39035.45
540.78	38909.07
540.95	38855.23
541.12	39133.76
541.29	38918.43
541.46	39089.29
541.62	39409.94
541.79	39248.44
541.96	39122.05
542.13	39353.77
542.30	39421.64
542.47	39768.04
542.63	39346.75
542.80	39519.95
542.97	39854.64
543.14	40399.99
543.31	39878.05
543.48	40285.30
543.64	40535.74
543.81	39938.90
543.98	40154.23
544.15	39938.90
544.32	40772.13
544.48	40645.74
544.65	40231.47
544.82	40655.11
544.99	40364.88
545.16	40697.24
545.32	40418.71
545.49	40886.82
545.66	40664.47
545.83	40425.73
546.00	40627.02
546.16	40753.41
546.33	40086.36
546.50	40210.40
546.67	40392.97
546.83	40137.85
547.00	40645.74
547.17	40898.52
547.34	40561.48
547.50	40893.84
547.67	41383.01
547.84	40519.35
548.00	41434.50
548.17	41043.63
548.34	41020.23
548.51	41010.87
548.67	41361.95
548.84	41411.10
549.01	41130.23
549.18	41106.83
549.34	41177.04
549.51	41202.79
549.68	41230.88
549.84	41336.20
550.01	41560.89
550.18	41500.04
550.34	41478.97
550.51	41441.53
550.68	41532.81
550.84	41488.34
551.01	42089.85
551.18	41324.50
551.34	41486.00
551.51	41574.94
551.68	41951.76
551.84	41893.25
552.01	41741.11
552.18	41532.81
552.34	41956.44
552.51	41776.22
552.68	41495.36
552.84	42195.18
553.01	41958.78
553.18	41659.20
553.34	42031.34
553.51	41722.39
553.67	42164.75
553.84	42291.14
554.01	42319.23
554.17	42656.26
554.34	42232.63
554.51	41954.10
554.67	42307.52
554.84	42660.94
555.00	42136.66
555.17	42431.57
555.33	42155.39
555.50	42590.73
555.67	42485.40
555.83	42253.69
556.00	42944.15
556.16	42534.56
556.33	42639.88
556.50	42349.65
556.66	42588.39
556.83	41996.23
556.99	43002.66
557.16	43131.39
557.32	42808.40
557.49	42810.74
557.65	42429.23
557.82	42738.18
557.98	42904.36
558.15	43054.15
558.32	43356.08
558.48	42703.07
558.65	42838.83
558.81	42426.89
558.98	43430.98
559.14	42909.04
559.31	42937.13
559.47	43061.18
559.64	42990.96
559.80	43299.91
559.97	43014.37
560.13	43178.20
560.30	42885.64
560.46	42827.12
560.63	43075.22
560.79	42981.60
560.96	43496.52
561.12	42885.64
561.29	43255.44
561.45	43063.52
561.61	43009.68
561.78	42965.21
561.94	43208.63
562.11	42986.28
562.27	43175.86
562.44	43171.18
562.60	43854.62
562.77	43426.30
562.93	43627.59
563.10	43566.73
563.26	43098.62
563.42	43325.66
563.59	43175.86
563.75	43159.48
563.92	43196.93
564.08	43892.07
564.24	43250.76
564.41	43569.07
564.57	43564.39
564.74	43285.87
564.90	43835.89
565.07	43363.11
565.23	43484.81
565.39	43201.61
565.56	44105.06
565.72	43620.56
565.88	43679.08
566.05	43683.76
566.21	43501.20
566.38	43344.38
566.54	43477.79
566.70	43608.86
566.87	43915.47
567.03	43625.25
567.19	44053.56
567.36	43952.92
567.52	43599.50
567.68	43957.60
567.85	43882.70
568.01	43655.67
568.17	43611.20
568.34	43768.02
568.50	43611.20
568.66	43681.42
568.83	43976.33
568.99	43367.79
569.15	43791.42
569.32	43648.65
569.48	43971.64
569.64	43990.37
569.81	44161.23
569.97	43826.53
570.13	43805.47
570.30	43749.29
570.46	43817.17
570.62	43714.19
570.78	43931.86
570.95	43945.90
571.11	44009.09
571.27	44168.25
571.43	43770.36
571.60	44348.47
571.76	43665.03
571.92	44266.55
572.09	43973.98
572.25	44140.16
572.41	43714.19
572.57	44271.23
572.74	44858.71
572.90	44390.60
573.06	43798.44
573.22	44509.97
573.38	44271.23
573.55	44004.41
573.71	44058.24
573.87	43632.27
574.03	43515.24
574.20	44165.91
574.36	43922.49
574.52	43962.28
574.68	44474.86
574.84	44198.68
575.01	44142.50
575.17	43889.73
575.33	43880.36
575.49	44053.56
575.65	43924.83
575.82	44414.01
575.98	44299.32
576.14	44683.17
576.30	43973.98
576.46	43976.33
576.62	44002.07
576.79	44425.71
576.95	43636.95
577.11	44130.80
577.27	43995.05
577.43	44044.20
577.59	44060.58
577.75	44065.27
577.92	44107.40
578.08	43798.44
578.24	43704.82
578.40	44191.65
578.56	44299.32
578.72	44208.04
578.88	44364.85
579.04	44339.11
579.21	44388.26
579.37	43929.51
579.53	44315.70
579.69	44325.07
579.85	44332.09
580.01	44271.23
580.17	44215.06
580.33	44521.67
580.49	44172.93
580.65	44629.34
580.82	44367.20
580.98	44013.77
581.14	44107.40
581.30	44385.92
581.46	44158.89
581.62	44395.28
581.78	44268.89
581.94	45027.23
582.10	44268.89
582.26	44184.63
582.42	44142.50
582.58	44285.28
582.74	44243.15
582.90	44491.24
583.06	44353.15
583.22	44711.25
583.38	44624.65
583.54	44350.81
583.70	44353.15
583.86	44257.19
584.02	43990.37
584.18	44580.18
584.34	44657.42
584.50	44226.76
584.66	44346.13
584.82	44112.08
584.98	44603.59
585.14	44645.72
585.30	44186.97
585.46	44325.07
585.62	44507.63
585.78	43915.47
585.94	44006.75
586.10	43908.45
586.26	44453.79
586.42	44423.37
586.58	44254.85
586.74	44619.97
586.90	44048.88
587.06	44308.68
587.22	44378.90
587.38	43936.54
587.54	44961.69
587.70	44624.65
587.86	44851.69
588.02	44432.73
588.18	44533.37
588.34	44463.16
588.49	44472.52
588.65	44067.61
588.81	44252.51
588.97	44376.56
589.13	44224.42
589.29	44678.49
589.45	44334.43
589.61	44428.05
589.77	44903.18
589.93	44596.57
590.08	44502.95
590.24	44804.88
590.40	44531.03
590.56	44772.11
590.72	44514.65
590.88	44491.24
591.04	44727.64
591.20	44982.76
591.35	44907.86
591.51	44980.42
591.67	44985.10
591.83	44516.99
591.99	44737.00
592.15	44765.09
592.31	44322.72
592.46	44767.43
592.62	44818.92
592.78	45013.18
592.94	44837.64
593.10	44837.64
593.26	44847.00
593.41	44594.23
593.57	44825.94
593.73	44685.51
593.89	44715.93
594.05	44603.59
594.20	44758.06
594.36	44776.79
594.52	44980.42
594.68	44980.42
594.84	45254.26
594.99	44886.79
595.15	44907.86
595.31	45174.68
595.47	45022.54
595.62	44313.36
595.78	44725.30
595.94	45043.61
596.10	45195.74
596.25	45111.49
596.41	45036.59
596.57	44928.92
596.73	44748.70
596.88	44737.00
597.04	44662.10
597.20	44662.10
597.36	44692.53
597.51	45195.74
597.67	44987.44
597.83	44676.15
597.99	45017.86
598.14	44987.44
598.30	44896.16
598.46	44673.81
598.61	45017.86
598.77	44449.11
598.93	44994.46
599.09	45015.52
599.24	45153.62
599.40	44683.17
599.56	45102.12
599.71	45226.17
599.87	45003.82
600.03	44755.72
600.18	44765.09
600.34	44615.29
600.50	44762.75
600.65	44687.85
600.81	45095.10
600.97	45233.19
601.12	45373.63
601.28	44910.20
601.44	44788.49
601.59	45085.74
601.75	44741.68
601.91	44818.92
602.06	44470.18
602.22	44603.59
602.37	45022.54
602.53	44940.63
602.69	45102.12
602.84	45001.48
603.00	44982.76
603.16	44732.32
603.31	44765.09
603.47	44678.49
603.62	44900.84
603.78	44615.29
603.94	44477.20
604.09	45205.11
604.25	45144.25
604.40	45127.87
604.56	44706.57
604.71	45003.82
604.87	44720.62
605.03	44865.73
605.18	44641.04
605.34	44755.72
605.49	44570.82
605.65	44760.40
605.80	44362.51
605.96	44968.71
606.12	44460.82
606.27	44809.56
606.43	44229.10
606.58	44842.32
606.74	44540.39
606.89	44919.56
607.05	44687.85
607.20	44348.47
607.36	44809.56
607.51	44825.94
607.67	44509.97
607.82	44467.84
607.98	44610.61
608.13	44622.31
608.29	44540.39
608.44	44423.37
608.60	44020.80
608.75	44088.67
608.91	44521.67
609.06	44296.98
609.22	44683.17
609.37	44472.52
609.53	44538.05
609.68	44542.74
609.84	44294.64
609.99	44514.65
610.15	44158.89
610.30	44559.12
610.46	44238.47
610.61	44194.00
610.76	44222.08
610.92	44194.00
611.07	44264.21
611.23	43854.62
611.38	44348.47
611.54	44282.94
611.69	44208.04
611.84	44002.07
612.00	43758.66
612.15	44196.34
612.31	43938.88
612.46	44165.91
612.62	44648.06
612.77	44481.88
612.92	44584.86
613.08	44109.74
613.23	43971.64
613.39	43742.27
613.54	43515.24
613.69	44144.84
613.85	43931.86
614.00	44203.36
614.15	44011.43
614.31	43988.03
614.46	43800.79
614.62	43849.94
614.77	43997.39
614.92	43894.41
615.08	44039.52
615.23	43885.04
615.38	43557.37
615.54	43342.04
615.69	43660.35
615.84	43810.15
616.00	43438.00
616.15	43739.93
616.30	43793.76
616.46	43711.84
616.61	43447.36
616.76	43885.04
616.92	43414.60
617.07	43480.13
617.22	43372.47
617.37	43632.27
617.53	43379.49
617.68	43728.23
617.83	43732.91
617.99	43316.29
618.14	43276.51
618.29	43838.23
618.45	43267.14
618.60	43222.67
618.75	43262.46
618.90	43271.82
619.06	43262.46
619.21	43328.00
619.36	43779.72
619.51	43229.69
619.67	42745.20
619.82	43250.76
619.97	43845.26
620.12	43051.81
620.28	42572.00
620.43	42770.95
620.58	42815.42
620.73	43175.86
620.89	42920.74
621.04	43091.60
621.19	43217.99
621.34	42902.02
621.49	42359.02
621.65	42843.51
621.80	42639.88
621.95	42466.68
622.10	42827.12
622.25	42457.32
622.41	42438.59
622.56	42738.18
622.71	43056.50
622.86	42923.08
623.01	43175.86
623.16	42834.14
623.32	42756.91
623.47	42951.17
623.62	42813.08
623.77	42635.20
623.92	42260.71
624.07	42555.62
624.23	42117.94
624.38	42246.67
624.53	41771.54
624.68	42677.33
624.83	42944.15
624.98	42714.78
625.13	42092.19
625.29	42309.86
625.44	42485.40
625.59	41886.23
625.74	41942.40
625.89	41972.83
626.04	41647.49
626.19	42050.06
626.34	42024.32
626.49	41890.91
626.65	41949.42
626.80	42054.75
626.95	41961.12
627.10	41893.25
627.25	41818.35
627.40	41294.07
627.55	41546.85
627.70	41418.12
627.85	41972.83
628.00	41591.32
628.15	41989.21
628.30	41872.18
628.45	41811.33
628.60	41596.00
628.76	42124.96
628.91	41759.84
629.06	41794.95
629.21	41523.44
629.36	41565.57
629.51	41308.11
629.66	41516.42
629.81	41219.17
629.96	41401.74
630.11	41617.07
630.26	41251.94
630.41	41808.99
630.56	40804.90
630.71	41490.68
630.86	41628.77
631.01	41130.23
631.16	41207.47
631.31	40891.50
631.46	40573.19
631.61	40772.13
631.76	41378.33
631.91	41151.30
632.06	41312.80
632.21	40938.31
632.36	41254.28
632.51	41027.25
632.66	41249.60
632.81	40769.79
632.96	40816.60
633.10	40261.90
633.25	40463.18
633.40	40533.40
633.55	41336.20
633.70	40947.67
633.85	40493.61
634.00	40818.94
634.15	41113.85
634.30	40669.15
634.45	40704.26
634.60	40755.75
634.75	40509.99
634.90	40479.57
635.05	40840.01
635.19	40404.67
635.34	40814.26
635.49	40540.42
635.64	40722.98
635.79	40627.02
635.94	40587.23
636.09	40411.69
636.24	40250.19
636.39	40240.83
636.53	40376.58
636.68	40170.61
636.83	40074.65
636.98	40463.18
637.13	40194.02
637.28	40474.88
637.43	40362.54
637.57	40238.49
637.72	40730.00
637.87	40339.13
638.02	40114.44
638.17	40100.40
638.32	39938.90
638.46	39814.85
638.61	40053.59
638.76	39821.87
638.91	39962.31
639.06	39772.72
639.20	40088.70
639.35	40357.86
639.50	39669.74
639.65	40212.74
639.80	39974.01
639.94	40161.25
640.09	39667.40
640.24	39349.09
640.39	39615.91
640.54	39777.40
640.68	39337.38
640.83	39742.30
640.98	39510.58
641.13	39611.23
641.27	39636.97
641.42	39241.42
641.57	39730.59
641.72	39351.43
641.86	38899.70
642.01	39213.34
642.16	38911.41
642.31	38909.07
642.45	39737.62
642.60	38990.98
642.75	39042.48
642.90	39056.52
643.04	38962.90
643.19	38653.95
643.34	39290.57
643.48	39194.61
643.63	39105.67
643.78	38990.98
643.93	39037.80
644.07	38595.43
644.22	38806.08
644.37	38775.66
644.51	39065.88
644.66	39276.53
644.81	38993.32
644.95	38904.38
645.10	39086.95
645.25	38778.00
645.39	39042.48
645.54	38944.17
645.69	39023.75
645.83	38808.42
645.98	38843.53
646.13	38579.05
646.27	38239.67
646.42	38455.00
646.57	38773.31
646.71	38611.82
646.86	38527.56
647.00	38838.85
647.15	38562.67
647.30	38693.74
647.44	38724.16
647.59	38562.67
647.74	38291.16
647.88	38490.11
648.03	38298.19
648.17	38836.51
648.32	37926.04
648.47	38417.55
648.61	38239.67
648.76	38651.61
648.90	38476.07
649.05	38607.14
649.20	38003.28
649.34	38265.42
649.49	37699.01
649.63	38277.12
649.78	38323.93
649.92	38134.35
650.07	38043.07
650.21	37944.76
650.36	38244.35
650.51	38370.74
650.65	38352.02
650.80	38763.95
650.94	38323.93
651.09	37900.29
651.23	37715.39
651.38	37933.06
651.52	37827.74
651.67	37862.85
651.81	38022.00
651.96	37680.28
652.10	37408.78
652.25	37785.61
652.39	37394.74
652.54	37387.72
652.68	37853.48
652.83	37825.40
652.97	37823.06
653.12	37642.84
653.26	37813.70
653.41	37691.99
653.55	37392.40
653.70	37523.47
653.84	37542.19
653.99	37528.15
654.13	37479.00
654.27	37462.61
654.42	37631.13
654.56	37584.32
654.71	37333.89
654.85	37727.10
655.00	37120.90
655.14	36989.83
655.29	36943.02
655.43	36877.48
655.57	37017.91
655.72	36622.36
655.86	36875.14
656.01	36898.55
656.15	36767.48
656.30	37020.25
656.44	37226.22
656.58	36706.62
656.73	36919.61
656.87	36531.08
657.01	36907.91
657.16	36556.83
657.30	36524.06
657.45	36692.58
657.59	36648.11
657.73	36629.38
657.88	36552.15
658.02	36828.33
658.16	36287.67
658.31	36966.42
658.45	36465.55
658.60	36538.10
658.74	36495.97
658.88	36533.42
659.03	36605.98
659.17	36175.32
659.31	36376.61
659.46	36055.95
659.60	36449.16
659.74	36629.38
659.89	35756.36
660.03	35969.35
660.17	35948.29
660.32	35887.43
660.46	36254.90
660.60	35976.37
660.74	36334.48
660.89	36046.59
661.03	35590.19
661.17	35749.34
661.32	35557.42
661.46	35538.69
661.60	35262.51
661.74	35955.31
661.89	35559.76
662.03	35688.49
662.17	35318.68
662.31	35482.52
662.46	35653.38
662.60	35463.80
662.74	35262.51
662.88	35257.83
663.03	35667.42
663.17	35571.46
663.31	34890.37
663.45	35306.98
663.60	34810.79
663.74	34895.05
663.88	35306.98
664.02	34848.24
664.17	34864.62
664.31	34558.01
664.45	34686.74
664.59	34541.63
664.73	34660.99
664.88	34693.76
665.02	34506.52
665.16	34574.39
665.30	34209.27
665.44	34272.46
665.59	34209.27
665.73	34398.85
665.87	34227.99
666.01	34059.48
666.15	34092.24
666.29	34141.39
666.44	34213.95
666.58	34005.64
666.72	33984.58
666.86	34302.89
667.00	34160.12
667.14	33806.70
667.28	33771.59
667.43	33858.19
667.57	33834.78
667.71	33734.14
667.85	33525.83
667.99	33027.30
668.13	33266.03
668.27	33039.00
668.41	33284.76
668.56	33081.13
668.70	32924.32
668.84	33153.69
668.98	32982.83
669.12	33200.50
669.26	32563.87
669.40	32914.95
669.54	32863.46
669.68	33406.47
669.82	32645.79
669.96	32563.87
670.10	32465.57
670.25	32535.79
670.39	32823.67
670.53	32491.32
670.67	32488.98
670.81	32540.47
670.95	32847.08
671.09	32678.56
671.23	32524.08
671.37	32257.26
671.51	32128.53
671.65	31878.10
671.79	31859.37
671.93	32151.94
672.07	31971.72
672.21	31833.63
672.35	31524.68
672.49	31634.68
672.63	32393.01
672.77	31740.00
672.91	31744.69
673.05	31475.52
673.19	31768.09
673.33	31449.78
673.47	31232.11
673.61	31157.21
673.75	30663.36
673.89	30700.81
674.03	30703.15
674.17	30698.47
674.31	30579.10
674.45	30864.64
674.59	30759.32
674.73	30862.30
674.87	30607.19
675.01	30600.16
675.15	30780.39
675.29	30888.05
675.43	30646.97
675.56	30464.41
675.70	30576.76
675.84	30078.22
675.98	29380.74
676.12	29914.39
676.26	29888.64
676.40	29916.73
676.54	30045.46
676.68	29769.27
676.82	29142.01
676.96	29589.05
677.10	29296.49
677.23	29436.92
677.37	29092.86
677.51	29172.44
677.65	28847.10
677.79	28877.53
677.93	28922.00
678.07	28650.50
678.21	28418.78
678.34	28734.76
678.48	28383.68
678.62	28676.24
678.76	28142.60
678.90	28238.56
679.04	28631.77
679.18	28357.93
679.31	28140.26
679.45	27491.93
679.59	27754.07
679.73	27187.66
679.87	27950.68
680.00	27955.36
680.14	27285.97
680.28	27590.24
680.42	27431.08
680.56	27452.14
680.70	27161.92
680.83	27185.32
680.97	26712.53
681.11	26876.37
681.25	26986.38
681.39	26986.38
681.52	26934.88
681.66	26597.85
681.80	26410.60
681.94	26658.70
682.07	26504.23
682.21	26398.90
682.35	26206.98
682.49	25975.27
682.62	26394.22
682.76	26017.40
682.90	26059.52
683.04	26075.91
683.17	25853.56
683.31	25736.53
683.45	25708.44
683.59	25495.46
683.72	25303.53
683.86	25289.49
684.00	25191.19
684.13	25418.22
684.27	25462.69
684.41	25135.01
684.55	24697.33
684.68	24968.84
684.82	24561.58
684.96	24570.94
685.09	24449.24
685.23	24559.24
685.37	24582.65
685.50	24594.35
685.64	24341.57
685.78	24182.42
685.91	24161.35
686.05	24446.90
686.19	24041.98
686.32	24259.65
686.46	23594.94
686.60	23307.05
686.73	23302.37
686.87	23328.12
687.01	23218.11
687.14	22974.70
687.28	22827.24
687.42	23000.44
687.55	22593.19
687.69	22335.73
687.82	22588.51
687.96	22679.79
688.10	22675.11
688.23	22438.72
688.37	22581.49
688.50	22450.42
688.64	22408.29
688.78	22242.11
688.91	22277.22
689.05	22101.68
689.18	22192.96
689.32	21713.15
689.46	21570.38
689.59	22092.32
689.73	22038.48
689.86	21371.43
690.00	22036.14
690.13	21659.32
690.27	21680.38
690.41	21254.40
690.54	21177.17
690.68	21039.08
690.81	20875.24
690.95	21081.21
691.08	21092.91
691.22	21027.37
691.35	20905.66
691.49	20865.88
691.62	20842.47
691.76	20800.34
691.89	20243.29
692.03	20379.04
692.16	20311.17
692.30	20652.89
692.43	20189.46
692.57	19995.20
692.70	19772.85
692.84	20072.43
692.97	19896.89
693.11	19761.14
693.24	19810.29
693.38	19480.28
693.51	19393.68
693.65	19538.79
693.78	19384.32
693.92	19140.90
694.05	19168.99
694.19	19033.24
694.32	19122.18
694.45	19129.20
694.59	19124.52
694.72	18930.25
694.86	18504.28
694.99	18607.26
695.13	18548.75
695.26	18153.20
695.39	18317.03
695.53	18604.92
695.66	18405.97
695.80	18387.25
695.93	18214.05
696.07	18108.72
696.20	17956.59
696.33	17980.00
696.47	18005.74
696.60	17937.87
696.73	17755.30
696.87	17682.75
697.00	17900.42
697.14	17483.80
697.27	17633.60
697.40	17282.52
697.54	17095.27
697.67	17343.37
697.80	17207.62
697.94	17013.35
698.07	17123.36
698.21	16826.11
698.34	16868.24
698.47	16758.24
698.61	16500.78
698.74	16360.34
698.87	16524.18
699.01	16460.99
699.14	16514.82
699.27	16212.89
699.40	16238.64
699.54	16063.10
699.67	15917.98
699.80	15948.41
699.94	16074.80
700.07	16084.16
700.20	15913.30
700.34	15330.51
700.47	15534.14
700.60	16013.95
700.73	15777.55
700.87	15681.59
701.00	15470.94
701.13	15398.38
701.26	15136.24
701.40	15721.38
701.53	15262.63
701.66	15236.89
701.79	14972.41
701.93	15016.88
702.06	14750.06
702.19	14745.38
702.32	14789.85
702.46	14630.69
702.59	14640.05
702.72	14803.89
702.85	14562.81
702.99	14801.55
703.12	14532.39
703.25	14651.75
703.38	14305.35
703.51	14134.50
703.65	14356.85
703.78	14104.07
703.91	14099.39
704.04	14284.29
704.17	14235.14
704.31	14057.26
704.44	13696.82
704.57	13364.46
704.70	13481.49
704.83	13675.75
704.96	13554.04
705.10	13727.24
705.23	13703.84
>>>>>End Processed Spectral Data<<<<<
