SpectraSuite Data File
++++++++++++++++++++++++++++++++++++
Date: Fri Oct 25 11:23:47 EDT 2013
User: price-jones
Dark Spectrum Present: No
Reference Spectrum Present: No
Number of Sampled Component Spectra: 1
Spectrometers: USB2+H05261
Integration Time (usec): 100000 (USB2+H05261)
Spectra Averaged: 1 (USB2+H05261)
Boxcar Smoothing: 0 (USB2+H05261)
Correct for Electrical Dark: No (USB2+H05261)
Strobe/Lamp Enabled: No (USB2+H05261)
Correct for Detector Non-linearity: No (USB2+H05261)
Correct for Stray Light: No (USB2+H05261)
Number of Pixels in Processed Spectrum: 2048
>>>>>Begin Processed Spectral Data<<<<<
365.73	220.01
365.92	220.01
366.12	220.01
366.32	105.32
366.52	60.85
366.72	142.77
366.91	107.66
367.11	65.54
367.31	84.26
367.51	91.28
367.70	102.98
367.90	117.03
368.10	58.51
368.30	149.79
368.49	196.60
368.69	168.52
368.89	191.92
369.09	152.13
369.28	177.88
369.48	98.30
369.68	149.79
369.87	243.42
370.07	189.58
370.27	245.76
370.47	245.76
370.66	554.71
370.86	615.56
371.06	667.05
371.25	737.27
371.45	744.29
371.65	676.41
371.84	697.48
372.04	648.33
372.24	699.82
372.44	681.10
372.63	748.97
372.83	718.54
373.03	751.31
373.22	760.67
373.42	725.57
373.62	755.99
373.81	809.83
374.01	760.67
374.21	823.87
374.40	819.19
374.60	880.04
374.79	866.00
374.99	823.87
375.19	816.85
375.38	924.51
375.58	873.02
375.78	894.08
375.97	873.02
376.17	889.40
376.37	819.19
376.56	802.80
376.76	875.36
376.95	791.10
377.15	809.83
377.35	908.13
377.54	908.13
377.74	891.74
377.93	1018.13
378.13	870.68
378.33	926.85
378.52	987.71
378.72	964.30
378.91	973.66
379.11	933.87
379.31	959.62
379.50	1013.45
379.70	997.07
379.89	1013.45
380.09	1001.75
380.28	915.15
380.48	1095.37
380.68	1048.56
380.87	1048.56
381.07	1020.47
381.26	1109.41
381.46	1081.33
381.65	1071.97
381.85	1144.52
382.04	1006.43
382.24	1060.26
382.43	1062.60
382.63	1114.10
382.83	1048.56
383.02	990.05
383.22	1043.88
383.41	1069.62
383.61	1125.80
383.80	1020.47
384.00	1041.54
384.19	1032.18
384.39	1142.18
384.58	1104.73
384.78	1081.33
384.97	1081.33
385.17	1149.20
385.36	1121.12
385.56	1151.54
385.75	1074.31
385.95	1205.38
386.14	1158.57
386.34	1151.54
386.53	1231.12
386.72	1165.59
386.92	1179.63
387.11	1233.46
387.31	1273.25
387.50	1238.14
387.70	1212.40
387.89	1242.82
388.09	1334.11
388.28	1219.42
388.48	1303.68
388.67	1268.57
388.86	1418.36
389.06	1345.81
389.25	1329.42
389.45	1329.42
389.64	1359.85
389.84	1324.74
390.03	1404.32
390.22	1409.00
390.42	1310.70
390.61	1364.53
390.81	1359.85
391.00	1413.68
391.19	1380.92
391.39	1500.28
391.58	1420.71
391.78	1514.33
391.97	1434.75
392.16	1497.94
392.36	1526.03
392.55	1490.92
392.75	1603.27
392.94	1448.79
393.13	1509.65
393.33	1544.75
393.52	1556.46
393.71	1596.25
393.91	1650.08
394.10	1530.71
394.29	1540.07
394.49	1624.33
394.68	1701.57
394.88	1584.54
395.07	1572.84
395.26	1668.80
395.46	1666.46
395.65	1689.87
395.84	1643.06
396.04	1741.36
396.23	1778.81
396.42	1806.89
396.62	1729.66
396.81	1792.85
397.00	1774.13
397.19	1739.02
397.39	1809.23
397.58	1771.79
397.77	1696.89
397.97	1781.15
398.16	1830.30
398.35	1834.98
398.55	1832.64
398.74	1968.39
398.93	1891.15
399.12	1877.11
399.32	1923.92
399.51	1944.99
399.70	2038.61
399.90	1975.41
400.09	2038.61
400.28	2106.48
400.47	1989.46
400.67	2099.46
400.86	2036.27
401.05	2160.31
401.24	2139.25
401.44	2101.80
401.63	2160.31
401.82	2057.33
402.01	2057.33
402.21	2150.95
402.40	2202.44
402.59	2181.38
402.78	2200.10
402.97	2289.04
403.17	2179.04
403.36	2277.34
403.55	2380.32
403.74	2202.44
403.93	2438.84
404.13	2406.07
404.32	2422.45
404.51	2392.03
404.70	2406.07
404.89	2300.75
405.09	2609.70
405.28	2431.82
405.47	2548.84
405.66	2518.42
405.85	2586.29
406.05	2450.54
406.24	2593.31
406.43	2548.84
406.62	2656.51
406.81	2668.21
407.00	2579.27
407.20	2630.76
407.39	2684.59
407.58	2738.43
407.77	2754.81
407.96	2754.81
408.15	2857.79
408.34	2705.66
408.54	2775.88
408.73	2848.43
408.92	2881.20
409.11	2829.71
409.30	3012.27
409.49	2935.03
409.68	2920.99
409.87	2986.52
410.07	2939.71
410.26	3073.12
410.45	2986.52
410.64	3021.63
410.83	2958.44
411.02	3082.49
411.21	3169.09
411.40	3054.40
411.59	3185.47
411.78	3197.17
411.98	3222.92
412.17	3377.39
412.36	3304.84
412.55	3396.12
412.74	3391.44
412.93	3382.07
413.12	3361.01
413.31	3545.91
413.50	3534.21
413.69	3517.83
413.88	3684.00
414.07	3744.86
414.26	3679.32
414.45	3665.28
414.64	3623.15
414.83	3667.62
415.02	3866.56
415.22	3775.28
415.41	3796.35
415.60	3934.44
415.79	3985.93
415.98	3943.80
416.17	4065.51
416.36	3913.38
416.55	4095.94
416.74	4070.19
416.93	3995.29
417.12	4117.00
417.31	4177.86
417.50	4131.05
417.69	4320.63
417.88	4227.01
418.07	4194.24
418.26	4257.43
418.45	4280.84
418.64	4367.44
418.83	4514.89
419.02	4290.20
419.21	4547.66
419.39	4470.42
419.58	4514.89
419.77	4325.31
419.96	4573.41
420.15	4697.46
420.34	4559.36
420.53	4519.57
420.72	4711.50
420.91	4734.90
421.10	4828.53
421.29	4908.10
421.48	4702.14
421.67	4765.33
421.86	4814.48
422.05	4865.97
422.24	4741.93
422.43	4873.00
422.61	4755.97
422.80	4950.23
422.99	4924.49
423.18	5048.54
423.37	5025.13
423.56	4908.10
423.75	4828.53
423.94	4800.44
424.13	4706.82
424.32	4746.61
424.50	4997.04
424.69	5144.50
424.88	4997.04
425.07	4887.04
425.26	4912.78
425.45	5078.96
425.64	5025.13
425.83	5015.77
426.01	5093.01
426.20	5046.20
426.39	5048.54
426.58	5104.71
426.77	5083.64
426.96	5217.05
427.15	5184.29
427.33	5303.65
427.52	5343.44
427.71	5144.50
427.90	5263.86
428.09	5334.08
428.28	5348.12
428.46	5348.12
428.65	5345.78
428.84	5533.03
429.03	5528.35
429.22	5460.47
429.40	5497.92
429.59	5483.88
429.78	5275.57
429.97	5291.95
430.16	5261.52
430.34	5661.76
430.53	5628.99
430.72	5661.76
430.91	5654.73
431.10	5755.38
431.28	5856.02
431.47	5781.12
431.66	5846.66
431.85	5797.51
432.03	5895.81
432.22	6005.81
432.41	5853.68
432.60	5921.56
432.79	5748.36
432.97	6052.63
433.16	6078.37
433.35	5902.83
433.54	6071.35
433.72	6143.91
433.91	6162.63
434.10	6324.13
434.28	6108.80
434.47	6169.65
434.66	6244.55
434.85	6225.82
435.03	6186.04
435.22	6392.00
435.41	6494.99
435.59	6490.31
435.78	6354.55
435.97	6513.71
436.16	6478.60
436.34	6392.00
436.53	6593.29
436.72	6665.85
436.90	6443.49
437.09	6689.25
437.28	6572.22
437.46	6455.20
437.65	6567.54
437.84	6834.36
438.02	6820.32
438.21	6977.14
438.40	6815.64
438.58	6988.84
438.77	7138.63
438.96	7023.95
439.14	6909.26
439.33	7288.43
439.52	7094.16
439.70	7227.57
439.89	7414.82
440.08	7314.17
440.26	7405.46
440.45	7470.99
440.63	7494.40
440.82	7620.78
441.01	7602.06
441.19	7669.94
441.38	7976.55
441.57	7801.01
441.75	7957.82
441.94	7927.39
442.12	8046.76
442.31	8184.85
442.50	8002.29
442.68	8039.74
442.87	7798.66
443.05	8138.04
443.24	8365.07
443.43	8191.88
443.61	8297.20
443.80	8355.71
443.98	8100.59
444.17	7920.37
444.35	8299.54
444.54	8266.77
444.73	8248.05
444.91	8325.29
445.10	8264.43
445.28	8442.31
445.47	8346.35
445.65	8353.37
445.84	8634.24
446.02	8592.11
446.21	8416.57
446.39	8482.10
446.58	8489.12
446.77	8564.02
446.95	8437.63
447.14	8437.63
447.32	8652.96
447.51	8489.12
447.69	8615.51
447.88	8671.68
448.06	8493.80
448.25	8585.08
448.43	8746.58
448.62	8589.77
448.80	8730.20
448.99	8456.36
449.17	8695.09
449.36	8596.79
449.54	8793.39
449.73	9013.40
449.91	8978.30
450.10	8702.11
450.28	8933.82
450.46	9015.74
450.65	9205.33
450.83	9135.11
451.02	9055.53
451.20	9100.00
451.39	9446.40
451.57	9043.83
451.76	9095.32
451.94	9348.10
452.13	9448.74
452.31	9345.76
452.49	9249.80
452.68	9577.47
452.86	9525.98
453.05	9554.07
453.23	9404.27
453.42	9291.93
453.60	9430.02
453.78	9724.93
453.97	9291.93
454.15	9465.13
454.34	9322.35
454.52	9774.08
454.70	9820.89
454.89	9788.12
455.07	9987.07
455.26	9909.83
455.44	9928.55
455.62	9621.94
455.81	9968.34
455.99	10153.24
456.17	9984.73
456.36	10022.17
456.54	10303.04
456.73	10366.23
456.91	10448.15
457.09	10583.90
457.28	10384.96
457.46	10216.44
457.64	10459.85
457.83	10448.15
458.01	10429.43
458.19	10677.52
458.38	10504.32
458.56	10778.17
458.74	10724.33
458.93	10714.97
459.11	10494.96
459.29	10607.31
459.48	10920.94
459.66	10813.28
459.84	11115.20
460.03	11140.95
460.21	11033.29
460.39	10899.87
460.57	11169.04
460.76	11199.46
460.94	11265.00
461.12	11272.02
461.31	11290.74
461.49	11323.51
461.67	11290.74
461.85	11552.88
462.04	11229.89
462.22	11648.85
462.40	11789.28
462.59	11477.99
462.77	11590.33
462.95	11646.51
463.13	11817.36
463.32	11506.07
463.50	11875.88
463.68	11913.33
463.86	12042.06
464.05	11726.08
464.23	11744.81
464.41	12100.57
464.59	11777.58
464.78	12107.59
464.96	12198.87
465.14	11733.11
465.32	12297.17
465.50	12210.57
465.69	12358.03
465.87	12105.25
466.05	12231.64
466.23	12280.79
466.41	12170.79
466.60	12566.34
466.78	12241.00
466.96	12428.24
467.14	12278.45
467.32	12353.35
467.51	12606.13
467.69	12245.68
467.87	12535.91
468.05	12725.49
468.23	12650.60
468.41	12470.37
468.60	12453.99
468.78	13095.30
468.96	12688.04
469.14	12674.00
469.32	13062.53
469.50	12571.02
469.69	12975.93
469.87	13128.06
470.05	13191.26
470.23	13411.27
470.41	13380.84
470.59	13242.75
470.77	13238.07
470.95	13495.53
471.14	13577.45
471.32	13434.68
471.50	13418.29
471.68	13642.98
471.86	13820.86
472.04	13729.58
472.22	14015.13
472.40	13741.29
472.58	13776.39
472.77	13874.70
472.95	14286.63
473.13	14492.60
473.31	14068.96
473.49	14317.06
473.67	14267.91
473.85	14298.33
474.03	14885.81
474.21	14635.37
474.39	14661.12
474.57	14736.01
474.75	14939.64
474.93	14752.40
475.12	14843.68
475.30	14916.23
475.48	15103.48
475.66	15435.83
475.84	15157.31
476.02	15639.46
476.20	15117.52
476.38	15936.71
476.56	16182.46
476.74	16210.55
476.92	15901.60
477.10	15878.19
477.28	16142.67
477.46	16002.24
477.64	16365.03
477.82	16470.35
478.00	17238.05
478.18	16781.64
478.36	17221.66
478.54	17097.61
478.72	17109.32
478.90	17453.37
479.08	17661.68
479.26	17713.17
479.44	17965.95
479.62	18122.77
479.80	17937.87
479.98	18338.10
480.16	18721.95
480.34	18504.28
480.52	18838.97
480.70	19122.18
480.88	18274.90
481.06	18860.04
481.24	18836.63
481.41	19054.30
481.59	19339.85
481.77	19349.21
481.95	19829.02
482.13	19648.80
482.31	19711.99
482.49	20306.49
482.67	20395.43
482.85	20301.81
483.03	20774.60
483.21	20702.04
483.39	21249.72
483.57	21032.05
483.74	21270.79
483.92	21591.44
484.10	21376.11
484.28	21752.94
484.46	21717.83
484.64	22298.28
484.82	22260.84
485.00	22473.82
485.18	22625.96
485.35	23002.78
485.53	23101.09
485.71	23152.58
485.89	23700.26
486.07	23758.78
486.25	23489.62
486.43	23838.36
486.61	23716.65
486.78	24121.56
486.96	24112.20
487.14	24582.65
487.32	24971.18
487.50	24952.45
487.68	25008.62
487.85	25441.62
488.03	25757.60
488.21	25827.81
488.39	25839.51
488.57	26265.49
488.75	26469.12
488.92	26583.80
489.10	26698.49
489.28	27047.23
489.46	27218.09
489.64	27087.02
489.81	27606.62
489.99	28119.20
490.17	28034.94
490.35	28379.00
490.53	28369.63
490.70	28451.55
490.88	28133.24
491.06	29118.60
491.24	29235.63
491.41	29174.78
491.59	29237.97
491.77	29401.81
491.95	29570.33
492.13	30061.84
492.30	29996.31
492.48	30162.48
492.66	30649.32
492.84	30569.74
493.01	30700.81
493.19	30911.46
493.37	31117.42
493.54	31337.43
493.72	31875.76
493.90	31721.28
494.08	32081.72
494.25	31819.58
494.43	32428.12
494.61	32563.87
494.79	32526.42
494.96	32886.87
495.14	32933.68
495.32	33376.04
495.49	33453.28
495.67	33563.28
495.85	33570.30
496.02	34122.67
496.20	33858.19
496.38	34302.89
496.55	34408.22
496.73	34988.67
496.91	34728.87
497.09	34939.52
497.26	35089.31
497.44	35218.04
497.62	35393.58
497.79	36135.53
497.97	35875.73
498.14	36334.48
498.32	36313.41
498.50	36421.08
498.67	37053.02
498.85	36776.84
499.03	37148.98
499.20	36797.90
499.38	37312.82
499.56	37085.79
499.73	37523.47
499.91	37574.96
500.08	37790.29
500.26	37504.74
500.44	38038.39
500.61	38127.33
500.79	38377.76
500.97	38073.49
501.14	38834.17
501.32	38522.88
501.49	38651.61
501.67	38513.52
501.84	39402.92
502.02	38696.08
502.20	39365.47
502.37	39665.06
502.55	39711.87
502.72	39531.65
502.90	39571.44
503.07	39950.60
503.25	40257.21
503.43	39896.77
503.60	40648.08
503.78	40683.19
503.95	40554.46
504.13	40762.77
504.30	40683.19
504.48	40676.17
504.65	40734.68
504.83	41013.21
505.01	41715.37
505.18	41476.63
505.36	41895.59
505.53	41502.38
505.71	41853.46
505.88	42167.09
506.06	41544.51
506.23	42281.78
506.41	41778.56
506.58	42511.15
506.76	42272.42
506.93	43061.18
507.11	42272.42
507.28	42335.61
507.46	42726.48
507.63	42997.98
507.81	43686.10
507.98	43063.52
508.16	43206.29
508.33	43482.47
508.50	43658.01
508.68	43922.49
508.85	44278.25
509.03	43995.05
509.20	44402.30
509.38	44491.24
509.55	44664.44
509.73	44914.88
509.90	45148.93
510.08	45036.59
510.25	44973.39
510.42	44259.53
510.60	45364.26
510.77	45474.27
510.95	45874.50
511.12	45003.82
511.30	45092.76
511.47	45195.74
511.64	45357.24
511.82	46323.88
511.99	45933.01
512.17	46340.27
512.34	46124.94
512.51	46302.82
512.69	46738.16
512.86	46506.44
513.04	46981.57
513.21	46967.53
513.38	46794.33
513.56	47557.35
513.73	47051.79
513.90	47543.30
514.08	46972.21
514.25	47978.64
514.43	47484.79
514.60	47744.59
514.77	47592.45
514.95	47896.72
515.12	47363.08
515.29	47817.14
515.47	48421.00
515.64	48210.35
515.81	48168.22
515.99	48320.36
516.16	49137.21
516.33	48509.94
516.51	48816.55
516.68	48692.50
516.85	48865.70
517.03	49113.80
517.20	48926.56
517.37	48919.54
517.54	49347.86
517.72	49251.89
517.89	49338.49
518.06	49279.98
518.24	49638.08
518.41	49474.24
518.58	49635.74
518.75	49516.37
518.93	49516.37
519.10	49443.82
519.27	50080.44
519.45	50103.85
519.62	49975.12
519.79	50363.65
519.96	50206.83
520.14	50490.04
520.31	50307.47
520.48	50548.55
520.65	50733.45
520.83	50796.65
521.00	50871.54
521.17	51150.07
521.34	50770.90
521.52	51363.06
521.69	51021.34
521.86	51292.84
522.03	51346.67
522.20	51536.26
522.38	51606.47
522.55	52002.02
522.72	51379.44
522.89	51477.74
523.07	51831.16
523.24	51744.56
523.41	51992.66
523.58	51929.47
523.75	52273.52
523.92	51922.44
524.10	52364.81
524.27	52226.71
524.44	52140.11
524.61	51887.34
524.78	52512.26
524.96	52247.78
525.13	52313.31
525.30	52479.49
525.47	52425.66
525.64	52713.55
525.81	52671.42
525.98	53017.82
526.16	52800.15
526.33	52963.98
526.50	53099.73
526.67	53137.18
526.84	52961.64
527.01	53155.91
527.18	52942.92
527.36	53219.10
527.53	53251.87
527.70	53565.50
527.87	53385.28
528.04	53593.59
528.21	53865.09
528.38	53509.33
528.55	53736.36
528.72	53420.39
528.89	53230.80
529.07	53521.03
529.24	53518.69
529.41	53797.21
529.58	54157.66
529.75	53530.39
529.92	53862.75
530.09	54089.78
530.26	54155.32
530.43	53872.11
530.60	54003.18
530.77	54010.20
530.94	54284.04
531.11	53876.79
531.28	54300.43
531.46	54157.66
531.63	54422.14
531.80	54270.00
531.97	54478.31
532.14	54490.01
532.31	54485.33
532.48	54878.54
532.65	54597.68
532.82	54810.67
532.99	54677.25
533.16	54667.89
533.33	54948.76
533.50	55164.09
533.67	54899.61
533.84	54857.48
534.01	55124.30
534.18	55159.41
534.35	55599.43
534.52	55187.49
534.69	55454.31
534.86	55320.90
535.03	55278.77
535.20	55463.67
535.37	55372.39
535.54	55650.92
535.71	55276.43
535.88	55398.14
536.05	55416.86
536.22	55774.97
536.38	55800.71
536.55	55742.20
536.72	55655.60
536.89	55599.43
537.06	55789.01
537.23	55941.14
537.40	55770.28
537.57	56020.72
537.74	55931.78
537.91	56067.53
538.08	56044.13
538.25	55903.70
538.42	55894.33
538.59	56310.95
538.75	55983.27
538.92	56301.59
539.09	56289.88
539.26	56100.30
539.43	56292.22
539.60	56324.99
539.77	56175.20
539.94	56472.45
540.11	56374.14
540.28	56610.54
540.44	56570.75
540.61	56390.53
540.78	56519.26
540.95	56577.77
541.12	56521.60
541.29	56488.83
541.46	56699.48
541.62	56680.75
541.79	56992.04
541.96	56589.47
542.13	56535.64
542.30	56776.72
542.47	57095.03
542.63	56924.17
542.80	57045.88
542.97	57303.34
543.14	57308.02
543.31	57275.25
543.48	57392.28
543.64	57521.01
543.81	57752.72
543.98	57666.12
544.15	57406.32
544.32	57668.46
544.48	57832.30
544.65	57565.48
544.82	57588.88
544.99	57425.04
545.16	57631.01
545.32	57600.58
545.49	57975.07
545.66	58005.50
545.83	57783.15
546.00	57738.68
546.16	57666.12
546.33	57827.62
546.50	57605.26
546.67	57799.53
546.83	57436.75
547.00	57975.07
547.17	57808.89
547.34	57855.70
547.50	58056.99
547.67	58120.18
547.84	58150.61
548.00	58209.12
548.17	58092.10
548.34	58302.74
548.51	58372.96
548.67	58398.71
548.84	58307.43
549.01	58159.97
549.18	58096.78
549.34	58340.19
549.51	58532.12
549.68	58567.23
549.84	58394.03
550.01	58763.83
550.18	58440.84
550.34	58534.46
550.51	58798.94
550.68	58557.86
550.84	58401.05
551.01	58663.19
551.18	58780.21
551.34	58745.11
551.51	58653.82
551.68	58946.39
551.84	58717.02
552.01	58590.63
552.18	58791.92
552.34	58616.38
552.51	58962.78
552.68	58960.44
552.84	58845.75
553.01	59121.93
553.18	58948.73
553.34	58892.56
553.51	58681.91
553.67	59075.12
553.84	59171.08
554.01	59037.67
554.17	59124.27
554.34	59245.98
554.51	59231.94
554.67	59339.60
554.84	58962.78
555.00	58937.03
555.17	59164.06
555.33	59065.76
555.50	59009.59
555.67	59171.08
555.83	59222.58
556.00	59173.42
556.16	59423.86
556.33	59456.63
556.50	59318.54
556.66	59484.72
556.83	59145.34
556.99	59557.27
557.16	59721.11
557.32	59465.99
557.49	59732.81
557.65	59281.09
557.82	59299.81
557.98	59337.26
558.15	59573.66
558.32	59505.78
558.48	59559.61
558.65	59510.46
558.81	59674.30
558.98	59788.98
559.14	59835.80
559.31	59788.98
559.47	59667.28
559.64	59676.64
559.80	60069.85
559.97	59723.45
560.13	59788.98
560.30	59873.24
560.46	59938.78
560.63	60020.70
560.79	60163.47
560.96	60163.47
561.12	59957.50
561.29	60088.57
561.45	59800.69
561.61	59983.25
561.78	59938.78
561.94	59980.91
562.11	59917.71
562.27	59896.65
562.44	60364.76
562.60	60123.68
562.77	60107.30
562.93	59910.69
563.10	60292.20
563.26	60020.70
563.42	60245.39
563.59	60200.92
563.75	59908.35
563.92	60177.51
564.08	60083.89
564.24	60390.50
564.41	60264.11
564.57	60247.73
564.74	60193.90
564.90	60149.43
565.07	60287.52
565.23	60121.34
565.39	60231.35
565.56	60509.87
565.72	60240.71
565.88	60205.60
566.05	60315.61
566.21	60350.71
566.38	60343.69
566.54	60343.69
566.70	60425.61
566.87	60673.71
567.03	60030.06
567.19	60519.23
567.36	60390.50
567.52	60245.39
567.68	60664.35
567.85	60505.19
568.01	60238.37
568.17	60313.26
568.34	60402.21
568.50	60523.91
568.66	60456.04
568.83	60465.40
568.99	60388.16
569.15	60516.89
569.32	60498.17
569.48	60390.50
569.64	60671.37
569.81	60603.49
569.97	60577.75
570.13	60671.37
570.30	60446.68
570.46	60800.10
570.62	60612.85
570.78	60542.64
570.95	60704.13
571.11	60797.76
571.27	60631.58
571.43	60446.68
571.60	60891.38
571.76	60638.60
571.92	60624.56
572.09	60816.48
572.25	60697.11
572.41	60615.19
572.57	60870.31
572.74	60835.20
572.90	60664.35
573.06	60746.26
573.22	60788.39
573.38	60678.39
573.55	60687.75
573.71	60982.66
573.87	60776.69
574.03	60512.21
574.20	60764.99
574.36	60764.99
574.52	60748.60
574.68	60935.85
574.84	60924.14
575.01	60832.86
575.17	60867.97
575.33	60807.12
575.49	60715.84
575.65	61017.77
575.82	60828.18
575.98	60973.30
576.14	61123.09
576.30	61024.79
576.46	60867.97
576.62	60793.07
576.79	60877.33
576.95	60746.26
577.11	60750.94
577.27	60926.49
577.43	60910.10
577.59	60828.18
577.75	60947.55
577.92	60795.42
578.08	60809.46
578.24	61024.79
578.40	61127.77
578.56	61006.06
578.72	60912.44
578.88	61052.87
579.04	61010.74
579.21	61029.47
579.37	60938.19
579.53	61277.57
579.69	60935.85
579.85	60914.78
580.01	60919.46
580.17	60893.72
580.33	61111.39
580.49	61090.32
580.65	61193.31
580.82	61029.47
580.98	60877.33
581.14	60968.61
581.30	61111.39
581.46	60968.61
581.62	61172.24
581.78	61050.53
581.94	61059.90
582.10	61020.11
582.26	61200.33
582.42	61080.96
582.58	61078.62
582.74	60966.27
582.90	60938.19
583.06	60992.02
583.22	60896.06
583.38	61092.66
583.54	60940.53
583.70	61137.13
583.86	61034.15
584.02	60954.57
584.18	61270.54
584.34	61038.83
584.50	60942.87
584.66	61055.21
584.82	60874.99
584.98	61144.16
585.14	61275.22
585.30	60992.02
585.46	60907.76
585.62	61087.98
585.78	61331.40
585.94	61059.90
586.10	61188.63
586.26	61174.58
586.42	61289.27
586.58	61186.28
586.74	61003.72
586.90	61141.81
587.06	61233.10
587.22	61205.01
587.38	61130.11
587.54	61394.59
587.70	61247.14
587.86	61130.11
588.02	61282.25
588.18	61354.80
588.34	61151.18
588.49	61057.56
588.65	61111.39
588.81	61085.64
588.97	61284.59
589.13	61476.51
589.29	61176.92
589.45	61226.07
589.61	61532.68
589.77	61385.23
589.93	61258.84
590.08	61289.27
590.24	61469.49
590.40	61616.94
590.56	61553.75
590.72	61471.83
590.88	60959.25
591.04	61277.57
591.20	61677.80
591.35	61396.93
591.51	61684.82
591.67	61546.73
591.83	61483.53
591.99	61504.60
592.15	61506.94
592.31	61680.14
592.46	61469.49
592.62	61642.69
592.78	61623.96
592.94	61724.61
593.10	61588.86
593.26	61694.18
593.41	61513.96
593.57	61380.55
593.73	61595.88
593.89	61619.28
594.05	61572.47
594.20	61450.77
594.36	61635.67
594.52	61680.14
594.68	61450.77
594.84	61422.68
594.99	61717.59
595.15	61687.16
595.31	61635.67
595.47	61410.98
595.62	61701.20
595.78	61661.41
595.94	61460.13
596.10	61745.67
596.25	61773.76
596.41	61689.50
596.57	61790.14
596.73	61822.91
596.88	61495.24
597.04	61785.46
597.20	61879.08
597.36	61708.22
597.51	61846.32
597.67	61638.01
597.83	61462.47
597.99	61614.60
598.14	61841.63
598.30	61677.80
598.46	61813.55
598.61	61874.40
598.77	61825.25
598.93	61680.14
599.09	61755.03
599.24	62012.49
599.40	61961.00
599.56	61932.92
599.71	61862.70
599.87	61961.00
600.03	61853.34
600.18	61792.48
600.34	61682.48
600.50	61921.21
600.65	61722.27
600.81	61773.76
600.97	61914.19
601.12	61855.68
601.28	61956.32
601.44	61792.48
601.59	61736.31
601.75	61815.89
601.91	62176.33
602.06	61843.98
602.22	61991.43
602.37	61708.22
602.53	61839.29
602.69	61888.45
602.84	61808.87
603.00	61780.78
603.16	61986.75
603.31	61893.13
603.47	61846.32
603.62	61951.64
603.78	62063.99
603.94	61677.80
604.09	61881.42
604.25	61942.28
604.40	61848.66
604.56	61886.10
604.71	62099.09
604.87	61799.50
605.03	61975.05
605.18	61942.28
605.34	62052.28
605.49	61621.62
605.65	61890.79
605.80	61907.17
605.96	61975.05
606.12	61986.75
606.27	61930.58
606.43	61890.79
606.58	61785.46
606.74	61712.91
606.89	61815.89
607.05	61851.00
607.20	62005.47
607.36	61703.54
607.51	61649.71
607.67	61722.27
607.82	61951.64
607.98	61630.99
608.13	61811.21
608.29	61825.25
608.44	61811.21
608.60	61605.24
608.75	61717.59
608.91	61813.55
609.06	61649.71
609.22	61916.53
609.37	61797.16
609.53	61647.37
609.68	61607.58
609.84	61806.53
609.99	61799.50
610.15	61600.56
610.30	61799.50
610.46	61815.89
610.61	61724.61
610.76	61598.22
610.92	61705.88
611.07	61570.13
611.23	61586.52
611.38	61755.03
611.54	61684.82
611.69	61752.69
611.84	61675.46
612.00	61712.91
612.15	61743.33
612.31	61822.91
612.46	61563.11
612.62	61609.92
612.77	61523.32
612.92	61663.75
613.08	61635.67
613.23	61577.15
613.39	61579.49
613.54	61513.96
613.69	61607.58
613.85	61663.75
614.00	61787.80
614.15	61684.82
614.31	61530.34
614.46	61436.72
614.62	61322.04
614.77	61518.64
614.92	61495.24
615.08	61572.47
615.23	61511.62
615.38	61350.12
615.54	61279.91
615.69	61422.68
615.84	61453.11
616.00	61560.77
616.15	61291.61
616.30	61455.45
616.46	61214.37
616.61	61565.45
616.76	61532.68
616.92	61254.16
617.07	61443.74
617.22	61279.91
617.37	61277.57
617.53	61710.56
617.68	61591.20
617.83	61326.72
617.99	61469.49
618.14	61382.89
618.29	61317.35
618.45	61111.39
618.60	61139.47
618.75	61254.16
618.90	61254.16
619.06	61298.63
619.21	61242.46
619.36	61511.62
619.51	61401.61
619.67	61071.60
619.82	61228.41
619.97	61359.48
620.12	61165.22
620.28	61104.37
620.43	61207.35
620.58	61064.58
620.73	60774.35
620.89	61022.45
621.04	61347.78
621.19	61071.60
621.34	61050.53
621.49	60917.12
621.65	61190.97
621.80	61085.64
621.95	60926.49
622.10	61130.11
622.25	61071.60
622.41	61034.15
622.56	61144.16
622.71	60816.48
622.86	60753.29
623.01	60662.00
623.16	60687.75
623.32	60963.93
623.47	60956.91
623.62	60975.64
623.77	60800.10
623.92	61045.85
624.07	60940.53
624.23	60816.48
624.38	60917.12
624.53	60764.99
624.68	60753.29
624.83	60865.63
624.98	60692.43
625.13	60706.47
625.29	61010.74
625.44	60891.38
625.59	60706.47
625.74	60718.18
625.89	60486.46
626.04	60397.52
626.19	60690.09
626.34	60596.47
626.49	60516.89
626.65	60425.61
626.80	60561.36
626.95	60334.33
627.10	60303.90
627.25	60369.44
627.40	60505.19
627.55	60479.44
627.70	60303.90
627.85	60563.70
628.00	60498.17
628.15	60397.52
628.30	60411.57
628.45	60266.45
628.60	60383.48
628.76	60343.69
628.91	60285.18
629.06	60236.03
629.21	60449.02
629.36	60385.82
629.51	60460.72
629.66	60261.77
629.81	60034.74
629.96	60247.73
630.11	60217.30
630.26	60456.04
630.41	60484.12
630.56	60102.62
630.71	60151.77
630.86	60348.37
631.01	60107.30
631.16	60212.62
631.31	60142.41
631.46	59969.21
631.61	60140.07
631.76	60214.96
631.91	60072.19
632.06	60104.96
632.21	60341.35
632.36	59985.59
632.51	59835.80
632.66	60074.53
632.81	59952.82
632.96	59941.12
633.10	60086.23
633.25	60119.00
633.40	59774.94
633.55	59952.82
633.70	59688.34
633.85	59992.61
634.00	59887.29
634.15	59863.88
634.30	59889.63
634.45	60025.38
634.60	60137.72
634.75	59964.52
634.90	59704.73
635.05	59838.14
635.19	59770.26
635.34	60013.68
635.49	59812.39
635.64	59697.70
635.79	59779.62
635.94	59819.41
636.09	59772.60
636.24	59653.23
636.39	59573.66
636.53	59622.81
636.68	59777.28
636.83	59664.94
636.98	59868.56
637.13	59657.91
637.28	59583.02
637.43	59613.44
637.57	59671.96
637.72	59447.27
637.87	59384.07
638.02	59559.61
638.17	59578.34
638.32	59433.22
638.46	59309.18
638.61	59470.67
638.76	59444.93
638.91	59370.03
639.06	59213.21
639.20	59180.45
639.35	59391.09
639.50	59147.68
639.65	59189.81
639.80	59468.33
639.94	59089.16
640.09	59154.70
640.24	59262.36
640.39	58913.62
640.54	59192.15
640.68	59250.66
640.83	59348.96
640.98	59114.91
641.13	59112.57
641.27	59501.10
641.42	59281.09
641.57	58979.16
641.72	58930.01
641.86	59051.72
642.01	58937.03
642.16	59011.93
642.31	59002.56
642.45	59004.91
642.60	59091.51
642.75	59173.42
642.90	58988.52
643.04	58946.39
643.19	58922.99
643.34	58836.39
643.48	59147.68
643.63	59135.98
643.78	58836.39
643.93	58717.02
644.07	58904.26
644.22	58738.08
644.37	58546.16
644.51	58623.40
644.66	58890.22
644.81	58726.38
644.95	58698.30
645.10	58829.37
645.25	58731.06
645.39	58588.29
645.54	58791.92
645.69	58607.01
645.83	58855.11
645.98	58831.71
646.13	58766.17
646.27	58733.40
646.42	58588.29
646.57	58677.23
646.71	58742.77
646.86	58665.53
647.00	58677.23
647.15	58473.60
647.30	58515.73
647.44	58206.78
647.59	58719.36
647.74	58644.46
647.88	58618.72
648.03	58670.21
648.17	58784.90
648.32	58358.92
648.47	58471.26
648.61	58457.22
648.76	58335.51
648.90	58553.18
649.05	58344.87
649.20	58457.22
649.34	58468.92
649.49	58487.65
649.63	58489.99
649.78	58712.34
649.92	58206.78
650.07	58543.82
650.21	58239.55
650.36	58195.08
650.51	58326.15
650.65	58499.35
650.80	58384.66
650.94	58169.33
651.09	58096.78
651.23	57858.04
651.38	58253.59
651.52	57979.75
651.67	58045.29
651.81	58127.20
651.96	58171.67
652.10	58035.92
652.25	57860.38
652.39	58054.65
652.54	57975.07
652.68	57584.20
652.83	57755.06
652.97	57982.09
653.12	57961.03
653.26	58159.97
653.41	58159.97
653.55	57813.57
653.70	57954.00
653.84	58007.84
653.99	57726.97
654.13	57895.49
654.27	57703.57
654.42	57623.99
654.56	57724.63
654.71	57848.68
654.85	57745.70
655.00	57893.15
655.14	57724.63
655.29	57736.34
655.43	57703.57
655.57	57647.39
655.72	57675.48
655.86	57675.48
656.01	57841.66
656.15	57499.94
656.30	57755.06
656.44	57726.97
656.58	57722.29
656.73	57588.88
656.87	57633.35
657.01	57542.07
657.16	57792.51
657.30	57652.08
657.45	57415.68
657.59	57226.10
657.73	57237.80
657.88	57223.76
658.02	57195.67
658.16	57453.13
658.31	57071.62
658.45	57052.90
658.60	57167.58
658.74	57254.18
658.88	57125.46
659.03	57111.41
659.17	57265.89
659.31	57106.73
659.46	56999.07
659.60	56940.55
659.74	57111.41
659.89	57017.79
660.03	57055.24
660.17	57052.90
660.32	56914.81
660.46	57050.56
660.60	56690.12
660.74	56804.80
660.89	57120.77
661.03	56694.80
661.17	56832.89
661.32	56615.22
661.46	56530.96
661.60	56666.71
661.74	56655.01
661.89	56357.76
662.03	56296.91
662.17	56423.29
662.31	56198.60
662.46	56828.21
662.60	56348.40
662.74	56418.61
662.88	56231.37
663.03	56065.19
663.17	56175.20
663.31	55840.50
663.45	56009.02
663.60	55873.27
663.74	55627.51
663.88	55894.33
664.02	55861.57
664.17	56055.83
664.31	55643.90
664.45	55969.23
664.59	55760.92
664.73	55784.33
664.88	55604.11
665.02	55466.02
665.16	55594.74
665.30	55770.28
665.44	55533.89
665.59	55571.34
665.73	55437.93
665.87	55260.05
666.01	55533.89
666.15	55255.37
666.29	55274.09
666.44	55473.04
666.58	55206.22
666.72	54958.12
666.86	55348.99
667.00	55068.12
667.14	55016.63
667.28	54923.01
667.43	54635.13
667.57	54901.95
667.71	54897.27
667.85	54906.63
667.99	54520.44
668.13	54836.41
668.27	54628.10
668.41	54822.37
668.56	54461.93
668.70	54487.67
668.84	54246.60
668.98	54408.09
669.12	54548.53
669.26	54829.39
669.40	54241.92
669.54	54513.42
669.68	54267.66
669.82	53993.82
669.96	54225.53
670.10	53902.54
670.25	54445.54
670.39	54099.14
670.53	53965.73
670.67	53778.49
670.81	54204.47
670.95	53844.02
671.09	53598.27
671.23	53792.53
671.37	53436.77
671.51	53734.02
671.65	53621.67
671.79	53563.16
671.93	53202.72
672.07	53193.36
672.21	53174.63
672.35	53155.91
672.49	52971.00
672.63	52900.79
672.77	52769.72
672.91	53120.80
673.05	52692.48
673.19	52900.79
673.33	52746.31
673.47	52839.93
673.61	52736.95
673.75	52666.73
673.89	52320.34
674.03	52306.29
674.17	52458.43
674.31	51973.94
674.45	51711.80
674.59	51887.34
674.73	52219.69
674.87	51899.04
675.01	51938.83
675.15	51973.94
675.29	51990.32
675.43	52025.43
675.56	51351.35
675.70	51117.30
675.84	51381.78
675.98	50377.69
676.12	51126.66
676.26	51292.84
676.40	50719.41
676.54	50614.08
676.68	50679.62
676.82	50412.80
676.96	50244.28
677.10	50155.34
677.23	49862.77
677.37	50052.36
677.51	50094.49
677.65	50064.06
677.79	49055.29
677.93	49310.41
678.07	49392.33
678.21	49230.83
678.34	49375.94
678.48	49230.83
678.62	48882.09
678.76	48746.34
678.90	48917.20
679.04	48982.73
679.18	48662.08
679.31	48413.98
679.45	48428.02
679.59	48268.87
679.73	48554.41
679.87	47988.00
680.00	47622.88
680.14	47437.98
680.28	47545.64
680.42	47552.66
680.56	47114.98
680.70	46623.47
680.83	46960.51
680.97	46763.90
681.11	47124.35
681.25	46681.98
681.39	46349.63
681.52	46501.76
681.66	46307.50
681.80	46251.33
681.94	45846.41
682.07	46103.87
682.21	45305.75
682.35	45717.68
682.49	45736.41
682.62	45682.58
682.76	45778.54
682.90	45490.65
683.04	45457.88
683.17	45095.10
683.31	44332.09
683.45	44949.99
683.59	44414.01
683.72	44622.31
683.86	44182.29
684.00	44701.89
684.13	44636.36
684.27	44257.19
684.41	43878.02
684.55	43704.82
684.68	43943.56
684.82	43749.29
684.96	43166.50
685.09	43040.11
685.23	42546.26
685.37	42658.60
685.50	42632.86
685.64	42796.70
685.78	42401.14
685.91	42476.04
686.05	41895.59
686.19	41736.43
686.32	41439.18
686.46	41280.03
686.60	41242.58
686.73	41354.93
686.87	40947.67
687.01	41656.85
687.14	41338.54
687.28	40800.22
687.42	40896.18
687.55	40105.08
687.69	40580.21
687.82	39941.24
687.96	39964.65
688.10	39899.11
688.23	39550.37
688.37	39288.23
688.50	39110.35
688.64	39218.02
688.78	38810.76
688.91	38642.24
689.05	38756.93
689.18	39007.37
689.32	37982.21
689.46	38064.13
689.59	38043.07
689.73	37841.78
689.86	37757.52
690.00	37757.52
690.13	37766.88
690.27	37682.62
690.41	37612.41
690.54	37095.15
690.68	36884.50
690.81	36975.78
690.95	36498.31
691.08	36886.84
691.22	36343.84
691.35	36320.43
691.49	36421.08
691.62	36580.23
691.76	36357.88
691.89	35866.37
692.03	35782.11
692.16	35583.16
692.30	35145.48
692.43	35395.92
692.57	35044.84
692.70	34906.75
692.84	35035.48
692.97	34822.49
693.11	34550.99
693.24	34309.91
693.38	34267.78
693.51	33921.38
693.65	33659.24
693.78	33469.66
693.92	33806.70
694.05	33757.55
694.19	33537.54
694.32	33287.10
694.45	33326.89
694.59	32959.42
694.72	32673.88
694.86	32737.07
694.99	32690.26
695.13	31887.46
695.26	32060.66
695.39	31641.70
695.53	31950.65
695.66	31835.97
695.80	31421.69
695.93	31400.63
696.07	30948.90
696.20	30862.30
696.33	30443.35
696.47	30773.36
696.60	30700.81
696.73	30539.31
696.87	30527.61
697.00	30436.33
697.14	30256.11
697.27	30377.81
697.40	30087.59
697.54	29832.47
697.67	29551.60
697.80	29680.33
697.94	29530.54
698.07	28950.09
698.21	28723.05
698.34	29504.79
698.47	28517.09
698.61	28271.33
698.74	28701.99
698.87	28940.72
699.01	28056.00
699.14	28519.43
699.27	27981.10
699.40	28112.17
699.54	28006.85
699.67	27971.74
699.80	27756.41
699.94	27190.00
700.07	27557.47
700.20	27087.02
700.34	26782.75
700.47	26717.22
700.60	27014.46
700.73	26176.55
700.87	26038.46
701.00	25926.11
701.13	25942.50
701.26	26483.16
701.40	26274.85
701.53	25881.64
701.66	25905.05
701.79	25352.68
701.93	25130.33
702.06	25039.05
702.19	25207.57
702.32	25223.95
702.46	24694.99
702.59	24919.68
702.72	24402.43
702.85	24196.46
702.99	24685.63
703.12	24381.36
703.25	24336.89
703.38	23709.63
703.51	24477.32
703.65	23630.05
703.78	23459.19
703.91	23363.23
704.04	23428.76
704.17	23503.66
704.31	23290.67
704.44	22977.04
704.57	22881.08
704.70	22925.55
704.83	22927.89
704.96	22120.40
705.10	22670.43
705.23	22281.90
>>>>>End Processed Spectral Data<<<<<
