SpectraSuite Data File
++++++++++++++++++++++++++++++++++++
Date: Fri Oct 25 11:22:49 EDT 2013
User: price-jones
Dark Spectrum Present: No
Reference Spectrum Present: No
Number of Sampled Component Spectra: 1
Spectrometers: USB2+H05261
Integration Time (usec): 100000 (USB2+H05261)
Spectra Averaged: 1 (USB2+H05261)
Boxcar Smoothing: 0 (USB2+H05261)
Correct for Electrical Dark: No (USB2+H05261)
Strobe/Lamp Enabled: No (USB2+H05261)
Correct for Detector Non-linearity: No (USB2+H05261)
Correct for Stray Light: No (USB2+H05261)
Number of Pixels in Processed Spectrum: 2048
>>>>>Begin Processed Spectral Data<<<<<
365.73	255.12
365.92	255.12
366.12	255.12
366.32	154.48
366.52	91.28
366.72	126.39
366.91	163.84
367.11	187.24
367.31	133.41
367.51	149.79
367.70	42.13
367.90	201.29
368.10	175.54
368.30	149.79
368.49	163.84
368.69	102.98
368.89	170.86
369.09	81.92
369.28	112.35
369.48	126.39
369.68	173.20
369.87	168.52
370.07	163.84
370.27	196.60
370.47	290.23
370.66	582.79
370.86	568.75
371.06	653.01
371.25	704.50
371.45	671.73
371.65	727.91
371.84	660.03
372.04	706.84
372.24	744.29
372.44	678.76
372.63	809.83
372.83	655.35
373.03	702.16
373.22	681.10
373.42	706.84
373.62	763.01
373.81	840.25
374.01	755.99
374.21	765.36
374.40	784.08
374.60	800.46
374.79	805.14
374.99	821.53
375.19	814.51
375.38	770.04
375.58	830.89
375.78	833.23
375.97	905.79
376.17	861.32
376.37	868.34
376.56	931.53
376.76	814.51
376.95	784.08
377.15	877.70
377.35	908.13
377.54	940.90
377.74	896.43
377.93	997.07
378.13	959.62
378.33	952.60
378.52	908.13
378.72	943.24
378.91	894.08
379.11	894.08
379.31	936.21
379.50	910.47
379.70	1020.47
379.89	1027.50
380.09	968.98
380.28	957.28
380.48	1029.84
380.68	971.32
380.87	976.00
381.07	1083.67
381.26	994.73
381.46	943.24
381.65	978.34
381.85	1015.79
382.04	971.32
382.24	1041.54
382.43	1069.62
382.63	1039.20
382.83	1008.77
383.02	1067.28
383.22	1093.03
383.41	1071.97
383.61	1172.61
383.80	1095.37
384.00	1081.33
384.19	983.02
384.39	1186.65
384.58	1123.46
384.78	1142.18
384.97	1249.85
385.17	1090.69
385.36	1249.85
385.56	1198.35
385.75	1193.67
385.95	1165.59
386.14	1221.76
386.34	1132.82
386.53	1167.93
386.72	1153.88
386.92	1252.19
387.11	1238.14
387.31	1254.53
387.50	1210.06
387.70	1226.44
387.89	1196.01
388.09	1259.21
388.28	1254.53
388.48	1315.38
388.67	1275.59
388.86	1165.59
389.06	1263.89
389.25	1432.41
389.45	1331.76
389.64	1373.89
389.84	1430.07
390.03	1476.88
390.22	1383.26
390.42	1364.53
390.61	1486.24
390.81	1357.51
391.00	1380.92
391.19	1481.56
391.39	1460.49
391.58	1439.43
391.78	1397.30
391.97	1507.30
392.16	1394.96
392.36	1572.84
392.55	1495.60
392.75	1486.24
392.94	1537.73
393.13	1509.65
393.33	1533.05
393.52	1568.16
393.71	1633.69
393.91	1535.39
394.10	1591.56
394.29	1610.29
394.49	1650.08
394.68	1565.82
394.88	1579.86
395.07	1654.76
395.26	1701.57
395.46	1624.33
395.65	1699.23
395.84	1647.74
396.04	1825.62
396.23	1668.80
396.42	1795.19
396.62	1701.57
396.81	1748.38
397.00	1774.13
397.19	1703.91
397.39	1781.15
397.58	1858.39
397.77	1760.08
397.97	1792.85
398.16	1846.68
398.35	1907.54
398.55	1952.01
398.74	1858.39
398.93	2001.16
399.12	2008.18
399.32	1872.43
399.51	1907.54
399.70	1898.17
399.90	1944.99
400.09	2015.20
400.28	2062.01
400.47	1994.14
400.67	2167.34
400.86	2092.44
401.05	2139.25
401.24	2136.91
401.44	2031.58
401.63	2148.61
401.82	2094.78
402.01	2162.66
402.21	2230.53
402.40	2083.08
402.59	2249.25
402.78	2232.87
402.97	2223.51
403.17	2361.60
403.36	2256.28
403.55	2296.07
403.74	2438.84
403.93	2373.30
404.13	2429.48
404.32	2392.03
404.51	2368.62
404.70	2459.90
404.89	2375.64
405.09	2462.24
405.28	2544.16
405.47	2431.82
405.66	2502.03
405.85	2541.82
406.05	2455.22
406.24	2541.82
406.43	2642.46
406.62	2708.00
406.81	2684.59
407.00	2558.21
407.20	2684.59
407.39	2640.12
407.58	2703.32
407.77	2670.55
407.96	2696.30
408.15	2768.85
408.34	2813.32
408.54	2703.32
408.73	2689.28
408.92	2834.39
409.11	2815.66
409.30	2895.24
409.49	2956.10
409.68	2942.05
409.87	2935.03
410.07	2942.05
410.26	2930.35
410.45	3026.31
410.64	3133.98
410.83	3138.66
411.02	3023.97
411.21	3323.56
411.40	3183.13
411.59	3290.79
411.78	3150.36
411.98	3148.02
412.17	3208.87
412.36	3386.76
412.55	3272.07
412.74	3393.78
412.93	3473.36
413.12	3459.31
413.31	3613.79
413.50	3543.57
413.69	3485.06
413.88	3653.58
414.07	3620.81
414.26	3611.45
414.45	3592.72
414.64	3672.30
414.83	3861.88
415.02	3829.12
415.22	3922.74
415.41	3875.93
415.60	3873.59
415.79	3847.84
415.98	4049.13
416.17	3934.44
416.36	4037.42
416.55	3955.51
416.74	4046.79
416.93	4147.43
417.12	3943.80
417.31	4156.79
417.50	4273.82
417.69	4222.33
417.88	4273.82
418.07	4339.35
418.26	4311.27
418.45	4435.32
418.64	4517.23
418.83	4423.61
419.02	4479.79
419.21	4524.26
419.39	4531.28
419.58	4493.83
419.77	4519.57
419.96	4538.30
420.15	4564.04
420.34	4760.65
420.53	4683.41
420.72	4784.06
420.91	4791.08
421.10	4685.75
421.29	4636.60
421.48	4636.60
421.67	4880.02
421.86	4779.37
422.05	4903.42
422.24	4870.65
422.43	4894.06
422.61	4964.28
422.80	4973.64
422.99	4910.44
423.18	4959.60
423.37	4973.64
423.56	4891.72
423.75	4870.65
423.94	4908.10
424.13	4629.58
424.32	4755.97
424.50	4901.08
424.69	5116.41
424.88	5137.48
425.07	4999.38
425.26	4833.21
425.45	5048.54
425.64	5015.77
425.83	4978.32
426.01	5100.03
426.20	5130.45
426.39	5139.82
426.58	5067.26
426.77	5081.30
426.96	5205.35
427.15	5214.71
427.33	5270.89
427.52	5085.98
427.71	5305.99
427.90	5205.35
428.09	5289.61
428.28	5301.31
428.46	5235.78
428.65	5343.44
428.84	5521.32
429.03	5479.19
429.22	5387.91
429.40	5444.09
429.59	5523.66
429.78	5284.93
429.97	5238.12
430.16	5523.66
430.34	5699.20
430.53	5820.91
430.72	5638.35
430.91	5533.03
431.10	5736.65
431.28	5778.78
431.47	5820.91
431.66	6024.54
431.85	5907.51
432.03	6026.88
432.22	6005.81
432.41	6017.52
432.60	5921.56
432.79	6047.94
432.97	6026.88
433.16	6106.46
433.35	5944.96
433.54	6160.29
433.72	6181.35
433.91	6050.28
434.10	6143.91
434.28	6127.52
434.47	6230.51
434.66	6239.87
434.85	6359.24
435.03	6321.79
435.22	6328.81
435.41	6579.25
435.59	6635.42
435.78	6455.20
435.97	6523.07
436.16	6403.71
436.34	6466.90
436.53	6609.67
436.72	6768.83
436.90	6392.00
437.09	6649.46
437.28	6527.75
437.46	6504.35
437.65	6644.78
437.84	6869.47
438.02	6717.34
438.21	6703.29
438.40	6686.91
438.58	7047.35
438.77	6773.51
438.96	6780.53
439.14	7066.08
439.33	7283.75
439.52	7229.91
439.70	7250.98
439.89	7300.13
440.08	7180.76
440.26	7295.45
440.45	7435.88
440.63	7480.35
440.82	7613.76
441.01	7513.12
441.19	7655.89
441.38	7613.76
441.57	7758.88
441.75	7896.97
441.94	7899.31
442.12	7861.86
442.31	8142.72
442.50	7995.27
442.68	8070.17
442.87	7990.59
443.05	8189.53
443.24	8182.51
443.43	8208.26
443.61	8201.24
443.80	8482.10
443.98	8210.60
444.17	7878.24
444.35	8273.79
444.54	8402.52
444.73	8290.18
444.91	8348.69
445.10	8271.45
445.28	8341.67
445.47	8437.63
445.65	8348.69
445.84	8479.76
446.02	8463.38
446.21	8437.63
446.39	8215.28
446.58	8465.72
446.77	8564.02
446.95	8278.47
447.14	8507.85
447.32	8762.97
447.51	8470.40
447.69	8446.99
447.88	8486.78
448.06	8432.95
448.25	8547.64
448.43	8603.81
448.62	8388.48
448.80	8634.24
448.99	8769.99
449.17	8777.01
449.36	8917.44
449.54	8997.02
449.73	8908.08
449.91	8912.76
450.10	8835.52
450.28	9231.07
450.46	9029.79
450.65	9116.39
450.83	9221.71
451.02	9111.71
451.20	9256.82
451.39	9142.13
451.57	9184.26
451.76	9092.98
451.94	9188.94
452.13	9418.32
452.31	9460.45
452.49	9397.25
452.68	9406.61
452.86	9275.54
453.05	9472.15
453.23	9352.78
453.42	9455.76
453.60	9336.40
453.78	9551.73
453.97	9589.17
454.15	9490.87
454.34	9427.68
454.52	9804.50
454.70	9650.03
454.89	9818.55
455.07	9720.24
455.26	9745.99
455.44	9968.34
455.62	9823.23
455.81	9750.67
455.99	10186.01
456.17	9844.29
456.36	10050.26
456.54	10342.83
456.73	10513.69
456.91	10658.80
457.09	10499.64
457.28	10532.41
457.46	10157.92
457.64	10583.90
457.83	10745.40
458.01	10429.43
458.19	10707.95
458.38	10541.77
458.56	10487.94
458.74	10775.83
458.93	10775.83
459.11	10827.32
459.29	10785.19
459.48	10836.68
459.66	10803.91
459.84	11009.88
460.03	11232.23
460.21	10801.57
460.39	11157.33
460.57	11164.36
460.76	11159.67
460.94	10986.47
461.12	11166.70
461.31	11066.05
461.49	11169.04
461.67	10958.39
461.85	11737.79
462.04	11417.13
462.22	12046.74
462.40	11826.73
462.59	11445.22
462.77	11786.94
462.95	11700.34
463.13	11768.21
463.32	11611.40
463.50	11812.68
463.68	11925.03
463.86	11922.69
464.05	11667.57
464.23	11796.30
464.41	11866.52
464.59	11796.30
464.78	12252.70
464.96	11932.05
465.14	11887.58
465.32	11974.18
465.50	12145.04
465.69	12205.89
465.87	12245.68
466.05	12248.02
466.23	12189.51
466.41	12446.97
466.60	12519.53
466.78	12475.06
466.96	12238.66
467.14	12248.02
467.32	12336.96
467.51	12695.07
467.69	12077.16
467.87	12720.81
468.05	12772.30
468.23	12482.08
468.41	12606.13
468.60	12549.95
468.78	12915.08
468.96	12767.62
469.14	12938.48
469.32	13174.88
469.50	12819.11
469.69	12978.27
469.87	13076.57
470.05	13254.45
470.23	13207.64
470.41	13097.64
470.59	13483.83
470.77	13263.82
470.95	13198.28
471.14	13586.81
471.32	13132.75
471.50	13713.20
471.68	13664.05
471.86	13738.94
472.04	13687.45
472.22	14092.37
472.40	13671.07
472.58	14019.81
472.77	13788.10
472.95	14263.22
473.13	14611.96
473.31	14033.85
473.49	14188.33
473.67	14534.73
473.85	14331.10
474.03	14724.31
474.21	14644.73
474.39	15051.99
474.57	14782.82
474.75	14787.50
474.93	15016.88
475.12	14853.04
475.30	15239.23
475.48	15143.27
475.66	15140.93
475.84	15229.87
476.02	15517.75
476.20	15449.88
476.38	15843.09
476.56	16116.93
476.74	15850.11
476.92	15925.00
477.10	16016.29
477.28	16418.86
477.46	16257.36
477.64	16723.13
477.82	16608.44
478.00	17331.67
478.18	16690.36
478.36	17036.76
478.54	17224.00
478.72	17352.73
478.90	17624.23
479.08	17649.98
479.26	17694.45
479.44	17645.30
479.62	17998.72
479.80	18218.73
479.98	18218.73
480.16	18813.23
480.34	18558.11
480.52	18668.11
480.70	18733.65
480.88	18682.16
481.06	19112.81
481.24	18831.95
481.41	19243.88
481.59	19468.58
481.77	19494.32
481.95	19807.95
482.13	19637.09
482.31	19971.79
482.49	20638.84
482.67	20283.08
482.85	20704.38
483.03	20748.85
483.21	20828.43
483.39	20641.18
483.57	21149.08
483.74	21219.30
483.92	21460.37
484.10	21612.51
484.28	21860.60
484.46	22141.47
484.64	22464.46
484.82	21818.47
485.00	22537.02
485.18	22829.59
485.35	23398.34
485.53	22719.58
485.71	23396.00
485.89	23744.73
486.07	23316.42
486.25	23456.85
486.43	23623.03
486.61	23885.17
486.78	24128.58
486.96	24180.07
487.14	24676.27
487.32	24837.76
487.50	24959.47
487.68	25240.34
487.85	25483.75
488.03	25729.51
488.21	25853.56
488.39	26068.89
488.57	26394.22
488.75	26223.36
488.92	26419.97
489.10	26962.97
489.28	26679.77
489.46	27377.25
489.64	27328.10
489.81	27955.36
489.99	27763.43
490.17	27798.54
490.35	28421.13
490.53	28477.30
490.70	28451.55
490.88	28701.99
491.06	29006.26
491.24	28790.93
491.41	29294.14
491.59	29659.27
491.77	29504.79
491.95	29902.68
492.13	29912.05
492.30	30213.98
492.48	30281.85
492.66	30506.54
492.84	30216.32
493.01	30813.15
493.19	30815.49
493.37	31040.18
493.54	31583.19
493.72	31927.25
493.90	31735.32
494.08	31847.67
494.25	32212.79
494.43	31929.59
494.61	32575.58
494.79	32610.68
494.96	32477.27
495.14	33008.58
495.32	33146.67
495.49	33329.23
495.67	33219.22
495.85	33773.93
496.02	33844.15
496.20	34387.15
496.38	34469.07
496.55	34314.59
496.73	35384.22
496.91	34232.68
497.09	35002.71
497.26	35250.81
497.44	35363.15
497.62	35445.07
497.79	36149.57
497.97	35648.70
498.14	36149.57
498.32	36201.07
498.50	36528.74
498.67	36594.28
498.85	36318.09
499.03	36814.29
499.20	37029.62
499.38	37076.43
499.56	37574.96
499.73	37432.19
499.91	37558.58
500.08	37708.37
500.26	37528.15
500.44	37867.53
500.61	38220.95
500.79	38279.46
500.97	38117.96
501.14	38691.40
501.32	38621.18
501.49	38675.01
501.67	39072.90
501.84	39363.13
502.02	38904.38
502.20	39414.62
502.37	39653.36
502.55	39796.13
502.72	39716.55
502.90	39913.16
503.07	39821.87
503.25	39889.75
503.43	40002.10
503.60	40402.33
503.78	40762.77
503.95	40535.74
504.13	40680.85
504.30	40753.41
504.48	40849.37
504.65	40999.16
504.83	40961.72
505.01	41883.89
505.18	41509.40
505.36	42017.30
505.53	41532.81
505.71	42340.29
505.88	42429.23
506.06	41706.01
506.23	42312.20
506.41	42167.09
506.58	42508.81
506.76	42293.48
506.93	43058.84
507.11	42476.04
507.28	43129.05
507.46	42972.24
507.63	42855.21
507.81	43718.87
507.98	43129.05
508.16	43480.13
508.33	43618.22
508.50	43650.99
508.68	43578.43
508.85	43732.91
509.03	43768.02
509.20	44528.69
509.38	44285.28
509.55	44472.52
509.73	44900.84
509.90	45015.52
510.08	44711.25
510.25	45172.34
510.42	45277.66
510.60	45041.27
510.77	45745.77
510.95	45956.42
511.12	45612.36
511.30	45375.97
511.47	45443.84
511.64	45511.72
511.82	46199.83
511.99	46071.10
512.17	46078.13
512.34	46054.72
512.51	46986.25
512.69	46403.46
512.86	46747.52
513.04	46733.48
513.21	46834.12
513.38	46831.78
513.56	47175.84
513.73	47208.61
513.90	47601.82
514.08	47332.65
514.25	47491.81
514.43	47852.25
514.60	47604.16
514.77	47337.33
514.95	48140.14
515.12	47655.65
515.29	48058.22
515.47	48418.66
515.64	48533.35
515.81	48535.69
515.99	48266.53
516.16	49066.99
516.33	48842.30
516.51	48964.01
516.68	48762.72
516.85	48598.88
517.03	49310.41
517.20	49195.72
517.37	49038.90
517.54	49326.79
517.72	49017.84
517.89	49551.48
518.06	49612.34
518.24	49535.10
518.41	49427.43
518.58	49619.36
518.75	49221.47
518.93	49783.19
519.10	49830.01
519.27	50190.45
519.45	50141.30
519.62	50209.17
519.79	50073.42
519.96	49937.67
520.14	50293.43
520.31	50464.29
520.48	51145.39
520.65	50436.20
520.83	51089.21
521.00	51061.13
521.17	50391.73
521.34	50979.21
521.52	51217.94
521.69	50937.08
521.86	51004.95
522.03	51339.65
522.20	51892.02
522.38	51615.83
522.55	51501.15
522.72	51756.27
522.89	51524.55
523.07	52025.43
523.24	51849.89
523.41	51966.91
523.58	51877.97
523.75	52205.65
523.92	52055.85
524.10	52175.22
524.27	52437.36
524.44	52205.65
524.61	52207.99
524.78	52285.23
524.96	52343.74
525.13	52701.84
525.30	53010.79
525.47	52683.12
525.64	52722.91
525.81	52601.20
525.98	53069.31
526.16	52631.63
526.33	52931.22
526.50	53333.79
526.67	53038.88
526.84	52905.47
527.01	52999.09
527.18	53183.99
527.36	53081.01
527.53	53010.79
527.70	53443.79
527.87	53446.13
528.04	53261.23
528.21	53544.44
528.38	53628.69
528.55	53827.64
528.72	53514.01
528.89	53783.17
529.07	53324.43
529.24	53649.76
529.41	54021.90
529.58	53762.11
529.75	53773.81
529.92	53909.56
530.09	54040.63
530.26	54152.97
530.43	54419.80
530.60	53947.01
530.77	54241.92
530.94	54337.88
531.11	54429.16
531.28	54284.04
531.46	54649.17
531.63	54660.87
531.80	55023.65
531.97	54440.86
532.14	54663.21
532.31	54628.10
532.48	54876.20
532.65	54965.14
532.82	54614.06
532.99	54990.89
533.16	54752.15
533.33	55154.72
533.50	55306.86
533.67	55037.70
533.84	55065.78
534.01	55091.53
534.18	55246.00
534.35	55522.19
534.52	55370.05
534.69	55348.99
534.86	55695.39
535.03	55276.43
535.20	55311.54
535.37	55583.04
535.54	55540.91
535.71	55370.05
535.88	55561.98
536.05	55566.66
536.22	55828.80
536.38	55721.13
536.55	55681.34
536.72	55641.56
536.89	55721.13
537.06	56191.58
537.23	55913.06
537.40	55758.58
537.57	55903.70
537.74	56018.38
537.91	56313.29
538.08	56250.09
538.25	56114.34
538.42	56156.47
538.59	56299.25
538.75	56030.08
538.92	56320.31
539.09	56439.68
539.26	56456.06
539.43	56378.82
539.60	56238.39
539.77	56460.74
539.94	56647.99
540.11	56498.19
540.28	56715.86
540.44	56643.30
540.61	56708.84
540.78	56460.74
540.95	56828.21
541.12	56622.24
541.29	56662.03
541.46	56842.25
541.62	56830.55
541.79	57092.69
541.96	56378.82
542.13	56683.09
542.30	56928.85
542.47	57125.46
542.63	57008.43
542.80	57078.64
542.97	57226.10
543.14	57371.21
543.31	57176.95
543.48	57422.70
543.64	57607.61
543.81	57436.75
543.98	57406.32
544.15	57612.29
544.32	57715.27
544.48	57581.86
544.65	57462.49
544.82	57577.18
544.99	57513.98
545.16	57801.87
545.32	57640.37
545.49	57689.52
545.66	57961.03
545.83	57670.80
546.00	57951.66
546.16	58052.31
546.33	57762.08
546.50	57712.93
546.67	57794.85
546.83	57764.42
547.00	57998.48
547.17	58064.01
547.34	57886.13
547.50	58216.14
547.67	58171.67
547.84	58307.43
548.00	58354.24
548.17	58499.35
548.34	58157.63
548.51	58532.12
548.67	58518.07
548.84	58532.12
549.01	58148.27
549.18	58358.92
549.34	58361.26
549.51	58410.41
549.68	58602.33
549.84	58499.35
550.01	58585.95
550.18	58548.50
550.34	58649.14
550.51	58705.32
550.68	58599.99
550.84	58738.08
551.01	58864.47
551.18	58651.48
551.34	58599.99
551.51	58602.33
551.68	58890.22
551.84	58625.74
552.01	58637.44
552.18	58754.47
552.34	58681.91
552.51	59091.51
552.68	58777.87
552.84	58721.70
553.01	59128.95
553.18	58937.03
553.34	58951.07
553.51	58930.01
553.67	58969.80
553.84	59082.14
554.01	59260.02
554.17	59086.82
554.34	59103.21
554.51	59032.99
554.67	59157.04
554.84	59166.40
555.00	59138.32
555.17	59070.44
555.33	59297.47
555.50	59203.85
555.67	58939.37
555.83	59313.86
556.00	59128.95
556.16	59473.01
556.33	59671.96
556.50	59292.79
556.66	59550.25
556.83	59437.90
556.99	59667.28
557.16	59681.32
557.32	59585.36
557.49	59583.02
557.65	59503.44
557.82	59744.51
557.98	59664.94
558.15	59735.15
558.32	59583.02
558.48	59519.82
558.65	59566.63
558.81	59622.81
558.98	59760.90
559.14	59803.03
559.31	59767.92
559.47	60172.83
559.64	60006.65
559.80	59793.67
559.97	60065.17
560.13	59962.18
560.30	59943.46
560.46	60067.51
560.63	59859.20
560.79	59819.41
560.96	59941.12
561.12	59929.42
561.29	59927.08
561.45	60306.24
561.61	60018.36
561.78	59924.74
561.94	59971.55
562.11	59894.31
562.27	60055.81
562.44	60025.38
562.60	60243.05
562.77	60090.91
562.93	59859.20
563.10	60252.41
563.26	59973.89
563.42	60315.61
563.59	60144.75
563.75	60111.98
563.92	60191.56
564.08	60083.89
564.24	60245.39
564.41	60266.45
564.57	60243.05
564.74	60357.74
564.90	60416.25
565.07	60430.29
565.23	60285.18
565.39	60390.50
565.56	60561.36
565.72	60315.61
565.88	60418.59
566.05	60142.41
566.21	60477.10
566.38	60362.42
566.54	60474.76
566.70	60617.53
566.87	60397.52
567.03	60207.94
567.19	60612.85
567.36	60467.74
567.52	60411.57
567.68	60673.71
567.85	60334.33
568.01	60715.84
568.17	60355.39
568.34	60678.39
568.50	60774.35
568.66	60463.06
568.83	60491.15
568.99	60460.72
569.15	60411.57
569.32	60603.49
569.48	60549.66
569.64	60547.32
569.81	60697.11
569.97	60537.96
570.13	60706.47
570.30	60591.79
570.46	60844.57
570.62	60699.45
570.78	60783.71
570.95	60708.82
571.11	60633.92
571.27	60711.16
571.43	60795.42
571.60	61006.06
571.76	60629.24
571.92	60774.35
572.09	60636.26
572.25	60839.89
572.41	60746.26
572.57	60776.69
572.74	61087.98
572.90	60769.67
573.06	60961.59
573.22	60844.57
573.38	60795.42
573.55	60704.13
573.71	61125.43
573.87	60739.24
574.03	60760.31
574.20	60793.07
574.36	60767.33
574.52	60992.02
574.68	61022.45
574.84	60676.05
575.01	60856.27
575.17	60996.70
575.33	60874.99
575.49	60830.52
575.65	61027.13
575.82	60959.25
575.98	60961.59
576.14	61123.09
576.30	60985.00
576.46	60889.04
576.62	60959.25
576.79	61010.74
576.95	60966.27
577.11	61034.15
577.27	61045.85
577.43	60942.87
577.59	60921.80
577.75	60774.35
577.92	60699.45
578.08	60933.51
578.24	60853.93
578.40	61043.51
578.56	61052.87
578.72	60966.27
578.88	61148.84
579.04	61041.17
579.21	60872.65
579.37	61099.68
579.53	61027.13
579.69	60851.59
579.85	60977.98
580.01	61006.06
580.17	61183.94
580.33	61151.18
580.49	61071.60
580.65	61137.13
580.82	60935.85
580.98	61043.51
581.14	61137.13
581.30	61134.79
581.46	61162.88
581.62	61027.13
581.78	60973.30
581.94	61024.79
582.10	61043.51
582.26	61050.53
582.42	61020.11
582.58	61036.49
582.74	61102.03
582.90	60945.21
583.06	61352.46
583.22	61073.94
583.38	61179.26
583.54	61120.75
583.70	61158.20
583.86	61202.67
584.02	61062.24
584.18	61212.03
584.34	61118.41
584.50	61085.64
584.66	61073.94
584.82	60926.49
584.98	61221.39
585.14	61291.61
585.30	61137.13
585.46	61132.45
585.62	61282.25
585.78	61375.87
585.94	61127.77
586.10	61144.16
586.26	61190.97
586.42	61228.41
586.58	61410.98
586.74	61300.97
586.90	61102.03
587.06	61205.01
587.22	61209.69
587.38	61284.59
587.54	61247.14
587.70	61380.55
587.86	61251.82
588.02	61228.41
588.18	61366.51
588.34	61268.20
588.49	61272.88
588.65	61153.52
588.81	61303.31
588.97	61425.02
589.13	61448.42
589.29	61478.85
589.45	61399.27
589.61	61434.38
589.77	61663.75
589.93	61546.73
590.08	61340.76
590.24	61460.13
590.40	61722.27
590.56	61359.48
590.72	61532.68
590.88	61315.01
591.04	61670.78
591.20	61729.29
591.35	61563.11
591.51	61532.68
591.67	61553.75
591.83	61553.75
591.99	61535.02
592.15	61535.02
592.31	61836.95
592.46	61680.14
592.62	61422.68
592.78	61399.27
592.94	61703.54
593.10	61511.62
593.26	61715.25
593.41	61600.56
593.57	61696.52
593.73	61694.18
593.89	61776.10
594.05	61750.35
594.20	61626.31
594.36	61694.18
594.52	61579.49
594.68	61673.12
594.84	61577.15
594.99	61780.78
595.15	61532.68
595.31	61766.74
595.47	61652.05
595.62	61425.02
595.78	61588.86
595.94	61750.35
596.10	61902.49
596.25	61930.58
596.41	61668.44
596.57	61740.99
596.73	61876.74
596.88	61616.94
597.04	61733.97
597.20	61921.21
597.36	61598.22
597.51	62012.49
597.67	61647.37
597.83	61743.33
597.99	61895.47
598.14	61968.02
598.30	61865.04
598.46	61935.26
598.61	61811.21
598.77	61689.50
598.93	61895.47
599.09	61839.29
599.24	62162.29
599.40	62021.86
599.56	61752.69
599.71	61867.38
599.87	61972.70
600.03	61853.34
600.18	61724.61
600.34	61712.91
600.50	61921.21
600.65	61851.00
600.81	61865.04
600.97	62026.54
601.12	61834.61
601.28	61911.85
601.44	61909.51
601.59	61855.68
601.75	61808.87
601.91	62075.69
602.06	62213.78
602.22	62120.16
602.37	61851.00
602.53	61942.28
602.69	61773.76
602.84	61801.85
603.00	61928.23
603.16	61930.58
603.31	61907.17
603.47	62042.92
603.62	61904.83
603.78	62042.92
603.94	61876.74
604.09	61935.26
604.25	61951.64
604.40	61703.54
604.56	61984.41
604.71	62314.42
604.87	61855.68
605.03	62017.17
605.18	61939.94
605.34	62024.20
605.49	61722.27
605.65	62042.92
605.80	62045.26
605.96	62045.26
606.12	61900.15
606.27	61949.30
606.43	61722.27
606.58	61883.76
606.74	61895.47
606.89	61851.00
607.05	61804.19
607.20	62035.90
607.36	61673.12
607.51	61876.74
607.67	61532.68
607.82	61602.90
607.98	61621.62
608.13	61752.69
608.29	61783.12
608.44	61900.15
608.60	61680.14
608.75	61705.88
608.91	61647.37
609.06	61645.03
609.22	61827.59
609.37	61682.48
609.53	61914.19
609.68	61883.76
609.84	61647.37
609.99	61832.27
610.15	61811.21
610.30	61815.89
610.46	61616.94
610.61	61843.98
610.76	61687.16
610.92	61668.44
611.07	61591.20
611.23	61602.90
611.38	61858.02
611.54	61649.71
611.69	61736.31
611.84	61738.65
612.00	61928.23
612.15	61705.88
612.31	61731.63
612.46	61464.81
612.62	61656.73
612.77	61614.60
612.92	61813.55
613.08	61595.88
613.23	61584.18
613.39	61441.40
613.54	61560.77
613.69	61869.72
613.85	61380.55
614.00	61715.25
614.15	61820.57
614.31	61619.28
614.46	61673.12
614.62	61450.77
614.77	61509.28
614.92	61572.47
615.08	61628.65
615.23	61560.77
615.38	61422.68
615.54	61380.55
615.69	61483.53
615.84	61483.53
616.00	61670.78
616.15	61425.02
616.30	61560.77
616.46	61382.89
616.61	61425.02
616.76	61551.41
616.92	61329.06
617.07	61352.46
617.22	61303.31
617.37	61322.04
617.53	61591.20
617.68	61518.64
617.83	61497.58
617.99	61277.57
618.14	61523.32
618.29	61382.89
618.45	61284.59
618.60	61331.40
618.75	61464.81
618.90	61200.33
619.06	61429.70
619.21	61343.10
619.36	61443.74
619.51	61499.92
619.67	61137.13
619.82	61265.86
619.97	61291.61
620.12	61048.19
620.28	61240.12
620.43	61240.12
620.58	61078.62
620.73	60821.16
620.89	61080.96
621.04	61296.29
621.19	61172.24
621.34	60945.21
621.49	61048.19
621.65	61181.60
621.80	61291.61
621.95	61003.72
622.10	61275.22
622.25	61116.07
622.41	60952.23
622.56	61017.77
622.71	61099.68
622.86	60982.66
623.01	60757.97
623.16	61097.34
623.32	60938.19
623.47	60959.25
623.62	61048.19
623.77	60924.14
623.92	61031.81
624.07	61031.81
624.23	60992.02
624.38	61076.28
624.53	60776.69
624.68	60863.29
624.83	60952.23
624.98	60743.92
625.13	60779.03
625.29	60718.18
625.44	60886.70
625.59	60718.18
625.74	60542.64
625.89	60767.33
626.04	60444.33
626.19	60547.32
626.34	60711.16
626.49	60512.21
626.65	60437.31
626.80	60645.62
626.95	60612.85
627.10	60535.62
627.25	60512.21
627.40	60418.59
627.55	60425.61
627.70	60353.05
627.85	60584.77
628.00	60163.47
628.15	60697.11
628.30	60364.76
628.45	60388.16
628.60	60364.76
628.76	60477.10
628.91	60493.49
629.06	60507.53
629.21	60381.14
629.36	60437.31
629.51	60346.03
629.66	60229.01
629.81	60196.24
629.96	60133.04
630.11	60275.82
630.26	60285.18
630.41	60142.41
630.56	60243.05
630.71	60390.50
630.86	60261.77
631.01	60039.42
631.16	60296.88
631.31	59913.03
631.46	59943.46
631.61	60126.02
631.76	60259.43
631.91	60226.66
632.06	60177.51
632.21	60095.60
632.36	59917.71
632.51	59702.38
632.66	60048.78
632.81	59957.50
632.96	60076.87
633.10	59962.18
633.25	59917.71
633.40	60133.04
633.55	59859.20
633.70	59985.59
633.85	59786.64
634.00	59880.27
634.15	59863.88
634.30	59873.24
634.45	60060.49
634.60	60161.13
634.75	60144.75
634.90	59728.13
635.05	59868.56
635.19	59906.01
635.34	60027.72
635.49	59814.73
635.64	59852.18
635.79	59983.25
635.94	59788.98
636.09	59763.24
636.24	59730.47
636.39	59547.91
636.53	59676.64
636.68	59686.00
636.83	59676.64
636.98	59840.48
637.13	59393.43
637.28	59550.25
637.43	59423.86
637.57	59576.00
637.72	59451.95
637.87	59419.18
638.02	59568.97
638.17	59714.09
638.32	59402.80
638.46	59723.45
638.61	59604.08
638.76	59419.18
638.91	59480.03
639.06	59419.18
639.20	59274.07
639.35	59175.76
639.50	59093.85
639.65	59290.45
639.80	59405.14
639.94	59370.03
640.09	59271.73
640.24	59180.45
640.39	59351.30
640.54	59098.53
640.68	59278.75
640.83	59498.76
640.98	59320.88
641.13	59154.70
641.27	59517.48
641.42	58862.13
641.57	59182.79
641.72	59126.61
641.86	59049.38
642.01	58869.15
642.16	59269.39
642.31	59004.91
642.45	59372.37
642.60	59075.12
642.75	59227.26
642.90	59210.87
643.04	59103.21
643.19	59173.42
643.34	58981.50
643.48	59126.61
643.63	59025.97
643.78	58955.75
643.93	59002.56
644.07	58834.05
644.22	58995.54
644.37	58838.73
644.51	58939.37
644.66	58997.88
644.81	59035.33
644.95	59098.53
645.10	58749.79
645.25	58941.71
645.39	58960.44
645.54	58679.57
645.69	58651.48
645.83	58726.38
645.98	58611.70
646.13	58791.92
646.27	58803.62
646.42	58752.13
646.57	58721.70
646.71	58611.70
646.86	58815.32
647.00	58841.07
647.15	58677.23
647.30	58635.10
647.44	58901.92
647.59	58562.54
647.74	58665.53
647.88	58698.30
648.03	58791.92
648.17	58761.49
648.32	58452.54
648.47	58541.48
648.61	58553.18
648.76	58698.30
648.90	58541.48
649.05	58370.62
649.20	58616.38
649.34	58326.15
649.49	58529.78
649.63	58454.88
649.78	58670.21
649.92	58274.66
650.07	58766.17
650.21	58265.30
650.36	58464.24
650.51	58410.41
650.65	58342.53
650.80	58415.09
650.94	58396.37
651.09	58073.37
651.23	58021.88
651.38	58129.54
651.52	57986.77
651.67	57839.32
651.81	58178.70
651.96	58021.88
652.10	58274.66
652.25	58213.80
652.39	58157.63
652.54	57954.00
652.68	57907.19
652.83	58087.42
652.97	58101.46
653.12	57794.85
653.26	58061.67
653.41	58192.74
653.55	57876.77
653.70	58101.46
653.84	58080.39
653.99	58094.44
654.13	57757.40
654.27	57834.64
654.42	57851.02
654.56	57815.91
654.71	57846.34
654.85	57869.75
655.00	57893.15
655.14	57708.25
655.29	57429.72
655.43	57853.36
655.57	57703.57
655.72	57556.11
655.86	57832.30
656.01	57619.31
656.15	57675.48
656.30	57666.12
656.44	57769.10
656.58	57691.86
656.73	57865.06
656.87	57703.57
657.01	57572.50
657.16	57808.89
657.30	57525.69
657.45	57181.63
657.59	57666.12
657.73	57296.31
657.88	57265.89
658.02	57497.60
658.16	57345.47
658.31	57492.92
658.45	57230.78
658.60	57198.01
658.74	57296.31
658.88	57366.53
659.03	57132.48
659.17	57406.32
659.31	56949.92
659.46	57045.88
659.60	57130.14
659.74	57272.91
659.89	56959.28
660.03	56947.57
660.17	57038.86
660.32	56884.38
660.46	56830.55
660.60	56924.17
660.74	56788.42
660.89	56868.00
661.03	56757.99
661.17	56647.99
661.32	56589.47
661.46	56718.20
661.60	56732.25
661.74	56657.35
661.89	56619.90
662.03	56451.38
662.17	56566.07
662.31	56332.01
662.46	56905.44
662.60	56512.23
662.74	56346.06
662.88	56184.56
663.03	56212.65
663.17	56268.82
663.31	56158.81
663.45	56055.83
663.60	55910.72
663.74	55810.07
663.88	55997.32
664.02	56027.74
664.17	56142.43
664.31	55767.94
664.45	55767.94
664.59	55962.21
664.73	55641.56
664.88	55751.56
665.02	55714.11
665.16	55608.79
665.30	55491.76
665.44	55561.98
665.59	55515.17
665.73	55444.95
665.87	55554.96
666.01	55323.24
666.15	55353.67
666.29	55571.34
666.44	55458.99
666.58	55178.13
666.72	55075.15
666.86	55070.46
667.00	55227.28
667.14	54651.51
667.28	54857.48
667.43	54904.29
667.57	54876.20
667.71	54813.01
667.85	54836.41
667.99	54473.63
668.13	54761.51
668.27	54930.03
668.41	54637.47
668.56	54658.53
668.70	54644.49
668.84	54490.01
668.98	54260.64
669.12	54501.71
669.26	54457.24
669.40	54333.20
669.54	54356.60
669.68	54307.45
669.82	54117.87
669.96	54185.74
670.10	54251.28
670.25	54419.80
670.39	54155.32
670.53	53764.45
670.67	53848.71
670.81	54358.94
670.95	53937.65
671.09	53813.60
671.23	53535.07
671.37	53928.28
671.51	53616.99
671.65	53642.74
671.79	53567.84
671.93	53401.66
672.07	53703.59
672.21	53169.95
672.35	52830.57
672.49	53045.90
672.63	52942.92
672.77	52830.57
672.91	52942.92
673.05	52804.83
673.19	53165.27
673.33	52657.37
673.47	52442.04
673.61	52788.44
673.75	52891.43
673.89	52704.18
674.03	52336.72
674.17	52374.17
674.31	51945.85
674.45	51849.89
674.59	51793.71
674.73	52032.45
674.87	52332.04
675.01	51866.27
675.15	51643.92
675.29	51807.76
675.43	51931.81
675.56	51466.04
675.70	51353.69
675.84	51311.56
675.98	50600.04
676.12	51435.61
676.26	51210.92
676.40	51154.75
676.54	51208.58
676.68	50894.95
676.82	50040.65
676.96	50623.45
677.10	50485.36
677.23	50244.28
677.37	49925.97
677.51	50057.04
677.65	50071.08
677.79	49085.72
677.93	49507.01
678.07	49460.20
678.21	49558.50
678.34	49207.42
678.48	48910.17
678.62	48687.82
678.76	48818.89
678.90	48760.38
679.04	48643.35
679.18	48900.81
679.31	48624.63
679.45	48367.17
679.59	48502.92
679.73	48601.22
679.87	48020.77
680.00	47440.32
680.14	47250.74
680.28	47461.38
680.42	47723.52
680.56	47452.02
680.70	46887.95
680.83	46761.56
680.97	46873.91
681.11	47445.00
681.25	47084.56
681.39	46466.66
681.52	46632.83
681.66	46862.21
681.80	46665.60
681.94	46138.98
682.07	46447.93
682.21	45736.41
682.35	45778.54
682.49	45275.32
682.62	45647.47
682.76	46178.77
682.90	45476.61
683.04	45483.63
683.17	45298.73
683.31	44917.22
683.45	44744.02
683.59	44718.28
683.72	44212.72
683.86	44631.68
684.00	44479.54
684.13	44144.84
684.27	43786.74
684.41	44121.44
684.55	43803.13
684.68	43648.65
684.82	43550.35
684.96	42944.15
685.09	43288.21
685.23	43049.47
685.37	42887.98
685.50	42284.12
685.64	42724.14
685.78	42529.87
685.91	42644.56
686.05	42464.34
686.19	41670.90
686.32	41979.85
686.46	41380.67
686.60	41106.83
686.73	41361.95
686.87	41055.34
687.01	41205.13
687.14	41083.42
687.28	40566.16
687.42	40854.05
687.55	40896.18
687.69	40449.14
687.82	40587.23
687.96	40133.17
688.10	39793.79
688.23	40076.99
688.37	39751.66
688.50	39810.17
688.64	39655.70
688.78	39480.16
688.91	39035.45
689.05	38609.48
689.18	39295.25
689.32	38153.07
689.46	38092.22
689.59	38141.37
689.73	38253.72
689.86	37799.65
690.00	37731.78
690.13	38115.62
690.27	37785.61
690.41	37670.92
690.54	36891.52
690.68	37242.60
690.81	37219.20
690.95	36811.95
691.08	36800.24
691.22	36643.43
691.35	36334.48
691.49	36488.95
691.62	36215.11
691.76	35824.24
691.89	36135.53
692.03	35725.94
692.16	35601.89
692.30	35543.38
692.43	35454.44
692.57	35243.79
692.70	34883.34
692.84	35101.01
692.97	34988.67
693.11	35028.46
693.24	34534.60
693.38	34328.64
693.51	33567.96
693.65	34082.88
693.78	33378.38
693.92	33926.07
694.05	33724.78
694.19	33584.35
694.32	33766.91
694.45	33137.30
694.59	32964.10
694.72	33057.73
694.86	32589.62
694.99	32470.25
695.13	31957.67
695.26	31988.10
695.39	31585.53
695.53	31817.24
695.66	32067.68
695.80	31957.67
695.93	31683.83
696.07	30803.79
696.20	30909.11
696.33	30850.60
696.47	30813.15
696.60	30874.01
696.73	30689.10
696.87	30656.34
697.00	30101.63
697.14	30174.19
697.27	30349.73
697.40	30178.87
697.54	29898.00
697.67	29717.78
697.80	29392.45
697.94	29427.56
698.07	29303.51
698.21	29003.92
698.34	28699.65
698.47	28816.68
698.61	28587.30
698.74	28503.04
698.87	28297.08
699.01	28247.93
699.14	28280.69
699.27	28573.26
699.40	27938.97
699.54	27978.76
699.67	27541.08
699.80	27946.00
699.94	27655.77
700.07	27716.62
700.20	27351.50
700.34	27239.15
700.47	27016.80
700.60	26773.39
700.73	26263.15
700.87	26412.95
701.00	26031.44
701.13	25972.92
701.26	26122.72
701.40	26448.05
701.53	26312.30
701.66	26080.59
701.79	25397.15
701.93	24945.43
702.06	24929.05
702.19	24762.87
702.32	25345.66
702.46	24985.22
702.59	24875.21
702.72	24680.95
702.85	24730.10
702.99	24512.43
703.12	24634.14
703.25	24388.38
703.38	23843.04
703.51	24210.50
703.65	23882.83
703.78	23405.36
703.91	23637.07
704.04	23669.84
704.17	23197.05
704.31	23592.60
704.44	23180.67
704.57	23051.94
704.70	22560.42
704.83	22799.16
704.96	22705.54
705.10	22466.80
705.23	21989.33
>>>>>End Processed Spectral Data<<<<<
