SpectraSuite Data File
++++++++++++++++++++++++++++++++++++
Date: Fri Oct 25 11:22:44 EDT 2013
User: price-jones
Dark Spectrum Present: No
Reference Spectrum Present: No
Number of Sampled Component Spectra: 1
Spectrometers: USB2+H05261
Integration Time (usec): 100000 (USB2+H05261)
Spectra Averaged: 1 (USB2+H05261)
Boxcar Smoothing: 0 (USB2+H05261)
Correct for Electrical Dark: No (USB2+H05261)
Strobe/Lamp Enabled: No (USB2+H05261)
Correct for Detector Non-linearity: No (USB2+H05261)
Correct for Stray Light: No (USB2+H05261)
Number of Pixels in Processed Spectrum: 2048
>>>>>Begin Processed Spectral Data<<<<<
365.73	271.50
365.92	271.50
366.12	271.50
366.32	112.35
366.52	98.30
366.72	131.07
366.91	110.01
367.11	145.11
367.31	124.05
367.51	84.26
367.70	79.58
367.90	140.43
368.10	100.64
368.30	119.37
368.49	147.45
368.69	107.66
368.89	142.77
369.09	140.43
369.28	156.82
369.48	117.03
369.68	138.09
369.87	203.63
370.07	170.86
370.27	210.65
370.47	353.42
370.66	545.34
370.86	580.45
371.06	641.31
371.25	613.22
371.45	615.56
371.65	681.10
371.84	676.41
372.04	744.29
372.24	770.04
372.44	603.86
372.63	725.57
372.83	734.93
373.03	720.88
373.22	741.95
373.42	657.69
373.62	765.36
373.81	788.76
374.01	877.70
374.21	800.46
374.40	774.72
374.60	847.27
374.79	833.23
374.99	868.34
375.19	821.53
375.38	751.31
375.58	805.14
375.78	819.19
375.97	896.43
376.17	978.34
376.37	866.00
376.56	880.04
376.76	816.85
376.95	844.93
377.15	858.98
377.35	950.26
377.54	896.43
377.74	833.23
377.93	816.85
378.13	910.47
378.33	952.60
378.52	936.21
378.72	957.28
378.91	957.28
379.11	891.74
379.31	858.98
379.50	926.85
379.70	943.24
379.89	990.05
380.09	901.11
380.28	945.58
380.48	1029.84
380.68	929.19
380.87	994.73
381.07	1011.11
381.26	1050.90
381.46	999.41
381.65	990.05
381.85	1050.90
382.04	1050.90
382.24	1015.79
382.43	1029.84
382.63	1032.18
382.83	1069.62
383.02	1020.47
383.22	1132.82
383.41	1109.41
383.61	1128.14
383.80	1050.90
384.00	1123.46
384.19	1125.80
384.39	1078.99
384.58	1142.18
384.78	1149.20
384.97	1102.39
385.17	1149.20
385.36	1144.52
385.56	1142.18
385.75	1198.35
385.95	1217.08
386.14	1181.97
386.34	1198.35
386.53	1203.04
386.72	1165.59
386.92	1181.97
387.11	1245.16
387.31	1224.10
387.50	1233.46
387.70	1296.66
387.89	1235.80
388.09	1184.31
388.28	1334.11
388.48	1261.55
388.67	1207.72
388.86	1322.40
389.06	1284.95
389.25	1327.08
389.45	1299.00
389.64	1371.55
389.84	1378.58
390.03	1472.20
390.22	1427.73
390.42	1423.05
390.61	1399.64
390.81	1390.28
391.00	1404.32
391.19	1474.54
391.39	1401.98
391.58	1413.68
391.78	1502.62
391.97	1418.36
392.16	1352.83
392.36	1481.56
392.55	1535.39
392.75	1490.92
392.94	1460.49
393.13	1479.22
393.33	1551.78
393.52	1577.52
393.71	1647.74
393.91	1540.07
394.10	1582.20
394.29	1586.88
394.49	1460.49
394.68	1530.71
394.88	1603.27
395.07	1603.27
395.26	1734.34
395.46	1633.69
395.65	1739.02
395.84	1781.15
396.04	1760.08
396.23	1699.23
396.42	1806.89
396.62	1818.60
396.81	1820.94
397.00	1849.02
397.19	1802.21
397.39	1870.09
397.58	1783.49
397.77	1804.55
397.97	1853.70
398.16	1816.26
398.35	1872.43
398.55	1881.79
398.74	1989.46
398.93	1998.82
399.12	1919.24
399.32	1919.24
399.51	1959.03
399.70	2022.22
399.90	1928.60
400.09	2008.18
400.28	2001.16
400.47	2012.86
400.67	2076.06
400.86	2015.20
401.05	2106.48
401.24	2155.63
401.44	2260.96
401.63	2167.34
401.82	2190.74
402.01	2090.10
402.21	2181.38
402.40	2267.98
402.59	2157.97
402.78	2270.32
402.97	2251.60
403.17	2232.87
403.36	2197.76
403.55	2293.72
403.74	2293.72
403.93	2429.48
404.13	2326.49
404.32	2373.30
404.51	2457.56
404.70	2462.24
404.89	2459.90
405.09	2595.65
405.28	2525.44
405.47	2513.74
405.66	2499.69
405.85	2466.92
406.05	2502.03
406.24	2595.65
406.43	2530.12
406.62	2565.23
406.81	2675.23
407.00	2581.61
407.20	2605.02
407.39	2708.00
407.58	2691.62
407.77	2794.60
407.96	2874.18
408.15	2743.11
408.34	2787.58
408.54	2848.43
408.73	2729.06
408.92	2813.32
409.11	2864.82
409.30	2897.58
409.49	2958.44
409.68	2867.16
409.87	3026.31
410.07	3021.63
410.26	2935.03
410.45	2911.63
410.64	3096.53
410.83	3000.57
411.02	3112.91
411.21	3211.22
411.40	3014.61
411.59	3288.45
411.78	3117.59
411.98	3279.09
412.17	3248.66
412.36	3314.20
412.55	3361.01
412.74	3375.05
412.93	3433.57
413.12	3485.06
413.31	3473.36
413.50	3485.06
413.69	3541.23
413.88	3688.68
414.07	3691.02
414.26	3644.21
414.45	3611.45
414.64	3669.96
414.83	3812.73
415.02	3911.04
415.22	3864.22
415.41	3906.35
415.60	3765.92
415.79	3964.87
415.98	3904.01
416.17	4021.04
416.36	3990.61
416.55	4023.38
416.74	4243.39
416.93	3971.89
417.12	4124.02
417.31	4285.52
417.50	4229.35
417.69	4236.37
417.88	4257.43
418.07	4175.52
418.26	4271.48
418.45	4337.01
418.64	4601.49
418.83	4355.74
419.02	4475.10
419.21	4526.60
419.39	4442.34
419.58	4470.42
419.77	4390.84
419.96	4571.07
420.15	4575.75
420.34	4603.83
420.53	4617.88
420.72	4645.96
420.91	4786.40
421.10	4596.81
421.29	4840.23
421.48	4812.14
421.67	4819.16
421.86	4835.55
422.05	4959.60
422.24	4863.63
422.43	4847.25
422.61	4821.50
422.80	5055.56
422.99	4940.87
423.18	5142.16
423.37	5095.35
423.56	4973.64
423.75	5008.75
423.94	4816.82
424.13	4706.82
424.32	4676.39
424.50	4922.15
424.69	5053.22
424.88	5170.24
425.07	4908.10
425.26	4844.91
425.45	4992.36
425.64	4978.32
425.83	4997.04
426.01	5057.90
426.20	4863.63
426.39	4985.34
426.58	5151.52
426.77	5130.45
426.96	5263.86
427.15	5100.03
427.33	5268.55
427.52	5022.79
427.71	5203.01
427.90	5259.18
428.09	5383.23
428.28	5406.64
428.46	5350.46
428.65	5322.38
428.84	5476.85
429.03	5579.84
429.22	5432.38
429.40	5610.26
429.59	5563.45
429.78	5413.66
429.97	5322.38
430.16	5556.43
430.34	5624.31
430.53	5696.86
430.72	5736.65
430.91	5598.56
431.10	5640.69
431.28	5755.38
431.47	5774.10
431.66	5853.68
431.85	5741.33
432.03	6104.12
432.22	6026.88
432.41	6101.78
432.60	5968.37
432.79	5893.47
432.97	5928.58
433.16	6169.65
433.35	6179.01
433.54	6115.82
433.72	6202.42
433.91	5998.79
434.10	6382.64
434.28	6005.81
434.47	6197.74
434.66	6284.34
434.85	6291.36
435.03	6347.53
435.22	6122.84
435.41	6459.88
435.59	6626.06
435.78	6469.24
435.97	6686.91
436.16	6462.22
436.34	6305.40
436.53	6520.73
436.72	6602.65
436.90	6464.56
437.09	6656.48
437.28	6609.67
437.46	6881.18
437.65	6511.37
437.84	6789.89
438.02	6815.64
438.21	6787.55
438.40	6775.85
438.58	7033.31
438.77	7143.32
438.96	6862.45
439.14	7101.19
439.33	7171.40
439.52	7201.83
439.70	7283.75
439.89	7227.57
440.08	7379.71
440.26	7178.42
440.45	7412.48
440.63	7538.87
440.82	7651.21
441.01	7382.05
441.19	7763.56
441.38	7754.19
441.57	7705.04
441.75	7709.72
441.94	7999.95
442.12	7969.52
442.31	8084.21
442.50	8182.51
442.68	8161.45
442.87	8056.12
443.05	8217.62
443.24	8189.53
443.43	8191.88
443.61	8348.69
443.80	8458.70
443.98	8259.75
444.17	7941.44
444.35	8290.18
444.54	8365.07
444.73	8418.91
444.91	8528.91
445.10	8301.88
445.28	8482.10
445.47	8393.16
445.65	8489.12
445.84	8554.66
446.02	8585.08
446.21	8262.09
446.39	8664.66
446.58	8531.25
446.77	8538.27
446.95	8468.06
447.14	8697.43
447.32	8573.38
447.51	8383.80
447.69	8439.97
447.88	8641.26
448.06	8561.68
448.25	8664.66
448.43	8711.47
448.62	8594.45
448.80	8657.64
448.99	8549.98
449.17	8823.82
449.36	8760.63
449.54	8774.67
449.73	8947.87
449.91	8964.25
450.10	9015.74
450.28	9013.40
450.46	8936.17
450.65	8971.27
450.83	9123.41
451.02	9214.69
451.20	9390.23
451.39	9266.18
451.57	9219.37
451.76	9004.04
451.94	9174.90
452.13	9432.36
452.31	9280.22
452.49	9254.48
452.68	9401.93
452.86	9348.10
453.05	9617.26
453.23	9654.71
453.42	9390.23
453.60	9404.27
453.78	9727.27
453.97	9502.58
454.15	9486.19
454.34	9359.80
454.52	9621.94
454.70	9661.73
454.89	9844.29
455.07	9753.01
455.26	9907.49
455.44	9905.15
455.62	10076.01
455.81	9837.27
455.99	10108.77
456.17	10136.86
456.36	10235.16
456.54	10083.03
456.73	10169.63
456.91	10633.05
457.09	10380.28
457.28	10604.97
457.46	10270.27
457.64	10560.50
457.83	10518.37
458.01	10380.28
458.19	10822.64
458.38	10656.46
458.56	10827.32
458.74	10780.51
458.93	10597.95
459.11	10848.38
459.29	10911.58
459.48	10934.98
459.66	10906.90
459.84	10965.41
460.03	11307.13
460.21	10981.79
460.39	10932.64
460.57	11173.72
460.76	11126.91
460.94	11215.85
461.12	11293.08
461.31	11274.36
461.49	11211.17
461.67	11276.70
461.85	11606.72
462.04	11255.64
462.22	11793.96
462.40	11611.40
462.59	11559.91
462.77	11587.99
462.95	11707.36
463.13	11587.99
463.32	11620.76
463.50	11871.20
463.68	11878.22
463.86	11957.80
464.05	11639.48
464.23	11838.43
464.41	12023.33
464.59	11903.96
464.78	11969.50
464.96	12109.93
465.14	12030.35
465.32	12107.59
465.50	12210.57
465.69	12428.24
465.87	12311.22
466.05	12102.91
466.23	12294.83
466.41	12217.60
466.60	12638.89
466.78	12248.02
466.96	12184.83
467.14	12231.64
467.32	12404.84
467.51	12912.74
467.69	12278.45
467.87	12531.23
468.05	12498.46
468.23	12407.18
468.41	12269.09
468.60	12882.31
468.78	12685.70
468.96	12896.35
469.14	12865.92
469.32	13111.68
469.50	12657.62
469.69	13207.64
469.87	13121.04
470.05	13137.43
470.23	13275.52
470.41	13212.32
470.59	13268.50
470.77	13235.73
470.95	13509.57
471.14	13685.11
471.32	13352.76
471.50	13444.04
471.68	13565.74
471.86	14113.43
472.04	13612.56
472.22	14244.50
472.40	13799.80
472.58	14036.19
472.77	14066.62
472.95	14242.16
473.13	14757.08
473.31	14185.99
473.49	14356.85
473.67	14363.87
473.85	14324.08
474.03	14787.50
474.21	14689.20
474.39	14782.82
474.57	14473.87
474.75	14796.87
474.93	15129.22
475.12	14941.98
475.30	15030.92
475.48	15131.56
475.66	15410.09
475.84	15276.68
476.02	15449.88
476.20	15522.43
476.38	15737.76
476.56	15978.84
476.74	16154.38
476.92	15840.75
477.10	16126.29
477.28	16184.80
477.46	16191.83
477.64	16388.43
477.82	16772.28
478.00	16685.68
478.18	17015.69
478.36	17139.74
478.54	17359.75
478.72	17427.63
478.90	17537.63
479.08	17685.09
479.26	18033.83
479.44	17752.96
479.62	17738.92
479.80	18249.16
479.98	18216.39
480.16	18745.35
480.34	18518.32
480.52	18724.29
480.70	18857.70
480.88	18581.51
481.06	18750.03
481.24	19110.47
481.41	19400.70
481.59	19307.08
481.77	19552.84
481.95	19412.40
482.13	19934.34
482.31	19524.75
482.49	20313.51
482.67	20357.98
482.85	20809.70
483.03	20601.40
483.21	20966.52
483.39	21139.72
483.57	20964.18
483.74	21462.71
483.92	21656.98
484.10	21441.65
484.28	21869.97
484.46	21907.41
484.64	22424.67
484.82	22092.32
485.00	22555.74
485.18	22960.66
485.35	23080.02
485.53	23159.60
485.71	23154.92
485.89	23683.88
486.07	23452.17
486.25	23351.52
486.43	23772.82
486.61	24243.27
486.78	24592.01
486.96	24273.70
487.14	24805.00
487.32	24631.80
487.50	25228.63
487.68	25235.66
487.85	25099.90
488.03	25539.93
488.21	26209.32
488.39	26195.28
488.57	26164.85
488.75	26466.78
488.92	26572.10
489.10	26939.57
489.28	26749.98
489.46	27321.07
489.64	27288.31
489.81	27730.67
489.99	27910.89
490.17	28266.65
490.35	28224.52
490.53	28313.46
490.70	28599.01
490.88	28514.75
491.06	28779.23
491.24	28865.83
491.41	29266.06
491.59	29186.48
491.77	29898.00
491.95	29832.47
492.13	29940.13
492.30	29954.18
492.48	30541.65
492.66	30417.60
492.84	30445.69
493.01	30972.31
493.19	30766.34
493.37	30883.37
493.54	31529.36
493.72	31882.78
493.90	31885.12
494.08	32004.49
494.25	32163.64
494.43	32165.98
494.61	32549.83
494.79	33008.58
494.96	33055.39
495.14	32776.86
495.32	33539.88
495.49	33205.18
495.67	33539.88
495.85	33734.14
496.02	34031.39
496.20	34326.30
496.38	34485.45
496.55	34525.24
496.73	34918.45
496.91	34614.18
497.09	35101.01
497.26	35077.61
497.44	35096.33
497.62	35524.65
497.79	35821.90
497.97	36034.89
498.14	36287.67
498.32	36308.73
498.50	36254.90
498.67	36711.30
498.85	36498.31
499.03	37069.40
499.20	36531.08
499.38	36978.12
499.56	37584.32
499.73	37139.62
499.91	37493.04
500.08	38047.75
500.26	37738.80
500.44	38190.52
500.61	38398.83
500.79	37741.14
500.97	38178.82
501.14	39040.14
501.32	39089.29
501.49	38796.72
501.67	38981.62
501.84	39166.52
502.02	38813.10
502.20	39632.29
502.37	39695.49
502.55	39519.95
502.72	39643.99
502.90	39952.94
503.07	40076.99
503.25	40252.53
503.43	40257.21
503.60	39992.73
503.78	40650.42
503.95	40596.59
504.13	40676.17
504.30	40978.10
504.48	40821.28
504.65	41600.68
504.83	41715.37
505.01	41827.71
505.18	41160.66
505.36	41748.14
505.53	41329.18
505.71	42113.26
505.88	41886.23
506.06	41677.92
506.23	42155.39
506.41	42071.13
506.58	42272.42
506.76	42368.38
506.93	42752.23
507.11	42464.34
507.28	42836.48
507.46	43086.92
507.63	43129.05
507.81	43503.54
507.98	43278.85
508.16	43358.42
508.33	43332.68
508.50	43849.94
508.68	43913.13
508.85	44219.74
509.03	44013.77
509.20	44704.23
509.38	44524.01
509.55	44587.21
509.73	44744.02
509.90	44786.15
510.08	45078.72
510.25	45052.97
510.42	45296.39
510.60	45043.61
510.77	45406.39
510.95	45488.31
511.12	45240.21
511.30	45247.24
511.47	45214.47
511.64	45600.66
511.82	46007.91
511.99	46136.64
512.17	46204.52
512.34	46457.29
512.51	46506.44
512.69	46621.13
512.86	46813.05
513.04	47070.51
513.21	46735.82
513.38	46763.90
513.56	46981.57
513.73	47084.56
513.90	47332.65
514.08	46986.25
514.25	47351.38
514.43	47931.83
514.60	47562.03
514.77	47599.47
514.95	47742.25
515.12	47896.72
515.29	47758.63
515.47	48259.51
515.64	48392.92
515.81	48343.77
515.99	48725.27
516.16	48509.94
516.33	48956.99
516.51	49132.53
516.68	48626.97
516.85	48406.96
517.03	48985.07
517.20	49284.66
517.37	49279.98
517.54	49462.54
517.72	49368.92
517.89	49420.41
518.06	49177.00
518.24	49654.47
518.41	49415.73
518.58	49792.56
518.75	49364.24
518.93	49626.38
519.10	49572.55
519.27	50120.23
519.45	49546.80
519.62	50272.37
519.79	50010.23
519.96	50251.30
520.14	50302.79
520.31	50204.49
520.48	50747.50
520.65	50761.54
520.83	51056.45
521.00	50761.54
521.17	50927.72
521.34	51079.85
521.52	51042.40
521.69	50829.41
521.86	51374.76
522.03	51332.63
522.20	51463.70
522.38	51707.12
522.55	51693.07
522.72	51849.89
522.89	51840.53
523.07	51592.43
523.24	51896.70
523.41	51908.40
523.58	51716.48
523.75	52046.49
523.92	51950.53
524.10	52254.80
524.27	52378.85
524.44	52303.95
524.61	52605.88
524.78	52154.16
524.96	52645.67
525.13	52219.69
525.30	52687.80
525.47	52779.08
525.64	52868.02
525.81	52545.03
525.98	52931.22
526.16	52945.26
526.33	53045.90
526.50	53073.99
526.67	53066.97
526.84	53059.94
527.01	53511.67
527.18	52739.29
527.36	53066.97
527.53	53277.61
527.70	53729.34
527.87	53319.74
528.04	53570.18
528.21	53544.44
528.38	53399.32
528.55	53757.42
528.72	53579.54
528.89	53464.86
529.07	53506.99
529.24	53558.48
529.41	53853.39
529.58	53921.26
529.75	53645.08
529.92	53937.65
530.09	53986.80
530.26	54092.12
530.43	54211.49
530.60	53832.32
530.77	53986.80
530.94	54581.29
531.11	54281.70
531.28	54438.52
531.46	54293.41
531.63	54513.42
531.80	54541.50
531.97	54604.70
532.14	54649.17
532.31	54773.22
532.48	54979.18
532.65	54934.71
532.82	54677.25
532.99	55044.72
533.16	54808.32
533.33	54815.35
533.50	55126.64
533.67	55084.51
533.84	54810.67
534.01	54993.23
534.18	54974.50
534.35	55283.45
534.52	55306.86
534.69	55405.16
534.86	55309.20
535.03	55196.85
535.20	55367.71
535.37	55491.76
535.54	55735.18
535.71	55348.99
535.88	55580.70
536.05	55814.76
536.22	55863.91
536.38	55751.56
536.55	55807.73
536.72	55725.81
536.89	56020.72
537.06	55793.69
537.23	55971.57
537.40	55847.52
537.57	55711.77
537.74	56114.34
537.91	56332.01
538.08	56214.99
538.25	55973.91
538.42	55945.83
538.59	56254.78
538.75	56336.69
538.92	56477.13
539.09	56240.73
539.26	56453.72
539.43	56404.57
539.60	56444.36
539.77	56484.15
539.94	56535.64
540.11	56446.70
540.28	56516.92
540.44	56573.09
540.61	56343.72
540.78	56509.89
540.95	56535.64
541.12	56449.04
541.29	56769.69
541.46	56647.99
541.62	56760.33
541.79	56647.99
541.96	56523.94
542.13	56638.62
542.30	56760.33
542.47	57006.09
542.63	56786.08
542.80	57006.09
542.97	57312.70
543.14	57532.71
543.31	57209.71
543.48	56999.07
543.64	57481.22
543.81	57710.59
543.98	57301.00
544.15	57502.28
544.32	57762.08
544.48	57858.04
544.65	57513.98
544.82	57570.16
544.99	57565.48
545.16	57609.95
545.32	57607.61
545.49	57827.62
545.66	57785.49
545.83	57731.65
546.00	57794.85
546.16	57633.35
546.33	57738.68
546.50	57677.82
546.67	57827.62
546.83	57460.15
547.00	57949.32
547.17	58092.10
547.34	58178.70
547.50	58251.25
547.67	58370.62
547.84	58040.60
548.00	58274.66
548.17	58375.30
548.34	58314.45
548.51	58300.40
548.67	58513.39
548.84	58356.58
549.01	58401.05
549.18	58300.40
549.34	58684.25
549.51	58513.39
549.68	58684.25
549.84	58588.29
550.01	58581.27
550.18	58468.92
550.34	58574.25
550.51	58595.31
550.68	58515.73
550.84	58553.18
551.01	58883.20
551.18	58803.62
551.34	58684.25
551.51	58660.85
551.68	58777.87
551.84	58805.96
552.01	58611.70
552.18	58927.67
552.34	58672.55
552.51	58897.24
552.68	58937.03
552.84	58878.52
553.01	58965.12
553.18	58993.20
553.34	58951.07
553.51	58932.35
553.67	58990.86
553.84	59229.60
554.01	59131.29
554.17	59082.14
554.34	59100.87
554.51	59332.58
554.67	59255.34
554.84	59222.58
555.00	59236.62
555.17	59267.05
555.33	59241.30
555.50	59103.21
555.67	59245.98
555.83	59215.55
556.00	59510.46
556.16	59662.60
556.33	59559.61
556.50	59327.90
556.66	59578.34
556.83	59325.56
556.99	59360.67
557.16	59648.55
557.32	59657.91
557.49	59882.61
557.65	59590.04
557.82	59646.21
557.98	59512.80
558.15	59585.36
558.32	59662.60
558.48	59613.44
558.65	59597.06
558.81	59831.11
558.98	59887.29
559.14	59718.77
559.31	59880.27
559.47	59786.64
559.64	60048.78
559.80	59796.01
559.97	59934.10
560.13	59821.75
560.30	59856.86
560.46	59908.35
560.63	59817.07
560.79	60135.38
560.96	60032.40
561.12	60009.00
561.29	60062.83
561.45	60095.60
561.61	60271.14
561.78	60018.36
561.94	60018.36
562.11	59966.87
562.27	59983.25
562.44	60102.62
562.60	60193.90
562.77	60093.25
562.93	59908.35
563.10	60231.35
563.26	60037.08
563.42	60177.51
563.59	60226.66
563.75	60287.52
563.92	60271.14
564.08	60285.18
564.24	60444.33
564.41	60409.23
564.57	60348.37
564.74	60317.95
564.90	60374.12
565.07	60203.26
565.23	60292.20
565.39	60402.21
565.56	60488.80
565.72	60170.49
565.88	60404.55
566.05	60449.02
566.21	60240.71
566.38	60420.93
566.54	60467.74
566.70	60561.36
566.87	60640.94
567.03	60324.97
567.19	60563.70
567.36	60416.25
567.52	60411.57
567.68	60704.13
567.85	60376.46
568.01	60837.54
568.17	60640.94
568.34	60636.26
568.50	60659.66
568.66	60444.33
568.83	60406.89
568.99	60495.83
569.15	60577.75
569.32	60430.29
569.48	60491.15
569.64	60563.70
569.81	60622.22
569.97	60509.87
570.13	60589.45
570.30	60556.68
570.46	60786.05
570.62	60662.00
570.78	60556.68
570.95	60697.11
571.11	60839.89
571.27	60528.59
571.43	60610.51
571.60	60945.21
571.76	60685.41
571.92	60849.25
572.09	60722.86
572.25	60755.63
572.41	60697.11
572.57	60561.36
572.74	60940.53
572.90	60842.23
573.06	60898.40
573.22	60687.75
573.38	60830.52
573.55	60842.23
573.71	60891.38
573.87	60879.67
574.03	60739.24
574.20	60711.16
574.36	60729.88
574.52	60968.61
574.68	60753.29
574.84	61029.47
575.01	60793.07
575.17	60870.31
575.33	60844.57
575.49	60764.99
575.65	61031.81
575.82	60919.46
575.98	60959.25
576.14	60999.04
576.30	61052.87
576.46	60821.16
576.62	60874.99
576.79	60933.51
576.95	60685.41
577.11	60900.74
577.27	60896.06
577.43	60898.40
577.59	60713.50
577.75	60811.80
577.92	60907.76
578.08	61125.43
578.24	61022.45
578.40	60961.59
578.56	61109.05
578.72	60889.04
578.88	61228.41
579.04	61305.65
579.21	61059.90
579.37	61113.73
579.53	60961.59
579.69	60690.09
579.85	61118.41
580.01	61092.66
580.17	60968.61
580.33	61212.03
580.49	61174.58
580.65	61066.92
580.82	60893.72
580.98	60877.33
581.14	60999.04
581.30	61076.28
581.46	61020.11
581.62	61197.99
581.78	61045.85
581.94	60891.38
582.10	61073.94
582.26	61059.90
582.42	61057.56
582.58	60966.27
582.74	61022.45
582.90	60914.78
583.06	61038.83
583.22	60816.48
583.38	61071.60
583.54	60987.34
583.70	61113.73
583.86	61300.97
584.02	61125.43
584.18	61197.99
584.34	61076.28
584.50	61109.05
584.66	61036.49
584.82	60919.46
584.98	61331.40
585.14	61207.35
585.30	61001.38
585.46	61045.85
585.62	61235.44
585.78	61542.05
585.94	61066.92
586.10	61200.33
586.26	61261.18
586.42	61249.48
586.58	61258.84
586.74	61268.20
586.90	61256.50
587.06	61099.68
587.22	61251.82
587.38	61169.90
587.54	61333.74
587.70	61427.36
587.86	61336.08
588.02	61286.93
588.18	61455.45
588.34	61048.19
588.49	61146.50
588.65	61247.14
588.81	61186.28
588.97	61277.57
589.13	61095.00
589.29	61406.30
589.45	61382.89
589.61	61193.31
589.77	61499.92
589.93	61539.71
590.08	61371.19
590.24	61504.60
590.40	61705.88
590.56	61420.34
590.72	61553.75
590.88	61499.92
591.04	61347.78
591.20	61907.17
591.35	61635.67
591.51	61750.35
591.67	61450.77
591.83	61614.60
591.99	61563.11
592.15	61371.19
592.31	61733.97
592.46	61600.56
592.62	61535.02
592.78	61396.93
592.94	61818.23
593.10	61642.69
593.26	61691.84
593.41	61588.86
593.57	61509.28
593.73	61638.01
593.89	61787.80
594.05	61832.27
594.20	61602.90
594.36	61883.76
594.52	61675.46
594.68	61633.33
594.84	61612.26
594.99	61808.87
595.15	61546.73
595.31	61832.27
595.47	61626.31
595.62	61474.17
595.78	61506.94
595.94	61719.93
596.10	62042.92
596.25	61808.87
596.41	61598.22
596.57	61712.91
596.73	61808.87
596.88	61563.11
597.04	61797.16
597.20	61820.57
597.36	61705.88
597.51	61829.93
597.67	61703.54
597.83	61731.63
597.99	61897.81
598.14	61783.12
598.30	61858.02
598.46	61811.21
598.61	61865.04
598.77	61808.87
598.93	61853.34
599.09	61668.44
599.24	61886.10
599.40	61900.15
599.56	61881.42
599.71	61825.25
599.87	62049.94
600.03	61951.64
600.18	61635.67
600.34	61780.78
600.50	61949.30
600.65	61939.94
600.81	61914.19
600.97	61848.66
601.12	61839.29
601.28	61839.29
601.44	61890.79
601.59	62026.54
601.75	61911.85
601.91	62071.01
602.06	62361.23
602.22	62122.50
602.37	61977.39
602.53	61811.21
602.69	61794.82
602.84	61825.25
603.00	61822.91
603.16	61808.87
603.31	62026.54
603.47	62056.96
603.62	61752.69
603.78	62092.07
603.94	61745.67
604.09	61886.10
604.25	61951.64
604.40	61829.93
604.56	61895.47
604.71	62213.78
604.87	61841.63
605.03	61979.73
605.18	61858.02
605.34	62026.54
605.49	61766.74
605.65	61907.17
605.80	61785.46
605.96	62075.69
606.12	62138.88
606.27	61972.70
606.43	61773.76
606.58	61858.02
606.74	61790.14
606.89	61776.10
607.05	61691.84
607.20	62096.75
607.36	61717.59
607.51	61766.74
607.67	61656.73
607.82	61860.36
607.98	61815.89
608.13	61855.68
608.29	61822.91
608.44	61743.33
608.60	61757.38
608.75	61701.20
608.91	61663.75
609.06	61518.64
609.22	61726.95
609.37	61762.06
609.53	61860.36
609.68	61832.27
609.84	61722.27
609.99	61689.50
610.15	61872.06
610.30	61860.36
610.46	61703.54
610.61	61806.53
610.76	61740.99
610.92	61834.61
611.07	61647.37
611.23	61553.75
611.38	61862.70
611.54	61738.65
611.69	61694.18
611.84	61572.47
612.00	61638.01
612.15	61602.90
612.31	61792.48
612.46	61595.88
612.62	61612.26
612.77	61715.25
612.92	61579.49
613.08	61542.05
613.23	61565.45
613.39	61542.05
613.54	61361.82
613.69	61499.92
613.85	61410.98
614.00	61460.13
614.15	61640.35
614.31	61581.84
614.46	61726.95
614.62	61425.02
614.77	61471.83
614.92	61378.21
615.08	61478.85
615.23	61476.51
615.38	61600.56
615.54	61385.23
615.69	61471.83
615.84	61305.65
616.00	61581.84
616.15	61436.72
616.30	61731.63
616.46	61490.55
616.61	61413.32
616.76	61623.96
616.92	61509.28
617.07	61331.40
617.22	61197.99
617.37	61310.33
617.53	61623.96
617.68	61518.64
617.83	61427.36
617.99	61361.82
618.14	61371.19
618.29	61593.54
618.45	61228.41
618.60	61357.14
618.75	61151.18
618.90	61181.60
619.06	61366.51
619.21	61469.49
619.36	61567.79
619.51	61333.74
619.67	61324.38
619.82	61162.88
619.97	61315.01
620.12	61095.00
620.28	61116.07
620.43	61340.76
620.58	61183.94
620.73	61240.12
620.89	61123.09
621.04	61123.09
621.19	61015.43
621.34	61050.53
621.49	60933.51
621.65	61057.56
621.80	61303.31
621.95	61247.14
622.10	61123.09
622.25	60903.08
622.41	61080.96
622.56	60977.98
622.71	61038.83
622.86	60835.20
623.01	60938.19
623.16	60851.59
623.32	60893.72
623.47	61118.41
623.62	61017.77
623.77	60945.21
623.92	60977.98
624.07	61087.98
624.23	60905.42
624.38	61209.69
624.53	60750.94
624.68	60699.45
624.83	60839.89
624.98	60959.25
625.13	60598.81
625.29	60818.82
625.44	60865.63
625.59	60769.67
625.74	60631.58
625.89	60582.43
626.04	60423.27
626.19	60547.32
626.34	60657.32
626.49	60582.43
626.65	60519.23
626.80	60818.82
626.95	60491.15
627.10	60561.36
627.25	60315.61
627.40	60327.31
627.55	60734.56
627.70	60449.02
627.85	60741.58
628.00	60385.82
628.15	60563.70
628.30	60371.78
628.45	60404.55
628.60	60336.67
628.76	60259.43
628.91	60559.02
629.06	60416.25
629.21	60446.68
629.36	60376.46
629.51	60186.88
629.66	60341.35
629.81	60254.75
629.96	60149.43
630.11	60268.79
630.26	60250.07
630.41	60334.33
630.56	60322.63
630.71	60219.64
630.86	60296.88
631.01	60350.71
631.16	60285.18
631.31	60196.24
631.46	59828.77
631.61	60149.43
631.76	60289.86
631.91	60107.30
632.06	60317.95
632.21	60313.26
632.36	60432.63
632.51	59870.90
632.66	60048.78
632.81	60039.42
632.96	60086.23
633.10	60090.91
633.25	60224.32
633.40	60104.96
633.55	60041.76
633.70	60046.44
633.85	59854.52
634.00	59842.82
634.15	59716.43
634.30	59803.03
634.45	59915.37
634.60	60168.15
634.75	60006.65
634.90	59718.77
635.05	59788.98
635.19	59730.47
635.34	59697.70
635.49	59814.73
635.64	59716.43
635.79	59700.04
635.94	59781.96
636.09	59707.07
636.24	59501.10
636.39	59641.53
636.53	59898.99
636.68	59704.73
636.83	59578.34
636.98	59669.62
637.13	59568.97
637.28	59784.30
637.43	59723.45
637.57	59662.60
637.72	59559.61
637.87	59650.89
638.02	59473.01
638.17	59739.83
638.32	59618.13
638.46	59576.00
638.61	59470.67
638.76	59318.54
638.91	59580.68
639.06	59447.27
639.20	59295.13
639.35	59407.48
639.50	59096.19
639.65	59554.93
639.80	59594.72
639.94	59267.05
640.09	59341.94
640.24	59330.24
640.39	59348.96
640.54	59365.35
640.68	59360.67
640.83	59341.94
640.98	59381.73
641.13	59222.58
641.27	59433.22
641.42	59126.61
641.57	59157.04
641.72	59107.89
641.86	59025.97
642.01	59077.46
642.16	59079.80
642.31	59140.66
642.45	59311.52
642.60	58913.62
642.75	59231.94
642.90	59194.49
643.04	59164.06
643.19	59128.95
643.34	58951.07
643.48	58953.41
643.63	59264.70
643.78	59054.06
643.93	58841.07
644.07	59000.22
644.22	59096.19
644.37	58831.71
644.51	58766.17
644.66	58967.46
644.81	58906.60
644.95	59016.61
645.10	58953.41
645.25	58731.06
645.39	58529.78
645.54	58557.86
645.69	58607.01
645.83	58754.47
645.98	58754.47
646.13	58728.72
646.27	58728.72
646.42	58721.70
646.57	58700.64
646.71	58684.25
646.86	58714.68
647.00	58852.77
647.15	58578.93
647.30	58649.14
647.44	58656.17
647.59	58866.81
647.74	58702.98
647.88	58581.27
648.03	58918.31
648.17	58642.12
648.32	58489.99
648.47	58686.59
648.61	58440.84
648.76	58529.78
648.90	58277.00
649.05	58511.05
649.20	58520.41
649.34	58401.05
649.49	58305.09
649.63	58576.59
649.78	58630.42
649.92	58522.76
650.07	58557.86
650.21	58087.42
650.36	58354.24
650.51	58225.51
650.65	58482.97
650.80	58305.09
650.94	58066.35
651.09	58000.82
651.23	57942.30
651.38	58234.87
651.52	58251.25
651.67	57886.13
651.81	58372.96
651.96	58047.63
652.10	58136.57
652.25	57984.43
652.39	57918.90
652.54	57717.61
652.68	57944.64
652.83	58040.60
652.97	58099.12
653.12	57942.30
653.26	58071.03
653.41	58328.49
653.55	57874.43
653.70	58080.39
653.84	58166.99
653.99	58038.26
654.13	57703.57
654.27	58068.69
654.42	57588.88
654.56	58000.82
654.71	57890.81
654.85	57925.92
655.00	58005.50
655.14	57921.24
655.29	57780.81
655.43	57832.30
655.57	57799.53
655.72	57598.24
655.86	57738.68
656.01	57710.59
656.15	57396.96
656.30	57673.14
656.44	57886.13
656.58	57764.42
656.73	57893.15
656.87	57647.39
657.01	57502.28
657.16	57677.82
657.30	57738.68
657.45	57663.78
657.59	57333.76
657.73	57254.18
657.88	57499.94
658.02	57422.70
658.16	57389.94
658.31	57270.57
658.45	57350.15
658.60	57385.25
658.74	57481.22
658.88	57310.36
659.03	57270.57
659.17	57158.22
659.31	57102.05
659.46	57284.61
659.60	57043.54
659.74	57179.29
659.89	56832.89
660.03	56722.88
660.17	57055.24
660.32	56725.22
660.46	56514.58
660.60	56568.41
660.74	57017.79
660.89	56690.12
661.03	56809.48
661.17	56669.05
661.32	56685.43
661.46	56825.87
661.60	56914.81
661.74	56921.83
661.89	56493.51
662.03	56427.98
662.17	56425.64
662.31	56530.96
662.46	56685.43
662.60	56430.32
662.74	56439.68
662.88	56231.37
663.03	56259.46
663.17	56353.08
663.31	56165.84
663.45	56266.48
663.60	55861.57
663.74	55777.31
663.88	55877.95
664.02	55924.76
664.17	56294.56
664.31	55770.28
664.45	55987.95
664.59	55950.51
664.73	55868.59
664.88	55765.60
665.02	55379.42
665.16	55409.84
665.30	55491.76
665.44	55341.97
665.59	55381.76
665.73	55728.16
665.87	55402.82
666.01	55458.99
666.15	55295.16
666.29	55367.71
666.44	55356.01
666.58	55337.29
666.72	55054.08
666.86	54965.14
667.00	55040.04
667.14	54848.11
667.28	54815.35
667.43	54850.45
667.57	55011.95
667.71	54810.67
667.85	54543.84
667.99	54981.52
668.13	54841.09
668.27	54763.85
668.41	54908.97
668.56	54485.33
668.70	54887.90
668.84	54588.31
668.98	54447.88
669.12	54513.42
669.26	54614.06
669.40	54515.76
669.54	54356.60
669.68	54131.91
669.82	54017.22
669.96	54024.25
670.10	54131.91
670.25	54408.09
670.39	53954.03
670.53	54174.04
670.67	53932.96
670.81	54272.34
670.95	54157.66
671.09	53530.39
671.23	53584.22
671.37	53722.32
671.51	53523.37
671.65	53698.91
671.79	53535.07
671.93	53616.99
672.07	53546.78
672.21	53286.98
672.35	53003.77
672.49	52966.32
672.63	52776.74
672.77	52954.62
672.91	52722.91
673.05	53130.16
673.19	52975.69
673.33	52610.56
673.47	52750.99
673.61	52779.08
673.75	52659.71
673.89	52425.66
674.03	52470.13
674.17	52072.24
674.31	52039.47
674.45	51992.66
674.59	51709.46
674.73	51938.83
674.87	51819.46
675.01	51866.27
675.15	51735.20
675.29	51929.47
675.43	51873.29
675.56	51550.30
675.70	51255.39
675.84	51545.62
675.98	50497.06
676.12	51477.74
676.26	51475.40
676.40	51030.70
676.54	50918.35
676.68	50525.14
676.82	50227.90
676.96	50581.32
677.10	50354.29
677.23	50284.07
677.37	50487.70
677.51	50412.80
677.65	49858.09
677.79	49261.26
677.93	49282.32
678.07	49141.89
678.21	49085.72
678.34	48849.32
678.48	49422.75
678.62	49029.54
678.76	48947.62
678.90	48898.47
679.04	48989.75
679.18	49088.06
679.31	48271.21
679.45	48294.61
679.59	48329.72
679.73	48299.30
679.87	47988.00
680.00	47695.44
680.14	47529.26
680.28	47503.51
680.42	47770.33
680.56	47367.76
680.70	47276.48
680.83	47105.62
680.97	47019.02
681.11	47318.61
681.25	47131.37
681.39	47168.82
681.52	47047.11
681.66	46719.43
681.80	46078.13
681.94	45918.97
682.07	46213.88
682.21	45401.71
682.35	45296.39
682.49	45883.86
682.62	45364.26
682.76	46014.93
682.90	45785.56
683.04	45387.67
683.17	45317.45
683.31	44921.90
683.45	44886.79
683.59	44566.14
683.72	44339.11
683.86	44453.79
684.00	44863.39
684.13	44856.37
684.27	44163.57
684.41	43817.17
684.55	43901.43
684.68	43861.64
684.82	43711.84
684.96	43426.30
685.09	42880.95
685.23	43175.86
685.37	42890.32
685.50	42670.31
685.64	42674.99
685.78	42579.03
685.91	42906.70
686.05	41914.31
686.19	41446.21
686.32	41532.81
686.46	41331.52
686.60	41062.36
686.73	40786.18
686.87	41067.04
687.01	41184.07
687.14	41333.86
687.28	40959.38
687.42	40879.80
687.55	40304.02
687.69	40641.06
687.82	40502.97
687.96	40418.71
688.10	39700.17
688.23	40343.81
688.37	39868.69
688.50	39723.57
688.64	39601.86
688.78	39501.22
688.91	38925.45
689.05	39058.86
689.18	38988.64
689.32	38534.58
689.46	38115.62
689.59	37750.50
689.73	37977.53
689.86	37734.12
690.00	37581.98
690.13	37846.46
690.27	37577.30
690.41	37832.42
690.54	37404.10
690.68	37003.87
690.81	36872.80
690.95	36723.01
691.08	36540.44
691.22	36449.16
691.35	36147.23
691.49	36282.98
691.62	36538.10
691.76	35887.43
691.89	35629.98
692.03	35873.39
692.16	35742.32
692.30	34630.57
692.43	35292.94
692.57	34859.94
692.70	34761.64
692.84	35019.10
692.97	34932.50
693.11	34824.83
693.24	34148.42
693.38	34356.72
693.51	34164.80
693.65	33839.47
693.78	33811.38
693.92	33963.51
694.05	33986.92
694.19	33549.24
694.32	33532.86
694.45	33085.81
694.59	33184.12
694.72	32627.07
694.86	32793.25
694.99	32259.60
695.13	32414.08
695.26	32058.32
695.39	31950.65
695.53	32058.32
695.66	32081.72
695.80	31931.93
695.93	31428.71
696.07	31215.72
696.20	30789.75
696.33	30665.70
696.47	30813.15
696.60	30686.76
696.73	30735.92
696.87	30412.92
697.00	30391.86
697.14	30401.22
697.27	29874.60
697.40	29923.75
697.54	30185.89
697.67	30185.89
697.80	29895.66
697.94	29282.44
698.07	29345.64
698.21	29181.80
698.34	29209.89
698.47	28868.17
698.61	28098.13
698.74	28484.32
698.87	28975.83
699.01	28175.37
699.14	28313.46
699.27	28451.55
699.40	28006.85
699.54	27887.48
699.67	28283.03
699.80	28051.32
699.94	27707.26
700.07	27861.74
700.20	27054.25
700.34	27201.71
700.47	26764.03
700.60	26771.05
700.73	26623.59
700.87	26096.97
701.00	26118.04
701.13	26047.82
701.26	25909.73
701.40	25881.64
701.53	25893.35
701.66	26394.22
701.79	25348.00
701.93	25025.01
702.06	24863.51
702.19	24940.75
702.32	25142.03
702.46	24954.79
702.59	24540.52
702.72	24662.22
702.85	24774.57
702.99	24596.69
703.12	24671.59
703.25	24173.05
703.38	23800.91
703.51	24088.79
703.65	23824.31
703.78	23728.35
703.91	23234.50
704.04	23412.38
704.17	23599.62
704.31	23515.36
704.44	23103.43
704.57	22829.59
704.70	22955.97
704.83	22824.90
704.96	22724.26
705.10	22286.58
705.23	22026.78
>>>>>End Processed Spectral Data<<<<<
