SpectraSuite Data File
++++++++++++++++++++++++++++++++++++
Date: Fri Oct 25 11:23:06 EDT 2013
User: price-jones
Dark Spectrum Present: No
Reference Spectrum Present: No
Number of Sampled Component Spectra: 1
Spectrometers: USB2+H05261
Integration Time (usec): 100000 (USB2+H05261)
Spectra Averaged: 1 (USB2+H05261)
Boxcar Smoothing: 0 (USB2+H05261)
Correct for Electrical Dark: No (USB2+H05261)
Strobe/Lamp Enabled: No (USB2+H05261)
Correct for Detector Non-linearity: No (USB2+H05261)
Correct for Stray Light: No (USB2+H05261)
Number of Pixels in Processed Spectrum: 2048
>>>>>Begin Processed Spectral Data<<<<<
365.73	220.01
365.92	220.01
366.12	220.01
366.32	147.45
366.52	147.45
366.72	81.92
366.91	70.22
367.11	91.28
367.31	107.66
367.51	91.28
367.70	145.11
367.90	142.77
368.10	110.01
368.30	81.92
368.49	140.43
368.69	166.18
368.89	135.75
369.09	98.30
369.28	65.54
369.48	58.51
369.68	187.24
369.87	210.65
370.07	203.63
370.27	243.42
370.47	330.02
370.66	596.84
370.86	575.77
371.06	704.50
371.25	713.86
371.45	648.33
371.65	744.29
371.84	622.58
372.04	631.94
372.24	695.14
372.44	751.31
372.63	786.42
372.83	814.51
373.03	765.36
373.22	767.70
373.42	772.38
373.62	746.63
373.81	791.10
374.01	851.96
374.21	868.34
374.40	866.00
374.60	779.40
374.79	763.01
374.99	835.57
375.19	844.93
375.38	849.61
375.58	821.53
375.78	868.34
375.97	767.70
376.17	896.43
376.37	882.38
376.56	866.00
376.76	854.30
376.95	884.72
377.15	842.59
377.35	905.79
377.54	863.66
377.74	929.19
377.93	943.24
378.13	945.58
378.33	917.49
378.52	884.72
378.72	835.57
378.91	924.51
379.11	858.98
379.31	1025.15
379.50	851.96
379.70	968.98
379.89	987.71
380.09	978.34
380.28	966.64
380.48	1083.67
380.68	978.34
380.87	936.21
381.07	947.92
381.26	978.34
381.46	1022.81
381.65	1062.60
381.85	1046.22
382.04	1095.37
382.24	1069.62
382.43	1064.94
382.63	1020.47
382.83	1116.44
383.02	1200.69
383.22	1109.41
383.41	1235.80
383.61	1186.65
383.80	1062.60
384.00	1224.10
384.19	1174.95
384.39	1088.35
384.58	1107.07
384.78	1137.50
384.97	1170.27
385.17	1137.50
385.36	1137.50
385.56	1181.97
385.75	1139.84
385.95	1203.04
386.14	1212.40
386.34	1252.19
386.53	1203.04
386.72	1193.67
386.92	1193.67
387.11	1277.93
387.31	1366.87
387.50	1203.04
387.70	1350.49
387.89	1263.89
388.09	1284.95
388.28	1256.87
388.48	1270.91
388.67	1327.08
388.86	1306.02
389.06	1284.95
389.25	1303.68
389.45	1338.79
389.64	1287.29
389.84	1427.73
390.03	1352.83
390.22	1430.07
390.42	1411.34
390.61	1336.45
390.81	1364.53
391.00	1355.17
391.19	1411.34
391.39	1409.00
391.58	1500.28
391.78	1369.21
391.97	1453.47
392.16	1488.58
392.36	1579.86
392.55	1514.33
392.75	1465.18
392.94	1647.74
393.13	1565.82
393.33	1540.07
393.52	1586.88
393.71	1607.95
393.91	1659.44
394.10	1575.18
394.29	1645.40
394.49	1678.16
394.68	1556.46
394.88	1549.43
395.07	1692.21
395.26	1652.42
395.46	1678.16
395.65	1706.25
395.84	1654.76
396.04	1743.70
396.23	1736.68
396.42	1685.19
396.62	1849.02
396.81	1778.81
397.00	1930.94
397.19	1755.40
397.39	1790.51
397.58	1886.47
397.77	1834.98
397.97	1809.23
398.16	1746.04
398.35	1849.02
398.55	1944.99
398.74	1914.56
398.93	1949.67
399.12	1905.20
399.32	1919.24
399.51	1987.11
399.70	1961.37
399.90	1961.37
400.09	1998.82
400.28	2078.40
400.47	2026.90
400.67	2071.37
400.86	2045.63
401.05	2026.90
401.24	2122.87
401.44	2148.61
401.63	2125.21
401.82	2113.50
402.01	2174.36
402.21	2143.93
402.40	2047.97
402.59	2260.96
402.78	2225.85
402.97	2267.98
403.17	2317.13
403.36	2228.19
403.55	2207.13
403.74	2289.04
403.93	2324.15
404.13	2361.60
404.32	2389.69
404.51	2263.30
404.70	2370.96
404.89	2380.32
405.09	2450.54
405.28	2504.37
405.47	2581.61
405.66	2616.72
405.85	2541.82
406.05	2532.46
406.24	2628.42
406.43	2628.42
406.62	2715.02
406.81	2700.98
407.00	2623.74
407.20	2569.91
407.39	2637.78
407.58	2715.02
407.77	2715.02
407.96	2733.75
408.15	2761.83
408.34	2818.00
408.54	2897.58
408.73	2768.85
408.92	2808.64
409.11	2958.44
409.30	2981.84
409.49	2878.86
409.68	2925.67
409.87	3082.49
410.07	3063.76
410.26	2974.82
410.45	3166.74
410.64	3096.53
410.83	2963.12
411.02	3201.85
411.21	3049.72
411.40	3211.22
411.59	3365.69
411.78	3229.94
411.98	3265.05
412.17	3337.60
412.36	3351.65
412.55	3330.58
412.74	3442.93
412.93	3468.67
413.12	3449.95
413.31	3667.62
413.50	3466.33
413.69	3435.91
413.88	3585.70
414.07	3634.85
414.26	3810.39
414.45	3754.22
414.64	3733.15
414.83	3808.05
415.02	3779.97
415.22	3836.14
415.41	3896.99
415.60	3927.42
415.79	3934.44
415.98	3962.53
416.17	3988.27
416.36	4109.98
416.55	3967.21
416.74	4105.30
416.93	4161.47
417.12	4191.90
417.31	4187.22
417.50	4114.66
417.69	4210.62
417.88	4212.96
418.07	4280.84
418.26	4372.12
418.45	4447.02
418.64	4479.79
418.83	4311.27
419.02	4337.01
419.21	4428.29
419.39	4461.06
419.58	4617.88
419.77	4411.91
419.96	4678.73
420.15	4571.07
420.34	4550.00
420.53	4554.68
420.72	4830.87
420.91	4718.52
421.10	4798.10
421.29	4809.80
421.48	4788.74
421.67	4805.12
421.86	4791.08
422.05	4896.40
422.24	4877.68
422.43	5011.09
422.61	4779.37
422.80	4968.96
422.99	4884.70
423.18	4971.30
423.37	4924.49
423.56	4936.19
423.75	4858.95
423.94	4786.40
424.13	4592.13
424.32	4774.69
424.50	5081.30
424.69	5207.69
424.88	5048.54
425.07	4929.17
425.26	5078.96
425.45	4868.31
425.64	4978.32
425.83	4975.98
426.01	5064.92
426.20	5132.79
426.39	5046.20
426.58	5060.24
426.77	5158.54
426.96	5214.71
427.15	5142.16
427.33	5221.74
427.52	5207.69
427.71	5210.03
427.90	5114.07
428.09	5305.99
428.28	5455.79
428.46	5427.70
428.65	5320.04
428.84	5671.12
429.03	5589.20
429.22	5444.09
429.40	5575.16
429.59	5490.90
429.78	5427.70
429.97	5352.81
430.16	5305.99
430.34	5561.11
430.53	5774.10
430.72	5694.52
430.91	5493.24
431.10	5769.42
431.28	5731.97
431.47	5806.87
431.66	5933.26
431.85	5858.36
432.03	5996.45
432.22	6150.93
432.41	6108.80
432.60	6066.67
432.79	5996.45
432.97	5891.13
433.16	6146.25
433.35	5968.37
433.54	6080.71
433.72	6155.61
433.91	6148.59
434.10	6216.46
434.28	6258.59
434.47	6347.53
434.66	6211.78
434.85	6331.15
435.03	6415.41
435.22	6244.55
435.41	6586.27
435.59	6392.00
435.78	6583.93
435.97	6553.50
436.16	6352.21
436.34	6719.68
436.53	6628.40
436.72	6703.29
436.90	6581.59
437.09	6609.67
437.28	6609.67
437.46	6726.70
437.65	6665.85
437.84	7131.61
438.02	6745.42
438.21	6649.46
438.40	6743.08
438.58	7021.61
438.77	7246.30
438.96	7068.42
439.14	7077.78
439.33	7424.18
439.52	7321.20
439.70	7211.19
439.89	7417.16
440.08	7459.29
440.26	7578.65
440.45	7393.75
440.63	7463.97
440.82	7651.21
441.01	7527.16
441.19	7911.01
441.38	7721.43
441.57	7784.62
441.75	7796.32
441.94	8102.93
442.12	8013.99
442.31	8156.77
442.50	8234.00
442.68	8116.98
442.87	8161.45
443.05	8093.57
443.24	8278.47
443.43	8318.26
443.61	8231.66
443.80	8383.80
443.98	8053.78
444.17	7932.08
444.35	8308.90
444.54	8390.82
444.73	8374.44
444.91	8411.89
445.10	8573.38
445.28	8458.70
445.47	8446.99
445.65	8320.60
445.84	8496.14
446.02	8568.70
446.21	8526.57
446.39	8486.78
446.58	8678.71
446.77	8585.08
446.95	8631.90
447.14	8652.96
447.32	8807.44
447.51	8552.32
447.69	8592.11
447.88	8566.36
448.06	8437.63
448.25	8760.63
448.43	8711.47
448.62	8491.46
448.80	8580.40
448.99	8856.59
449.17	8784.03
449.36	8746.58
449.54	9027.45
449.73	8933.82
449.91	9144.47
450.10	9032.13
450.28	9181.92
450.46	9102.34
450.65	9069.58
450.83	9170.22
451.02	8990.00
451.20	9235.75
451.39	9177.24
451.57	9125.75
451.76	8968.93
451.94	9270.86
452.13	9430.02
452.31	9348.10
452.49	9315.33
452.68	9390.23
452.86	9439.38
453.05	9500.23
453.23	9685.14
453.42	9542.36
453.60	9301.29
453.78	9605.56
453.97	9687.48
454.15	9661.73
454.34	9378.53
454.52	9736.63
454.70	9764.72
454.89	9919.19
455.07	9802.16
455.26	9891.10
455.44	10235.16
455.62	9973.02
455.81	9949.62
455.99	10153.24
456.17	9944.94
456.36	9968.34
456.54	10139.20
456.73	10298.36
456.91	10396.66
457.09	10450.49
457.28	10665.82
457.46	10375.59
457.64	10574.54
457.83	10574.54
458.01	10616.67
458.19	10656.46
458.38	10614.33
458.56	10726.68
458.74	10750.08
458.93	10869.45
459.11	10883.49
459.29	10906.90
459.48	11044.99
459.66	10839.02
459.84	11133.93
460.03	11255.64
460.21	11222.87
460.39	10927.96
460.57	11021.58
460.76	11211.17
460.94	11054.35
461.12	11487.35
461.31	11288.40
461.49	11365.64
461.67	11138.61
461.85	11456.92
462.04	11482.67
462.22	11644.17
462.40	11571.61
462.59	11698.00
462.77	11548.20
462.95	11751.83
463.13	11789.28
463.32	11819.71
463.50	11726.08
463.68	11564.59
463.86	12074.82
464.05	11864.18
464.23	11819.71
464.41	12037.38
464.59	11829.07
464.78	12133.34
464.96	12182.49
465.14	11974.18
465.32	12102.91
465.50	12320.58
465.69	12322.92
465.87	12196.53
466.05	12346.33
466.23	12409.52
466.41	12484.42
466.60	12629.53
466.78	12362.71
466.96	12187.17
467.14	12411.86
467.32	12444.63
467.51	12643.57
467.69	12432.93
467.87	12430.59
468.05	12685.70
468.23	12645.91
468.41	12725.49
468.60	12830.82
468.78	12582.72
468.96	12573.36
469.14	12837.84
469.32	13212.32
469.50	12634.21
469.69	13067.21
469.87	13284.88
470.05	12985.29
470.23	13329.35
470.41	13308.29
470.59	13530.64
470.77	13497.87
470.95	13439.36
471.14	13785.76
471.32	13282.54
471.50	13837.25
471.68	13741.29
471.86	13947.25
472.04	13680.43
472.22	14340.46
472.40	13806.82
472.58	13935.55
472.77	14167.26
472.95	14427.06
473.13	14827.29
473.31	14335.78
473.49	14281.95
473.67	14338.12
473.85	14508.98
474.03	14895.17
474.21	14724.31
474.39	14939.64
474.57	14878.79
474.75	14902.19
474.93	15201.78
475.12	15054.33
475.30	15154.97
475.48	15166.67
475.66	15293.06
475.84	15424.13
476.02	15487.32
476.20	15735.42
476.38	16086.50
476.56	16187.14
476.74	16163.74
476.92	15967.13
477.10	16102.89
477.28	16163.74
477.46	16540.57
477.64	16528.86
477.82	16975.91
478.00	17188.89
478.18	16957.18
478.36	17287.20
478.54	16994.63
478.72	17502.53
478.90	17715.51
479.08	17724.88
479.26	18031.49
479.44	17790.41
479.62	17907.44
479.80	18267.88
479.98	18410.65
480.16	18740.67
480.34	18473.85
480.52	18633.00
480.70	18745.35
480.88	18490.23
481.06	18864.72
481.24	19054.30
481.41	19194.73
481.59	19562.20
481.77	19569.22
481.95	19784.55
482.13	20098.18
482.31	19899.23
482.49	20538.20
482.67	20283.08
482.85	20470.33
483.03	20624.80
483.21	20833.11
483.39	21146.74
483.57	21195.89
483.74	21397.18
483.92	21350.37
484.10	21659.32
484.28	21855.92
484.46	22118.06
484.64	22263.18
484.82	21757.62
485.00	22314.67
485.18	22537.02
485.35	23192.37
485.53	23403.02
485.71	23482.59
485.89	23543.45
486.07	23723.67
486.25	23676.86
486.43	24070.07
486.61	24020.92
486.78	24339.23
486.96	24526.47
487.14	24875.21
487.32	24805.00
487.50	25191.19
487.68	25181.82
487.85	25525.88
488.03	25846.54
488.21	25956.54
488.39	26321.66
488.57	26434.01
488.75	26539.33
488.92	26431.67
489.10	27061.27
489.28	27061.27
489.46	27505.98
489.64	27608.96
489.81	27395.97
489.99	27875.78
490.17	28048.98
490.35	28414.10
490.53	28694.97
490.70	28816.68
490.88	28402.40
491.06	28830.72
491.24	29261.38
491.41	29256.70
491.59	29467.34
491.77	29682.67
491.95	29717.78
492.13	30096.95
492.30	30501.86
492.48	30527.61
492.66	30590.80
492.84	30625.91
493.01	30848.26
493.19	31068.27
493.37	31192.32
493.54	31552.76
493.72	32243.22
493.90	31920.23
494.08	31824.26
494.25	32381.31
494.43	32463.23
494.61	32793.25
494.79	32556.85
494.96	32591.96
495.14	33226.24
495.32	33394.76
495.49	33888.62
495.67	33589.03
495.85	33991.60
496.02	34075.86
496.20	34438.64
496.38	33820.74
496.55	34672.70
496.73	35318.68
496.91	35028.46
497.09	35037.82
497.26	35246.13
497.44	35328.05
497.62	35555.08
497.79	36088.72
497.97	35503.59
498.14	36224.47
498.32	36467.89
498.50	36514.70
498.67	36697.26
498.85	36912.59
499.03	37291.76
499.20	36945.36
499.38	37282.39
499.56	37734.12
499.73	37345.59
499.91	37736.46
500.08	37937.74
500.26	37509.43
500.44	37830.08
500.61	38096.90
500.79	37900.29
500.97	38649.27
501.14	38962.90
501.32	38920.77
501.49	38492.45
501.67	39498.88
501.84	39182.91
502.02	39243.76
502.20	39505.90
502.37	39840.60
502.55	39641.65
502.72	39541.01
502.90	40233.81
503.07	40119.12
503.25	40158.91
503.43	40287.64
503.60	40369.56
503.78	40950.01
503.95	40645.74
504.13	40353.18
504.30	40957.03
504.48	41055.34
504.65	41392.37
504.83	41516.42
505.01	41600.68
505.18	41567.91
505.36	41820.69
505.53	42101.56
505.71	41794.95
505.88	42497.11
506.06	41944.74
506.23	42197.52
506.41	42169.43
506.58	42359.02
506.76	42649.24
506.93	43168.84
507.11	42698.39
507.28	43154.80
507.46	42958.19
507.63	43325.66
507.81	43590.14
507.98	43119.69
508.16	43643.97
508.33	44004.41
508.50	43849.94
508.68	44289.96
508.85	43892.07
509.03	43962.28
509.20	44095.69
509.38	44643.38
509.55	44650.40
509.73	44753.38
509.90	45151.27
510.08	44582.52
510.25	45024.89
510.42	45155.96
510.60	45418.10
510.77	45830.03
510.95	45771.52
511.12	45366.60
511.30	45364.26
511.47	45808.96
511.64	46085.15
511.82	46185.79
511.99	46211.54
512.17	45902.59
512.34	46012.59
512.51	46887.95
512.69	46691.35
512.86	46426.87
513.04	47096.26
513.21	47065.83
513.38	46909.02
513.56	47180.52
513.73	47269.46
513.90	47501.17
514.08	47379.46
514.25	47805.44
514.43	47742.25
514.60	47887.36
514.77	47571.39
514.95	47990.34
515.12	47906.08
515.29	47908.43
515.47	48133.12
515.64	48306.32
515.81	48236.10
515.99	48744.00
516.16	48645.69
516.33	48856.34
516.51	49127.84
516.68	48896.13
516.85	49139.55
517.03	49357.22
517.20	49158.27
517.37	49191.04
517.54	49207.42
517.72	49184.02
517.89	49132.53
518.06	49446.16
518.24	49649.78
518.41	49904.90
518.58	49507.01
518.75	49649.78
518.93	49865.11
519.10	49614.68
519.27	50057.04
519.45	50281.73
519.62	50232.58
519.79	50349.60
519.96	50234.92
520.14	50457.27
520.31	50169.38
520.48	50731.11
520.65	50422.16
520.83	50707.71
521.00	51049.42
521.17	50969.85
521.34	51133.68
521.52	51283.48
521.69	50937.08
521.86	51487.10
522.03	51463.70
522.20	51681.37
522.38	51613.49
522.55	51896.70
522.72	51718.82
522.89	51330.29
523.07	51943.51
523.24	51966.91
523.41	51793.71
523.58	51798.40
523.75	52198.63
523.92	52238.42
524.10	52481.83
524.27	52231.40
524.44	52449.06
524.61	52257.14
524.78	52456.09
524.96	52570.77
525.13	52512.26
525.30	52821.21
525.47	53006.11
525.64	52610.56
525.81	52842.27
525.98	52818.87
526.16	52893.77
526.33	52821.21
526.50	53183.99
526.67	53127.82
526.84	53277.61
527.01	53088.03
527.18	53289.32
527.36	53265.91
527.53	53404.00
527.70	53598.27
527.87	53432.09
528.04	53464.86
528.21	53691.89
528.38	53605.29
528.55	53914.24
528.72	53642.74
528.89	53673.16
529.07	53755.08
529.24	53888.49
529.41	53792.53
529.58	53785.51
529.75	53947.01
529.92	54096.80
530.09	53797.21
530.26	54202.13
530.43	54136.59
530.60	54277.02
530.77	54461.93
530.94	54492.35
531.11	54443.20
531.28	54223.19
531.46	54597.68
531.63	54653.85
531.80	54461.93
531.97	54775.56
532.14	54726.41
532.31	54944.08
532.48	54667.89
532.65	55037.70
532.82	54808.32
532.99	55304.52
533.16	55063.44
533.33	55222.60
533.50	55140.68
533.67	55206.22
533.84	54981.52
534.01	55285.79
534.18	55423.89
534.35	55597.09
534.52	55290.48
534.69	55229.62
534.86	55636.87
535.03	55416.86
535.20	55398.14
535.37	55522.19
535.54	55480.06
535.71	55529.21
535.88	55559.64
536.05	55873.27
536.22	56065.19
536.38	55634.53
536.55	55969.23
536.72	55896.67
536.89	55859.23
537.06	55845.18
537.23	56261.80
537.40	56002.00
537.57	56055.83
537.74	55936.46
537.91	56222.01
538.08	55938.80
538.25	56116.68
538.42	56112.00
538.59	56481.81
538.75	56289.88
538.92	56090.94
539.09	56809.48
539.26	56413.93
539.43	56367.12
539.60	56575.43
539.77	56451.38
539.94	56633.94
540.11	56605.86
540.28	56533.30
540.44	56893.74
540.61	56718.20
540.78	56949.92
540.95	56837.57
541.12	56779.06
541.29	56587.13
541.46	56818.84
541.62	56561.39
541.79	56839.91
541.96	56853.95
542.13	56788.42
542.30	56774.37
542.47	57116.09
542.63	57209.71
542.80	57200.35
542.97	57279.93
543.14	57464.83
543.31	57411.00
543.48	57195.67
543.64	57516.32
543.81	57563.14
543.98	57481.22
544.15	57556.11
544.32	57661.44
544.48	57748.04
544.65	57572.50
544.82	57616.97
544.99	57464.83
545.16	57832.30
545.32	57860.38
545.49	57827.62
545.66	57975.07
545.83	57911.88
546.00	57848.68
546.16	57951.66
546.33	57687.18
546.50	57792.51
546.67	58108.48
546.83	57956.35
547.00	58028.90
547.17	58061.67
547.34	58120.18
547.50	58113.16
547.67	58391.68
547.84	58319.13
548.00	58403.39
548.17	58630.42
548.34	58485.31
548.51	58387.00
548.67	58415.09
548.84	58370.62
549.01	58298.06
549.18	58408.07
549.34	58269.98
549.51	58506.37
549.68	58621.06
549.84	58628.08
550.01	58623.40
550.18	58391.68
550.34	58649.14
550.51	58632.76
550.68	58702.98
550.84	58457.22
551.01	59032.99
551.18	58876.18
551.34	58754.47
551.51	58841.07
551.68	58712.34
551.84	58885.54
552.01	58939.37
552.18	58962.78
552.34	58777.87
552.51	58969.80
552.68	58852.77
552.84	58719.36
553.01	59025.97
553.18	58986.18
553.34	59018.95
553.51	58857.45
553.67	59229.60
553.84	59461.31
554.01	59138.32
554.17	59105.55
554.34	59262.36
554.51	59086.82
554.67	59477.69
554.84	59238.96
555.00	59274.07
555.17	59269.39
555.33	59234.28
555.50	59238.96
555.67	59428.54
555.83	59355.99
556.00	59313.86
556.16	59587.70
556.33	59585.36
556.50	59564.29
556.66	59611.10
556.83	59213.21
556.99	59449.61
557.16	59760.90
557.32	59693.02
557.49	59898.99
557.65	59489.40
557.82	59498.76
557.98	59615.79
558.15	59688.34
558.32	59814.73
558.48	59503.44
558.65	59660.26
558.81	59683.66
558.98	59758.56
559.14	59952.82
559.31	59870.90
559.47	59906.01
559.64	59990.27
559.80	59845.16
559.97	60041.76
560.13	59945.80
560.30	59936.44
560.46	59994.95
560.63	60081.55
560.79	60107.30
560.96	60088.57
561.12	60126.02
561.29	59943.46
561.45	60203.26
561.61	59943.46
561.78	60142.41
561.94	60090.91
562.11	60048.78
562.27	60083.89
562.44	60257.09
562.60	60404.55
562.77	60306.24
562.93	60065.17
563.10	60404.55
563.26	60126.02
563.42	60416.25
563.59	60334.33
563.75	60282.84
563.92	60287.52
564.08	60081.55
564.24	60430.29
564.41	60207.94
564.57	60252.41
564.74	60303.90
564.90	60495.83
565.07	60322.63
565.23	60432.63
565.39	60353.05
565.56	60355.39
565.72	60369.44
565.88	60364.76
566.05	60392.84
566.21	60622.22
566.38	60507.53
566.54	60395.18
566.70	60460.72
566.87	60381.14
567.03	60463.06
567.19	60652.64
567.36	60722.86
567.52	60456.04
567.68	60790.73
567.85	60715.84
568.01	60502.85
568.17	60580.09
568.34	60650.30
568.50	60498.17
568.66	60608.17
568.83	60472.42
568.99	60507.53
569.15	60360.08
569.32	60514.55
569.48	60673.71
569.64	60762.65
569.81	60722.86
569.97	60477.10
570.13	60566.04
570.30	60507.53
570.46	60692.43
570.62	60800.10
570.78	60673.71
570.95	60783.71
571.11	60786.05
571.27	60603.49
571.43	60699.45
571.60	61048.19
571.76	60912.44
571.92	60739.24
572.09	60750.94
572.25	60933.51
572.41	60757.97
572.57	60516.89
572.74	60959.25
572.90	60917.12
573.06	60795.42
573.22	60739.24
573.38	60877.33
573.55	60762.65
573.71	60999.04
573.87	60942.87
574.03	60767.33
574.20	60816.48
574.36	60921.80
574.52	60795.42
574.68	60664.35
574.84	61083.30
575.01	60926.49
575.17	60774.35
575.33	61118.41
575.49	60844.57
575.65	60963.93
575.82	60970.96
575.98	61036.49
576.14	61223.73
576.30	61062.24
576.46	60940.53
576.62	60832.86
576.79	60924.14
576.95	60725.20
577.11	61087.98
577.27	61073.94
577.43	61160.54
577.59	60999.04
577.75	61024.79
577.92	60750.94
578.08	61085.64
578.24	61127.77
578.40	61130.11
578.56	61183.94
578.72	60999.04
578.88	61151.18
579.04	61148.84
579.21	61282.25
579.37	61275.22
579.53	61315.01
579.69	60921.80
579.85	61162.88
580.01	61172.24
580.17	61050.53
580.33	61181.60
580.49	61104.37
580.65	61076.28
580.82	61078.62
580.98	61055.21
581.14	61118.41
581.30	61226.07
581.46	61078.62
581.62	61162.88
581.78	61148.84
581.94	61226.07
582.10	61045.85
582.26	61151.18
582.42	61193.31
582.58	61333.74
582.74	61132.45
582.90	61193.31
583.06	61106.71
583.22	60992.02
583.38	61113.73
583.54	61319.70
583.70	61197.99
583.86	61298.63
584.02	61132.45
584.18	61389.91
584.34	61251.82
584.50	61155.86
584.66	61003.72
584.82	60898.40
584.98	61338.42
585.14	61319.70
585.30	61057.56
585.46	61216.71
585.62	61214.37
585.78	61490.55
585.94	61050.53
586.10	61209.69
586.26	61286.93
586.42	61460.13
586.58	61361.82
586.74	61226.07
586.90	61326.72
587.06	61268.20
587.22	61457.79
587.38	61371.19
587.54	61523.32
587.70	61315.01
587.86	61174.58
588.02	61319.70
588.18	61249.48
588.34	61312.67
588.49	61385.23
588.65	61190.97
588.81	61265.86
588.97	61282.25
589.13	61418.00
589.29	61399.27
589.45	61375.87
589.61	61403.95
589.77	61783.12
589.93	61731.63
590.08	61483.53
590.24	61724.61
590.40	61443.74
590.56	61731.63
590.72	61740.99
590.88	61609.92
591.04	61516.30
591.20	61815.89
591.35	61572.47
591.51	61762.06
591.67	61518.64
591.83	61549.07
591.99	61539.71
592.15	61635.67
592.31	61724.61
592.46	61731.63
592.62	61558.43
592.78	61755.03
592.94	61476.51
593.10	61560.77
593.26	61743.33
593.41	61663.75
593.57	61680.14
593.73	61668.44
593.89	61965.68
594.05	61858.02
594.20	61733.97
594.36	61649.71
594.52	61577.15
594.68	61605.24
594.84	61680.14
594.99	61614.60
595.15	61654.39
595.31	61661.41
595.47	61574.81
595.62	61783.12
595.78	61633.33
595.94	61736.31
596.10	61946.96
596.25	61769.08
596.41	61811.21
596.57	61598.22
596.73	61890.79
596.88	61614.60
597.04	61743.33
597.20	61949.30
597.36	61869.72
597.51	61853.34
597.67	61703.54
597.83	61748.01
597.99	61790.14
598.14	61904.83
598.30	61939.94
598.46	61879.08
598.61	61801.85
598.77	61755.03
598.93	61953.98
599.09	61881.42
599.24	62117.82
599.40	61996.11
599.56	62010.15
599.71	61881.42
599.87	62314.42
600.03	61935.26
600.18	61956.32
600.34	61820.57
600.50	62021.86
600.65	61853.34
600.81	61989.09
600.97	62066.33
601.12	61874.40
601.28	61932.92
601.44	61829.93
601.59	62110.80
601.75	61914.19
601.91	62017.17
602.06	62080.37
602.22	62117.82
602.37	61965.68
602.53	61965.68
602.69	61939.94
602.84	61902.49
603.00	61785.46
603.16	61989.09
603.31	61900.15
603.47	62000.79
603.62	61918.87
603.78	62185.69
603.94	62010.15
604.09	62094.41
604.25	62007.81
604.40	61846.32
604.56	61970.36
604.71	62227.82
604.87	61946.96
605.03	62012.49
605.18	62005.47
605.34	61855.68
605.49	61888.45
605.65	62049.94
605.80	61975.05
605.96	62089.73
606.12	61951.64
606.27	61968.02
606.43	61888.45
606.58	62195.06
606.74	61881.42
606.89	62026.54
607.05	61965.68
607.20	62178.67
607.36	61792.48
607.51	61888.45
607.67	61858.02
607.82	61918.87
607.98	61851.00
608.13	61879.08
608.29	61783.12
608.44	61874.40
608.60	61783.12
608.75	61858.02
608.91	61638.01
609.06	61790.14
609.22	62033.56
609.37	61703.54
609.53	62071.01
609.68	62005.47
609.84	61790.14
609.99	61778.44
610.15	62054.62
610.30	61867.38
610.46	61759.72
610.61	61696.52
610.76	61799.50
610.92	61851.00
611.07	61740.99
611.23	61851.00
611.38	61806.53
611.54	61755.03
611.69	61993.77
611.84	61963.34
612.00	61879.08
612.15	61574.81
612.31	61801.85
612.46	61661.41
612.62	61804.19
612.77	61652.05
612.92	61733.97
613.08	61684.82
613.23	61666.09
613.39	61684.82
613.54	61565.45
613.69	61516.30
613.85	61701.20
614.00	61743.33
614.15	61743.33
614.31	61567.79
614.46	61668.44
614.62	61586.52
614.77	61556.09
614.92	61488.21
615.08	61726.95
615.23	61366.51
615.38	61691.84
615.54	61329.06
615.69	61645.03
615.84	61652.05
616.00	61361.82
616.15	61572.47
616.30	61813.55
616.46	61380.55
616.61	61481.19
616.76	61619.28
616.92	61296.29
617.07	61434.38
617.22	61286.93
617.37	61340.76
617.53	61682.48
617.68	61453.11
617.83	61422.68
617.99	61565.45
618.14	61450.77
618.29	61680.14
618.45	61109.05
618.60	61324.38
618.75	61212.03
618.90	61336.08
619.06	61488.21
619.21	61284.59
619.36	61535.02
619.51	61387.57
619.67	61368.85
619.82	61237.78
619.97	61378.21
620.12	61333.74
620.28	61200.33
620.43	61312.67
620.58	61317.35
620.73	61027.13
620.89	61167.56
621.04	61354.80
621.19	61359.48
621.34	61190.97
621.49	61118.41
621.65	61155.86
621.80	61207.35
621.95	60940.53
622.10	61123.09
622.25	61228.41
622.41	61043.51
622.56	61008.40
622.71	61219.05
622.86	60814.14
623.01	60989.68
623.16	60884.36
623.32	61017.77
623.47	61010.74
623.62	61240.12
623.77	61090.32
623.92	61165.22
624.07	61055.21
624.23	61109.05
624.38	60938.19
624.53	60767.33
624.68	60832.86
624.83	60879.67
624.98	61176.92
625.13	60802.44
625.29	60891.38
625.44	60954.57
625.59	60996.70
625.74	60786.05
625.89	60596.47
626.04	60629.24
626.19	60685.41
626.34	60781.37
626.49	60580.09
626.65	60423.27
626.80	60495.83
626.95	60652.64
627.10	60493.49
627.25	60596.47
627.40	60343.69
627.55	60636.26
627.70	60594.13
627.85	60683.07
628.00	60479.44
628.15	60514.55
628.30	60406.89
628.45	60547.32
628.60	60427.95
628.76	60568.38
628.91	60612.85
629.06	60441.99
629.21	60563.70
629.36	60526.25
629.51	60210.28
629.66	60348.37
629.81	60310.92
629.96	60322.63
630.11	60285.18
630.26	60128.36
630.41	60509.87
630.56	60334.33
630.71	60502.85
630.86	60292.20
631.01	60299.22
631.16	60460.72
631.31	60278.16
631.46	59983.25
631.61	60243.05
631.76	60331.99
631.91	60292.20
632.06	60250.07
632.21	60322.63
632.36	60093.25
632.51	60020.70
632.66	60154.11
632.81	59831.11
632.96	60221.98
633.10	60067.51
633.25	60006.65
633.40	60011.34
633.55	60072.19
633.70	59990.27
633.85	60009.00
634.00	59793.67
634.15	59861.54
634.30	59835.80
634.45	60130.70
634.60	60172.83
634.75	60317.95
634.90	59756.22
635.05	59756.22
635.19	59744.51
635.34	59978.57
635.49	59980.91
635.64	59924.74
635.79	59870.90
635.94	59875.58
636.09	59810.05
636.24	59711.75
636.39	59711.75
636.53	59819.41
636.68	59618.13
636.83	59728.13
636.98	59910.69
637.13	59580.68
637.28	59564.29
637.43	59676.64
637.57	59576.00
637.72	59613.44
637.87	59522.16
638.02	59704.73
638.17	59751.54
638.32	59707.07
638.46	59519.82
638.61	59526.84
638.76	59517.48
638.91	59531.53
639.06	59327.90
639.20	59332.58
639.35	59309.18
639.50	59283.43
639.65	59433.22
639.80	59433.22
639.94	59260.02
640.09	59554.93
640.24	59327.90
640.39	59290.45
640.54	59269.39
640.68	59398.12
640.83	59344.28
640.98	59475.35
641.13	59187.47
641.27	59517.48
641.42	59215.55
641.57	59166.40
641.72	59337.26
641.86	59143.00
642.01	58848.09
642.16	59133.63
642.31	59011.93
642.45	59320.88
642.60	59018.95
642.75	59215.55
642.90	59274.07
643.04	59285.77
643.19	59131.29
643.34	58810.64
643.48	59175.76
643.63	59140.66
643.78	59150.02
643.93	59121.93
644.07	59068.10
644.22	59004.91
644.37	58960.44
644.51	58892.56
644.66	59072.78
644.81	58937.03
644.95	59072.78
645.10	58979.16
645.25	58822.34
645.39	58972.14
645.54	58763.83
645.69	58822.34
645.83	59004.91
645.98	58915.96
646.13	58656.17
646.27	58721.70
646.42	58824.68
646.57	58679.57
646.71	58660.85
646.86	58702.98
647.00	58710.00
647.15	58827.02
647.30	58702.98
647.44	58754.47
647.59	58925.33
647.74	58724.04
647.88	58702.98
648.03	58817.66
648.17	58717.02
648.32	58394.03
648.47	58398.71
648.61	58532.12
648.76	58578.93
648.90	58384.66
649.05	58569.57
649.20	58702.98
649.34	58562.54
649.49	58464.24
649.63	58578.93
649.78	58754.47
649.92	58660.85
650.07	58384.66
650.21	58286.36
650.36	58506.37
650.51	58323.81
650.65	58649.14
650.80	58468.92
650.94	58436.16
651.09	58021.88
651.23	58007.84
651.38	58234.87
651.52	58115.50
651.67	58253.59
651.81	58103.80
651.96	58246.57
652.10	58202.10
652.25	58204.44
652.39	58190.40
652.54	58005.50
652.68	57895.49
652.83	58024.22
652.97	57982.09
653.12	58131.89
653.26	58113.16
653.41	58124.86
653.55	58101.46
653.70	57961.03
653.84	58169.33
653.99	57822.93
654.13	57902.51
654.27	57904.85
654.42	57811.23
654.56	57804.21
654.71	57935.28
654.85	58136.57
655.00	57946.98
655.14	57916.56
655.29	57836.98
655.43	57935.28
655.57	57790.17
655.72	57652.08
655.86	57801.87
656.01	57518.67
656.15	57719.95
656.30	57801.87
656.44	57801.87
656.58	57797.19
656.73	58019.54
656.87	57766.76
657.01	57825.28
657.16	57755.06
657.30	57663.78
657.45	57666.12
657.59	57537.39
657.73	57338.44
657.88	57364.19
658.02	57326.74
658.16	57551.43
658.31	57315.04
658.45	57359.51
658.60	57546.75
658.74	57483.56
658.88	57399.30
659.03	57148.86
659.17	57439.09
659.31	57467.17
659.46	57179.29
659.60	57062.26
659.74	57172.27
659.89	57223.76
660.03	57078.64
660.17	57118.43
660.32	56938.21
660.46	56931.19
660.60	56893.74
660.74	56945.23
660.89	57104.39
661.03	56645.65
661.17	56772.03
661.32	56537.98
661.46	56790.76
661.60	56875.02
661.74	56919.49
661.89	56507.55
662.03	56795.44
662.17	56226.69
662.31	56617.56
662.46	56816.50
662.60	56533.30
662.74	56451.38
662.88	56530.96
663.03	56418.61
663.17	56229.03
663.31	55978.59
663.45	56360.10
663.60	56020.72
663.74	55994.98
663.88	55997.32
664.02	56233.71
664.17	56339.04
664.31	55812.41
664.45	55877.95
664.59	56095.62
664.73	56020.72
664.88	55924.76
665.02	55437.93
665.16	55426.23
665.30	55554.96
665.44	55583.04
665.59	55592.40
665.73	55561.98
665.87	55468.36
666.01	55639.22
666.15	55484.74
666.29	55405.16
666.44	55449.63
666.58	55316.22
666.72	55100.89
666.86	55246.00
667.00	55320.90
667.14	54817.69
667.28	55098.55
667.43	55037.70
667.57	54976.84
667.71	54674.91
667.85	54674.91
667.99	54728.75
668.13	54869.18
668.27	54981.52
668.41	54866.84
668.56	54583.63
668.70	54595.34
668.84	54705.34
668.98	54525.12
669.12	54459.58
669.26	54721.72
669.40	54553.21
669.54	54475.97
669.68	54124.89
669.82	54279.36
669.96	54422.14
670.10	54174.04
670.25	54457.24
670.39	54230.21
670.53	54157.66
670.67	54047.65
670.81	54258.30
670.95	54021.90
671.09	53972.75
671.23	53794.87
671.37	53773.81
671.51	53883.81
671.65	53825.30
671.79	53659.12
671.93	53638.06
672.07	53478.90
672.21	53277.61
672.35	53439.11
672.49	53111.44
672.63	53064.63
672.77	53059.94
672.91	53359.53
673.05	52666.73
673.19	52767.38
673.33	52907.81
673.47	52617.58
673.61	52790.78
673.75	52673.76
673.89	52353.10
674.03	52500.56
674.17	52526.30
674.31	52109.69
674.45	52067.56
674.59	52233.74
674.73	52126.07
674.87	51845.21
675.01	51798.40
675.15	51824.14
675.29	51913.08
675.43	51732.86
675.56	51618.17
675.70	51215.60
675.84	51524.55
675.98	50136.62
676.12	51416.89
676.26	51274.12
676.40	51154.75
676.54	51089.21
676.68	51136.02
676.82	50363.65
676.96	50878.57
677.10	50707.71
677.23	50188.11
677.37	50637.49
677.51	50183.43
677.65	49958.73
677.79	49439.14
677.93	49134.87
678.07	49523.40
678.21	49633.40
678.34	49511.69
678.48	49052.95
678.62	48751.02
678.76	48917.20
678.90	48760.38
679.04	48715.91
679.18	48896.13
679.31	48474.84
679.45	48423.34
679.59	48395.26
679.73	48624.63
679.87	48011.41
680.00	47515.22
680.14	47517.56
680.28	47641.60
680.42	47395.85
680.56	47297.55
680.70	47519.90
680.83	47613.52
680.97	47098.60
681.11	47288.18
681.25	47311.59
681.39	46962.85
681.52	46916.04
681.66	46843.48
681.80	46164.73
681.94	46270.05
682.07	46525.17
682.21	45614.70
682.35	45757.47
682.49	45572.57
682.62	45666.19
682.76	45783.22
682.90	45972.80
683.04	45385.33
683.17	45221.49
683.31	45202.77
683.45	45162.98
683.59	44992.12
683.72	44617.63
683.86	44374.22
684.00	45048.29
684.13	44432.73
684.27	44091.01
684.41	43929.51
684.55	44011.43
684.68	43491.83
684.82	43842.92
684.96	43194.59
685.09	43147.78
685.23	43206.29
685.37	43012.02
685.50	42939.47
685.64	42625.84
685.78	43182.88
685.91	42682.01
686.05	42288.80
686.19	41841.76
686.32	41909.63
686.46	41186.41
686.60	41441.53
686.73	41038.95
686.87	41514.08
687.01	41439.18
687.14	41010.87
687.28	40774.47
687.42	40505.31
687.55	40456.16
687.69	40957.03
687.82	40355.52
687.96	39964.65
688.10	40418.71
688.23	40657.45
688.37	39770.38
688.50	39452.07
688.64	39295.25
688.78	39267.17
688.91	39077.58
689.05	39379.51
689.18	39047.16
689.32	37989.24
689.46	38003.28
689.59	38064.13
689.73	37947.11
689.86	38085.20
690.00	37848.80
690.13	37818.38
690.27	37769.22
690.41	37474.32
690.54	37010.89
690.68	36875.14
690.81	36760.45
690.95	36631.72
691.08	36692.58
691.22	36659.81
691.35	36453.84
691.49	36486.61
691.62	36376.61
691.76	36201.07
691.89	36177.66
692.03	35894.46
692.16	35557.42
692.30	35498.91
692.43	35517.63
692.57	35267.19
692.70	34836.53
692.84	34822.49
692.97	34897.39
693.11	34820.15
693.24	34670.36
693.38	34389.49
693.51	34113.31
693.65	34213.95
693.78	33951.81
693.92	33977.56
694.05	33839.47
694.19	33579.67
694.32	32926.66
694.45	33350.29
694.59	33055.39
694.72	32947.72
694.86	32690.26
694.99	32142.58
695.13	32488.98
695.26	32163.64
695.39	31931.93
695.53	31861.71
695.66	32027.89
695.80	32037.25
695.93	31501.27
696.07	30771.02
696.20	31271.90
696.33	30731.23
696.47	31016.78
696.60	31269.56
696.73	30609.53
696.87	30918.48
697.00	30415.26
697.14	30504.20
697.27	30403.56
697.40	30230.36
697.54	29876.94
697.67	29909.71
697.80	29591.39
697.94	29710.76
698.07	29317.55
698.21	29109.24
698.34	29053.07
698.47	29184.14
698.61	28376.66
698.74	29050.73
698.87	28610.71
699.01	28599.01
699.14	28135.58
699.27	28355.59
699.40	28158.99
699.54	28411.76
699.67	28109.83
699.80	27740.03
699.94	27971.74
700.07	27658.11
700.20	27175.96
700.34	27049.57
700.47	27234.47
700.60	26883.39
700.73	26527.63
700.87	26291.24
701.00	26377.84
701.13	26029.10
701.26	26040.80
701.40	26396.56
701.53	26066.55
701.66	26150.81
701.79	25427.58
701.93	25191.19
702.06	25053.09
702.19	24926.71
702.32	25280.13
702.46	25249.70
702.59	24816.70
702.72	24865.85
702.85	24912.66
702.99	24692.65
703.12	24474.98
703.25	24320.51
703.38	23763.46
703.51	23784.52
703.65	23936.66
703.78	23800.91
703.91	23623.03
704.04	23538.77
704.17	23367.91
704.31	23442.81
704.44	23194.71
704.57	22934.91
704.70	23126.83
704.83	22822.56
704.96	22640.00
705.10	22408.29
705.23	22298.28
>>>>>End Processed Spectral Data<<<<<
