SpectraSuite Data File
++++++++++++++++++++++++++++++++++++
Date: Fri Oct 25 11:23:09 EDT 2013
User: price-jones
Dark Spectrum Present: No
Reference Spectrum Present: No
Number of Sampled Component Spectra: 1
Spectrometers: USB2+H05261
Integration Time (usec): 100000 (USB2+H05261)
Spectra Averaged: 1 (USB2+H05261)
Boxcar Smoothing: 0 (USB2+H05261)
Correct for Electrical Dark: No (USB2+H05261)
Strobe/Lamp Enabled: No (USB2+H05261)
Correct for Detector Non-linearity: No (USB2+H05261)
Correct for Stray Light: No (USB2+H05261)
Number of Pixels in Processed Spectrum: 2048
>>>>>Begin Processed Spectral Data<<<<<
365.73	182.56
365.92	182.56
366.12	182.56
366.32	161.50
366.52	114.69
366.72	147.45
366.91	84.26
367.11	105.32
367.31	84.26
367.51	149.79
367.70	110.01
367.90	147.45
368.10	110.01
368.30	170.86
368.49	187.24
368.69	156.82
368.89	121.71
369.09	142.77
369.28	112.35
369.48	145.11
369.68	187.24
369.87	222.35
370.07	208.31
370.27	229.37
370.47	315.97
370.66	568.75
370.86	627.26
371.06	716.20
371.25	662.37
371.45	589.82
371.65	664.71
371.84	627.26
372.04	730.25
372.24	734.93
372.44	765.36
372.63	692.80
372.83	753.65
373.03	709.18
373.22	688.12
373.42	660.03
373.62	737.27
373.81	702.16
374.01	798.12
374.21	798.12
374.40	725.57
374.60	760.67
374.79	800.46
374.99	774.72
375.19	877.70
375.38	863.66
375.58	753.65
375.78	866.00
375.97	880.04
376.17	964.30
376.37	840.25
376.56	786.42
376.76	908.13
376.95	891.74
377.15	915.15
377.35	964.30
377.54	901.11
377.74	821.53
377.93	898.77
378.13	910.47
378.33	898.77
378.52	950.26
378.72	961.96
378.91	877.70
379.11	912.81
379.31	992.39
379.50	980.68
379.70	971.32
379.89	1006.43
380.09	880.04
380.28	1036.86
380.48	1018.13
380.68	1001.75
380.87	943.24
381.07	1001.75
381.26	950.26
381.46	980.68
381.65	985.37
381.85	1036.86
382.04	1104.73
382.24	1090.69
382.43	1088.35
382.63	1076.65
382.83	1022.81
383.02	1060.26
383.22	1062.60
383.41	1137.50
383.61	1181.97
383.80	1139.84
384.00	1146.86
384.19	1149.20
384.39	1153.88
384.58	1186.65
384.78	1214.74
384.97	1170.27
385.17	1170.27
385.36	1160.91
385.56	1167.93
385.75	1172.61
385.95	1193.67
386.14	1231.12
386.34	1193.67
386.53	1174.95
386.72	1233.46
386.92	1196.01
387.11	1287.29
387.31	1289.64
387.50	1306.02
387.70	1240.48
387.89	1217.08
388.09	1280.27
388.28	1287.29
388.48	1277.93
388.67	1343.47
388.86	1291.98
389.06	1376.24
389.25	1341.13
389.45	1401.98
389.64	1430.07
389.84	1376.24
390.03	1434.75
390.22	1479.22
390.42	1416.02
390.61	1380.92
390.81	1362.19
391.00	1397.30
391.19	1467.52
391.39	1516.67
391.58	1376.24
391.78	1519.01
391.97	1533.05
392.16	1453.47
392.36	1535.39
392.55	1409.00
392.75	1523.69
392.94	1533.05
393.13	1495.60
393.33	1589.22
393.52	1526.03
393.71	1568.16
393.91	1558.80
394.10	1645.40
394.29	1600.93
394.49	1657.10
394.68	1678.16
394.88	1575.18
395.07	1633.69
395.26	1708.59
395.46	1703.91
395.65	1764.76
395.84	1710.93
396.04	1816.26
396.23	1703.91
396.42	1743.70
396.62	1902.86
396.81	1795.19
397.00	1797.53
397.19	1802.21
397.39	1881.79
397.58	1893.49
397.77	1877.11
397.97	1748.38
398.16	1919.24
398.35	1863.07
398.55	1849.02
398.74	1834.98
398.93	1895.83
399.12	1944.99
399.32	2019.88
399.51	1940.30
399.70	2026.90
399.90	1984.77
400.09	2012.86
400.28	2012.86
400.47	2040.95
400.67	2181.38
400.86	2036.27
401.05	2064.35
401.24	2101.80
401.44	2167.34
401.63	2279.68
401.82	2186.06
402.01	2118.18
402.21	2174.36
402.40	2186.06
402.59	2263.30
402.78	2289.04
402.97	2303.09
403.17	2375.64
403.36	2286.70
403.55	2209.47
403.74	2328.83
403.93	2392.03
404.13	2403.73
404.32	2476.29
404.51	2342.88
404.70	2436.50
404.89	2473.95
405.09	2525.44
405.28	2544.16
405.47	2462.24
405.66	2499.69
405.85	2518.42
406.05	2473.95
406.24	2614.38
406.43	2530.12
406.62	2642.46
406.81	2595.65
407.00	2567.57
407.20	2719.70
407.39	2672.89
407.58	2689.28
407.77	2686.94
407.96	2855.45
408.15	2836.73
408.34	2836.73
408.54	2810.98
408.73	2799.28
408.92	2836.73
409.11	2916.31
409.30	2942.05
409.49	2916.31
409.68	3108.23
409.87	2986.52
410.07	2998.23
410.26	3173.77
410.45	3103.55
410.64	3138.66
410.83	3136.32
411.02	3084.83
411.21	3241.64
411.40	3145.68
411.59	3061.42
411.78	3211.22
411.98	3246.32
412.17	3384.41
412.36	3290.79
412.55	3480.38
412.74	3520.17
412.93	3375.05
413.12	3449.95
413.31	3555.27
413.50	3475.70
413.69	3555.27
413.88	3737.84
414.07	3714.43
414.26	3730.81
414.45	3688.68
414.64	3744.86
414.83	3887.63
415.02	3861.88
415.22	3770.60
415.41	3932.10
415.60	3932.10
415.79	3918.06
415.98	3894.65
416.17	3971.89
416.36	3971.89
416.55	3892.31
416.74	3955.51
416.93	4109.98
417.12	4121.68
417.31	4334.67
417.50	4287.86
417.69	4308.93
417.88	4276.16
418.07	4351.06
418.26	4318.29
418.45	4217.65
418.64	4461.06
418.83	4580.43
419.02	4411.91
419.21	4447.02
419.39	4566.39
419.58	4437.66
419.77	4550.00
419.96	4601.49
420.15	4582.77
420.34	4608.51
420.53	4678.73
420.72	4685.75
420.91	4706.82
421.10	4781.71
421.29	4826.18
421.48	4713.84
421.67	4856.61
421.86	4786.40
422.05	4868.31
422.24	4856.61
422.43	4936.19
422.61	4875.34
422.80	5128.11
422.99	4884.70
423.18	4978.32
423.37	4980.66
423.56	5069.60
423.75	4901.08
423.94	4887.04
424.13	4732.56
424.32	4805.12
424.50	4945.55
424.69	5132.79
424.88	5004.07
425.07	4990.02
425.26	4854.27
425.45	5018.11
425.64	5067.26
425.83	5018.11
426.01	5107.05
426.20	5170.24
426.39	5081.30
426.58	4945.55
426.77	5078.96
426.96	5125.77
427.15	5081.30
427.33	5179.61
427.52	5221.74
427.71	5231.10
427.90	5296.63
428.09	5371.53
428.28	5385.57
428.46	5460.47
428.65	5324.72
428.84	5605.58
429.03	5556.43
429.22	5364.51
429.40	5462.81
429.59	5659.42
429.78	5341.10
429.97	5233.44
430.16	5467.49
430.34	5689.84
430.53	5710.91
430.72	5596.22
430.91	5593.88
431.10	5668.78
431.28	5806.87
431.47	5900.49
431.66	6038.58
431.85	5699.20
432.03	5923.90
432.22	6092.41
432.41	6209.44
432.60	5928.58
432.79	5898.15
432.97	6197.74
433.16	6118.16
433.35	6136.88
433.54	6155.61
433.72	6108.80
433.91	6052.63
434.10	6087.73
434.28	6155.61
434.47	6249.23
434.66	6289.02
434.85	6303.06
435.03	6403.71
435.22	6375.62
435.41	6485.62
435.59	6394.34
435.78	6511.37
435.97	6651.80
436.16	6572.22
436.34	6424.77
436.53	6771.17
436.72	6656.48
436.90	6497.33
437.09	6586.27
437.28	6565.20
437.46	6705.63
437.65	6801.60
437.84	6782.87
438.02	6787.55
438.21	7063.74
438.40	6626.06
438.58	7016.93
438.77	7143.32
438.96	6932.67
439.14	7131.61
439.33	7150.34
439.52	7124.59
439.70	7370.35
439.89	7325.88
440.08	7407.80
440.26	7389.07
440.45	7398.43
440.63	7545.89
440.82	7531.84
441.01	7672.28
441.19	7747.17
441.38	7763.56
441.57	7894.63
441.75	7815.05
441.94	8088.89
442.12	8067.83
442.31	8215.28
442.50	8128.68
442.68	7873.56
442.87	7969.52
443.05	8299.54
443.24	8435.29
443.43	8255.07
443.61	8245.71
443.80	8446.99
443.98	8126.34
444.17	7948.46
444.35	8252.73
444.54	8554.66
444.73	8587.43
444.91	8402.52
445.10	8451.67
445.28	8425.93
445.47	8376.78
445.65	8538.27
445.84	8484.44
446.02	8496.14
446.21	8521.89
446.39	8418.91
446.58	8711.47
446.77	8711.47
446.95	8271.45
447.14	8716.16
447.32	8681.05
447.51	8561.68
447.69	8629.56
447.88	8582.74
448.06	8383.80
448.25	8608.49
448.43	8610.83
448.62	8671.68
448.80	8596.79
448.99	8786.37
449.17	8751.26
449.36	8929.14
449.54	8973.61
449.73	8982.98
449.91	9067.24
450.10	9036.81
450.28	9261.50
450.46	9158.52
450.65	9163.20
450.83	9123.41
451.02	9221.71
451.20	9287.25
451.39	9387.89
451.57	9338.74
451.76	8894.04
451.94	9291.93
452.13	9486.19
452.31	9357.46
452.49	9324.69
452.68	9568.11
452.86	9530.66
453.05	9460.45
453.23	9577.47
453.42	9607.90
453.60	9334.06
453.78	9628.96
453.97	9540.02
454.15	9701.52
454.34	9689.82
454.52	9989.41
454.70	9811.53
454.89	9930.89
455.07	9802.16
455.26	10024.51
455.44	10010.47
455.62	9914.51
455.81	10057.28
455.99	9933.23
456.17	10258.57
456.36	9998.77
456.54	10281.97
456.73	10637.73
456.91	10579.22
457.09	10611.99
457.28	10436.45
457.46	10429.43
457.64	10588.58
457.83	10595.61
458.01	10298.36
458.19	10663.48
458.38	10677.52
458.56	10731.36
458.74	10778.17
458.93	10644.76
459.11	10789.87
459.29	10567.52
459.48	10899.87
459.66	11119.89
459.84	10920.94
460.03	11169.04
460.21	11208.83
460.39	11185.42
460.57	11199.46
460.76	11257.98
460.94	11169.04
461.12	11447.56
461.31	11337.56
461.49	11339.90
461.67	11239.25
461.85	11541.18
462.04	11524.80
462.22	11789.28
462.40	11798.64
462.59	11527.14
462.77	11524.80
462.95	11744.81
463.13	11606.72
463.32	11920.35
463.50	11831.41
463.68	11908.65
463.86	11796.30
464.05	11730.76
464.23	12044.40
464.41	11920.35
464.59	11793.96
464.78	12318.24
464.96	12257.39
465.14	12116.95
465.32	12046.74
465.50	12203.55
465.69	12287.81
465.87	12292.49
466.05	12453.99
466.23	12713.79
466.41	12233.98
466.60	12748.90
466.78	12299.52
466.96	12453.99
467.14	12685.70
467.32	12507.82
467.51	12779.32
467.69	12318.24
467.87	12400.16
468.05	12713.79
468.23	12444.63
468.41	12683.36
468.60	12786.35
468.78	12947.84
468.96	12947.84
469.14	13067.21
469.32	13233.39
469.50	12861.24
469.69	12940.82
469.87	13193.60
470.05	13261.48
470.23	13160.83
470.41	13249.77
470.59	13378.50
470.77	13378.50
470.95	13123.38
471.14	13664.05
471.32	13359.78
471.50	13844.27
471.68	13614.90
471.86	13724.90
472.04	13991.72
472.22	14176.62
472.40	13757.67
472.58	14001.08
472.77	14071.30
472.95	14300.67
473.13	14750.06
473.31	14258.54
473.49	14263.22
473.67	14066.62
473.85	14464.51
474.03	14703.25
474.21	14815.59
474.39	15061.35
474.57	15030.92
474.75	14986.45
474.93	15028.58
475.12	15185.40
475.30	15222.84
475.48	15122.20
475.66	15515.41
475.84	15124.54
476.02	15489.67
476.20	15681.59
476.38	15726.06
476.56	16152.04
476.74	16119.27
476.92	16180.12
477.10	16107.57
477.28	16257.36
477.46	16634.19
477.64	16519.50
477.82	16666.95
478.00	16891.65
478.18	17102.29
478.36	17076.55
478.54	17226.34
478.72	17584.44
478.90	17263.79
479.08	17799.77
479.26	17816.16
479.44	18043.19
479.62	18174.26
479.80	18085.32
479.98	18272.56
480.16	18693.86
480.34	18214.05
480.52	18658.75
480.70	18583.85
480.88	18658.75
481.06	18909.19
481.24	18998.13
481.41	19393.68
481.59	19480.28
481.77	19730.72
481.95	19765.82
482.13	20002.22
482.31	20037.33
482.49	20304.15
482.67	20404.79
482.85	20673.95
483.03	20608.42
483.21	21179.51
483.39	21226.32
483.57	21109.29
483.74	21434.63
483.92	21678.04
484.10	21561.02
484.28	21907.41
484.46	21984.65
484.64	22501.91
484.82	22171.89
485.00	22773.41
485.18	22759.37
485.35	23335.14
485.53	23075.34
485.71	23005.13
485.89	23711.97
486.07	23627.71
486.25	23688.56
486.43	23674.52
486.61	23845.38
486.78	23971.77
486.96	24446.90
487.14	24933.73
487.32	24980.54
487.50	24994.58
487.68	25535.24
487.85	25633.55
488.03	25785.68
488.21	26288.90
488.39	25855.90
488.57	26651.68
488.75	26473.80
488.92	26829.56
489.10	27000.42
489.28	27199.37
489.46	27150.21
489.64	27463.85
489.81	27819.61
489.99	28016.21
490.17	28130.90
490.35	28545.17
490.53	28624.75
490.70	28315.80
490.88	28563.90
491.06	29106.90
491.24	29373.72
491.41	29179.46
491.59	29830.13
491.77	29626.50
491.95	29961.20
492.13	29860.55
492.30	30211.64
492.48	30342.70
492.66	30698.47
492.84	30565.06
493.01	31175.94
493.19	30663.36
493.37	31199.34
493.54	31318.71
493.72	31833.63
493.90	31999.80
494.08	31929.59
494.25	32573.24
494.43	32311.10
494.61	32472.59
494.79	32938.36
494.96	32870.48
495.14	33163.05
495.32	33397.10
495.49	33504.77
495.67	33574.98
495.85	33757.55
496.02	33935.43
496.20	34153.10
496.38	34293.53
496.55	34728.87
496.73	35152.51
496.91	34824.83
497.09	35545.72
497.26	35550.40
497.44	35409.96
497.62	35426.35
497.79	36252.56
497.97	35798.49
498.14	36079.36
498.32	36421.08
498.50	36505.34
498.67	36818.97
498.85	36870.46
499.03	36811.95
499.20	37525.81
499.38	37249.63
499.56	37502.40
499.73	37998.60
499.91	37628.79
500.08	37778.59
500.26	37776.25
500.44	38218.61
500.61	38649.27
500.79	37935.40
500.97	38600.12
501.14	38941.83
501.32	38916.09
501.49	38937.15
501.67	39131.42
501.84	38726.50
502.02	38796.72
502.20	39498.88
502.37	39679.10
502.55	39892.09
502.72	39629.95
502.90	40062.95
503.07	39763.36
503.25	40091.04
503.43	39768.04
503.60	40172.96
503.78	40699.58
503.95	40601.27
504.13	40774.47
504.30	40980.44
504.48	40994.48
504.65	40893.84
504.83	41694.30
505.01	41771.54
505.18	41886.23
505.36	41708.35
505.53	41780.90
505.71	42085.17
505.88	42101.56
506.06	42108.58
506.23	42373.06
506.41	42370.72
506.58	42808.40
506.76	42810.74
506.93	42972.24
507.11	42614.13
507.28	42829.46
507.46	43107.99
507.63	43519.92
507.81	43498.86
507.98	43005.00
508.16	43777.38
508.33	43842.92
508.50	44126.12
508.68	44126.12
508.85	44414.01
509.03	44294.64
509.20	44699.55
509.38	45045.95
509.55	45172.34
509.73	44486.56
509.90	44744.02
510.08	45151.27
510.25	45069.36
510.42	45303.41
510.60	45481.29
510.77	45574.91
510.95	45935.35
511.12	45235.53
511.30	45698.96
511.47	45741.09
511.64	45949.40
511.82	46347.29
511.99	46422.19
512.17	46230.26
512.34	46206.86
512.51	46721.77
512.69	47000.30
512.86	46728.80
513.04	47416.91
513.21	46873.91
513.38	47129.03
513.56	47540.96
513.73	47145.41
513.90	47643.94
514.08	47489.47
514.25	47688.42
514.43	47760.97
514.60	47608.84
514.77	47903.74
514.95	48177.59
515.12	47854.59
515.29	48020.77
515.47	47971.62
515.64	48275.89
515.81	48224.40
515.99	48865.70
516.16	49118.48
516.33	48509.94
516.51	48933.58
516.68	48846.98
516.85	48959.33
517.03	48952.30
517.20	49373.60
517.37	49153.59
517.54	49148.91
517.72	49462.54
517.89	49420.41
518.06	49645.10
518.24	49855.75
518.41	49827.66
518.58	49951.71
518.75	49633.40
518.93	49876.82
519.10	49998.52
519.27	49930.65
519.45	50349.60
519.62	50342.58
519.79	50263.00
519.96	50270.03
520.14	50422.16
520.31	50574.30
520.48	50681.96
520.65	50836.44
520.83	51014.32
521.00	50932.40
521.17	50951.12
521.34	50873.88
521.52	51386.46
521.69	51164.11
521.86	51388.80
522.03	51400.50
522.20	52095.64
522.38	51501.15
522.55	51833.50
522.72	51873.29
522.89	51681.37
523.07	52182.24
523.24	51812.44
523.41	52137.77
523.58	51770.31
523.75	52336.72
523.92	52240.76
524.10	52676.10
524.27	52502.90
524.44	52463.11
524.61	52254.80
524.78	52657.37
524.96	52350.76
525.13	52219.69
525.30	52985.05
525.47	53116.12
525.64	52783.76
525.81	52736.95
525.98	52910.15
526.16	53083.35
526.33	52912.49
526.50	53223.78
526.67	53109.10
526.84	53277.61
527.01	53174.63
527.18	53291.66
527.36	53436.77
527.53	53406.34
527.70	53464.86
527.87	53773.81
528.04	53537.41
528.21	53727.00
528.38	53872.11
528.55	53846.36
528.72	53680.19
528.89	53841.68
529.07	53764.45
529.24	53600.61
529.41	54028.93
529.58	53937.65
529.75	53832.32
529.92	53982.12
530.09	54150.63
530.26	54431.50
530.43	54454.90
530.60	54080.42
530.77	54450.22
530.94	54419.80
531.11	54274.68
531.28	54377.67
531.46	54485.33
531.63	54450.22
531.80	54616.40
531.97	54763.85
532.14	54583.63
532.31	54539.16
532.48	54850.45
532.65	54962.80
532.82	54923.01
532.99	55110.25
533.16	54958.12
533.33	55140.68
533.50	55283.45
533.67	54974.50
533.84	54955.78
534.01	55042.38
534.18	55536.23
534.35	55444.95
534.52	55126.64
534.69	55552.62
534.86	55461.33
535.03	55297.50
535.20	55444.95
535.37	55517.51
535.54	55613.47
535.71	55758.58
535.88	55711.77
536.05	55711.77
536.22	55702.41
536.38	55887.31
536.55	55728.16
536.72	56048.81
536.89	55784.33
537.06	56076.90
537.23	55999.66
537.40	55831.14
537.57	56018.38
537.74	55786.67
537.91	56158.81
538.08	56264.14
538.25	56266.48
538.42	56463.08
538.59	56420.95
538.75	56186.90
538.92	56116.68
539.09	56383.51
539.26	56395.21
539.43	56540.32
539.60	56540.32
539.77	56467.76
539.94	56769.69
540.11	56577.77
540.28	56563.73
540.44	56662.03
540.61	56889.06
540.78	56757.99
540.95	56622.24
541.12	56846.93
541.29	56769.69
541.46	56718.20
541.62	56809.48
541.79	56804.80
541.96	56570.75
542.13	56725.22
542.30	56882.04
542.47	57055.24
542.63	57359.51
542.80	57080.98
542.97	57134.82
543.14	57588.88
543.31	57485.90
543.48	57492.92
543.64	57874.43
543.81	57757.40
543.98	57563.14
544.15	57616.97
544.32	57703.57
544.48	57792.51
544.65	57879.11
544.82	57731.65
544.99	57469.51
545.16	57858.04
545.32	57780.81
545.49	58115.50
545.66	58007.84
545.83	57928.26
546.00	57909.53
546.16	58010.18
546.33	57986.77
546.50	57717.61
546.67	58082.73
546.83	57661.44
547.00	58110.82
547.17	58082.73
547.34	57928.26
547.50	58176.36
547.67	58401.05
547.84	58232.53
548.00	58157.63
548.17	58312.11
548.34	58398.71
548.51	58632.76
548.67	58471.26
548.84	58574.25
549.01	58368.28
549.18	58529.78
549.34	58335.51
549.51	58487.65
549.68	58644.46
549.84	58506.37
550.01	58759.15
550.18	58497.01
550.34	58915.96
550.51	58660.85
550.68	58728.72
550.84	58501.69
551.01	58702.98
551.18	58883.20
551.34	58574.25
551.51	58803.62
551.68	58862.13
551.84	58815.32
552.01	58635.10
552.18	59002.56
552.34	58911.28
552.51	58932.35
552.68	58616.38
552.84	58993.20
553.01	59206.19
553.18	59030.65
553.34	58969.80
553.51	59185.13
553.67	59255.34
553.84	59278.75
554.01	59398.12
554.17	59250.66
554.34	59126.61
554.51	59089.16
554.67	59384.07
554.84	59103.21
555.00	59201.51
555.17	59098.53
555.33	59409.82
555.50	59182.79
555.67	59243.64
555.83	59285.77
556.00	59463.65
556.16	59725.79
556.33	59393.43
556.50	59524.50
556.66	59648.55
556.83	59344.28
556.99	59704.73
557.16	59728.13
557.32	59594.72
557.49	59803.03
557.65	59566.63
557.82	59660.26
557.98	59505.78
558.15	59566.63
558.32	59922.40
558.48	59861.54
558.65	59800.69
558.81	59702.38
558.98	59840.48
559.14	60086.23
559.31	59730.47
559.47	60004.31
559.64	59779.62
559.80	60016.02
559.97	59978.57
560.13	59994.95
560.30	59952.82
560.46	59842.82
560.63	59948.14
560.79	59945.80
560.96	60121.34
561.12	60126.02
561.29	60158.79
561.45	60261.77
561.61	60151.77
561.78	60310.92
561.94	60058.15
562.11	60039.42
562.27	60144.75
562.44	60355.39
562.60	60217.30
562.77	60093.25
562.93	60065.17
563.10	60196.24
563.26	60058.15
563.42	60306.24
563.59	60266.45
563.75	60317.95
563.92	60233.69
564.08	60245.39
564.24	60353.05
564.41	60540.30
564.57	60378.80
564.74	60240.71
564.90	60360.08
565.07	60364.76
565.23	60301.56
565.39	60360.08
565.56	60465.40
565.72	60458.38
565.88	60498.17
566.05	60357.74
566.21	60502.85
566.38	60427.95
566.54	60521.57
566.70	60376.46
566.87	60722.86
567.03	60343.69
567.19	60823.50
567.36	60610.51
567.52	60552.00
567.68	60645.62
567.85	60549.66
568.01	60509.87
568.17	60601.15
568.34	60718.18
568.50	60381.14
568.66	60643.28
568.83	60774.35
568.99	60601.15
569.15	60673.71
569.32	60706.47
569.48	60603.49
569.64	60877.33
569.81	60533.28
569.97	60552.00
570.13	60809.46
570.30	60652.64
570.46	60568.38
570.62	60816.48
570.78	60598.81
570.95	60638.60
571.11	60814.14
571.27	60767.33
571.43	60863.29
571.60	60844.57
571.76	60970.96
571.92	60846.91
572.09	60893.72
572.25	60790.73
572.41	60734.56
572.57	61043.51
572.74	61024.79
572.90	60720.52
573.06	60891.38
573.22	60786.05
573.38	60954.57
573.55	60849.25
573.71	60956.91
573.87	60977.98
574.03	61087.98
574.20	60973.30
574.36	60851.59
574.52	60882.02
574.68	61095.00
574.84	61008.40
575.01	61013.08
575.17	60839.89
575.33	60760.31
575.49	60938.19
575.65	61015.43
575.82	60889.04
575.98	61034.15
576.14	61153.52
576.30	61176.92
576.46	60977.98
576.62	60903.08
576.79	61029.47
576.95	60893.72
577.11	61090.32
577.27	61052.87
577.43	61106.71
577.59	60954.57
577.75	60821.16
577.92	60739.24
578.08	60970.96
578.24	61024.79
578.40	61151.18
578.56	61113.73
578.72	61286.93
578.88	61233.10
579.04	61165.22
579.21	61148.84
579.37	61176.92
579.53	61511.62
579.69	60982.66
579.85	61169.90
580.01	61130.11
580.17	61071.60
580.33	61099.68
580.49	61310.33
580.65	61090.32
580.82	61029.47
580.98	61102.03
581.14	60987.34
581.30	61357.14
581.46	60977.98
581.62	61176.92
581.78	61174.58
581.94	61219.05
582.10	60989.68
582.26	61230.75
582.42	61099.68
582.58	61256.50
582.74	61099.68
582.90	61113.73
583.06	61097.34
583.22	61006.06
583.38	61202.67
583.54	61305.65
583.70	61319.70
583.86	61300.97
584.02	61146.50
584.18	61333.74
584.34	61254.16
584.50	61307.99
584.66	61085.64
584.82	61165.22
584.98	61352.46
585.14	61020.11
585.30	61017.77
585.46	61310.33
585.62	61169.90
585.78	61520.98
585.94	61055.21
586.10	61076.28
586.26	60989.68
586.42	61303.31
586.58	61495.24
586.74	61291.61
586.90	61233.10
587.06	61340.76
587.22	61368.85
587.38	61446.08
587.54	61553.75
587.70	61539.71
587.86	61134.79
588.02	61338.42
588.18	61462.47
588.34	61139.47
588.49	61343.10
588.65	61216.71
588.81	61546.73
588.97	61558.43
589.13	61413.32
589.29	61375.87
589.45	61619.28
589.61	61453.11
589.77	61684.82
589.93	61457.79
590.08	61516.30
590.24	61478.85
590.40	61895.47
590.56	61766.74
590.72	61647.37
590.88	61584.18
591.04	61502.26
591.20	61649.71
591.35	61675.46
591.51	61719.93
591.67	61642.69
591.83	61630.99
591.99	61380.55
592.15	61581.84
592.31	61769.08
592.46	61645.03
592.62	61474.17
592.78	61794.82
592.94	61691.84
593.10	61535.02
593.26	61752.69
593.41	61710.56
593.57	61731.63
593.73	61635.67
593.89	61748.01
594.05	61900.15
594.20	61675.46
594.36	61886.10
594.52	61710.56
594.68	61537.36
594.84	61497.58
594.99	61701.20
595.15	61724.61
595.31	61722.27
595.47	61612.26
595.62	61703.54
595.78	61621.62
595.94	61694.18
596.10	62003.13
596.25	61993.77
596.41	61982.07
596.57	61740.99
596.73	61801.85
596.88	61682.48
597.04	61881.42
597.20	61867.38
597.36	61890.79
597.51	61942.28
597.67	61806.53
597.83	61645.03
597.99	61851.00
598.14	61984.41
598.30	61832.27
598.46	62035.90
598.61	62134.20
598.77	61876.74
598.93	61843.98
599.09	61855.68
599.24	61876.74
599.40	62010.15
599.56	61993.77
599.71	61932.92
599.87	62192.72
600.03	61979.73
600.18	61855.68
600.34	61963.34
600.50	62073.35
600.65	61717.59
600.81	62000.79
600.97	61982.07
601.12	61916.53
601.28	61996.11
601.44	61848.66
601.59	62059.30
601.75	62031.22
601.91	62223.14
602.06	62028.88
602.22	62206.76
602.37	62152.93
602.53	61977.39
602.69	61881.42
602.84	61963.34
603.00	61928.23
603.16	61939.94
603.31	62021.86
603.47	61923.55
603.62	62063.99
603.78	62078.03
603.94	61953.98
604.09	62113.14
604.25	62007.81
604.40	61928.23
604.56	62115.48
604.71	62195.06
604.87	61881.42
605.03	62054.62
605.18	61998.45
605.34	61984.41
605.49	61946.96
605.65	62115.48
605.80	61942.28
605.96	62159.95
606.12	62063.99
606.27	62202.08
606.43	61946.96
606.58	62246.55
606.74	62059.30
606.89	61916.53
607.05	61897.81
607.20	62185.69
607.36	61907.17
607.51	61998.45
607.67	61851.00
607.82	61867.38
607.98	61740.99
608.13	61834.61
608.29	61841.63
608.44	62047.60
608.60	61921.21
608.75	62085.05
608.91	61944.62
609.06	61586.52
609.22	61928.23
609.37	61811.21
609.53	61879.08
609.68	61836.95
609.84	61638.01
609.99	61773.76
610.15	61949.30
610.30	61834.61
610.46	61883.76
610.61	61890.79
610.76	61815.89
610.92	61764.40
611.07	61829.93
611.23	61717.59
611.38	61677.80
611.54	61715.25
611.69	61638.01
611.84	61921.21
612.00	61680.14
612.15	61776.10
612.31	61876.74
612.46	61895.47
612.62	61829.93
612.77	61836.95
612.92	61675.46
613.08	61647.37
613.23	61799.50
613.39	61778.44
613.54	61420.34
613.69	61516.30
613.85	61710.56
614.00	61689.50
614.15	61757.38
614.31	61652.05
614.46	61691.84
614.62	61682.48
614.77	61701.20
614.92	61588.86
615.08	61492.89
615.23	61652.05
615.38	61563.11
615.54	61352.46
615.69	61492.89
615.84	61593.54
616.00	61539.71
616.15	61743.33
616.30	61630.99
616.46	61525.66
616.61	61347.78
616.76	61595.88
616.92	61453.11
617.07	61528.00
617.22	61446.08
617.37	61528.00
617.53	61659.07
617.68	61535.02
617.83	61504.60
617.99	61429.70
618.14	61483.53
618.29	61499.92
618.45	61329.06
618.60	61361.82
618.75	61345.44
618.90	61188.63
619.06	61446.08
619.21	61223.73
619.36	61668.44
619.51	61591.20
619.67	61263.52
619.82	61146.50
619.97	61478.85
620.12	61209.69
620.28	61090.32
620.43	61310.33
620.58	61167.56
620.73	60872.65
620.89	61261.18
621.04	61261.18
621.19	61256.50
621.34	61123.09
621.49	61155.86
621.65	61041.17
621.80	61340.76
621.95	60975.64
622.10	61078.62
622.25	61038.83
622.41	61219.05
622.56	61123.09
622.71	61251.82
622.86	60933.51
623.01	60926.49
623.16	60949.89
623.32	60989.68
623.47	61162.88
623.62	61057.56
623.77	61132.45
623.92	61190.97
624.07	61085.64
624.23	60898.40
624.38	60945.21
624.53	60678.39
624.68	60828.18
624.83	61195.65
624.98	61043.51
625.13	60772.01
625.29	60959.25
625.44	61029.47
625.59	60980.32
625.74	60727.54
625.89	60790.73
626.04	60626.90
626.19	60591.79
626.34	60839.89
626.49	60654.98
626.65	60521.57
626.80	60598.81
626.95	60699.45
627.10	60561.36
627.25	60320.29
627.40	60549.66
627.55	60434.97
627.70	60608.17
627.85	60610.51
628.00	60456.04
628.15	60441.99
628.30	60388.16
628.45	60643.28
628.60	60331.99
628.76	60472.42
628.91	60568.38
629.06	60439.65
629.21	60561.36
629.36	60416.25
629.51	60264.11
629.66	60306.24
629.81	60250.07
629.96	60144.75
630.11	60259.43
630.26	60439.65
630.41	60299.22
630.56	60378.80
630.71	60411.57
630.86	60561.36
631.01	60189.22
631.16	60259.43
631.31	60016.02
631.46	60065.17
631.61	60259.43
631.76	60334.33
631.91	60198.58
632.06	60266.45
632.21	60444.33
632.36	60266.45
632.51	60067.51
632.66	60144.75
632.81	59980.91
632.96	60530.93
633.10	59976.23
633.25	60067.51
633.40	60149.43
633.55	60280.50
633.70	60135.38
633.85	60086.23
634.00	60060.49
634.15	60020.70
634.30	59739.83
634.45	60009.00
634.60	60041.76
634.75	60317.95
634.90	59777.28
635.05	59512.80
635.19	59840.48
635.34	60203.26
635.49	59774.94
635.64	59877.93
635.79	60168.15
635.94	60123.68
636.09	59948.14
636.24	59873.24
636.39	59690.68
636.53	59973.89
636.68	59690.68
636.83	59906.01
636.98	59915.37
637.13	59781.96
637.28	59688.34
637.43	59875.58
637.57	59920.05
637.72	59711.75
637.87	59732.81
638.02	59465.99
638.17	59760.90
638.32	59704.73
638.46	59678.98
638.61	59564.29
638.76	59512.80
638.91	59487.06
639.06	59494.08
639.20	59419.18
639.35	59325.56
639.50	59222.58
639.65	59379.39
639.80	59564.29
639.94	59447.27
640.09	59423.86
640.24	59496.42
640.39	59381.73
640.54	59313.86
640.68	59465.99
640.83	59501.10
640.98	59281.09
641.13	59171.08
641.27	59767.92
641.42	59222.58
641.57	59241.30
641.72	59178.10
641.86	59084.48
642.01	59236.62
642.16	59245.98
642.31	59098.53
642.45	59393.43
642.60	59245.98
642.75	59267.05
642.90	59241.30
643.04	59297.47
643.19	59234.28
643.34	59135.98
643.48	59185.13
643.63	59229.60
643.78	59091.51
643.93	59037.67
644.07	59206.19
644.22	59250.66
644.37	58965.12
644.51	58803.62
644.66	58939.37
644.81	59011.93
644.95	59150.02
645.10	58967.46
645.25	58913.62
645.39	58784.90
645.54	58735.74
645.69	58691.27
645.83	58990.86
645.98	59032.99
646.13	58782.55
646.27	58670.21
646.42	58791.92
646.57	58693.61
646.71	58649.14
646.86	58810.64
647.00	58789.58
647.15	58742.77
647.30	58595.31
647.44	58726.38
647.59	58731.06
647.74	58674.89
647.88	58714.68
648.03	58796.60
648.17	58969.80
648.32	58583.61
648.47	58588.29
648.61	58651.48
648.76	58733.40
648.90	58581.27
649.05	58614.04
649.20	58511.05
649.34	58478.28
649.49	58632.76
649.63	58674.89
649.78	58693.61
649.92	58335.51
650.07	58471.26
650.21	58356.58
650.36	58293.38
650.51	58548.50
650.65	58532.12
650.80	58742.77
650.94	58157.63
651.09	58148.27
651.23	57982.09
651.38	58239.55
651.52	58059.33
651.67	58237.21
651.81	58220.83
651.96	58241.89
652.10	58038.26
652.25	58209.12
652.39	58152.95
652.54	57923.58
652.68	57834.64
652.83	57963.37
652.97	57961.03
653.12	57801.87
653.26	58082.73
653.41	58092.10
653.55	58092.10
653.70	58157.63
653.84	58174.02
653.99	58174.02
654.13	57869.75
654.27	57865.06
654.42	57804.21
654.56	57895.49
654.71	57879.11
654.85	58054.65
655.00	58211.46
655.14	57937.62
655.29	57876.77
655.43	57911.88
655.57	57616.97
655.72	57729.31
655.86	57787.83
656.01	57677.82
656.15	57558.45
656.30	57790.17
656.44	57792.51
656.58	57670.80
656.73	57853.36
656.87	57804.21
657.01	57694.21
657.16	57532.71
657.30	57717.61
657.45	57521.01
657.59	57551.43
657.73	57399.30
657.88	57425.04
658.02	57532.71
658.16	57406.32
658.31	57228.44
658.45	57432.07
658.60	57345.47
658.74	57418.02
658.88	57640.37
659.03	57186.31
659.17	57139.50
659.31	57167.58
659.46	57254.18
659.60	57324.40
659.74	57003.75
659.89	56914.81
660.03	56856.29
660.17	57338.44
660.32	56868.00
660.46	57008.43
660.60	56839.91
660.74	56949.92
660.89	56994.39
661.03	56596.49
661.17	56678.41
661.32	56664.37
661.46	56633.94
661.60	56664.37
661.74	56879.70
661.89	56605.86
662.03	56502.87
662.17	56446.70
662.31	56727.56
662.46	56954.60
662.60	56470.11
662.74	56336.69
662.88	56353.08
663.03	56149.45
663.17	56437.34
663.31	56439.68
663.45	56320.31
663.60	56189.24
663.74	56039.45
663.88	55831.14
664.02	56156.47
664.17	55920.08
664.31	55789.01
664.45	56076.90
664.59	56093.28
664.73	55781.99
664.88	55884.97
665.02	55597.09
665.16	55660.28
665.30	55517.51
665.44	55810.07
665.59	55475.38
665.73	55339.63
665.87	55599.43
666.01	55615.81
666.15	55470.70
666.29	55473.04
666.44	55784.33
666.58	55210.90
666.72	55423.89
666.86	55047.06
667.00	55295.16
667.14	55093.87
667.28	54934.71
667.43	54965.14
667.57	55199.19
667.71	54890.24
667.85	54607.04
667.99	54939.39
668.13	54770.88
668.27	54731.09
668.41	54623.42
668.56	54571.93
668.70	54707.68
668.84	54307.45
668.98	54468.95
669.12	54529.80
669.26	54604.70
669.40	54450.22
669.54	54588.31
669.68	54394.05
669.82	54225.53
669.96	54148.29
670.10	54330.86
670.25	54124.89
670.39	53883.81
670.53	54305.11
670.67	54017.22
670.81	54344.90
670.95	54010.20
671.09	53982.12
671.23	53464.86
671.37	53757.42
671.51	53750.40
671.65	53886.15
671.79	53600.61
671.93	53745.72
672.07	53570.18
672.21	53127.82
672.35	53076.33
672.49	53212.08
672.63	53134.84
672.77	52832.91
672.91	52975.69
673.05	52837.59
673.19	52940.58
673.33	52758.02
673.47	52774.40
673.61	52959.30
673.75	52903.13
673.89	52573.11
674.03	52435.02
674.17	52591.84
674.31	52233.74
674.45	51966.91
674.59	51948.19
674.73	52189.27
674.87	52016.07
675.01	51887.34
675.15	51943.51
675.29	52088.62
675.43	51971.60
675.56	51543.28
675.70	51599.45
675.84	51302.20
675.98	50380.03
676.12	51714.14
676.26	51180.49
676.40	51150.07
676.54	50958.14
676.68	50890.27
676.82	50347.26
676.96	50410.46
677.10	50660.90
677.23	50057.04
677.37	50258.32
677.51	50258.32
677.65	50066.40
677.79	49738.72
677.93	49579.57
678.07	49790.22
678.21	49275.30
678.34	49312.75
678.48	49336.15
678.62	48879.75
678.76	48907.83
678.90	48933.58
679.04	48755.70
679.18	48690.16
679.31	48261.85
679.45	48495.90
679.59	48641.01
679.73	48406.96
679.87	48217.38
680.00	47821.83
680.14	47746.93
680.28	47758.63
680.42	48098.01
680.56	46770.93
680.70	47037.75
680.83	47077.54
680.97	47157.11
681.11	47206.26
681.25	47171.16
681.39	47145.41
681.52	46415.16
681.66	46251.33
681.80	46490.06
681.94	46164.73
682.07	46239.62
682.21	45872.16
682.35	45900.25
682.49	45588.95
682.62	45734.07
682.76	46241.96
682.90	45485.97
683.04	45497.67
683.17	45399.37
683.31	45006.16
683.45	44877.43
683.59	44924.24
683.72	44697.21
683.86	44575.50
684.00	44512.31
684.13	44170.59
684.27	44149.53
684.41	43849.94
684.55	44226.76
684.68	43782.06
684.82	43819.51
684.96	43861.64
685.09	43253.10
685.23	43213.31
685.37	42887.98
685.50	42981.60
685.64	42415.19
685.78	42667.97
685.91	42824.78
686.05	42344.97
686.19	41787.92
686.32	42012.62
686.46	41745.80
686.60	41153.64
686.73	40950.01
686.87	41202.79
687.01	41235.56
687.14	41411.10
687.28	40732.34
687.42	40907.88
687.55	40437.44
687.69	40737.02
687.82	40142.53
687.96	40210.40
688.10	39791.45
688.23	40203.38
688.37	39756.34
688.50	39646.33
688.64	39505.90
688.78	39026.09
688.91	38600.12
689.05	38937.15
689.18	38845.87
689.32	37965.83
689.46	38625.86
689.59	37904.98
689.73	37986.89
689.86	37883.91
690.00	38113.28
690.13	38162.43
690.27	37680.28
690.41	37979.87
690.54	37099.83
690.68	36982.80
690.81	37263.67
690.95	37010.89
691.08	36804.92
691.22	36669.17
691.35	36643.43
691.49	36641.09
691.62	36397.67
691.76	36105.10
691.89	35611.25
692.03	35512.95
692.16	35365.49
692.30	35442.73
692.43	35798.49
692.57	35002.71
692.70	35248.47
692.84	34848.24
692.97	35166.55
693.11	34981.65
693.24	34644.61
693.38	34326.30
693.51	34190.55
693.65	34242.04
693.78	33909.68
693.92	33771.59
694.05	33633.50
694.19	33720.10
694.32	33338.59
694.45	33322.21
694.59	33034.32
694.72	32800.27
694.86	32617.71
694.99	32114.49
695.13	32210.45
695.26	32116.83
695.39	31782.13
695.53	31852.35
695.66	32112.15
695.80	31770.43
695.93	31618.30
696.07	31328.07
696.20	31016.78
696.33	30862.30
696.47	30951.24
696.60	31019.12
696.73	30806.13
696.87	30888.05
697.00	30476.12
697.14	30195.25
697.27	30389.52
697.40	30213.98
697.54	30150.78
697.67	29923.75
697.80	29806.72
697.94	29862.90
698.07	29130.31
698.21	28964.13
698.34	28950.09
698.47	28992.22
698.61	28327.50
698.74	28533.47
698.87	28648.16
699.01	28364.95
699.14	28400.06
699.27	28517.09
699.40	28102.81
699.54	28006.85
699.67	28313.46
699.80	27438.10
699.94	27770.46
700.07	27868.76
700.20	27351.50
700.34	27402.99
700.47	27154.90
700.60	26817.86
700.73	26532.31
700.87	26487.84
701.00	25993.99
701.13	26260.81
701.26	25914.41
701.40	26197.62
701.53	26040.80
701.66	26010.37
701.79	25577.37
701.93	25069.48
702.06	25369.07
702.19	25184.16
702.32	24982.88
702.46	25036.71
702.59	24706.70
702.72	24472.64
702.85	24996.92
702.99	24676.27
703.12	24945.43
703.25	24290.08
703.38	24247.95
703.51	24093.47
703.65	23686.22
703.78	23718.99
703.91	23791.55
704.04	23201.73
704.17	23618.35
704.31	23435.78
704.44	23541.11
704.57	22955.97
704.70	23227.48
704.83	22527.66
704.96	22546.38
705.10	22221.05
705.23	22181.26
>>>>>End Processed Spectral Data<<<<<
