SpectraSuite Data File
++++++++++++++++++++++++++++++++++++
Date: Fri Oct 25 11:24:03 EDT 2013
User: price-jones
Dark Spectrum Present: No
Reference Spectrum Present: No
Number of Sampled Component Spectra: 1
Spectrometers: USB2+H05261
Integration Time (usec): 100000 (USB2+H05261)
Spectra Averaged: 1 (USB2+H05261)
Boxcar Smoothing: 0 (USB2+H05261)
Correct for Electrical Dark: No (USB2+H05261)
Strobe/Lamp Enabled: No (USB2+H05261)
Correct for Detector Non-linearity: No (USB2+H05261)
Correct for Stray Light: No (USB2+H05261)
Number of Pixels in Processed Spectrum: 2048
>>>>>Begin Processed Spectral Data<<<<<
365.73	220.01
365.92	220.01
366.12	220.01
366.32	154.48
366.52	124.05
366.72	159.16
366.91	152.13
367.11	140.43
367.31	135.75
367.51	173.20
367.70	114.69
367.90	117.03
368.10	126.39
368.30	205.97
368.49	77.24
368.69	145.11
368.89	156.82
369.09	70.22
369.28	107.66
369.48	166.18
369.68	140.43
369.87	156.82
370.07	250.44
370.27	187.24
370.47	252.78
370.66	578.11
370.86	606.20
371.06	568.75
371.25	664.71
371.45	697.48
371.65	751.31
371.84	727.91
372.04	582.79
372.24	631.94
372.44	744.29
372.63	725.57
372.83	781.74
373.03	676.41
373.22	718.54
373.42	772.38
373.62	812.17
373.81	835.57
374.01	788.76
374.21	791.10
374.40	788.76
374.60	800.46
374.79	821.53
374.99	826.21
375.19	901.11
375.38	877.70
375.58	800.46
375.78	875.36
375.97	887.06
376.17	915.15
376.37	842.59
376.56	863.66
376.76	922.17
376.95	915.15
377.15	912.81
377.35	837.91
377.54	959.62
377.74	856.64
377.93	882.38
378.13	875.36
378.33	908.13
378.52	961.96
378.72	896.43
378.91	973.66
379.11	959.62
379.31	863.66
379.50	1022.81
379.70	976.00
379.89	978.34
380.09	1020.47
380.28	882.38
380.48	1039.20
380.68	994.73
380.87	957.28
381.07	1008.77
381.26	1088.35
381.46	1001.75
381.65	1015.79
381.85	1027.50
382.04	968.98
382.24	1060.26
382.43	1057.92
382.63	1102.39
382.83	1057.92
383.02	1144.52
383.22	1146.86
383.41	1027.50
383.61	1048.56
383.80	1130.48
384.00	1076.65
384.19	1095.37
384.39	1078.99
384.58	1144.52
384.78	1128.14
384.97	1205.38
385.17	1123.46
385.36	1207.72
385.56	1196.01
385.75	1163.25
385.95	1181.97
386.14	1203.04
386.34	1184.31
386.53	1165.59
386.72	1245.16
386.92	1263.89
387.11	1130.48
387.31	1238.14
387.50	1345.81
387.70	1306.02
387.89	1167.93
388.09	1245.16
388.28	1256.87
388.48	1249.85
388.67	1306.02
388.86	1343.47
389.06	1261.55
389.25	1380.92
389.45	1399.64
389.64	1345.81
389.84	1394.96
390.03	1373.89
390.22	1329.42
390.42	1373.89
390.61	1387.94
390.81	1322.40
391.00	1427.73
391.19	1357.51
391.39	1488.58
391.58	1490.92
391.78	1437.09
391.97	1465.18
392.16	1472.20
392.36	1483.90
392.55	1500.28
392.75	1493.26
392.94	1551.78
393.13	1591.56
393.33	1479.22
393.52	1514.33
393.71	1540.07
393.91	1624.33
394.10	1511.99
394.29	1537.73
394.49	1563.48
394.68	1734.34
394.88	1579.86
395.07	1778.81
395.26	1640.72
395.46	1739.02
395.65	1680.50
395.84	1727.32
396.04	1839.66
396.23	1774.13
396.42	1717.95
396.62	1734.34
396.81	1668.80
397.00	1659.44
397.19	1689.87
397.39	1703.91
397.58	1853.70
397.77	1818.60
397.97	1921.58
398.16	1818.60
398.35	1940.30
398.55	1856.04
398.74	1842.00
398.93	1919.24
399.12	1940.30
399.32	1877.11
399.51	1818.60
399.70	1937.96
399.90	1898.17
400.09	1926.26
400.28	1893.49
400.47	1930.94
400.67	2059.67
400.86	2097.12
401.05	2064.35
401.24	2092.44
401.44	2204.78
401.63	2260.96
401.82	2125.21
402.01	2157.97
402.21	2150.95
402.40	2188.40
402.59	2106.48
402.78	2165.00
402.97	2239.89
403.17	2314.79
403.36	2246.91
403.55	2324.15
403.74	2356.92
403.93	2289.04
404.13	2361.60
404.32	2422.45
404.51	2312.45
404.70	2394.37
404.89	2457.56
405.09	2373.30
405.28	2469.27
405.47	2363.94
405.66	2523.10
405.85	2511.39
406.05	2530.12
406.24	2560.55
406.43	2506.71
406.62	2609.70
406.81	2637.78
407.00	2605.02
407.20	2633.10
407.39	2572.25
407.58	2696.30
407.77	2761.83
407.96	2764.17
408.15	2743.11
408.34	2764.17
408.54	2736.09
408.73	2782.90
408.92	2825.03
409.11	2974.82
409.30	2780.56
409.49	2820.35
409.68	2829.71
409.87	2972.48
410.07	3080.14
410.26	2942.05
410.45	3033.33
410.64	3082.49
410.83	3112.91
411.02	3014.61
411.21	3241.64
411.40	3131.64
411.59	3274.41
411.78	3150.36
411.98	3204.19
412.17	3204.19
412.36	3365.69
412.55	3239.30
412.74	3520.17
412.93	3442.93
413.12	3337.60
413.31	3524.85
413.50	3552.93
413.69	3627.83
413.88	3543.57
414.07	3550.59
414.26	3627.83
414.45	3630.17
414.64	3653.58
414.83	3833.80
415.02	3826.78
415.22	3838.48
415.41	3854.86
415.60	3831.46
415.79	3904.01
415.98	4135.73
416.17	4037.42
416.36	3946.14
416.55	3847.84
416.74	4032.74
416.93	4004.66
417.12	4114.66
417.31	4135.73
417.50	4105.30
417.69	4306.59
417.88	4402.55
418.07	4383.82
418.26	4346.37
418.45	4311.27
418.64	4442.34
418.83	4301.90
419.02	4496.17
419.21	4566.39
419.39	4322.97
419.58	4566.39
419.77	4437.66
419.96	4582.77
420.15	4601.49
420.34	4512.55
420.53	4613.20
420.72	4683.41
420.91	4678.73
421.10	4849.59
421.29	4678.73
421.48	4905.76
421.67	4699.80
421.86	4676.39
422.05	4760.65
422.24	4922.15
422.43	4870.65
422.61	4805.12
422.80	4905.76
422.99	4882.36
423.18	5074.28
423.37	4997.04
423.56	4924.49
423.75	4947.89
423.94	4840.23
424.13	4493.83
424.32	4774.69
424.50	5043.85
424.69	5078.96
424.88	5020.45
425.07	4915.12
425.26	5060.24
425.45	4940.87
425.64	5008.75
425.83	5055.56
426.01	5043.85
426.20	5125.77
426.39	5036.83
426.58	5029.81
426.77	5029.81
426.96	5193.65
427.15	5088.32
427.33	5296.63
427.52	5172.58
427.71	5203.01
427.90	5282.59
428.09	5378.55
428.28	5242.80
428.46	5490.90
428.65	5329.40
428.84	5392.59
429.03	5579.84
429.22	5511.96
429.40	5448.77
429.59	5589.20
429.78	5343.44
429.97	5254.50
430.16	5504.94
430.34	5680.48
430.53	5671.12
430.72	5802.19
430.91	5631.33
431.10	5666.44
431.28	5738.99
431.47	5734.31
431.66	5827.93
431.85	5844.32
432.03	5863.04
432.22	5820.91
432.41	6029.22
432.60	6047.94
432.79	5968.37
432.97	6015.18
433.16	5961.34
433.35	5891.13
433.54	5900.49
433.72	6125.18
433.91	5996.45
434.10	6113.48
434.28	6148.59
434.47	6239.87
434.66	6216.46
434.85	6443.49
435.03	6242.21
435.22	6342.85
435.41	6520.73
435.59	6394.34
435.78	6523.07
435.97	6478.60
436.16	6572.22
436.34	6382.64
436.53	6551.16
436.72	6623.72
436.90	6431.79
437.09	6623.72
437.28	6494.99
437.46	6661.16
437.65	6677.55
437.84	6803.94
438.02	6750.10
438.21	6911.60
438.40	6946.71
438.58	6988.84
438.77	7136.29
438.96	6956.07
439.14	7166.72
439.33	7194.81
439.52	7077.78
439.70	7246.30
439.89	7258.00
440.08	7222.89
440.26	7297.79
440.45	7592.70
440.63	7550.57
440.82	7396.09
441.01	7475.67
441.19	7616.10
441.38	7665.25
441.57	7786.96
441.75	7740.15
441.94	7861.86
442.12	8030.38
442.31	8147.40
442.50	8098.25
442.68	8131.02
442.87	8039.74
443.05	8170.81
443.24	8313.58
443.43	8215.28
443.61	8409.54
443.80	8458.70
443.98	8133.36
444.17	7885.26
444.35	8219.96
444.54	8397.84
444.73	8269.11
444.91	8294.86
445.10	8454.02
445.28	8304.22
445.47	8189.53
445.65	8292.52
445.84	8287.84
446.02	8491.46
446.21	8603.81
446.39	8294.86
446.58	8512.53
446.77	8528.91
446.95	8297.20
447.14	8463.38
447.32	8571.04
447.51	8683.39
447.69	8489.12
447.88	8446.99
448.06	8400.18
448.25	8470.40
448.43	8748.92
448.62	8620.19
448.80	8659.98
448.99	8571.04
449.17	8753.60
449.36	8746.58
449.54	8699.77
449.73	9036.81
449.91	9151.49
450.10	9177.24
450.28	9123.41
450.46	9015.74
450.65	8933.82
450.83	9128.09
451.02	9064.89
451.20	9212.35
451.39	9095.32
451.57	9177.24
451.76	9008.72
451.94	9139.79
452.13	9247.46
452.31	9186.60
452.49	9465.13
452.68	9369.16
452.86	9439.38
453.05	9493.21
453.23	9612.58
453.42	9427.68
453.60	9401.93
453.78	9540.02
453.97	9266.18
454.15	9500.23
454.34	9348.10
454.52	9900.47
454.70	9771.74
454.89	9701.52
455.07	9818.55
455.26	9891.10
455.44	9970.68
455.62	10200.05
455.81	9802.16
455.99	9951.96
456.17	10094.73
456.36	10026.86
456.54	10263.25
456.73	10527.73
456.91	10438.79
457.09	10478.58
457.28	10572.20
457.46	10494.96
457.64	10509.01
457.83	10431.77
458.01	10366.23
458.19	10651.78
458.38	10574.54
458.56	10541.77
458.74	10892.85
458.93	10785.19
459.11	10761.78
459.29	10698.59
459.48	10848.38
459.66	10902.22
459.84	11122.23
460.03	10841.36
460.21	10991.16
460.39	11037.97
460.57	11239.25
460.76	11229.89
460.94	11293.08
461.12	11269.68
461.31	11126.91
461.49	11070.73
461.67	11290.74
461.85	11372.66
462.04	11250.96
462.22	11470.97
462.40	11562.25
462.59	11398.41
462.77	11555.22
462.95	11840.77
463.13	11405.43
463.32	11679.27
463.50	11634.80
463.68	11740.13
463.86	11861.84
464.05	11674.59
464.23	11789.28
464.41	12070.14
464.59	11651.19
464.78	11885.24
464.96	11950.78
465.14	11960.14
465.32	12285.47
465.50	12166.10
465.69	12456.33
465.87	12109.93
466.05	12142.70
466.23	12077.16
466.41	12290.15
466.60	12524.21
466.78	12325.26
466.96	12383.77
467.14	12257.39
467.32	12376.75
467.51	12699.75
467.69	12116.95
467.87	12538.25
468.05	12650.60
468.23	12358.03
468.41	12559.31
468.60	12580.38
468.78	12931.46
468.96	12613.15
469.14	12884.65
469.32	13069.55
469.50	12512.50
469.69	13004.02
469.87	13209.98
470.05	13217.01
470.23	13275.52
470.41	12922.10
470.59	13266.16
470.77	13004.02
470.95	13163.17
471.14	13493.19
471.32	13319.99
471.50	13549.36
471.68	13603.19
471.86	13743.63
472.04	13900.44
472.22	14099.39
472.40	13731.92
472.58	13879.38
472.77	14176.62
472.95	14244.50
473.13	14693.88
473.31	14094.71
473.49	14242.16
473.67	14281.95
473.85	14347.48
474.03	14663.46
474.21	14745.38
474.39	14700.90
474.57	14813.25
474.75	15023.90
474.93	15021.56
475.12	14780.48
475.30	15059.01
475.48	15105.82
475.66	15325.83
475.84	15140.93
476.02	15613.71
476.20	15578.61
476.38	15529.45
476.56	15941.39
476.74	15920.32
476.92	15796.28
477.10	15712.02
477.28	15971.82
477.46	16336.94
477.64	16498.44
477.82	16727.81
478.00	16840.15
478.18	16535.88
478.36	16671.64
478.54	17317.62
478.72	17156.13
478.90	17563.38
479.08	17666.36
479.26	17715.51
479.44	17972.97
479.62	17839.56
479.80	18436.40
479.98	18452.78
480.16	18693.86
480.34	18548.75
480.52	18604.92
480.70	18534.70
480.88	18579.17
481.06	18944.30
481.24	18771.10
481.41	19051.96
481.59	19316.44
481.77	19264.95
481.95	19597.31
482.13	19702.63
482.31	19644.12
482.49	20098.18
482.67	20329.89
482.85	20381.38
483.03	20673.95
483.21	20732.47
483.39	21158.44
483.57	21057.80
483.74	20861.19
483.92	21254.40
484.10	21186.53
484.28	21666.34
484.46	22024.44
484.64	22438.72
484.82	21846.56
485.00	22263.18
485.18	22553.40
485.35	22785.12
485.53	23108.11
485.71	23339.82
485.89	23903.89
486.07	23498.98
486.25	23487.28
486.43	23742.39
486.61	24257.31
486.78	24482.00
486.96	24362.64
487.14	24414.13
487.32	24741.80
487.50	24950.11
487.68	25249.70
487.85	25422.90
488.03	25656.95
488.21	25895.69
488.39	25769.30
488.57	26003.35
488.75	26080.59
488.92	26616.57
489.10	26899.78
489.28	26738.28
489.46	27042.55
489.64	27166.60
489.81	27789.18
489.99	27761.09
490.17	27915.57
490.35	28013.87
490.53	28526.45
490.70	28407.08
490.88	28102.81
491.06	28905.62
491.24	28833.06
491.41	29336.27
491.59	29413.51
491.77	29263.72
491.95	29635.86
492.13	29565.65
492.30	30401.22
492.48	30263.13
492.66	30206.95
492.84	30174.19
493.01	30883.37
493.19	30822.51
493.37	30897.41
493.54	31283.60
493.72	31428.71
493.90	31826.60
494.08	32147.26
494.25	31908.52
494.43	31960.02
494.61	32816.65
494.79	32624.73
494.96	32809.63
495.14	32987.51
495.32	33015.60
495.49	33251.99
495.67	33282.42
495.85	33795.00
496.02	33902.66
496.20	33710.74
496.38	33881.60
496.55	34087.56
496.73	34845.90
496.91	34930.16
497.09	34852.92
497.26	34939.52
497.44	34976.97
497.62	35117.40
497.79	35747.00
497.97	35349.11
498.14	36212.77
498.32	36140.21
498.50	36067.66
498.67	36552.15
498.85	36395.33
499.03	36964.08
499.20	36994.51
499.38	37055.36
499.56	37174.73
499.73	36975.78
499.91	37198.13
500.08	37586.66
500.26	37282.39
500.44	38146.05
500.61	37813.70
500.79	37926.04
500.97	38256.06
501.14	38513.52
501.32	38759.27
501.49	38602.46
501.67	39049.50
501.84	39023.75
502.02	38859.91
502.20	39236.74
502.37	39311.64
502.55	39234.40
502.72	39662.72
502.90	39571.44
503.07	39695.49
503.25	40051.25
503.43	39653.36
503.60	40360.20
503.78	40273.60
503.95	40261.90
504.13	40362.54
504.30	40556.80
504.48	40566.16
504.65	41095.13
504.83	40966.40
505.01	41322.16
505.18	41460.25
505.36	41621.75
505.53	41315.14
505.71	41778.56
505.88	42094.53
506.06	41853.46
506.23	42363.70
506.41	42124.96
506.58	42089.85
506.76	42087.51
506.93	42548.60
507.11	42515.83
507.28	42841.17
507.46	42749.88
507.63	43239.06
507.81	42944.15
507.98	42693.71
508.16	43655.67
508.33	43702.48
508.50	43622.90
508.68	43929.51
508.85	43749.29
509.03	43995.05
509.20	44240.81
509.38	44301.66
509.55	44460.82
509.73	44168.25
509.90	44435.07
510.08	44446.77
510.25	45134.89
510.42	44947.65
510.60	44985.10
510.77	45490.65
510.95	45464.91
511.12	45272.98
511.30	45048.29
511.47	45528.10
511.64	45577.25
511.82	46057.06
511.99	45897.91
512.17	46244.30
512.34	46211.54
512.51	46642.20
512.69	46511.13
512.86	46443.25
513.04	46934.76
513.21	46693.69
513.38	46733.48
513.56	46913.70
513.73	46988.60
513.90	47093.92
514.08	47040.09
514.25	47248.39
514.43	47456.70
514.60	47547.98
514.77	47505.85
514.95	47852.25
515.12	47840.55
515.29	47997.37
515.47	48245.46
515.64	48060.56
515.81	48238.44
515.99	48411.64
516.16	48512.28
516.33	48196.31
516.51	48706.55
516.68	48680.80
516.85	48769.74
517.03	48989.75
517.20	49052.95
517.37	49139.55
517.54	48903.15
517.72	48949.96
517.89	49031.88
518.06	49544.46
518.24	49364.24
518.41	49223.81
518.58	49855.75
518.75	49600.63
518.93	49804.26
519.10	49715.32
519.27	49785.54
519.45	49881.50
519.62	50033.63
519.79	50326.20
519.96	50089.80
520.14	50333.22
520.31	50361.31
520.48	50527.48
520.65	50216.19
520.83	50667.92
521.00	50684.30
521.17	50667.92
521.34	50426.84
521.52	50768.56
521.69	50918.35
521.86	51416.89
522.03	51433.27
522.20	51302.20
522.38	51847.55
522.55	51426.25
522.72	51625.20
522.89	51849.89
523.07	51875.63
523.24	51437.95
523.41	51601.79
523.58	51529.23
523.75	51739.88
523.92	51634.56
524.10	52294.59
524.27	51941.17
524.44	52346.08
524.61	52238.42
524.78	52292.25
524.96	52617.58
525.13	52491.19
525.30	52465.45
525.47	52842.27
525.64	52261.82
525.81	52530.98
525.98	52676.10
526.16	52804.83
526.33	52832.91
526.50	53109.10
526.67	52713.55
526.84	52931.22
527.01	53076.33
527.18	53116.12
527.36	53139.52
527.53	53167.61
527.70	53401.66
527.87	53497.62
528.04	53265.91
528.21	53418.05
528.38	53689.55
528.55	53415.71
528.72	53441.45
528.89	53396.98
529.07	53340.81
529.24	53371.24
529.41	53609.97
529.58	53689.55
529.75	53745.72
529.92	54028.93
530.09	53965.73
530.26	54108.50
530.43	54094.46
530.60	53680.19
530.77	53794.87
530.94	54110.85
531.11	54234.89
531.28	54262.98
531.46	54202.13
531.63	54473.63
531.80	54464.27
531.97	54593.00
532.14	54703.00
532.31	54330.86
532.48	54639.81
532.65	54787.26
532.82	54401.07
532.99	54700.66
533.16	54681.94
533.33	55016.63
533.50	55171.11
533.67	55037.70
533.84	54745.13
534.01	54850.45
534.18	55035.36
534.35	55302.18
534.52	55093.87
534.69	55381.76
534.86	55580.70
535.03	55356.01
535.20	54972.16
535.37	55386.44
535.54	55458.99
535.71	55363.03
535.88	55566.66
536.05	55643.90
536.22	55777.31
536.38	55693.05
536.55	55592.40
536.72	55681.34
536.89	55229.62
537.06	55824.12
537.23	55679.00
537.40	55285.79
537.57	55835.82
537.74	55983.27
537.91	56011.36
538.08	56067.53
538.25	55772.63
538.42	56107.32
538.59	55987.95
538.75	56149.45
538.92	56079.24
539.09	56317.97
539.26	56163.50
539.43	56177.54
539.60	56460.74
539.77	56346.06
539.94	56692.46
540.11	56425.64
540.28	56652.67
540.44	56474.79
540.61	56444.36
540.78	56151.79
540.95	56470.11
541.12	56540.32
541.29	56591.81
541.46	56493.51
541.62	56865.66
541.79	56762.67
541.96	56488.83
542.13	56617.56
542.30	56762.67
542.47	57003.75
542.63	56811.82
542.80	56994.39
542.97	57050.56
543.14	57462.49
543.31	57389.94
543.48	57298.65
543.64	57476.54
543.81	57567.82
543.98	57392.28
544.15	57443.77
544.32	57373.55
544.48	57771.44
544.65	57455.47
544.82	57570.16
544.99	57256.53
545.16	57441.43
545.32	57509.30
545.49	57851.02
545.66	57904.85
545.83	57865.06
546.00	57717.61
546.16	57797.19
546.33	57560.79
546.50	57490.58
546.67	57869.75
546.83	57574.84
547.00	57839.32
547.17	57900.17
547.34	57909.53
547.50	57977.41
547.67	58033.58
547.84	57968.05
548.00	58321.47
548.17	58096.78
548.34	58080.39
548.51	58237.21
548.67	58220.83
548.84	58267.64
549.01	58113.16
549.18	58246.57
549.34	58368.28
549.51	58525.10
549.68	58365.94
549.84	58494.67
550.01	58534.46
550.18	58321.47
550.34	58424.45
550.51	58599.99
550.68	58475.94
550.84	58389.34
551.01	58644.46
551.18	58632.76
551.34	58543.82
551.51	58705.32
551.68	58539.14
551.84	58632.76
552.01	58478.28
552.18	58777.87
552.34	58457.22
552.51	58754.47
552.68	58679.57
552.84	58599.99
553.01	59143.00
553.18	58885.54
553.34	58944.05
553.51	58883.20
553.67	58749.79
553.84	58887.88
554.01	58990.86
554.17	58972.14
554.34	59152.36
554.51	59194.49
554.67	59292.79
554.84	59025.97
555.00	59028.31
555.17	59021.29
555.33	59267.05
555.50	58993.20
555.67	59253.00
555.83	59189.81
556.00	59096.19
556.16	59508.12
556.33	59070.44
556.50	59346.62
556.66	59533.87
556.83	59143.00
556.99	59379.39
557.16	59465.99
557.32	59491.74
557.49	59678.98
557.65	59334.92
557.82	59435.56
557.98	59351.30
558.15	59543.23
558.32	59700.04
558.48	59639.19
558.65	59482.37
558.81	59606.42
558.98	59753.88
559.14	59613.44
559.31	59730.47
559.47	59763.24
559.64	59732.81
559.80	59697.70
559.97	59756.22
560.13	59770.26
560.30	59608.76
560.46	59758.56
560.63	60060.49
560.79	59716.43
560.96	59891.97
561.12	59913.03
561.29	59875.58
561.45	60055.81
561.61	59866.22
561.78	59723.45
561.94	60055.81
562.11	59683.66
562.27	60023.04
562.44	59938.78
562.60	60264.11
562.77	60032.40
562.93	59985.59
563.10	60175.17
563.26	59901.33
563.42	60378.80
563.59	60032.40
563.75	60079.21
563.92	60102.62
564.08	60025.38
564.24	60186.88
564.41	60266.45
564.57	60168.15
564.74	60299.22
564.90	60275.82
565.07	60133.04
565.23	60177.51
565.39	60245.39
565.56	60346.03
565.72	60154.11
565.88	60374.12
566.05	60245.39
566.21	60322.63
566.38	60498.17
566.54	60280.50
566.70	60488.80
566.87	60505.19
567.03	60339.01
567.19	60566.04
567.36	60512.21
567.52	60259.43
567.68	60640.94
567.85	60453.70
568.01	60622.22
568.17	60371.78
568.34	60720.52
568.50	60364.76
568.66	60268.79
568.83	60519.23
568.99	60505.19
569.15	60552.00
569.32	60584.77
569.48	60432.63
569.64	60563.70
569.81	60402.21
569.97	60268.79
570.13	60355.39
570.30	60484.12
570.46	60512.21
570.62	60491.15
570.78	60516.89
570.95	60619.88
571.11	60790.73
571.27	60566.04
571.43	60673.71
571.60	60594.13
571.76	60491.15
571.92	60851.59
572.09	60722.86
572.25	60608.17
572.41	60732.22
572.57	60568.38
572.74	60966.27
572.90	60683.07
573.06	60853.93
573.22	60713.50
573.38	60844.57
573.55	60764.99
573.71	60893.72
573.87	60786.05
574.03	60601.15
574.20	60802.44
574.36	60910.10
574.52	60849.25
574.68	60699.45
574.84	61085.64
575.01	60863.29
575.17	60713.50
575.33	60746.26
575.49	60664.35
575.65	60945.21
575.82	60928.83
575.98	60886.70
576.14	60982.66
576.30	60931.17
576.46	60683.07
576.62	60839.89
576.79	60818.82
576.95	60650.30
577.11	60788.39
577.27	60963.93
577.43	60860.95
577.59	60802.44
577.75	60882.02
577.92	60530.93
578.08	60800.10
578.24	60905.42
578.40	60823.50
578.56	61052.87
578.72	61022.45
578.88	61097.34
579.04	61158.20
579.21	61076.28
579.37	61034.15
579.53	60959.25
579.69	60809.46
579.85	60891.38
580.01	60924.14
580.17	60743.92
580.33	60809.46
580.49	61078.62
580.65	60931.17
580.82	61214.37
580.98	60800.10
581.14	60867.97
581.30	61020.11
581.46	60938.19
581.62	60940.53
581.78	60940.53
581.94	60977.98
582.10	60954.57
582.26	61127.77
582.42	60985.00
582.58	60797.76
582.74	60994.36
582.90	60877.33
583.06	60954.57
583.22	61073.94
583.38	60996.70
583.54	60963.93
583.70	61078.62
583.86	61085.64
584.02	61104.37
584.18	61268.20
584.34	60949.89
584.50	61233.10
584.66	60931.17
584.82	60776.69
584.98	61174.58
585.14	61193.31
585.30	60959.25
585.46	61116.07
585.62	61113.73
585.78	61155.86
585.94	61043.51
586.10	61057.56
586.26	61181.60
586.42	61228.41
586.58	61207.35
586.74	60963.93
586.90	61118.41
587.06	61078.62
587.22	61221.39
587.38	61064.58
587.54	61214.37
587.70	61197.99
587.86	61251.82
588.02	61099.68
588.18	61286.93
588.34	61118.41
588.49	61080.96
588.65	61006.06
588.81	61162.88
588.97	61307.99
589.13	61141.81
589.29	61268.20
589.45	61279.91
589.61	61132.45
589.77	61485.87
589.93	61457.79
590.08	61394.59
590.24	61338.42
590.40	61453.11
590.56	61535.02
590.72	61418.00
590.88	61207.35
591.04	61413.32
591.20	61450.77
591.35	61319.70
591.51	61647.37
591.67	61633.33
591.83	61364.17
591.99	61520.98
592.15	61284.59
592.31	61483.53
592.46	61403.95
592.62	61436.72
592.78	61623.96
592.94	61619.28
593.10	61591.20
593.26	61584.18
593.41	61286.93
593.57	61560.77
593.73	61607.58
593.89	61874.40
594.05	61649.71
594.20	61616.94
594.36	61619.28
594.52	61464.81
594.68	61553.75
594.84	61415.66
594.99	61570.13
595.15	61509.28
595.31	61506.94
595.47	61471.83
595.62	61563.11
595.78	61497.58
595.94	61675.46
596.10	61841.63
596.25	61670.78
596.41	61818.23
596.57	61574.81
596.73	61450.77
596.88	61766.74
597.04	61539.71
597.20	61717.59
597.36	61944.62
597.51	61806.53
597.67	61558.43
597.83	61654.39
597.99	61755.03
598.14	61743.33
598.30	61937.60
598.46	61642.69
598.61	61740.99
598.77	61542.05
598.93	61778.44
599.09	61602.90
599.24	61932.92
599.40	62080.37
599.56	61717.59
599.71	61921.21
599.87	62192.72
600.03	61855.68
600.18	61778.44
600.34	61719.93
600.50	61937.60
600.65	61572.47
600.81	61839.29
600.97	61909.51
601.12	61726.95
601.28	61703.54
601.44	61755.03
601.59	61867.38
601.75	61616.94
601.91	62028.88
602.06	61820.57
602.22	61965.68
602.37	61799.50
602.53	61865.04
602.69	61593.54
602.84	61825.25
603.00	61815.89
603.16	62024.20
603.31	61928.23
603.47	61963.34
603.62	61729.29
603.78	61914.19
603.94	61921.21
604.09	61626.31
604.25	61752.69
604.40	61574.81
604.56	61900.15
604.71	61764.40
604.87	61661.41
605.03	61785.46
605.18	61965.68
605.34	61944.62
605.49	61619.28
605.65	61865.04
605.80	61663.75
605.96	61743.33
606.12	61853.34
606.27	62113.14
606.43	61766.74
606.58	61801.85
606.74	61829.93
606.89	61797.16
607.05	61916.53
607.20	61923.55
607.36	61544.39
607.51	61762.06
607.67	61530.34
607.82	61694.18
607.98	61818.23
608.13	61799.50
608.29	61593.54
608.44	61790.14
608.60	61399.27
608.75	61769.08
608.91	61829.93
609.06	61418.00
609.22	61834.61
609.37	61387.57
609.53	61684.82
609.68	61766.74
609.84	61708.22
609.99	61656.73
610.15	61797.16
610.30	61801.85
610.46	61628.65
610.61	61729.29
610.76	61628.65
610.92	61560.77
611.07	61607.58
611.23	61677.80
611.38	61694.18
611.54	61628.65
611.69	61535.02
611.84	61612.26
612.00	61738.65
612.15	61577.15
612.31	61652.05
612.46	61345.44
612.62	61588.86
612.77	61848.66
612.92	61441.40
613.08	61544.39
613.23	61467.15
613.39	61432.04
613.54	61441.40
613.69	61558.43
613.85	61385.23
614.00	61333.74
614.15	61539.71
614.31	61460.13
614.46	61415.66
614.62	61499.92
614.77	61490.55
614.92	61490.55
615.08	61307.99
615.23	61389.91
615.38	61441.40
615.54	61382.89
615.69	61453.11
615.84	61338.42
616.00	61307.99
616.15	61593.54
616.30	61602.90
616.46	61300.97
616.61	61272.88
616.76	61464.81
616.92	61331.40
617.07	61317.35
617.22	61207.35
617.37	61263.52
617.53	61563.11
617.68	61347.78
617.83	61151.18
617.99	61265.86
618.14	61516.30
618.29	61258.84
618.45	61146.50
618.60	61090.32
618.75	61209.69
618.90	61279.91
619.06	61382.89
619.21	61216.71
619.36	61396.93
619.51	61169.90
619.67	61169.90
619.82	61015.43
619.97	61242.46
620.12	61193.31
620.28	61055.21
620.43	61062.24
620.58	60954.57
620.73	60919.46
620.89	60970.96
621.04	61179.26
621.19	60973.30
621.34	60818.82
621.49	60917.12
621.65	61022.45
621.80	61109.05
621.95	60945.21
622.10	60980.32
622.25	60690.09
622.41	60924.14
622.56	61001.38
622.71	61130.11
622.86	60933.51
623.01	60769.67
623.16	60554.34
623.32	60821.16
623.47	60949.89
623.62	60982.66
623.77	60837.54
623.92	60989.68
624.07	60975.64
624.23	61024.79
624.38	60956.91
624.53	60678.39
624.68	60711.16
624.83	60818.82
624.98	60783.71
625.13	60631.58
625.29	60734.56
625.44	60832.86
625.59	60697.11
625.74	60596.47
625.89	60507.53
626.04	60460.72
626.19	60463.06
626.34	60596.47
626.49	60350.71
626.65	60200.92
626.80	60678.39
626.95	60329.65
627.10	60388.16
627.25	60388.16
627.40	60374.12
627.55	60488.80
627.70	60327.31
627.85	60608.17
628.00	60224.32
628.15	60776.69
628.30	60207.94
628.45	60383.48
628.60	60221.98
628.76	60507.53
628.91	60460.72
629.06	60369.44
629.21	60505.19
629.36	60214.96
629.51	60264.11
629.66	60074.53
629.81	60034.74
629.96	60144.75
630.11	60004.31
630.26	60399.86
630.41	60203.26
630.56	60189.22
630.71	60193.90
630.86	60378.80
631.01	60044.10
631.16	60154.11
631.31	59922.40
631.46	59742.17
631.61	59955.16
631.76	60140.07
631.91	59901.33
632.06	60296.88
632.21	59978.57
632.36	59943.46
632.51	59634.51
632.66	60065.17
632.81	59994.95
632.96	59906.01
633.10	60062.83
633.25	59866.22
633.40	59934.10
633.55	59906.01
633.70	59969.21
633.85	59824.09
634.00	59669.62
634.15	59840.48
634.30	59671.96
634.45	59824.09
634.60	59882.61
634.75	59674.30
634.90	59690.68
635.05	59664.94
635.19	59732.81
635.34	59901.33
635.49	59877.93
635.64	59746.86
635.79	59496.42
635.94	59828.77
636.09	59728.13
636.24	59576.00
636.39	59674.30
636.53	59812.39
636.68	59454.29
636.83	59753.88
636.98	59690.68
637.13	59468.33
637.28	59517.48
637.43	59440.24
637.57	59594.72
637.72	59309.18
637.87	59599.40
638.02	59608.76
638.17	59643.87
638.32	59484.72
638.46	59489.40
638.61	59449.61
638.76	59100.87
638.91	59187.47
639.06	59255.34
639.20	59189.81
639.35	59157.04
639.50	59072.78
639.65	59400.46
639.80	59384.07
639.94	59339.60
640.09	59166.40
640.24	59229.60
640.39	59164.06
640.54	59086.82
640.68	59302.15
640.83	59222.58
640.98	59241.30
641.13	59091.51
641.27	59341.94
641.42	58990.86
641.57	58988.52
641.72	59091.51
641.86	58976.82
642.01	59002.56
642.16	58820.00
642.31	59140.66
642.45	59110.23
642.60	59084.48
642.75	59077.46
642.90	58960.44
643.04	59054.06
643.19	58775.53
643.34	59009.59
643.48	58841.07
643.63	59009.59
643.78	58890.22
643.93	58913.62
644.07	59009.59
644.22	58742.77
644.37	58539.14
644.51	58592.97
644.66	58911.28
644.81	58841.07
644.95	58887.88
645.10	58607.01
645.25	58754.47
645.39	58555.52
645.54	58658.51
645.69	58567.23
645.83	58644.46
645.98	58759.15
646.13	58768.51
646.27	58658.51
646.42	58642.12
646.57	58518.07
646.71	58691.27
646.86	58515.73
647.00	58560.20
647.15	58504.03
647.30	58499.35
647.44	58492.33
647.59	58379.98
647.74	58667.87
647.88	58611.70
648.03	58508.71
648.17	58569.57
648.32	58286.36
648.47	58482.97
648.61	58431.47
648.76	58529.78
648.90	58436.16
649.05	58368.28
649.20	58515.73
649.34	58403.39
649.49	58323.81
649.63	58396.37
649.78	58412.75
649.92	58312.11
650.07	58501.69
650.21	58073.37
650.36	58487.65
650.51	58239.55
650.65	58379.98
650.80	58239.55
650.94	58183.38
651.09	58054.65
651.23	57993.79
651.38	57961.03
651.52	57911.88
651.67	58082.73
651.81	57977.41
651.96	57951.66
652.10	58115.50
652.25	57923.58
652.39	57886.13
652.54	57752.72
652.68	57719.95
652.83	57687.18
652.97	57841.66
653.12	57982.09
653.26	57825.28
653.41	57844.00
653.55	58082.73
653.70	57902.51
653.84	57939.96
653.99	57888.47
654.13	57851.02
654.27	57696.55
654.42	57726.97
654.56	57733.99
654.71	57712.93
654.85	57904.85
655.00	57759.74
655.14	57682.50
655.29	57542.07
655.43	57579.52
655.57	57635.69
655.72	57612.29
655.86	57635.69
656.01	57443.77
656.15	57476.54
656.30	57481.22
656.44	57722.29
656.58	57680.16
656.73	57642.71
656.87	57619.31
657.01	57471.85
657.16	57649.74
657.30	57350.15
657.45	57228.44
657.59	57542.07
657.73	57214.40
657.88	57340.78
658.02	57298.65
658.16	57165.24
658.31	57015.45
658.45	57092.69
658.60	57331.42
658.74	57319.72
658.88	57338.44
659.03	56996.73
659.17	57118.43
659.31	57071.62
659.46	57106.73
659.60	57102.05
659.74	57020.13
659.89	56907.79
660.03	57073.96
660.17	57031.83
660.32	57064.60
660.46	57029.49
660.60	56704.16
660.74	56896.08
660.89	56868.00
661.03	56652.67
661.17	56463.08
661.32	56287.54
661.46	56666.71
661.60	56701.82
661.74	56711.18
661.89	56327.33
662.03	56367.12
662.17	56493.51
662.31	56343.72
662.46	56268.82
662.60	56568.41
662.74	56170.52
662.88	56025.40
663.03	56025.40
663.17	56062.85
663.31	55978.59
663.45	55990.30
663.60	55948.17
663.74	55915.40
663.88	55936.46
664.02	55812.41
664.17	55852.20
664.31	55859.23
664.45	55826.46
664.59	55753.90
664.73	55765.60
664.88	55592.40
665.02	55451.97
665.16	55524.53
665.30	55533.89
665.44	55742.20
665.59	55477.72
665.73	55512.83
665.87	55454.31
666.01	55283.45
666.15	55327.92
666.29	55220.26
666.44	55473.04
666.58	55196.85
666.72	55133.66
666.86	55107.91
667.00	55079.83
667.14	54841.09
667.28	54972.16
667.43	54883.22
667.57	55025.99
667.71	54805.98
667.85	54850.45
667.99	54953.44
668.13	54815.35
668.27	54550.87
668.41	54733.43
668.56	54244.26
668.70	54199.79
668.84	54555.55
668.98	54162.34
669.12	54328.52
669.26	54415.11
669.40	54419.80
669.54	54457.24
669.68	53897.86
669.82	54321.49
669.96	54380.01
670.10	54248.94
670.25	54328.52
670.39	54164.68
670.53	53862.75
670.67	53771.47
670.81	54082.76
670.95	53612.31
671.09	53593.59
671.23	53670.82
671.37	53684.87
671.51	53572.52
671.65	53794.87
671.79	53425.07
671.93	53366.55
672.07	53427.41
672.21	53146.54
672.35	52938.24
672.49	52868.02
672.63	52769.72
672.77	52722.91
672.91	52861.00
673.05	52800.15
673.19	52603.54
673.33	52521.62
673.47	52229.05
673.61	52500.56
673.75	52364.81
673.89	52095.64
674.03	52121.39
674.17	52009.04
674.31	51964.57
674.45	51845.21
674.59	51863.93
674.73	51913.08
674.87	51870.95
675.01	51585.41
675.15	51655.62
675.29	51653.28
675.43	51798.40
675.56	51419.23
675.70	51267.09
675.84	51412.21
675.98	50305.13
676.12	50932.40
676.26	50974.53
676.40	50688.98
676.54	50850.48
676.68	50663.24
676.82	50178.75
676.96	50024.27
677.10	50380.03
677.23	50295.77
677.37	50115.55
677.51	50272.37
677.65	49673.19
677.79	48877.41
677.93	49155.93
678.07	49338.49
678.21	49223.81
678.34	49633.40
678.48	49092.74
678.62	48706.55
678.76	48851.66
678.90	49127.84
679.04	48299.30
679.18	48839.96
679.31	48285.25
679.45	48165.88
679.59	48006.73
679.73	48119.07
679.87	48093.33
680.00	47466.06
680.14	47653.31
680.28	47386.49
680.42	47192.22
680.56	47103.28
680.70	46614.11
680.83	46749.86
680.97	47044.77
681.11	47147.75
681.25	46887.95
681.39	46850.50
681.52	46527.51
681.66	46422.19
681.80	46045.36
681.94	46394.10
682.07	46344.95
682.21	45385.33
682.35	45329.16
682.49	45294.05
682.62	45408.73
682.76	45497.67
682.90	45354.90
683.04	45209.79
683.17	44758.06
683.31	44722.96
683.45	44886.79
683.59	44252.51
683.72	44076.97
683.86	44304.00
684.00	44098.03
684.13	44119.10
684.27	43742.27
684.41	44186.97
684.55	43723.55
684.68	43910.79
684.82	43667.37
684.96	43222.67
685.09	42857.55
685.23	42520.51
685.37	42735.84
685.50	42588.39
685.64	42511.15
685.78	42277.10
685.91	42628.18
686.05	41771.54
686.19	41429.82
686.32	41603.02
686.46	40994.48
686.60	41413.44
686.73	41041.29
686.87	40842.35
687.01	41104.49
687.14	41174.70
687.28	40369.56
687.42	40547.44
687.55	40325.09
687.69	40392.97
687.82	39704.85
687.96	39826.56
688.10	39431.01
688.23	40453.82
688.37	39562.08
688.50	39552.71
688.64	39140.78
688.78	39323.34
688.91	38462.02
689.05	38848.21
689.18	38452.66
689.32	37783.27
689.46	37696.67
689.59	37455.59
689.73	37429.85
689.86	37677.94
690.00	37099.83
690.13	37834.76
690.27	37443.89
690.41	37640.50
690.54	36994.51
690.68	36706.62
690.81	36886.84
690.95	36701.94
691.08	36404.69
691.22	36367.24
691.35	36121.49
691.49	36786.20
691.62	36147.23
691.76	35477.84
691.89	35199.32
692.03	35496.56
692.16	35604.23
692.30	35168.89
692.43	35213.36
692.57	34822.49
692.70	34565.03
692.84	34565.03
692.97	34520.56
693.11	34579.07
693.24	34440.98
693.38	33979.90
693.51	33809.04
693.65	33757.55
693.78	33439.23
693.92	34054.79
694.05	33488.38
694.19	33198.16
694.32	33525.83
694.45	32985.17
694.59	33022.62
694.72	33146.67
694.86	32456.21
694.99	32311.10
695.13	32121.51
695.26	31786.82
695.39	31391.26
695.53	31941.29
695.66	31840.65
695.80	31590.21
695.93	31515.31
696.07	30859.96
696.20	30651.66
696.33	30740.60
696.47	30946.56
696.60	30845.92
696.73	30586.12
696.87	30288.87
697.00	30150.78
697.14	30199.93
697.27	30040.78
697.40	30127.38
697.54	29830.13
697.67	30043.12
697.80	29275.42
697.94	29472.03
698.07	29132.65
698.21	29516.50
698.34	28889.23
698.47	28776.89
698.61	28343.89
698.74	28484.32
698.87	28723.05
699.01	28259.63
699.14	28383.68
699.27	27931.95
699.40	28046.64
699.54	28212.82
699.67	28114.52
699.80	27304.69
699.94	27590.24
700.07	27417.04
700.20	27061.27
700.34	26841.26
700.47	26621.25
700.60	26345.07
700.73	26511.25
700.87	26005.69
701.00	26277.19
701.13	26101.65
701.26	25977.61
701.40	26012.71
701.53	25979.95
701.66	26089.95
701.79	25446.30
701.93	25326.94
702.06	24936.07
702.19	24954.79
702.32	25315.23
702.46	25060.12
702.59	24634.14
702.72	24496.05
702.85	24470.30
702.99	24610.73
703.12	24439.87
703.25	24166.03
703.38	24161.35
703.51	23775.16
703.65	23396.00
703.78	23185.35
703.91	23002.78
704.04	23606.64
704.17	23470.89
704.31	23271.95
704.44	23197.05
704.57	22993.42
704.70	22401.27
704.83	22436.38
704.96	22562.76
705.10	22160.19
705.23	22466.80
>>>>>End Processed Spectral Data<<<<<
