SpectraSuite Data File
++++++++++++++++++++++++++++++++++++
Date: Fri Oct 25 11:26:20 EDT 2013
User: price-jones
Dark Spectrum Present: No
Reference Spectrum Present: No
Number of Sampled Component Spectra: 1
Spectrometers: USB2+H05261
Integration Time (usec): 100000 (USB2+H05261)
Spectra Averaged: 1 (USB2+H05261)
Boxcar Smoothing: 0 (USB2+H05261)
Correct for Electrical Dark: No (USB2+H05261)
Strobe/Lamp Enabled: No (USB2+H05261)
Correct for Detector Non-linearity: No (USB2+H05261)
Correct for Stray Light: No (USB2+H05261)
Number of Pixels in Processed Spectrum: 2048
>>>>>Begin Processed Spectral Data<<<<<
365.73	175.54
365.92	175.54
366.12	175.54
366.32	180.22
366.52	72.56
366.72	163.84
366.91	60.85
367.11	119.37
367.31	145.11
367.51	175.54
367.70	117.03
367.90	121.71
368.10	142.77
368.30	126.39
368.49	110.01
368.69	161.50
368.89	154.48
369.09	140.43
369.28	163.84
369.48	196.60
369.68	161.50
369.87	140.43
370.07	196.60
370.27	273.84
370.47	311.29
370.66	596.84
370.86	667.05
371.06	688.12
371.25	770.04
371.45	716.20
371.65	648.33
371.84	718.54
372.04	678.76
372.24	695.14
372.44	709.18
372.63	758.33
372.83	809.83
373.03	800.46
373.22	753.65
373.42	819.19
373.62	802.80
373.81	821.53
374.01	781.74
374.21	830.89
374.40	830.89
374.60	828.55
374.79	786.42
374.99	784.08
375.19	898.77
375.38	819.19
375.58	875.36
375.78	809.83
375.97	870.68
376.17	887.06
376.37	908.13
376.56	863.66
376.76	891.74
376.95	830.89
377.15	809.83
377.35	954.94
377.54	947.92
377.74	828.55
377.93	891.74
378.13	1004.09
378.33	933.87
378.52	887.06
378.72	952.60
378.91	912.81
379.11	903.45
379.31	992.39
379.50	957.28
379.70	954.94
379.89	999.41
380.09	976.00
380.28	999.41
380.48	954.94
380.68	950.26
380.87	968.98
381.07	1041.54
381.26	1060.26
381.46	1043.88
381.65	992.39
381.85	992.39
382.04	910.47
382.24	1088.35
382.43	1121.12
382.63	1093.03
382.83	1006.43
383.02	1212.40
383.22	1036.86
383.41	1093.03
383.61	1160.91
383.80	1107.07
384.00	1144.52
384.19	1198.35
384.39	1139.84
384.58	1181.97
384.78	1160.91
384.97	1170.27
385.17	1205.38
385.36	1163.25
385.56	1203.04
385.75	1142.18
385.95	1146.86
386.14	1207.72
386.34	1221.76
386.53	1167.93
386.72	1217.08
386.92	1249.85
387.11	1261.55
387.31	1256.87
387.50	1256.87
387.70	1263.89
387.89	1181.97
388.09	1240.48
388.28	1254.53
388.48	1247.51
388.67	1254.53
388.86	1310.70
389.06	1245.16
389.25	1324.74
389.45	1259.21
389.64	1303.68
389.84	1376.24
390.03	1320.06
390.22	1439.43
390.42	1294.32
390.61	1338.79
390.81	1380.92
391.00	1427.73
391.19	1500.28
391.39	1397.30
391.58	1434.75
391.78	1511.99
391.97	1479.22
392.16	1425.39
392.36	1533.05
392.55	1514.33
392.75	1514.33
392.94	1561.14
393.13	1549.43
393.33	1474.54
393.52	1596.25
393.71	1502.62
393.91	1612.63
394.10	1540.07
394.29	1565.82
394.49	1572.84
394.68	1643.06
394.88	1652.42
395.07	1699.23
395.26	1673.48
395.46	1654.76
395.65	1741.36
395.84	1795.19
396.04	1764.76
396.23	1727.32
396.42	1706.25
396.62	1750.72
396.81	1675.82
397.00	1732.00
397.19	1713.27
397.39	1884.13
397.58	1870.09
397.77	1767.10
397.97	1867.75
398.16	1795.19
398.35	1870.09
398.55	1785.83
398.74	1902.86
398.93	1888.81
399.12	1877.11
399.32	1827.96
399.51	1900.52
399.70	1916.90
399.90	1987.11
400.09	2050.31
400.28	1980.09
400.47	2054.99
400.67	1987.11
400.86	2073.71
401.05	2141.59
401.24	2165.00
401.44	2172.02
401.63	2181.38
401.82	2186.06
402.01	2221.17
402.21	2094.78
402.40	2157.97
402.59	2242.23
402.78	2392.03
402.97	2148.61
403.17	2202.44
403.36	2338.20
403.55	2356.92
403.74	2305.43
403.93	2277.34
404.13	2291.38
404.32	2373.30
404.51	2377.98
404.70	2375.64
404.89	2324.15
405.09	2410.75
405.28	2509.05
405.47	2438.84
405.66	2480.97
405.85	2684.59
406.05	2469.27
406.24	2506.71
406.43	2579.27
406.62	2717.36
406.81	2492.67
407.00	2483.31
407.20	2572.25
407.39	2623.74
407.58	2612.04
407.77	2780.56
407.96	2806.30
408.15	2724.38
408.34	2715.02
408.54	2752.47
408.73	2796.94
408.92	2775.88
409.11	2895.24
409.30	3000.57
409.49	2951.42
409.68	2857.79
409.87	2913.97
410.07	2885.88
410.26	3197.17
410.45	3000.57
410.64	3049.72
410.83	3012.27
411.02	3002.91
411.21	3215.90
411.40	3143.34
411.59	3243.98
411.78	3159.72
411.98	3119.93
412.17	3297.81
412.36	3283.77
412.55	3297.81
412.74	3426.54
412.93	3487.40
413.12	3384.41
413.31	3466.33
413.50	3517.83
413.69	3398.46
413.88	3581.02
414.07	3588.04
414.26	3611.45
414.45	3571.66
414.64	3499.10
414.83	3588.04
415.02	3723.79
415.22	3775.28
415.41	3735.50
415.60	3941.46
415.79	3920.40
415.98	3960.19
416.17	3927.42
416.36	3934.44
416.55	4046.79
416.74	4201.26
416.93	3957.85
417.12	4046.79
417.31	4121.68
417.50	4219.99
417.69	4318.29
417.88	4229.35
418.07	4241.05
418.26	4285.52
418.45	4358.08
418.64	4425.95
418.83	4329.99
419.02	4582.77
419.21	4456.38
419.39	4624.90
419.58	4407.23
419.77	4449.36
419.96	4564.04
420.15	4505.53
420.34	4578.09
420.53	4620.22
420.72	4601.49
420.91	4550.00
421.10	4699.80
421.29	4842.57
421.48	4720.86
421.67	4599.15
421.86	4732.56
422.05	4692.77
422.24	4650.64
422.43	4901.08
422.61	4903.42
422.80	4961.94
422.99	4826.18
423.18	5029.81
423.37	4983.00
423.56	4966.62
423.75	4959.60
423.94	4798.10
424.13	4592.13
424.32	4660.01
424.50	4950.23
424.69	5203.01
424.88	5015.77
425.07	5008.75
425.26	4917.47
425.45	4926.83
425.64	4987.68
425.83	4865.97
426.01	4924.49
426.20	4915.12
426.39	4898.74
426.58	5170.24
426.77	5146.84
426.96	5242.80
427.15	5109.39
427.33	5144.50
427.52	5146.84
427.71	5294.29
427.90	5289.61
428.09	5301.31
428.28	5130.45
428.46	5158.54
428.65	5203.01
428.84	5413.66
429.03	5352.81
429.22	5275.57
429.40	5390.25
429.59	5458.13
429.78	5327.06
429.97	5256.84
430.16	5589.20
430.34	5633.67
430.53	5612.60
430.72	5570.48
430.91	5645.37
431.10	5577.50
431.28	5696.86
431.47	5668.78
431.66	5699.20
431.85	5795.17
432.03	5743.67
432.22	5856.02
432.41	5916.87
432.60	5886.45
432.79	6024.54
432.97	5994.11
433.16	6033.90
433.35	6010.50
433.54	6022.20
433.72	6047.94
433.91	6005.81
434.10	6141.57
434.28	6059.65
434.47	6122.84
434.66	6181.35
434.85	6317.11
435.03	6560.52
435.22	6328.81
435.41	6441.15
435.59	6363.92
435.78	6363.92
435.97	6452.86
436.16	6399.02
436.34	6579.25
436.53	6464.56
436.72	6576.91
436.90	6483.28
437.09	6658.82
437.28	6274.98
437.46	6626.06
437.65	6691.59
437.84	6799.26
438.02	6913.94
438.21	6675.21
438.40	6799.26
438.58	6979.48
438.77	6883.52
438.96	6815.64
439.14	7070.76
439.33	7096.50
439.52	7487.37
439.70	7178.42
439.89	7351.62
440.08	7248.64
440.26	7208.85
440.45	7435.88
440.63	7360.98
440.82	7475.67
441.01	7478.01
441.19	7440.56
441.38	7744.83
441.57	7756.54
441.75	7950.80
441.94	7943.78
442.12	7920.37
442.31	7875.90
442.50	7864.20
442.68	7985.91
442.87	7948.46
443.05	7953.14
443.24	8175.49
443.43	7990.59
443.61	8065.49
443.80	8638.92
443.98	8093.57
444.17	7791.64
444.35	8205.92
444.54	8259.75
444.73	8252.73
444.91	8292.52
445.10	8430.61
445.28	8374.44
445.47	8138.04
445.65	8454.02
445.84	8229.32
446.02	8531.25
446.21	8491.46
446.39	8505.51
446.58	8477.42
446.77	8465.72
446.95	8313.58
447.14	8601.47
447.32	8542.96
447.51	8315.92
447.69	8451.67
447.88	8374.44
448.06	8437.63
448.25	8517.21
448.43	8496.14
448.62	8498.49
448.80	8411.89
448.99	8528.91
449.17	8596.79
449.36	8667.00
449.54	8622.53
449.73	8690.41
449.91	9011.06
450.10	8901.06
450.28	9090.64
450.46	8889.35
450.65	8805.10
450.83	8835.52
451.02	9142.13
451.20	9172.56
451.39	8987.66
451.57	9060.21
451.76	9076.60
451.94	9060.21
452.13	9233.41
452.31	9453.42
452.49	9188.94
452.68	9444.06
452.86	9371.50
453.05	9504.92
453.23	9476.83
453.42	9359.80
453.60	9188.94
453.78	9415.98
453.97	9226.39
454.15	9584.49
454.34	9549.39
454.52	9680.46
454.70	9703.86
454.89	9764.72
455.07	9598.54
455.26	9741.31
455.44	9816.21
455.62	10015.15
455.81	9998.77
455.99	9823.23
456.17	9902.81
456.36	10045.58
456.54	10076.01
456.73	10195.37
456.91	10476.24
457.09	10389.64
457.28	10331.12
457.46	9998.77
457.64	10375.59
457.83	10459.85
458.01	10565.18
458.19	10684.55
458.38	10445.81
458.56	10686.89
458.74	10637.73
458.93	10497.30
459.11	10661.14
459.29	10604.97
459.48	10822.64
459.66	10670.50
459.84	10534.75
460.03	11044.99
460.21	10991.16
460.39	10839.02
460.57	11007.54
460.76	11199.46
460.94	11019.24
461.12	11124.57
461.31	11171.38
461.49	11295.43
461.67	11316.49
461.85	11405.43
462.04	11239.25
462.22	11761.19
462.40	11569.27
462.59	11386.71
462.77	11641.82
462.95	11562.25
463.13	11618.42
463.32	11358.62
463.50	11590.33
463.68	11559.91
463.86	11751.83
464.05	11714.38
464.23	11765.87
464.41	11913.33
464.59	11494.37
464.78	12168.45
464.96	11978.86
465.14	11648.85
465.32	12112.27
465.50	12063.12
465.69	12248.02
465.87	11866.52
466.05	11871.20
466.23	12044.40
466.41	12283.13
466.60	12437.61
466.78	12140.36
466.96	12273.77
467.14	11992.90
467.32	12133.34
467.51	12428.24
467.69	12222.28
467.87	12355.69
468.05	12470.37
468.23	12306.54
468.41	12578.04
468.60	12528.89
468.78	12688.04
468.96	12505.48
469.14	12992.31
469.32	12776.98
469.50	12699.75
469.69	12884.65
469.87	12908.05
470.05	12844.86
470.23	13191.26
470.41	13144.45
470.59	13221.69
470.77	13151.47
470.95	13071.89
471.14	13612.56
471.32	13172.54
471.50	13607.87
471.68	13568.09
471.86	13411.27
472.04	13654.69
472.22	14066.62
472.40	13621.92
472.58	14005.77
472.77	14031.51
472.95	13809.16
473.13	14527.71
473.31	14178.97
473.49	13933.21
473.67	14005.77
473.85	14298.33
474.03	14600.26
474.21	14572.18
474.39	14466.85
474.57	14864.74
474.75	14654.09
474.93	14740.69
475.12	14974.75
475.30	15103.48
475.48	14944.32
475.66	15194.76
475.84	15248.59
476.02	15374.98
476.20	15391.36
476.38	15531.80
476.56	15932.03
476.74	15810.32
476.92	15873.51
477.10	15796.28
477.28	16358.00
477.46	16217.57
477.64	15868.83
477.82	16362.69
478.00	16821.43
478.18	16657.59
478.36	16755.90
478.54	17022.72
478.72	16989.95
478.90	17436.99
479.08	17411.25
479.26	17635.94
479.44	17521.25
479.62	17907.44
479.80	18059.57
479.98	18054.89
480.16	18572.15
480.34	17877.01
480.52	18375.55
480.70	18555.77
480.88	18370.86
481.06	18651.73
481.24	18658.75
481.41	19108.13
481.59	19328.14
481.77	19302.40
481.95	19634.75
482.13	19531.77
482.31	19470.92
482.49	20093.50
482.67	20081.80
482.85	20477.35
483.03	20556.93
483.21	20840.13
483.39	20781.62
483.57	20580.33
483.74	20917.37
483.92	21348.03
484.10	20943.11
484.28	21509.52
484.46	21902.73
484.64	22373.18
484.82	21584.42
485.00	22244.45
485.18	22857.67
485.35	22806.18
485.53	22597.87
485.71	23098.75
485.89	23384.29
486.07	23545.79
486.25	23267.27
486.43	23229.82
486.61	23590.26
486.78	24018.58
486.96	23819.63
487.14	24491.37
487.32	24329.87
487.50	24554.56
487.68	24915.00
487.85	25245.02
488.03	25380.77
488.21	25565.67
488.39	25336.30
488.57	25792.70
488.75	25764.62
488.92	26387.20
489.10	26691.47
489.28	26682.11
489.46	26890.41
489.64	26607.21
489.81	27690.88
489.99	27402.99
490.17	27775.14
490.35	28084.09
490.53	28168.35
490.70	28460.91
490.88	28222.18
491.06	28795.61
491.24	28730.08
491.41	28980.51
491.59	29357.34
491.77	29214.57
491.95	29502.45
492.13	29343.30
492.30	29991.62
492.48	29750.55
492.66	29930.77
492.84	29890.98
493.01	30632.93
493.19	30274.83
493.37	30749.96
493.54	31026.14
493.72	31171.25
493.90	31377.22
494.08	31147.85
494.25	32137.90
494.43	31850.01
494.61	32268.97
494.79	32203.43
494.96	32591.96
495.14	32521.74
495.32	32912.61
495.49	33237.95
495.67	32921.98
495.85	33296.46
496.02	33727.12
496.20	33984.58
496.38	33963.51
496.55	34022.03
496.73	34827.17
496.91	34164.80
497.09	34890.37
497.26	34672.70
497.44	34597.80
497.62	34693.76
497.79	35519.97
497.97	35473.16
498.14	35931.90
498.32	35899.14
498.50	35770.41
498.67	36535.76
498.85	36184.68
499.03	36371.92
499.20	36699.60
499.38	36559.17
499.56	36905.57
499.73	37132.60
499.91	37266.01
500.08	37528.15
500.26	37191.11
500.44	37390.06
500.61	37701.35
500.79	37560.92
500.97	38022.00
501.14	38447.98
501.32	38354.36
501.49	38462.02
501.67	38272.44
501.84	38586.07
502.02	38653.95
502.20	38562.67
502.37	38822.47
502.55	39000.35
502.72	39215.68
502.90	39405.26
503.07	39239.08
503.25	39702.51
503.43	39791.45
503.60	40034.86
503.78	40224.45
503.95	39910.82
504.13	39854.64
504.30	40580.21
504.48	39969.33
504.65	40711.28
504.83	41134.92
505.01	41715.37
505.18	40374.24
505.36	41441.53
505.53	40772.13
505.71	41621.75
505.88	41656.85
506.06	40772.13
506.23	41834.74
506.41	41780.90
506.58	41706.01
506.76	41649.83
506.93	41926.02
507.11	42450.30
507.28	42302.84
507.46	42433.91
507.63	42525.19
507.81	43009.68
507.98	42672.65
508.16	42719.46
508.33	42682.01
508.50	43112.67
508.68	43264.80
508.85	43295.23
509.03	43400.55
509.20	43856.96
509.38	44212.72
509.55	43660.35
509.73	44357.83
509.90	44236.12
510.08	44254.85
510.25	44168.25
510.42	44535.71
510.60	44701.89
510.77	45081.06
510.95	45331.50
511.12	45118.51
511.30	45052.97
511.47	45174.68
511.64	45212.13
511.82	45237.87
511.99	45464.91
512.17	45481.29
512.34	45694.28
512.51	46216.22
512.69	46454.95
512.86	46251.33
513.04	46202.18
513.21	46721.77
513.38	46454.95
513.56	46810.71
513.73	46689.01
513.90	46618.79
514.08	46593.04
514.25	47161.79
514.43	47105.62
514.60	47154.77
514.77	47496.49
514.95	47461.38
515.12	47503.51
515.29	47629.90
515.47	47269.46
515.64	47894.38
515.81	47700.12
515.99	48009.07
516.16	48203.33
516.33	48072.26
516.51	48720.59
516.68	48081.63
516.85	48329.72
517.03	48498.24
517.20	48907.83
517.37	48725.27
517.54	48680.80
517.72	48699.53
517.89	49184.02
518.06	48954.64
518.24	49078.69
518.41	48678.46
518.58	49146.57
518.75	49289.34
518.93	49605.31
519.10	49525.74
519.27	49631.06
519.45	49607.65
519.62	49663.83
519.79	49696.59
519.96	49780.85
520.14	49872.14
520.31	49944.69
520.48	50358.97
520.65	50082.78
520.83	50499.40
521.00	50440.89
521.17	50494.72
521.34	50431.52
521.52	50808.35
521.69	50504.08
521.86	50681.96
522.03	50983.89
522.20	51075.17
522.38	51540.94
522.55	51077.51
522.72	51330.29
522.89	50803.67
523.07	51421.57
523.24	51302.20
523.41	51569.02
523.58	51473.06
523.75	51803.08
523.92	51484.76
524.10	51807.76
524.27	51751.59
524.44	51693.07
524.61	51875.63
524.78	51976.28
524.96	51819.46
525.13	51922.44
525.30	52121.39
525.47	52222.03
525.64	52533.32
525.81	52210.33
525.98	52215.01
526.16	52596.52
526.33	52666.73
526.50	52846.96
526.67	52538.01
526.84	52720.57
527.01	52615.24
527.18	52589.50
527.36	52603.54
527.53	52779.08
527.70	52898.45
527.87	53258.89
528.04	52896.11
528.21	53165.27
528.38	53343.15
528.55	53560.82
528.72	53347.83
528.89	53141.86
529.07	53251.87
529.24	53549.12
529.41	53525.71
529.58	53586.57
529.75	53380.60
529.92	53689.55
530.09	53429.75
530.26	53897.86
530.43	53759.76
530.60	53558.48
530.77	53935.30
530.94	53935.30
531.11	54174.04
531.28	54033.61
531.46	54160.00
531.63	53954.03
531.80	54171.70
531.97	54122.55
532.14	54171.70
532.31	54532.14
532.48	54429.16
532.65	54412.77
532.82	54335.54
532.99	54382.35
533.16	54468.95
533.33	54768.54
533.50	54403.41
533.67	54525.12
533.84	54550.87
534.01	54553.21
534.18	54831.73
534.35	54855.14
534.52	54906.63
534.69	55040.04
534.86	55217.92
535.03	54920.67
535.20	54890.24
535.37	55246.00
535.54	55086.85
535.71	54878.54
535.88	55236.64
536.05	55098.55
536.22	55267.07
536.38	55299.84
536.55	55484.74
536.72	55590.06
536.89	55089.19
537.06	55147.70
537.23	55456.65
537.40	55330.26
537.57	55585.38
537.74	55489.42
537.91	55774.97
538.08	55681.34
538.25	55716.45
538.42	55922.42
538.59	56222.01
538.75	55943.48
538.92	56144.77
539.09	55884.97
539.26	55936.46
539.43	55880.29
539.60	55936.46
539.77	55976.25
539.94	56453.72
540.11	55870.93
540.28	56306.27
540.44	56498.19
540.61	56315.63
540.78	56301.59
540.95	56437.34
541.12	56212.65
541.29	56069.87
541.46	56650.33
541.62	56411.59
541.79	56526.28
541.96	56420.95
542.13	56509.89
542.30	56537.98
542.47	56512.23
542.63	56624.58
542.80	56755.65
542.97	56982.68
543.14	57055.24
543.31	56807.14
543.48	57085.67
543.64	57256.53
543.81	57286.95
543.98	57153.54
544.15	57158.22
544.32	57228.44
544.48	57343.12
544.65	57366.53
544.82	57174.61
544.99	57062.26
545.16	57436.75
545.32	57329.08
545.49	57521.01
545.66	57343.12
545.83	57609.95
546.00	57488.24
546.16	57532.71
546.33	57434.41
546.50	57441.43
546.67	57750.38
546.83	57169.93
547.00	57563.14
547.17	57492.92
547.34	57888.47
547.50	57783.15
547.67	57968.05
547.84	57612.29
548.00	57881.45
548.17	58033.58
548.34	57914.22
548.51	58134.23
548.67	58010.18
548.84	57836.98
549.01	58031.24
549.18	57935.28
549.34	58054.65
549.51	58014.86
549.68	58267.64
549.84	58473.60
550.01	58312.11
550.18	58181.04
550.34	58195.08
550.51	58358.92
550.68	58478.28
550.84	58007.84
551.01	58492.33
551.18	58412.75
551.34	58478.28
551.51	58529.78
551.68	58473.60
551.84	58520.41
552.01	58436.16
552.18	58431.47
552.34	58410.41
552.51	58567.23
552.68	58389.34
552.84	58532.12
553.01	58791.92
553.18	58644.46
553.34	58766.17
553.51	58417.43
553.67	58735.74
553.84	58866.81
554.01	58688.93
554.17	58829.37
554.34	58969.80
554.51	59007.25
554.67	58838.73
554.84	58913.62
555.00	58997.88
555.17	58848.09
555.33	58759.15
555.50	58674.89
555.67	58894.90
555.83	58836.39
556.00	58897.24
556.16	59260.02
556.33	59068.10
556.50	59164.06
556.66	59192.15
556.83	59110.23
556.99	59241.30
557.16	59332.58
557.32	59351.30
557.49	59437.90
557.65	59152.36
557.82	59278.75
557.98	59304.49
558.15	59217.89
558.32	59243.64
558.48	59428.54
558.65	59337.26
558.81	59299.81
558.98	59213.21
559.14	59465.99
559.31	59517.48
559.47	59615.79
559.64	59484.72
559.80	59742.17
559.97	59550.25
560.13	59543.23
560.30	59620.47
560.46	59674.30
560.63	59536.21
560.79	59498.76
560.96	59683.66
561.12	59779.62
561.29	59714.09
561.45	59587.70
561.61	59718.77
561.78	59711.75
561.94	59653.23
562.11	59714.09
562.27	59796.01
562.44	59718.77
562.60	60027.72
562.77	59812.39
562.93	59819.41
563.10	59952.82
563.26	59753.88
563.42	59929.42
563.59	60020.70
563.75	59777.28
563.92	59927.08
564.08	59924.74
564.24	59812.39
564.41	59966.87
564.57	60128.36
564.74	59938.78
564.90	60100.28
565.07	60097.94
565.23	59898.99
565.39	59833.46
565.56	59920.05
565.72	60224.32
565.88	60051.12
566.05	60030.06
566.21	59976.23
566.38	59934.10
566.54	60062.83
566.70	60119.00
566.87	60121.34
567.03	60037.08
567.19	60236.03
567.36	60243.05
567.52	60090.91
567.68	60233.69
567.85	60418.59
568.01	60273.48
568.17	60163.47
568.34	60381.14
568.50	60088.57
568.66	60353.05
568.83	60369.44
568.99	60355.39
569.15	60402.21
569.32	60339.01
569.48	60257.09
569.64	60411.57
569.81	60395.18
569.97	60133.04
570.13	60296.88
570.30	60161.13
570.46	60182.19
570.62	60261.77
570.78	60348.37
570.95	60388.16
571.11	60491.15
571.27	60280.50
571.43	60266.45
571.60	60638.60
571.76	60320.29
571.92	60502.85
572.09	60533.28
572.25	60449.02
572.41	60353.05
572.57	60554.34
572.74	60582.43
572.90	60154.11
573.06	60528.59
573.22	60519.23
573.38	60266.45
573.55	60594.13
573.71	60617.53
573.87	60472.42
574.03	60495.83
574.20	60629.24
574.36	60427.95
574.52	60647.96
574.68	60519.23
574.84	60554.34
575.01	60575.40
575.17	60605.83
575.33	60650.30
575.49	60411.57
575.65	60549.66
575.82	60809.46
575.98	60725.20
576.14	60814.14
576.30	60757.97
576.46	60514.55
576.62	60533.28
576.79	60753.29
576.95	60385.82
577.11	60746.26
577.27	60704.13
577.43	60706.47
577.59	60706.47
577.75	60678.39
577.92	60413.91
578.08	60647.96
578.24	60699.45
578.40	60816.48
578.56	60828.18
578.72	60750.94
578.88	60942.87
579.04	60947.55
579.21	60746.26
579.37	60907.76
579.53	60828.18
579.69	60484.12
579.85	60622.22
580.01	60753.29
580.17	60685.41
580.33	60764.99
580.49	60879.67
580.65	60727.54
580.82	60701.79
580.98	60629.24
581.14	60654.98
581.30	60832.86
581.46	60659.66
581.62	60701.79
581.78	60729.88
581.94	60900.74
582.10	60633.92
582.26	60860.95
582.42	60638.60
582.58	60849.25
582.74	60807.12
582.90	60816.48
583.06	60706.47
583.22	60767.33
583.38	60811.80
583.54	60982.66
583.70	60676.05
583.86	60917.12
584.02	60814.14
584.18	60809.46
584.34	60882.02
584.50	60753.29
584.66	60687.75
584.82	60591.79
584.98	61235.44
585.14	60989.68
585.30	60727.54
585.46	60919.46
585.62	60882.02
585.78	60898.40
585.94	60877.33
586.10	61043.51
586.26	61029.47
586.42	60912.44
586.58	61099.68
586.74	60973.30
586.90	60963.93
587.06	60755.63
587.22	61031.81
587.38	60947.55
587.54	61155.86
587.70	61219.05
587.86	60877.33
588.02	60940.53
588.18	61008.40
588.34	60975.64
588.49	61001.38
588.65	60774.35
588.81	61017.77
588.97	61029.47
589.13	60968.61
589.29	60968.61
589.45	61221.39
589.61	61343.10
589.77	61345.44
589.93	61195.65
590.08	61104.37
590.24	61261.18
590.40	61345.44
590.56	61340.76
590.72	61179.26
590.88	60996.70
591.04	61272.88
591.20	61387.57
591.35	61361.82
591.51	61408.64
591.67	61329.06
591.83	61235.44
591.99	61303.31
592.15	61186.28
592.31	61382.89
592.46	61249.48
592.62	61080.96
592.78	61230.75
592.94	61474.17
593.10	61364.17
593.26	61205.01
593.41	61181.60
593.57	61331.40
593.73	61368.85
593.89	61474.17
594.05	61551.41
594.20	61221.39
594.36	61401.61
594.52	61371.19
594.68	61427.36
594.84	61263.52
594.99	61291.61
595.15	61415.66
595.31	61443.74
595.47	61403.95
595.62	61350.12
595.78	61350.12
595.94	61375.87
596.10	61476.51
596.25	61560.77
596.41	61380.55
596.57	61408.64
596.73	61392.25
596.88	61483.53
597.04	61502.26
597.20	61394.59
597.36	61488.21
597.51	61577.15
597.67	61558.43
597.83	61347.78
597.99	61567.79
598.14	61378.21
598.30	61516.30
598.46	61389.91
598.61	61764.40
598.77	61460.13
598.93	61462.47
599.09	61436.72
599.24	61794.82
599.40	61708.22
599.56	61757.38
599.71	61743.33
599.87	61855.68
600.03	61558.43
600.18	61623.96
600.34	61722.27
600.50	61811.21
600.65	61549.07
600.81	61670.78
600.97	61769.08
601.12	61694.18
601.28	61413.32
601.44	61553.75
601.59	61619.28
601.75	61432.04
601.91	61542.05
602.06	61570.13
602.22	61874.40
602.37	61600.56
602.53	61689.50
602.69	61609.92
602.84	61614.60
603.00	61567.79
603.16	61633.33
603.31	61708.22
603.47	61715.25
603.62	61570.13
603.78	61797.16
603.94	61670.78
604.09	61764.40
604.25	61602.90
604.40	61380.55
604.56	61528.00
604.71	61516.30
604.87	61673.12
605.03	61696.52
605.18	61605.24
605.34	61598.22
605.49	61621.62
605.65	61656.73
605.80	61708.22
605.96	61666.09
606.12	61799.50
606.27	61586.52
606.43	61593.54
606.58	61748.01
606.74	61579.49
606.89	61843.98
607.05	61820.57
607.20	61661.41
607.36	61371.19
607.51	61490.55
607.67	61485.87
607.82	61579.49
607.98	61504.60
608.13	61528.00
608.29	61638.01
608.44	61715.25
608.60	61574.81
608.75	61385.23
608.91	61322.04
609.06	61441.40
609.22	61642.69
609.37	61347.78
609.53	61432.04
609.68	61497.58
609.84	61380.55
609.99	61537.36
610.15	61558.43
610.30	61593.54
610.46	61523.32
610.61	61511.62
610.76	61495.24
610.92	61382.89
611.07	61520.98
611.23	61324.38
611.38	61490.55
611.54	61476.51
611.69	61450.77
611.84	61467.15
612.00	61361.82
612.15	61345.44
612.31	61315.01
612.46	61230.75
612.62	61249.48
612.77	61361.82
612.92	61286.93
613.08	61298.63
613.23	61256.50
613.39	61209.69
613.54	61155.86
613.69	61286.93
613.85	61333.74
614.00	61656.73
614.15	61338.42
614.31	61368.85
614.46	61258.84
614.62	61387.57
614.77	61307.99
614.92	61338.42
615.08	61193.31
615.23	61095.00
615.38	61249.48
615.54	61261.18
615.69	61003.72
615.84	61221.39
616.00	61422.68
616.15	61144.16
616.30	61329.06
616.46	61024.79
616.61	61055.21
616.76	60987.34
616.92	61055.21
617.07	61076.28
617.22	61008.40
617.37	61272.88
617.53	61244.80
617.68	61364.17
617.83	61055.21
617.99	61015.43
618.14	61151.18
618.29	61205.01
618.45	60954.57
618.60	60945.21
618.75	60835.20
618.90	61022.45
619.06	61097.34
619.21	61001.38
619.36	61076.28
619.51	60891.38
619.67	60858.61
619.82	61015.43
619.97	61057.56
620.12	60977.98
620.28	60725.20
620.43	61125.43
620.58	60931.17
620.73	60734.56
620.89	60947.55
621.04	61003.72
621.19	60858.61
621.34	60781.37
621.49	60612.85
621.65	60704.13
621.80	60961.59
621.95	60570.72
622.10	60884.36
622.25	60898.40
622.41	60800.10
622.56	60678.39
622.71	60762.65
622.86	60512.21
623.01	60664.35
623.16	60678.39
623.32	60734.56
623.47	60704.13
623.62	60750.94
623.77	60713.50
623.92	60851.59
624.07	60669.03
624.23	60530.93
624.38	60540.30
624.53	60561.36
624.68	60530.93
624.83	60542.64
624.98	60507.53
625.13	60346.03
625.29	60369.44
625.44	60441.99
625.59	60481.78
625.74	60406.89
625.89	60512.21
626.04	60271.14
626.19	60402.21
626.34	60381.14
626.49	60299.22
626.65	60142.41
626.80	60439.65
626.95	60214.96
627.10	60111.98
627.25	60147.09
627.40	60104.96
627.55	60257.09
627.70	60264.11
627.85	60430.29
628.00	60219.64
628.15	60104.96
628.30	60147.09
628.45	60025.38
628.60	59997.29
628.76	60357.74
628.91	60140.07
629.06	60027.72
629.21	60165.81
629.36	60198.58
629.51	59927.08
629.66	60154.11
629.81	59945.80
629.96	59840.48
630.11	60030.06
630.26	60088.57
630.41	60016.02
630.56	59800.69
630.71	59941.12
630.86	59934.10
631.01	59910.69
631.16	59901.33
631.31	59889.63
631.46	59491.74
631.61	59831.11
631.76	59870.90
631.91	60119.00
632.06	59964.52
632.21	60020.70
632.36	59723.45
632.51	59559.61
632.66	59634.51
632.81	59430.88
632.96	59714.09
633.10	59760.90
633.25	59973.89
633.40	59772.60
633.55	59845.16
633.70	59536.21
633.85	59559.61
634.00	59543.23
634.15	59604.08
634.30	59463.65
634.45	59676.64
634.60	59604.08
634.75	59524.50
634.90	59400.46
635.05	59561.95
635.19	59540.89
635.34	59618.13
635.49	59667.28
635.64	59458.97
635.79	59496.42
635.94	59458.97
636.09	59496.42
636.24	59615.79
636.39	59573.66
636.53	59482.37
636.68	59224.92
636.83	59608.76
636.98	59702.38
637.13	59398.12
637.28	59341.94
637.43	59480.03
637.57	59334.92
637.72	59208.53
637.87	59180.45
638.02	59341.94
638.17	59360.67
638.32	59302.15
638.46	59267.05
638.61	59543.23
638.76	59110.23
638.91	59175.76
639.06	59274.07
639.20	59217.89
639.35	59037.67
639.50	59011.93
639.65	59105.55
639.80	59138.32
639.94	59112.57
640.09	59213.21
640.24	58962.78
640.39	58915.96
640.54	58927.67
640.68	58990.86
640.83	59185.13
640.98	58941.71
641.13	58672.55
641.27	59025.97
641.42	58906.60
641.57	59145.34
641.72	58939.37
641.86	58857.45
642.01	58705.32
642.16	58677.23
642.31	58597.65
642.45	58812.98
642.60	58702.98
642.75	59089.16
642.90	58894.90
643.04	58838.73
643.19	58752.13
643.34	58639.78
643.48	58588.29
643.63	58735.74
643.78	58590.63
643.93	58632.76
644.07	58534.46
644.22	58560.20
644.37	58368.28
644.51	58475.94
644.66	58742.77
644.81	58562.54
644.95	58482.97
645.10	58553.18
645.25	58321.47
645.39	58368.28
645.54	58646.80
645.69	58281.68
645.83	58667.87
645.98	58541.48
646.13	58585.95
646.27	58459.56
646.42	58401.05
646.57	58356.58
646.71	58424.45
646.86	58181.04
647.00	58599.99
647.15	58298.06
647.30	58127.20
647.44	58532.12
647.59	58443.18
647.74	58454.88
647.88	58319.13
648.03	58438.50
648.17	58387.00
648.32	58113.16
648.47	58255.93
648.61	58007.84
648.76	58295.72
648.90	58277.00
649.05	58279.34
649.20	58131.89
649.34	58035.92
649.49	58258.27
649.63	58234.87
649.78	58213.80
649.92	58164.65
650.07	58398.71
650.21	58080.39
650.36	58054.65
650.51	57872.09
650.65	58145.93
650.80	58206.78
650.94	57996.13
651.09	57726.97
651.23	57605.26
651.38	57801.87
651.52	57694.21
651.67	57593.56
651.81	57853.36
651.96	57663.78
652.10	57874.43
652.25	57605.26
652.39	57668.46
652.54	57652.08
652.68	57521.01
652.83	57799.53
652.97	57804.21
653.12	57511.64
653.26	57619.31
653.41	57729.31
653.55	57827.62
653.70	57623.99
653.84	57829.96
653.99	57546.75
654.13	57897.83
654.27	57502.28
654.42	57535.05
654.56	57373.55
654.71	57567.82
654.85	57570.16
655.00	57715.27
655.14	57523.35
655.29	57436.75
655.43	57595.90
655.57	57359.51
655.72	57612.29
655.86	57411.00
656.01	57448.45
656.15	57303.34
656.30	57291.63
656.44	57490.58
656.58	57542.07
656.73	57513.98
656.87	57284.61
657.01	57155.88
657.16	57504.62
657.30	57123.11
657.45	56905.44
657.59	57006.09
657.73	57020.13
657.88	57008.43
658.02	57024.81
658.16	56753.31
658.31	57041.20
658.45	57186.31
658.60	57336.10
658.74	56914.81
658.88	57078.64
659.03	57045.88
659.17	56825.87
659.31	56872.68
659.46	56832.89
659.60	56931.19
659.74	56788.42
659.89	56678.41
660.03	56683.09
660.17	56816.50
660.32	56774.37
660.46	56779.06
660.60	56554.36
660.74	56666.71
660.89	56853.95
661.03	56355.42
661.17	56130.73
661.32	56334.35
661.46	56488.83
661.60	56456.06
661.74	56123.71
661.89	56144.77
662.03	56027.74
662.17	56090.94
662.31	56189.24
662.46	56100.30
662.60	56254.78
662.74	56170.52
662.88	56039.45
663.03	55875.61
663.17	55936.46
663.31	55889.65
663.45	55627.51
663.60	55463.67
663.74	55597.09
663.88	55781.99
664.02	55751.56
664.17	55709.43
664.31	55433.25
664.45	55473.04
664.59	55545.59
664.73	55700.07
664.88	55416.86
665.02	55267.07
665.16	55164.09
665.30	55285.79
665.44	55353.67
665.59	55126.64
665.73	55299.84
665.87	55098.55
666.01	55536.23
666.15	55313.88
666.29	55220.26
666.44	55079.83
666.58	54787.26
666.72	54787.26
666.86	55009.61
667.00	54761.51
667.14	54632.78
667.28	54625.76
667.43	54522.78
667.57	54899.61
667.71	54614.06
667.85	54340.22
667.99	54293.41
668.13	54506.40
668.27	54134.25
668.41	54185.74
668.56	54038.29
668.70	53954.03
668.84	53738.70
668.98	54255.96
669.12	54190.42
669.26	53979.78
669.40	53982.12
669.54	54031.27
669.68	54057.01
669.82	53811.26
669.96	53813.60
670.10	53972.75
670.25	54003.18
670.39	53881.47
670.53	53631.04
670.67	53572.52
670.81	53734.02
670.95	53624.01
671.09	53506.99
671.23	53521.03
671.37	53450.81
671.51	53495.28
671.65	53322.08
671.79	52935.90
671.93	53181.65
672.07	53097.39
672.21	53137.18
672.35	52865.68
672.49	52343.74
672.63	52561.41
672.77	52631.63
672.91	52252.46
673.05	52538.01
673.19	52523.96
673.33	52346.08
673.47	52210.33
673.61	52437.36
673.75	51894.36
673.89	52147.14
674.03	52041.81
674.17	51473.06
674.31	51679.03
674.45	51515.19
674.59	51573.70
674.73	51620.52
674.87	51545.62
675.01	51611.15
675.15	51496.47
675.29	51229.65
675.43	51075.17
675.56	51016.66
675.70	51016.66
675.84	50979.21
675.98	49977.46
676.12	51119.64
676.26	51068.15
676.40	50309.82
676.54	50429.18
676.68	50492.38
676.82	49834.69
676.96	50721.75
677.10	50160.02
677.23	50155.34
677.37	49736.38
677.51	49729.36
677.65	49064.65
677.79	48697.19
677.93	49083.37
678.07	48891.45
678.21	48823.58
678.34	48945.28
678.48	48556.75
678.62	48268.87
678.76	48423.34
678.90	48465.47
679.04	48526.33
679.18	48243.12
679.31	47882.68
679.45	47887.36
679.59	47742.25
679.73	48030.13
679.87	47756.29
680.00	47555.00
680.14	46969.87
680.28	47412.23
680.42	47297.55
680.56	46286.43
680.70	46635.17
680.83	46532.19
680.97	46459.63
681.11	46206.86
681.25	45867.48
681.39	46337.93
681.52	46527.51
681.66	46047.70
681.80	45581.93
681.94	45476.61
682.07	45408.73
682.21	45219.15
682.35	45530.44
682.49	44837.64
682.62	45277.66
682.76	45029.57
682.90	44921.90
683.04	44945.31
683.17	44205.70
683.31	43906.11
683.45	44437.41
683.59	43683.76
683.72	43852.28
683.86	43725.89
684.00	43700.14
684.13	44449.11
684.27	43613.54
684.41	43819.51
684.55	43412.26
684.68	43641.63
684.82	42974.58
684.96	42335.61
685.09	42700.73
685.23	41900.27
685.37	42586.05
685.50	42227.95
685.64	42162.41
685.78	42237.31
685.91	41935.38
686.05	41790.27
686.19	41174.70
686.32	41584.30
686.46	41001.50
686.60	40610.64
686.73	40446.80
686.87	40397.65
687.01	40755.75
687.14	40301.68
687.28	40112.10
687.42	40334.45
687.55	39978.69
687.69	39950.60
687.82	39452.07
687.96	39480.16
688.10	39667.40
688.23	39161.84
688.37	39269.51
688.50	38909.07
688.64	38831.83
688.78	38455.00
688.91	37951.79
689.05	38637.56
689.18	38424.57
689.32	37947.11
689.46	37041.32
689.59	37741.14
689.73	37926.04
689.86	37530.49
690.00	36987.49
690.13	37237.92
690.27	37408.78
690.41	37406.44
690.54	37151.32
690.68	36788.54
690.81	36519.38
690.95	36280.64
691.08	36428.10
691.22	36070.00
691.35	35512.95
691.49	35880.41
691.62	35700.19
691.76	35466.14
691.89	35606.57
692.03	34991.01
692.16	35136.12
692.30	34820.15
692.43	35211.02
692.57	34618.86
692.70	34534.60
692.84	34525.24
692.97	34513.54
693.11	34504.18
693.24	33986.92
693.38	33596.05
693.51	33586.69
693.65	33350.29
693.78	33333.91
693.92	33455.62
694.05	33504.77
694.19	32669.20
694.32	32919.63
694.45	32851.76
694.59	32659.84
694.72	32570.90
694.86	32219.81
694.99	31782.13
695.13	31646.38
695.26	32048.96
695.39	31295.30
695.53	31835.97
695.66	31868.73
695.80	31002.74
695.93	31051.89
696.07	29919.07
696.20	30281.85
696.33	30682.08
696.47	30955.93
696.60	30616.55
696.73	30415.26
696.87	30230.36
697.00	30141.42
697.14	30345.05
697.27	30043.12
697.40	29551.60
697.54	29649.91
697.67	29310.53
697.80	29106.90
697.94	29172.44
698.07	29205.20
698.21	29116.26
698.34	28912.64
698.47	28449.21
698.61	28304.10
698.74	28535.81
698.87	28425.81
699.01	28084.09
699.14	28224.52
699.27	28109.83
699.40	27917.91
699.54	27627.68
699.67	27440.44
699.80	27002.76
699.94	26824.88
700.07	27318.73
700.20	26735.94
700.34	26911.48
700.47	26380.18
700.60	26225.70
700.73	26345.07
700.87	26132.08
701.00	26066.55
701.13	25743.55
701.26	25755.26
701.40	25785.68
701.53	25600.78
701.66	25378.43
701.79	25572.69
701.93	25090.54
702.06	24954.79
702.19	24936.07
702.32	24664.57
702.46	24896.28
702.59	24376.68
702.72	24177.73
702.85	24542.86
702.99	24404.77
703.12	24009.22
703.25	23899.21
703.38	23587.92
703.51	23714.31
703.65	23183.01
703.78	23122.15
703.91	23281.31
704.04	23367.91
704.17	23075.34
704.31	22808.52
704.44	22712.56
704.57	22874.06
704.70	22441.06
704.83	22295.94
704.96	22487.87
705.10	22207.00
705.23	22043.17
>>>>>End Processed Spectral Data<<<<<
