SpectraSuite Data File
++++++++++++++++++++++++++++++++++++
Date: Fri Oct 25 11:26:06 EDT 2013
User: price-jones
Dark Spectrum Present: No
Reference Spectrum Present: No
Number of Sampled Component Spectra: 1
Spectrometers: USB2+H05261
Integration Time (usec): 100000 (USB2+H05261)
Spectra Averaged: 1 (USB2+H05261)
Boxcar Smoothing: 0 (USB2+H05261)
Correct for Electrical Dark: No (USB2+H05261)
Strobe/Lamp Enabled: No (USB2+H05261)
Correct for Detector Non-linearity: No (USB2+H05261)
Correct for Stray Light: No (USB2+H05261)
Number of Pixels in Processed Spectrum: 2048
>>>>>Begin Processed Spectral Data<<<<<
365.73	294.91
365.92	294.91
366.12	294.91
366.32	238.73
366.52	126.39
366.72	217.67
366.91	163.84
367.11	145.11
367.31	100.64
367.51	65.54
367.70	131.07
367.90	81.92
368.10	84.26
368.30	173.20
368.49	149.79
368.69	182.56
368.89	152.13
369.09	124.05
369.28	208.31
369.48	212.99
369.68	147.45
369.87	163.84
370.07	231.71
370.27	255.12
370.47	355.76
370.66	538.32
370.86	692.80
371.06	704.50
371.25	678.76
371.45	662.37
371.65	624.92
371.84	657.69
372.04	664.71
372.24	751.31
372.44	643.65
372.63	725.57
372.83	734.93
373.03	725.57
373.22	753.65
373.42	835.57
373.62	828.55
373.81	784.08
374.01	866.00
374.21	793.44
374.40	870.68
374.60	891.74
374.79	812.17
374.99	849.61
375.19	847.27
375.38	851.96
375.58	842.59
375.78	851.96
375.97	875.36
376.17	828.55
376.37	821.53
376.56	919.83
376.76	833.23
376.95	821.53
377.15	905.79
377.35	917.49
377.54	898.77
377.74	887.06
377.93	819.19
378.13	985.37
378.33	980.68
378.52	990.05
378.72	870.68
378.91	912.81
379.11	952.60
379.31	884.72
379.50	947.92
379.70	980.68
379.89	919.83
380.09	985.37
380.28	964.30
380.48	1020.47
380.68	983.02
380.87	999.41
381.07	957.28
381.26	1064.94
381.46	997.07
381.65	1027.50
381.85	992.39
382.04	1011.11
382.24	1093.03
382.43	1008.77
382.63	1177.29
382.83	1060.26
383.02	1048.56
383.22	1149.20
383.41	1137.50
383.61	1160.91
383.80	1053.24
384.00	1123.46
384.19	1144.52
384.39	1109.41
384.58	1200.69
384.78	1144.52
384.97	1158.57
385.17	1172.61
385.36	1179.63
385.56	1116.44
385.75	1114.10
385.95	1207.72
386.14	1252.19
386.34	1214.74
386.53	1123.46
386.72	1184.31
386.92	1294.32
387.11	1205.38
387.31	1238.14
387.50	1266.23
387.70	1226.44
387.89	1315.38
388.09	1198.35
388.28	1254.53
388.48	1210.06
388.67	1345.81
388.86	1320.06
389.06	1317.72
389.25	1331.76
389.45	1350.49
389.64	1291.98
389.84	1324.74
390.03	1385.60
390.22	1441.77
390.42	1418.36
390.61	1507.30
390.81	1411.34
391.00	1472.20
391.19	1425.39
391.39	1406.66
391.58	1502.62
391.78	1359.85
391.97	1521.35
392.16	1465.18
392.36	1504.96
392.55	1441.77
392.75	1469.86
392.94	1500.28
393.13	1530.71
393.33	1549.43
393.52	1575.18
393.71	1605.61
393.91	1500.28
394.10	1528.37
394.29	1645.40
394.49	1579.86
394.68	1605.61
394.88	1556.46
395.07	1682.85
395.26	1673.48
395.46	1619.65
395.65	1703.91
395.84	1657.10
396.04	1799.87
396.23	1692.21
396.42	1743.70
396.62	1767.10
396.81	1792.85
397.00	1788.17
397.19	1760.08
397.39	1834.98
397.58	1792.85
397.77	1804.55
397.97	1837.32
398.16	1839.66
398.35	1774.13
398.55	1909.88
398.74	1975.41
398.93	1886.47
399.12	1940.30
399.32	1837.32
399.51	1919.24
399.70	2031.58
399.90	2005.84
400.09	1980.09
400.28	1952.01
400.47	1980.09
400.67	2214.15
400.86	2052.65
401.05	2045.63
401.24	2113.50
401.44	2129.89
401.63	2111.16
401.82	2115.84
402.01	2125.21
402.21	2165.00
402.40	2310.11
402.59	2225.85
402.78	2277.34
402.97	2174.36
403.17	2335.85
403.36	2286.70
403.55	2228.19
403.74	2354.58
403.93	2267.98
404.13	2338.20
404.32	2438.84
404.51	2480.97
404.70	2438.84
404.89	2375.64
405.09	2480.97
405.28	2462.24
405.47	2527.78
405.66	2457.56
405.85	2478.63
406.05	2513.74
406.24	2562.89
406.43	2614.38
406.62	2724.38
406.81	2722.04
407.00	2658.85
407.20	2626.08
407.39	2597.99
407.58	2588.63
407.77	2850.77
407.96	2792.26
408.15	2757.15
408.34	2782.90
408.54	2827.37
408.73	2768.85
408.92	2853.11
409.11	2864.82
409.30	2878.86
409.49	2988.86
409.68	2832.05
409.87	2939.71
410.07	2991.20
410.26	2988.86
410.45	2899.92
410.64	3131.64
410.83	2937.37
411.02	3166.74
411.21	3169.09
411.40	3103.55
411.59	3227.60
411.78	3150.36
411.98	3040.36
412.17	3239.30
412.36	3213.56
412.55	3396.12
412.74	3440.59
412.93	3358.67
413.12	3447.61
413.31	3637.19
413.50	3534.21
413.69	3527.19
413.88	3543.57
414.07	3693.37
414.26	3630.17
414.45	3688.68
414.64	3733.15
414.83	3761.24
415.02	3735.50
415.22	3836.14
415.41	3838.48
415.60	3726.13
415.79	3836.14
415.98	3974.23
416.17	3941.46
416.36	3948.48
416.55	3927.42
416.74	4058.49
416.93	4140.41
417.12	4051.47
417.31	4128.70
417.50	4184.88
417.69	4229.35
417.88	4386.16
418.07	4236.37
418.26	4124.02
418.45	4402.55
418.64	4348.72
418.83	4322.97
419.02	4414.25
419.21	4442.34
419.39	4463.40
419.58	4362.76
419.77	4496.17
419.96	4718.52
420.15	4557.02
420.34	4655.33
420.53	4493.83
420.72	4727.88
420.91	4645.96
421.10	4777.03
421.29	4685.75
421.48	4730.22
421.67	4826.18
421.86	4671.71
422.05	4683.41
422.24	4765.33
422.43	4816.82
422.61	4842.57
422.80	5132.79
422.99	4816.82
423.18	4926.83
423.37	4968.96
423.56	4908.10
423.75	5025.13
423.94	4903.42
424.13	4704.48
424.32	4748.95
424.50	5039.17
424.69	5088.32
424.88	4980.66
425.07	4961.94
425.26	4868.31
425.45	4884.70
425.64	4877.68
425.83	4809.80
426.01	4994.70
426.20	5048.54
426.39	5081.30
426.58	5053.22
426.77	4868.31
426.96	5100.03
427.15	5069.60
427.33	5146.84
427.52	5132.79
427.71	5228.76
427.90	5224.08
428.09	5074.28
428.28	5364.51
428.46	5444.09
428.65	5273.23
428.84	5570.48
429.03	5502.60
429.22	5289.61
429.40	5446.43
429.59	5476.85
429.78	5355.15
429.97	5249.82
430.16	5509.62
430.34	5715.59
430.53	5589.20
430.72	5748.36
430.91	5579.84
431.10	5507.28
431.28	5666.44
431.47	5799.85
431.66	5643.03
431.85	5696.86
432.03	6022.20
432.22	6090.07
432.41	5982.41
432.60	5881.77
432.79	5930.92
432.97	5961.34
433.16	6073.69
433.35	5914.53
433.54	6054.97
433.72	6209.44
433.91	6043.26
434.10	6143.91
434.28	6066.67
434.47	6064.33
434.66	6300.72
434.85	6291.36
435.03	6375.62
435.22	6328.81
435.41	6642.44
435.59	6579.25
435.78	6441.15
435.97	6539.46
436.16	6389.66
436.34	6394.34
436.53	6413.07
436.72	6621.38
436.90	6452.86
437.09	6670.53
437.28	6464.56
437.46	6504.35
437.65	6703.29
437.84	6920.96
438.02	6729.04
438.21	6736.06
438.40	6712.66
438.58	6979.48
438.77	6906.92
438.96	6869.47
439.14	7045.01
439.33	7016.93
439.52	7328.22
439.70	7300.13
439.89	7267.36
440.08	7281.41
440.26	7372.69
440.45	7351.62
440.63	7548.23
440.82	7627.81
441.01	7545.89
441.19	7765.90
441.38	7625.47
441.57	7810.37
441.75	7885.26
441.94	7859.52
442.12	7798.66
442.31	7936.76
442.50	7971.86
442.68	8004.63
442.87	7878.24
443.05	8002.29
443.24	8262.09
443.43	8081.87
443.61	8018.68
443.80	8383.80
443.98	7985.91
444.17	7845.48
444.35	8212.94
444.54	8365.07
444.73	8325.29
444.91	8320.60
445.10	8346.35
445.28	8498.49
445.47	8248.05
445.65	8409.54
445.84	8372.10
446.02	8575.72
446.21	8437.63
446.39	8365.07
446.58	8519.55
446.77	8552.32
446.95	8259.75
447.14	8346.35
447.32	8521.89
447.51	8645.94
447.69	8535.93
447.88	8402.52
448.06	8503.17
448.25	8416.57
448.43	8620.19
448.62	8692.75
448.80	8704.45
448.99	8781.69
449.17	8732.54
449.36	8753.60
449.54	8936.17
449.73	8823.82
449.91	8877.65
450.10	8847.22
450.28	9172.56
450.46	8879.99
450.65	9142.13
450.83	9104.68
451.02	9163.20
451.20	9219.37
451.39	9174.90
451.57	8814.46
451.76	9050.85
451.94	9149.15
452.13	9324.69
452.31	9310.65
452.49	8990.00
452.68	9324.69
452.86	9343.42
453.05	9479.17
453.23	9540.02
453.42	9242.78
453.60	9376.19
453.78	9320.01
453.97	9205.33
454.15	9280.22
454.34	9355.12
454.52	9645.35
454.70	9628.96
454.89	9778.76
455.07	9837.27
455.26	9762.37
455.44	10005.79
455.62	9628.96
455.81	9806.84
455.99	10031.54
456.17	9982.38
456.36	9710.88
456.54	10211.76
456.73	10373.25
456.91	10352.19
457.09	10464.54
457.28	10452.83
457.46	10501.98
457.64	10518.37
457.83	10562.84
458.01	10305.38
458.19	10604.97
458.38	10616.67
458.56	10724.33
458.74	10848.38
458.93	10691.57
459.11	10785.19
459.29	10675.18
459.48	10731.36
459.66	10911.58
459.84	10815.62
460.03	11096.48
460.21	10913.92
460.39	10930.30
460.57	10934.98
460.76	11183.08
460.94	11126.91
461.12	11267.34
461.31	11218.19
461.49	11133.93
461.67	11197.12
461.85	11793.96
462.04	11375.00
462.22	11793.96
462.40	11602.04
462.59	11487.35
462.77	11438.20
462.95	11690.98
463.13	11529.48
463.32	11566.93
463.50	11571.61
463.68	11620.76
463.86	11698.00
464.05	11552.88
464.23	11740.13
464.41	11817.36
464.59	11592.67
464.78	12093.55
464.96	11936.73
465.14	11850.13
465.32	11974.18
465.50	12088.87
465.69	12046.74
465.87	12128.66
466.05	12187.17
466.23	12123.98
466.41	12322.92
466.60	12301.86
466.78	12184.83
466.96	12081.85
467.14	12414.20
467.32	12311.22
467.51	12510.16
467.69	12243.34
467.87	12538.25
468.05	12762.94
468.23	12610.81
468.41	12603.78
468.60	12587.40
468.78	12802.73
468.96	12596.76
469.14	12711.45
469.32	12886.99
469.50	12669.32
469.69	12875.29
469.87	13249.77
470.05	13043.81
470.23	13069.55
470.41	13163.17
470.59	13298.92
470.77	13109.34
470.95	13149.13
471.14	13521.27
471.32	13195.94
471.50	13317.65
471.68	13635.96
471.86	13778.73
472.04	13764.69
472.22	13902.78
472.40	13547.02
472.58	14050.24
472.77	13872.36
472.95	14108.75
473.13	14712.61
473.31	14059.60
473.49	14321.74
473.67	14164.92
473.85	14057.26
474.03	14693.88
474.21	14373.23
474.39	14724.31
474.57	14696.22
474.75	14696.22
474.93	15096.46
475.12	14972.41
475.30	14977.09
475.48	14972.41
475.66	15021.56
475.84	15044.96
476.02	15339.87
476.20	15384.34
476.38	15861.81
476.56	15772.87
476.74	15939.05
476.92	15850.11
477.10	15712.02
477.28	16215.23
477.46	16348.64
477.64	16182.46
477.82	16383.75
478.00	16643.55
478.18	16578.01
478.36	17018.04
478.54	17195.92
478.72	16884.62
478.90	17507.21
479.08	17598.49
479.26	17689.77
479.44	17521.25
479.62	18036.17
479.80	17846.58
479.98	17965.95
480.16	18700.88
480.34	18209.37
480.52	18621.30
480.70	18775.78
480.88	18525.34
481.06	18642.37
481.24	18717.26
481.41	18944.30
481.59	19234.52
481.77	19536.45
481.95	19658.16
482.13	19768.16
482.31	19386.66
482.49	20177.76
482.67	19934.34
482.85	20135.63
483.03	20517.14
483.21	20973.54
483.39	21083.55
483.57	20648.21
483.74	20926.73
483.92	21535.27
484.10	20924.39
484.28	21675.70
484.46	21914.44
484.64	22377.86
484.82	21921.46
485.00	22127.42
485.18	22490.21
485.35	22710.22
485.53	22782.77
485.71	22977.04
485.89	23257.90
486.07	23363.23
486.25	23428.76
486.43	23573.88
486.61	23522.38
486.78	24299.44
486.96	24322.85
487.14	24685.63
487.32	24776.91
487.50	24699.67
487.68	24781.59
487.85	25380.77
488.03	25706.10
488.21	26050.16
488.39	25804.41
488.57	25944.84
488.75	25942.50
488.92	26445.71
489.10	26513.59
489.28	26501.89
489.46	27278.94
489.64	27028.51
489.81	27840.67
489.99	27625.34
490.17	27995.15
490.35	28158.99
490.53	27667.47
490.70	28484.32
490.88	28158.99
491.06	28521.77
491.24	28854.12
491.41	29144.35
491.59	29142.01
491.77	29432.24
491.95	29645.23
492.13	29666.29
492.30	29795.02
492.48	30251.42
492.66	30075.88
492.84	30326.32
493.01	30487.82
493.19	30576.76
493.37	30724.21
493.54	31215.72
493.72	31400.63
493.90	31168.91
494.08	31861.71
494.25	32011.51
494.43	31929.59
494.61	32037.25
494.79	32318.12
494.96	32367.27
495.14	32521.74
495.32	32905.59
495.49	33181.77
495.67	33027.30
495.85	33153.69
496.02	33460.30
496.20	33795.00
496.38	33914.36
496.55	34286.51
496.73	34352.04
496.91	34185.86
497.09	34417.58
497.26	34611.84
497.44	35140.80
497.62	34890.37
497.79	35810.20
497.97	35325.71
498.14	35915.52
498.32	36566.19
498.50	35943.61
498.67	36336.82
498.85	36437.46
499.03	36662.15
499.20	36987.49
499.38	36769.82
499.56	36687.90
499.73	37376.01
499.91	37483.68
500.08	37486.02
500.26	37088.13
500.44	37153.66
500.61	37640.50
500.79	37303.46
500.97	37743.48
501.14	38506.49
501.32	38593.09
501.49	38190.52
501.67	38630.54
501.84	39108.01
502.02	38789.70
502.20	38850.55
502.37	39157.16
502.55	39091.63
502.72	39459.09
502.90	39234.40
503.07	39426.32
503.25	39739.96
503.43	39648.68
503.60	39777.40
503.78	40025.50
503.95	40013.80
504.13	40191.68
504.30	40708.94
504.48	40294.66
504.65	40800.22
504.83	40987.46
505.01	41207.47
505.18	41078.74
505.36	41359.61
505.53	41509.40
505.71	41769.20
505.88	41687.28
506.06	41539.83
506.23	41841.76
506.41	41947.08
506.58	41886.23
506.76	42403.49
506.93	42012.62
507.11	42316.89
507.28	42305.18
507.46	42476.04
507.63	43021.39
507.81	43325.66
507.98	43030.75
508.16	42667.97
508.33	43339.70
508.50	43185.22
508.68	43723.55
508.85	43615.88
509.03	43817.17
509.20	43791.42
509.38	44044.20
509.55	44233.78
509.73	44524.01
509.90	44151.87
510.08	44406.98
510.25	45031.91
510.42	44685.51
510.60	44832.96
510.77	44776.79
510.95	45418.10
511.12	44758.06
511.30	44926.58
511.47	45207.45
511.64	45385.33
511.82	45923.65
511.99	45378.31
512.17	45933.01
512.34	45659.17
512.51	46176.43
512.69	46579.00
512.86	45918.97
513.04	46649.22
513.21	46703.05
513.38	46265.37
513.56	46735.82
513.73	46876.25
513.90	46564.96
514.08	47065.83
514.25	47414.57
514.43	47241.37
514.60	47515.22
514.77	47133.71
514.95	47695.44
515.12	47407.55
515.29	47381.80
515.47	47980.98
515.64	47922.47
515.81	47845.23
515.99	47889.70
516.16	48268.87
516.33	48203.33
516.51	48980.39
516.68	48533.35
516.85	48507.60
517.03	48729.95
517.20	48751.02
517.37	48704.21
517.54	48980.39
517.72	48708.89
517.89	48701.87
518.06	49258.91
518.24	49284.66
518.41	48903.15
518.58	49205.08
518.75	49256.57
518.93	49535.10
519.10	49385.30
519.27	49717.66
519.45	49736.38
519.62	49743.41
519.79	49811.28
519.96	49703.62
520.14	50274.71
520.31	49991.50
520.48	49888.52
520.65	50143.64
520.83	50513.44
521.00	50911.33
521.17	50251.30
521.34	50721.75
521.52	50684.30
521.69	50944.10
521.86	51166.45
522.03	51306.88
522.20	51316.25
522.38	51285.82
522.55	51276.46
522.72	51271.78
522.89	51227.31
523.07	51789.03
523.24	51337.31
523.41	51468.38
523.58	51405.19
523.75	51784.35
523.92	51695.41
524.10	51470.72
524.27	52051.17
524.44	52025.43
524.61	51749.24
524.78	51903.72
524.96	52247.78
525.13	51966.91
525.30	52308.63
525.47	52582.48
525.64	52191.61
525.81	52715.89
525.98	52680.78
526.16	52303.95
526.33	52428.00
526.50	53071.65
526.67	52746.31
526.84	52605.88
527.01	52968.66
527.18	53106.76
527.36	52893.77
527.53	52678.44
527.70	53209.74
527.87	53111.44
528.04	53057.60
528.21	53502.31
528.38	53207.40
528.55	53476.56
528.72	53506.99
528.89	53635.72
529.07	53148.88
529.24	53354.85
529.41	53514.01
529.58	53607.63
529.75	53825.30
529.92	53780.83
530.09	53677.85
530.26	53769.13
530.43	53881.47
530.60	53862.75
530.77	53750.40
530.94	53874.45
531.11	53780.83
531.28	54033.61
531.46	53804.24
531.63	54277.02
531.80	53965.73
531.97	54181.06
532.14	54225.53
532.31	54375.33
532.48	54550.87
532.65	54305.11
532.82	54298.09
532.99	54616.40
533.16	54368.30
533.33	54707.68
533.50	54871.52
533.67	54518.10
533.84	54672.57
534.01	54611.72
534.18	54908.97
534.35	55220.26
534.52	55133.66
534.69	55100.89
534.86	55231.96
535.03	54796.62
535.20	55330.26
535.37	55451.97
535.54	55554.96
535.71	55131.32
535.88	55227.28
536.05	55381.76
536.22	55545.59
536.38	55416.86
536.55	55587.72
536.72	55150.04
536.89	55615.81
537.06	55402.82
537.23	55627.51
537.40	55662.62
537.57	55676.66
537.74	55889.65
537.91	55585.38
538.08	55943.48
538.25	55564.32
538.42	56009.02
538.59	55835.82
538.75	55810.07
538.92	56093.28
539.09	56126.05
539.26	55924.76
539.43	56182.22
539.60	56287.54
539.77	56076.90
539.94	56348.40
540.11	56479.47
540.28	56566.07
540.44	56236.05
540.61	56456.06
540.78	56264.14
540.95	56488.83
541.12	56198.60
541.29	56362.44
541.46	56458.40
541.62	56619.90
541.79	56818.84
541.96	56236.05
542.13	56580.11
542.30	56556.70
542.47	56736.93
542.63	56907.79
542.80	56886.72
542.97	56996.73
543.14	57123.11
543.31	57095.03
543.48	57062.26
543.64	57396.96
543.81	57301.00
543.98	57195.67
544.15	57228.44
544.32	57361.85
544.48	57511.64
544.65	57212.06
544.82	57602.92
544.99	57275.25
545.16	57387.60
545.32	57235.46
545.49	57586.54
545.66	57551.43
545.83	57467.17
546.00	57455.47
546.16	57565.48
546.33	57471.85
546.50	57277.59
546.67	57593.56
546.83	57329.08
547.00	57876.77
547.17	57764.42
547.34	57701.23
547.50	57729.31
547.67	58052.31
547.84	58089.76
548.00	58066.35
548.17	58176.36
548.34	58061.67
548.51	58188.06
548.67	58045.29
548.84	58148.27
549.01	58113.16
549.18	57907.19
549.34	58113.16
549.51	58260.62
549.68	58284.02
549.84	58286.36
550.01	58387.00
550.18	58363.60
550.34	58489.99
550.51	58522.76
550.68	58176.36
550.84	58354.24
551.01	58522.76
551.18	58408.07
551.34	58349.56
551.51	58384.66
551.68	58604.67
551.84	58574.25
552.01	58286.36
552.18	58525.10
552.34	58440.84
552.51	58618.72
552.68	58300.40
552.84	58585.95
553.01	58892.56
553.18	58820.00
553.34	58649.14
553.51	58749.79
553.67	58717.02
553.84	58712.34
554.01	58969.80
554.17	58820.00
554.34	59049.38
554.51	59128.95
554.67	58986.18
554.84	58946.39
555.00	59098.53
555.17	58911.28
555.33	58890.22
555.50	59030.65
555.67	59009.59
555.83	59056.40
556.00	59114.91
556.16	59365.35
556.33	59414.50
556.50	59236.62
556.66	59377.05
556.83	59044.69
556.99	59583.02
557.16	59451.95
557.32	59526.84
557.49	59568.97
557.65	59344.28
557.82	59143.00
557.98	59437.90
558.15	59463.65
558.32	59487.06
558.48	59316.20
558.65	59374.71
558.81	59538.55
558.98	59480.03
559.14	59510.46
559.31	59505.78
559.47	59728.13
559.64	59571.32
559.80	59561.95
559.97	59728.13
560.13	59526.84
560.30	59592.38
560.46	59765.58
560.63	59889.63
560.79	59840.48
560.96	59744.51
561.12	59613.44
561.29	59796.01
561.45	59564.29
561.61	59833.46
561.78	59810.05
561.94	59618.13
562.11	59938.78
562.27	59936.44
562.44	60016.02
562.60	59807.71
562.77	59814.73
562.93	59906.01
563.10	60135.38
563.26	59653.23
563.42	59978.57
563.59	59957.50
563.75	59828.77
563.92	60149.43
564.08	59861.54
564.24	59870.90
564.41	60062.83
564.57	60088.57
564.74	60074.53
564.90	60140.07
565.07	60212.62
565.23	60053.47
565.39	60023.04
565.56	60149.43
565.72	60147.09
565.88	60032.40
566.05	60161.13
566.21	60114.32
566.38	60219.64
566.54	60170.49
566.70	60273.48
566.87	60294.54
567.03	60161.13
567.19	60369.44
567.36	60245.39
567.52	60409.23
567.68	60495.83
567.85	60306.24
568.01	60388.16
568.17	60088.57
568.34	60362.42
568.50	60282.84
568.66	60369.44
568.83	60453.70
568.99	60219.64
569.15	60552.00
569.32	60399.86
569.48	60252.41
569.64	60430.29
569.81	60498.17
569.97	60374.12
570.13	60416.25
570.30	60259.43
570.46	60390.50
570.62	60427.95
570.78	60376.46
570.95	60313.26
571.11	60526.25
571.27	60430.29
571.43	60369.44
571.60	60392.84
571.76	60463.06
571.92	60411.57
572.09	60633.92
572.25	60673.71
572.41	60584.77
572.57	60264.11
572.74	60669.03
572.90	60629.24
573.06	60669.03
573.22	60535.62
573.38	60544.98
573.55	60633.92
573.71	60928.83
573.87	60701.79
574.03	60610.51
574.20	60619.88
574.36	60622.22
574.52	60664.35
574.68	60729.88
574.84	60729.88
575.01	60867.97
575.17	60671.37
575.33	60734.56
575.49	60409.23
575.65	60507.53
575.82	60757.97
575.98	60743.92
576.14	60970.96
576.30	60568.38
576.46	60662.00
576.62	60640.94
576.79	60626.90
576.95	60584.77
577.11	60821.16
577.27	60748.60
577.43	61010.74
577.59	60619.88
577.75	60657.32
577.92	60662.00
578.08	60743.92
578.24	60912.44
578.40	61010.74
578.56	60825.84
578.72	60858.61
578.88	60877.33
579.04	60870.31
579.21	60821.16
579.37	60931.17
579.53	61010.74
579.69	60701.79
579.85	60683.07
580.01	60741.58
580.17	60523.91
580.33	60743.92
580.49	60963.93
580.65	60898.40
580.82	60816.48
580.98	60650.30
581.14	60694.77
581.30	60924.14
581.46	60921.80
581.62	61069.26
581.78	60722.86
581.94	60821.16
582.10	60802.44
582.26	60725.20
582.42	60905.42
582.58	60989.68
582.74	60701.79
582.90	60800.10
583.06	60811.80
583.22	60706.47
583.38	60818.82
583.54	61024.79
583.70	60858.61
583.86	60947.55
584.02	61038.83
584.18	60931.17
584.34	60907.76
584.50	60999.04
584.66	60959.25
584.82	60750.94
584.98	60858.61
585.14	60977.98
585.30	60884.36
585.46	60905.42
585.62	60903.08
585.78	61132.45
585.94	60683.07
586.10	61017.77
586.26	60928.83
586.42	61059.90
586.58	60947.55
586.74	60994.36
586.90	61132.45
587.06	60837.54
587.22	61095.00
587.38	61013.08
587.54	61146.50
587.70	61013.08
587.86	61160.54
588.02	61069.26
588.18	61069.26
588.34	61083.30
588.49	61017.77
588.65	61111.39
588.81	61095.00
588.97	61123.09
589.13	61055.21
589.29	61123.09
589.45	61200.33
589.61	61254.16
589.77	61457.79
589.93	61190.97
590.08	61235.44
590.24	61244.80
590.40	61389.91
590.56	61490.55
590.72	61169.90
590.88	61151.18
591.04	61230.75
591.20	61333.74
591.35	61312.67
591.51	61670.78
591.67	61366.51
591.83	61436.72
591.99	61329.06
592.15	61361.82
592.31	61467.15
592.46	61298.63
592.62	61277.57
592.78	61291.61
592.94	61359.48
593.10	61462.47
593.26	61563.11
593.41	61389.91
593.57	61546.73
593.73	61528.00
593.89	61656.73
594.05	61630.99
594.20	61343.10
594.36	61591.20
594.52	61471.83
594.68	61387.57
594.84	61523.32
594.99	61546.73
595.15	61488.21
595.31	61478.85
595.47	61485.87
595.62	61462.47
595.78	61352.46
595.94	61467.15
596.10	61731.63
596.25	61567.79
596.41	61518.64
596.57	61347.78
596.73	61553.75
596.88	61607.58
597.04	61464.81
597.20	61607.58
597.36	61347.78
597.51	61724.61
597.67	61525.66
597.83	61455.45
597.99	61614.60
598.14	61773.76
598.30	61698.86
598.46	61663.75
598.61	61673.12
598.77	61549.07
598.93	61717.59
599.09	61511.62
599.24	61916.53
599.40	61752.69
599.56	61488.21
599.71	61661.41
599.87	62007.81
600.03	61811.21
600.18	61619.28
600.34	61661.41
600.50	61787.80
600.65	61609.92
600.81	61731.63
600.97	61712.91
601.12	61593.54
601.28	61652.05
601.44	61565.45
601.59	61549.07
601.75	61408.64
601.91	62005.47
602.06	61743.33
602.22	61911.85
602.37	61818.23
602.53	61736.31
602.69	61722.27
602.84	61708.22
603.00	61745.67
603.16	61839.29
603.31	61965.68
603.47	61815.89
603.62	61659.07
603.78	61806.53
603.94	61712.91
604.09	61654.39
604.25	61872.06
604.40	61794.82
604.56	61860.36
604.71	61843.98
604.87	61584.18
605.03	61659.07
605.18	61609.92
605.34	61787.80
605.49	61542.05
605.65	61771.42
605.80	61776.10
605.96	61787.80
606.12	61993.77
606.27	61883.76
606.43	61675.46
606.58	61776.10
606.74	61743.33
606.89	61626.31
607.05	61745.67
607.20	61778.44
607.36	61600.56
607.51	61506.94
607.67	61560.77
607.82	61418.00
607.98	61584.18
608.13	61708.22
608.29	61518.64
608.44	61703.54
608.60	61769.08
608.75	61614.60
608.91	61712.91
609.06	61570.13
609.22	61539.71
609.37	61441.40
609.53	61668.44
609.68	61464.81
609.84	61385.23
609.99	61670.78
610.15	61771.42
610.30	61736.31
610.46	61509.28
610.61	61647.37
610.76	61630.99
610.92	61481.19
611.07	61698.86
611.23	61326.72
611.38	61492.89
611.54	61471.83
611.69	61598.22
611.84	61481.19
612.00	61666.09
612.15	61546.73
612.31	61593.54
612.46	61427.36
612.62	61623.96
612.77	61366.51
612.92	61556.09
613.08	61485.87
613.23	61539.71
613.39	61371.19
613.54	61296.29
613.69	61399.27
613.85	61389.91
614.00	61544.39
614.15	61511.62
614.31	61413.32
614.46	61450.77
614.62	61460.13
614.77	61296.29
614.92	61567.79
615.08	61169.90
615.23	61291.61
615.38	61359.48
615.54	61223.73
615.69	61265.86
615.84	61235.44
616.00	61338.42
616.15	61113.73
616.30	61443.74
616.46	61106.71
616.61	61359.48
616.76	61343.10
616.92	61319.70
617.07	61286.93
617.22	61010.74
617.37	61219.05
617.53	61183.94
617.68	61230.75
617.83	61116.07
617.99	61092.66
618.14	61034.15
618.29	61251.82
618.45	61034.15
618.60	60977.98
618.75	60933.51
618.90	61141.81
619.06	61181.60
619.21	61059.90
619.36	61277.57
619.51	61109.05
619.67	60849.25
619.82	60942.87
619.97	60966.27
620.12	61020.11
620.28	60851.59
620.43	61071.60
620.58	61176.92
620.73	61006.06
620.89	60999.04
621.04	61228.41
621.19	61069.26
621.34	61055.21
621.49	60750.94
621.65	60933.51
621.80	61090.32
621.95	60753.29
622.10	60748.60
622.25	60900.74
622.41	60652.64
622.56	60680.73
622.71	60977.98
622.86	60715.84
623.01	60816.48
623.16	60713.50
623.32	60900.74
623.47	60987.34
623.62	60783.71
623.77	60676.05
623.92	60996.70
624.07	60760.31
624.23	60706.47
624.38	60591.79
624.53	60596.47
624.68	60568.38
624.83	60577.75
624.98	60774.35
625.13	60463.06
625.29	60507.53
625.44	60617.53
625.59	60617.53
625.74	60626.90
625.89	60364.76
626.04	60137.72
626.19	60350.71
626.34	60467.74
626.49	60294.54
626.65	60439.65
626.80	60425.61
626.95	60413.91
627.10	60001.97
627.25	60376.46
627.40	60264.11
627.55	60350.71
627.70	60315.61
627.85	60329.65
628.00	60261.77
628.15	60287.52
628.30	60273.48
628.45	60149.43
628.60	60097.94
628.76	60111.98
628.91	60343.69
629.06	60074.53
629.21	60137.72
629.36	60004.31
629.51	60273.48
629.66	60189.22
629.81	59877.93
629.96	59866.22
630.11	60137.72
630.26	60114.32
630.41	60355.39
630.56	59997.29
630.71	59973.89
630.86	60048.78
631.01	60088.57
631.16	60027.72
631.31	59889.63
631.46	59613.44
631.61	59849.84
631.76	59791.33
631.91	60027.72
632.06	60079.21
632.21	59725.79
632.36	59915.37
632.51	59442.59
632.66	59891.97
632.81	59700.04
632.96	59877.93
633.10	59568.97
633.25	59943.46
633.40	59959.84
633.55	59700.04
633.70	59664.94
633.85	59545.57
634.00	59615.79
634.15	59765.58
634.30	59545.57
634.45	59728.13
634.60	59803.03
634.75	59634.51
634.90	59634.51
635.05	59447.27
635.19	59604.08
635.34	59604.08
635.49	59674.30
635.64	59611.10
635.79	59765.58
635.94	59540.89
636.09	59559.61
636.24	59566.63
636.39	59515.14
636.53	59604.08
636.68	59662.60
636.83	59538.55
636.98	59669.62
637.13	59185.13
637.28	59451.95
637.43	59384.07
637.57	59278.75
637.72	59227.26
637.87	59480.03
638.02	59224.92
638.17	59238.96
638.32	59236.62
638.46	59337.26
638.61	59288.11
638.76	59166.40
638.91	59189.81
639.06	59114.91
639.20	59320.88
639.35	59407.48
639.50	59173.42
639.65	59243.64
639.80	59028.31
639.94	59173.42
640.09	59178.10
640.24	59135.98
640.39	58972.14
640.54	58805.96
640.68	58953.41
640.83	59180.45
640.98	59004.91
641.13	59025.97
641.27	59264.70
641.42	58878.52
641.57	58770.85
641.72	58805.96
641.86	58532.12
642.01	58702.98
642.16	58932.35
642.31	58859.79
642.45	58986.18
642.60	58960.44
642.75	58995.54
642.90	58997.88
643.04	58829.37
643.19	58651.48
643.34	58798.94
643.48	58932.35
643.63	58810.64
643.78	58724.04
643.93	58794.26
644.07	58665.53
644.22	58653.82
644.37	58368.28
644.51	58391.68
644.66	58738.08
644.81	58686.59
644.95	58499.35
645.10	58684.25
645.25	58585.95
645.39	58354.24
645.54	58616.38
645.69	58667.87
645.83	58646.80
645.98	58424.45
646.13	58403.39
646.27	58534.46
646.42	58459.56
646.57	58536.80
646.71	58368.28
646.86	58822.34
647.00	58508.71
647.15	58660.85
647.30	58328.49
647.44	58475.94
647.59	58532.12
647.74	58408.07
647.88	58497.01
648.03	58590.63
648.17	58307.43
648.32	58244.23
648.47	58333.17
648.61	58209.12
648.76	58518.07
648.90	58113.16
649.05	58223.17
649.20	58265.30
649.34	58372.96
649.49	58262.96
649.63	58492.33
649.78	58251.25
649.92	58234.87
650.07	58358.92
650.21	58106.14
650.36	58059.33
650.51	57970.39
650.65	58298.06
650.80	57902.51
650.94	58005.50
651.09	57942.30
651.23	57804.21
651.38	58033.58
651.52	57757.40
651.67	57895.49
651.81	57921.24
651.96	57682.50
652.10	57923.58
652.25	57827.62
652.39	57794.85
652.54	57469.51
652.68	57640.37
652.83	57717.61
652.97	57792.51
653.12	57633.35
653.26	57869.75
653.41	57656.76
653.55	57666.12
653.70	57806.55
653.84	57797.19
653.99	57811.23
654.13	57336.10
654.27	57579.52
654.42	57317.38
654.56	57240.14
654.71	57485.90
654.85	57586.54
655.00	57668.46
655.14	57633.35
655.29	57553.77
655.43	57609.95
655.57	57434.41
655.72	57462.49
655.86	57612.29
656.01	57441.43
656.15	57345.47
656.30	57429.72
656.44	57577.18
656.58	57574.84
656.73	57556.11
656.87	57427.38
657.01	57347.81
657.16	57457.81
657.30	57029.49
657.45	57186.31
657.59	57235.46
657.73	57387.60
657.88	56931.19
658.02	57293.97
658.16	57190.99
658.31	56975.66
658.45	57104.39
658.60	57183.97
658.74	57418.02
658.88	56804.80
659.03	57076.30
659.17	56722.88
659.31	56767.35
659.46	56898.42
659.60	56858.63
659.74	57003.75
659.89	56865.66
660.03	56886.72
660.17	56823.53
660.32	56746.29
660.46	56666.71
660.60	56734.59
660.74	56884.38
660.89	56954.60
661.03	56416.27
661.17	56383.51
661.32	56252.44
661.46	56584.79
661.60	56612.88
661.74	56420.95
661.89	56364.78
662.03	56219.67
662.17	56104.98
662.31	56240.73
662.46	56250.09
662.60	55863.91
662.74	56144.77
662.88	56039.45
663.03	55920.08
663.17	56142.43
663.31	55980.93
663.45	55952.85
663.60	55945.83
663.74	55604.11
663.88	55952.85
664.02	55590.06
664.17	55730.50
664.31	55671.98
664.45	55700.07
664.59	55571.34
664.73	55592.40
664.88	55772.63
665.02	55337.29
665.16	55433.25
665.30	55491.76
665.44	55370.05
665.59	55182.81
665.73	55421.55
665.87	55154.72
666.01	55203.88
666.15	55323.24
666.29	54988.55
666.44	55447.29
666.58	54738.11
666.72	54719.38
666.86	54911.31
667.00	54958.12
667.14	54688.96
667.28	54780.24
667.43	54532.14
667.57	54876.20
667.71	54468.95
667.85	54569.59
667.99	54651.51
668.13	54520.44
668.27	54482.99
668.41	54499.37
668.56	54103.82
668.70	54389.37
668.84	53925.94
668.98	54272.34
669.12	54057.01
669.26	54372.99
669.40	54262.98
669.54	54361.28
669.68	54368.30
669.82	54150.63
669.96	53757.42
670.10	53710.61
670.25	54038.29
670.39	53755.08
670.53	53853.39
670.67	53797.21
670.81	53914.24
670.95	53925.94
671.09	53635.72
671.23	53329.11
671.37	53766.79
671.51	53324.43
671.65	53413.37
671.79	53059.94
671.93	53073.99
672.07	53579.54
672.21	53282.30
672.35	52804.83
672.49	52505.24
672.63	52692.48
672.77	52638.65
672.91	52493.54
673.05	52406.94
673.19	52364.81
673.33	52523.96
673.47	52385.87
673.61	52573.11
673.75	52044.15
673.89	51683.71
674.03	52128.41
674.17	51870.95
674.31	51571.36
674.45	51896.70
674.59	51693.07
674.73	51924.78
674.87	51803.08
675.01	51435.61
675.15	51522.21
675.29	51327.95
675.43	51473.06
675.56	51339.65
675.70	50913.67
675.84	51086.87
675.98	49989.16
676.12	50768.56
676.26	51002.61
676.40	50848.14
676.54	50419.82
676.68	50520.46
676.82	50017.25
676.96	50391.73
677.10	50358.97
677.23	50255.98
677.37	50010.23
677.51	49986.82
677.65	49474.24
677.79	48846.98
677.93	48938.26
678.07	48814.21
678.21	49059.97
678.34	48760.38
678.48	48945.28
678.62	48659.74
678.76	48430.36
678.90	48666.76
679.04	48619.95
679.18	48355.47
679.31	48023.11
679.45	47964.60
679.59	48435.05
679.73	48222.06
679.87	47547.98
680.00	47114.98
680.14	47089.24
680.28	47461.38
680.42	47295.21
680.56	46689.01
680.70	46951.15
680.83	46677.30
680.97	46628.15
681.11	46993.28
681.25	46471.34
681.39	46279.41
681.52	46644.54
681.66	46164.73
681.80	45998.55
681.94	45659.17
682.07	46026.63
682.21	45144.25
682.35	45443.84
682.49	45436.82
682.62	45448.52
682.76	45219.15
682.90	45048.29
683.04	44807.22
683.17	45141.91
683.31	44172.93
683.45	44264.21
683.59	43999.73
683.72	43562.05
683.86	44121.44
684.00	44212.72
684.13	44554.44
684.27	44025.48
684.41	43873.34
684.55	43679.08
684.68	43533.96
684.82	43281.19
684.96	42974.58
685.09	42766.27
685.23	42440.93
685.37	42401.14
685.50	42410.51
685.64	42782.65
685.78	42483.06
685.91	41984.53
686.05	41771.54
686.19	41507.06
686.32	41420.46
686.46	41027.25
686.60	40732.34
686.73	40201.04
686.87	40957.03
687.01	41078.74
687.14	40545.10
687.28	40137.85
687.42	40051.25
687.55	40254.87
687.69	40250.19
687.82	39716.55
687.96	39629.95
688.10	39590.16
688.23	39817.19
688.37	39079.92
688.50	39014.39
688.64	38813.10
688.78	38667.99
688.91	38108.60
689.05	38735.87
689.18	38244.35
689.32	37841.78
689.46	37811.35
689.59	37654.54
689.73	37610.07
689.86	37785.61
690.00	37156.00
690.13	37724.75
690.27	37537.51
690.41	37181.75
690.54	36938.33
690.68	36982.80
690.81	36648.11
690.95	36275.96
691.08	36446.82
691.22	36266.60
691.35	36020.84
691.49	35985.74
691.62	35709.55
691.76	35580.82
691.89	35323.36
692.03	35615.93
692.16	35145.48
692.30	34986.33
692.43	35370.18
692.57	34958.24
692.70	34403.53
692.84	34787.38
692.97	34675.04
693.11	34277.15
693.24	33722.44
693.38	34230.33
693.51	33240.29
693.65	33687.33
693.78	33577.33
693.92	33270.72
694.05	33497.75
694.19	33008.58
694.32	32954.74
694.45	32800.27
694.59	32451.53
694.72	32706.65
694.86	32772.18
694.99	31974.06
695.13	31840.65
695.26	31721.28
695.39	31700.22
695.53	31981.08
695.66	31960.02
695.80	31604.25
695.93	31215.72
696.07	30883.37
696.20	30408.24
696.33	30590.80
696.47	30419.94
696.60	30693.79
696.73	30375.47
696.87	29993.97
697.00	30244.40
697.14	29993.97
697.27	30429.30
697.40	29694.38
697.54	29575.01
697.67	29518.84
697.80	29680.33
697.94	29294.14
698.07	29024.98
698.21	29020.30
698.34	28826.04
698.47	28772.21
698.61	28140.26
698.74	28329.84
698.87	28444.53
699.01	28701.99
699.14	28292.40
699.27	27967.06
699.40	27985.79
699.54	28002.17
699.67	27379.59
699.80	27442.78
699.94	27264.90
700.07	27548.11
700.20	26951.27
700.34	26859.99
700.47	26281.88
700.60	26469.12
700.73	26466.78
700.87	26019.74
701.00	25773.98
701.13	25647.59
701.26	25778.66
701.40	25659.29
701.53	25785.68
701.66	25560.99
701.79	25303.53
701.93	25256.72
702.06	25184.16
702.19	24781.59
702.32	24809.68
702.46	24961.81
702.59	24552.22
702.72	24442.21
702.85	24201.14
702.99	24009.22
703.12	24280.72
703.25	23833.68
703.38	23580.90
703.51	23957.72
703.65	23328.12
703.78	23311.74
703.91	23351.52
704.04	23283.65
704.17	23316.42
704.31	22890.44
704.44	22752.35
704.57	22511.27
704.70	22522.98
704.83	22384.88
704.96	22431.69
705.10	22225.73
705.23	22354.46
>>>>>End Processed Spectral Data<<<<<
