SpectraSuite Data File
++++++++++++++++++++++++++++++++++++
Date: Fri Oct 25 11:23:23 EDT 2013
User: price-jones
Dark Spectrum Present: No
Reference Spectrum Present: No
Number of Sampled Component Spectra: 1
Spectrometers: USB2+H05261
Integration Time (usec): 100000 (USB2+H05261)
Spectra Averaged: 1 (USB2+H05261)
Boxcar Smoothing: 0 (USB2+H05261)
Correct for Electrical Dark: No (USB2+H05261)
Strobe/Lamp Enabled: No (USB2+H05261)
Correct for Detector Non-linearity: No (USB2+H05261)
Correct for Stray Light: No (USB2+H05261)
Number of Pixels in Processed Spectrum: 2048
>>>>>Begin Processed Spectral Data<<<<<
365.73	149.79
365.92	149.79
366.12	149.79
366.32	161.50
366.52	88.94
366.72	227.03
366.91	95.96
367.11	142.77
367.31	145.11
367.51	121.71
367.70	119.37
367.90	168.52
368.10	70.22
368.30	84.26
368.49	95.96
368.69	175.54
368.89	166.18
369.09	98.30
369.28	163.84
369.48	105.32
369.68	107.66
369.87	166.18
370.07	220.01
370.27	212.99
370.47	280.86
370.66	634.29
370.86	615.56
371.06	622.58
371.25	641.31
371.45	655.35
371.65	692.80
371.84	739.61
372.04	720.88
372.24	723.23
372.44	730.25
372.63	779.40
372.83	791.10
373.03	734.93
373.22	788.76
373.42	847.27
373.62	774.72
373.81	786.42
374.01	805.14
374.21	791.10
374.40	784.08
374.60	814.51
374.79	772.38
374.99	854.30
375.19	791.10
375.38	837.91
375.58	903.45
375.78	784.08
375.97	908.13
376.17	800.46
376.37	889.40
376.56	877.70
376.76	819.19
376.95	905.79
377.15	903.45
377.35	891.74
377.54	926.85
377.74	898.77
377.93	959.62
378.13	877.70
378.33	901.11
378.52	992.39
378.72	917.49
378.91	870.68
379.11	971.32
379.31	1039.20
379.50	912.81
379.70	978.34
379.89	1018.13
380.09	985.37
380.28	898.77
380.48	936.21
380.68	1032.18
380.87	971.32
381.07	1071.97
381.26	1034.52
381.46	1043.88
381.65	1006.43
381.85	1011.11
382.04	1062.60
382.24	1025.15
382.43	1153.88
382.63	1057.92
382.83	1015.79
383.02	1210.06
383.22	1100.05
383.41	1015.79
383.61	1078.99
383.80	1076.65
384.00	1102.39
384.19	1083.67
384.39	1102.39
384.58	1158.57
384.78	1130.48
384.97	1198.35
385.17	1137.50
385.36	1177.29
385.56	1163.25
385.75	1130.48
385.95	1238.14
386.14	1100.05
386.34	1191.33
386.53	1174.95
386.72	1247.51
386.92	1196.01
387.11	1289.64
387.31	1303.68
387.50	1306.02
387.70	1149.20
387.89	1263.89
388.09	1282.61
388.28	1252.19
388.48	1306.02
388.67	1334.11
388.86	1179.63
389.06	1301.34
389.25	1378.58
389.45	1235.80
389.64	1334.11
389.84	1380.92
390.03	1416.02
390.22	1394.96
390.42	1423.05
390.61	1401.98
390.81	1376.24
391.00	1432.41
391.19	1486.24
391.39	1404.32
391.58	1439.43
391.78	1507.30
391.97	1434.75
392.16	1427.73
392.36	1493.26
392.55	1533.05
392.75	1535.39
392.94	1526.03
393.13	1516.67
393.33	1540.07
393.52	1540.07
393.71	1629.01
393.91	1533.05
394.10	1579.86
394.29	1600.93
394.49	1633.69
394.68	1640.72
394.88	1645.40
395.07	1687.53
395.26	1675.82
395.46	1629.01
395.65	1799.87
395.84	1657.10
396.04	1839.66
396.23	1839.66
396.42	1767.10
396.62	1804.55
396.81	1757.74
397.00	1734.34
397.19	1795.19
397.39	1795.19
397.58	1839.66
397.77	1909.88
397.97	1914.56
398.16	1870.09
398.35	1863.07
398.55	1830.30
398.74	2010.52
398.93	1846.68
399.12	1895.83
399.32	1802.21
399.51	1956.69
399.70	2073.71
399.90	2094.78
400.09	2038.61
400.28	2078.40
400.47	2038.61
400.67	2150.95
400.86	2069.03
401.05	2094.78
401.24	2040.95
401.44	2101.80
401.63	2120.53
401.82	2150.95
402.01	2066.69
402.21	2136.91
402.40	2218.83
402.59	2169.68
402.78	2132.23
402.97	2242.23
403.17	2293.72
403.36	2249.25
403.55	2251.60
403.74	2317.13
403.93	2403.73
404.13	2478.63
404.32	2490.33
404.51	2392.03
404.70	2422.45
404.89	2436.50
405.09	2530.12
405.28	2532.46
405.47	2504.37
405.66	2448.20
405.85	2637.78
406.05	2469.27
406.24	2621.40
406.43	2609.70
406.62	2708.00
406.81	2642.46
407.00	2609.70
407.20	2637.78
407.39	2693.96
407.58	2679.91
407.77	2822.69
407.96	2853.11
408.15	2801.62
408.34	2815.66
408.54	2764.17
408.73	2827.37
408.92	2733.75
409.11	2843.75
409.30	2899.92
409.49	2970.14
409.68	2981.84
409.87	3026.31
410.07	2960.78
410.26	3061.42
410.45	3014.61
410.64	2911.63
410.83	3038.02
411.02	3077.80
411.21	3155.04
411.40	3148.02
411.59	3281.43
411.78	3166.74
411.98	3110.57
412.17	3318.88
412.36	3337.60
412.55	3361.01
412.74	3389.10
412.93	3442.93
413.12	3346.97
413.31	3599.74
413.50	3442.93
413.69	3417.18
413.88	3590.38
414.07	3503.78
414.26	3543.57
414.45	3651.24
414.64	3742.52
414.83	3833.80
415.02	3782.31
415.22	3742.52
415.41	3803.37
415.60	3932.10
415.79	3922.74
415.98	3913.38
416.17	4007.00
416.36	3967.21
416.55	4049.13
416.74	3978.91
416.93	4145.09
417.12	4105.30
417.31	4264.46
417.50	4191.90
417.69	4238.71
417.88	4255.09
418.07	4269.14
418.26	4367.44
418.45	4325.31
418.64	4461.06
418.83	4486.81
419.02	4554.68
419.21	4547.66
419.39	4514.89
419.58	4418.93
419.77	4645.96
419.96	4526.60
420.15	4669.37
420.34	4521.92
420.53	4622.56
420.72	4564.04
420.91	4660.01
421.10	4910.44
421.29	4947.89
421.48	4603.83
421.67	4854.27
421.86	4952.57
422.05	4755.97
422.24	4819.16
422.43	4931.51
422.61	5100.03
422.80	4905.76
422.99	4933.85
423.18	5135.14
423.37	4985.34
423.56	4922.15
423.75	5041.51
423.94	4882.36
424.13	4484.47
424.32	4865.97
424.50	4966.62
424.69	5170.24
424.88	4957.25
425.07	4959.60
425.26	4830.87
425.45	4975.98
425.64	5011.09
425.83	5013.43
426.01	4987.68
426.20	5004.07
426.39	5036.83
426.58	5015.77
426.77	5039.17
426.96	5282.59
427.15	5165.56
427.33	5317.70
427.52	5193.65
427.71	5259.18
427.90	5151.52
428.09	5221.74
428.28	5411.32
428.46	5158.54
428.65	5371.53
428.84	5518.98
429.03	5640.69
429.22	5392.59
429.40	5544.73
429.59	5500.26
429.78	5268.55
429.97	5242.80
430.16	5408.98
430.34	5516.64
430.53	5755.38
430.72	5678.14
430.91	5708.57
431.10	5619.63
431.28	5760.06
431.47	5909.85
431.66	5884.11
431.85	5760.06
432.03	6022.20
432.22	6153.27
432.41	5841.98
432.60	5898.15
432.79	5928.58
432.97	6108.80
433.16	6024.54
433.35	6019.86
433.54	6066.67
433.72	6099.44
433.91	6045.60
434.10	6171.99
434.28	6010.50
434.47	6146.25
434.66	6272.64
434.85	6319.45
435.03	6335.83
435.22	6202.42
435.41	6459.88
435.59	6415.41
435.78	6511.37
435.97	6619.04
436.16	6483.28
436.34	6490.31
436.53	6558.18
436.72	6796.92
436.90	6396.68
437.09	6612.01
437.28	6471.58
437.46	6595.63
437.65	6691.59
437.84	6743.08
438.02	6752.45
438.21	6874.15
438.40	6693.93
438.58	6918.62
438.77	6885.86
438.96	6892.88
439.14	7148.00
439.33	7150.34
439.52	7349.28
439.70	7218.21
439.89	7243.96
440.08	7197.15
440.26	7478.01
440.45	7468.65
440.63	7424.18
440.82	7527.16
441.01	7597.38
441.19	7576.31
441.38	7698.02
441.57	7866.54
441.75	7847.82
441.94	8065.49
442.12	7978.89
442.31	8065.49
442.50	8194.22
442.68	8013.99
442.87	8212.94
443.05	8025.70
443.24	8191.88
443.43	8147.40
443.61	8063.15
443.80	8308.90
443.98	8086.55
444.17	7833.77
444.35	8376.78
444.54	8187.19
444.73	8266.77
444.91	8491.46
445.10	8269.11
445.28	8491.46
445.47	8311.24
445.65	8269.11
445.84	8449.33
446.02	8538.27
446.21	8315.92
446.39	8346.35
446.58	8627.21
446.77	8346.35
446.95	8589.77
447.14	8542.96
447.32	8545.30
447.51	8491.46
447.69	8339.33
447.88	8409.54
448.06	8617.85
448.25	8416.57
448.43	8538.27
448.62	8727.86
448.80	8414.23
448.99	8730.20
449.17	8739.56
449.36	8695.09
449.54	8784.03
449.73	8943.19
449.91	9071.92
450.10	9043.83
450.28	8917.44
450.46	9163.20
450.65	8999.36
450.83	9200.65
451.02	9324.69
451.20	9247.46
451.39	9121.07
451.57	9186.60
451.76	9102.34
451.94	9317.67
452.13	9397.25
452.31	9439.38
452.49	9217.03
452.68	9341.08
452.86	9462.79
453.05	9612.58
453.23	9748.33
453.42	9518.96
453.60	9420.66
453.78	9687.48
453.97	9338.74
454.15	9664.07
454.34	9612.58
454.52	9633.64
454.70	9783.44
454.89	9738.97
455.07	9966.00
455.26	9963.66
455.44	10005.79
455.62	9954.30
455.81	10059.62
455.99	10083.03
456.17	10005.79
456.36	10125.16
456.54	10368.57
456.73	10169.63
456.91	10417.72
457.09	10277.29
457.28	10487.94
457.46	10345.17
457.64	10370.91
457.83	10569.86
458.01	10459.85
458.19	10682.20
458.38	10572.20
458.56	10899.87
458.74	10897.53
458.93	10705.61
459.11	10869.45
459.29	10717.31
459.48	11103.50
459.66	10991.16
459.84	10998.18
460.03	11147.97
460.21	11028.60
460.39	11007.54
460.57	11147.97
460.76	11150.31
460.94	11279.04
461.12	11199.46
461.31	11213.51
461.49	11239.25
461.67	11356.28
461.85	11456.92
462.04	11262.66
462.22	11508.41
462.40	11548.20
462.59	11485.01
462.77	11653.53
462.95	11702.68
463.13	11583.31
463.32	12095.89
463.50	11826.73
463.68	11789.28
463.86	12145.04
464.05	11744.81
464.23	11735.45
464.41	11950.78
464.59	11934.39
464.78	12121.63
464.96	11908.65
465.14	11901.62
465.32	12020.99
465.50	11953.12
465.69	12173.13
465.87	11946.09
466.05	12011.63
466.23	12341.64
466.41	12386.12
466.60	12498.46
466.78	12262.07
466.96	12189.51
467.14	12299.52
467.32	12322.92
467.51	12636.55
467.69	12051.42
467.87	12580.38
468.05	12533.57
468.23	12697.41
468.41	12329.94
468.60	12599.10
468.78	12800.39
468.96	12676.34
469.14	12980.61
469.32	12952.52
469.50	12601.44
469.69	13128.06
469.87	12975.93
470.05	13270.84
470.23	13191.26
470.41	13207.64
470.59	13547.02
470.77	13380.84
470.95	13427.65
471.14	13528.30
471.32	13207.64
471.50	13727.24
471.68	13701.50
471.86	13722.56
472.04	13839.59
472.22	14052.58
472.40	14017.47
472.58	14087.68
472.77	14143.86
472.95	14443.45
473.13	14614.30
473.31	14223.44
473.49	14181.31
473.67	14281.95
473.85	14333.44
474.03	14686.86
474.21	14600.26
474.39	15119.86
474.57	14721.97
474.75	14984.11
474.93	15187.74
475.12	15009.86
475.30	15225.18
475.48	15169.01
475.66	15538.82
475.84	15353.91
476.02	15129.22
476.20	15358.60
476.38	15810.32
476.56	16252.68
476.74	15864.15
476.92	15997.56
477.10	15796.28
477.28	16255.02
477.46	16365.03
477.64	16566.31
477.82	16533.54
478.00	16996.97
478.18	16830.79
478.36	17022.72
478.54	17078.89
478.72	17202.94
478.90	17490.82
479.08	17610.19
479.26	17579.76
479.44	17764.67
479.62	18228.09
479.80	18061.91
479.98	18532.36
480.16	18640.03
480.34	18335.76
480.52	18785.14
480.70	18714.92
480.88	18310.01
481.06	18927.91
481.24	18937.27
481.41	19426.45
481.59	19206.44
481.77	19513.05
481.95	19644.12
482.13	19967.11
482.31	19665.18
482.49	20477.35
482.67	20229.25
482.85	20847.15
483.03	20521.82
483.21	21008.65
483.39	21219.30
483.57	21041.42
483.74	21221.64
483.92	21593.78
484.10	21207.59
484.28	21919.12
484.46	22104.02
484.64	22401.27
484.82	22249.13
485.00	22513.61
485.18	22644.68
485.35	23126.83
485.53	22668.09
485.71	23115.13
485.89	23637.07
486.07	23676.86
486.25	23665.16
486.43	23906.23
486.61	24173.05
486.78	24215.18
486.96	24325.19
487.14	24725.42
487.32	24732.44
487.50	25135.01
487.68	25010.96
487.85	25832.49
488.03	25296.51
488.21	26122.72
488.39	25881.64
488.57	26480.82
488.75	26256.13
488.92	26635.30
489.10	26712.53
489.28	26918.50
489.46	27569.17
489.64	27084.68
489.81	27812.59
489.99	27531.72
490.17	28196.43
490.35	28692.63
490.53	28327.50
490.70	28587.30
490.88	28287.71
491.06	29195.84
491.24	29289.46
491.41	29284.78
491.59	29436.92
491.77	29252.02
491.95	29832.47
492.13	29572.67
492.30	29912.05
492.48	30277.17
492.66	30319.30
492.84	30735.92
493.01	30618.89
493.19	30731.23
493.37	31466.16
493.54	31555.10
493.72	31608.93
493.90	31613.62
494.08	32013.85
494.25	31910.86
494.43	32034.91
494.61	32486.64
494.79	32474.93
494.96	32620.05
495.14	32900.91
495.32	33434.55
495.49	33333.91
495.67	33298.80
495.85	33310.50
496.02	34015.01
496.20	33902.66
496.38	34373.11
496.55	34759.30
496.73	34986.33
496.91	35093.99
497.09	34944.20
497.26	34876.32
497.44	35063.57
497.62	35311.66
497.79	35711.89
497.97	35779.77
498.14	36245.54
498.32	36439.80
498.50	36350.86
498.67	36767.48
498.85	36563.85
499.03	37144.30
499.20	36744.07
499.38	37273.03
499.56	37120.90
499.73	37249.63
499.91	37076.43
500.08	37476.66
500.26	37729.44
500.44	37715.39
500.61	38249.03
500.79	37998.60
500.97	38504.15
501.14	38906.73
501.32	38595.43
501.49	38745.23
501.67	38579.05
501.84	39122.05
502.02	39042.48
502.20	39328.02
502.37	39718.89
502.55	39276.53
502.72	39852.30
502.90	39959.97
503.07	39920.18
503.25	39796.13
503.43	40367.22
503.60	40093.38
503.78	40502.97
503.95	40402.33
504.13	40449.14
504.30	40912.56
504.48	40776.81
504.65	40692.55
504.83	40762.77
505.01	41860.48
505.18	41404.08
505.36	41724.73
505.53	41647.49
505.71	41610.04
505.88	42279.44
506.06	41703.67
506.23	42043.04
506.41	41893.25
506.58	42330.93
506.76	42471.36
506.93	42663.28
507.11	42574.34
507.28	42745.20
507.46	42653.92
507.63	43299.91
507.81	43267.14
507.98	42733.50
508.16	43625.25
508.33	43700.14
508.50	43288.21
508.68	44093.35
508.85	43936.54
509.03	44385.92
509.20	44416.35
509.38	44638.70
509.55	44369.54
509.73	44378.90
509.90	44811.90
510.08	44935.95
510.25	44912.54
510.42	44783.81
510.60	45160.64
510.77	45378.31
510.95	45991.53
511.12	45305.75
511.30	45663.85
511.47	45626.40
511.64	46319.20
511.82	46094.51
511.99	45928.33
512.17	46616.45
512.34	46052.38
512.51	46501.76
512.69	46703.05
512.86	46569.64
513.04	47337.33
513.21	46546.23
513.38	46721.77
513.56	47393.51
513.73	46803.69
513.90	47325.63
514.08	47082.22
514.25	47728.20
514.43	48032.47
514.60	47849.91
514.77	47632.24
514.95	47936.51
515.12	47770.33
515.29	47599.47
515.47	48081.63
515.64	48285.25
515.81	48009.07
515.99	48449.09
516.16	48516.96
516.33	48591.86
516.51	48854.00
516.68	48594.20
516.85	48385.89
517.03	49490.63
517.20	49195.72
517.37	48769.74
517.54	48842.30
517.72	48898.47
517.89	49359.56
518.06	49464.88
518.24	49413.39
518.41	49595.95
518.58	49532.76
518.75	49095.08
518.93	49865.11
519.10	49631.06
519.27	49834.69
519.45	49956.39
519.62	50127.25
519.79	50291.09
519.96	49904.90
520.14	49996.18
520.31	50251.30
520.48	50206.83
520.65	50766.22
520.83	50918.35
521.00	50930.06
521.17	50862.18
521.34	50939.42
521.52	51173.47
521.69	50876.22
521.86	51313.90
522.03	51173.47
522.20	51540.94
522.38	51950.53
522.55	51793.71
522.72	51672.01
522.89	51753.93
523.07	51798.40
523.24	51847.55
523.41	51917.76
523.58	51599.45
523.75	52271.18
523.92	52278.21
524.10	52612.90
524.27	52502.90
524.44	52343.74
524.61	52383.53
524.78	52383.53
524.96	52388.21
525.13	52596.52
525.30	52713.55
525.47	52928.87
525.64	52577.79
525.81	53017.82
525.98	52830.57
526.16	52706.52
526.33	52975.69
526.50	53034.20
526.67	52804.83
526.84	53338.47
527.01	53244.85
527.18	53041.22
527.36	53116.12
527.53	53195.70
527.70	54035.95
527.87	53734.02
528.04	53471.88
528.21	53684.87
528.38	53609.97
528.55	53525.71
528.72	53682.53
528.89	53766.79
529.07	53609.97
529.24	53616.99
529.41	53633.38
529.58	53921.26
529.75	53729.34
529.92	53918.92
530.09	54131.91
530.26	54042.97
530.43	53860.41
530.60	53970.41
530.77	54213.83
530.94	54078.08
531.11	54120.21
531.28	54475.97
531.46	54323.83
531.63	54288.73
531.80	54293.41
531.97	54340.22
532.14	54635.13
532.31	54614.06
532.48	54698.32
532.65	54843.43
532.82	54497.03
532.99	55011.95
533.16	54749.81
533.33	54951.10
533.50	55302.18
533.67	55210.90
533.84	54899.61
534.01	55166.43
534.18	54988.55
534.35	55367.71
534.52	55281.11
534.69	55416.86
534.86	55615.81
535.03	55299.84
535.20	55365.37
535.37	55423.89
535.54	55686.03
535.71	55498.78
535.88	55660.28
536.05	55580.70
536.22	55880.29
536.38	55711.77
536.55	55969.23
536.72	55742.20
536.89	55669.64
537.06	55849.86
537.23	56156.47
537.40	55992.64
537.57	56123.71
537.74	55952.85
537.91	56343.72
538.08	56231.37
538.25	55824.12
538.42	56149.45
538.59	56186.90
538.75	56163.50
538.92	56140.09
539.09	56324.99
539.26	56191.58
539.43	56163.50
539.60	56519.26
539.77	56449.04
539.94	56479.47
540.11	56479.47
540.28	56427.98
540.44	56559.05
540.61	56596.49
540.78	56849.27
540.95	56720.54
541.12	56821.19
541.29	56673.73
541.46	56779.06
541.62	56711.18
541.79	56935.87
541.96	56774.37
542.13	56559.05
542.30	56872.68
542.47	56863.32
542.63	56982.68
542.80	57090.35
542.97	57233.12
543.14	57221.42
543.31	57179.29
543.48	57443.77
543.64	57642.71
543.81	57626.33
543.98	57317.38
544.15	57757.40
544.32	57408.66
544.48	57848.68
544.65	57450.79
544.82	57488.24
544.99	57366.53
545.16	57509.30
545.32	57645.05
545.49	57670.80
545.66	58162.31
545.83	57797.19
546.00	57846.34
546.16	57949.32
546.33	57790.17
546.50	57595.90
546.67	57890.81
546.83	57530.37
547.00	57965.71
547.17	57813.57
547.34	58042.95
547.50	58099.12
547.67	58330.83
547.84	58396.37
548.00	58312.11
548.17	58202.10
548.34	58239.55
548.51	58412.75
548.67	58394.03
548.84	58220.83
549.01	58300.40
549.18	58181.04
549.34	58330.83
549.51	58405.73
549.68	58560.20
549.84	58513.39
550.01	58520.41
550.18	58415.09
550.34	58688.93
550.51	58674.89
550.68	58567.23
550.84	58639.78
551.01	58770.85
551.18	58513.39
551.34	58557.86
551.51	58738.08
551.68	58721.70
551.84	58740.42
552.01	58518.07
552.18	58775.53
552.34	58637.44
552.51	58726.38
552.68	58768.51
552.84	58836.39
553.01	59025.97
553.18	58972.14
553.34	59110.23
553.51	58899.58
553.67	58937.03
553.84	59114.91
554.01	59124.27
554.17	59143.00
554.34	59320.88
554.51	59171.08
554.67	59112.57
554.84	59096.19
555.00	59220.23
555.17	59288.11
555.33	59217.89
555.50	59227.26
555.67	59283.43
555.83	59257.68
556.00	59175.76
556.16	59618.13
556.33	59414.50
556.50	59299.81
556.66	59587.70
556.83	59264.70
556.99	59590.04
557.16	59608.76
557.32	59725.79
557.49	59709.41
557.65	59505.78
557.82	59351.30
557.98	59613.44
558.15	59580.68
558.32	59615.79
558.48	59660.26
558.65	59639.19
558.81	59622.81
558.98	59646.21
559.14	59908.35
559.31	60020.70
559.47	59796.01
559.64	59812.39
559.80	59756.22
559.97	59997.29
560.13	59784.30
560.30	59913.03
560.46	60027.72
560.63	60004.31
560.79	59868.56
560.96	60046.44
561.12	60081.55
561.29	59920.05
561.45	59882.61
561.61	60186.88
561.78	59901.33
561.94	59868.56
562.11	60074.53
562.27	59980.91
562.44	60009.00
562.60	60317.95
562.77	60327.31
562.93	59803.03
563.10	60231.35
563.26	60053.47
563.42	60441.99
563.59	60144.75
563.75	60037.08
563.92	60212.62
564.08	60137.72
564.24	60317.95
564.41	60179.85
564.57	60264.11
564.74	60226.66
564.90	60306.24
565.07	60278.16
565.23	60313.26
565.39	60119.00
565.56	60301.56
565.72	60189.22
565.88	60245.39
566.05	60313.26
566.21	60479.44
566.38	60444.33
566.54	60402.21
566.70	60486.46
566.87	60748.60
567.03	60266.45
567.19	60484.12
567.36	60390.50
567.52	60481.78
567.68	60652.64
567.85	60392.84
568.01	60598.81
568.17	60341.35
568.34	60662.00
568.50	60509.87
568.66	60519.23
568.83	60767.33
568.99	60439.65
569.15	60584.77
569.32	60619.88
569.48	60463.06
569.64	60886.70
569.81	60662.00
569.97	60573.06
570.13	60676.05
570.30	60493.49
570.46	60559.02
570.62	60437.31
570.78	60559.02
570.95	60533.28
571.11	60598.81
571.27	60690.09
571.43	60673.71
571.60	60865.63
571.76	60863.29
571.92	60825.84
572.09	60640.94
572.25	60697.11
572.41	60566.04
572.57	60757.97
572.74	61057.56
572.90	60664.35
573.06	60947.55
573.22	60727.54
573.38	60638.60
573.55	60928.83
573.71	60942.87
573.87	60584.77
574.03	60657.32
574.20	60921.80
574.36	60643.28
574.52	60594.13
574.68	60893.72
574.84	60980.32
575.01	60842.23
575.17	61015.43
575.33	60790.73
575.49	60547.32
575.65	60910.10
575.82	60956.91
575.98	60914.78
576.14	61137.13
576.30	60912.44
576.46	60863.29
576.62	60949.89
576.79	61059.90
576.95	60809.46
577.11	60985.00
577.27	61080.96
577.43	60942.87
577.59	60849.25
577.75	60882.02
577.92	60807.12
578.08	61020.11
578.24	61071.60
578.40	61083.30
578.56	61024.79
578.72	61027.13
578.88	61197.99
579.04	61041.17
579.21	60940.53
579.37	61066.92
579.53	61130.11
579.69	61155.86
579.85	60921.80
580.01	61015.43
580.17	60938.19
580.33	60832.86
580.49	61071.60
580.65	61277.57
580.82	60727.54
580.98	60860.95
581.14	60980.32
581.30	61160.54
581.46	61090.32
581.62	61024.79
581.78	60889.04
581.94	61228.41
582.10	61041.17
582.26	61104.37
582.42	61134.79
582.58	61146.50
582.74	60893.72
582.90	60917.12
583.06	61104.37
583.22	60956.91
583.38	61038.83
583.54	61272.88
583.70	61055.21
583.86	61279.91
584.02	61193.31
584.18	61209.69
584.34	61109.05
584.50	61172.24
584.66	60860.95
584.82	61104.37
584.98	61322.04
585.14	61141.81
585.30	61041.17
585.46	61048.19
585.62	61106.71
585.78	61350.12
585.94	61045.85
586.10	60973.30
586.26	61123.09
586.42	61240.12
586.58	61155.86
586.74	61123.09
586.90	60996.70
587.06	61153.52
587.22	61354.80
587.38	61116.07
587.54	61380.55
587.70	61509.28
587.86	61275.22
588.02	61305.65
588.18	61277.57
588.34	61244.80
588.49	61345.44
588.65	61118.41
588.81	61151.18
588.97	61244.80
589.13	61221.39
589.29	61366.51
589.45	61244.80
589.61	61525.66
589.77	61633.33
589.93	61310.33
590.08	61518.64
590.24	61581.84
590.40	61811.21
590.56	61769.08
590.72	61462.47
590.88	61279.91
591.04	61600.56
591.20	61755.03
591.35	61406.30
591.51	61778.44
591.67	61656.73
591.83	61666.09
591.99	61558.43
592.15	61429.70
592.31	61642.69
592.46	61546.73
592.62	61513.96
592.78	61556.09
592.94	61778.44
593.10	61619.28
593.26	61684.82
593.41	61518.64
593.57	61408.64
593.73	61598.22
593.89	61834.61
594.05	61843.98
594.20	61422.68
594.36	61832.27
594.52	61549.07
594.68	61780.78
594.84	61513.96
594.99	61612.26
595.15	61537.36
595.31	61769.08
595.47	61413.32
595.62	61836.95
595.78	61680.14
595.94	61804.19
596.10	62012.49
596.25	61778.44
596.41	61670.78
596.57	61600.56
596.73	61764.40
596.88	61806.53
597.04	61836.95
597.20	61946.96
597.36	61787.80
597.51	61975.05
597.67	61593.54
597.83	61511.62
597.99	61766.74
598.14	61736.31
598.30	61743.33
598.46	61705.88
598.61	61897.81
598.77	61942.28
598.93	61860.36
599.09	61736.31
599.24	62124.84
599.40	61975.05
599.56	61977.39
599.71	61874.40
599.87	61968.02
600.03	61939.94
600.18	61743.33
600.34	61879.08
600.50	61806.53
600.65	61862.70
600.81	61867.38
600.97	61827.59
601.12	61841.63
601.28	61769.08
601.44	61860.36
601.59	62017.17
601.75	62033.56
601.91	62096.75
602.06	61890.79
602.22	62103.77
602.37	62108.46
602.53	61921.21
602.69	61977.39
602.84	61806.53
603.00	61890.79
603.16	61862.70
603.31	62106.12
603.47	61918.87
603.62	61851.00
603.78	62131.86
603.94	61771.42
604.09	62031.22
604.25	61916.53
604.40	61916.53
604.56	61937.60
604.71	62127.18
604.87	61851.00
605.03	61956.32
605.18	61813.55
605.34	61797.16
605.49	61656.73
605.65	62080.37
605.80	61792.48
605.96	62063.99
606.12	62209.10
606.27	61921.21
606.43	61703.54
606.58	62094.41
606.74	62012.49
606.89	61722.27
607.05	61696.52
607.20	62157.61
607.36	61792.48
607.51	61762.06
607.67	61567.79
607.82	61799.50
607.98	61682.48
608.13	61839.29
608.29	61698.86
608.44	61698.86
608.60	61820.57
608.75	61827.59
608.91	61799.50
609.06	61638.01
609.22	61909.51
609.37	61820.57
609.53	61888.45
609.68	61769.08
609.84	61776.10
609.99	61623.96
610.15	61886.10
610.30	61928.23
610.46	61645.03
610.61	61808.87
610.76	61598.22
610.92	61787.80
611.07	61701.20
611.23	61563.11
611.38	61677.80
611.54	61780.78
611.69	61811.21
611.84	61654.39
612.00	61740.99
612.15	61504.60
612.31	61801.85
612.46	61432.04
612.62	61682.48
612.77	61591.20
612.92	61733.97
613.08	61581.84
613.23	61539.71
613.39	61565.45
613.54	61350.12
613.69	61673.12
613.85	61432.04
614.00	61492.89
614.15	61584.18
614.31	61520.98
614.46	61666.09
614.62	61680.14
614.77	61464.81
614.92	61579.49
615.08	61347.78
615.23	61462.47
615.38	61619.28
615.54	61467.15
615.69	61579.49
615.84	61460.13
616.00	61551.41
616.15	61408.64
616.30	61621.62
616.46	61378.21
616.61	61368.85
616.76	61656.73
616.92	61329.06
617.07	61396.93
617.22	61361.82
617.37	61399.27
617.53	61818.23
617.68	61513.96
617.83	61401.61
617.99	61331.40
618.14	61371.19
618.29	61422.68
618.45	61160.54
618.60	61207.35
618.75	61165.22
618.90	61095.00
619.06	61361.82
619.21	61347.78
619.36	61361.82
619.51	61221.39
619.67	61251.82
619.82	61307.99
619.97	61300.97
620.12	61483.53
620.28	61148.84
620.43	61429.70
620.58	61165.22
620.73	60970.96
620.89	61134.79
621.04	61368.85
621.19	61272.88
621.34	61024.79
621.49	60963.93
621.65	61104.37
621.80	61237.78
621.95	60818.82
622.10	61071.60
622.25	60954.57
622.41	61076.28
622.56	60793.07
622.71	61130.11
622.86	60772.01
623.01	60903.08
623.16	60694.77
623.32	60977.98
623.47	61132.45
623.62	60966.27
623.77	61066.92
623.92	61031.81
624.07	60963.93
624.23	61085.64
624.38	60926.49
624.53	60823.50
624.68	60645.62
624.83	60860.95
624.98	60769.67
625.13	60605.83
625.29	60926.49
625.44	60804.78
625.59	60839.89
625.74	60767.33
625.89	60589.45
626.04	60346.03
626.19	60601.15
626.34	60458.38
626.49	60456.04
626.65	60526.25
626.80	60720.52
626.95	60624.56
627.10	60413.91
627.25	60360.08
627.40	60577.75
627.55	60467.74
627.70	60418.59
627.85	60582.43
628.00	60306.24
628.15	60554.34
628.30	60430.29
628.45	60491.15
628.60	60296.88
628.76	60453.70
628.91	60247.73
629.06	60458.38
629.21	60612.85
629.36	60236.03
629.51	60465.40
629.66	60210.28
629.81	60203.26
629.96	60191.56
630.11	60229.01
630.26	60161.13
630.41	60278.16
630.56	60203.26
630.71	60236.03
630.86	60287.52
631.01	60317.95
631.16	60399.86
631.31	59962.18
631.46	59997.29
631.61	60221.98
631.76	60346.03
631.91	60236.03
632.06	60610.51
632.21	60200.92
632.36	60163.47
632.51	59655.57
632.66	60107.30
632.81	59779.62
632.96	60149.43
633.10	60254.75
633.25	60013.68
633.40	59943.46
633.55	60097.94
633.70	59737.49
633.85	59796.01
634.00	59650.89
634.15	60041.76
634.30	59945.80
634.45	59859.20
634.60	60065.17
634.75	60072.19
634.90	59592.38
635.05	59744.51
635.19	59784.30
635.34	59929.42
635.49	59714.09
635.64	59683.66
635.79	59840.48
635.94	59770.26
636.09	59716.43
636.24	59664.94
636.39	59725.79
636.53	59826.43
636.68	59557.27
636.83	59669.62
636.98	59882.61
637.13	59550.25
637.28	59650.89
637.43	59468.33
637.57	59587.70
637.72	59742.17
637.87	59587.70
638.02	59681.32
638.17	59667.28
638.32	59657.91
638.46	59629.83
638.61	59524.50
638.76	59255.34
638.91	59395.77
639.06	59451.95
639.20	59475.35
639.35	59381.73
639.50	59180.45
639.65	59423.86
639.80	59297.47
639.94	59180.45
640.09	59419.18
640.24	59309.18
640.39	59320.88
640.54	59271.73
640.68	59309.18
640.83	59461.31
640.98	59334.92
641.13	58983.84
641.27	59433.22
641.42	59236.62
641.57	59011.93
641.72	59121.93
641.86	59032.99
642.01	58787.24
642.16	58925.33
642.31	59054.06
642.45	59231.94
642.60	58988.52
642.75	59229.60
642.90	59304.49
643.04	59098.53
643.19	59105.55
643.34	58958.09
643.48	59159.38
643.63	59082.14
643.78	59014.27
643.93	58845.75
644.07	58962.78
644.22	58812.98
644.37	58553.18
644.51	58798.94
644.66	58836.39
644.81	58885.54
644.95	58817.66
645.10	58859.79
645.25	58864.47
645.39	58468.92
645.54	59025.97
645.69	58632.76
645.83	58791.92
645.98	58644.46
646.13	58712.34
646.27	58782.55
646.42	58721.70
646.57	58651.48
646.71	58543.82
646.86	58630.42
647.00	58731.06
647.15	58731.06
647.30	58602.33
647.44	58625.74
647.59	58604.67
647.74	58777.87
647.88	58543.82
648.03	58794.26
648.17	58501.69
648.32	58501.69
648.47	58527.44
648.61	58560.20
648.76	58520.41
648.90	58590.63
649.05	58539.14
649.20	58609.35
649.34	58595.31
649.49	58588.29
649.63	58518.07
649.78	58719.36
649.92	58356.58
650.07	58602.33
650.21	58159.97
650.36	58291.04
650.51	58326.15
650.65	58368.28
650.80	58279.34
650.94	58007.84
651.09	57982.09
651.23	57893.15
651.38	58071.03
651.52	58108.48
651.67	57900.17
651.81	58127.20
651.96	58040.60
652.10	58305.09
652.25	58152.95
652.39	57834.64
652.54	57846.34
652.68	57701.23
652.83	58007.84
652.97	57897.83
653.12	57954.00
653.26	58017.20
653.41	58099.12
653.55	57883.79
653.70	57827.62
653.84	58211.46
653.99	58054.65
654.13	57729.31
654.27	57776.12
654.42	57666.12
654.56	57549.09
654.71	57797.19
654.85	57883.79
655.00	57991.45
655.14	57565.48
655.29	57916.56
655.43	57689.52
655.57	57670.80
655.72	57584.20
655.86	57439.09
656.01	57762.08
656.15	57572.50
656.30	57614.63
656.44	57696.55
656.58	57729.31
656.73	57492.92
656.87	57556.11
657.01	57612.29
657.16	57492.92
657.30	57385.25
657.45	57553.77
657.59	57254.18
657.73	57228.44
657.88	57406.32
658.02	57485.90
658.16	57317.38
658.31	57378.23
658.45	57080.98
658.60	57378.23
658.74	57258.87
658.88	57326.74
659.03	57036.51
659.17	57254.18
659.31	57268.23
659.46	57045.88
659.60	57064.60
659.74	57095.03
659.89	56975.66
660.03	56924.17
660.17	57097.37
660.32	57083.33
660.46	56963.96
660.60	56750.97
660.74	56889.06
660.89	56823.53
661.03	56741.61
661.17	56633.94
661.32	56313.29
661.46	56570.75
661.60	56697.14
661.74	56748.63
661.89	56432.66
662.03	56439.68
662.17	56619.90
662.31	56479.47
662.46	56821.19
662.60	56507.55
662.74	56357.76
662.88	56172.86
663.03	56182.22
663.17	56109.66
663.31	55966.89
663.45	56102.64
663.60	56030.08
663.74	55800.71
663.88	56044.13
664.02	55810.07
664.17	55957.53
664.31	55875.61
664.45	56083.92
664.59	55882.63
664.73	55880.29
664.88	55751.56
665.02	55374.73
665.16	55597.09
665.30	55437.93
665.44	55440.27
665.59	55281.11
665.73	55421.55
665.87	55620.49
666.01	55292.82
666.15	55246.00
666.29	55264.73
666.44	55391.12
666.58	55290.48
666.72	55224.94
666.86	54892.58
667.00	55124.30
667.14	55084.51
667.28	54803.64
667.43	54770.88
667.57	54946.42
667.71	54824.71
667.85	54728.75
667.99	54759.17
668.13	54808.32
668.27	54728.75
668.41	54857.48
668.56	54567.25
668.70	54583.63
668.84	54185.74
668.98	54377.67
669.12	54506.40
669.26	54534.48
669.40	54436.18
669.54	54539.16
669.68	54199.79
669.82	54017.22
669.96	54382.35
670.10	54012.54
670.25	54246.60
670.39	54162.34
670.53	53961.05
670.67	53947.01
670.81	54122.55
670.95	54038.29
671.09	53858.07
671.23	53680.19
671.37	53935.30
671.51	53741.04
671.65	53860.41
671.79	53521.03
671.93	53202.72
672.07	53308.04
672.21	53256.55
672.35	53195.70
672.49	52982.71
672.63	52882.06
672.77	52671.42
672.91	52671.42
673.05	53043.56
673.19	52678.44
673.33	52636.31
673.47	52383.53
673.61	52624.60
673.75	52746.31
673.89	52397.57
674.03	52360.12
674.17	52699.50
674.31	51999.68
674.45	51929.47
674.59	52191.61
674.73	51875.63
674.87	51863.93
675.01	51756.27
675.15	51686.05
675.29	51629.88
675.43	51746.90
675.56	51391.14
675.70	50974.53
675.84	51564.34
675.98	50539.19
676.12	51107.94
676.26	51454.34
676.40	51079.85
676.54	51086.87
676.68	50908.99
676.82	49830.01
676.96	50485.36
677.10	50237.26
677.23	50103.85
677.37	50319.18
677.51	49757.45
677.65	49876.82
677.79	48708.89
677.93	49254.23
678.07	49485.95
678.21	49167.63
678.34	49059.97
678.48	48926.56
678.62	49165.29
678.76	49017.84
678.90	48591.86
679.04	48512.28
679.18	49214.44
679.31	48287.59
679.45	48615.27
679.59	48292.27
679.73	48439.73
679.87	48018.43
680.00	47917.79
680.14	47327.97
680.28	47805.44
680.42	47821.83
680.56	47337.33
680.70	46777.95
680.83	47213.29
680.97	46703.05
681.11	47229.67
681.25	47217.97
681.39	46260.69
681.52	46777.95
681.66	46712.41
681.80	46146.00
681.94	46148.34
682.07	45794.92
682.21	45762.15
682.35	45352.56
682.49	45535.12
682.62	46045.36
682.76	45563.21
682.90	45340.86
683.04	45338.52
683.17	45340.86
683.31	44739.34
683.45	44533.37
683.59	44435.07
683.72	44184.63
683.86	44179.95
684.00	44818.92
684.13	44376.56
684.27	43927.17
684.41	44229.10
684.55	43742.27
684.68	43555.03
684.82	43587.80
684.96	42815.42
685.09	43379.49
685.23	43028.41
685.37	42955.85
685.50	42387.10
685.64	42738.18
685.78	42672.65
685.91	42707.76
686.05	42246.67
686.19	41584.30
686.32	41703.67
686.46	41324.50
686.60	41085.76
686.73	41027.25
686.87	40720.64
687.01	40870.43
687.14	41106.83
687.28	41057.68
687.42	40463.18
687.55	40289.98
687.69	40325.09
687.82	40423.39
687.96	39849.96
688.10	39810.17
688.23	39728.25
688.37	40072.31
688.50	39487.18
688.64	39594.84
688.78	38979.28
688.91	38841.19
689.05	38506.49
689.18	38803.74
689.32	38202.22
689.46	37937.74
689.59	37853.48
689.73	37968.17
689.86	37750.50
690.00	37748.16
690.13	38169.46
690.27	37556.24
690.41	37621.77
690.54	37525.81
690.68	37148.98
690.81	36739.39
690.95	36498.31
691.08	36837.69
691.22	36362.56
691.35	36566.19
691.49	36341.50
691.62	36362.56
691.76	35796.15
691.89	35955.31
692.03	35428.69
692.16	35449.75
692.30	35400.60
692.43	35611.25
692.57	35002.71
692.70	34646.95
692.84	34873.98
692.97	34508.86
693.11	34515.88
693.24	34682.06
693.38	34377.79
693.51	33975.22
693.65	34216.29
693.78	33582.01
693.92	34452.69
694.05	33689.67
694.19	33560.94
694.32	33376.04
694.45	32863.46
694.59	32875.16
694.72	32929.00
694.86	32840.06
694.99	32439.82
695.13	32233.86
695.26	32517.06
695.39	31552.76
695.53	31906.18
695.66	32236.20
695.80	32048.96
695.93	31644.04
696.07	31087.00
696.20	30904.43
696.33	30738.26
696.47	31005.08
696.60	30738.26
696.73	30698.47
696.87	30302.92
697.00	30127.38
697.14	30838.90
697.27	30183.55
697.40	30096.95
697.54	30080.56
697.67	29413.51
697.80	29600.76
697.94	29788.00
698.07	29511.81
698.21	29036.69
698.34	29193.50
698.47	29249.67
698.61	28311.12
698.74	28514.75
698.87	28470.28
699.01	28360.27
699.14	28250.27
699.27	27887.48
699.40	28505.38
699.54	28034.94
699.67	28116.86
699.80	27524.70
699.94	27604.28
700.07	27810.25
700.20	27269.58
700.34	27108.08
700.47	26614.23
700.60	26553.38
700.73	26668.06
700.87	25947.18
701.00	25912.07
701.13	26265.49
701.26	26143.78
701.40	25968.24
701.53	25673.34
701.66	25837.17
701.79	25535.24
701.93	25221.61
702.06	24994.58
702.19	24577.97
702.32	25111.61
702.46	24641.16
702.59	24732.44
702.72	24711.38
702.85	24844.79
702.99	24730.10
703.12	24313.48
703.25	24063.05
703.38	24006.87
703.51	24126.24
703.65	23330.46
703.78	23571.54
703.91	23454.51
704.04	23178.33
704.17	23768.14
704.31	23164.28
704.44	23384.29
704.57	23098.75
704.70	22735.96
704.83	22611.92
704.96	22560.42
705.10	22066.57
705.23	22197.64
>>>>>End Processed Spectral Data<<<<<
