SpectraSuite Data File
++++++++++++++++++++++++++++++++++++
Date: Fri Oct 25 11:22:50 EDT 2013
User: price-jones
Dark Spectrum Present: No
Reference Spectrum Present: No
Number of Sampled Component Spectra: 1
Spectrometers: USB2+H05261
Integration Time (usec): 100000 (USB2+H05261)
Spectra Averaged: 1 (USB2+H05261)
Boxcar Smoothing: 0 (USB2+H05261)
Correct for Electrical Dark: No (USB2+H05261)
Strobe/Lamp Enabled: No (USB2+H05261)
Correct for Detector Non-linearity: No (USB2+H05261)
Correct for Stray Light: No (USB2+H05261)
Number of Pixels in Processed Spectrum: 2048
>>>>>Begin Processed Spectral Data<<<<<
365.73	234.05
365.92	234.05
366.12	234.05
366.32	110.01
366.52	95.96
366.72	187.24
366.91	152.13
367.11	119.37
367.31	131.07
367.51	110.01
367.70	84.26
367.90	121.71
368.10	37.45
368.30	138.09
368.49	56.17
368.69	163.84
368.89	212.99
369.09	126.39
369.28	121.71
369.48	152.13
369.68	222.35
369.87	194.26
370.07	201.29
370.27	177.88
370.47	262.14
370.66	603.86
370.86	620.24
371.06	669.39
371.25	678.76
371.45	667.05
371.65	662.37
371.84	624.92
372.04	664.71
372.24	744.29
372.44	732.59
372.63	753.65
372.83	697.48
373.03	765.36
373.22	805.14
373.42	791.10
373.62	751.31
373.81	779.40
374.01	851.96
374.21	863.66
374.40	772.38
374.60	821.53
374.79	823.87
374.99	788.76
375.19	763.01
375.38	851.96
375.58	830.89
375.78	840.25
375.97	910.47
376.17	873.02
376.37	912.81
376.56	863.66
376.76	940.90
376.95	877.70
377.15	835.57
377.35	964.30
377.54	926.85
377.74	973.66
377.93	823.87
378.13	870.68
378.33	901.11
378.52	943.24
378.72	952.60
378.91	938.55
379.11	915.15
379.31	915.15
379.50	917.49
379.70	1025.15
379.89	929.19
380.09	1001.75
380.28	1034.52
380.48	983.02
380.68	1069.62
380.87	987.71
381.07	1057.92
381.26	1043.88
381.46	978.34
381.65	1011.11
381.85	1032.18
382.04	976.00
382.24	1071.97
382.43	1076.65
382.63	987.71
382.83	1118.78
383.02	1055.58
383.22	1114.10
383.41	980.68
383.61	1062.60
383.80	1078.99
384.00	1086.01
384.19	1057.92
384.39	1153.88
384.58	1144.52
384.78	1093.03
384.97	1076.65
385.17	1170.27
385.36	1158.57
385.56	1174.95
385.75	1205.38
385.95	1116.44
386.14	1252.19
386.34	1242.82
386.53	1156.22
386.72	1240.48
386.92	1287.29
387.11	1256.87
387.31	1156.22
387.50	1242.82
387.70	1198.35
387.89	1254.53
388.09	1310.70
388.28	1270.91
388.48	1301.34
388.67	1329.42
388.86	1259.21
389.06	1364.53
389.25	1331.76
389.45	1394.96
389.64	1291.98
389.84	1448.79
390.03	1315.38
390.22	1427.73
390.42	1371.55
390.61	1362.19
390.81	1495.60
391.00	1362.19
391.19	1385.60
391.39	1359.85
391.58	1472.20
391.78	1420.71
391.97	1439.43
392.16	1411.34
392.36	1619.65
392.55	1673.48
392.75	1511.99
392.94	1448.79
393.13	1589.22
393.33	1561.14
393.52	1577.52
393.71	1614.97
393.91	1631.35
394.10	1516.67
394.29	1523.69
394.49	1631.35
394.68	1654.76
394.88	1621.99
395.07	1629.01
395.26	1582.20
395.46	1682.85
395.65	1657.10
395.84	1664.12
396.04	1652.42
396.23	1769.44
396.42	1750.72
396.62	1715.61
396.81	1736.68
397.00	1760.08
397.19	1778.81
397.39	1739.02
397.58	1804.55
397.77	1755.40
397.97	1881.79
398.16	1769.44
398.35	1940.30
398.55	1858.39
398.74	1928.60
398.93	1888.81
399.12	2017.54
399.32	1834.98
399.51	1916.90
399.70	2062.01
399.90	2050.31
400.09	1970.73
400.28	1956.69
400.47	2050.31
400.67	2099.46
400.86	2148.61
401.05	2071.37
401.24	2069.03
401.44	2092.44
401.63	2169.68
401.82	2155.63
402.01	2106.48
402.21	2146.27
402.40	2125.21
402.59	2214.15
402.78	2111.16
402.97	2286.70
403.17	2186.06
403.36	2122.87
403.55	2244.57
403.74	2221.17
403.93	2310.11
404.13	2349.90
404.32	2345.22
404.51	2377.98
404.70	2495.01
404.89	2422.45
405.09	2499.69
405.28	2495.01
405.47	2359.26
405.66	2518.42
405.85	2483.31
406.05	2541.82
406.24	2602.68
406.43	2553.52
406.62	2609.70
406.81	2579.27
407.00	2663.53
407.20	2532.46
407.39	2628.42
407.58	2703.32
407.77	2829.71
407.96	2773.53
408.15	2722.04
408.34	2768.85
408.54	2768.85
408.73	2766.51
408.92	2944.39
409.11	2799.28
409.30	2836.73
409.49	2960.78
409.68	2888.22
409.87	2920.99
410.07	2960.78
410.26	3094.19
410.45	3061.42
410.64	3028.65
410.83	3129.30
411.02	3199.51
411.21	3171.43
411.40	3033.33
411.59	3239.30
411.78	3215.90
411.98	3077.80
412.17	3229.94
412.36	3213.56
412.55	3267.39
412.74	3297.81
412.93	3461.65
413.12	3433.57
413.31	3674.64
413.50	3588.04
413.69	3574.00
413.88	3620.81
414.07	3609.11
414.26	3616.13
414.45	3686.34
414.64	3794.01
414.83	3684.00
415.02	3873.59
415.22	3819.75
415.41	3887.63
415.60	3765.92
415.79	3988.27
415.98	3939.12
416.17	3957.85
416.36	3918.06
416.55	3950.82
416.74	4142.75
416.93	4051.47
417.12	4105.30
417.31	4201.26
417.50	4175.52
417.69	4383.82
417.88	4283.18
418.07	4266.80
418.26	4187.22
418.45	4329.99
418.64	4491.49
418.83	4432.97
419.02	4362.76
419.21	4468.08
419.39	4486.81
419.58	4489.15
419.77	4662.35
419.96	4655.33
420.15	4437.66
420.34	4594.47
420.53	4596.81
420.72	4739.58
420.91	4660.01
421.10	4629.58
421.29	4858.95
421.48	4660.01
421.67	4744.27
421.86	4744.27
422.05	4854.27
422.24	4933.85
422.43	4912.78
422.61	4975.98
422.80	5107.05
422.99	4889.38
423.18	5095.35
423.37	4800.44
423.56	5011.09
423.75	4924.49
423.94	4844.91
424.13	4681.07
424.32	4695.11
424.50	5123.43
424.69	5181.95
424.88	5085.98
425.07	5029.81
425.26	5067.26
425.45	4924.49
425.64	4964.28
425.83	5018.11
426.01	5104.71
426.20	5123.43
426.39	5107.05
426.58	5085.98
426.77	5043.85
426.96	5076.62
427.15	5116.41
427.33	5163.22
427.52	5210.03
427.71	5247.48
427.90	5116.41
428.09	5231.10
428.28	5305.99
428.46	5451.11
428.65	5364.51
428.84	5526.00
429.03	5610.26
429.22	5336.42
429.40	5474.51
429.59	5542.39
429.78	5334.08
429.97	5217.05
430.16	5434.72
430.34	5540.05
430.53	5647.71
430.72	5640.69
430.91	5526.00
431.10	5717.93
431.28	5834.96
431.47	5795.17
431.66	5951.98
431.85	5909.85
432.03	5898.15
432.22	6029.22
432.41	6001.13
432.60	6111.14
432.79	5935.60
432.97	6181.35
433.16	6188.38
433.35	5961.34
433.54	6237.53
433.72	6155.61
433.91	6188.38
434.10	6129.86
434.28	6342.85
434.47	6232.85
434.66	6410.73
434.85	6429.45
435.03	6408.39
435.22	6225.82
435.41	6389.66
435.59	6392.00
435.78	6382.64
435.97	6586.27
436.16	6480.94
436.34	6546.48
436.53	6422.43
436.72	6604.99
436.90	6579.25
437.09	6670.53
437.28	6502.01
437.46	6567.54
437.65	6703.29
437.84	6729.04
438.02	6853.09
438.21	6773.51
438.40	6644.78
438.58	7026.29
438.77	7080.12
438.96	7070.76
439.14	7201.83
439.33	7171.40
439.52	7307.15
439.70	7054.37
439.89	7269.70
440.08	7485.03
440.26	7351.62
440.45	7279.07
440.63	7602.06
440.82	7508.44
441.01	7499.08
441.19	7669.94
441.38	7786.96
441.57	7651.21
441.75	7772.92
441.94	8119.32
442.12	8173.15
442.31	8016.33
442.50	8107.62
442.68	7964.84
442.87	7882.92
443.05	8175.49
443.24	8208.26
443.43	8248.05
443.61	8194.22
443.80	8634.24
443.98	8182.51
444.17	7922.71
444.35	8318.26
444.54	8313.58
444.73	8439.97
444.91	8393.16
445.10	8327.63
445.28	8336.99
445.47	8519.55
445.65	8428.27
445.84	8449.33
446.02	8559.34
446.21	8547.64
446.39	8262.09
446.58	8561.68
446.77	8444.65
446.95	8131.02
447.14	8482.10
447.32	8711.47
447.51	8421.25
447.69	8613.17
447.88	8512.53
448.06	8767.65
448.25	8667.00
448.43	8613.17
448.62	8617.85
448.80	8423.59
448.99	8629.56
449.17	8865.95
449.36	8664.66
449.54	8924.46
449.73	9231.07
449.91	9181.92
450.10	9071.92
450.28	9116.39
450.46	9097.66
450.65	9069.58
450.83	9235.75
451.02	9041.49
451.20	9144.47
451.39	9139.79
451.57	9312.99
451.76	9071.92
451.94	9252.14
452.13	9343.42
452.31	9486.19
452.49	9238.09
452.68	9453.42
452.86	9338.74
453.05	9376.19
453.23	9474.49
453.42	9411.29
453.60	9460.45
453.78	9516.62
453.97	9467.47
454.15	9624.28
454.34	9549.39
454.52	9788.12
454.70	9706.20
454.89	9724.93
455.07	9963.66
455.26	9935.57
455.44	9921.53
455.62	9792.80
455.81	9933.23
455.99	10057.28
456.17	10043.24
456.36	10216.44
456.54	10197.71
456.73	10366.23
456.91	10478.58
457.09	10424.75
457.28	10707.95
457.46	10258.57
457.64	10621.35
457.83	10621.35
458.01	10635.39
458.19	10721.99
458.38	10630.71
458.56	11016.90
458.74	10707.95
458.93	10717.31
459.11	10820.30
459.29	10916.26
459.48	10843.70
459.66	10895.19
459.84	10942.00
460.03	11035.63
460.21	10970.09
460.39	11143.29
460.57	10913.92
460.76	11140.95
460.94	11269.68
461.12	11377.34
461.31	11037.97
461.49	11232.23
461.67	11147.97
461.85	11559.91
462.04	11545.86
462.22	11981.20
462.40	11559.91
462.59	11496.71
462.77	11466.28
462.95	11744.81
463.13	11513.10
463.32	11721.40
463.50	11747.15
463.68	12037.38
463.86	12013.97
464.05	11878.22
464.23	11833.75
464.41	11913.33
464.59	11674.59
464.78	12025.67
464.96	12011.63
465.14	11941.41
465.32	12098.23
465.50	12187.17
465.69	11988.22
465.87	11946.09
466.05	11974.18
466.23	12159.08
466.41	12606.13
466.60	12585.06
466.78	12332.28
466.96	12407.18
467.14	12273.77
467.32	12587.40
467.51	12437.61
467.69	12397.82
467.87	12512.50
468.05	12475.06
468.23	12681.02
468.41	12491.44
468.60	12627.19
468.78	12578.04
468.96	12643.57
469.14	12849.54
469.32	13186.58
469.50	12706.77
469.69	13074.23
469.87	13207.64
470.05	12971.25
470.23	13184.24
470.41	13341.05
470.59	13542.34
470.77	13205.30
470.95	13408.93
471.14	13589.15
471.32	13305.95
471.50	13680.43
471.68	13776.39
471.86	13912.14
472.04	13832.57
472.22	14071.30
472.40	13764.69
472.58	13919.17
472.77	14087.68
472.95	14237.48
473.13	14506.64
473.31	14174.28
473.49	14190.67
473.67	14375.57
473.85	14429.40
474.03	14696.22
474.21	14782.82
474.39	14703.25
474.57	14864.74
474.75	14913.89
474.93	15026.24
475.12	15000.49
475.30	15433.49
475.48	15138.58
475.66	15342.21
475.84	15147.95
476.02	15384.34
476.20	15555.20
476.38	16006.92
476.56	16013.95
476.74	16091.18
476.92	16025.65
477.10	15728.40
477.28	16332.26
477.46	16379.07
477.64	16519.50
477.82	16362.69
478.00	16959.52
478.18	16835.47
478.36	16704.40
478.54	17301.24
478.72	17041.44
478.90	17736.58
479.08	17446.35
479.26	17940.21
479.44	17743.60
479.62	17818.50
479.80	18150.85
479.98	18134.47
480.16	18640.03
480.34	18373.21
480.52	18675.13
480.70	18815.57
480.88	18562.79
481.06	18822.59
481.24	19021.53
481.41	19080.05
481.59	19618.37
481.77	19604.33
481.95	19566.88
482.13	19878.17
482.31	19906.26
482.49	20472.67
482.67	20240.95
482.85	20521.82
483.03	20947.79
483.21	21057.80
483.39	20711.40
483.57	20746.51
483.74	21223.98
483.92	21378.45
484.10	21179.51
484.28	22143.81
484.46	22370.84
484.64	22558.08
484.82	22132.11
485.00	22499.57
485.18	23138.54
485.35	22916.19
485.53	22824.90
485.71	23094.07
485.89	23789.20
486.07	23445.15
486.25	23494.30
486.43	23765.80
486.61	23487.28
486.78	24367.32
486.96	24563.92
487.14	24641.16
487.32	24603.71
487.50	25015.65
487.68	25001.60
487.85	25436.94
488.03	25671.00
488.21	26141.44
488.39	26120.38
488.57	26118.04
488.75	26115.70
488.92	26506.57
489.10	26817.86
489.28	26867.01
489.46	27391.29
489.64	27157.24
489.81	27620.66
489.99	27435.76
490.17	28011.53
490.35	28524.11
490.53	28346.23
490.70	28535.81
490.88	28580.28
491.06	29120.95
491.24	28985.19
491.41	29198.18
491.59	29605.44
491.77	29298.83
491.95	29642.88
492.13	30024.39
492.30	30398.88
492.48	30185.89
492.66	30272.49
492.84	30401.22
493.01	30712.51
493.19	30984.01
493.37	31337.43
493.54	31344.45
493.72	31632.34
493.90	31742.35
494.08	31899.16
494.25	32521.74
494.43	32088.74
494.61	32514.72
494.79	32804.95
494.96	32999.21
495.14	33062.41
495.32	33333.91
495.49	33350.29
495.67	33612.43
495.85	33427.53
496.02	33907.34
496.20	34389.49
496.38	34429.28
496.55	34546.31
496.73	34885.68
496.91	34895.05
497.09	35075.27
497.26	34927.81
497.44	35208.68
497.62	35634.66
497.79	36140.21
497.97	35576.14
498.14	36170.64
498.32	36147.23
498.50	36208.09
498.67	36734.71
498.85	37031.96
499.03	37106.85
499.20	36835.35
499.38	37174.73
499.56	37244.94
499.73	37511.77
499.91	37738.80
500.08	37830.08
500.26	37682.62
500.44	37741.14
500.61	38031.36
500.79	37844.12
500.97	38085.20
501.14	38569.69
501.32	38602.46
501.49	38972.26
501.67	39129.08
501.84	39117.37
502.02	38946.51
502.20	39161.84
502.37	39438.03
502.55	39395.90
502.72	39543.35
502.90	39929.54
503.07	39271.85
503.25	40119.12
503.43	40336.79
503.60	39871.03
503.78	40491.27
503.95	40449.14
504.13	40767.45
504.30	41132.57
504.48	40533.40
504.65	41144.28
504.83	41488.34
505.01	41694.30
505.18	41832.39
505.36	41654.51
505.53	41729.41
505.71	41975.17
505.88	42522.85
506.06	41731.75
506.23	41874.52
506.41	42202.20
506.58	42377.74
506.76	42581.37
506.93	43117.35
507.11	42490.09
507.28	42822.44
507.46	43196.93
507.63	43157.14
507.81	43580.78
507.98	42974.58
508.16	43526.94
508.33	43969.30
508.50	43936.54
508.68	43938.88
508.85	44322.72
509.03	44046.54
509.20	44547.42
509.38	44687.85
509.55	44760.40
509.73	44641.04
509.90	44935.95
510.08	44772.11
510.25	44973.39
510.42	44896.16
510.60	45338.52
510.77	45296.39
510.95	45886.20
511.12	45422.78
511.30	45666.19
511.47	45804.28
511.64	45993.87
511.82	45872.16
511.99	45422.78
512.17	46403.46
512.34	45869.82
512.51	46827.10
512.69	46958.17
512.86	46440.91
513.04	47178.18
513.21	46993.28
513.38	47079.88
513.56	47178.18
513.73	47217.97
513.90	47126.69
514.08	46763.90
514.25	47749.27
514.43	47566.71
514.60	47950.56
514.77	47749.27
514.95	47978.64
515.12	47976.30
515.29	48215.04
515.47	48306.32
515.64	48250.14
515.81	48013.75
515.99	48608.25
516.16	48765.06
516.33	48638.67
516.51	48907.83
516.68	48931.24
516.85	48587.18
517.03	49209.76
517.20	49162.95
517.37	49254.23
517.54	48928.90
517.72	49397.01
517.89	49359.56
518.06	49521.05
518.24	49455.52
518.41	49525.74
518.58	49897.88
518.75	49528.08
518.93	49551.48
519.10	49937.67
519.27	50279.39
519.45	50014.91
519.62	50099.17
519.79	49808.94
519.96	50349.60
520.14	50314.50
520.31	50124.91
520.48	50710.05
520.65	50597.70
520.83	50651.53
521.00	50735.79
521.17	50632.81
521.34	50712.39
521.52	50789.62
521.69	50981.55
521.86	51260.07
522.03	51185.18
522.20	51477.74
522.38	51955.21
522.55	51452.00
522.72	51597.11
522.89	51501.15
523.07	51901.38
523.24	51854.57
523.41	51679.03
523.58	51634.56
523.75	52121.39
523.92	52044.15
524.10	51987.98
524.27	51973.94
524.44	52296.93
524.61	52442.04
524.78	52172.88
524.96	52353.10
525.13	52467.79
525.30	52886.74
525.47	52863.34
525.64	52577.79
525.81	52980.37
525.98	53052.92
526.16	52844.62
526.33	53125.48
526.50	53378.26
526.67	53109.10
526.84	53073.99
527.01	53095.05
527.18	53298.68
527.36	53123.14
527.53	53244.85
527.70	53429.75
527.87	53563.16
528.04	53104.41
528.21	53389.96
528.38	53389.96
528.55	53619.33
528.72	53598.27
528.89	53675.51
529.07	53743.38
529.24	53492.94
529.41	53909.56
529.58	53947.01
529.75	53965.73
529.92	54012.54
530.09	53949.35
530.26	54482.99
530.43	54005.52
530.60	53787.85
530.77	54049.99
530.94	54169.36
531.11	54075.74
531.28	54288.73
531.46	54309.79
531.63	54670.23
531.80	54600.02
531.97	54639.81
532.14	54695.98
532.31	54684.28
532.48	54920.67
532.65	54773.22
532.82	54611.72
532.99	54780.24
533.16	54939.39
533.33	54878.54
533.50	55206.22
533.67	54672.57
533.84	55028.34
534.01	55061.10
534.18	55154.72
534.35	55421.55
534.52	55423.89
534.69	55405.16
534.86	55732.84
535.03	55107.91
535.20	55398.14
535.37	55604.11
535.54	55416.86
535.71	55494.10
535.88	55526.87
536.05	55798.37
536.22	55744.54
536.38	55629.85
536.55	55618.15
536.72	56072.21
536.89	55767.94
537.06	55702.41
537.23	56147.11
537.40	55920.08
537.57	55866.25
537.74	56039.45
537.91	56404.57
538.08	56004.34
538.25	55859.23
538.42	56046.47
538.59	56292.22
538.75	56025.40
538.92	56266.48
539.09	56512.23
539.26	56107.32
539.43	56275.84
539.60	56383.51
539.77	56287.54
539.94	56647.99
540.11	56720.54
540.28	56659.69
540.44	56769.69
540.61	56409.25
540.78	56484.15
540.95	56647.99
541.12	56582.45
541.29	56732.25
541.46	56477.13
541.62	56697.14
541.79	56797.78
541.96	56690.12
542.13	56767.35
542.30	56996.73
542.47	57071.62
542.63	57174.61
542.80	57113.75
542.97	57301.00
543.14	57476.54
543.31	57219.08
543.48	57560.79
543.64	57464.83
543.81	57455.47
543.98	57422.70
544.15	57570.16
544.32	57874.43
544.48	57722.29
544.65	57631.01
544.82	57394.62
544.99	57345.47
545.16	57593.56
545.32	57638.03
545.49	57792.51
545.66	57900.17
545.83	57567.82
546.00	57705.91
546.16	58000.82
546.33	57787.83
546.50	57778.46
546.67	57811.23
546.83	57731.65
547.00	57883.79
547.17	57961.03
547.34	58017.20
547.50	58064.01
547.67	58071.03
547.84	58220.83
548.00	58475.94
548.17	58417.43
548.34	58220.83
548.51	58340.19
548.67	58398.71
548.84	58298.06
549.01	58227.85
549.18	58363.60
549.34	58379.98
549.51	58581.27
549.68	58658.51
549.84	58686.59
550.01	58557.86
550.18	58433.81
550.34	58649.14
550.51	58749.79
550.68	58609.35
550.84	58403.39
551.01	58817.66
551.18	58796.60
551.34	58700.64
551.51	58599.99
551.68	58557.86
551.84	58562.54
552.01	58731.06
552.18	58953.41
552.34	58857.45
552.51	59023.63
552.68	58773.19
552.84	59049.38
553.01	59194.49
553.18	58885.54
553.34	58934.69
553.51	58927.67
553.67	58820.00
553.84	59075.12
554.01	59114.91
554.17	59000.22
554.34	59058.74
554.51	58965.12
554.67	59042.35
554.84	59164.06
555.00	59051.72
555.17	59178.10
555.33	59166.40
555.50	59182.79
555.67	59014.27
555.83	59220.23
556.00	59419.18
556.16	59604.08
556.33	59629.83
556.50	59131.29
556.66	59384.07
556.83	59255.34
556.99	59597.06
557.16	59634.51
557.32	59721.11
557.49	59863.88
557.65	59386.41
557.82	59494.08
557.98	59400.46
558.15	59564.29
558.32	59812.39
558.48	59412.16
558.65	59646.21
558.81	59688.34
558.98	59732.81
559.14	59693.02
559.31	59779.62
559.47	59826.43
559.64	59746.86
559.80	59868.56
559.97	60011.34
560.13	59693.02
560.30	59898.99
560.46	59887.29
560.63	59971.55
560.79	59990.27
560.96	60055.81
561.12	59964.52
561.29	59964.52
561.45	60121.34
561.61	59943.46
561.78	60133.04
561.94	59842.82
562.11	60093.25
562.27	60069.85
562.44	60353.05
562.60	60296.88
562.77	60327.31
562.93	59915.37
563.10	60067.51
563.26	59976.23
563.42	60329.65
563.59	60226.66
563.75	60135.38
563.92	60126.02
564.08	60114.32
564.24	60268.79
564.41	60114.32
564.57	60058.15
564.74	60395.18
564.90	60149.43
565.07	60207.94
565.23	60261.77
565.39	60367.10
565.56	60385.82
565.72	60460.72
565.88	60652.64
566.05	60104.96
566.21	60247.73
566.38	60240.71
566.54	60465.40
566.70	60296.88
566.87	60659.66
567.03	60229.01
567.19	60540.30
567.36	60427.95
567.52	60158.79
567.68	60629.24
567.85	60708.82
568.01	60603.49
568.17	60514.55
568.34	60526.25
568.50	60486.46
568.66	60481.78
568.83	60643.28
568.99	60317.95
569.15	60552.00
569.32	60624.56
569.48	60591.79
569.64	60774.35
569.81	60554.34
569.97	60486.46
570.13	60554.34
570.30	60418.59
570.46	60659.66
570.62	60678.39
570.78	60596.47
570.95	60512.21
571.11	60713.50
571.27	60486.46
571.43	60680.73
571.60	60893.72
571.76	60816.48
571.92	60671.37
572.09	60865.63
572.25	60530.93
572.41	60701.79
572.57	60802.44
572.74	61038.83
572.90	60748.60
573.06	60774.35
573.22	60779.03
573.38	60823.50
573.55	60844.57
573.71	60987.34
573.87	60811.80
574.03	60755.63
574.20	60828.18
574.36	60692.43
574.52	60706.47
574.68	60615.19
574.84	61076.28
575.01	60830.52
575.17	60865.63
575.33	60886.70
575.49	60877.33
575.65	60966.27
575.82	60800.10
575.98	60832.86
576.14	61076.28
576.30	61020.11
576.46	60807.12
576.62	60594.13
576.79	60931.17
576.95	60755.63
577.11	60956.91
577.27	60973.30
577.43	60926.49
577.59	60945.21
577.75	60811.80
577.92	60762.65
578.08	60999.04
578.24	60914.78
578.40	61120.75
578.56	61038.83
578.72	60882.02
578.88	61219.05
579.04	61038.83
579.21	61087.98
579.37	61097.34
579.53	61123.09
579.69	60697.11
579.85	60977.98
580.01	61146.50
580.17	60910.10
580.33	61022.45
580.49	61172.24
580.65	61055.21
580.82	61134.79
580.98	60764.99
581.14	61034.15
581.30	61034.15
581.46	61055.21
581.62	61095.00
581.78	60996.70
581.94	61205.01
582.10	61013.08
582.26	61104.37
582.42	61013.08
582.58	60994.36
582.74	61233.10
582.90	60999.04
583.06	61172.24
583.22	60945.21
583.38	61085.64
583.54	61179.26
583.70	61179.26
583.86	61013.08
584.02	60846.91
584.18	61214.37
584.34	61160.54
584.50	60977.98
584.66	60994.36
584.82	61062.24
584.98	61200.33
585.14	61312.67
585.30	61006.06
585.46	61172.24
585.62	61120.75
585.78	61221.39
585.94	60823.50
586.10	61076.28
586.26	61186.28
586.42	61160.54
586.58	61324.38
586.74	61293.95
586.90	61057.56
587.06	61052.87
587.22	61357.14
587.38	61200.33
587.54	61394.59
587.70	61324.38
587.86	61181.60
588.02	61172.24
588.18	61237.78
588.34	61282.25
588.49	61214.37
588.65	61045.85
588.81	61193.31
588.97	61448.42
589.13	61256.50
589.29	60970.96
589.45	61420.34
589.61	61340.76
589.77	61535.02
589.93	61595.88
590.08	61205.01
590.24	61528.00
590.40	61684.82
590.56	61600.56
590.72	61476.51
590.88	61357.14
591.04	61235.44
591.20	61635.67
591.35	61722.27
591.51	61673.12
591.67	61710.56
591.83	61715.25
591.99	61593.54
592.15	61422.68
592.31	61825.25
592.46	61549.07
592.62	61689.50
592.78	61645.03
592.94	61832.27
593.10	61563.11
593.26	61694.18
593.41	61455.45
593.57	61581.84
593.73	61530.34
593.89	61998.45
594.05	61701.20
594.20	61691.84
594.36	61743.33
594.52	61740.99
594.68	61549.07
594.84	61635.67
594.99	61722.27
595.15	61616.94
595.31	61588.86
595.47	61518.64
595.62	61598.22
595.78	61619.28
595.94	61717.59
596.10	61998.45
596.25	61719.93
596.41	61851.00
596.57	61755.03
596.73	61811.21
596.88	61726.95
597.04	61633.33
597.20	61687.16
597.36	61787.80
597.51	61860.36
597.67	61682.48
597.83	61762.06
597.99	61740.99
598.14	61993.77
598.30	61968.02
598.46	61949.30
598.61	61956.32
598.77	61659.07
598.93	61787.80
599.09	61886.10
599.24	61900.15
599.40	62010.15
599.56	61820.57
599.71	61853.34
599.87	62197.40
600.03	61818.23
600.18	61762.06
600.34	61855.68
600.50	61769.08
600.65	61680.14
600.81	61888.45
600.97	61841.63
601.12	62082.71
601.28	61743.33
601.44	61684.82
601.59	61982.07
601.75	61900.15
601.91	62166.97
602.06	61949.30
602.22	62028.88
602.37	61862.70
602.53	61911.85
602.69	61923.55
602.84	61907.17
603.00	61822.91
603.16	62063.99
603.31	61949.30
603.47	61916.53
603.62	61825.25
603.78	62059.30
603.94	62033.56
604.09	61975.05
604.25	61846.32
604.40	61764.40
604.56	62038.24
604.71	62026.54
604.87	61930.58
605.03	61773.76
605.18	61942.28
605.34	61961.00
605.49	61822.91
605.65	62164.63
605.80	62028.88
605.96	62295.70
606.12	62014.83
606.27	62234.84
606.43	61986.75
606.58	61986.75
606.74	61771.42
606.89	61862.70
607.05	61806.53
607.20	61921.21
607.36	61778.44
607.51	61867.38
607.67	61616.94
607.82	61614.60
607.98	61869.72
608.13	61736.31
608.29	61939.94
608.44	61834.61
608.60	61710.56
608.75	61818.23
608.91	61647.37
609.06	61801.85
609.22	61958.66
609.37	61593.54
609.53	61783.12
609.68	61602.90
609.84	61663.75
609.99	61757.38
610.15	61705.88
610.30	61623.96
610.46	61670.78
610.61	62035.90
610.76	61858.02
610.92	61656.73
611.07	61708.22
611.23	61600.56
611.38	61839.29
611.54	61668.44
611.69	61609.92
611.84	61825.25
612.00	61670.78
612.15	61574.81
612.31	61696.52
612.46	61474.17
612.62	61542.05
612.77	61722.27
612.92	61705.88
613.08	61506.94
613.23	61539.71
613.39	61326.72
613.54	61579.49
613.69	61684.82
613.85	61453.11
614.00	61427.36
614.15	61598.22
614.31	61481.19
614.46	61490.55
614.62	61652.05
614.77	61612.26
614.92	61511.62
615.08	61520.98
615.23	61410.98
615.38	61467.15
615.54	61345.44
615.69	61647.37
615.84	61464.81
616.00	61602.90
616.15	61528.00
616.30	61642.69
616.46	61338.42
616.61	61408.64
616.76	61403.95
616.92	61193.31
617.07	61202.67
617.22	61291.61
617.37	61614.60
617.53	61591.20
617.68	61619.28
617.83	61214.37
617.99	61322.04
618.14	61291.61
618.29	61331.40
618.45	61141.81
618.60	61279.91
618.75	61205.01
618.90	61244.80
619.06	61474.17
619.21	61291.61
619.36	61520.98
619.51	61380.55
619.67	61244.80
619.82	60980.32
619.97	61317.35
620.12	61240.12
620.28	60987.34
620.43	61034.15
620.58	61038.83
620.73	60870.31
620.89	61102.03
621.04	61354.80
621.19	61137.13
621.34	61083.30
621.49	61104.37
621.65	61034.15
621.80	61488.21
621.95	61080.96
622.10	61006.06
622.25	60865.63
622.41	60856.27
622.56	60896.06
622.71	61116.07
622.86	60844.57
623.01	60764.99
623.16	60886.70
623.32	60942.87
623.47	60975.64
623.62	61013.08
623.77	60992.02
623.92	61118.41
624.07	61076.28
624.23	61027.13
624.38	60947.55
624.53	60804.78
624.68	60671.37
624.83	60987.34
624.98	60945.21
625.13	60584.77
625.29	60816.48
625.44	60977.98
625.59	60722.86
625.74	60704.13
625.89	60636.26
626.04	60617.53
626.19	60472.42
626.34	60598.81
626.49	60444.33
626.65	60596.47
626.80	60811.80
626.95	60465.40
627.10	60521.57
627.25	60535.62
627.40	60392.84
627.55	60329.65
627.70	60701.79
627.85	60556.68
628.00	60299.22
628.15	60416.25
628.30	60327.31
628.45	60266.45
628.60	60236.03
628.76	60500.51
628.91	60418.59
629.06	60378.80
629.21	60701.79
629.36	60313.26
629.51	60308.58
629.66	60346.03
629.81	60236.03
629.96	60102.62
630.11	60287.52
630.26	60226.66
630.41	60140.07
630.56	60406.89
630.71	60301.56
630.86	60430.29
631.01	60149.43
631.16	60259.43
631.31	60060.49
631.46	60041.76
631.61	60217.30
631.76	60147.09
631.91	60226.66
632.06	59976.23
632.21	60294.54
632.36	60046.44
632.51	59821.75
632.66	60102.62
632.81	59957.50
632.96	60088.57
633.10	60151.77
633.25	60154.11
633.40	59990.27
633.55	60196.24
633.70	59887.29
633.85	60032.40
634.00	59810.05
634.15	60020.70
634.30	59896.65
634.45	59835.80
634.60	60179.85
634.75	59906.01
634.90	59880.27
635.05	59599.40
635.19	59877.93
635.34	59957.50
635.49	59777.28
635.64	59791.33
635.79	59732.81
635.94	59845.16
636.09	59873.24
636.24	59557.27
636.39	59662.60
636.53	59927.08
636.68	59576.00
636.83	59554.93
636.98	59913.03
637.13	59643.87
637.28	59597.06
637.43	59618.13
637.57	59772.60
637.72	59627.49
637.87	59669.62
638.02	59702.38
638.17	59828.77
638.32	59700.04
638.46	59515.14
638.61	59512.80
638.76	59281.09
638.91	59634.51
639.06	59597.06
639.20	59222.58
639.35	59210.87
639.50	59428.54
639.65	59412.16
639.80	59262.36
639.94	59168.74
640.09	59112.57
640.24	59180.45
640.39	59299.81
640.54	59250.66
640.68	59309.18
640.83	59477.69
640.98	59044.69
641.13	59173.42
641.27	59519.82
641.42	59119.59
641.57	58955.75
641.72	58997.88
641.86	58843.41
642.01	58983.84
642.16	59187.47
642.31	58981.50
642.45	59271.73
642.60	59058.74
642.75	59264.70
642.90	59159.38
643.04	59018.95
643.19	59117.25
643.34	59297.47
643.48	59150.02
643.63	59065.76
643.78	58777.87
643.93	58990.86
644.07	58922.99
644.22	58852.77
644.37	58965.12
644.51	58951.07
644.66	58955.75
644.81	58876.18
644.95	58815.32
645.10	58845.75
645.25	58925.33
645.39	58700.64
645.54	58869.15
645.69	58677.23
645.83	58571.91
645.98	58646.80
646.13	58571.91
646.27	58717.02
646.42	58693.61
646.57	58541.48
646.71	58698.30
646.86	58817.66
647.00	58578.93
647.15	58857.45
647.30	58710.00
647.44	58649.14
647.59	58712.34
647.74	58639.78
647.88	58752.13
648.03	58667.87
648.17	58646.80
648.32	58431.47
648.47	58557.86
648.61	58726.38
648.76	58674.89
648.90	58637.44
649.05	58543.82
649.20	58454.88
649.34	58557.86
649.49	58440.84
649.63	58686.59
649.78	58401.05
649.92	58562.54
650.07	58546.16
650.21	58309.77
650.36	58351.90
650.51	58197.42
650.65	58436.16
650.80	58609.35
650.94	58152.95
651.09	58145.93
651.23	58026.56
651.38	58218.49
651.52	58272.32
651.67	58071.03
651.81	58239.55
651.96	57977.41
652.10	58272.32
652.25	58082.73
652.39	57961.03
652.54	58078.05
652.68	57771.44
652.83	57853.36
652.97	58106.14
653.12	57949.32
653.26	57907.19
653.41	58010.18
653.55	57970.39
653.70	57914.22
653.84	57888.47
653.99	57773.78
654.13	57675.48
654.27	57759.74
654.42	57958.69
654.56	57787.83
654.71	57958.69
654.85	58073.37
655.00	57848.68
655.14	57717.61
655.29	57717.61
655.43	57771.44
655.57	57670.80
655.72	57815.91
655.86	57551.43
656.01	57778.46
656.15	57745.70
656.30	58021.88
656.44	57733.99
656.58	57827.62
656.73	57602.92
656.87	57804.21
657.01	57703.57
657.16	57799.53
657.30	57560.79
657.45	57308.02
657.59	57406.32
657.73	57352.49
657.88	57359.51
658.02	57371.21
658.16	57275.25
658.31	57439.09
658.45	57403.98
658.60	57305.68
658.74	57345.47
658.88	57293.97
659.03	57233.12
659.17	56992.04
659.31	57219.08
659.46	56795.44
659.60	57130.14
659.74	57027.15
659.89	56966.30
660.03	57127.80
660.17	56868.00
660.32	56968.64
660.46	57104.39
660.60	56853.95
660.74	57017.79
660.89	57017.79
661.03	56814.16
661.17	56549.68
661.32	56442.02
661.46	56715.86
661.60	56615.22
661.74	56526.28
661.89	56669.05
662.03	56566.07
662.17	56655.01
662.31	56390.53
662.46	56865.66
662.60	56367.12
662.74	56399.89
662.88	56200.94
663.03	55917.74
663.17	56369.46
663.31	55934.12
663.45	56329.67
663.60	56004.34
663.74	55674.32
663.88	56112.00
664.02	56039.45
664.17	55847.52
664.31	55704.75
664.45	55992.64
664.59	55913.06
664.73	55615.81
664.88	55756.24
665.02	55618.15
665.16	55613.47
665.30	55356.01
665.44	55559.64
665.59	55423.89
665.73	55585.38
665.87	55360.69
666.01	55461.33
666.15	55423.89
666.29	55475.38
666.44	55449.63
666.58	55288.13
666.72	55086.85
666.86	55246.00
667.00	55161.75
667.14	54918.33
667.28	54848.11
667.43	54808.32
667.57	55098.55
667.71	54560.23
667.85	54967.48
667.99	54815.35
668.13	54639.81
668.27	54777.90
668.41	54810.67
668.56	54504.06
668.70	54705.34
668.84	54480.65
668.98	54431.50
669.12	54670.23
669.26	54642.15
669.40	54408.09
669.54	54464.27
669.68	54403.41
669.82	54164.68
669.96	54375.33
670.10	54410.43
670.25	54562.57
670.39	54372.99
670.53	54066.38
670.67	54014.88
670.81	54656.19
670.95	54213.83
671.09	53822.96
671.23	53544.44
671.37	53771.47
671.51	53666.14
671.65	53689.55
671.79	53895.52
671.93	53499.97
672.07	53462.52
672.21	53160.59
672.35	53134.84
672.49	52924.19
672.63	52971.00
672.77	52987.39
672.91	52708.86
673.05	52786.10
673.19	52985.05
673.33	52549.71
673.47	52435.02
673.61	52961.64
673.75	52624.60
673.89	52451.41
674.03	52217.35
674.17	52376.51
674.31	52179.90
674.45	52217.35
674.59	51796.06
674.73	52315.65
674.87	51927.13
675.01	51547.96
675.15	51491.79
675.29	51842.87
675.43	51643.92
675.56	51475.40
675.70	51288.16
675.84	51564.34
675.98	50389.39
676.12	51327.95
676.26	51213.26
676.40	51210.92
676.54	50951.12
676.68	50845.80
676.82	50459.61
676.96	50333.22
677.10	50286.41
677.23	50197.47
677.37	50239.60
677.51	50305.13
677.65	49752.77
677.79	48793.15
677.93	49556.16
678.07	49420.41
678.21	49357.22
678.34	49649.78
678.48	49296.36
678.62	49106.78
678.76	48528.67
678.90	48673.78
679.04	48685.48
679.18	48854.00
679.31	48783.79
679.45	48079.28
679.59	48191.63
679.73	48399.94
679.87	47969.28
680.00	47746.93
680.14	47634.58
680.28	47491.81
680.42	47625.22
680.56	47257.76
680.70	46822.42
680.83	47075.19
680.97	46628.15
681.11	47447.34
681.25	46878.59
681.39	46527.51
681.52	46316.86
681.66	46754.54
681.80	46377.72
681.94	46295.80
682.07	46171.75
682.21	45572.57
682.35	45762.15
682.49	45507.04
682.62	45713.00
682.76	45724.71
682.90	45610.02
683.04	45310.43
683.17	45104.46
683.31	44762.75
683.45	44849.35
683.59	44741.68
683.72	44479.54
683.86	44772.11
684.00	44364.85
684.13	44327.41
684.27	44149.53
684.41	43973.98
684.55	43943.56
684.68	44037.18
684.82	43508.22
684.96	43267.14
685.09	42859.89
685.23	42843.51
685.37	42600.09
685.50	42845.85
685.64	42651.58
685.78	43159.48
685.91	42766.27
686.05	42321.57
686.19	41219.17
686.32	41989.21
686.46	41261.30
686.60	41130.23
686.73	40605.95
686.87	41120.87
687.01	41287.05
687.14	41326.84
687.28	40678.51
687.42	40460.84
687.55	40734.68
687.69	40807.24
687.82	40605.95
687.96	40016.14
688.10	39917.84
688.23	39805.49
688.37	39536.33
688.50	39700.17
688.64	39257.81
688.78	39367.81
688.91	38836.51
689.05	38555.64
689.18	38878.64
689.32	38101.58
689.46	38117.96
689.59	37837.10
689.73	37846.46
689.86	38045.41
690.00	37832.42
690.13	37830.08
690.27	37832.42
690.41	37701.35
690.54	37287.07
690.68	36954.72
690.81	36872.80
690.95	36814.29
691.08	36503.00
691.22	36458.52
691.35	36376.61
691.49	36620.02
691.62	36304.05
691.76	36112.13
691.89	35351.45
692.03	36079.36
692.16	35241.45
692.30	35477.84
692.43	35583.16
692.57	34890.37
692.70	34932.50
692.84	34902.07
692.97	34845.90
693.11	34323.96
693.24	34265.44
693.38	34440.98
693.51	34153.10
693.65	34330.98
693.78	33947.13
693.92	33593.71
694.05	33663.93
694.19	33532.86
694.32	33329.23
694.45	33071.77
694.59	33106.88
694.72	32933.68
694.86	32657.49
694.99	32297.05
695.13	32456.21
695.26	32105.13
695.39	32086.40
695.53	31632.34
695.66	32271.31
695.80	31796.18
695.93	31646.38
696.07	30635.27
696.20	30909.11
696.33	30962.95
696.47	31065.93
696.60	30824.86
696.73	30651.66
696.87	30848.26
697.00	30543.99
697.14	30101.63
697.27	29839.49
697.40	29895.66
697.54	29816.08
697.67	29750.55
697.80	29649.91
697.94	29504.79
698.07	29134.99
698.21	28994.56
698.34	29020.30
698.47	28716.03
698.61	28173.03
698.74	28521.77
698.87	28320.48
699.01	28327.50
699.14	28369.63
699.27	27889.82
699.40	28006.85
699.54	27915.57
699.67	28072.39
699.80	27646.41
699.94	27274.26
700.07	27807.90
700.20	27115.11
700.34	27164.26
700.47	27283.62
700.60	26621.25
700.73	26698.49
700.87	25961.22
701.00	25916.75
701.13	26118.04
701.26	25935.48
701.40	26181.23
701.53	26094.63
701.66	26073.57
701.79	25560.99
701.93	25282.47
702.06	24835.42
702.19	25116.29
702.32	24950.11
702.46	24795.64
702.59	24720.74
702.72	24388.38
702.85	24409.45
702.99	24676.27
703.12	24201.14
703.25	24201.14
703.38	24503.07
703.51	23936.66
703.65	23709.63
703.78	23494.30
703.91	23300.03
704.04	23117.47
704.17	23103.43
704.31	23204.07
704.44	22752.35
704.57	23199.39
704.70	22747.67
704.83	22665.75
704.96	22576.81
705.10	22298.28
705.23	22511.27
>>>>>End Processed Spectral Data<<<<<
