SpectraSuite Data File
++++++++++++++++++++++++++++++++++++
Date: Fri Oct 25 11:23:00 EDT 2013
User: price-jones
Dark Spectrum Present: No
Reference Spectrum Present: No
Number of Sampled Component Spectra: 1
Spectrometers: USB2+H05261
Integration Time (usec): 100000 (USB2+H05261)
Spectra Averaged: 1 (USB2+H05261)
Boxcar Smoothing: 0 (USB2+H05261)
Correct for Electrical Dark: No (USB2+H05261)
Strobe/Lamp Enabled: No (USB2+H05261)
Correct for Detector Non-linearity: No (USB2+H05261)
Correct for Stray Light: No (USB2+H05261)
Number of Pixels in Processed Spectrum: 2048
>>>>>Begin Processed Spectral Data<<<<<
365.73	198.95
365.92	198.95
366.12	198.95
366.32	133.41
366.52	138.09
366.72	131.07
366.91	49.15
367.11	142.77
367.31	51.49
367.51	56.17
367.70	161.50
367.90	175.54
368.10	112.35
368.30	100.64
368.49	152.13
368.69	152.13
368.89	77.24
369.09	142.77
369.28	131.07
369.48	227.03
369.68	175.54
369.87	196.60
370.07	180.22
370.27	269.16
370.47	294.91
370.66	578.11
370.86	585.13
371.06	622.58
371.25	653.01
371.45	629.60
371.65	702.16
371.84	589.82
372.04	697.48
372.24	688.12
372.44	741.95
372.63	732.59
372.83	723.23
373.03	699.82
373.22	765.36
373.42	725.57
373.62	744.29
373.81	821.53
374.01	805.14
374.21	788.76
374.40	770.04
374.60	793.44
374.79	784.08
374.99	856.64
375.19	798.12
375.38	840.25
375.58	840.25
375.78	793.44
375.97	884.72
376.17	912.81
376.37	847.27
376.56	882.38
376.76	875.36
376.95	847.27
377.15	926.85
377.35	868.34
377.54	912.81
377.74	898.77
377.93	870.68
378.13	931.53
378.33	896.43
378.52	964.30
378.72	964.30
378.91	1008.77
379.11	987.71
379.31	947.92
379.50	891.74
379.70	929.19
379.89	917.49
380.09	957.28
380.28	1004.09
380.48	938.55
380.68	1034.52
380.87	950.26
381.07	947.92
381.26	966.64
381.46	961.96
381.65	959.62
381.85	926.85
382.04	1022.81
382.24	1069.62
382.43	985.37
382.63	1034.52
382.83	1060.26
383.02	1130.48
383.22	1062.60
383.41	1001.75
383.61	1095.37
383.80	1177.29
384.00	1027.50
384.19	1135.16
384.39	1109.41
384.58	1217.08
384.78	1142.18
384.97	1193.67
385.17	1034.52
385.36	1186.65
385.56	1109.41
385.75	1221.76
385.95	1240.48
386.14	1310.70
386.34	1263.89
386.53	1233.46
386.72	1249.85
386.92	1242.82
387.11	1240.48
387.31	1224.10
387.50	1282.61
387.70	1217.08
387.89	1240.48
388.09	1273.25
388.28	1324.74
388.48	1273.25
388.67	1371.55
388.86	1228.78
389.06	1294.32
389.25	1362.19
389.45	1385.60
389.64	1359.85
389.84	1394.96
390.03	1341.13
390.22	1460.49
390.42	1362.19
390.61	1411.34
390.81	1336.45
391.00	1359.85
391.19	1441.77
391.39	1476.88
391.58	1504.96
391.78	1371.55
391.97	1509.65
392.16	1420.71
392.36	1502.62
392.55	1413.68
392.75	1430.07
392.94	1528.37
393.13	1673.48
393.33	1575.18
393.52	1563.48
393.71	1544.75
393.91	1603.27
394.10	1621.99
394.29	1617.31
394.49	1582.20
394.68	1673.48
394.88	1600.93
395.07	1661.78
395.26	1659.44
395.46	1657.10
395.65	1699.23
395.84	1666.46
396.04	1783.49
396.23	1746.04
396.42	1834.98
396.62	1757.74
396.81	1818.60
397.00	1727.32
397.19	1710.93
397.39	1825.62
397.58	1804.55
397.77	1830.30
397.97	1898.17
398.16	1858.39
398.35	2017.54
398.55	1877.11
398.74	1844.34
398.93	1980.09
399.12	1909.88
399.32	1900.52
399.51	2012.86
399.70	2017.54
399.90	1959.03
400.09	2120.53
400.28	2043.29
400.47	2108.82
400.67	2125.21
400.86	2094.78
401.05	2092.44
401.24	2106.48
401.44	2155.63
401.63	2251.60
401.82	2139.25
402.01	2094.78
402.21	2172.02
402.40	2179.04
402.59	2225.85
402.78	2249.25
402.97	2319.47
403.17	2314.79
403.36	2207.13
403.55	2305.43
403.74	2359.26
403.93	2324.15
404.13	2513.74
404.32	2422.45
404.51	2415.43
404.70	2382.67
404.89	2385.01
405.09	2553.52
405.28	2319.47
405.47	2431.82
405.66	2619.06
405.85	2548.84
406.05	2672.89
406.24	2548.84
406.43	2532.46
406.62	2581.61
406.81	2649.49
407.00	2633.10
407.20	2651.83
407.39	2710.34
407.58	2813.32
407.77	2651.83
407.96	2700.98
408.15	2743.11
408.34	2825.03
408.54	2796.94
408.73	2768.85
408.92	2885.88
409.11	2855.45
409.30	2958.44
409.49	2911.63
409.68	2953.76
409.87	2878.86
410.07	2972.48
410.26	2960.78
410.45	2995.89
410.64	3133.98
410.83	3129.30
411.02	3016.95
411.21	3176.11
411.40	3162.06
411.59	3253.34
411.78	3229.94
411.98	3166.74
412.17	3328.24
412.36	3346.97
412.55	3243.98
412.74	3293.13
412.93	3281.43
413.12	3342.28
413.31	3468.67
413.50	3548.25
413.69	3468.67
413.88	3524.85
414.07	3606.77
414.26	3569.32
414.45	3592.72
414.64	3653.58
414.83	3749.54
415.02	3854.86
415.22	3833.80
415.41	3948.48
415.60	3913.38
415.79	3868.91
415.98	4053.81
416.17	4060.83
416.36	4058.49
416.55	4173.18
416.74	4102.96
416.93	4147.43
417.12	4007.00
417.31	4168.49
417.50	4390.84
417.69	4444.68
417.88	4238.71
418.07	4327.65
418.26	4294.88
418.45	4287.86
418.64	4582.77
418.83	4407.23
419.02	4456.38
419.21	4498.51
419.39	4648.30
419.58	4461.06
419.77	4407.23
419.96	4594.47
420.15	4545.32
420.34	4575.75
420.53	4552.34
420.72	4751.29
420.91	4582.77
421.10	4844.91
421.29	4870.65
421.48	4713.84
421.67	4793.42
421.86	4915.12
422.05	4755.97
422.24	4835.55
422.43	4819.16
422.61	5032.15
422.80	5111.73
422.99	5032.15
423.18	5050.88
423.37	4968.96
423.56	4994.70
423.75	4844.91
423.94	4919.81
424.13	4702.14
424.32	4697.46
424.50	5064.92
424.69	5132.79
424.88	5093.01
425.07	4966.62
425.26	5050.88
425.45	4863.63
425.64	4983.00
425.83	5004.07
426.01	5135.14
426.20	5015.77
426.39	5004.07
426.58	5029.81
426.77	5123.43
426.96	5083.64
427.15	5102.37
427.33	5437.06
427.52	5226.42
427.71	5343.44
427.90	5226.42
428.09	5427.70
428.28	5270.89
428.46	5376.21
428.65	5338.76
428.84	5603.24
429.03	5509.62
429.22	5287.27
429.40	5535.37
429.59	5659.42
429.78	5324.72
429.97	5259.18
430.16	5516.64
430.34	5661.76
430.53	5750.70
430.72	5689.84
430.91	5600.90
431.10	5621.97
431.28	5558.77
431.47	5823.25
431.66	5909.85
431.85	5607.92
432.03	5865.38
432.22	6022.20
432.41	6003.47
432.60	5839.64
432.79	6106.46
432.97	6008.16
433.16	5966.03
433.35	6157.95
433.54	6179.01
433.72	6340.51
433.91	6195.40
434.10	6296.04
434.28	6211.78
434.47	6141.57
434.66	6164.97
434.85	6293.70
435.03	6413.07
435.22	6242.21
435.41	6347.53
435.59	6523.07
435.78	6562.86
435.97	6497.33
436.16	6380.30
436.34	6389.66
436.53	6539.46
436.72	6707.98
436.90	6504.35
437.09	6752.45
437.28	6441.15
437.46	6743.08
437.65	6700.95
437.84	6656.48
438.02	6810.96
438.21	6897.56
438.40	6654.14
438.58	7009.90
438.77	7119.91
438.96	7054.37
439.14	7178.42
439.33	7276.73
439.52	7199.49
439.70	7246.30
439.89	7342.26
440.08	7414.82
440.26	7475.67
440.45	7370.35
440.63	7576.31
440.82	7777.60
441.01	7602.06
441.19	7758.88
441.38	7740.15
441.57	7557.59
441.75	7871.22
441.94	8173.15
442.12	7981.23
442.31	8013.99
442.50	7861.86
442.68	7927.39
442.87	7967.18
443.05	8119.32
443.24	8210.60
443.43	8236.35
443.61	8112.30
443.80	8531.25
443.98	8095.91
444.17	7911.01
444.35	8292.52
444.54	8500.83
444.73	8475.08
444.91	8397.84
445.10	8437.63
445.28	8311.24
445.47	8388.48
445.65	8542.96
445.84	8461.04
446.02	8514.87
446.21	8512.53
446.39	8531.25
446.58	8596.79
446.77	8636.58
446.95	8365.07
447.14	8454.02
447.32	8882.33
447.51	8585.08
447.69	8690.41
447.88	8678.71
448.06	8582.74
448.25	8697.43
448.43	8758.28
448.62	8805.10
448.80	8503.17
448.99	8615.51
449.17	8793.39
449.36	8720.84
449.54	8940.85
449.73	9025.11
449.91	9004.04
450.10	9057.87
450.28	9132.77
450.46	9055.53
450.65	8861.27
450.83	9217.03
451.02	9090.64
451.20	9137.45
451.39	9303.63
451.57	9083.62
451.76	9046.17
451.94	9294.27
452.13	9507.26
452.31	9235.75
452.49	9231.07
452.68	9509.60
452.86	9329.38
453.05	9502.58
453.23	9572.79
453.42	9451.08
453.60	9437.04
453.78	9727.27
453.97	9434.70
454.15	9523.64
454.34	9444.06
454.52	9661.73
454.70	9813.87
454.89	9858.34
455.07	9753.01
455.26	9970.68
455.44	10092.39
455.62	10129.84
455.81	9966.00
455.99	9895.78
456.17	10286.65
456.36	10186.01
456.54	10171.97
456.73	10253.89
456.91	10532.41
457.09	10485.60
457.28	10841.36
457.46	10356.87
457.64	10602.63
457.83	10525.39
458.01	10459.85
458.19	10710.29
458.38	10438.79
458.56	10857.75
458.74	10768.80
458.93	10789.87
459.11	10579.22
459.29	10689.23
459.48	10902.22
459.66	11119.89
459.84	11133.93
460.03	11145.63
460.21	11227.55
460.39	11047.33
460.57	11281.38
460.76	11234.57
460.94	11199.46
461.12	11414.79
461.31	11206.48
461.49	11206.48
461.67	11290.74
461.85	11384.37
462.04	11389.05
462.22	11548.20
462.40	11683.95
462.59	11779.92
462.77	11335.21
462.95	11735.45
463.13	11798.64
463.32	11936.73
463.50	11714.38
463.68	11702.68
463.86	11913.33
464.05	11768.21
464.23	11786.94
464.41	11964.82
464.59	11988.22
464.78	12156.74
464.96	12060.78
465.14	11941.41
465.32	12241.00
465.50	12208.23
465.69	12430.59
465.87	12058.44
466.05	12205.89
466.23	12304.20
466.41	12088.87
466.60	12568.68
466.78	12138.02
466.96	12369.73
467.14	12273.77
467.32	12463.35
467.51	12582.72
467.69	12393.14
467.87	12678.68
468.05	12276.11
468.23	12776.98
468.41	12510.16
468.60	12788.69
468.78	12968.91
468.96	12496.12
469.14	12901.03
469.32	12992.31
469.50	12685.70
469.69	13266.16
469.87	13170.19
470.05	13362.12
470.23	13231.05
470.41	13427.65
470.59	13186.58
470.77	13261.48
470.95	13647.66
471.14	13741.29
471.32	13125.72
471.50	13612.56
471.68	13664.05
471.86	13671.07
472.04	13696.82
472.22	13848.95
472.40	13692.13
472.58	13940.23
472.77	14160.24
472.95	14356.85
473.13	14836.66
473.31	14200.03
473.49	14558.13
473.67	14272.59
473.85	14312.38
474.03	14616.65
474.21	14700.90
474.39	14946.66
474.57	15124.54
474.75	15227.53
474.93	15115.18
475.12	14857.72
475.30	15248.59
475.48	15204.12
475.66	15309.44
475.84	15152.63
476.02	15604.35
476.20	15580.95
476.38	15995.22
476.56	16020.97
476.74	16126.29
476.92	15932.03
477.10	15878.19
477.28	16208.21
477.46	15981.18
477.64	16533.54
477.82	16622.48
478.00	17015.69
478.18	16727.81
478.36	17238.05
478.54	17170.17
478.72	17338.69
478.90	17558.70
479.08	17851.27
479.26	17928.50
479.44	17982.34
479.62	18104.04
479.80	18361.50
479.98	18129.79
480.16	18494.91
480.34	18565.13
480.52	19002.81
480.70	18703.22
480.88	18511.30
481.06	18941.96
481.24	19138.56
481.41	19143.24
481.59	19496.66
481.77	19506.02
481.95	19803.27
482.13	20030.30
482.31	19871.15
482.49	20168.40
482.67	20318.19
482.85	20395.43
483.03	20830.77
483.21	20964.18
483.39	21053.12
483.57	20657.57
483.74	21326.96
483.92	21364.41
484.10	21277.81
484.28	21710.81
484.46	22134.45
484.64	22492.55
484.82	22277.22
485.00	22408.29
485.18	22918.53
485.35	23246.20
485.53	23192.37
485.71	23267.27
485.89	23449.83
486.07	23866.44
486.25	23564.51
486.43	23789.20
486.61	23974.11
486.78	24479.66
486.96	24194.12
487.14	24907.98
487.32	24933.73
487.50	25111.61
487.68	25104.59
487.85	25682.70
488.03	25694.40
488.21	26319.32
488.39	25979.95
488.57	26349.75
488.75	26527.63
488.92	26679.77
489.10	27091.70
489.28	27182.98
489.46	27290.65
489.64	26991.06
489.81	28116.86
489.99	27695.56
490.17	28048.98
490.35	28533.47
490.53	28577.94
490.70	28655.18
490.88	28388.36
491.06	29120.95
491.24	29303.51
491.41	28975.83
491.59	29308.19
491.77	29530.54
491.95	30075.88
492.13	30249.08
492.30	30099.29
492.48	30536.97
492.66	30438.67
492.84	30590.80
493.01	30927.84
493.19	30845.92
493.37	31185.30
493.54	31424.03
493.72	31321.05
493.90	31857.03
494.08	31995.12
494.25	32210.45
494.43	32503.02
494.61	32627.07
494.79	32687.92
494.96	32847.08
495.14	33352.63
495.32	33287.10
495.49	33319.87
495.67	33656.90
495.85	33701.37
496.02	33888.62
496.20	34117.99
496.38	34054.79
496.55	34476.09
496.73	35063.57
496.91	34590.78
497.09	34979.31
497.26	35122.08
497.44	35351.45
497.62	35372.52
497.79	36079.36
497.97	35641.68
498.14	36116.81
498.32	36531.08
498.50	36397.67
498.67	36938.33
498.85	36865.78
499.03	36985.15
499.20	37088.13
499.38	37022.59
499.56	37448.57
499.73	37263.67
499.91	37752.84
500.08	38038.39
500.26	37694.33
500.44	37942.42
500.61	38068.81
500.79	38176.48
500.97	38801.40
501.14	38642.24
501.32	38607.14
501.49	38656.29
501.67	38686.71
501.84	39360.79
502.02	39395.90
502.20	39559.73
502.37	39662.72
502.55	39971.67
502.72	39784.43
502.90	39665.06
503.07	39597.18
503.25	40116.78
503.43	40175.30
503.60	40552.12
503.78	40481.91
503.95	40683.19
504.13	40931.29
504.30	40758.09
504.48	40975.76
504.65	41008.53
504.83	41212.15
505.01	41532.81
505.18	41640.47
505.36	42054.75
505.53	41598.34
505.71	42178.79
505.88	42298.16
506.06	41855.80
506.23	42417.53
506.41	42344.97
506.58	42284.12
506.76	42279.44
506.93	42981.60
507.11	42667.97
507.28	42366.04
507.46	43203.95
507.63	43297.57
507.81	43538.65
507.98	42986.28
508.16	43035.43
508.33	43784.40
508.50	43814.83
508.68	43852.28
508.85	44280.60
509.03	44116.76
509.20	44142.50
509.38	44758.06
509.55	44835.30
509.73	44549.76
509.90	44865.73
510.08	44898.50
510.25	45069.36
510.42	45209.79
510.60	44954.67
510.77	45778.54
510.95	45614.70
511.12	45301.07
511.30	45741.09
511.47	45528.10
511.64	45935.35
511.82	46234.94
511.99	45792.58
512.17	46263.03
512.34	46239.62
512.51	46948.81
512.69	46878.59
512.86	46869.23
513.04	47224.99
513.21	46651.56
513.38	47276.48
513.56	47082.22
513.73	47487.13
513.90	47508.19
514.08	47725.86
514.25	47540.96
514.43	47402.87
514.60	47833.53
514.77	47840.55
514.95	47971.62
515.12	48048.86
515.29	48034.81
515.47	48289.93
515.64	48699.53
515.81	48303.98
515.99	48603.56
516.16	48692.50
516.33	48641.01
516.51	49031.88
516.68	49132.53
516.85	48706.55
517.03	49251.89
517.20	49303.38
517.37	49118.48
517.54	49387.64
517.72	49099.76
517.89	49453.18
518.06	49411.05
518.24	49532.76
518.41	49532.76
518.58	49705.96
518.75	49485.95
518.93	49954.05
519.10	49837.03
519.27	50021.93
519.45	50307.47
519.62	50075.76
519.79	50583.66
519.96	50780.26
520.14	50258.32
520.31	50602.38
520.48	50686.64
520.65	50260.66
520.83	50848.14
521.00	50887.93
521.17	50726.43
521.34	50724.09
521.52	51145.39
521.69	50953.46
521.86	51337.31
522.03	51405.19
522.20	51636.90
522.38	51737.54
522.55	51475.40
522.72	51562.00
522.89	51526.89
523.07	52179.90
523.24	52016.07
523.41	51679.03
523.58	51784.35
523.75	52069.90
523.92	52123.73
524.10	52343.74
524.27	52577.79
524.44	52381.19
524.61	52135.43
524.78	52250.12
524.96	52486.51
525.13	52556.73
525.30	52877.38
525.47	52809.51
525.64	52870.36
525.81	52711.20
525.98	53099.73
526.16	52907.81
526.33	52912.49
526.50	53183.99
526.67	53048.24
526.84	53160.59
527.01	53088.03
527.18	53130.16
527.36	53340.81
527.53	53373.58
527.70	53359.53
527.87	53268.25
528.04	53471.88
528.21	53357.19
528.38	53467.20
528.55	53640.40
528.72	53675.51
528.89	53914.24
529.07	53846.36
529.24	53649.76
529.41	53968.07
529.58	53932.96
529.75	53757.42
529.92	54138.93
530.09	54232.55
530.26	53993.82
530.43	53991.48
530.60	54089.78
530.77	54117.87
530.94	54497.03
531.11	54094.46
531.28	54349.58
531.46	54190.42
531.63	54424.48
531.80	54630.44
531.97	54700.66
532.14	54693.64
532.31	54695.98
532.48	54681.94
532.65	55047.06
532.82	54813.01
532.99	54763.85
533.16	54857.48
533.33	55154.72
533.50	55224.94
533.67	54915.99
533.84	55297.50
534.01	55079.83
534.18	55112.59
534.35	55566.66
534.52	55131.32
534.69	55384.10
534.86	55451.97
535.03	55157.06
535.20	55360.69
535.37	55648.58
535.54	55739.86
535.71	55458.99
535.88	55482.40
536.05	55737.52
536.22	55786.67
536.38	55875.61
536.55	55791.35
536.72	55941.14
536.89	55828.80
537.06	55973.91
537.23	56182.22
537.40	55796.03
537.57	55716.45
537.74	56048.81
537.91	56364.78
538.08	56219.67
538.25	55840.50
538.42	56222.01
538.59	56114.34
538.75	56104.98
538.92	56156.47
539.09	56224.35
539.26	56479.47
539.43	56020.72
539.60	56430.32
539.77	56530.96
539.94	56552.02
540.11	56563.73
540.28	56556.70
540.44	56781.40
540.61	56804.80
540.78	56449.04
540.95	56823.53
541.12	56610.54
541.29	56453.72
541.46	56706.50
541.62	56776.72
541.79	56732.25
541.96	56350.74
542.13	56575.43
542.30	57017.79
542.47	56898.42
542.63	57013.11
542.80	56945.23
542.97	57240.14
543.14	57354.83
543.31	57380.57
543.48	57497.60
543.64	57581.86
543.81	57537.39
543.98	57364.19
544.15	57495.26
544.32	57724.63
544.48	57780.81
544.65	57626.33
544.82	57949.32
544.99	57539.73
545.16	57394.62
545.32	57675.48
545.49	57881.45
545.66	57762.08
545.83	57946.98
546.00	57733.99
546.16	57907.19
546.33	57710.59
546.50	57825.28
546.67	57991.45
546.83	57792.51
547.00	57844.00
547.17	58049.97
547.34	57794.85
547.50	58061.67
547.67	58349.56
547.84	58159.97
548.00	58246.57
548.17	58506.37
548.34	58410.41
548.51	58321.47
548.67	58143.59
548.84	58286.36
549.01	58223.17
549.18	58293.38
549.34	58433.81
549.51	58607.01
549.68	58602.33
549.84	58592.97
550.01	58742.77
550.18	58363.60
550.34	58417.43
550.51	58602.33
550.68	58775.53
550.84	58459.56
551.01	58784.90
551.18	58602.33
551.34	58677.23
551.51	58869.15
551.68	58623.40
551.84	58658.51
552.01	58614.04
552.18	58869.15
552.34	58424.45
552.51	58915.96
552.68	59014.27
552.84	59000.22
553.01	59241.30
553.18	58972.14
553.34	59084.48
553.51	58953.41
553.67	58965.12
553.84	59309.18
554.01	59117.25
554.17	59194.49
554.34	59269.39
554.51	59147.68
554.67	59271.73
554.84	59040.01
555.00	59316.20
555.17	59056.40
555.33	59150.02
555.50	59051.72
555.67	59206.19
555.83	59210.87
556.00	59304.49
556.16	59639.19
556.33	59604.08
556.50	59423.86
556.66	59447.27
556.83	59290.45
556.99	59686.00
557.16	59590.04
557.32	59632.17
557.49	59873.24
557.65	59529.19
557.82	59440.24
557.98	59554.93
558.15	59533.87
558.32	59618.13
558.48	59657.91
558.65	59686.00
558.81	59557.27
558.98	59702.38
559.14	59723.45
559.31	59877.93
559.47	60018.36
559.64	59959.84
559.80	60020.70
559.97	59950.48
560.13	59814.73
560.30	60074.53
560.46	59852.18
560.63	60093.25
560.79	60020.70
560.96	60151.77
561.12	59800.69
561.29	60102.62
561.45	59863.88
561.61	59994.95
561.78	60069.85
561.94	60147.09
562.11	59987.93
562.27	60104.96
562.44	59992.61
562.60	60163.47
562.77	60135.38
562.93	60020.70
563.10	60121.34
563.26	59985.59
563.42	60264.11
563.59	60308.58
563.75	60107.30
563.92	60123.68
564.08	60107.30
564.24	60528.59
564.41	60252.41
564.57	60434.97
564.74	60189.22
564.90	60324.97
565.07	60306.24
565.23	60434.97
565.39	60367.10
565.56	60420.93
565.72	60247.73
565.88	60444.33
566.05	60224.32
566.21	60343.69
566.38	60559.02
566.54	60364.76
566.70	60498.17
566.87	60505.19
567.03	60392.84
567.19	60678.39
567.36	60659.66
567.52	60493.49
567.68	60704.13
567.85	60549.66
568.01	60671.37
568.17	60399.86
568.34	60666.69
568.50	60589.45
568.66	60441.99
568.83	60898.40
568.99	60472.42
569.15	60647.96
569.32	60568.38
569.48	60568.38
569.64	60800.10
569.81	60556.68
569.97	60587.11
570.13	60544.98
570.30	60526.25
570.46	60711.16
570.62	60678.39
570.78	60699.45
570.95	60772.01
571.11	60708.82
571.27	60694.77
571.43	60711.16
571.60	60949.89
571.76	60842.23
571.92	60891.38
572.09	60849.25
572.25	60992.02
572.41	60772.01
572.57	60720.52
572.74	61017.77
572.90	60725.20
573.06	60797.76
573.22	60889.04
573.38	60666.69
573.55	60874.99
573.71	61022.45
573.87	60926.49
574.03	60743.92
574.20	61123.09
574.36	60680.73
574.52	60865.63
574.68	60764.99
574.84	60992.02
575.01	61017.77
575.17	60865.63
575.33	60905.42
575.49	60680.73
575.65	61022.45
575.82	61174.58
575.98	60942.87
576.14	60938.19
576.30	61137.13
576.46	60996.70
576.62	60828.18
576.79	60835.20
576.95	60853.93
577.11	60877.33
577.27	61076.28
577.43	61038.83
577.59	60849.25
577.75	60910.10
577.92	60952.23
578.08	60830.52
578.24	61076.28
578.40	61223.73
578.56	61083.30
578.72	61069.26
578.88	61146.50
579.04	61415.66
579.21	61162.88
579.37	61167.56
579.53	61078.62
579.69	60825.84
579.85	61008.40
580.01	61057.56
580.17	61003.72
580.33	61139.47
580.49	61052.87
580.65	60996.70
580.82	61151.18
580.98	60711.16
581.14	60924.14
581.30	61059.90
581.46	60856.27
581.62	61092.66
581.78	60956.91
581.94	61219.05
582.10	61020.11
582.26	61024.79
582.42	61064.58
582.58	60985.00
582.74	61197.99
582.90	61169.90
583.06	61057.56
583.22	61022.45
583.38	61132.45
583.54	61303.31
583.70	61186.28
583.86	61179.26
584.02	60996.70
584.18	61200.33
584.34	61160.54
584.50	61284.59
584.66	61106.71
584.82	61057.56
584.98	61186.28
585.14	61324.38
585.30	61034.15
585.46	61286.93
585.62	61169.90
585.78	61448.42
585.94	60860.95
586.10	61223.73
586.26	61057.56
586.42	61357.14
586.58	61432.04
586.74	61043.51
586.90	61099.68
587.06	61158.20
587.22	61476.51
587.38	61303.31
587.54	61476.51
587.70	61609.92
587.86	61202.67
588.02	61190.97
588.18	61427.36
588.34	61235.44
588.49	61134.79
588.65	61167.56
588.81	61352.46
588.97	61471.83
589.13	61359.48
589.29	61366.51
589.45	61471.83
589.61	61413.32
589.77	61586.52
589.93	61563.11
590.08	61549.07
590.24	61570.13
590.40	61635.67
590.56	61595.88
590.72	61684.82
590.88	61520.98
591.04	61375.87
591.20	61773.76
591.35	61499.92
591.51	61680.14
591.67	61572.47
591.83	61773.76
591.99	61694.18
592.15	61403.95
592.31	61588.86
592.46	61579.49
592.62	61623.96
592.78	61506.94
592.94	61684.82
593.10	61642.69
593.26	61815.89
593.41	61673.12
593.57	61542.05
593.73	61598.22
593.89	61909.51
594.05	61701.20
594.20	61670.78
594.36	61691.84
594.52	61731.63
594.68	61595.88
594.84	61584.18
594.99	61780.78
595.15	61628.65
595.31	61724.61
595.47	61563.11
595.62	61623.96
595.78	61556.09
595.94	61750.35
596.10	62012.49
596.25	61752.69
596.41	61865.04
596.57	61586.52
596.73	61687.16
596.88	61790.14
597.04	61708.22
597.20	61991.43
597.36	61982.07
597.51	62012.49
597.67	61659.07
597.83	61577.15
597.99	61687.16
598.14	61769.08
598.30	61886.10
598.46	61853.34
598.61	61914.19
598.77	61778.44
598.93	61968.02
599.09	61923.55
599.24	61982.07
599.40	61991.43
599.56	61848.66
599.71	61925.89
599.87	62012.49
600.03	61977.39
600.18	61949.30
600.34	61897.81
600.50	61865.04
600.65	61829.93
600.81	61766.74
600.97	61865.04
601.12	61827.59
601.28	61813.55
601.44	61986.75
601.59	61811.21
601.75	62014.83
601.91	62063.99
602.06	62078.03
602.22	62113.14
602.37	61895.47
602.53	61862.70
602.69	61949.30
602.84	61628.65
603.00	62042.92
603.16	61865.04
603.31	62094.41
603.47	62052.28
603.62	61881.42
603.78	62082.71
603.94	61904.83
604.09	61787.80
604.25	61883.76
604.40	61865.04
604.56	61996.11
604.71	62195.06
604.87	61956.32
605.03	62031.22
605.18	61897.81
605.34	61872.06
605.49	61640.35
605.65	62103.77
605.80	61956.32
605.96	61996.11
606.12	61935.26
606.27	62145.90
606.43	61911.85
606.58	61989.09
606.74	61670.78
606.89	61778.44
607.05	61961.00
607.20	62087.39
607.36	61670.78
607.51	61670.78
607.67	61670.78
607.82	61907.17
607.98	61729.29
608.13	61916.53
608.29	61715.25
608.44	61900.15
608.60	61654.39
608.75	61848.66
608.91	61630.99
609.06	61509.28
609.22	61778.44
609.37	61843.98
609.53	61862.70
609.68	61745.67
609.84	61773.76
609.99	61752.69
610.15	61872.06
610.30	61951.64
610.46	61808.87
610.61	61839.29
610.76	61724.61
610.92	61649.71
611.07	61755.03
611.23	61670.78
611.38	61731.63
611.54	61663.75
611.69	61984.41
611.84	61876.74
612.00	61766.74
612.15	61600.56
612.31	61843.98
612.46	61532.68
612.62	61600.56
612.77	61579.49
612.92	61633.33
613.08	61635.67
613.23	61703.54
613.39	61654.39
613.54	61581.84
613.69	61787.80
613.85	61528.00
614.00	61752.69
614.15	61799.50
614.31	61673.12
614.46	61497.58
614.62	61666.09
614.77	61403.95
614.92	61464.81
615.08	61406.30
615.23	61565.45
615.38	61439.06
615.54	61352.46
615.69	61549.07
615.84	61432.04
616.00	61607.58
616.15	61499.92
616.30	61506.94
616.46	61567.79
616.61	61176.92
616.76	61525.66
616.92	61422.68
617.07	61481.19
617.22	61247.14
617.37	61291.61
617.53	61726.95
617.68	61549.07
617.83	61240.12
617.99	61387.57
618.14	61410.98
618.29	61254.16
618.45	61254.16
618.60	61338.42
618.75	61385.23
618.90	61272.88
619.06	61425.02
619.21	61392.25
619.36	61474.17
619.51	61235.44
619.67	61186.28
619.82	61254.16
619.97	61385.23
620.12	60985.00
620.28	61336.08
620.43	61247.14
620.58	61151.18
620.73	61013.08
620.89	61052.87
621.04	61305.65
621.19	61113.73
621.34	61275.22
621.49	61172.24
621.65	61134.79
621.80	61364.17
621.95	61099.68
622.10	61109.05
622.25	61017.77
622.41	61038.83
622.56	61202.67
622.71	61087.98
622.86	60933.51
623.01	60938.19
623.16	60903.08
623.32	60837.54
623.47	61221.39
623.62	61111.39
623.77	61092.66
623.92	60977.98
624.07	60928.83
624.23	61022.45
624.38	61120.75
624.53	60818.82
624.68	60711.16
624.83	60994.36
624.98	60947.55
625.13	60638.60
625.29	60835.20
625.44	60858.61
625.59	60652.64
625.74	60676.05
625.89	60647.96
626.04	60650.30
626.19	60547.32
626.34	60692.43
626.49	60544.98
626.65	60577.75
626.80	60779.03
626.95	60561.36
627.10	60685.41
627.25	60523.91
627.40	60500.51
627.55	60479.44
627.70	60441.99
627.85	60617.53
628.00	60413.91
628.15	60587.11
628.30	60357.74
628.45	60477.10
628.60	60411.57
628.76	60378.80
628.91	60575.40
629.06	60458.38
629.21	60381.14
629.36	60470.08
629.51	60390.50
629.66	60374.12
629.81	60334.33
629.96	60252.41
630.11	60374.12
630.26	60257.09
630.41	60287.52
630.56	60065.17
630.71	60177.51
630.86	60231.35
631.01	60266.45
631.16	60229.01
631.31	60006.65
631.46	59859.20
631.61	60046.44
631.76	60278.16
631.91	60198.58
632.06	60280.50
632.21	60287.52
632.36	59845.16
632.51	59971.55
632.66	60275.82
632.81	59980.91
632.96	60341.35
633.10	60114.32
633.25	60081.55
633.40	60083.89
633.55	60020.70
633.70	59882.61
633.85	59957.50
634.00	59728.13
634.15	59821.75
634.30	59737.49
634.45	59957.50
634.60	60011.34
634.75	60100.28
634.90	59819.41
635.05	59671.96
635.19	59859.20
635.34	60048.78
635.49	59835.80
635.64	59793.67
635.79	59753.88
635.94	59880.27
636.09	59597.06
636.24	59583.02
636.39	59615.79
636.53	59824.09
636.68	59536.21
636.83	59686.00
636.98	59833.46
637.13	59540.89
637.28	59473.01
637.43	59592.38
637.57	59655.57
637.72	59510.46
637.87	59512.80
638.02	59657.91
638.17	59674.30
638.32	59655.57
638.46	59271.73
638.61	59585.36
638.76	59231.94
638.91	59402.80
639.06	59587.70
639.20	59388.75
639.35	59126.61
639.50	59318.54
639.65	59316.20
639.80	59313.86
639.94	59245.98
640.09	59510.46
640.24	59337.26
640.39	59451.95
640.54	59276.41
640.68	59353.65
640.83	59311.52
640.98	59178.10
641.13	59011.93
641.27	59260.02
641.42	59119.59
641.57	59140.66
641.72	59044.69
641.86	59100.87
642.01	59093.85
642.16	59040.01
642.31	58922.99
642.45	59358.33
642.60	58920.65
642.75	59185.13
642.90	59042.35
643.04	59028.31
643.19	59023.63
643.34	58913.62
643.48	59320.88
643.63	59372.37
643.78	59040.01
643.93	59103.21
644.07	58864.47
644.22	59030.65
644.37	58941.71
644.51	58787.24
644.66	58794.26
644.81	59054.06
644.95	58922.99
645.10	58805.96
645.25	58857.45
645.39	58777.87
645.54	58864.47
645.69	58859.79
645.83	58726.38
645.98	58686.59
646.13	58649.14
646.27	58983.84
646.42	58754.47
646.57	58614.04
646.71	58546.16
646.86	59011.93
647.00	58796.60
647.15	58712.34
647.30	58567.23
647.44	58550.84
647.59	58731.06
647.74	58625.74
647.88	58740.42
648.03	58885.54
648.17	58756.81
648.32	58429.13
648.47	58702.98
648.61	58492.33
648.76	58597.65
648.90	58244.23
649.05	58398.71
649.20	58684.25
649.34	58588.29
649.49	58365.94
649.63	58344.87
649.78	58459.56
649.92	58461.90
650.07	58735.74
650.21	58372.96
650.36	58295.72
650.51	58089.76
650.65	58564.88
650.80	58398.71
650.94	58274.66
651.09	58202.10
651.23	58110.82
651.38	58192.74
651.52	57998.48
651.67	58024.22
651.81	57939.96
651.96	58108.48
652.10	58103.80
652.25	58185.72
652.39	57954.00
652.54	57916.56
652.68	57759.74
652.83	57986.77
652.97	57993.79
653.12	57963.37
653.26	58061.67
653.41	58307.43
653.55	57928.26
653.70	57684.84
653.84	57895.49
653.99	57689.52
654.13	57773.78
654.27	57907.19
654.42	57883.79
654.56	57979.75
654.71	57902.51
654.85	57946.98
655.00	58148.27
655.14	57893.15
655.29	57755.06
655.43	57673.14
655.57	57588.88
655.72	57652.08
655.86	57537.39
656.01	57642.71
656.15	57743.36
656.30	57670.80
656.44	57717.61
656.58	57834.64
656.73	57792.51
656.87	57881.45
657.01	57661.44
657.16	57689.52
657.30	57425.04
657.45	57556.11
657.59	57371.21
657.73	57116.09
657.88	57375.89
658.02	57464.83
658.16	57425.04
658.31	57354.83
658.45	57265.89
658.60	57380.57
658.74	57434.41
658.88	57322.06
659.03	57247.16
659.17	57073.96
659.31	56898.42
659.46	57183.97
659.60	57272.91
659.74	57162.90
659.89	57151.20
660.03	56868.00
660.17	57052.90
660.32	57057.58
660.46	56856.29
660.60	56809.48
660.74	57116.09
660.89	57095.03
661.03	56853.95
661.17	56622.24
661.32	56507.55
661.46	56662.03
661.60	56734.59
661.74	56816.50
661.89	56685.43
662.03	56430.32
662.17	56397.55
662.31	56350.74
662.46	56781.40
662.60	56615.22
662.74	56449.04
662.88	56406.91
663.03	56168.18
663.17	56362.44
663.31	56191.58
663.45	56390.53
663.60	55971.57
663.74	55964.55
663.88	56051.15
664.02	55852.20
664.17	56062.85
664.31	55927.10
664.45	55817.10
664.59	56048.81
664.73	55997.32
664.88	55868.59
665.02	55250.69
665.16	55625.17
665.30	55458.99
665.44	55566.66
665.59	55482.40
665.73	55515.17
665.87	55278.77
666.01	55711.77
666.15	55496.44
666.29	55407.50
666.44	55697.73
666.58	55143.02
666.72	55143.02
666.86	54897.27
667.00	55107.91
667.14	54805.98
667.28	54981.52
667.43	55131.32
667.57	55238.98
667.71	55084.51
667.85	54815.35
667.99	54967.48
668.13	54768.54
668.27	54759.17
668.41	54710.02
668.56	54623.42
668.70	54585.97
668.84	54475.97
668.98	54380.01
669.12	54621.08
669.26	54417.46
669.40	54485.33
669.54	54305.11
669.68	54124.89
669.82	54057.01
669.96	54124.89
670.10	54555.55
670.25	54443.20
670.39	54181.06
670.53	53876.79
670.67	53963.39
670.81	54246.60
670.95	54134.25
671.09	53886.15
671.23	53588.91
671.37	53719.98
671.51	53586.57
671.65	53759.76
671.79	53373.58
671.93	53558.48
672.07	53427.41
672.21	53279.96
672.35	53113.78
672.49	52659.71
672.63	53071.65
672.77	52783.76
672.91	52963.98
673.05	52793.12
673.19	52893.77
673.33	52678.44
673.47	52612.90
673.61	52959.30
673.75	52671.42
673.89	52308.63
674.03	52102.67
674.17	52530.98
674.31	52093.30
674.45	51971.60
674.59	52097.98
674.73	51877.97
674.87	51866.27
675.01	51496.47
675.15	51803.08
675.29	51969.26
675.43	51716.48
675.56	51849.89
675.70	51466.04
675.84	51189.86
675.98	50391.73
676.12	51524.55
676.26	51281.14
676.40	51154.75
676.54	51058.79
676.68	50967.51
676.82	50539.19
676.96	50546.21
677.10	50141.30
677.23	49944.69
677.37	50218.53
677.51	50419.82
677.65	49888.52
677.79	49256.57
677.93	49413.39
678.07	49200.40
678.21	49453.18
678.34	49308.07
678.48	49261.26
678.62	49031.88
678.76	48758.04
678.90	48783.79
679.04	48945.28
679.18	48846.98
679.31	48322.70
679.45	48542.71
679.59	48184.61
679.73	48488.88
679.87	47995.03
680.00	47587.77
680.14	47501.17
680.28	47290.52
680.42	47365.42
680.56	47393.51
680.70	46581.34
680.83	47269.46
680.97	47091.58
681.11	47004.98
681.25	46930.08
681.39	47098.60
681.52	46878.59
681.66	46646.88
681.80	46319.20
681.94	46176.43
682.07	46270.05
682.21	46052.38
682.35	45670.87
682.49	45848.75
682.62	45844.07
682.76	45399.37
682.90	45607.68
683.04	45361.92
683.17	45434.48
683.31	45111.49
683.45	45092.76
683.59	44575.50
683.72	44568.48
683.86	44547.42
684.00	44444.43
684.13	44385.92
684.27	43807.81
684.41	43882.70
684.55	43725.89
684.68	43978.67
684.82	43604.18
684.96	43573.75
685.09	43379.49
685.23	43005.00
685.37	42810.74
685.50	42745.20
685.64	42504.13
685.78	42576.69
685.91	42602.43
686.05	41958.78
686.19	41701.32
686.32	41668.56
686.46	41294.07
686.60	41343.22
686.73	41151.30
686.87	41221.52
687.01	41167.68
687.14	41415.78
687.28	40917.25
687.42	40802.56
687.55	40018.48
687.69	40996.82
687.82	40509.99
687.96	40194.02
688.10	39643.99
688.23	40060.61
688.37	39545.69
688.50	39594.84
688.64	39328.02
688.78	39349.09
688.91	38864.60
689.05	39192.27
689.18	39180.57
689.32	37780.93
689.46	37713.05
689.59	37895.61
689.73	37680.28
689.86	37727.10
690.00	37521.13
690.13	37764.54
690.27	37556.24
690.41	37724.75
690.54	37528.15
690.68	37060.04
690.81	36814.29
690.95	36512.36
691.08	36404.69
691.22	36409.37
691.35	36395.33
691.49	36573.21
691.62	36315.75
691.76	35938.93
691.89	35379.54
692.03	35569.12
692.16	35566.78
692.30	35857.01
692.43	35353.79
692.57	34941.86
692.70	35159.53
692.84	34691.42
692.97	35122.08
693.11	34822.49
693.24	34532.26
693.38	34389.49
693.51	33984.58
693.65	34022.03
693.78	33993.94
693.92	33710.74
694.05	33558.60
694.19	33303.48
694.32	33546.90
694.45	33034.32
694.59	32929.00
694.72	32936.02
694.86	32556.85
694.99	32500.68
695.13	32350.88
695.26	32149.60
695.39	31576.17
695.53	31653.40
695.66	31857.03
695.80	32086.40
695.93	31803.20
696.07	31016.78
696.20	30869.33
696.33	31075.29
696.47	30637.61
696.60	30611.87
696.73	30586.12
696.87	30679.74
697.00	30370.79
697.14	30204.61
697.27	29886.30
697.40	30333.34
697.54	29921.41
697.67	29848.85
697.80	29905.02
697.94	29427.56
698.07	29502.45
698.21	28961.79
698.34	28882.21
698.47	28968.81
698.61	28526.45
698.74	28465.60
698.87	28734.76
699.01	28114.52
699.14	28456.23
699.27	28182.39
699.40	27920.25
699.54	28493.68
699.67	28158.99
699.80	27955.36
699.94	27648.75
700.07	27669.81
700.20	27494.27
700.34	27367.88
700.47	26859.99
700.60	26555.72
700.73	26785.09
700.87	25869.94
701.00	25930.80
701.13	26279.54
701.26	26225.70
701.40	26022.08
701.53	25837.17
701.66	25933.14
701.79	25221.61
701.93	24807.34
702.06	25025.01
702.19	24947.77
702.32	25289.49
702.46	25015.65
702.59	24884.58
702.72	24402.43
702.85	24671.59
702.99	24772.23
703.12	24264.33
703.25	24013.90
703.38	24126.24
703.51	24039.64
703.65	23513.02
703.78	23524.72
703.91	23318.76
704.04	23440.47
704.17	23421.74
704.31	23370.25
704.44	22927.89
704.57	22836.61
704.70	22939.59
704.83	22628.30
704.96	22281.90
705.10	21970.61
705.23	22185.94
>>>>>End Processed Spectral Data<<<<<
