SpectraSuite Data File
++++++++++++++++++++++++++++++++++++
Date: Fri Oct 25 11:26:39 EDT 2013
User: price-jones
Dark Spectrum Present: No
Reference Spectrum Present: No
Number of Sampled Component Spectra: 1
Spectrometers: USB2+H05261
Integration Time (usec): 100000 (USB2+H05261)
Spectra Averaged: 1 (USB2+H05261)
Boxcar Smoothing: 0 (USB2+H05261)
Correct for Electrical Dark: No (USB2+H05261)
Strobe/Lamp Enabled: No (USB2+H05261)
Correct for Detector Non-linearity: No (USB2+H05261)
Correct for Stray Light: No (USB2+H05261)
Number of Pixels in Processed Spectrum: 2048
>>>>>Begin Processed Spectral Data<<<<<
365.73	222.35
365.92	222.35
366.12	222.35
366.32	259.80
366.52	117.03
366.72	163.84
366.91	142.77
367.11	105.32
367.31	58.51
367.51	135.75
367.70	107.66
367.90	180.22
368.10	131.07
368.30	119.37
368.49	203.63
368.69	159.16
368.89	234.05
369.09	133.41
369.28	159.16
369.48	227.03
369.68	248.10
369.87	257.46
370.07	161.50
370.27	220.01
370.47	358.10
370.66	603.86
370.86	657.69
371.06	645.99
371.25	718.54
371.45	645.99
371.65	697.48
371.84	681.10
372.04	741.95
372.24	716.20
372.44	760.67
372.63	758.33
372.83	737.27
373.03	772.38
373.22	767.70
373.42	791.10
373.62	727.91
373.81	809.83
374.01	856.64
374.21	917.49
374.40	765.36
374.60	903.45
374.79	819.19
374.99	847.27
375.19	807.48
375.38	837.91
375.58	959.62
375.78	917.49
375.97	849.61
376.17	936.21
376.37	901.11
376.56	840.25
376.76	915.15
376.95	938.55
377.15	863.66
377.35	884.72
377.54	887.06
377.74	784.08
377.93	933.87
378.13	952.60
378.33	983.02
378.52	966.64
378.72	987.71
378.91	1029.84
379.11	915.15
379.31	973.66
379.50	875.36
379.70	961.96
379.89	952.60
380.09	947.92
380.28	1069.62
380.48	983.02
380.68	1025.15
380.87	894.08
381.07	976.00
381.26	1128.14
381.46	983.02
381.65	1057.92
381.85	1046.22
382.04	1109.41
382.24	1036.86
382.43	1083.67
382.63	1029.84
382.83	1104.73
383.02	1111.75
383.22	1107.07
383.41	1153.88
383.61	1102.39
383.80	1172.61
384.00	1144.52
384.19	1179.63
384.39	1196.01
384.58	1193.67
384.78	1139.84
384.97	1212.40
385.17	1090.69
385.36	1249.85
385.56	1256.87
385.75	1193.67
385.95	1128.14
386.14	1245.16
386.34	1263.89
386.53	1163.25
386.72	1198.35
386.92	1219.42
387.11	1214.74
387.31	1200.69
387.50	1252.19
387.70	1355.17
387.89	1273.25
388.09	1198.35
388.28	1228.78
388.48	1245.16
388.67	1343.47
388.86	1355.17
389.06	1268.57
389.25	1282.61
389.45	1357.51
389.64	1383.26
389.84	1439.43
390.03	1383.26
390.22	1411.34
390.42	1481.56
390.61	1401.98
390.81	1444.11
391.00	1432.41
391.19	1502.62
391.39	1430.07
391.58	1427.73
391.78	1427.73
391.97	1483.90
392.16	1554.12
392.36	1612.63
392.55	1500.28
392.75	1633.69
392.94	1500.28
393.13	1631.35
393.33	1526.03
393.52	1509.65
393.71	1645.40
393.91	1544.75
394.10	1521.35
394.29	1589.22
394.49	1572.84
394.68	1586.88
394.88	1666.46
395.07	1727.32
395.26	1732.00
395.46	1685.19
395.65	1612.63
395.84	1802.21
396.04	1863.07
396.23	1666.46
396.42	1729.66
396.62	1837.32
396.81	1818.60
397.00	1849.02
397.19	1750.72
397.39	1844.34
397.58	1853.70
397.77	1734.34
397.97	1846.68
398.16	1968.39
398.35	1860.73
398.55	1778.81
398.74	1844.34
398.93	1968.39
399.12	1884.13
399.32	2024.56
399.51	1895.83
399.70	2054.99
399.90	1982.43
400.09	2040.95
400.28	2047.97
400.47	2005.84
400.67	2155.63
400.86	2099.46
401.05	2043.29
401.24	2083.08
401.44	2143.93
401.63	2195.42
401.82	2155.63
402.01	2111.16
402.21	2221.17
402.40	2195.42
402.59	2223.51
402.78	2129.89
402.97	2223.51
403.17	2235.21
403.36	2319.47
403.55	2356.92
403.74	2480.97
403.93	2385.01
404.13	2310.11
404.32	2356.92
404.51	2363.94
404.70	2326.49
404.89	2307.77
405.09	2548.84
405.28	2455.22
405.47	2555.86
405.66	2544.16
405.85	2541.82
406.05	2644.81
406.24	2588.63
406.43	2478.63
406.62	2642.46
406.81	2754.81
407.00	2635.44
407.20	2710.34
407.39	2663.53
407.58	2726.72
407.77	2738.43
407.96	2778.22
408.15	2780.56
408.34	2733.75
408.54	2869.50
408.73	2829.71
408.92	2883.54
409.11	2860.13
409.30	2953.76
409.49	2988.86
409.68	3026.31
409.87	2960.78
410.07	3162.06
410.26	3019.29
410.45	2988.86
410.64	3159.72
410.83	3133.98
411.02	3080.14
411.21	3157.38
411.40	3173.77
411.59	3281.43
411.78	3234.62
411.98	3087.17
412.17	3356.33
412.36	3393.78
412.55	3318.88
412.74	3372.71
412.93	3368.03
413.12	3506.12
413.31	3564.64
413.50	3508.46
413.69	3637.19
413.88	3616.13
414.07	3576.34
414.26	3737.84
414.45	3672.30
414.64	3602.08
414.83	3826.78
415.02	3749.54
415.22	3798.69
415.41	3941.46
415.60	3918.06
415.79	3971.89
415.98	3997.64
416.17	3925.08
416.36	3981.25
416.55	4067.85
416.74	4039.76
416.93	4009.34
417.12	4145.09
417.31	4166.15
417.50	4212.96
417.69	4381.48
417.88	4374.46
418.07	4170.83
418.26	4320.63
418.45	4381.48
418.64	4550.00
418.83	4423.61
419.02	4414.25
419.21	4573.41
419.39	4444.68
419.58	4514.89
419.77	4620.22
419.96	4739.58
420.15	4620.22
420.34	4589.79
420.53	4716.18
420.72	4634.26
420.91	4692.77
421.10	4688.09
421.29	4816.82
421.48	4758.31
421.67	4779.37
421.86	4685.75
422.05	4830.87
422.24	4821.50
422.43	5011.09
422.61	5006.41
422.80	4931.51
422.99	5046.20
423.18	5020.45
423.37	4997.04
423.56	5067.26
423.75	5057.90
423.94	4842.57
424.13	4606.17
424.32	4788.74
424.50	4894.06
424.69	5046.20
424.88	5170.24
425.07	4999.38
425.26	4933.85
425.45	4905.76
425.64	5029.81
425.83	4983.00
426.01	5039.17
426.20	5158.54
426.39	5151.52
426.58	5067.26
426.77	5163.22
426.96	5076.62
427.15	5252.16
427.33	5261.52
427.52	5252.16
427.71	5343.44
427.90	5252.16
428.09	5355.15
428.28	5322.38
428.46	5327.06
428.65	5256.84
428.84	5724.95
429.03	5537.71
429.22	5535.37
429.40	5593.88
429.59	5453.45
429.78	5469.83
429.97	5184.29
430.16	5465.15
430.34	5598.56
430.53	5870.06
430.72	5788.14
430.91	5558.77
431.10	5638.35
431.28	5900.49
431.47	5776.44
431.66	5837.30
431.85	5853.68
432.03	5984.75
432.22	6001.13
432.41	6057.31
432.60	5954.32
432.79	6120.50
432.97	6036.24
433.16	6040.92
433.35	5867.72
433.54	6001.13
433.72	6076.03
433.91	6221.14
434.10	6171.99
434.28	6080.71
434.47	6033.90
434.66	6223.48
434.85	6300.72
435.03	6361.58
435.22	6347.53
435.41	6619.04
435.59	6363.92
435.78	6434.13
435.97	6579.25
436.16	6579.25
436.34	6480.94
436.53	6443.49
436.72	6612.01
436.90	6637.76
437.09	6626.06
437.28	6583.93
437.46	6717.34
437.65	6640.10
437.84	6670.53
438.02	6731.38
438.21	6757.13
438.40	6822.66
438.58	6993.52
438.77	7117.57
438.96	7002.88
439.14	7054.37
439.33	7145.66
439.52	7239.28
439.70	7178.42
439.89	7314.17
440.08	7377.37
440.26	7250.98
440.45	7358.64
440.63	7510.78
440.82	7681.64
441.01	7712.07
441.19	7712.07
441.38	7674.62
441.57	7737.81
441.75	7864.20
441.94	7873.56
442.12	7873.56
442.31	8365.07
442.50	8013.99
442.68	8077.19
442.87	8121.66
443.05	8145.06
443.24	8418.91
443.43	8379.12
443.61	8196.56
443.80	8643.60
443.98	8238.69
444.17	7833.77
444.35	8383.80
444.54	8388.48
444.73	8374.44
444.91	8231.66
445.10	8339.33
445.28	8446.99
445.47	8346.35
445.65	8334.65
445.84	8512.53
446.02	8491.46
446.21	8379.12
446.39	8259.75
446.58	8344.01
446.77	8575.72
446.95	8231.66
447.14	8318.26
447.32	8659.98
447.51	8538.27
447.69	8587.43
447.88	8608.49
448.06	8421.25
448.25	8755.94
448.43	8659.98
448.62	8549.98
448.80	8702.11
448.99	8816.80
449.17	8664.66
449.36	8688.07
449.54	8725.52
449.73	9032.13
449.91	9062.55
450.10	8947.87
450.28	9111.71
450.46	9074.26
450.65	9102.34
450.83	9198.31
451.02	9046.17
451.20	9137.45
451.39	9284.91
451.57	9111.71
451.76	9107.02
451.94	9191.28
452.13	9305.97
452.31	9469.81
452.49	9366.82
452.68	9453.42
452.86	9315.33
453.05	9399.59
453.23	9591.52
453.42	9682.80
453.60	9350.44
453.78	9675.77
453.97	9715.56
454.15	9514.28
454.34	9631.30
454.52	9682.80
454.70	9745.99
454.89	9848.97
455.07	9760.03
455.26	9884.08
455.44	10005.79
455.62	9881.74
455.81	10019.83
455.99	10026.86
456.17	10010.47
456.36	10267.93
456.54	10033.88
456.73	10427.09
456.91	10518.37
457.09	10487.94
457.28	10516.03
457.46	10668.16
457.64	10600.29
457.83	10506.66
458.01	10424.75
458.19	10721.99
458.38	10729.02
458.56	10906.90
458.74	10747.74
458.93	10862.43
459.11	10766.46
459.29	10782.85
459.48	10942.00
459.66	10829.66
459.84	10780.51
460.03	11192.44
460.21	11173.72
460.39	11105.84
460.57	11225.21
460.76	11169.04
460.94	11108.18
461.12	11473.31
461.31	11117.54
461.49	11075.42
461.67	11344.58
461.85	11564.59
462.04	11396.07
462.22	11674.59
462.40	11545.86
462.59	11442.88
462.77	11634.80
462.95	11639.48
463.13	11503.73
463.32	11665.23
463.50	11789.28
463.68	11744.81
463.86	11796.30
464.05	11482.67
464.23	11672.25
464.41	11915.67
464.59	11861.84
464.78	12004.61
464.96	11992.90
465.14	11969.50
465.32	11950.78
465.50	12292.49
465.69	12346.33
465.87	12147.38
466.05	12020.99
466.23	12217.60
466.41	12341.64
466.60	12463.35
466.78	12308.88
466.96	12409.52
467.14	12367.39
467.32	12421.22
467.51	12643.57
467.69	12070.14
467.87	12503.14
468.05	12648.26
468.23	12486.76
468.41	12393.14
468.60	12739.54
468.78	12933.80
468.96	12664.64
469.14	12819.11
469.32	13062.53
469.50	12908.05
469.69	13212.32
469.87	13001.68
470.05	13217.01
470.23	13039.12
470.41	13310.63
470.59	13401.91
470.77	13319.99
470.95	13125.72
471.14	13540.00
471.32	13181.90
471.50	13554.04
471.68	13535.32
471.86	13645.32
472.04	13687.45
472.22	14162.58
472.40	13722.56
472.58	13858.31
472.77	14204.71
472.95	14260.88
473.13	14712.61
473.31	14146.20
473.49	14572.18
473.67	14281.95
473.85	14523.02
474.03	14728.99
474.21	14626.01
474.39	14867.08
474.57	14822.61
474.75	14862.40
474.93	14949.00
475.12	15126.88
475.30	15115.18
475.48	15159.65
475.66	15339.87
475.84	14949.00
476.02	15690.95
476.20	15524.77
476.38	15763.51
476.56	16156.72
476.74	15941.39
476.92	16020.97
477.10	15906.28
477.28	16358.00
477.46	16037.35
477.64	16561.63
477.82	16669.30
478.00	16996.97
478.18	17011.01
478.36	16952.50
478.54	17277.83
478.72	17303.58
478.90	17397.20
479.08	17642.96
479.26	17820.84
479.44	17947.23
479.62	17954.25
479.80	18293.63
479.98	18075.96
480.16	18752.37
480.34	18415.34
480.52	18616.62
480.70	18487.89
480.88	18513.64
481.06	18761.73
481.24	18845.99
481.41	19201.76
481.59	19307.08
481.77	19690.93
481.95	19789.23
482.13	19805.61
482.31	19943.70
482.49	20299.47
482.67	20374.36
482.85	20205.84
483.03	20695.02
483.21	21039.08
483.39	21113.97
483.57	21343.35
483.74	21422.92
483.92	21516.54
484.10	21497.82
484.28	21902.73
484.46	22080.61
484.64	22412.97
484.82	21958.91
485.00	22567.45
485.18	22932.57
485.35	23187.69
485.53	23014.49
485.71	23426.42
485.89	23517.70
486.07	23335.14
486.25	23386.63
486.43	23892.19
486.61	23723.67
486.78	24205.82
486.96	24231.57
487.14	24739.46
487.32	24507.75
487.50	24889.26
487.68	24730.10
487.85	25671.00
488.03	25886.32
488.21	26017.40
488.39	25869.94
488.57	26164.85
488.75	26469.12
488.92	26632.96
489.10	26742.96
489.28	27009.78
489.46	27124.47
489.64	27108.08
489.81	27861.74
489.99	27852.38
490.17	27924.93
490.35	28229.20
490.53	28620.07
490.70	28322.82
490.88	28615.39
491.06	28952.43
491.24	28842.42
491.41	28814.34
491.59	29453.30
491.77	29598.41
491.95	29633.52
492.13	30059.50
492.30	30132.06
492.48	30321.64
492.66	30396.54
492.84	30525.27
493.01	30904.43
493.19	30759.32
493.37	31147.85
493.54	31405.31
493.72	31777.45
493.90	31461.48
494.08	31873.42
494.25	32163.64
494.43	32187.05
494.61	32098.11
494.79	32685.58
494.96	32615.37
495.14	33060.07
495.32	33188.80
495.49	33261.35
495.67	33230.93
495.85	33579.67
496.02	33785.63
496.20	34373.11
496.38	34007.98
496.55	34569.71
496.73	35161.87
496.91	34644.61
497.09	35267.19
497.26	35646.36
497.44	34998.03
497.62	35318.68
497.79	35927.22
497.97	35700.19
498.14	35992.76
498.32	36458.52
498.50	36025.53
498.67	36720.66
498.85	36842.37
499.03	36371.92
499.20	36692.58
499.38	36966.42
499.56	37448.57
499.73	37303.46
499.91	37490.70
500.08	37120.90
500.26	37649.86
500.44	37844.12
500.61	38314.57
500.79	38457.34
500.97	38419.89
501.14	38667.99
501.32	38593.09
501.49	38572.03
501.67	38883.32
501.84	39454.41
502.02	38815.44
502.20	39445.05
502.37	39147.80
502.55	39800.81
502.72	39651.02
502.90	39779.74
503.07	39510.58
503.25	40137.85
503.43	40046.57
503.60	40123.80
503.78	40133.17
503.95	40528.72
504.13	40753.41
504.30	40821.28
504.48	40746.39
504.65	40680.85
504.83	40800.22
505.01	41284.71
505.18	41237.90
505.36	41904.95
505.53	41553.87
505.71	41691.96
505.88	41872.18
506.06	41567.91
506.23	42232.63
506.41	41904.95
506.58	42131.98
506.76	42068.79
506.93	42742.86
507.11	42501.79
507.28	42602.43
507.46	43257.78
507.63	43171.18
507.81	43592.48
507.98	42614.13
508.16	43597.16
508.33	43814.83
508.50	43725.89
508.68	43814.83
508.85	44264.21
509.03	43810.15
509.20	44191.65
509.38	44669.12
509.55	44416.35
509.73	44680.83
509.90	44800.19
510.08	44739.34
510.25	44718.28
510.42	45006.16
510.60	44907.86
510.77	44996.80
510.95	45631.08
511.12	45317.45
511.30	45317.45
511.47	45560.87
511.64	45998.55
511.82	46101.53
511.99	46160.05
512.17	46190.47
512.34	46150.68
512.51	46763.90
512.69	46597.73
512.86	46660.92
513.04	46944.12
513.21	46740.50
513.38	46904.34
513.56	47131.37
513.73	46768.58
513.90	46946.47
514.08	46925.40
514.25	47473.09
514.43	47807.78
514.60	47445.00
514.77	47590.11
514.95	47892.04
515.12	47468.40
515.29	47524.58
515.47	48215.04
515.64	47885.02
515.81	47936.51
515.99	48362.49
516.16	48720.59
516.33	48832.94
516.51	49066.99
516.68	48374.19
516.85	49031.88
517.03	49268.28
517.20	48797.83
517.37	48715.91
517.54	49123.16
517.72	49066.99
517.89	49123.16
518.06	49441.48
518.24	49364.24
518.41	49811.28
518.58	49476.58
518.75	49446.16
518.93	49581.91
519.10	49888.52
519.27	50028.95
519.45	49984.48
519.62	49930.65
519.79	50192.79
519.96	50356.63
520.14	50356.63
520.31	50230.24
520.48	50543.87
520.65	50625.79
520.83	50876.22
521.00	50918.35
521.17	50843.46
521.34	50908.99
521.52	50981.55
521.69	51033.04
521.86	51110.28
522.03	51063.47
522.20	51220.28
522.38	51461.36
522.55	51636.90
522.72	51194.54
522.89	51648.60
523.07	51695.41
523.24	51498.81
523.41	51657.96
523.58	51494.13
523.75	51910.74
523.92	51927.13
524.10	52238.42
524.27	52016.07
524.44	52193.95
524.61	52226.71
524.78	52222.03
524.96	52357.78
525.13	52687.80
525.30	52612.90
525.47	52814.19
525.64	52566.09
525.81	52652.69
525.98	52828.23
526.16	52673.76
526.33	52720.57
526.50	53389.96
526.67	52765.04
526.84	53176.97
527.01	52989.73
527.18	52811.85
527.36	53174.63
527.53	53076.33
527.70	53574.86
527.87	53345.49
528.04	53315.06
528.21	53595.93
528.38	53530.39
528.55	53851.05
528.72	53422.73
528.89	53661.46
529.07	53450.81
529.24	53471.88
529.41	53818.28
529.58	53844.02
529.75	54052.33
529.92	53820.62
530.09	54073.40
530.26	53879.13
530.43	53986.80
530.60	54017.22
530.77	53923.60
530.94	54277.02
531.11	54152.97
531.28	54129.57
531.46	54305.11
531.63	54609.38
531.80	54398.73
531.97	54424.48
532.14	54546.18
532.31	54494.69
532.48	54686.62
532.65	54513.42
532.82	54621.08
532.99	54632.78
533.16	54637.47
533.33	54850.45
533.50	55079.83
533.67	55009.61
533.84	54906.63
534.01	55157.06
534.18	55049.40
534.35	55323.24
534.52	54939.39
534.69	55372.39
534.86	55428.57
535.03	55433.25
535.20	55601.77
535.37	55358.35
535.54	55451.97
535.71	55267.07
535.88	55751.56
536.05	55470.70
536.22	55723.47
536.38	55828.80
536.55	55475.38
536.72	55662.62
536.89	55833.48
537.06	55561.98
537.23	55882.63
537.40	55606.45
537.57	55880.29
537.74	55796.03
537.91	56135.41
538.08	55765.60
538.25	55976.25
538.42	56196.26
538.59	56219.67
538.75	56140.09
538.92	56245.41
539.09	56418.61
539.26	56378.82
539.43	55978.59
539.60	56451.38
539.77	56310.95
539.94	56823.53
540.11	56509.89
540.28	56694.80
540.44	56769.69
540.61	56346.06
540.78	56701.82
540.95	56418.61
541.12	56615.22
541.29	56591.81
541.46	56615.22
541.62	56526.28
541.79	56680.75
541.96	56507.55
542.13	56722.88
542.30	56980.34
542.47	56910.13
542.63	56980.34
542.80	56947.57
542.97	57322.06
543.14	57345.47
543.31	57261.21
543.48	57286.95
543.64	57446.11
543.81	57565.48
543.98	57483.56
544.15	57401.64
544.32	57808.89
544.48	57565.48
544.65	57544.41
544.82	57495.26
544.99	57345.47
545.16	57478.88
545.32	57614.63
545.49	57771.44
545.66	57663.78
545.83	57675.48
546.00	57743.36
546.16	57958.69
546.33	57808.89
546.50	57673.14
546.67	57853.36
546.83	57609.95
547.00	58000.82
547.17	57703.57
547.34	58094.44
547.50	58061.67
547.67	58312.11
547.84	58117.84
548.00	58188.06
548.17	58361.26
548.34	58059.33
548.51	58319.13
548.67	58309.77
548.84	58031.24
549.01	58281.68
549.18	58305.09
549.34	58319.13
549.51	58602.33
549.68	58323.81
549.84	58265.30
550.01	58693.61
550.18	58431.47
550.34	58445.52
550.51	58585.95
550.68	58525.10
550.84	58403.39
551.01	58665.53
551.18	58592.97
551.34	58607.01
551.51	58625.74
551.68	58719.36
551.84	58670.21
552.01	58616.38
552.18	58808.30
552.34	58710.00
552.51	58681.91
552.68	58710.00
552.84	59021.29
553.01	58932.35
553.18	58892.56
553.34	59082.14
553.51	58908.94
553.67	59004.91
553.84	59164.06
554.01	59077.46
554.17	59222.58
554.34	59089.16
554.51	59131.29
554.67	59224.92
554.84	59185.13
555.00	58859.79
555.17	59098.53
555.33	59243.64
555.50	58890.22
555.67	58876.18
555.83	59025.97
556.00	59243.64
556.16	59632.17
556.33	59379.39
556.50	59393.43
556.66	59346.62
556.83	59192.15
556.99	59353.65
557.16	59632.17
557.32	59515.14
557.49	59524.50
557.65	59568.97
557.82	59377.05
557.98	59311.52
558.15	59618.13
558.32	59664.94
558.48	59526.84
558.65	59618.13
558.81	59634.51
558.98	59683.66
559.14	59578.34
559.31	59725.79
559.47	59887.29
559.64	59810.05
559.80	59681.32
559.97	59826.43
560.13	59742.17
560.30	59742.17
560.46	59976.23
560.63	59798.35
560.79	59835.80
560.96	59840.48
561.12	59767.92
561.29	60039.42
561.45	59994.95
561.61	60046.44
561.78	59915.37
561.94	59875.58
562.11	60062.83
562.27	59994.95
562.44	60020.70
562.60	60081.55
562.77	60184.54
562.93	59969.21
563.10	60236.03
563.26	59781.96
563.42	60346.03
563.59	60119.00
563.75	60126.02
563.92	60006.65
564.08	60074.53
564.24	60324.97
564.41	60357.74
564.57	60331.99
564.74	60168.15
564.90	60257.09
565.07	60039.42
565.23	60189.22
565.39	60236.03
565.56	60245.39
565.72	60170.49
565.88	60254.75
566.05	60226.66
566.21	60336.67
566.38	60266.45
566.54	60299.22
566.70	60598.81
566.87	60413.91
567.03	60324.97
567.19	60535.62
567.36	60622.22
567.52	60631.58
567.68	60781.37
567.85	60423.27
568.01	60554.34
568.17	60434.97
568.34	60463.06
568.50	60367.10
568.66	60385.82
568.83	60493.49
568.99	60563.70
569.15	60441.99
569.32	60617.53
569.48	60315.61
569.64	60608.17
569.81	60456.04
569.97	60409.23
570.13	60540.30
570.30	60273.48
570.46	60645.62
570.62	60584.77
570.78	60690.09
570.95	60533.28
571.11	60760.31
571.27	60481.78
571.43	60694.77
571.60	60622.22
571.76	60530.93
571.92	60748.60
572.09	60713.50
572.25	60657.32
572.41	60624.56
572.57	60626.90
572.74	60793.07
572.90	60505.19
573.06	60706.47
573.22	60835.20
573.38	60783.71
573.55	60814.14
573.71	60816.48
573.87	60776.69
574.03	60776.69
574.20	60809.46
574.36	60615.19
574.52	60764.99
574.68	60753.29
574.84	61006.06
575.01	61062.24
575.17	60910.10
575.33	60706.47
575.49	60905.42
575.65	60727.54
575.82	61001.38
575.98	61013.08
576.14	60975.64
576.30	60949.89
576.46	60996.70
576.62	60736.90
576.79	61041.17
576.95	60706.47
577.11	61029.47
577.27	60722.86
577.43	60935.85
577.59	60846.91
577.75	60842.23
577.92	60809.46
578.08	60753.29
578.24	60928.83
578.40	60860.95
578.56	60893.72
578.72	61048.19
578.88	60959.25
579.04	61116.07
579.21	60858.61
579.37	61193.31
579.53	60910.10
579.69	60697.11
579.85	60776.69
580.01	60999.04
580.17	60860.95
580.33	61076.28
580.49	61172.24
580.65	61123.09
580.82	61116.07
580.98	60879.67
581.14	60807.12
581.30	61322.04
581.46	60870.31
581.62	61048.19
581.78	61038.83
581.94	61158.20
582.10	60882.02
582.26	60816.48
582.42	60959.25
582.58	61055.21
582.74	60961.59
582.90	61116.07
583.06	61172.24
583.22	60985.00
583.38	60928.83
583.54	60970.96
583.70	61092.66
583.86	61045.85
584.02	61141.81
584.18	61071.60
584.34	61186.28
584.50	61029.47
584.66	60874.99
584.82	60814.14
584.98	61310.33
585.14	61062.24
585.30	61024.79
585.46	61167.56
585.62	60985.00
585.78	61144.16
585.94	60837.54
586.10	61254.16
586.26	61179.26
586.42	61031.81
586.58	61230.75
586.74	61144.16
586.90	61216.71
587.06	61010.74
587.22	61169.90
587.38	61167.56
587.54	61289.27
587.70	61338.42
587.86	61214.37
588.02	61317.35
588.18	61275.22
588.34	60961.59
588.49	61207.35
588.65	61078.62
588.81	61165.22
588.97	61364.17
589.13	61071.60
589.29	61214.37
589.45	61387.57
589.61	61361.82
589.77	61478.85
589.93	61467.15
590.08	61488.21
590.24	61350.12
590.40	61647.37
590.56	61492.89
590.72	61396.93
590.88	61406.30
591.04	61485.87
591.20	61415.66
591.35	61546.73
591.51	61801.85
591.67	61546.73
591.83	61434.38
591.99	61607.58
592.15	61422.68
592.31	61497.58
592.46	61429.70
592.62	61455.45
592.78	61497.58
592.94	61499.92
593.10	61499.92
593.26	61432.04
593.41	61359.48
593.57	61415.66
593.73	61502.26
593.89	61762.06
594.05	61813.55
594.20	61535.02
594.36	61623.96
594.52	61766.74
594.68	61581.84
594.84	61453.11
594.99	61668.44
595.15	61485.87
595.31	61783.12
595.47	61537.36
595.62	61588.86
595.78	61544.39
595.94	61769.08
596.10	61762.06
596.25	61675.46
596.41	61806.53
596.57	61399.27
596.73	61726.95
596.88	61762.06
597.04	61740.99
597.20	61797.16
597.36	61614.60
597.51	61843.98
597.67	61523.32
597.83	61483.53
597.99	61836.95
598.14	61722.27
598.30	61642.69
598.46	61902.49
598.61	61827.59
598.77	61696.52
598.93	61663.75
599.09	61701.20
599.24	62003.13
599.40	61883.76
599.56	61836.95
599.71	61846.32
599.87	62101.43
600.03	62026.54
600.18	61893.13
600.34	61827.59
600.50	62068.67
600.65	61764.40
600.81	61820.57
600.97	61869.72
601.12	61743.33
601.28	61865.04
601.44	61815.89
601.59	61977.39
601.75	61652.05
601.91	61872.06
602.06	61801.85
602.22	62047.60
602.37	61888.45
602.53	61874.40
602.69	61904.83
602.84	61712.91
603.00	61680.14
603.16	62003.13
603.31	61930.58
603.47	61897.81
603.62	61766.74
603.78	61804.19
603.94	61827.59
604.09	61815.89
604.25	61923.55
604.40	61825.25
604.56	62028.88
604.71	62073.35
604.87	61874.40
605.03	61961.00
605.18	61984.41
605.34	61935.26
605.49	61766.74
605.65	61928.23
605.80	61825.25
605.96	61918.87
606.12	61951.64
606.27	62012.49
606.43	61895.47
606.58	62012.49
606.74	61628.65
606.89	61848.66
607.05	61883.76
607.20	61780.78
607.36	61731.63
607.51	61726.95
607.67	61659.07
607.82	61623.96
607.98	61696.52
608.13	61841.63
608.29	61862.70
608.44	61799.50
608.60	61684.82
608.75	61755.03
608.91	61656.73
609.06	61560.77
609.22	61740.99
609.37	61724.61
609.53	61612.26
609.68	61759.72
609.84	61450.77
609.99	61841.63
610.15	61649.71
610.30	61846.32
610.46	61790.14
610.61	61726.95
610.76	61490.55
610.92	61652.05
611.07	61740.99
611.23	61584.18
611.38	61792.48
611.54	61726.95
611.69	61518.64
611.84	61691.84
612.00	61609.92
612.15	61483.53
612.31	61595.88
612.46	61516.30
612.62	61612.26
612.77	61628.65
612.92	61691.84
613.08	61542.05
613.23	61619.28
613.39	61542.05
613.54	61322.04
613.69	61525.66
613.85	61591.20
614.00	61724.61
614.15	61640.35
614.31	61432.04
614.46	61659.07
614.62	61485.87
614.77	61532.68
614.92	61485.87
615.08	61436.72
615.23	61511.62
615.38	61467.15
615.54	61315.01
615.69	61415.66
615.84	61462.47
616.00	61476.51
616.15	61310.33
616.30	61474.17
616.46	61312.67
616.61	61422.68
616.76	61535.02
616.92	61099.68
617.07	61359.48
617.22	61228.41
617.37	61366.51
617.53	61588.86
617.68	61396.93
617.83	61277.57
617.99	61200.33
618.14	61345.44
618.29	61228.41
618.45	61104.37
618.60	61263.52
618.75	61244.80
618.90	61336.08
619.06	61076.28
619.21	61284.59
619.36	61361.82
619.51	61284.59
619.67	61076.28
619.82	60970.96
619.97	61408.64
620.12	61104.37
620.28	60917.12
620.43	61176.92
620.58	61378.21
620.73	60921.80
620.89	61251.82
621.04	61373.53
621.19	61162.88
621.34	61078.62
621.49	61055.21
621.65	60949.89
621.80	61095.00
621.95	60828.18
622.10	60905.42
622.25	60956.91
622.41	61029.47
622.56	61113.73
622.71	61055.21
622.86	60701.79
623.01	60842.23
623.16	61036.49
623.32	60912.44
623.47	61090.32
623.62	60938.19
623.77	60896.06
623.92	61095.00
624.07	61013.08
624.23	60882.02
624.38	60874.99
624.53	60577.75
624.68	60500.51
624.83	60767.33
624.98	60898.40
625.13	60477.10
625.29	60863.29
625.44	60767.33
625.59	60690.09
625.74	60662.00
625.89	60725.20
626.04	60734.56
626.19	60622.22
626.34	60519.23
626.49	60580.09
626.65	60453.70
626.80	60580.09
626.95	60334.33
627.10	60278.16
627.25	60544.98
627.40	60395.18
627.55	60453.70
627.70	60458.38
627.85	60322.63
628.00	60514.55
628.15	60519.23
628.30	60392.84
628.45	60470.08
628.60	60212.62
628.76	60376.46
628.91	60498.17
629.06	60331.99
629.21	60348.37
629.36	60294.54
629.51	60116.66
629.66	60350.71
629.81	59966.87
629.96	59983.25
630.11	60030.06
630.26	60346.03
630.41	60203.26
630.56	60175.17
630.71	60034.74
630.86	60168.15
631.01	60079.21
631.16	60259.43
631.31	60161.13
631.46	59898.99
631.61	60107.30
631.76	60055.81
631.91	60308.58
632.06	60168.15
632.21	60175.17
632.36	59980.91
632.51	59927.08
632.66	60090.91
632.81	59756.22
632.96	60107.30
633.10	59971.55
633.25	60009.00
633.40	60001.97
633.55	59976.23
633.70	59906.01
633.85	59772.60
634.00	59664.94
634.15	59669.62
634.30	59601.74
634.45	60191.56
634.60	59852.18
634.75	59693.02
634.90	59564.29
635.05	59819.41
635.19	59681.32
635.34	59831.11
635.49	59800.69
635.64	59803.03
635.79	59693.02
635.94	59742.17
636.09	59697.70
636.24	59608.76
636.39	59578.34
636.53	59800.69
636.68	59515.14
636.83	59817.07
636.98	59730.47
637.13	59554.93
637.28	59587.70
637.43	59494.08
637.57	59690.68
637.72	59341.94
637.87	59573.66
638.02	59458.97
638.17	59641.53
638.32	59435.56
638.46	59421.52
638.61	59355.99
638.76	59248.32
638.91	59185.13
639.06	59426.20
639.20	59316.20
639.35	59306.83
639.50	59070.44
639.65	59166.40
639.80	59611.10
639.94	59379.39
640.09	59426.20
640.24	59201.51
640.39	59171.08
640.54	59363.01
640.68	59192.15
640.83	59208.53
640.98	58894.90
641.13	58965.12
641.27	59620.47
641.42	59032.99
641.57	59061.08
641.72	59278.75
641.86	59016.61
642.01	58983.84
642.16	59032.99
642.31	58986.18
642.45	59084.48
642.60	59049.38
642.75	59135.98
642.90	59133.63
643.04	58962.78
643.19	58726.38
643.34	58915.96
643.48	59065.76
643.63	58841.07
643.78	58850.43
643.93	58864.47
644.07	58941.71
644.22	58789.58
644.37	58520.41
644.51	58459.56
644.66	58904.26
644.81	58831.71
644.95	58513.39
645.10	58726.38
645.25	58768.51
645.39	58555.52
645.54	58827.02
645.69	58693.61
645.83	58656.17
645.98	58571.91
646.13	58585.95
646.27	58482.97
646.42	58665.53
646.57	58646.80
646.71	58614.04
646.86	58782.55
647.00	58656.17
647.15	58281.68
647.30	58314.45
647.44	58497.01
647.59	58515.73
647.74	58738.08
647.88	58511.05
648.03	58805.96
648.17	58616.38
648.32	58375.30
648.47	58569.57
648.61	58445.52
648.76	58674.89
648.90	58368.28
649.05	58358.92
649.20	58443.18
649.34	58515.73
649.49	58520.41
649.63	58499.35
649.78	58567.23
649.92	58309.77
650.07	58473.60
650.21	58267.64
650.36	58370.62
650.51	58145.93
650.65	58527.44
650.80	58129.54
650.94	58075.71
651.09	58225.51
651.23	57982.09
651.38	58068.69
651.52	57848.68
651.67	57918.90
651.81	58159.97
651.96	58239.55
652.10	58162.31
652.25	58274.66
652.39	57865.06
652.54	57860.38
652.68	57605.26
652.83	57893.15
652.97	57911.88
653.12	58007.84
653.26	57631.01
653.41	57909.53
653.55	57876.77
653.70	58117.84
653.84	57975.07
653.99	57841.66
654.13	57860.38
654.27	57925.92
654.42	57481.22
654.56	57783.15
654.71	57977.41
654.85	57930.60
655.00	57888.47
655.14	57598.24
655.29	57626.33
655.43	57806.55
655.57	57703.57
655.72	57579.52
655.86	57708.25
656.01	57673.14
656.15	57684.84
656.30	57722.29
656.44	57858.04
656.58	57783.15
656.73	57881.45
656.87	57570.16
657.01	57275.25
657.16	57506.96
657.30	57247.16
657.45	57380.57
657.59	57350.15
657.73	57141.84
657.88	57209.71
658.02	57183.97
658.16	57279.93
658.31	57340.78
658.45	57254.18
658.60	57340.78
658.74	57272.91
658.88	57516.32
659.03	56931.19
659.17	57055.24
659.31	57022.47
659.46	56921.83
659.60	56891.40
659.74	57125.46
659.89	56914.81
660.03	56753.31
660.17	57003.75
660.32	56863.32
660.46	56989.70
660.60	56830.55
660.74	56938.21
660.89	57153.54
661.03	56680.75
661.17	56535.64
661.32	56521.60
661.46	56612.88
661.60	56655.01
661.74	56479.47
661.89	56313.29
662.03	56437.34
662.17	56446.70
662.31	56299.25
662.46	56479.47
662.60	56273.50
662.74	56278.18
662.88	56301.59
663.03	56179.88
663.17	56222.01
663.31	56004.34
663.45	56018.38
663.60	56032.42
663.74	55683.69
663.88	55877.95
664.02	55866.25
664.17	56079.24
664.31	55566.66
664.45	55760.92
664.59	55573.68
664.73	55796.03
664.88	55473.04
665.02	55393.46
665.16	55814.76
665.30	55451.97
665.44	55522.19
665.59	55545.59
665.73	55374.73
665.87	55201.53
666.01	55381.76
666.15	55341.97
666.29	55566.66
666.44	55292.82
666.58	55192.17
666.72	55007.27
666.86	55250.69
667.00	55248.35
667.14	54796.62
667.28	54974.50
667.43	55075.15
667.57	54993.23
667.71	54653.85
667.85	54653.85
667.99	54688.96
668.13	54490.01
668.27	54415.11
668.41	54560.23
668.56	54286.39
668.70	54202.13
668.84	54349.58
668.98	54356.60
669.12	54490.01
669.26	54363.62
669.40	54335.54
669.54	54225.53
669.68	54375.33
669.82	54047.65
669.96	54026.59
670.10	54305.11
670.25	54398.73
670.39	53937.65
670.53	54204.47
670.67	54131.91
670.81	54204.47
670.95	53977.43
671.09	53701.25
671.23	53738.70
671.37	53495.28
671.51	53628.69
671.65	53734.02
671.79	53308.04
671.93	53429.75
672.07	53275.27
672.21	53235.48
672.35	53045.90
672.49	52790.78
672.63	52858.66
672.77	52844.62
672.91	52711.20
673.05	52708.86
673.19	52353.10
673.33	52446.72
673.47	52348.42
673.61	52650.35
673.75	52219.69
673.89	52065.22
674.03	52196.29
674.17	51973.94
674.31	52095.64
674.45	51882.66
674.59	51559.66
674.73	51955.21
674.87	51896.70
675.01	51625.20
675.15	51356.03
675.29	51414.55
675.43	51746.90
675.56	51463.70
675.70	51353.69
675.84	51519.87
675.98	50260.66
676.12	50997.93
676.26	50988.57
676.40	50890.27
676.54	50981.55
676.68	51405.19
676.82	50026.61
676.96	50459.61
677.10	50071.08
677.23	50206.83
677.37	50171.72
677.51	49832.35
677.65	49289.34
677.79	49078.69
677.93	49275.30
678.07	49378.28
678.21	49378.28
678.34	48898.47
678.48	49340.83
678.62	48825.92
678.76	48774.42
678.90	48891.45
679.04	48516.96
679.18	48638.67
679.31	48105.03
679.45	48243.12
679.59	48044.18
679.73	48425.68
679.87	48025.45
680.00	47442.66
680.14	47220.31
680.28	47700.12
680.42	47337.33
680.56	46864.55
680.70	46670.28
680.83	46658.58
680.97	47072.85
681.11	46705.39
681.25	46616.45
681.39	46284.09
681.52	46447.93
681.66	46560.28
681.80	46068.76
681.94	46258.35
682.07	45998.55
682.21	45691.94
682.35	45610.02
682.49	45708.32
682.62	45139.57
682.76	45315.11
682.90	45137.23
683.04	45144.25
683.17	44425.71
683.31	44318.04
683.45	44706.57
683.59	44416.35
683.72	43669.72
683.86	43920.15
684.00	43915.47
684.13	44685.51
684.27	43868.66
684.41	44322.72
684.55	43985.69
684.68	44135.48
684.82	43225.01
684.96	42967.55
685.09	43203.95
685.23	42534.56
685.37	42836.48
685.50	42667.97
685.64	42953.51
685.78	42838.83
685.91	42160.07
686.05	42080.49
686.19	41223.86
686.32	41460.25
686.46	41001.50
686.60	40919.59
686.73	40907.88
686.87	40931.29
687.01	40828.30
687.14	40514.67
687.28	40711.28
687.42	40690.21
687.55	40187.00
687.69	40545.10
687.82	39896.77
687.96	39821.87
688.10	39742.30
688.23	40065.29
688.37	39421.64
688.50	39072.90
688.64	39035.45
688.78	38850.55
688.91	38749.91
689.05	38820.13
689.18	38455.00
689.32	37640.50
689.46	37759.86
689.59	37677.94
689.73	37736.46
689.86	37429.85
690.00	37294.10
690.13	37429.85
690.27	37434.53
690.41	37769.22
690.54	37303.46
690.68	36847.05
690.81	36816.63
690.95	36737.05
691.08	36418.74
691.22	36182.34
691.35	35552.74
691.49	36369.58
691.62	35880.41
691.76	36067.66
691.89	35669.76
692.03	35744.66
692.16	35372.52
692.30	35512.95
692.43	35232.08
692.57	35028.46
692.70	34927.81
692.84	34494.82
692.97	34494.82
693.11	34408.22
693.24	33902.66
693.38	34293.53
693.51	33853.51
693.65	33738.82
693.78	33488.38
693.92	33670.95
694.05	33205.18
694.19	32811.97
694.32	33008.58
694.45	32926.66
694.59	32893.89
694.72	32802.61
694.86	32299.39
694.99	32161.30
695.13	31985.76
695.26	31908.52
695.39	31997.46
695.53	32294.71
695.66	31704.90
695.80	31496.59
695.93	31374.88
696.07	30808.47
696.20	31009.76
696.33	30937.20
696.47	30778.04
696.60	30637.61
696.73	30494.84
696.87	30876.35
697.00	30799.11
697.14	30415.26
697.27	29881.62
697.40	29558.63
697.54	29755.23
697.67	29493.09
697.80	29287.12
697.94	29390.11
698.07	29076.48
698.21	28985.19
698.34	29277.76
698.47	28971.15
698.61	28268.99
698.74	28767.52
698.87	28594.32
699.01	27960.04
699.14	28259.63
699.27	28175.37
699.40	27878.12
699.54	28130.90
699.67	27447.46
699.80	27623.00
699.94	27660.45
700.07	27555.13
700.20	27171.28
700.34	27014.46
700.47	26876.37
700.60	26302.94
700.73	26356.77
700.87	26302.94
701.00	25816.11
701.13	25781.00
701.26	26204.64
701.40	26120.38
701.53	25982.29
701.66	25783.34
701.79	25504.82
701.93	25493.12
702.06	25046.07
702.19	25223.95
702.32	25247.36
702.46	24847.13
702.59	24683.29
702.72	24823.72
702.85	24669.25
702.99	24603.71
703.12	24355.61
703.25	23917.93
703.38	24222.20
703.51	23826.65
703.65	23585.58
703.78	23342.16
703.91	23545.79
704.04	23456.85
704.17	23365.57
704.31	23103.43
704.44	22244.45
704.57	22920.87
704.70	22878.74
704.83	22565.10
704.96	22445.74
705.10	22427.01
705.23	22494.89
>>>>>End Processed Spectral Data<<<<<
