SpectraSuite Data File
++++++++++++++++++++++++++++++++++++
Date: Fri Oct 25 11:25:42 EDT 2013
User: price-jones
Dark Spectrum Present: No
Reference Spectrum Present: No
Number of Sampled Component Spectra: 1
Spectrometers: USB2+H05261
Integration Time (usec): 100000 (USB2+H05261)
Spectra Averaged: 1 (USB2+H05261)
Boxcar Smoothing: 0 (USB2+H05261)
Correct for Electrical Dark: No (USB2+H05261)
Strobe/Lamp Enabled: No (USB2+H05261)
Correct for Detector Non-linearity: No (USB2+H05261)
Correct for Stray Light: No (USB2+H05261)
Number of Pixels in Processed Spectrum: 2048
>>>>>Begin Processed Spectral Data<<<<<
365.73	168.52
365.92	168.52
366.12	168.52
366.32	191.92
366.52	173.20
366.72	133.41
366.91	140.43
367.11	98.30
367.31	121.71
367.51	124.05
367.70	147.45
367.90	201.29
368.10	107.66
368.30	114.69
368.49	140.43
368.69	138.09
368.89	147.45
369.09	187.24
369.28	220.01
369.48	187.24
369.68	152.13
369.87	280.86
370.07	301.93
370.27	198.95
370.47	290.23
370.66	573.43
370.86	622.58
371.06	674.07
371.25	643.65
371.45	739.61
371.65	678.76
371.84	678.76
372.04	669.39
372.24	711.52
372.44	732.59
372.63	678.76
372.83	716.20
373.03	732.59
373.22	737.27
373.42	753.65
373.62	760.67
373.81	807.48
374.01	842.59
374.21	741.95
374.40	739.61
374.60	849.61
374.79	807.48
374.99	873.02
375.19	746.63
375.38	786.42
375.58	866.00
375.78	894.08
375.97	807.48
376.17	985.37
376.37	898.77
376.56	910.47
376.76	819.19
376.95	884.72
377.15	858.98
377.35	861.32
377.54	894.08
377.74	851.96
377.93	917.49
378.13	851.96
378.33	968.98
378.52	999.41
378.72	924.51
378.91	973.66
379.11	950.26
379.31	1001.75
379.50	936.21
379.70	933.87
379.89	1032.18
380.09	985.37
380.28	924.51
380.48	943.24
380.68	978.34
380.87	1053.24
381.07	954.94
381.26	987.71
381.46	994.73
381.65	1053.24
381.85	1071.97
382.04	1116.44
382.24	1053.24
382.43	1041.54
382.63	985.37
382.83	1081.33
383.02	1039.20
383.22	1153.88
383.41	1083.67
383.61	1114.10
383.80	1060.26
384.00	1160.91
384.19	1167.93
384.39	1088.35
384.58	1102.39
384.78	1144.52
384.97	1149.20
385.17	1177.29
385.36	1109.41
385.56	1235.80
385.75	1102.39
385.95	1188.99
386.14	1259.21
386.34	1198.35
386.53	1198.35
386.72	1156.22
386.92	1294.32
387.11	1270.91
387.31	1226.44
387.50	1186.65
387.70	1226.44
387.89	1291.98
388.09	1306.02
388.28	1266.23
388.48	1217.08
388.67	1315.38
388.86	1275.59
389.06	1282.61
389.25	1451.13
389.45	1352.83
389.64	1273.25
389.84	1313.04
390.03	1287.29
390.22	1416.02
390.42	1331.76
390.61	1411.34
390.81	1343.47
391.00	1441.77
391.19	1453.47
391.39	1420.71
391.58	1378.58
391.78	1401.98
391.97	1528.37
392.16	1511.99
392.36	1617.31
392.55	1418.36
392.75	1500.28
392.94	1519.01
393.13	1511.99
393.33	1530.71
393.52	1558.80
393.71	1551.78
393.91	1458.15
394.10	1526.03
394.29	1612.63
394.49	1547.09
394.68	1654.76
394.88	1605.61
395.07	1596.25
395.26	1643.06
395.46	1699.23
395.65	1699.23
395.84	1769.44
396.04	1750.72
396.23	1694.55
396.42	1715.61
396.62	1912.22
396.81	1788.17
397.00	1785.83
397.19	1788.17
397.39	1764.76
397.58	1853.70
397.77	1804.55
397.97	1713.27
398.16	1802.21
398.35	1923.92
398.55	1776.47
398.74	1872.43
398.93	1956.69
399.12	1912.22
399.32	1902.86
399.51	1865.41
399.70	2005.84
399.90	1942.64
400.09	1940.30
400.28	1987.11
400.47	2052.65
400.67	2090.10
400.86	2083.08
401.05	1994.14
401.24	2031.58
401.44	2087.76
401.63	2115.84
401.82	2141.59
402.01	2125.21
402.21	2108.82
402.40	2141.59
402.59	2146.27
402.78	2092.44
402.97	2125.21
403.17	2293.72
403.36	2279.68
403.55	2277.34
403.74	2338.20
403.93	2317.13
404.13	2382.67
404.32	2382.67
404.51	2312.45
404.70	2445.86
404.89	2415.43
405.09	2380.32
405.28	2548.84
405.47	2490.33
405.66	2579.27
405.85	2537.14
406.05	2452.88
406.24	2555.86
406.43	2520.76
406.62	2605.02
406.81	2567.57
407.00	2565.23
407.20	2555.86
407.39	2668.21
407.58	2661.19
407.77	2665.87
407.96	2757.15
408.15	2750.13
408.34	2733.75
408.54	2829.71
408.73	2789.92
408.92	2878.86
409.11	2794.60
409.30	2813.32
409.49	2855.45
409.68	2974.82
409.87	3028.65
410.07	2946.73
410.26	2986.52
410.45	2885.88
410.64	3045.04
410.83	3042.70
411.02	3056.74
411.21	3068.44
411.40	3279.09
411.59	3091.85
411.78	3155.04
411.98	3157.38
412.17	3157.38
412.36	3229.94
412.55	3248.66
412.74	3473.36
412.93	3365.69
413.12	3391.44
413.31	3571.66
413.50	3475.70
413.69	3506.12
413.88	3494.42
414.07	3578.68
414.26	3588.04
414.45	3672.30
414.64	3695.71
414.83	3744.86
415.02	3583.36
415.22	3845.50
415.41	3908.69
415.60	3749.54
415.79	3873.59
415.98	3976.57
416.17	3995.29
416.36	3882.95
416.55	4198.92
416.74	4053.81
416.93	4170.83
417.12	4163.81
417.31	4180.20
417.50	4259.78
417.69	4215.30
417.88	4231.69
418.07	4255.09
418.26	4292.54
418.45	4341.69
418.64	4468.08
418.83	4505.53
419.02	4440.00
419.21	4404.89
419.39	4458.72
419.58	4484.47
419.77	4524.26
419.96	4482.13
420.15	4636.60
420.34	4454.04
420.53	4550.00
420.72	4739.58
420.91	4706.82
421.10	4711.50
421.29	4643.62
421.48	4510.21
421.67	4718.52
421.86	4678.73
422.05	4737.24
422.24	4753.63
422.43	4980.66
422.61	4915.12
422.80	4830.87
422.99	4842.57
423.18	4891.72
423.37	5004.07
423.56	4781.71
423.75	4814.48
423.94	4755.97
424.13	4475.10
424.32	4760.65
424.50	4880.02
424.69	5088.32
424.88	5097.69
425.07	4931.51
425.26	4802.78
425.45	5020.45
425.64	4901.08
425.83	4821.50
426.01	4880.02
426.20	4975.98
426.39	5050.88
426.58	4983.00
426.77	5062.58
426.96	5083.64
427.15	5053.22
427.33	5064.92
427.52	5013.43
427.71	5102.37
427.90	5224.08
428.09	5327.06
428.28	5348.12
428.46	5338.76
428.65	5130.45
428.84	5385.57
429.03	5474.51
429.22	5387.91
429.40	5462.81
429.59	5570.48
429.78	5203.01
429.97	5282.59
430.16	5481.53
430.34	5638.35
430.53	5455.79
430.72	5713.25
430.91	5544.73
431.10	5593.88
431.28	5729.63
431.47	5734.31
431.66	5884.11
431.85	5837.30
432.03	5760.06
432.22	5834.96
432.41	5603.24
432.60	5856.02
432.79	5966.03
432.97	5951.98
433.16	5951.98
433.35	5944.96
433.54	5928.58
433.72	6012.84
433.91	5980.07
434.10	6033.90
434.28	5982.41
434.47	6097.10
434.66	6176.67
434.85	6345.19
435.03	6359.24
435.22	6200.08
435.41	6413.07
435.59	6324.13
435.78	6310.08
435.97	6293.70
436.16	6450.52
436.34	6359.24
436.53	6312.42
436.72	6595.63
436.90	6448.18
437.09	6581.59
437.28	6380.30
437.46	6551.16
437.65	6651.80
437.84	6731.38
438.02	6682.23
438.21	6890.54
438.40	6555.84
438.58	6972.46
438.77	7075.44
438.96	6942.03
439.14	6927.99
439.33	7091.82
439.52	7117.57
439.70	7225.23
439.89	7234.60
440.08	7241.62
440.26	7183.10
440.45	7183.10
440.63	7412.48
440.82	7531.84
441.01	7478.01
441.19	7576.31
441.38	7583.34
441.57	7702.70
441.75	7772.92
441.94	7962.50
442.12	7829.09
442.31	7908.67
442.50	8037.40
442.68	7929.74
442.87	7903.99
443.05	7981.23
443.24	8241.03
443.43	8049.10
443.61	8226.98
443.80	8311.24
443.98	7999.95
444.17	7754.19
444.35	8234.00
444.54	8372.10
444.73	8198.90
444.91	8320.60
445.10	8301.88
445.28	8175.49
445.47	8248.05
445.65	8315.92
445.84	8386.14
446.02	8404.86
446.21	8318.26
446.39	8297.20
446.58	8486.78
446.77	8348.69
446.95	8222.30
447.14	8376.78
447.32	8664.66
447.51	8362.73
447.69	8315.92
447.88	8629.56
448.06	8404.86
448.25	8339.33
448.43	8435.29
448.62	8461.04
448.80	8594.45
448.99	8549.98
449.17	8643.60
449.36	8493.80
449.54	8931.48
449.73	8795.73
449.91	8842.54
450.10	8894.04
450.28	8936.17
450.46	8947.87
450.65	8966.59
450.83	8952.55
451.02	8840.20
451.20	9121.07
451.39	9083.62
451.57	8966.59
451.76	8985.32
451.94	9160.86
452.13	9289.59
452.31	9345.76
452.49	9025.11
452.68	9275.54
452.86	9439.38
453.05	9383.21
453.23	9355.12
453.42	9495.55
453.60	9249.80
453.78	9427.68
453.97	9214.69
454.15	9493.21
454.34	9179.58
454.52	9607.90
454.70	9558.75
454.89	9584.49
455.07	9720.24
455.26	9795.14
455.44	9687.48
455.62	9872.38
455.81	9841.95
455.99	9891.10
456.17	10064.30
456.36	10057.28
456.54	9977.70
456.73	10005.79
456.91	10279.63
457.09	10366.23
457.28	10401.34
457.46	10473.90
457.64	10286.65
457.83	10317.08
458.01	10546.45
458.19	10794.55
458.38	10340.49
458.56	10621.35
458.74	10663.48
458.93	10658.80
459.11	10642.42
459.29	10457.51
459.48	10785.19
459.66	10729.02
459.84	10888.17
460.03	11012.22
460.21	10778.17
460.39	10958.39
460.57	10740.72
460.76	11087.12
460.94	11028.60
461.12	11232.23
461.31	11194.78
461.49	11171.38
461.67	11213.51
461.85	11276.70
462.04	11337.56
462.22	11637.14
462.40	11506.07
462.59	11290.74
462.77	11461.60
462.95	11475.65
463.13	11321.17
463.32	11346.92
463.50	11534.16
463.68	11529.48
463.86	11751.83
464.05	11473.31
464.23	11646.51
464.41	11744.81
464.59	11590.33
464.78	12042.06
464.96	11857.15
465.14	11859.49
465.32	11758.85
465.50	12123.98
465.69	12006.95
465.87	12032.69
466.05	11974.18
466.23	11957.80
466.41	11929.71
466.60	12383.77
466.78	12091.21
466.96	12168.45
467.14	12248.02
467.32	12355.69
467.51	12376.75
467.69	12042.06
467.87	12287.81
468.05	12297.17
468.23	12255.04
468.41	12355.69
468.60	12409.52
468.78	12592.08
468.96	12320.58
469.14	12830.82
469.32	12833.16
469.50	12449.31
469.69	12800.39
469.87	12894.01
470.05	12650.60
470.23	12994.65
470.41	12992.31
470.59	13172.54
470.77	12996.99
470.95	12975.93
471.14	13378.50
471.32	13078.91
471.50	13535.32
471.68	13504.89
471.86	13568.09
472.04	13891.08
472.22	13816.18
472.40	13706.18
472.58	13717.88
472.77	13839.59
472.95	14094.71
473.13	14492.60
473.31	13996.40
473.49	13977.68
473.67	14036.19
473.85	14080.66
474.03	14462.17
474.21	14494.94
474.39	14684.52
474.57	14640.05
474.75	14801.55
474.93	14885.81
475.12	14721.97
475.30	14743.03
475.48	15030.92
475.66	15267.31
475.84	15342.21
476.02	15236.89
476.20	15208.80
476.38	15484.98
476.56	15957.77
476.74	15929.69
476.92	15831.38
477.10	15688.61
477.28	15981.18
477.46	16128.63
477.64	16271.40
477.82	16365.03
478.00	16718.45
478.18	16624.83
478.36	16748.87
478.54	16755.90
478.72	17128.04
478.90	17289.54
479.08	17362.09
479.26	17664.02
479.44	17432.31
479.62	17603.17
479.80	18019.78
479.98	17970.63
480.16	18595.56
480.34	18326.39
480.52	18530.02
480.70	18661.09
480.88	18480.87
481.06	18789.82
481.24	18820.25
481.41	18785.14
481.59	18991.11
481.77	19178.35
481.95	19260.27
482.13	19548.15
482.31	19435.81
482.49	20177.76
482.67	19887.53
482.85	20009.24
483.03	20299.47
483.21	20428.20
483.39	20655.23
483.57	20624.80
483.74	20996.95
483.92	21109.29
484.10	21287.17
484.28	21507.18
484.46	21687.40
484.64	22309.99
484.82	21888.69
485.00	22319.35
485.18	22618.94
485.35	22764.05
485.53	22707.88
485.71	22616.60
485.89	23449.83
486.07	23311.74
486.25	23431.10
486.43	23452.17
486.61	23814.95
486.78	23850.06
486.96	24023.26
487.14	24460.94
487.32	24360.30
487.50	24723.08
487.68	24762.87
487.85	24978.20
488.03	25174.80
488.21	25568.01
488.39	25542.27
488.57	26176.55
488.75	26192.94
488.92	26370.82
489.10	26691.47
489.28	27023.83
489.46	26934.88
489.64	26710.19
489.81	27213.41
489.99	27477.89
490.17	27644.07
490.35	27967.06
490.53	27981.10
490.70	28210.48
490.88	28053.66
491.06	28772.21
491.24	28526.45
491.41	28755.82
491.59	29015.62
491.77	29034.35
491.95	29434.58
492.13	29280.10
492.30	29919.07
492.48	29556.28
492.66	29982.26
492.84	30265.47
493.01	30752.30
493.19	30412.92
493.37	30588.46
493.54	30536.97
493.72	31042.53
493.90	30991.03
494.08	31653.40
494.25	31850.01
494.43	31662.77
494.61	31707.24
494.79	32320.46
494.96	32154.28
495.14	31997.46
495.32	32793.25
495.49	32669.20
495.67	32568.55
495.85	33282.42
496.02	33362.00
496.20	33748.18
496.38	33418.17
496.55	33811.38
496.73	34473.75
496.91	34410.56
497.09	34146.08
497.26	34801.43
497.44	34628.23
497.62	35309.32
497.79	35529.33
497.97	35442.73
498.14	35906.16
498.32	35744.66
498.50	35931.90
498.67	36299.37
498.85	36196.38
499.03	36198.73
499.20	36587.25
499.38	36297.03
499.56	36889.18
499.73	36875.14
499.91	36849.39
500.08	37511.77
500.26	36847.05
500.44	37441.55
500.61	37415.80
500.79	37202.82
500.97	38206.90
501.14	38253.72
501.32	38412.87
501.49	38368.40
501.67	38202.22
501.84	38712.46
502.02	38658.63
502.20	38373.08
502.37	39063.54
502.55	39063.54
502.72	39325.68
502.90	39641.65
503.07	39138.44
503.25	39218.02
503.43	38883.32
503.60	40002.10
503.78	39983.37
503.95	39454.41
504.13	40065.29
504.30	40287.64
504.48	40133.17
504.65	40350.84
504.83	40779.15
505.01	41170.02
505.18	40734.68
505.36	41354.93
505.53	41001.50
505.71	40964.06
505.88	41387.69
506.06	41453.23
506.23	41462.59
506.41	41588.98
506.58	41949.42
506.76	42258.37
506.93	41867.50
507.11	42068.79
507.28	42473.70
507.46	42230.29
507.63	42557.96
507.81	42787.33
507.98	42843.51
508.16	42859.89
508.33	43070.54
508.50	42752.23
508.68	43292.89
508.85	43615.88
509.03	43566.73
509.20	43728.23
509.38	44341.45
509.55	44140.16
509.73	44402.30
509.90	44311.02
510.08	44435.07
510.25	44509.97
510.42	44671.46
510.60	44844.66
510.77	44612.95
510.95	45317.45
511.12	44498.26
511.30	44769.77
511.47	45095.10
511.64	45495.33
511.82	45418.10
511.99	45209.79
512.17	45399.37
512.34	45518.74
512.51	46431.55
512.69	45865.14
512.86	46124.94
513.04	46178.77
513.21	46501.76
513.38	46471.34
513.56	46747.52
513.73	46485.38
513.90	46639.86
514.08	46351.97
514.25	46749.86
514.43	47114.98
514.60	46993.28
514.77	47014.34
514.95	47224.99
515.12	47054.13
515.29	47124.35
515.47	47838.21
515.64	47571.39
515.81	47569.05
515.99	47819.49
516.16	47990.34
516.33	47861.61
516.51	48137.80
516.68	48397.60
516.85	48219.72
517.03	48399.94
517.20	48575.48
517.37	48364.83
517.54	48610.59
517.72	48507.60
517.89	48535.69
518.06	49015.50
518.24	48800.17
518.41	49162.95
518.58	49036.56
518.75	49120.82
518.93	49226.15
519.10	48917.20
519.27	49200.40
519.45	49399.35
519.62	49860.43
519.79	49668.51
519.96	49708.30
520.14	49949.37
520.31	49595.95
520.48	50075.76
520.65	50220.87
520.83	50204.49
521.00	50263.00
521.17	50202.15
521.34	50513.44
521.52	50614.08
521.69	50590.68
521.86	50923.04
522.03	51239.01
522.20	51096.24
522.38	51250.71
522.55	51299.86
522.72	50944.10
522.89	51091.55
523.07	51271.78
523.24	51187.52
523.41	51604.13
523.58	51150.07
523.75	51679.03
523.92	51414.55
524.10	51805.42
524.27	51892.02
524.44	51772.65
524.61	51826.48
524.78	51793.71
524.96	51856.91
525.13	52041.81
525.30	52381.19
525.47	51936.49
525.64	52231.40
525.81	52261.82
525.98	52364.81
526.16	52231.40
526.33	52203.31
526.50	52924.19
526.67	52629.29
526.84	52664.39
527.01	52853.98
527.18	52713.55
527.36	52956.96
527.53	52680.78
527.70	53064.63
527.87	52940.58
528.04	52987.39
528.21	53329.11
528.38	52907.81
528.55	53226.12
528.72	53478.90
528.89	53064.63
529.07	52952.28
529.24	53375.92
529.41	53439.11
529.58	53556.14
529.75	53406.34
529.92	53570.18
530.09	53701.25
530.26	53708.27
530.43	53441.45
530.60	53490.60
530.77	53649.76
530.94	53949.35
531.11	53897.86
531.28	53736.36
531.46	54227.87
531.63	54241.92
531.80	53949.35
531.97	54113.19
532.14	54251.28
532.31	54003.18
532.48	54335.54
532.65	54274.68
532.82	54054.67
532.99	54382.35
533.16	54473.63
533.33	54614.06
533.50	54560.23
533.67	54534.48
533.84	54536.82
534.01	54553.21
534.18	54841.09
534.35	54873.86
534.52	55028.34
534.69	55166.43
534.86	54850.45
535.03	54873.86
535.20	55000.25
535.37	54986.21
535.54	55140.68
535.71	54899.61
535.88	55360.69
536.05	55117.28
536.22	55466.02
536.38	55435.59
536.55	55381.76
536.72	55248.35
536.89	55210.90
537.06	55145.36
537.23	55332.60
537.40	55332.60
537.57	55643.90
537.74	55470.70
537.91	55657.94
538.08	55510.49
538.25	55573.68
538.42	55461.33
538.59	56034.77
538.75	55824.12
538.92	55938.80
539.09	55922.42
539.26	55770.28
539.43	55920.08
539.60	55784.33
539.77	56086.26
539.94	56261.80
540.11	56154.13
540.28	56163.50
540.44	56161.15
540.61	56357.76
540.78	56493.51
540.95	56175.20
541.12	56100.30
541.29	56168.18
541.46	56376.48
541.62	56250.09
541.79	56446.70
541.96	56083.92
542.13	56296.91
542.30	56327.33
542.47	56617.56
542.63	56559.05
542.80	56732.25
542.97	56832.89
543.14	57003.75
543.31	56931.19
543.48	56903.10
543.64	57064.60
543.81	57230.78
543.98	57137.16
544.15	57013.11
544.32	57354.83
544.48	57219.08
544.65	57373.55
544.82	57216.74
544.99	57027.15
545.16	57347.81
545.32	57085.67
545.49	57542.07
545.66	57469.51
545.83	57322.06
546.00	57595.90
546.16	57497.60
546.33	57549.09
546.50	57216.74
546.67	57605.26
546.83	57296.31
547.00	57406.32
547.17	57591.22
547.34	57455.47
547.50	57738.68
547.67	57888.47
547.84	57640.37
548.00	57787.83
548.17	57972.73
548.34	57705.91
548.51	58014.86
548.67	58239.55
548.84	57848.68
549.01	57918.90
549.18	57925.92
549.34	58054.65
549.51	58225.51
549.68	58085.07
549.84	58145.93
550.01	58136.57
550.18	58068.69
550.34	58288.70
550.51	58300.40
550.68	58197.42
550.84	57993.79
551.01	58162.31
551.18	58241.89
551.34	58255.93
551.51	58279.34
551.68	58298.06
551.84	58445.52
552.01	58300.40
552.18	58464.24
552.34	58415.09
552.51	58403.39
552.68	58450.20
552.84	58375.30
553.01	58721.70
553.18	58644.46
553.34	58862.13
553.51	58482.97
553.67	58735.74
553.84	58588.29
554.01	58848.09
554.17	58827.02
554.34	58883.20
554.51	58614.04
554.67	58848.09
554.84	58869.15
555.00	58965.12
555.17	58815.32
555.33	58773.19
555.50	58756.81
555.67	58728.72
555.83	59065.76
556.00	58857.45
556.16	59370.03
556.33	58951.07
556.50	59180.45
556.66	59267.05
556.83	58878.52
556.99	59206.19
557.16	59433.22
557.32	59283.43
557.49	59573.66
557.65	59112.57
557.82	59103.21
557.98	59175.76
558.15	59210.87
558.32	59187.47
558.48	59180.45
558.65	59054.06
558.81	59262.36
558.98	59220.23
559.14	59498.76
559.31	59409.82
559.47	59554.93
559.64	59477.69
559.80	59477.69
559.97	59484.72
560.13	59121.93
560.30	59758.56
560.46	59547.91
560.63	59590.04
560.79	59489.40
560.96	59796.01
561.12	59711.75
561.29	59688.34
561.45	59840.48
561.61	59657.91
561.78	59533.87
561.94	59723.45
562.11	59770.26
562.27	59728.13
562.44	59831.11
562.60	59978.57
562.77	60006.65
562.93	59875.58
563.10	59943.46
563.26	59807.71
563.42	59955.16
563.59	59852.18
563.75	59831.11
563.92	59826.43
564.08	59922.40
564.24	60069.85
564.41	60048.78
564.57	59763.24
564.74	60069.85
564.90	59964.52
565.07	59824.09
565.23	60130.70
565.39	60020.70
565.56	60154.11
565.72	59927.08
565.88	60058.15
566.05	59976.23
566.21	60081.55
566.38	60044.10
566.54	59992.61
566.70	60299.22
566.87	60205.60
567.03	59831.11
567.19	60226.66
567.36	59962.18
567.52	60147.09
567.68	60336.67
567.85	60079.21
568.01	60294.54
568.17	60163.47
568.34	60210.28
568.50	60093.25
568.66	60250.07
568.83	60116.66
568.99	60189.22
569.15	60289.86
569.32	60271.14
569.48	60147.09
569.64	60299.22
569.81	60229.01
569.97	60179.85
570.13	60299.22
570.30	60158.79
570.46	60245.39
570.62	60331.99
570.78	60322.63
570.95	60189.22
571.11	60516.89
571.27	60362.42
571.43	60355.39
571.60	60334.33
571.76	60383.48
571.92	60399.86
572.09	60509.87
572.25	60420.93
572.41	60285.18
572.57	60472.42
572.74	60458.38
572.90	60470.08
573.06	60507.53
573.22	60626.90
573.38	60413.91
573.55	60432.63
573.71	60718.18
573.87	60552.00
574.03	60378.80
574.20	60573.06
574.36	60308.58
574.52	60563.70
574.68	60493.49
574.84	60664.35
575.01	60566.04
575.17	60416.25
575.33	60472.42
575.49	60535.62
575.65	60659.66
575.82	60612.85
575.98	60767.33
576.14	60706.47
576.30	60533.28
576.46	60556.68
576.62	60657.32
576.79	60561.36
576.95	60477.10
577.11	60601.15
577.27	60743.92
577.43	60626.90
577.59	60516.89
577.75	60647.96
577.92	60615.19
578.08	60673.71
578.24	60643.28
578.40	60736.90
578.56	60877.33
578.72	60699.45
578.88	60912.44
579.04	60743.92
579.21	60872.65
579.37	60622.22
579.53	60860.95
579.69	60315.61
579.85	60299.22
580.01	60650.30
580.17	60640.94
580.33	60699.45
580.49	60928.83
580.65	60821.16
580.82	60750.94
580.98	60505.19
581.14	60521.57
581.30	60874.99
581.46	60942.87
581.62	60774.35
581.78	60638.60
581.94	60701.79
582.10	60893.72
582.26	60662.00
582.42	60612.85
582.58	60769.67
582.74	60601.15
582.90	60739.24
583.06	60767.33
583.22	60659.66
583.38	60671.37
583.54	60816.48
583.70	60764.99
583.86	60795.42
584.02	60654.98
584.18	61022.45
584.34	60900.74
584.50	60818.82
584.66	60671.37
584.82	60552.00
584.98	60938.19
585.14	60968.61
585.30	60793.07
585.46	60839.89
585.62	60711.16
585.78	60959.25
585.94	60629.24
586.10	60786.05
586.26	60807.12
586.42	60853.93
586.58	60982.66
586.74	60645.62
586.90	60921.80
587.06	60844.57
587.22	61066.92
587.38	60867.97
587.54	61010.74
587.70	61160.54
587.86	60907.76
588.02	60860.95
588.18	60987.34
588.34	60832.86
588.49	60741.58
588.65	60760.31
588.81	60935.85
588.97	61064.58
589.13	61029.47
589.29	61076.28
589.45	61183.94
589.61	61169.90
589.77	61162.88
589.93	61087.98
590.08	60977.98
590.24	61350.12
590.40	61378.21
590.56	61396.93
590.72	61008.40
590.88	60966.27
591.04	61169.90
591.20	61183.94
591.35	61240.12
591.51	61329.06
591.67	61216.71
591.83	61296.29
591.99	61087.98
592.15	61020.11
592.31	61137.13
592.46	61116.07
592.62	61326.72
592.78	61251.82
592.94	61310.33
593.10	61162.88
593.26	61256.50
593.41	61247.14
593.57	61270.54
593.73	61298.63
593.89	61574.81
594.05	61392.25
594.20	61212.03
594.36	61403.95
594.52	61373.53
594.68	61401.61
594.84	61256.50
594.99	61453.11
595.15	61207.35
595.31	61389.91
595.47	61275.22
595.62	61366.51
595.78	61413.32
595.94	61300.97
596.10	61382.89
596.25	61471.83
596.41	61427.36
596.57	61291.61
596.73	61205.01
596.88	61481.19
597.04	61516.30
597.20	61595.88
597.36	61544.39
597.51	61485.87
597.67	61490.55
597.83	61525.66
597.99	61485.87
598.14	61509.28
598.30	61366.51
598.46	61251.82
598.61	61551.41
598.77	61520.98
598.93	61516.30
599.09	61563.11
599.24	61680.14
599.40	61528.00
599.56	61696.52
599.71	61623.96
599.87	61630.99
600.03	61661.41
600.18	61593.54
600.34	61612.26
600.50	61460.13
600.65	61584.18
600.81	61574.81
600.97	61567.79
601.12	61523.32
601.28	61448.42
601.44	61680.14
601.59	61481.19
601.75	61495.24
601.91	61680.14
602.06	61701.20
602.22	61680.14
602.37	61652.05
602.53	61567.79
602.69	61539.71
602.84	61443.74
603.00	61598.22
603.16	61740.99
603.31	61499.92
603.47	61553.75
603.62	61450.77
603.78	61605.24
603.94	61652.05
604.09	61614.60
604.25	61684.82
604.40	61570.13
604.56	61783.12
604.71	61635.67
604.87	61483.53
605.03	61544.39
605.18	61492.89
605.34	61755.03
605.49	61572.47
605.65	61705.88
605.80	61703.54
605.96	61787.80
606.12	61766.74
606.27	61614.60
606.43	61490.55
606.58	61703.54
606.74	61535.02
606.89	61345.44
607.05	61520.98
607.20	61579.49
607.36	61338.42
607.51	61478.85
607.67	61216.71
607.82	61483.53
607.98	61460.13
608.13	61439.06
608.29	61572.47
608.44	61464.81
608.60	61312.67
608.75	61535.02
608.91	61474.17
609.06	61378.21
609.22	61481.19
609.37	61329.06
609.53	61520.98
609.68	61326.72
609.84	61441.40
609.99	61513.96
610.15	61600.56
610.30	61556.09
610.46	61462.47
610.61	61483.53
610.76	61401.61
610.92	61354.80
611.07	61291.61
611.23	61432.04
611.38	61352.46
611.54	61467.15
611.69	61401.61
611.84	61455.45
612.00	61258.84
612.15	61422.68
612.31	61434.38
612.46	61193.31
612.62	61392.25
612.77	61368.85
612.92	61520.98
613.08	61481.19
613.23	61219.05
613.39	61293.95
613.54	61212.03
613.69	61307.99
613.85	61286.93
614.00	61197.99
614.15	61399.27
614.31	61244.80
614.46	61434.38
614.62	61080.96
614.77	61312.67
614.92	61237.78
615.08	61256.50
615.23	61045.85
615.38	61200.33
615.54	61078.62
615.69	61176.92
615.84	61132.45
616.00	61123.09
616.15	61263.52
616.30	61073.94
616.46	61141.81
616.61	61029.47
616.76	61097.34
616.92	61015.43
617.07	61120.75
617.22	60956.91
617.37	61003.72
617.53	61219.05
617.68	61057.56
617.83	60975.64
617.99	61099.68
618.14	61085.64
618.29	61130.11
618.45	61022.45
618.60	60874.99
618.75	60746.26
618.90	60811.80
619.06	61059.90
619.21	60926.49
619.36	61113.73
619.51	60966.27
619.67	60736.90
619.82	60968.61
619.97	60938.19
620.12	60903.08
620.28	60844.57
620.43	60940.53
620.58	60884.36
620.73	60779.03
620.89	60896.06
621.04	61064.58
621.19	60898.40
621.34	60715.84
621.49	60743.92
621.65	60680.73
621.80	60746.26
621.95	60673.71
622.10	60729.88
622.25	60809.46
622.41	60767.33
622.56	60479.44
622.71	60907.76
622.86	60554.34
623.01	60692.43
623.16	60521.57
623.32	60659.66
623.47	60748.60
623.62	60629.24
623.77	60587.11
623.92	60851.59
624.07	60647.96
624.23	60596.47
624.38	60512.21
624.53	60322.63
624.68	60371.78
624.83	60587.11
624.98	60715.84
625.13	60280.50
625.29	60554.34
625.44	60472.42
625.59	60420.93
625.74	60376.46
625.89	60257.09
626.04	60257.09
626.19	60355.39
626.34	60229.01
626.49	60463.06
626.65	60196.24
626.80	60378.80
626.95	60168.15
627.10	60121.34
627.25	60203.26
627.40	59976.23
627.55	60231.35
627.70	60299.22
627.85	60317.95
628.00	60081.55
628.15	60395.18
628.30	59997.29
628.45	60280.50
628.60	59917.71
628.76	60294.54
628.91	60381.14
629.06	60114.32
629.21	60100.28
629.36	60083.89
629.51	59934.10
629.66	59997.29
629.81	59852.18
629.96	59770.26
630.11	59962.18
630.26	60121.34
630.41	59985.59
630.56	59959.84
630.71	59973.89
630.86	60107.30
631.01	59861.54
631.16	59817.07
631.31	59786.64
631.46	59695.36
631.61	59662.60
631.76	59718.77
631.91	59943.46
632.06	59962.18
632.21	60051.12
632.36	59711.75
632.51	59559.61
632.66	59760.90
632.81	59566.63
632.96	59702.38
633.10	59753.88
633.25	59803.03
633.40	59709.41
633.55	59803.03
633.70	59749.20
633.85	59693.02
634.00	59341.94
634.15	59484.72
634.30	59515.14
634.45	59341.94
634.60	59760.90
634.75	59561.95
634.90	59384.07
635.05	59428.54
635.19	59353.65
635.34	59711.75
635.49	59505.78
635.64	59545.57
635.79	59409.82
635.94	59470.67
636.09	59454.29
636.24	59215.55
636.39	59295.13
636.53	59419.18
636.68	59419.18
636.83	59592.38
636.98	59370.03
637.13	59274.07
637.28	59398.12
637.43	59189.81
637.57	59348.96
637.72	59250.66
637.87	59334.92
638.02	59238.96
638.17	59194.49
638.32	59215.55
638.46	59114.91
638.61	59227.26
638.76	59245.98
638.91	59032.99
639.06	59119.59
639.20	58974.48
639.35	59047.04
639.50	58932.35
639.65	59276.41
639.80	59110.23
639.94	59047.04
640.09	58922.99
640.24	58901.92
640.39	58890.22
640.54	58841.07
640.68	58986.18
640.83	59140.66
640.98	58997.88
641.13	58876.18
641.27	59070.44
641.42	58728.72
641.57	58920.65
641.72	58770.85
641.86	58735.74
642.01	58873.84
642.16	58686.59
642.31	58511.05
642.45	58719.36
642.60	58834.05
642.75	59054.06
642.90	58871.49
643.04	58749.79
643.19	58536.80
643.34	58630.42
643.48	58588.29
643.63	58590.63
643.78	58466.58
643.93	58543.82
644.07	58791.92
644.22	58518.07
644.37	58431.47
644.51	58356.58
644.66	58623.40
644.81	58438.50
644.95	58410.41
645.10	58595.31
645.25	58452.54
645.39	58342.53
645.54	58375.30
645.69	58529.78
645.83	58471.26
645.98	58328.49
646.13	58335.51
646.27	58216.14
646.42	58253.59
646.57	58452.54
646.71	58291.04
646.86	58511.05
647.00	58412.75
647.15	58206.78
647.30	58337.85
647.44	58204.44
647.59	58253.59
647.74	58319.13
647.88	58255.93
648.03	58340.19
648.17	58120.18
648.32	58033.58
648.47	58286.36
648.61	58204.44
648.76	58131.89
648.90	58078.05
649.05	58354.24
649.20	58028.90
649.34	58169.33
649.49	58092.10
649.63	58152.95
649.78	58204.44
649.92	57996.13
650.07	58202.10
650.21	57785.49
650.36	58035.92
650.51	57991.45
650.65	58064.01
650.80	58019.54
650.94	57949.32
651.09	57663.78
651.23	57626.33
651.38	57808.89
651.52	57703.57
651.67	57579.52
651.81	57874.43
651.96	57773.78
652.10	57808.89
652.25	57661.44
652.39	57457.81
652.54	57748.04
652.68	57457.81
652.83	57565.48
652.97	57602.92
653.12	57638.03
653.26	57748.04
653.41	57785.49
653.55	57560.79
653.70	57687.18
653.84	57530.37
653.99	57450.79
654.13	57277.59
654.27	57546.75
654.42	57450.79
654.56	57158.22
654.71	57565.48
654.85	57460.15
655.00	57682.50
655.14	57284.61
655.29	57158.22
655.43	57453.13
655.57	57389.94
655.72	57324.40
655.86	57228.44
656.01	57378.23
656.15	57319.72
656.30	57488.24
656.44	57488.24
656.58	57233.12
656.73	57212.06
656.87	57389.94
657.01	57352.49
657.16	57394.62
657.30	56853.95
657.45	57130.14
657.59	56987.36
657.73	57193.33
657.88	56919.49
658.02	57003.75
658.16	56949.92
658.31	56975.66
658.45	57228.44
658.60	56891.40
658.74	57069.28
658.88	56879.70
659.03	56622.24
659.17	56781.40
659.31	56900.76
659.46	56823.53
659.60	56711.18
659.74	56889.06
659.89	56566.07
660.03	56512.23
660.17	56928.85
660.32	56353.08
660.46	56804.80
660.60	56364.78
660.74	56858.63
660.89	56800.12
661.03	56193.92
661.17	56381.16
661.32	56186.90
661.46	56268.82
661.60	56416.27
661.74	56360.10
661.89	56037.11
662.03	56191.58
662.17	56191.58
662.31	56207.97
662.46	56247.75
662.60	56179.88
662.74	56130.73
662.88	56013.70
663.03	55793.69
663.17	55985.61
663.31	55983.27
663.45	55770.28
663.60	55372.39
663.74	55419.20
663.88	55405.16
664.02	55683.69
664.17	55817.10
664.31	55407.50
664.45	55402.82
664.59	55737.52
664.73	55557.30
664.88	55554.96
665.02	55061.10
665.16	55526.87
665.30	55309.20
665.44	55227.28
665.59	55044.72
665.73	55262.39
665.87	54974.50
666.01	55014.29
666.15	55025.99
666.29	54920.67
666.44	55215.58
666.58	54841.09
666.72	54827.05
666.86	54639.81
667.00	54536.82
667.14	54550.87
667.28	54623.42
667.43	54433.84
667.57	54651.51
667.71	54630.44
667.85	54504.06
667.99	54475.97
668.13	54274.68
668.27	54136.59
668.41	54143.61
668.56	53986.80
668.70	54040.63
668.84	53825.30
668.98	53928.28
669.12	54026.59
669.26	54202.13
669.40	54241.92
669.54	54035.95
669.68	54035.95
669.82	53954.03
669.96	53970.41
670.10	53846.36
670.25	53970.41
670.39	53764.45
670.53	53647.42
670.67	53584.22
670.81	53738.70
670.95	53605.29
671.09	53511.67
671.23	53319.74
671.37	53254.21
671.51	52959.30
671.65	53436.77
671.79	53146.54
671.93	52886.74
672.07	52865.68
672.21	52987.39
672.35	52633.97
672.49	52729.93
672.63	52619.92
672.77	52516.94
672.91	52633.97
673.05	52397.57
673.19	52568.43
673.33	52280.55
673.47	52313.31
673.61	52119.05
673.75	52357.78
673.89	51782.01
674.03	51962.23
674.17	51622.86
674.31	51683.71
674.45	51477.74
674.59	51667.33
674.73	51711.80
674.87	51461.36
675.01	51358.38
675.15	51295.18
675.29	51330.29
675.43	51370.08
675.56	51243.69
675.70	51157.09
675.84	50789.62
675.98	49659.15
676.12	50651.53
676.26	50564.93
676.40	50473.65
676.54	50820.05
676.68	50459.61
676.82	50042.99
676.96	50291.09
677.10	50031.29
677.23	49825.32
677.37	49799.58
677.51	49588.93
677.65	49315.09
677.79	48226.74
677.93	48891.45
678.07	48849.32
678.21	48507.60
678.34	48687.82
678.48	48516.96
678.62	48774.42
678.76	48708.89
678.90	48278.23
679.04	48402.28
679.18	48413.98
679.31	47643.94
679.45	47618.20
679.59	48296.95
679.73	48264.19
679.87	47683.73
680.00	47660.33
680.14	46983.91
680.28	47166.48
680.42	46782.63
680.56	46497.08
680.70	46302.82
680.83	46195.15
680.97	46714.75
681.11	46604.75
681.25	46344.95
681.39	46246.65
681.52	46382.40
681.66	45729.39
681.80	45404.05
681.94	45497.67
682.07	45432.14
682.21	45109.14
682.35	45188.72
682.49	44919.56
682.62	44858.71
682.76	44966.37
682.90	45336.18
683.04	44538.05
683.17	44554.44
683.31	44350.81
683.45	44123.78
683.59	44362.51
683.72	43725.89
683.86	44254.85
684.00	43854.62
684.13	43814.83
684.27	43798.44
684.41	43688.44
684.55	43789.08
684.68	43215.65
684.82	42958.19
684.96	42703.07
685.09	42731.16
685.23	42209.22
685.37	42443.27
685.50	42181.13
685.64	42036.02
685.78	41888.57
685.91	41811.33
686.05	41413.44
686.19	40966.40
686.32	41511.74
686.46	40652.76
686.60	40472.54
686.73	40783.83
686.87	40549.78
687.01	40631.70
687.14	40573.19
687.28	39969.33
687.42	39995.07
687.55	40236.15
687.69	40004.44
687.82	39519.95
687.96	39468.45
688.10	39208.65
688.23	39295.25
688.37	39014.39
688.50	38998.01
688.64	38883.32
688.78	38660.97
688.91	38075.84
689.05	38895.02
689.18	38494.79
689.32	37783.27
689.46	37280.05
689.59	37233.24
689.73	37504.74
689.86	36769.82
690.00	37373.67
690.13	37139.62
690.27	36957.06
690.41	37460.27
690.54	36503.00
690.68	36594.28
690.81	36587.25
690.95	35952.97
691.08	36198.73
691.22	35936.59
691.35	36004.46
691.49	36088.72
691.62	35559.76
691.76	35438.05
691.89	35356.13
692.03	35257.83
692.16	35026.12
692.30	35166.55
692.43	35119.74
692.57	34345.02
692.70	34412.90
692.84	34429.28
692.97	34728.87
693.11	34230.33
693.24	33769.25
693.38	33638.18
693.51	33942.45
693.65	33165.39
693.78	33298.80
693.92	33467.32
694.05	33141.99
694.19	33081.13
694.32	32603.66
694.45	33053.05
694.59	32439.82
694.72	32496.00
694.86	32446.85
694.99	31807.88
695.13	31868.73
695.26	31604.25
695.39	31318.71
695.53	31931.93
695.66	31681.49
695.80	31316.37
695.93	31278.92
696.07	30904.43
696.20	30099.29
696.33	30560.37
696.47	30494.84
696.60	30412.92
696.73	29855.87
696.87	30450.37
697.00	29937.79
697.14	29982.26
697.27	30066.52
697.40	29504.79
697.54	29422.87
697.67	29703.74
697.80	29261.38
697.94	29268.40
698.07	29200.52
698.21	28542.83
698.34	28837.74
698.47	28315.80
698.61	28371.97
698.74	28334.53
698.87	28428.15
699.01	27899.19
699.14	28034.94
699.27	27857.06
699.40	27871.10
699.54	27960.04
699.67	27613.64
699.80	27515.34
699.94	27311.71
700.07	27145.53
700.20	26780.41
700.34	26600.19
700.47	26192.94
700.60	26052.50
700.73	26478.48
700.87	25933.14
701.00	25635.89
701.13	25668.66
701.26	25841.85
701.40	25862.92
701.53	25432.26
701.66	25851.22
701.79	25287.15
701.93	25125.65
702.06	24575.62
702.19	24451.58
702.32	25010.96
702.46	24889.26
702.59	24102.84
702.72	24367.32
702.85	24517.11
702.99	24100.50
703.12	23824.31
703.25	24133.26
703.38	23646.43
703.51	23812.61
703.65	23407.70
703.78	22806.18
703.91	22728.94
704.04	22998.10
704.17	22888.10
704.31	22967.68
704.44	22625.96
704.57	22691.49
704.70	22300.62
704.83	22089.98
704.96	22174.24
705.10	22263.18
705.23	22377.86
>>>>>End Processed Spectral Data<<<<<
