SpectraSuite Data File
++++++++++++++++++++++++++++++++++++
Date: Fri Oct 25 11:22:56 EDT 2013
User: price-jones
Dark Spectrum Present: No
Reference Spectrum Present: No
Number of Sampled Component Spectra: 1
Spectrometers: USB2+H05261
Integration Time (usec): 100000 (USB2+H05261)
Spectra Averaged: 1 (USB2+H05261)
Boxcar Smoothing: 0 (USB2+H05261)
Correct for Electrical Dark: No (USB2+H05261)
Strobe/Lamp Enabled: No (USB2+H05261)
Correct for Detector Non-linearity: No (USB2+H05261)
Correct for Stray Light: No (USB2+H05261)
Number of Pixels in Processed Spectrum: 2048
>>>>>Begin Processed Spectral Data<<<<<
365.73	245.76
365.92	245.76
366.12	245.76
366.32	184.90
366.52	149.79
366.72	170.86
366.91	131.07
367.11	170.86
367.31	98.30
367.51	105.32
367.70	152.13
367.90	163.84
368.10	53.83
368.30	93.62
368.49	124.05
368.69	145.11
368.89	168.52
369.09	149.79
369.28	107.66
369.48	100.64
369.68	114.69
369.87	203.63
370.07	154.48
370.27	196.60
370.47	297.25
370.66	573.43
370.86	489.17
371.06	624.92
371.25	716.20
371.45	690.46
371.65	709.18
371.84	739.61
372.04	695.14
372.24	716.20
372.44	685.78
372.63	713.86
372.83	697.48
373.03	730.25
373.22	784.08
373.42	664.71
373.62	786.42
373.81	807.48
374.01	809.83
374.21	763.01
374.40	821.53
374.60	821.53
374.79	882.38
374.99	828.55
375.19	777.06
375.38	800.46
375.58	835.57
375.78	868.34
375.97	875.36
376.17	842.59
376.37	896.43
376.56	816.85
376.76	763.01
376.95	887.06
377.15	929.19
377.35	896.43
377.54	891.74
377.74	917.49
377.93	912.81
378.13	950.26
378.33	957.28
378.52	936.21
378.72	924.51
378.91	933.87
379.11	894.08
379.31	924.51
379.50	957.28
379.70	1001.75
379.89	992.39
380.09	976.00
380.28	959.62
380.48	950.26
380.68	1029.84
380.87	1020.47
381.07	987.71
381.26	1015.79
381.46	1001.75
381.65	1064.94
381.85	945.58
382.04	1015.79
382.24	1020.47
382.43	1041.54
382.63	1027.50
382.83	1078.99
383.02	1193.67
383.22	1086.01
383.41	1001.75
383.61	1050.90
383.80	1149.20
384.00	1158.57
384.19	1046.22
384.39	1114.10
384.58	1081.33
384.78	1163.25
384.97	1125.80
385.17	1123.46
385.36	1149.20
385.56	1184.31
385.75	1231.12
385.95	1254.53
386.14	1228.78
386.34	1242.82
386.53	1210.06
386.72	1240.48
386.92	1238.14
387.11	1235.80
387.31	1191.33
387.50	1270.91
387.70	1296.66
387.89	1355.17
388.09	1245.16
388.28	1261.55
388.48	1193.67
388.67	1385.60
388.86	1303.68
389.06	1345.81
389.25	1359.85
389.45	1341.13
389.64	1299.00
389.84	1313.04
390.03	1465.18
390.22	1315.38
390.42	1444.11
390.61	1390.28
390.81	1373.89
391.00	1387.94
391.19	1406.66
391.39	1376.24
391.58	1432.41
391.78	1432.41
391.97	1455.81
392.16	1474.54
392.36	1523.69
392.55	1535.39
392.75	1565.82
392.94	1462.83
393.13	1516.67
393.33	1556.46
393.52	1519.01
393.71	1540.07
393.91	1521.35
394.10	1561.14
394.29	1533.05
394.49	1614.97
394.68	1633.69
394.88	1600.93
395.07	1619.65
395.26	1675.82
395.46	1633.69
395.65	1661.78
395.84	1753.06
396.04	1788.17
396.23	1760.08
396.42	1675.82
396.62	1771.79
396.81	1823.28
397.00	1739.02
397.19	1673.48
397.39	1722.63
397.58	1802.21
397.77	1874.77
397.97	1867.75
398.16	1886.47
398.35	1797.53
398.55	1816.26
398.74	1930.94
398.93	1996.48
399.12	1907.54
399.32	1891.15
399.51	1935.62
399.70	1984.77
399.90	1987.11
400.09	1970.73
400.28	2059.67
400.47	1909.88
400.67	2146.27
400.86	2029.24
401.05	2083.08
401.24	2083.08
401.44	2031.58
401.63	2235.21
401.82	2162.66
402.01	2197.76
402.21	2209.47
402.40	2169.68
402.59	2202.44
402.78	2157.97
402.97	2258.62
403.17	2354.58
403.36	2228.19
403.55	2277.34
403.74	2338.20
403.93	2296.07
404.13	2466.92
404.32	2249.25
404.51	2267.98
404.70	2553.52
404.89	2380.32
405.09	2490.33
405.28	2422.45
405.47	2466.92
405.66	2560.55
405.85	2511.39
406.05	2445.86
406.24	2616.72
406.43	2607.36
406.62	2572.25
406.81	2722.04
407.00	2593.31
407.20	2630.76
407.39	2579.27
407.58	2686.94
407.77	2729.06
407.96	2799.28
408.15	2944.39
408.34	2766.51
408.54	2773.53
408.73	2867.16
408.92	2820.35
409.11	2963.12
409.30	2899.92
409.49	2801.62
409.68	2944.39
409.87	2958.44
410.07	3030.99
410.26	3026.31
410.45	2991.20
410.64	3119.93
410.83	3098.87
411.02	3054.40
411.21	3227.60
411.40	3173.77
411.59	3225.26
411.78	3155.04
411.98	3351.65
412.17	3300.16
412.36	3372.71
412.55	3531.87
412.74	3550.59
412.93	3302.50
413.12	3318.88
413.31	3559.95
413.50	3456.97
413.69	3625.49
413.88	3574.00
414.07	3641.87
414.26	3740.18
414.45	3585.70
414.64	3758.90
414.83	3763.58
415.02	3791.67
415.22	3824.44
415.41	3871.25
415.60	3908.69
415.79	3873.59
415.98	4140.41
416.17	3976.57
416.36	4021.04
416.55	4014.02
416.74	4140.41
416.93	4056.15
417.12	4126.36
417.31	4227.01
417.50	4313.61
417.69	4187.22
417.88	4217.65
418.07	4327.65
418.26	4365.10
418.45	4304.25
418.64	4552.34
418.83	4447.02
419.02	4613.20
419.21	4603.83
419.39	4535.96
419.58	4564.04
419.77	4454.04
419.96	4482.13
420.15	4540.64
420.34	4575.75
420.53	4638.94
420.72	4770.01
420.91	4699.80
421.10	4788.74
421.29	4936.19
421.48	4835.55
421.67	4865.97
421.86	4755.97
422.05	4652.98
422.24	4894.06
422.43	4971.30
422.61	4854.27
422.80	4973.64
422.99	5018.11
423.18	4957.25
423.37	4961.94
423.56	4901.08
423.75	5184.29
423.94	4842.57
424.13	4636.60
424.32	4718.52
424.50	5125.77
424.69	5146.84
424.88	5121.09
425.07	4847.25
425.26	4910.44
425.45	4938.53
425.64	5043.85
425.83	5020.45
426.01	5069.60
426.20	5090.67
426.39	5069.60
426.58	5076.62
426.77	5013.43
426.96	5198.33
427.15	5327.06
427.33	5226.42
427.52	5207.69
427.71	5254.50
427.90	5352.81
428.09	5383.23
428.28	5390.25
428.46	5263.86
428.65	5373.87
428.84	5488.56
429.03	5575.16
429.22	5385.57
429.40	5427.70
429.59	5589.20
429.78	5472.17
429.97	5270.89
430.16	5383.23
430.34	5507.28
430.53	5621.97
430.72	5696.86
430.91	5610.26
431.10	5703.89
431.28	5715.59
431.47	5900.49
431.66	5905.17
431.85	5771.76
432.03	5926.24
432.22	6012.84
432.41	5991.77
432.60	6057.31
432.79	6003.47
432.97	6129.86
433.16	6267.95
433.35	6015.18
433.54	5977.73
433.72	6230.51
433.91	6221.14
434.10	6003.47
434.28	5954.32
434.47	6113.48
434.66	6249.23
434.85	6251.57
435.03	6392.00
435.22	6448.18
435.41	6530.09
435.59	6361.58
435.78	6698.61
435.97	6476.26
436.16	6441.15
436.34	6555.84
436.53	6494.99
436.72	6782.87
436.90	6546.48
437.09	6668.19
437.28	6609.67
437.46	6590.95
437.65	6806.28
437.84	6761.81
438.02	6766.49
438.21	6885.86
438.40	6731.38
438.58	6890.54
438.77	7126.93
438.96	6963.09
439.14	7218.21
439.33	7304.81
439.52	7314.17
439.70	7124.59
439.89	7346.94
440.08	7360.98
440.26	7428.86
440.45	7459.29
440.63	7573.97
440.82	7777.60
441.01	7557.59
441.19	7763.56
441.38	7775.26
441.57	7719.09
441.75	7854.84
441.94	7955.48
442.12	7873.56
442.31	8042.08
442.50	8131.02
442.68	8088.89
442.87	7836.11
443.05	8138.04
443.24	8224.64
443.43	8196.56
443.61	8266.77
443.80	8346.35
443.98	8056.12
444.17	8056.12
444.35	8463.38
444.54	8432.95
444.73	8306.56
444.91	8423.59
445.10	8292.52
445.28	8484.44
445.47	8166.13
445.65	8468.06
445.84	8367.42
446.02	8456.36
446.21	8486.78
446.39	8461.04
446.58	8524.23
446.77	8496.14
446.95	8166.13
447.14	8479.76
447.32	8524.23
447.51	8463.38
447.69	8774.67
447.88	8559.34
448.06	8662.32
448.25	8636.58
448.43	8788.71
448.62	8365.07
448.80	8514.87
448.99	8622.53
449.17	8652.96
449.36	8737.22
449.54	9057.87
449.73	8978.30
449.91	9071.92
450.10	8959.57
450.28	9104.68
450.46	9177.24
450.65	9195.96
450.83	8978.30
451.02	9018.08
451.20	9312.99
451.39	9195.96
451.57	9202.99
451.76	9149.15
451.94	9280.22
452.13	9408.95
452.31	9338.74
452.49	9329.38
452.68	9523.64
452.86	9432.36
453.05	9469.81
453.23	9713.22
453.42	9418.32
453.60	9284.91
453.78	9657.05
453.97	9607.90
454.15	9600.88
454.34	9661.73
454.52	9895.78
454.70	9699.18
454.89	9748.33
455.07	9848.97
455.26	9877.06
455.44	10129.84
455.62	9879.40
455.81	10029.20
455.99	10001.11
456.17	10242.18
456.36	10239.84
456.54	10317.08
456.73	10197.71
456.91	10326.44
457.09	10434.11
457.28	10787.53
457.46	10427.09
457.64	10752.42
457.83	10450.49
458.01	10394.32
458.19	10806.25
458.38	10696.25
458.56	10853.06
458.74	10647.10
458.93	10815.62
459.11	10986.47
459.29	10979.45
459.48	10733.70
459.66	11037.97
459.84	11084.78
460.03	11332.87
460.21	10974.77
460.39	11077.76
460.57	11061.37
460.76	11339.90
460.94	11279.04
461.12	11304.79
461.31	11274.36
461.49	11304.79
461.67	11300.11
461.85	11545.86
462.04	11360.96
462.22	11967.16
462.40	11639.48
462.59	11485.01
462.77	11641.82
462.95	11707.36
463.13	11859.49
463.32	12039.72
463.50	11892.26
463.68	11892.26
463.86	12063.12
464.05	11800.98
464.23	11847.79
464.41	11859.49
464.59	11861.84
464.78	12056.10
464.96	12304.20
465.14	11836.09
465.32	12131.00
465.50	12028.01
465.69	12283.13
465.87	12264.41
466.05	12184.83
466.23	12498.46
466.41	12273.77
466.60	12713.79
466.78	12383.77
466.96	12313.56
467.14	12358.03
467.32	12468.03
467.51	12449.31
467.69	12250.36
467.87	12561.66
468.05	12769.96
468.23	12685.70
468.41	12762.94
468.60	12727.83
468.78	12669.32
468.96	12875.29
469.14	12917.42
469.32	13322.33
469.50	12987.63
469.69	12912.74
469.87	13153.81
470.05	13378.50
470.23	13170.19
470.41	13247.43
470.59	13338.71
470.77	13413.61
470.95	13280.20
471.14	13692.13
471.32	13242.75
471.50	13820.86
471.68	13593.83
471.86	14003.43
472.04	13561.06
472.22	14171.94
472.40	13748.31
472.58	14038.53
472.77	14277.27
472.95	14169.60
473.13	14476.21
473.31	14394.29
473.49	14340.46
473.67	14436.42
473.85	14579.20
474.03	14511.32
474.21	14691.54
474.39	14817.93
474.57	14764.10
474.75	15047.30
474.93	15094.11
475.12	15297.74
475.30	15279.02
475.48	15204.12
475.66	15489.67
475.84	15227.53
476.02	15503.71
476.20	15768.19
476.38	16009.26
476.56	16219.91
476.74	15920.32
476.92	15800.96
477.10	15754.15
477.28	16376.73
477.46	16379.07
477.64	16339.28
477.82	16535.88
478.00	17156.13
478.18	16912.71
478.36	17240.39
478.54	17528.27
478.72	17181.87
478.90	17460.40
479.08	17675.73
479.26	17792.75
479.44	17507.21
479.62	17837.22
479.80	18040.85
479.98	18146.17
480.16	18644.71
480.34	18705.56
480.52	18848.33
480.70	18813.23
480.88	18459.81
481.06	18691.52
481.24	18993.45
481.41	19318.78
481.59	19683.91
481.77	19861.79
481.95	19751.78
482.13	19864.13
482.31	19782.21
482.49	20563.95
482.67	20292.44
482.85	20395.43
483.03	20926.73
483.21	20615.44
483.39	21359.73
483.57	20910.35
483.74	21546.97
483.92	21317.60
484.10	21458.03
484.28	21717.83
484.46	22324.03
484.64	22731.28
484.82	21858.26
485.00	22286.58
485.18	22764.05
485.35	23253.22
485.53	23014.49
485.71	23388.97
485.89	23702.61
486.07	23592.60
486.25	23679.20
486.43	24016.24
486.61	23985.81
486.78	24428.17
486.96	24329.87
487.14	24973.52
487.32	24666.91
487.50	25135.01
487.68	25268.42
487.85	25628.87
488.03	25909.73
488.21	26443.37
488.39	26534.65
488.57	26316.98
488.75	26464.44
488.92	26946.59
489.10	27140.85
489.28	26785.09
489.46	27281.28
489.64	27236.81
489.81	27910.89
489.99	27840.67
490.17	27943.66
490.35	28425.81
490.53	28278.35
490.70	28734.76
490.88	28397.72
491.06	29125.63
491.24	29640.54
491.41	29387.77
491.59	29619.48
491.77	29722.46
491.95	29823.11
492.13	30232.70
492.30	30480.80
492.48	30462.07
492.66	30429.30
492.84	30738.26
493.01	30562.72
493.19	30906.77
493.37	31077.63
493.54	31585.53
493.72	31644.04
493.90	31545.74
494.08	31906.18
494.25	32334.50
494.43	32198.75
494.61	32708.99
494.79	32701.96
494.96	32685.58
495.14	33027.30
495.32	33364.34
495.49	33551.58
495.67	33277.74
495.85	33694.35
496.02	34024.37
496.20	34501.84
496.38	34101.61
496.55	34155.44
496.73	34965.26
496.91	34628.23
497.09	35269.53
497.26	35014.41
497.44	35138.46
497.62	35534.01
497.79	35941.27
497.97	35573.80
498.14	36346.18
498.32	36943.02
498.50	36676.19
498.67	36870.46
498.85	36896.20
499.03	37078.77
499.20	36809.61
499.38	36861.10
499.56	37408.78
499.73	37734.12
499.91	37624.11
500.08	37818.38
500.26	37764.54
500.44	37897.95
500.61	38225.63
500.79	38146.05
500.97	38197.54
501.14	38754.59
501.32	39379.51
501.49	38897.36
501.67	39110.35
501.84	39737.62
502.02	39339.72
502.20	39304.62
502.37	39835.92
502.55	39473.13
502.72	39812.51
502.90	39779.74
503.07	39707.19
503.25	40018.48
503.43	40051.25
503.60	40531.06
503.78	40926.61
503.95	40512.33
504.13	40858.73
504.30	41404.08
504.48	41055.34
504.65	41029.59
504.83	41443.87
505.01	41792.61
505.18	41677.92
505.36	42087.51
505.53	41502.38
505.71	42356.67
505.88	42213.90
506.06	41607.70
506.23	42260.71
506.41	41888.57
506.58	42387.10
506.76	42941.81
506.93	42962.87
507.11	42508.81
507.28	43379.49
507.46	43288.21
507.63	43496.52
507.81	43428.64
507.98	43257.78
508.16	43697.80
508.33	44032.50
508.50	44039.52
508.68	43878.02
508.85	44339.11
509.03	44210.38
509.20	44474.86
509.38	45088.08
509.55	44676.15
509.73	44659.76
509.90	44875.09
510.08	45153.62
510.25	44849.35
510.42	45324.47
510.60	45198.09
510.77	45736.41
510.95	45703.64
511.12	45551.51
511.30	45565.55
511.47	45986.85
511.64	45940.04
511.82	46539.21
511.99	45895.56
512.17	46454.95
512.34	46405.80
512.51	46408.14
512.69	46590.70
512.86	46342.61
513.04	47084.56
513.21	47178.18
513.38	47044.77
513.56	47168.82
513.73	47114.98
513.90	47119.66
514.08	47093.92
514.25	47611.18
514.43	48060.56
514.60	47641.60
514.77	47777.36
514.95	47861.61
515.12	47793.74
515.29	47803.10
515.47	48320.36
515.64	48519.31
515.81	47973.96
515.99	48584.84
516.16	48989.75
516.33	48500.58
516.51	48928.90
516.68	48921.88
516.85	48659.74
517.03	49216.78
517.20	49420.41
517.37	49024.86
517.54	49172.31
517.72	49319.77
517.89	49610.00
518.06	49532.76
518.24	49574.89
518.41	49474.24
518.58	49752.77
518.75	49457.86
518.93	49766.81
519.10	49703.62
519.27	50145.98
519.45	50005.55
519.62	50153.00
519.79	50370.67
519.96	50167.04
520.14	50539.19
520.31	50681.96
520.48	50897.29
520.65	50651.53
520.83	51105.60
521.00	51105.60
521.17	50937.08
521.34	50831.75
521.52	51033.04
521.69	51061.13
521.86	51140.71
522.03	51344.33
522.20	51805.42
522.38	51931.81
522.55	51676.69
522.72	51767.97
522.89	51632.22
523.07	52126.07
523.24	51807.76
523.41	51924.78
523.58	51751.59
523.75	52528.64
523.92	52165.86
524.10	52289.91
524.27	52605.88
524.44	52245.44
524.61	52390.55
524.78	52477.15
524.96	52278.21
525.13	52750.99
525.30	52694.82
525.47	53008.45
525.64	53102.07
525.81	52676.10
525.98	53038.88
526.16	52917.17
526.33	52758.02
526.50	53214.42
526.67	52884.40
526.84	53081.01
527.01	53176.97
527.18	52954.62
527.36	53347.83
527.53	53600.61
527.70	53530.39
527.87	53591.25
528.04	53296.34
528.21	53593.59
528.38	53570.18
528.55	53815.94
528.72	53502.31
528.89	53647.42
529.07	53558.48
529.24	53881.47
529.41	54021.90
529.58	54145.95
529.75	53848.71
529.92	54035.95
530.09	54213.83
530.26	54241.92
530.43	54155.32
530.60	54152.97
530.77	54356.60
530.94	54188.08
531.11	54515.76
531.28	54150.63
531.46	54548.53
531.63	54574.27
531.80	54663.21
531.97	54754.49
532.14	54754.49
532.31	54639.81
532.48	54880.88
532.65	54906.63
532.82	54805.98
532.99	54981.52
533.16	54820.03
533.33	55051.74
533.50	55178.13
533.67	55180.47
533.84	55084.51
534.01	54925.35
534.18	55285.79
534.35	55798.37
534.52	55353.67
534.69	55547.93
534.86	55533.89
535.03	55423.89
535.20	55416.86
535.37	55524.53
535.54	55660.28
535.71	55304.52
535.88	55583.04
536.05	55671.98
536.22	55772.63
536.38	55945.83
536.55	55861.57
536.72	55945.83
536.89	55915.40
537.06	56090.94
537.23	56144.77
537.40	55854.54
537.57	56081.58
537.74	56184.56
537.91	56261.80
538.08	56224.35
538.25	55758.58
538.42	56163.50
538.59	56268.82
538.75	56182.22
538.92	56140.09
539.09	56374.14
539.26	56315.63
539.43	56285.20
539.60	56346.06
539.77	56191.58
539.94	56889.06
540.11	56633.94
540.28	56685.43
540.44	56727.56
540.61	56706.50
540.78	56678.41
540.95	56467.76
541.12	56643.30
541.29	56662.03
541.46	56739.27
541.62	56952.26
541.79	56924.17
541.96	56573.09
542.13	56701.82
542.30	56877.36
542.47	57095.03
542.63	56765.01
542.80	57146.52
542.97	57338.44
543.14	57509.30
543.31	57577.18
543.48	57282.27
543.64	57673.14
543.81	57652.08
543.98	57490.58
544.15	57497.60
544.32	57539.73
544.48	57820.59
544.65	57687.18
544.82	57703.57
544.99	57560.79
545.16	57577.18
545.32	57656.76
545.49	57865.06
545.66	57914.22
545.83	58049.97
546.00	57954.00
546.16	58005.50
546.33	57839.32
546.50	57722.29
546.67	57907.19
546.83	57890.81
547.00	57881.45
547.17	57977.41
547.34	58071.03
547.50	58115.50
547.67	58204.44
547.84	58244.23
548.00	58262.96
548.17	58403.39
548.34	58351.90
548.51	58335.51
548.67	58445.52
548.84	58232.53
549.01	58319.13
549.18	58305.09
549.34	58363.60
549.51	58445.52
549.68	58735.74
549.84	58644.46
550.01	58616.38
550.18	58300.40
550.34	58728.72
550.51	58639.78
550.68	58623.40
550.84	58426.79
551.01	58824.68
551.18	58719.36
551.34	58951.07
551.51	58805.96
551.68	58653.82
551.84	58815.32
552.01	58553.18
552.18	58913.62
552.34	58679.57
552.51	58927.67
552.68	58740.42
552.84	58979.16
553.01	59229.60
553.18	58815.32
553.34	59011.93
553.51	59023.63
553.67	58988.52
553.84	59367.69
554.01	59096.19
554.17	59152.36
554.34	58972.14
554.51	59143.00
554.67	59311.52
554.84	59110.23
555.00	59243.64
555.17	59128.95
555.33	59278.75
555.50	59117.25
555.67	59297.47
555.83	59194.49
556.00	59480.03
556.16	59653.23
556.33	59561.95
556.50	59494.08
556.66	59498.76
556.83	59325.56
556.99	59770.26
557.16	59767.92
557.32	59796.01
557.49	59903.67
557.65	59543.23
557.82	59683.66
557.98	59739.83
558.15	59491.74
558.32	59796.01
558.48	59451.95
558.65	59863.88
558.81	59718.77
558.98	59765.58
559.14	59943.46
559.31	59784.30
559.47	59840.48
559.64	59884.95
559.80	60221.98
559.97	59994.95
560.13	59891.97
560.30	59987.93
560.46	59805.37
560.63	59913.03
560.79	59959.84
560.96	60137.72
561.12	59990.27
561.29	60212.62
561.45	60111.98
561.61	60020.70
561.78	59992.61
561.94	60079.21
562.11	60172.83
562.27	60079.21
562.44	60130.70
562.60	60294.54
562.77	60257.09
562.93	60016.02
563.10	60240.71
563.26	59969.21
563.42	60479.44
563.59	60313.26
563.75	60210.28
563.92	60369.44
564.08	60203.26
564.24	60224.32
564.41	60226.66
564.57	60294.54
564.74	60271.14
564.90	60362.42
565.07	60214.96
565.23	60411.57
565.39	60399.86
565.56	60320.29
565.72	60123.68
565.88	60140.07
566.05	60357.74
566.21	60392.84
566.38	60397.52
566.54	60292.20
566.70	60423.27
566.87	60528.59
567.03	60346.03
567.19	60809.46
567.36	60617.53
567.52	60287.52
567.68	60729.88
567.85	60594.13
568.01	60608.17
568.17	60418.59
568.34	60577.75
568.50	60612.85
568.66	60378.80
568.83	60669.03
568.99	60439.65
569.15	60654.98
569.32	60669.03
569.48	60645.62
569.64	60715.84
569.81	60767.33
569.97	60619.88
570.13	60872.65
570.30	60484.12
570.46	60594.13
570.62	60823.50
570.78	60736.90
570.95	60842.23
571.11	60963.93
571.27	60666.69
571.43	60736.90
571.60	60750.94
571.76	60809.46
571.92	60933.51
572.09	60608.17
572.25	60786.05
572.41	60975.64
572.57	60626.90
572.74	61034.15
572.90	60739.24
573.06	60954.57
573.22	60921.80
573.38	60910.10
573.55	60755.63
573.71	61029.47
573.87	60793.07
574.03	60725.20
574.20	60793.07
574.36	60617.53
574.52	60851.59
574.68	61027.13
574.84	61111.39
575.01	60872.65
575.17	60718.18
575.33	60846.91
575.49	60781.37
575.65	61137.13
575.82	61027.13
575.98	60928.83
576.14	61073.94
576.30	60949.89
576.46	60977.98
576.62	60832.86
576.79	60872.65
576.95	60898.40
577.11	60996.70
577.27	61038.83
577.43	61045.85
577.59	60762.65
577.75	60870.31
577.92	61024.79
578.08	60992.02
578.24	60952.23
578.40	61020.11
578.56	61443.74
578.72	60825.84
578.88	61132.45
579.04	61375.87
579.21	61151.18
579.37	61200.33
579.53	61188.63
579.69	61052.87
579.85	61095.00
580.01	60926.49
580.17	61022.45
580.33	61172.24
580.49	61027.13
580.65	60966.27
580.82	61123.09
580.98	61111.39
581.14	61041.17
581.30	61186.28
581.46	60985.00
581.62	60928.83
581.78	61212.03
581.94	61146.50
582.10	61029.47
582.26	61345.44
582.42	61062.24
582.58	61137.13
582.74	61017.77
582.90	61284.59
583.06	61340.76
583.22	60931.17
583.38	61050.53
583.54	61268.20
583.70	61162.88
583.86	61205.01
584.02	60903.08
584.18	61286.93
584.34	61221.39
584.50	61263.52
584.66	61125.43
584.82	60994.36
584.98	61268.20
585.14	61532.68
585.30	61179.26
585.46	61085.64
585.62	61176.92
585.78	61401.61
585.94	61151.18
586.10	61350.12
586.26	61162.88
586.42	61413.32
586.58	61399.27
586.74	61153.52
586.90	61230.75
587.06	61176.92
587.22	61324.38
587.38	61333.74
587.54	61340.76
587.70	61385.23
587.86	61144.16
588.02	61333.74
588.18	61518.64
588.34	61258.84
588.49	61427.36
588.65	61146.50
588.81	61223.73
588.97	61319.70
589.13	61270.54
589.29	61329.06
589.45	61368.85
589.61	61357.14
589.77	61773.76
589.93	61652.05
590.08	61392.25
590.24	61483.53
590.40	61694.18
590.56	61544.39
590.72	61626.31
590.88	61350.12
591.04	61518.64
591.20	61771.42
591.35	61497.58
591.51	61659.07
591.67	61488.21
591.83	61626.31
591.99	61441.40
592.15	61733.97
592.31	61593.54
592.46	61666.09
592.62	61698.86
592.78	61462.47
592.94	61785.46
593.10	61790.14
593.26	61773.76
593.41	61701.20
593.57	61736.31
593.73	61619.28
593.89	61804.19
594.05	61752.69
594.20	61600.56
594.36	61862.70
594.52	61628.65
594.68	61726.95
594.84	61457.79
594.99	61689.50
595.15	61579.49
595.31	61886.10
595.47	61556.09
595.62	61764.40
595.78	61773.76
595.94	61769.08
596.10	61949.30
596.25	61797.16
596.41	61860.36
596.57	61687.16
596.73	61799.50
596.88	61855.68
597.04	61839.29
597.20	61909.51
597.36	61916.53
597.51	61996.11
597.67	61778.44
597.83	61535.02
597.99	61829.93
598.14	61829.93
598.30	61956.32
598.46	61900.15
598.61	61848.66
598.77	61858.02
598.93	61923.55
599.09	61804.19
599.24	61867.38
599.40	61935.26
599.56	61923.55
599.71	62075.69
599.87	62066.33
600.03	61958.66
600.18	61698.86
600.34	61745.67
600.50	61790.14
600.65	61755.03
600.81	62035.90
600.97	61937.60
601.12	62005.47
601.28	61914.19
601.44	61872.06
601.59	61979.73
601.75	61975.05
601.91	61923.55
602.06	62028.88
602.22	62185.69
602.37	62082.71
602.53	61879.08
602.69	61956.32
602.84	61778.44
603.00	62061.64
603.16	61942.28
603.31	62099.09
603.47	62000.79
603.62	61918.87
603.78	61946.96
603.94	61946.96
604.09	61949.30
604.25	61881.42
604.40	61993.77
604.56	61989.09
604.71	62063.99
604.87	62045.26
605.03	62000.79
605.18	61918.87
605.34	61944.62
605.49	61841.63
605.65	61975.05
605.80	62063.99
605.96	62019.52
606.12	61961.00
606.27	61979.73
606.43	61968.02
606.58	62000.79
606.74	62017.17
606.89	61965.68
607.05	61998.45
607.20	62049.94
607.36	61909.51
607.51	61797.16
607.67	61539.71
607.82	61860.36
607.98	61726.95
608.13	61897.81
608.29	61843.98
608.44	61813.55
608.60	61911.85
608.75	62110.80
608.91	61904.83
609.06	61558.43
609.22	61841.63
609.37	61710.56
609.53	61946.96
609.68	61680.14
609.84	61832.27
609.99	62012.49
610.15	61815.89
610.30	61752.69
610.46	61670.78
610.61	61895.47
610.76	61638.01
610.92	61841.63
611.07	61783.12
611.23	61757.38
611.38	61808.87
611.54	61602.90
611.69	61607.58
611.84	61776.10
612.00	61780.78
612.15	61731.63
612.31	61897.81
612.46	61633.33
612.62	61675.46
612.77	61469.49
612.92	61820.57
613.08	61680.14
613.23	61703.54
613.39	61661.41
613.54	61628.65
613.69	61656.73
613.85	61539.71
614.00	61769.08
614.15	61766.74
614.31	61638.01
614.46	61708.22
614.62	61581.84
614.77	61633.33
614.92	61490.55
615.08	61537.36
615.23	61551.41
615.38	61506.94
615.54	61558.43
615.69	61481.19
615.84	61399.27
616.00	61478.85
616.15	61284.59
616.30	61799.50
616.46	61607.58
616.61	61317.35
616.76	61577.15
616.92	61155.86
617.07	61490.55
617.22	61371.19
617.37	61394.59
617.53	61638.01
617.68	61605.24
617.83	61563.11
617.99	61406.30
618.14	61663.75
618.29	61427.36
618.45	61202.67
618.60	61422.68
618.75	61247.14
618.90	61326.72
619.06	61574.81
619.21	61446.08
619.36	61469.49
619.51	61312.67
619.67	61195.65
619.82	61333.74
619.97	61485.87
620.12	61284.59
620.28	61118.41
620.43	61230.75
620.58	61265.86
620.73	61193.31
620.89	61104.37
621.04	61272.88
621.19	61066.92
621.34	61167.56
621.49	61041.17
621.65	61123.09
621.80	61331.40
621.95	61146.50
622.10	61080.96
622.25	61284.59
622.41	61050.53
622.56	61029.47
622.71	60987.34
622.86	60842.23
623.01	60917.12
623.16	60764.99
623.32	60828.18
623.47	61109.05
623.62	61020.11
623.77	60797.76
623.92	61083.30
624.07	60994.36
624.23	60977.98
624.38	61125.43
624.53	60977.98
624.68	60746.26
624.83	60966.27
624.98	60961.59
625.13	60732.22
625.29	60835.20
625.44	60893.72
625.59	60797.76
625.74	60795.42
625.89	60591.79
626.04	60563.70
626.19	60547.32
626.34	60725.20
626.49	60563.70
626.65	60411.57
626.80	60692.43
626.95	60652.64
627.10	60406.89
627.25	60308.58
627.40	60566.04
627.55	60715.84
627.70	60507.53
627.85	60708.82
628.00	60411.57
628.15	60622.22
628.30	60526.25
628.45	60441.99
628.60	60322.63
628.76	60650.30
628.91	60537.96
629.06	60460.72
629.21	60331.99
629.36	60341.35
629.51	60388.16
629.66	60317.95
629.81	60207.94
629.96	60168.15
630.11	60308.58
630.26	60334.33
630.41	60170.49
630.56	60355.39
630.71	60313.26
630.86	60310.92
631.01	60182.19
631.16	60364.76
631.31	60175.17
631.46	59983.25
631.61	60179.85
631.76	60200.92
631.91	60449.02
632.06	60362.42
632.21	60355.39
632.36	60034.74
632.51	59908.35
632.66	60074.53
632.81	60074.53
632.96	60116.66
633.10	60055.81
633.25	60177.51
633.40	59917.71
633.55	59861.54
633.70	59997.29
633.85	59910.69
634.00	60062.83
634.15	59784.30
634.30	59847.50
634.45	59957.50
634.60	60334.33
634.75	59980.91
634.90	59597.06
635.05	59962.18
635.19	59941.12
635.34	60065.17
635.49	59817.07
635.64	59786.64
635.79	59980.91
635.94	59901.33
636.09	59735.15
636.24	59718.77
636.39	59728.13
636.53	59976.23
636.68	59725.79
636.83	59735.15
636.98	59807.71
637.13	59515.14
637.28	59447.27
637.43	59812.39
637.57	59711.75
637.72	59583.02
637.87	59639.19
638.02	59742.17
638.17	59597.06
638.32	59704.73
638.46	59393.43
638.61	59599.40
638.76	59189.81
638.91	59517.48
639.06	59370.03
639.20	59302.15
639.35	59283.43
639.50	59250.66
639.65	59229.60
639.80	59412.16
639.94	59363.01
640.09	59250.66
640.24	59374.71
640.39	59192.15
640.54	59330.24
640.68	59238.96
640.83	59274.07
640.98	59447.27
641.13	59311.52
641.27	59290.45
641.42	59320.88
641.57	59201.51
641.72	59150.02
641.86	59138.32
642.01	58932.35
642.16	59187.47
642.31	58960.44
642.45	59391.09
642.60	59014.27
642.75	59009.59
642.90	59227.26
643.04	59217.89
643.19	58848.09
643.34	58976.82
643.48	59262.36
643.63	59040.01
643.78	59082.14
643.93	59079.80
644.07	58995.54
644.22	58876.18
644.37	58768.51
644.51	58880.86
644.66	58965.12
644.81	58883.20
644.95	58731.06
645.10	59056.40
645.25	58958.09
645.39	58726.38
645.54	58604.67
645.69	58672.55
645.83	58887.88
645.98	58780.21
646.13	58862.13
646.27	58632.76
646.42	58674.89
646.57	58822.34
646.71	58724.04
646.86	58967.46
647.00	58614.04
647.15	58412.75
647.30	58702.98
647.44	58677.23
647.59	58663.19
647.74	58698.30
647.88	58628.08
648.03	58632.76
648.17	58815.32
648.32	58630.42
648.47	58674.89
648.61	58459.56
648.76	58871.49
648.90	58452.54
649.05	58539.14
649.20	58698.30
649.34	58717.02
649.49	58323.81
649.63	58536.80
649.78	58588.29
649.92	58541.48
650.07	58422.11
650.21	58291.04
650.36	58431.47
650.51	58382.32
650.65	58539.14
650.80	58576.59
650.94	58340.19
651.09	58113.16
651.23	57989.11
651.38	58234.87
651.52	58010.18
651.67	58138.91
651.81	58195.08
651.96	58061.67
652.10	58101.46
652.25	58141.25
652.39	57965.71
652.54	57949.32
652.68	57928.26
652.83	58131.89
652.97	58127.20
653.12	57951.66
653.26	58042.95
653.41	58138.91
653.55	58106.14
653.70	57984.43
653.84	58218.49
653.99	57972.73
654.13	57879.11
654.27	58012.52
654.42	57881.45
654.56	57626.33
654.71	57923.58
654.85	57741.02
655.00	57911.88
655.14	57848.68
655.29	57598.24
655.43	57705.91
655.57	57900.17
655.72	57701.23
655.86	57696.55
656.01	57649.74
656.15	57605.26
656.30	57708.25
656.44	57897.83
656.58	57673.14
656.73	57984.43
656.87	57682.50
657.01	57530.37
657.16	57645.05
657.30	57584.20
657.45	57668.46
657.59	57677.82
657.73	57207.37
657.88	57251.84
658.02	57518.67
658.16	57359.51
658.31	57223.76
658.45	57378.23
658.60	57153.54
658.74	57272.91
658.88	57633.35
659.03	57312.70
659.17	56968.64
659.31	57226.10
659.46	57289.29
659.60	57148.86
659.74	57261.21
659.89	57024.81
660.03	56928.85
660.17	57083.33
660.32	57083.33
660.46	57041.20
660.60	56963.96
660.74	57078.64
660.89	56956.94
661.03	56718.20
661.17	56657.35
661.32	56584.79
661.46	56767.35
661.60	56814.16
661.74	56732.25
661.89	56472.45
662.03	56392.87
662.17	56409.25
662.31	56530.96
662.46	56748.63
662.60	56687.78
662.74	56191.58
662.88	56137.75
663.03	56222.01
663.17	56460.74
663.31	56219.67
663.45	56306.27
663.60	56025.40
663.74	55849.86
663.88	56046.47
664.02	55931.78
664.17	56252.44
664.31	55627.51
664.45	55826.46
664.59	55903.70
664.73	56076.90
664.88	55859.23
665.02	55458.99
665.16	55774.97
665.30	55547.93
665.44	55529.21
665.59	55683.69
665.73	55517.51
665.87	55489.42
666.01	55622.83
666.15	55477.72
666.29	55412.18
666.44	55599.43
666.58	55346.65
666.72	55199.19
666.86	55210.90
667.00	55098.55
667.14	54766.20
667.28	55213.24
667.43	54780.24
667.57	55234.30
667.71	54904.29
667.85	54733.43
667.99	54813.01
668.13	54700.66
668.27	54815.35
668.41	55082.17
668.56	54773.22
668.70	54583.63
668.84	54555.55
668.98	54497.03
669.12	54616.40
669.26	54740.45
669.40	54588.31
669.54	54632.78
669.68	54562.57
669.82	54017.22
669.96	54255.96
670.10	54108.50
670.25	54600.02
670.39	54274.68
670.53	54232.55
670.67	54082.76
670.81	54241.92
670.95	54092.12
671.09	53879.13
671.23	53762.11
671.37	53731.68
671.51	54054.67
671.65	53780.83
671.79	53301.02
671.93	53464.86
672.07	53595.93
672.21	53331.45
672.35	53200.38
672.49	53130.16
672.63	52769.72
672.77	52961.64
672.91	53221.44
673.05	52931.22
673.19	52804.83
673.33	52741.63
673.47	52526.30
673.61	53057.60
673.75	52750.99
673.89	52720.57
674.03	52130.75
674.17	52538.01
674.31	52102.67
674.45	52051.17
674.59	52271.18
674.73	52205.65
674.87	52367.15
675.01	51929.47
675.15	51826.48
675.29	51709.46
675.43	51784.35
675.56	51391.14
675.70	51267.09
675.84	51618.17
675.98	50314.50
676.12	51564.34
676.26	51283.48
676.40	51231.99
676.54	51077.51
676.68	50768.56
676.82	50361.31
676.96	50923.04
677.10	50178.75
677.23	50501.74
677.37	50593.02
677.51	50141.30
677.65	50075.76
677.79	49268.28
677.93	49146.57
678.07	49202.74
678.21	49364.24
678.34	49778.51
678.48	49287.00
678.62	48947.62
678.76	48893.79
678.90	48748.68
679.04	48584.84
679.18	49052.95
679.31	48406.96
679.45	48603.56
679.59	48388.24
679.73	48734.63
679.87	48023.11
680.00	48119.07
680.14	47239.03
680.28	47655.65
680.42	47927.15
680.56	47288.18
680.70	47056.47
680.83	46885.61
680.97	46726.46
681.11	47370.10
681.25	46855.18
681.39	46843.48
681.52	46876.25
681.66	46527.51
681.80	46623.47
681.94	45928.33
682.07	46291.12
682.21	45935.35
682.35	45549.17
682.49	45567.89
682.62	45633.42
682.76	45673.21
682.90	45675.55
683.04	45097.44
683.17	45284.68
683.31	44491.24
683.45	45165.32
683.59	44999.14
683.72	44479.54
683.86	44685.51
684.00	44652.74
684.13	44308.68
684.27	44002.07
684.41	44018.46
684.55	43662.69
684.68	43765.68
684.82	43955.26
684.96	43587.80
685.09	43220.33
685.23	42997.98
685.37	42820.10
685.50	42667.97
685.64	42719.46
685.78	42834.14
685.91	42703.07
686.05	42309.86
686.19	41408.76
686.32	41502.38
686.46	40900.86
686.60	41308.11
686.73	40914.90
686.87	40914.90
687.01	41251.94
687.14	41116.19
687.28	40730.00
687.42	40863.41
687.55	40767.45
687.69	41057.68
687.82	40247.85
687.96	39896.77
688.10	39976.35
688.23	40257.21
688.37	40009.12
688.50	39974.01
688.64	39232.06
688.78	39232.06
688.91	38817.78
689.05	38506.49
689.18	38820.13
689.32	38391.81
689.46	37991.58
689.59	37773.91
689.73	37694.33
689.86	38047.75
690.00	37858.17
690.13	37986.89
690.27	37521.13
690.41	37993.92
690.54	36945.36
690.68	37397.08
690.81	37486.02
690.95	36872.80
691.08	36943.02
691.22	36704.28
691.35	36809.61
691.49	36488.95
691.62	36711.30
691.76	36084.04
691.89	35583.16
692.03	35351.45
692.16	35431.03
692.30	35484.86
692.43	35770.41
692.57	35222.72
692.70	34565.03
692.84	34824.83
692.97	35023.78
693.11	34895.05
693.24	34487.79
693.38	34710.14
693.51	33916.70
693.65	33867.55
693.78	33603.07
693.92	34057.14
694.05	33642.86
694.19	33565.62
694.32	33399.44
694.45	32917.29
694.59	32954.74
694.72	32994.53
694.86	32795.59
694.99	32467.91
695.13	32079.38
695.26	32311.10
695.39	31782.13
695.53	31861.71
695.66	31864.05
695.80	32170.66
695.93	31585.53
696.07	31246.15
696.20	30508.88
696.33	30721.87
696.47	31044.87
696.60	30728.89
696.73	30649.32
696.87	30892.73
697.00	30054.82
697.14	30703.15
697.27	30099.29
697.40	30417.60
697.54	30078.22
697.67	29975.24
697.80	29670.97
697.94	29420.53
698.07	29308.19
698.21	29039.03
698.34	29317.55
698.47	29216.91
698.61	28678.58
698.74	28751.14
698.87	28730.08
699.01	28751.14
699.14	28371.97
699.27	27936.63
699.40	28315.80
699.54	28428.15
699.67	28051.32
699.80	28041.96
699.94	27969.40
700.07	27604.28
700.20	27498.95
700.34	27115.11
700.47	27201.71
700.60	27143.19
700.73	26642.32
700.87	26380.18
701.00	26075.91
701.13	26054.84
701.26	25902.71
701.40	26314.64
701.53	25972.92
701.66	26071.23
701.79	25516.52
701.93	25200.55
702.06	24971.18
702.19	25006.28
702.32	24919.68
702.46	24924.36
702.59	24936.07
702.72	24498.39
702.85	24872.87
702.99	24879.89
703.12	24339.23
703.25	24079.43
703.38	24287.74
703.51	24116.88
703.65	23828.99
703.78	23580.90
703.91	23342.16
704.04	23735.37
704.17	23489.62
704.31	23489.62
704.44	23269.61
704.57	22796.82
704.70	23061.30
704.83	22487.87
704.96	22614.26
705.10	22033.80
705.23	22387.22
>>>>>End Processed Spectral Data<<<<<
