SpectraSuite Data File
++++++++++++++++++++++++++++++++++++
Date: Fri Oct 25 10:47:32 EDT 2013
User: price-jones
Dark Spectrum Present: No
Reference Spectrum Present: No
Number of Sampled Component Spectra: 1
Spectrometers: USB2+H05261
Integration Time (usec): 100000 (USB2+H05261)
Spectra Averaged: 1 (USB2+H05261)
Boxcar Smoothing: 0 (USB2+H05261)
Correct for Electrical Dark: No (USB2+H05261)
Strobe/Lamp Enabled: No (USB2+H05261)
Correct for Detector Non-linearity: No (USB2+H05261)
Correct for Stray Light: No (USB2+H05261)
Number of Pixels in Processed Spectrum: 2048
>>>>>Begin Processed Spectral Data<<<<<
365.73	117.03
365.92	117.03
366.12	117.03
366.32	65.54
366.52	0.00
366.72	51.49
366.91	42.13
367.11	42.13
367.31	37.45
367.51	7.02
367.70	93.62
367.90	39.79
368.10	0.00
368.30	91.28
368.49	21.06
368.69	86.60
368.89	4.68
369.09	0.00
369.28	84.26
369.48	53.83
369.68	81.92
369.87	110.01
370.07	79.58
370.27	147.45
370.47	191.92
370.66	285.55
370.86	332.36
371.06	461.09
371.25	500.87
371.45	411.93
371.65	433.00
371.84	381.51
372.04	360.44
372.24	526.62
372.44	475.13
372.63	538.32
372.83	498.53
373.03	475.13
373.22	519.60
373.42	484.49
373.62	519.60
373.81	503.22
374.01	526.62
374.21	545.34
374.40	535.98
374.60	528.96
374.79	608.54
374.99	571.09
375.19	510.24
375.38	564.07
375.58	575.77
375.78	582.79
375.97	552.37
376.17	634.29
376.37	519.60
376.56	564.07
376.76	545.34
376.95	592.16
377.15	571.09
377.35	636.63
377.54	578.11
377.74	594.50
377.93	589.82
378.13	603.86
378.33	606.20
378.52	596.84
378.72	641.31
378.91	554.71
379.11	615.56
379.31	550.03
379.50	601.52
379.70	524.28
379.89	610.88
380.09	718.54
380.28	655.35
380.48	617.90
380.68	678.76
380.87	573.43
381.07	730.25
381.26	589.82
381.46	580.45
381.65	748.97
381.85	627.26
382.04	615.56
382.24	601.52
382.43	669.39
382.63	725.57
382.83	641.31
383.02	702.16
383.22	725.57
383.41	664.71
383.61	599.18
383.80	753.65
384.00	711.52
384.19	655.35
384.39	645.99
384.58	725.57
384.78	643.65
384.97	751.31
385.17	746.63
385.36	739.61
385.56	760.67
385.75	763.01
385.95	669.39
386.14	739.61
386.34	793.44
386.53	741.95
386.72	730.25
386.92	777.06
387.11	753.65
387.31	812.17
387.50	833.23
387.70	753.65
387.89	765.36
388.09	741.95
388.28	800.46
388.48	791.10
388.67	870.68
388.86	858.98
389.06	814.51
389.25	866.00
389.45	798.12
389.64	847.27
389.84	924.51
390.03	847.27
390.22	802.80
390.42	826.21
390.61	901.11
390.81	849.61
391.00	961.96
391.19	994.73
391.39	1043.88
391.58	924.51
391.78	919.83
391.97	971.32
392.16	973.66
392.36	1067.28
392.55	1036.86
392.75	903.45
392.94	854.30
393.13	945.58
393.33	917.49
393.52	947.92
393.71	945.58
393.91	964.30
394.10	1048.56
394.29	1039.20
394.49	1011.11
394.68	1081.33
394.88	1076.65
395.07	1086.01
395.26	1104.73
395.46	1116.44
395.65	1107.07
395.84	1086.01
396.04	1219.42
396.23	1135.16
396.42	1069.62
396.62	1095.37
396.81	1020.47
397.00	1205.38
397.19	1128.14
397.39	1090.69
397.58	1240.48
397.77	1203.04
397.97	1226.44
398.16	1287.29
398.35	1289.64
398.55	1174.95
398.74	1242.82
398.93	1327.08
399.12	1226.44
399.32	1282.61
399.51	1310.70
399.70	1299.00
399.90	1336.45
400.09	1373.89
400.28	1399.64
400.47	1329.42
400.67	1394.96
400.86	1369.21
401.05	1387.94
401.24	1444.11
401.44	1432.41
401.63	1476.88
401.82	1448.79
402.01	1441.77
402.21	1413.68
402.40	1523.69
402.59	1528.37
402.78	1455.81
402.97	1493.26
403.17	1631.35
403.36	1570.50
403.55	1488.58
403.74	1586.88
403.93	1664.12
404.13	1540.07
404.32	1549.43
404.51	1724.97
404.70	1659.44
404.89	1694.55
405.09	1652.42
405.28	1610.29
405.47	1629.01
405.66	1696.89
405.85	1652.42
406.05	1675.82
406.24	1687.53
406.43	1629.01
406.62	1746.04
406.81	1860.73
407.00	1748.38
407.20	1687.53
407.39	1708.59
407.58	1884.13
407.77	1771.79
407.96	1881.79
408.15	1783.49
408.34	1860.73
408.54	1900.52
408.73	1947.33
408.92	1912.22
409.11	1984.77
409.30	2059.67
409.49	1987.11
409.68	1973.07
409.87	2026.90
410.07	2010.52
410.26	1982.43
410.45	2078.40
410.64	2092.44
410.83	2141.59
411.02	2113.50
411.21	2136.91
411.40	2160.31
411.59	2167.34
411.78	2225.85
411.98	2167.34
412.17	2132.23
412.36	2340.54
412.55	2230.53
412.74	2382.67
412.93	2303.09
413.12	2312.45
413.31	2487.99
413.50	2399.05
413.69	2499.69
413.88	2588.63
414.07	2534.80
414.26	2455.22
414.45	2518.42
414.64	2654.17
414.83	2658.85
415.02	2548.84
415.22	2757.15
415.41	2708.00
415.60	2630.76
415.79	2658.85
415.98	2773.53
416.17	2640.12
416.36	2672.89
416.55	2815.66
416.74	2897.58
416.93	2855.45
417.12	3042.70
417.31	2930.35
417.50	2902.26
417.69	2998.23
417.88	2995.89
418.07	2960.78
418.26	3023.97
418.45	3038.02
418.64	3042.70
418.83	3194.83
419.02	3141.00
419.21	3229.94
419.39	3035.67
419.58	3059.08
419.77	3126.96
419.96	3119.93
420.15	3173.77
420.34	3087.17
420.53	3255.69
420.72	3136.32
420.91	3199.51
421.10	3251.00
421.29	3382.07
421.48	3311.86
421.67	3187.81
421.86	3311.86
422.05	3295.47
422.24	3405.48
422.43	3407.82
422.61	3304.84
422.80	3370.37
422.99	3218.24
423.18	3431.23
423.37	3517.83
423.56	3492.08
423.75	3405.48
423.94	3431.23
424.13	3253.34
424.32	3356.33
424.50	3307.18
424.69	3487.40
424.88	3522.51
425.07	3440.59
425.26	3342.28
425.45	3300.16
425.64	3485.06
425.83	3459.31
426.01	3487.40
426.20	3403.14
426.39	3494.42
426.58	3468.67
426.77	3494.42
426.96	3368.03
427.15	3676.98
427.33	3517.83
427.52	3496.76
427.71	3653.58
427.90	3620.81
428.09	3852.52
428.28	3644.21
428.46	3707.41
428.65	3637.19
428.84	3808.05
429.03	3707.41
429.22	3630.17
429.40	3726.13
429.59	3641.87
429.78	3506.12
429.97	3616.13
430.16	3653.58
430.34	3719.11
430.53	3721.45
430.72	3843.16
430.91	3801.03
431.10	3740.18
431.28	3934.44
431.47	4081.89
431.66	4044.45
431.85	3969.55
432.03	4154.45
432.22	4210.62
432.41	4131.05
432.60	4145.09
432.79	4252.75
432.97	4114.66
433.16	4072.53
433.35	4175.52
433.54	4262.12
433.72	4231.69
433.91	4091.26
434.10	4135.73
434.28	4201.26
434.47	4294.88
434.66	4210.62
434.85	4346.37
435.03	4362.76
435.22	4327.65
435.41	4521.92
435.59	4390.84
435.78	4430.63
435.97	4514.89
436.16	4449.36
436.34	4346.37
436.53	4465.74
436.72	4561.70
436.90	4404.89
437.09	4512.55
437.28	4428.29
437.46	4425.95
437.65	4510.21
437.84	4610.86
438.02	4627.24
438.21	4542.98
438.40	4557.02
438.58	4755.97
438.77	4744.27
438.96	4807.46
439.14	4891.72
439.33	4933.85
439.52	4973.64
439.70	5085.98
439.89	5043.85
440.08	4975.98
440.26	5078.96
440.45	5011.09
440.63	5160.88
440.82	5242.80
441.01	5268.55
441.19	5132.79
441.38	5252.16
441.57	5219.39
441.75	5275.57
441.94	5373.87
442.12	5486.22
442.31	5610.26
442.50	5654.73
442.68	5439.40
442.87	5561.11
443.05	5610.26
443.24	5757.72
443.43	5607.92
443.61	5577.50
443.80	5746.02
443.98	5603.24
444.17	5327.06
444.35	5687.50
444.54	5652.39
444.73	5692.18
444.91	5631.33
445.10	5762.40
445.28	5671.12
445.47	5643.03
445.65	5643.03
445.84	5689.84
446.02	5668.78
446.21	5701.54
446.39	5727.29
446.58	5781.12
446.77	5825.59
446.95	5811.55
447.14	5659.42
447.32	5895.81
447.51	5886.45
447.69	5678.14
447.88	5837.30
448.06	5858.36
448.25	5865.38
448.43	5942.62
448.62	5764.74
448.80	5907.51
448.99	6005.81
449.17	5884.11
449.36	5713.25
449.54	6160.29
449.73	6029.22
449.91	5998.79
450.10	6139.23
450.28	6167.31
450.46	6132.20
450.65	6186.04
450.83	6207.10
451.02	6291.36
451.20	6263.27
451.39	6211.78
451.57	6230.51
451.76	6427.11
451.94	6267.95
452.13	6282.00
452.31	6272.64
452.49	6239.87
452.68	6380.30
452.86	6370.94
453.05	6394.34
453.23	6436.47
453.42	6338.17
453.60	6438.81
453.78	6485.62
453.97	6497.33
454.15	6424.77
454.34	6392.00
454.52	6595.63
454.70	6574.56
454.89	6637.76
455.07	6600.31
455.26	6609.67
455.44	6820.32
455.62	6703.29
455.81	6658.82
455.99	6895.22
456.17	6944.37
456.36	6829.68
456.54	6885.86
456.73	6995.86
456.91	7148.00
457.09	7014.59
457.28	7108.21
457.46	7075.44
457.64	7073.10
457.83	7037.99
458.01	7007.56
458.19	7290.77
458.38	7272.04
458.56	7290.77
458.74	7311.83
458.93	7084.80
459.11	7365.67
459.29	7112.89
459.48	7318.86
459.66	7346.94
459.84	7311.83
460.03	7583.34
460.21	7241.62
460.39	7508.44
460.57	7616.10
460.76	7447.58
460.94	7585.68
461.12	7524.82
461.31	7363.33
461.49	7674.62
461.67	7424.18
461.85	7765.90
462.04	7733.13
462.22	8131.02
462.40	7822.07
462.59	7716.75
462.77	7761.22
462.95	7824.41
463.13	7875.90
463.32	7873.56
463.50	7906.33
463.68	7817.39
463.86	7899.31
464.05	7850.16
464.23	7756.54
464.41	8035.06
464.59	7632.49
464.78	8126.34
464.96	7999.95
465.14	7936.76
465.32	7953.14
465.50	8173.15
465.69	8285.50
465.87	8156.77
466.05	8180.17
466.23	8081.87
466.41	8283.16
466.60	8397.84
466.78	8175.49
466.96	8056.12
467.14	8271.45
467.32	8428.27
467.51	8248.05
467.69	8299.54
467.87	8393.16
468.05	8397.84
468.23	8212.94
468.41	8241.03
468.60	8437.63
468.78	8374.44
468.96	8465.72
469.14	8617.85
469.32	8622.53
469.50	8273.79
469.69	8652.96
469.87	8589.77
470.05	8711.47
470.23	8636.58
470.41	8786.37
470.59	8861.27
470.77	8856.59
470.95	8826.16
471.14	9022.77
471.32	8706.79
471.50	9160.86
471.68	9004.04
471.86	9121.07
472.04	9142.13
472.22	9488.53
472.40	9008.72
472.58	9207.67
472.77	9263.84
472.95	9364.48
473.13	9710.88
473.31	9315.33
473.49	9371.50
473.67	9462.79
473.85	9296.61
474.03	9722.59
474.21	9741.31
474.39	9722.59
474.57	9832.59
474.75	9966.00
474.93	9834.93
475.12	9722.59
475.30	10022.17
475.48	10059.62
475.66	10286.65
475.84	10010.47
476.02	10176.65
476.20	10298.36
476.38	10406.02
476.56	10551.14
476.74	10441.13
476.92	10387.30
477.10	10363.89
477.28	10623.69
477.46	10443.47
477.64	10970.09
477.82	10981.79
478.00	11115.20
478.18	11152.65
478.36	11241.59
478.54	11208.83
478.72	11311.81
478.90	11445.22
479.08	11665.23
479.26	11698.00
479.44	11730.76
479.62	11667.57
479.80	11782.26
479.98	11808.00
480.16	12411.86
480.34	12112.27
480.52	12222.28
480.70	11988.22
480.88	12072.48
481.06	12156.74
481.24	12622.51
481.41	12526.55
481.59	13011.04
481.77	12723.15
481.95	12786.35
482.13	12996.99
482.31	13111.68
482.49	13125.72
482.67	13284.88
482.85	13263.82
483.03	13661.71
483.21	13289.56
483.39	13769.37
483.57	13722.56
483.74	13832.57
483.92	14017.47
484.10	13860.65
484.28	14127.47
484.46	14195.35
484.64	14539.41
484.82	14279.61
485.00	14464.51
485.18	14902.19
485.35	14747.72
485.53	14689.20
485.71	14806.23
485.89	15154.97
486.07	14977.09
486.25	15178.37
486.43	15386.68
486.61	15527.11
486.78	15484.98
486.96	15538.82
487.14	15761.17
487.32	15948.41
487.50	16198.85
487.68	16180.12
487.85	16379.07
488.03	16528.86
488.21	16723.13
488.39	16535.88
488.57	16716.11
488.75	17060.16
488.92	17350.39
489.10	17256.77
489.28	17411.25
489.46	17678.07
489.64	17322.30
489.81	17750.62
489.99	17972.97
490.17	17846.58
490.35	17951.91
490.53	18150.85
490.70	18391.93
490.88	18286.61
491.06	18647.05
491.24	18761.73
491.41	18537.04
491.59	18665.77
491.77	18953.66
491.95	18939.62
492.13	19267.29
492.30	19351.55
492.48	19697.95
492.66	19524.75
492.84	19676.88
493.01	19707.31
493.19	19644.12
493.37	19995.20
493.54	19943.70
493.72	20177.76
493.90	20292.44
494.08	20418.83
494.25	20662.25
494.43	20996.95
494.61	20786.30
494.79	20854.17
494.96	20989.92
495.14	21137.38
495.32	21324.62
495.49	21341.00
495.67	21345.69
495.85	21380.79
496.02	21385.47
496.20	21991.67
496.38	22157.85
496.55	21921.46
496.73	22335.73
496.91	22457.44
497.09	22333.39
497.26	22483.19
497.44	22724.26
497.62	22796.82
497.79	22862.35
497.97	23016.83
498.14	22820.22
498.32	23264.92
498.50	23080.02
498.67	23524.72
498.85	23300.03
499.03	23786.86
499.20	23599.62
499.38	23915.59
499.56	23669.84
499.73	24170.71
499.91	23910.91
500.08	24140.29
500.26	23857.08
500.44	24367.32
500.61	24201.14
500.79	24091.13
500.97	25167.78
501.14	24922.02
501.32	24910.32
501.49	24629.46
501.67	24400.08
501.84	24915.00
502.02	24898.62
502.20	25205.23
502.37	25357.36
502.55	25441.62
502.72	25083.52
502.90	25525.88
503.07	25764.62
503.25	25366.73
503.43	25432.26
503.60	25766.96
503.78	25781.00
503.95	25663.97
504.13	26026.76
504.30	26281.88
504.48	25720.15
504.65	26363.79
504.83	26391.88
505.01	26349.75
505.18	26375.50
505.36	27021.48
505.53	26726.58
505.71	26735.94
505.88	27227.45
506.06	26909.14
506.23	27047.23
506.41	26693.81
506.58	27040.21
506.76	27175.96
506.93	27222.77
507.11	27180.64
507.28	27061.27
507.46	27147.87
507.63	27597.26
507.81	27936.63
507.98	27454.48
508.16	27592.58
508.33	28056.00
508.50	28053.66
508.68	27920.25
508.85	28226.86
509.03	28315.80
509.20	28048.98
509.38	28465.60
509.55	28460.91
509.73	28629.43
509.90	28526.45
510.08	28379.00
510.25	28978.17
510.42	29008.60
510.60	28847.10
510.77	28961.79
510.95	29284.78
511.12	28783.91
511.30	28924.34
511.47	29659.27
511.64	29656.93
511.82	29369.04
511.99	29413.51
512.17	29717.78
512.34	29275.42
512.51	29591.39
512.69	30008.01
512.86	30061.84
513.04	30319.30
513.21	29972.90
513.38	30033.75
513.56	29883.96
513.73	30167.16
513.90	30103.97
514.08	30338.02
514.25	30614.21
514.43	30572.08
514.60	30883.37
514.77	30312.28
514.95	30747.62
515.12	30536.97
515.29	30813.15
515.47	31288.28
515.64	31175.94
515.81	30827.20
515.99	30974.65
516.16	30906.77
516.33	30972.31
516.51	31030.82
516.68	30998.06
516.85	31068.27
517.03	31201.68
517.20	31122.10
517.37	31285.94
517.54	31559.78
517.72	31950.65
517.89	31758.73
518.06	31473.18
518.24	31634.68
518.41	31611.28
518.58	32098.11
518.75	31929.59
518.93	32095.77
519.10	32259.60
519.27	32383.65
519.45	32268.97
519.62	32540.47
519.79	32369.61
519.96	32589.62
520.14	32739.41
520.31	32484.30
520.48	32847.08
520.65	32814.31
520.83	32624.73
521.00	32828.35
521.17	32992.19
521.34	33408.81
521.52	33095.18
521.69	33383.06
521.86	33352.63
522.03	33434.55
522.20	33530.51
522.38	33818.40
522.55	33476.68
522.72	33654.56
522.89	33895.64
523.07	34050.11
523.24	33921.38
523.41	33755.21
523.58	33975.22
523.75	34438.64
523.92	34499.50
524.10	34635.25
524.27	34260.76
524.44	34078.20
524.61	34600.14
524.78	34340.34
524.96	34726.53
525.13	35225.06
525.30	35054.20
525.47	35152.51
525.64	34815.47
525.81	35171.23
525.98	34810.79
526.16	35019.10
526.33	34773.34
526.50	34918.45
526.67	34485.45
526.84	34550.99
527.01	35021.44
527.18	35206.34
527.36	35257.83
527.53	35599.55
527.70	35742.32
527.87	35608.91
528.04	35211.02
528.21	35541.03
528.38	35386.56
528.55	35732.96
528.72	35952.97
528.89	35606.57
529.07	36135.53
529.24	35864.03
529.41	36095.74
529.58	36081.70
529.75	36322.77
529.92	36713.64
530.09	36425.76
530.26	36203.41
530.43	36467.89
530.60	36032.55
530.77	36287.67
530.94	36332.14
531.11	36495.97
531.28	36753.43
531.46	36624.70
531.63	36704.28
531.80	36624.70
531.97	36634.06
532.14	36472.57
532.31	36706.62
532.48	37116.22
532.65	36851.73
532.82	36940.68
532.99	36996.85
533.16	36690.24
533.33	37574.96
533.50	37120.90
533.67	37457.93
533.84	37254.31
534.01	37523.47
534.18	37551.56
534.35	37603.05
534.52	37312.82
534.69	37675.60
534.86	37638.15
535.03	37413.46
535.20	37792.63
535.37	38143.71
535.54	38447.98
535.71	38078.18
535.88	37574.96
536.05	37804.33
536.22	38050.09
536.38	37574.96
536.55	37792.63
536.72	37825.40
536.89	37806.67
537.06	37816.04
537.23	38370.74
537.40	37923.70
537.57	38216.27
537.74	38361.38
537.91	38555.64
538.08	38611.82
538.25	38246.69
538.42	38618.84
538.59	38609.48
538.75	38265.42
538.92	38286.48
539.09	39105.67
539.26	38712.46
539.43	38747.57
539.60	38838.85
539.77	38899.70
539.94	38969.92
540.11	38721.82
540.28	39145.46
540.44	38693.74
540.61	39037.80
540.78	38937.15
540.95	39232.06
541.12	39051.84
541.29	38869.28
541.46	38639.90
541.62	39271.85
541.79	39356.11
541.96	39173.55
542.13	38705.44
542.30	39559.73
542.47	39313.98
542.63	38892.68
542.80	39625.27
542.97	40149.55
543.14	40271.26
543.31	40072.31
543.48	40212.74
543.64	40343.81
543.81	39959.97
543.98	39943.58
544.15	39744.64
544.32	40130.83
544.48	40612.98
544.65	40458.50
544.82	40266.58
544.99	39882.73
545.16	40467.86
545.32	40376.58
545.49	40472.54
545.66	40615.32
545.83	40893.84
546.00	40720.64
546.16	40212.74
546.33	40182.32
546.50	40191.68
546.67	40308.71
546.83	40460.84
547.00	40673.83
547.17	40325.09
547.34	40786.18
547.50	40842.35
547.67	40961.72
547.84	40767.45
548.00	41324.50
548.17	41265.99
548.34	40985.12
548.51	40849.37
548.67	41092.79
548.84	41289.39
549.01	41151.30
549.18	41113.85
549.34	41544.51
549.51	41432.16
549.68	41364.29
549.84	41345.56
550.01	41771.54
550.18	41027.25
550.34	41654.51
550.51	41500.04
550.68	41188.75
550.84	40837.67
551.01	41879.21
551.18	41483.66
551.34	41132.57
551.51	41647.49
551.68	41408.76
551.84	41991.55
552.01	41195.77
552.18	41319.82
552.34	41624.09
552.51	41677.92
552.68	41668.56
552.84	41673.24
553.01	41792.61
553.18	42150.71
553.34	42150.71
553.51	42033.68
553.67	41495.36
553.84	42298.16
554.01	42522.85
554.17	41984.53
554.34	42199.86
554.51	42014.96
554.67	42440.93
554.84	41975.17
555.00	42377.74
555.17	42263.05
555.33	42029.00
555.50	42579.03
555.67	42361.36
555.83	42408.17
556.00	42157.73
556.16	42635.20
556.33	42682.01
556.50	42351.99
556.66	42770.95
556.83	42068.79
556.99	42651.58
557.16	42422.21
557.32	42504.13
557.49	42473.70
557.65	42380.08
557.82	42553.28
557.98	42323.91
558.15	42639.88
558.32	42628.18
558.48	42637.54
558.65	42983.94
558.81	43021.39
558.98	42843.51
559.14	42447.96
559.31	42927.77
559.47	43154.80
559.64	43206.29
559.80	43000.32
559.97	43297.57
560.13	42941.81
560.30	42960.53
560.46	43278.85
560.63	42822.44
560.79	43199.27
560.96	43192.25
561.12	43049.47
561.29	43201.61
561.45	42976.92
561.61	42976.92
561.78	42885.64
561.94	43072.88
562.11	42953.51
562.27	43475.45
562.44	42562.64
562.60	42806.06
562.77	43571.41
562.93	43150.12
563.10	43583.12
563.26	43145.44
563.42	43093.94
563.59	43049.47
563.75	43463.75
563.92	43192.25
564.08	42838.83
564.24	43367.79
564.41	43257.78
564.57	43089.26
564.74	43592.48
564.90	43732.91
565.07	43332.68
565.23	43641.63
565.39	43543.33
565.56	43569.07
565.72	43154.80
565.88	43636.95
566.05	43374.81
566.21	43573.75
566.38	43208.63
566.54	43751.63
566.70	43643.97
566.87	43814.83
567.03	43704.82
567.19	44287.62
567.36	43592.48
567.52	43456.73
567.68	43964.62
567.85	43548.01
568.01	44142.50
568.17	43650.99
568.34	43805.47
568.50	43920.15
568.66	43861.64
568.83	44098.03
568.99	43482.47
569.15	43466.09
569.32	43367.79
569.48	43997.39
569.64	43777.38
569.81	43777.38
569.97	43744.61
570.13	44170.59
570.30	43761.00
570.46	43515.24
570.62	43269.48
570.78	43250.76
570.95	44037.18
571.11	43896.75
571.27	43566.73
571.43	43768.02
571.60	43959.94
571.76	43559.71
571.92	43374.81
572.09	43761.00
572.25	43803.13
572.41	43849.94
572.57	44149.53
572.74	44399.96
572.90	44100.37
573.06	43835.89
573.22	43896.75
573.38	44072.29
573.55	43896.75
573.71	44151.87
573.87	44165.91
574.03	43641.63
574.20	44179.95
574.36	44336.77
574.52	43868.66
574.68	43845.26
574.84	43936.54
575.01	43952.92
575.17	44034.84
575.33	43948.24
575.49	43412.26
575.65	44189.31
575.82	44217.40
575.98	43847.60
576.14	44201.02
576.30	44378.90
576.46	43985.69
576.62	43861.64
576.79	43817.17
576.95	43894.41
577.11	43859.30
577.27	44100.37
577.43	43669.72
577.59	44292.30
577.75	44397.62
577.92	44053.56
578.08	43578.43
578.24	44203.36
578.40	43793.76
578.56	44273.57
578.72	44009.09
578.88	44474.86
579.04	43693.12
579.21	43957.60
579.37	44161.23
579.53	43997.39
579.69	43845.26
579.85	43868.66
580.01	43695.46
580.17	44109.74
580.33	44357.83
580.49	44311.02
580.65	44172.93
580.82	44346.13
580.98	44411.67
581.14	44231.44
581.30	44369.54
581.46	44341.45
581.62	44196.34
581.78	44570.82
581.94	44575.50
582.10	44376.56
582.26	44465.50
582.42	44311.02
582.58	44130.80
582.74	44067.61
582.90	44360.17
583.06	44133.14
583.22	44184.63
583.38	44048.88
583.54	44222.08
583.70	44299.32
583.86	43826.53
584.02	43681.42
584.18	44163.57
584.34	44102.71
584.50	44285.28
584.66	43693.12
584.82	43924.83
584.98	44535.71
585.14	44032.50
585.30	43805.47
585.46	44076.97
585.62	44105.06
585.78	44304.00
585.94	44034.84
586.10	44397.62
586.26	44201.02
586.42	44062.93
586.58	44252.51
586.74	44542.74
586.90	44098.03
587.06	44002.07
587.22	44561.46
587.38	44423.37
587.54	44676.15
587.70	44837.64
587.86	44250.17
588.02	44641.04
588.18	44758.06
588.34	44418.69
588.49	44144.84
588.65	44156.55
588.81	44069.95
588.97	44004.41
589.13	44299.32
589.29	44512.31
589.45	44406.98
589.61	44671.46
589.77	44755.72
589.93	44275.91
590.08	44596.57
590.24	44521.67
590.40	44498.26
590.56	44435.07
590.72	44854.03
590.88	44179.95
591.04	44928.92
591.20	44837.64
591.35	44561.46
591.51	45404.05
591.67	44762.75
591.83	44601.25
591.99	44294.64
592.15	44392.94
592.31	44821.26
592.46	44554.44
592.62	44414.01
592.78	44734.66
592.94	44486.56
593.10	44156.55
593.26	44680.83
593.41	44589.55
593.57	44355.49
593.73	44767.43
593.89	44626.99
594.05	44538.05
594.20	44669.12
594.36	44952.33
594.52	44367.20
594.68	44226.76
594.84	44737.00
594.99	45146.59
595.15	44673.81
595.31	44662.10
595.47	44816.58
595.62	44980.42
595.78	44559.12
595.94	45109.14
596.10	44753.38
596.25	44666.78
596.41	44877.43
596.57	44765.09
596.73	44500.61
596.88	44416.35
597.04	44472.52
597.20	44495.92
597.36	44762.75
597.51	44830.62
597.67	44673.81
597.83	44945.31
597.99	45038.93
598.14	44844.66
598.30	44903.18
598.46	44861.05
598.61	44535.71
598.77	44392.94
598.93	44631.68
599.09	44914.88
599.24	45118.51
599.40	44870.41
599.56	44961.69
599.71	45240.21
599.87	44753.38
600.03	44905.52
600.18	44767.43
600.34	44652.74
600.50	44755.72
600.65	44825.94
600.81	45280.00
600.97	45144.25
601.12	45387.67
601.28	45123.19
601.44	44863.39
601.59	44781.47
601.75	44935.95
601.91	44746.36
602.06	44664.44
602.22	45062.33
602.37	44767.43
602.53	44828.28
602.69	44919.56
602.84	44423.37
603.00	44566.14
603.16	44753.38
603.31	44322.72
603.47	44360.17
603.62	44636.36
603.78	44737.00
603.94	44821.26
604.09	44608.27
604.25	44776.79
604.40	44711.25
604.56	44605.93
604.71	44718.28
604.87	44669.12
605.03	44769.77
605.18	44657.42
605.34	44615.29
605.49	44210.38
605.65	44666.78
605.80	44708.91
605.96	44907.86
606.12	45095.10
606.27	44966.37
606.43	44456.14
606.58	45036.59
606.74	44465.50
606.89	44435.07
607.05	44957.01
607.20	44832.96
607.36	44486.56
607.51	44694.87
607.67	44715.93
607.82	44631.68
607.98	44346.13
608.13	44737.00
608.29	44552.10
608.44	44526.35
608.60	43981.01
608.75	43973.98
608.91	44079.31
609.06	44301.66
609.22	44514.65
609.37	44027.82
609.53	44371.88
609.68	44612.95
609.84	44481.88
609.99	44243.15
610.15	44130.80
610.30	44355.49
610.46	44137.82
610.61	44133.14
610.76	44194.00
610.92	44137.82
611.07	44542.74
611.23	44545.08
611.38	44402.30
611.54	43529.28
611.69	43826.53
611.84	44018.46
612.00	44177.61
612.15	44065.27
612.31	44329.75
612.46	43885.04
612.62	44334.43
612.77	43824.19
612.92	44114.42
613.08	43796.10
613.23	44083.99
613.39	43868.66
613.54	43222.67
613.69	43978.67
613.85	44069.95
614.00	44156.55
614.15	44594.23
614.31	44329.75
614.46	44336.77
614.62	43800.79
614.77	43833.55
614.92	43440.34
615.08	43391.19
615.23	43477.79
615.38	43653.33
615.54	43236.72
615.69	43885.04
615.84	43185.22
616.00	43510.56
616.15	43372.47
616.30	43988.03
616.46	43215.65
616.61	43283.53
616.76	43157.14
616.92	43449.70
617.07	43531.62
617.22	43332.68
617.37	43063.52
617.53	43550.35
617.68	43917.81
617.83	43370.13
617.99	43849.94
618.14	43133.73
618.29	43377.15
618.45	43005.00
618.60	43323.32
618.75	43440.34
618.90	42972.24
619.06	43328.00
619.21	43157.14
619.36	43290.55
619.51	42731.16
619.67	42827.12
619.82	43164.16
619.97	43370.13
620.12	42759.25
620.28	42995.64
620.43	42944.15
620.58	42927.77
620.73	43040.11
620.89	42576.69
621.04	43093.94
621.19	43072.88
621.34	42560.30
621.49	42660.94
621.65	42822.44
621.80	42462.00
621.95	42749.88
622.10	43100.97
622.25	42525.19
622.41	42251.35
622.56	42560.30
622.71	42897.34
622.86	42799.04
623.01	42663.28
623.16	42637.54
623.32	42569.66
623.47	42962.87
623.62	42815.42
623.77	42506.47
623.92	42260.71
624.07	42450.30
624.23	42344.97
624.38	42394.12
624.53	42522.85
624.68	42192.84
624.83	41951.76
624.98	42717.12
625.13	42031.34
625.29	41944.74
625.44	42335.61
625.59	42085.17
625.74	42150.71
625.89	41862.82
626.04	41654.51
626.19	42007.94
626.34	41820.69
626.49	42300.50
626.65	42141.35
626.80	41926.02
626.95	42134.32
627.10	42040.70
627.25	41937.72
627.40	41556.21
627.55	41434.50
627.70	41088.10
627.85	41268.33
628.00	41331.52
628.15	42117.94
628.30	41790.27
628.45	41399.40
628.60	41652.17
628.76	41916.65
628.91	41237.90
629.06	41373.65
629.21	41495.36
629.36	41729.41
629.51	41443.87
629.66	41394.71
629.81	41109.17
629.96	41148.96
630.11	41446.21
630.26	41579.62
630.41	41563.23
630.56	41504.72
630.71	41478.97
630.86	41308.11
631.01	41230.88
631.16	41137.26
631.31	40767.45
631.46	40612.98
631.61	41177.04
631.76	41305.77
631.91	41132.57
632.06	41036.61
632.21	41106.83
632.36	41207.47
632.51	41043.63
632.66	41027.25
632.81	40552.12
632.96	40978.10
633.10	40638.72
633.25	40687.87
633.40	40945.33
633.55	40879.80
633.70	40793.20
633.85	40582.55
634.00	40912.56
634.15	40751.07
634.30	40540.42
634.45	40526.38
634.60	40573.19
634.75	40699.58
634.90	40385.94
635.05	40554.46
635.19	40645.74
635.34	40797.88
635.49	40458.50
635.64	40119.12
635.79	40177.64
635.94	40257.21
636.09	40268.92
636.24	40093.38
636.39	39796.13
636.53	40201.04
636.68	39505.90
636.83	39931.88
636.98	40156.57
637.13	39709.53
637.28	40215.08
637.43	40182.32
637.57	40411.69
637.72	40067.63
637.87	40048.91
638.02	39718.89
638.17	39924.86
638.32	39796.13
638.46	40023.16
638.61	39578.46
638.76	39253.12
638.91	39782.09
639.06	39564.42
639.20	39814.85
639.35	40023.16
639.50	39651.02
639.65	40025.50
639.80	39945.92
639.94	39831.24
640.09	39498.88
640.24	39281.21
640.39	39234.40
640.54	39716.55
640.68	39716.55
640.83	39435.69
640.98	39330.36
641.13	39409.94
641.27	39835.92
641.42	39218.02
641.57	39199.29
641.72	39686.12
641.86	39065.88
642.01	39194.61
642.16	39166.52
642.31	38960.56
642.45	39140.78
642.60	39103.33
642.75	38878.64
642.90	39070.56
643.04	38937.15
643.19	39105.67
643.34	39005.03
643.48	38934.81
643.63	39049.50
643.78	38485.43
643.93	39140.78
644.07	38607.14
644.22	39133.76
644.37	38373.08
644.51	38993.32
644.66	38911.41
644.81	38656.29
644.95	38976.94
645.10	38752.25
645.25	39150.14
645.39	38876.30
645.54	38983.96
645.69	38850.55
645.83	38497.13
645.98	38960.56
646.13	38878.64
646.27	38642.24
646.42	38349.68
646.57	38611.82
646.71	38665.65
646.86	38873.96
647.00	38806.08
647.15	38696.08
647.30	38403.51
647.44	38675.01
647.59	38450.32
647.74	38405.85
647.88	38281.80
648.03	38234.99
648.17	37848.80
648.32	38124.99
648.47	38595.43
648.61	37993.92
648.76	37949.45
648.90	38050.09
649.05	38279.46
649.20	37965.83
649.34	38272.44
649.49	37907.32
649.63	38242.01
649.78	37979.87
649.92	38022.00
650.07	38176.48
650.21	37514.11
650.36	37703.69
650.51	37750.50
650.65	38160.09
650.80	38686.71
650.94	38082.86
651.09	38174.14
651.23	37724.75
651.38	37258.99
651.52	37486.02
651.67	37404.10
651.81	37731.78
651.96	37324.52
652.10	37600.71
652.25	37411.12
652.39	37574.96
652.54	37432.19
652.68	37607.73
652.83	37479.00
652.97	37895.61
653.12	37764.54
653.26	37326.86
653.41	37198.13
653.55	37287.07
653.70	37146.64
653.84	37312.82
653.99	37111.53
654.13	37354.95
654.27	37352.61
654.42	37305.80
654.56	37202.82
654.71	36914.93
654.85	37521.13
655.00	37429.85
655.14	36917.27
655.29	37043.66
655.43	36793.22
655.57	36985.15
655.72	36776.84
655.86	37057.70
656.01	36708.96
656.15	36767.48
656.30	36835.35
656.44	36629.38
656.58	36676.19
656.73	36329.80
656.87	36238.51
657.01	36573.21
657.16	36708.96
657.30	36549.81
657.45	36032.55
657.59	36479.59
657.73	36495.97
657.88	36477.25
658.02	36627.04
658.16	36311.07
658.31	36807.26
658.45	36414.05
658.60	36503.00
658.74	36664.49
658.88	36526.40
659.03	36304.05
659.17	35955.31
659.31	36093.40
659.46	35639.34
659.60	36011.48
659.74	35908.50
659.89	35697.85
660.03	36280.64
660.17	35971.69
660.32	36060.63
660.46	36598.96
660.60	35929.56
660.74	35997.44
660.89	35686.15
661.03	35367.84
661.17	35433.37
661.32	35204.00
661.46	35297.62
661.60	35454.44
661.74	35494.22
661.89	35339.75
662.03	35489.54
662.17	35232.08
662.31	35431.03
662.46	35126.76
662.60	35482.52
662.74	34869.30
662.88	35686.15
663.03	34932.50
663.17	35227.40
663.31	35115.06
663.45	34974.63
663.60	35049.52
663.74	34410.56
663.88	34829.51
664.02	35089.31
664.17	34878.66
664.31	34656.31
664.45	34480.77
664.59	34548.65
664.73	34394.17
664.88	34340.34
665.02	33982.24
665.16	34396.51
665.30	34312.25
665.44	34146.08
665.59	34115.65
665.73	34127.35
665.87	33869.89
666.01	34005.64
666.15	34024.37
666.29	34054.79
666.44	33689.67
666.58	33832.44
666.72	33579.67
666.86	34064.16
667.00	33633.50
667.14	33612.43
667.28	33453.28
667.43	32987.51
667.57	33525.83
667.71	33160.71
667.85	33532.86
667.99	33357.32
668.13	33315.19
668.27	33076.45
668.41	33376.04
668.56	33001.55
668.70	33202.84
668.84	33076.45
668.98	33067.09
669.12	32882.19
669.26	32774.52
669.40	33237.95
669.54	32882.19
669.68	33039.00
669.82	32730.05
669.96	32650.47
670.10	32423.44
670.25	32835.38
670.39	32264.28
670.53	32718.35
670.67	32697.28
670.81	32641.11
670.95	32507.70
671.09	32121.51
671.23	32137.90
671.37	32135.56
671.51	32301.73
671.65	31576.17
671.79	31995.12
671.93	31866.39
672.07	32098.11
672.21	31833.63
672.35	31606.59
672.49	31428.71
672.63	31796.18
672.77	31519.99
672.91	31529.36
673.05	31480.21
673.19	31360.84
673.33	31529.36
673.47	31101.04
673.61	30906.77
673.75	30822.51
673.89	30892.73
674.03	30714.85
674.17	30658.68
674.31	30600.16
674.45	31023.80
674.59	30485.48
674.73	31023.80
674.87	30679.74
675.01	30581.44
675.15	30792.09
675.29	30639.95
675.43	30574.42
675.56	30426.96
675.70	30096.95
675.84	30113.33
675.98	29170.10
676.12	29776.30
676.26	29809.06
676.40	29586.71
676.54	29390.11
676.68	29876.94
676.82	29401.81
676.96	29163.08
677.10	29032.00
677.23	29228.61
677.37	29305.85
677.51	28694.97
677.65	29132.65
677.79	28819.02
677.93	28795.61
678.07	28507.72
678.21	28212.82
678.34	28512.41
678.48	28521.77
678.62	28224.52
678.76	28086.43
678.90	28278.35
679.04	28060.68
679.18	28173.03
679.31	27992.81
679.45	27737.69
679.59	27452.14
679.73	27857.06
679.87	27534.06
680.00	27800.88
680.14	27679.18
680.28	27061.27
680.42	27414.69
680.56	27292.99
680.70	26998.08
680.83	26649.34
680.97	26499.55
681.11	27044.89
681.25	26778.07
681.39	26698.49
681.52	27068.30
681.66	26862.33
681.80	26574.44
681.94	26291.24
682.07	26368.48
682.21	26398.90
682.35	25928.45
682.49	26199.96
682.62	26132.08
682.76	25891.01
682.90	25788.02
683.04	25795.04
683.17	25706.10
683.31	26024.42
683.45	25797.38
683.59	25401.83
683.72	25259.06
683.86	25230.98
684.00	24978.20
684.13	25504.82
684.27	25202.89
684.41	25177.14
684.55	24762.87
684.68	24482.00
684.82	24713.72
684.96	24732.44
685.09	24306.46
685.23	23775.16
685.37	24119.22
685.50	24339.23
685.64	24049.00
685.78	23948.36
685.91	23997.51
686.05	23847.72
686.19	23632.39
686.32	23667.50
686.46	23632.39
686.60	23349.18
686.73	23491.96
686.87	23236.84
687.01	22967.68
687.14	22948.95
687.28	23260.24
687.42	23096.41
687.55	22740.64
687.69	22649.36
687.82	22583.83
687.96	22522.98
688.10	22675.11
688.23	22551.06
688.37	22066.57
688.50	21869.97
688.64	22267.86
688.78	22167.21
688.91	22029.12
689.05	22277.22
689.18	21797.41
689.32	21656.98
689.46	21891.03
689.59	22012.74
689.73	21607.83
689.86	21673.36
690.00	21355.05
690.13	21797.41
690.27	21467.39
690.41	21345.69
690.54	20992.26
690.68	21153.76
690.81	21027.37
690.95	20987.58
691.08	20793.32
691.22	20830.77
691.35	20788.64
691.49	20826.09
691.62	20856.51
691.76	20683.31
691.89	20451.60
692.03	20301.81
692.16	20100.52
692.30	20226.91
692.43	20149.67
692.57	19878.17
692.70	19997.54
692.84	19726.04
692.97	19468.58
693.11	19653.48
693.24	19543.47
693.38	19428.79
693.51	19412.40
693.65	19391.34
693.78	19557.52
693.92	19126.86
694.05	19208.78
694.19	19241.54
694.32	19187.71
694.45	19283.67
694.59	18925.57
694.72	18740.67
694.86	18923.23
694.99	18689.18
695.13	18256.18
695.26	18352.14
695.39	18394.27
695.53	18326.39
695.66	18272.56
695.80	18029.15
695.93	17818.50
696.07	18136.81
696.20	17668.70
696.33	17640.62
696.47	17687.43
696.60	17874.67
696.73	17958.93
696.87	17621.89
697.00	17715.51
697.14	17701.47
697.27	17434.65
697.40	17067.19
697.54	17338.69
697.67	17109.32
697.80	17369.12
697.94	17160.81
698.07	16940.80
698.21	17132.72
698.34	16835.47
698.47	16685.68
698.61	16580.36
698.74	16339.28
698.87	16503.12
699.01	16098.20
699.14	16105.23
699.27	16194.17
699.40	16205.87
699.54	15740.10
699.67	15983.52
699.80	15910.96
699.94	15723.72
700.07	15983.52
700.20	15693.29
700.34	15674.57
700.47	15623.08
700.60	15578.61
700.73	15484.98
700.87	15489.67
701.00	15473.28
701.13	15302.42
701.26	15325.83
701.40	15358.60
701.53	14984.11
701.66	15260.29
701.79	15143.27
701.93	15330.51
702.06	14464.51
702.19	14700.90
702.32	14857.72
702.46	14469.19
702.59	14637.71
702.72	14485.58
702.85	14611.96
702.99	14452.81
703.12	14611.96
703.25	14642.39
703.38	14705.59
703.51	14319.40
703.65	14094.71
703.78	14242.16
703.91	14136.84
704.04	14223.44
704.17	14012.79
704.31	13748.31
704.44	13572.77
704.57	13549.36
704.70	13462.76
704.83	13575.11
704.96	13554.04
705.10	13488.51
705.23	13708.52
>>>>>End Processed Spectral Data<<<<<
