SpectraSuite Data File
++++++++++++++++++++++++++++++++++++
Date: Fri Oct 25 10:43:23 EDT 2013
User: price-jones
Dark Spectrum Present: No
Reference Spectrum Present: No
Number of Sampled Component Spectra: 1
Spectrometers: USB2+H05261
Integration Time (usec): 100000 (USB2+H05261)
Spectra Averaged: 1 (USB2+H05261)
Boxcar Smoothing: 0 (USB2+H05261)
Correct for Electrical Dark: No (USB2+H05261)
Strobe/Lamp Enabled: No (USB2+H05261)
Correct for Detector Non-linearity: No (USB2+H05261)
Correct for Stray Light: No (USB2+H05261)
Number of Pixels in Processed Spectrum: 2048
>>>>>Begin Processed Spectral Data<<<<<
365.73	147.45
365.92	147.45
366.12	147.45
366.32	9.36
366.52	70.22
366.72	18.72
366.91	42.13
367.11	0.00
367.31	0.00
367.51	0.00
367.70	4.68
367.90	88.94
368.10	49.15
368.30	133.41
368.49	35.11
368.69	30.43
368.89	74.90
369.09	28.09
369.28	100.64
369.48	16.38
369.68	74.90
369.87	42.13
370.07	56.17
370.27	131.07
370.47	227.03
370.66	411.93
370.86	390.87
371.06	383.85
371.25	486.83
371.45	435.34
371.65	484.49
371.84	430.66
372.04	451.72
372.24	449.38
372.44	566.41
372.63	463.43
372.83	421.30
373.03	531.30
373.22	489.17
373.42	496.19
373.62	510.24
373.81	533.64
374.01	582.79
374.21	559.39
374.40	582.79
374.60	594.50
374.79	517.26
374.99	571.09
375.19	524.28
375.38	531.30
375.58	599.18
375.78	641.31
375.97	599.18
376.17	648.33
376.37	599.18
376.56	592.16
376.76	617.90
376.95	564.07
377.15	660.03
377.35	648.33
377.54	638.97
377.74	606.20
377.93	695.14
378.13	664.71
378.33	636.63
378.52	587.47
378.72	692.80
378.91	667.05
379.11	695.14
379.31	685.78
379.50	643.65
379.70	739.61
379.89	627.26
380.09	720.88
380.28	664.71
380.48	699.82
380.68	685.78
380.87	781.74
381.07	734.93
381.26	709.18
381.46	718.54
381.65	819.19
381.85	739.61
382.04	610.88
382.24	699.82
382.43	727.91
382.63	695.14
382.83	664.71
383.02	667.05
383.22	758.33
383.41	688.12
383.61	718.54
383.80	767.70
384.00	732.59
384.19	791.10
384.39	751.31
384.58	784.08
384.78	774.72
384.97	842.59
385.17	786.42
385.36	812.17
385.56	702.16
385.75	814.51
385.95	777.06
386.14	772.38
386.34	884.72
386.53	840.25
386.72	807.48
386.92	882.38
387.11	896.43
387.31	908.13
387.50	880.04
387.70	840.25
387.89	835.57
388.09	912.81
388.28	931.53
388.48	903.45
388.67	866.00
388.86	947.92
389.06	957.28
389.25	959.62
389.45	945.58
389.64	945.58
389.84	1008.77
390.03	985.37
390.22	1029.84
390.42	1046.22
390.61	985.37
390.81	992.39
391.00	968.98
391.19	1109.41
391.39	1048.56
391.58	1004.09
391.78	1055.58
391.97	997.07
392.16	940.90
392.36	1050.90
392.55	1006.43
392.75	952.60
392.94	1039.20
393.13	1013.45
393.33	1022.81
393.52	1064.94
393.71	1146.86
393.91	1132.82
394.10	1153.88
394.29	1067.28
394.49	1151.54
394.68	1207.72
394.88	1231.12
395.07	1284.95
395.26	1188.99
395.46	1200.69
395.65	1343.47
395.84	1198.35
396.04	1306.02
396.23	1188.99
396.42	1219.42
396.62	1170.27
396.81	1235.80
397.00	1191.33
397.19	1266.23
397.39	1291.98
397.58	1364.53
397.77	1432.41
397.97	1416.02
398.16	1444.11
398.35	1352.83
398.55	1399.64
398.74	1479.22
398.93	1542.41
399.12	1516.67
399.32	1516.67
399.51	1544.75
399.70	1575.18
399.90	1521.35
400.09	1504.96
400.28	1584.54
400.47	1710.93
400.67	1624.33
400.86	1600.93
401.05	1631.35
401.24	1696.89
401.44	1682.85
401.63	1741.36
401.82	1668.80
402.01	1750.72
402.21	1692.21
402.40	1708.59
402.59	1774.13
402.78	1706.25
402.97	1722.63
403.17	1823.28
403.36	1844.34
403.55	1881.79
403.74	1865.41
403.93	1935.62
404.13	1956.69
404.32	1858.39
404.51	1900.52
404.70	2001.16
404.89	1902.86
405.09	1956.69
405.28	1968.39
405.47	2050.31
405.66	2040.95
405.85	1994.14
406.05	2073.71
406.24	1966.05
406.43	2080.74
406.62	2052.65
406.81	2204.78
407.00	2076.06
407.20	2129.89
407.39	1980.09
407.58	2106.48
407.77	2249.25
407.96	2195.42
408.15	2188.40
408.34	2260.96
408.54	2221.17
408.73	2354.58
408.92	2321.81
409.11	2263.30
409.30	2235.21
409.49	2298.41
409.68	2342.88
409.87	2256.28
410.07	2392.03
410.26	2228.19
410.45	2495.01
410.64	2392.03
410.83	2478.63
411.02	2525.44
411.21	2630.76
411.40	2588.63
411.59	2670.55
411.78	2626.08
411.98	2612.04
412.17	2712.68
412.36	2619.06
412.55	2572.25
412.74	2717.36
412.93	2789.92
413.12	2789.92
413.31	2822.69
413.50	2733.75
413.69	2878.86
413.88	2953.76
414.07	2808.64
414.26	2855.45
414.45	2977.16
414.64	2993.55
414.83	2932.69
415.02	3061.42
415.22	3126.96
415.41	3187.81
415.60	3059.08
415.79	3176.11
415.98	3290.79
416.17	3321.22
416.36	3204.19
416.55	3286.11
416.74	3328.24
416.93	3253.34
417.12	3330.58
417.31	3321.22
417.50	3421.86
417.69	3449.95
417.88	3382.07
418.07	3414.84
418.26	3510.80
418.45	3637.19
418.64	3641.87
418.83	3623.15
419.02	3499.10
419.21	3700.39
419.39	3482.72
419.58	3520.17
419.77	3536.55
419.96	3595.06
420.15	3808.05
420.34	3772.94
420.53	3698.05
420.72	3889.97
420.91	3946.14
421.10	3826.78
421.29	3946.14
421.48	3887.63
421.67	3866.56
421.86	3674.64
422.05	3829.12
422.24	3871.25
422.43	3630.17
422.61	3843.16
422.80	3794.01
422.99	3852.52
423.18	3995.29
423.37	4060.83
423.56	4021.04
423.75	3882.95
423.94	4004.66
424.13	3714.43
424.32	3726.13
424.50	4016.36
424.69	4011.68
424.88	3992.95
425.07	3899.33
425.26	3906.35
425.45	3953.16
425.64	4011.68
425.83	3955.51
426.01	4081.89
426.20	4053.81
426.39	4046.79
426.58	3894.65
426.77	3988.27
426.96	3934.44
427.15	4173.18
427.33	4077.21
427.52	4039.76
427.71	4152.11
427.90	4189.56
428.09	4215.30
428.28	4079.55
428.46	4142.75
428.65	4182.54
428.84	4250.41
429.03	4252.75
429.22	4236.37
429.40	4145.09
429.59	4105.30
429.78	3997.64
429.97	3962.53
430.16	3985.93
430.34	4180.20
430.53	4224.67
430.72	4287.86
430.91	4332.33
431.10	4304.25
431.28	4559.36
431.47	4547.66
431.66	4578.09
431.85	4690.43
432.03	4557.02
432.22	4699.80
432.41	4587.45
432.60	4652.98
432.79	4795.76
432.97	4676.39
433.16	4744.27
433.35	4638.94
433.54	4510.21
433.72	4603.83
433.91	4819.16
434.10	4760.65
434.28	4835.55
434.47	4971.30
434.66	4952.57
434.85	4931.51
435.03	5053.22
435.22	4947.89
435.41	5067.26
435.59	5069.60
435.78	5172.58
435.97	5259.18
436.16	5163.22
436.34	5107.05
436.53	5181.95
436.72	5310.68
436.90	5085.98
437.09	5144.50
437.28	5128.11
437.46	5149.18
437.65	5268.55
437.84	5261.52
438.02	5256.84
438.21	5142.16
438.40	5160.88
438.58	5350.46
438.77	5343.44
438.96	5507.28
439.14	5437.06
439.33	5565.79
439.52	5722.61
439.70	5535.37
439.89	5680.48
440.08	5516.64
440.26	5591.54
440.45	5600.90
440.63	5963.68
440.82	6120.50
441.01	5797.51
441.19	5989.43
441.38	6277.32
441.57	6174.33
441.75	6272.64
441.94	6244.55
442.12	6431.79
442.31	6464.56
442.50	6349.87
442.68	6434.13
442.87	6193.06
443.05	6380.30
443.24	6607.33
443.43	6551.16
443.61	6593.29
443.80	6719.68
443.98	6282.00
444.17	6305.40
444.35	6658.82
444.54	6609.67
444.73	6668.19
444.91	6335.83
445.10	6593.29
445.28	6342.85
445.47	6328.81
445.65	6476.26
445.84	6497.33
446.02	6743.08
446.21	6551.16
446.39	6473.92
446.58	6595.63
446.77	6429.45
446.95	6513.71
447.14	6633.08
447.32	6738.40
447.51	6677.55
447.69	6675.21
447.88	6642.44
448.06	6700.95
448.25	6682.23
448.43	6715.00
448.62	6715.00
448.80	6754.79
448.99	6848.41
449.17	6888.20
449.36	6801.60
449.54	6878.83
449.73	7063.74
449.91	7028.63
450.10	7103.53
450.28	7283.75
450.46	7344.60
450.65	7190.13
450.83	7103.53
451.02	7150.34
451.20	7426.52
451.39	7274.38
451.57	7375.03
451.76	7143.32
451.94	7155.02
452.13	7349.28
452.31	7272.04
452.49	7117.57
452.68	7307.15
452.86	7265.02
453.05	7279.07
453.23	7492.05
453.42	7215.87
453.60	7435.88
453.78	7379.71
453.97	7215.87
454.15	7571.63
454.34	7379.71
454.52	7665.25
454.70	7428.86
454.89	7569.29
455.07	7391.41
455.26	7726.11
455.44	7978.89
455.62	7674.62
455.81	7681.64
455.99	7662.91
456.17	7803.35
456.36	8049.10
456.54	7873.56
456.73	8093.57
456.91	8147.40
457.09	8023.36
457.28	8465.72
457.46	7878.24
457.64	8116.98
457.83	8109.96
458.01	8053.78
458.19	8325.29
458.38	8077.19
458.56	8374.44
458.74	8163.79
458.93	8170.81
459.11	8234.00
459.29	8379.12
459.48	8484.44
459.66	8379.12
459.84	8187.19
460.03	8587.43
460.21	8400.18
460.39	8379.12
460.57	8608.49
460.76	8706.79
460.94	8795.73
461.12	8667.00
461.31	8755.94
461.49	8676.37
461.67	8727.86
461.85	8954.89
462.04	8758.28
462.22	9212.35
462.40	9069.58
462.59	8889.35
462.77	8879.99
462.95	9125.75
463.13	9132.77
463.32	9027.45
463.50	8863.61
463.68	9069.58
463.86	9090.64
464.05	8875.31
464.23	8957.23
464.41	8910.42
464.59	9001.70
464.78	9177.24
464.96	8971.27
465.14	9067.24
465.32	9252.14
465.50	9406.61
465.69	9324.69
465.87	9380.87
466.05	9266.18
466.23	9198.31
466.41	9214.69
466.60	9397.25
466.78	9362.14
466.96	9231.07
467.14	9303.63
467.32	9352.78
467.51	9266.18
467.69	9331.72
467.87	9387.89
468.05	9696.84
468.23	9486.19
468.41	9497.89
468.60	9579.81
468.78	9664.07
468.96	9352.78
469.14	9551.73
469.32	9832.59
469.50	9558.75
469.69	9797.48
469.87	9886.42
470.05	9762.37
470.23	9738.97
470.41	9724.93
470.59	10057.28
470.77	9863.02
470.95	10045.58
471.14	10155.58
471.32	10010.47
471.50	10317.08
471.68	10251.55
471.86	10162.61
472.04	10321.76
472.22	10675.18
472.40	10059.62
472.58	10413.04
472.77	10597.95
472.95	10644.76
473.13	10792.21
473.31	10661.14
473.49	10448.15
473.67	10548.79
473.85	10661.14
474.03	11033.29
474.21	10939.66
474.39	11066.05
474.57	11070.73
474.75	11126.91
474.93	11112.86
475.12	11194.78
475.30	11208.83
475.48	10970.09
475.66	11379.68
475.84	11101.16
476.02	11541.18
476.20	11538.84
476.38	11578.63
476.56	12084.19
476.74	11978.86
476.92	11686.29
477.10	11854.81
477.28	12329.94
477.46	12133.34
477.64	12032.69
477.82	12060.78
478.00	12470.37
478.18	12587.40
478.36	12456.33
478.54	12739.54
478.72	12652.94
478.90	13076.57
479.08	13071.89
479.26	13064.87
479.44	13268.50
479.62	13317.65
479.80	13334.03
479.98	13570.43
480.16	13668.73
480.34	13645.32
480.52	13612.56
480.70	13659.37
480.88	13659.37
481.06	13760.01
481.24	14104.07
481.41	14001.08
481.59	14640.05
481.77	14270.25
481.95	14593.24
482.13	14560.47
482.31	14572.18
482.49	15110.50
482.67	14836.66
482.85	15119.86
483.03	15007.52
483.21	15295.40
483.39	15484.98
483.57	15126.88
483.74	15529.45
483.92	15866.49
484.10	15555.20
484.28	15910.96
484.46	16065.44
484.64	16425.88
484.82	16077.14
485.00	16362.69
485.18	16376.73
485.35	16517.16
485.53	16245.66
485.71	16173.10
485.89	16575.67
486.07	16292.47
486.25	16879.94
486.43	16954.84
486.61	17088.25
486.78	17158.47
486.96	17486.14
487.14	17666.36
487.32	17872.33
487.50	17972.97
487.68	18256.18
487.85	18473.85
488.03	18410.65
488.21	18480.87
488.39	18670.45
488.57	18759.39
488.75	18845.99
488.92	19246.23
489.10	19414.74
489.28	19604.33
489.46	19913.28
489.64	19564.54
489.81	20044.35
489.99	20156.69
490.17	20238.61
490.35	20704.38
490.53	20388.41
490.70	20056.05
490.88	20713.74
491.06	20889.28
491.24	20582.67
491.41	20978.22
491.59	20858.85
491.77	20886.94
491.95	21420.58
492.13	21289.51
492.30	21631.23
492.48	21839.54
492.66	21916.78
492.84	21968.27
493.01	22015.08
493.19	21884.01
493.37	22183.60
493.54	22279.56
493.72	22661.07
493.90	22560.42
494.08	22738.30
494.25	23119.81
494.43	23183.01
494.61	23417.06
494.79	23536.43
494.96	23733.03
495.14	23461.53
495.32	23662.82
495.49	23489.62
495.67	23833.68
495.85	23896.87
496.02	24219.86
496.20	24341.57
496.38	24610.73
496.55	24369.66
496.73	25001.60
496.91	24699.67
497.09	25160.76
497.26	25113.95
497.44	24952.45
497.62	24933.73
497.79	25256.72
497.97	25238.00
498.14	25516.52
498.32	25514.18
498.50	25422.90
498.67	25954.20
498.85	26340.39
499.03	26298.26
499.20	26005.69
499.38	26712.53
499.56	26415.29
499.73	26698.49
499.91	26717.22
500.08	26691.47
500.26	26314.64
500.44	26466.78
500.61	26813.18
500.79	26785.09
500.97	26747.64
501.14	26827.22
501.32	26787.43
501.49	27358.52
501.67	27171.28
501.84	27227.45
502.02	27468.53
502.20	27723.65
502.37	27723.65
502.55	27737.69
502.72	28374.31
502.90	27805.56
503.07	27915.57
503.25	28201.11
503.43	28168.35
503.60	27957.70
503.78	27850.03
503.95	28182.39
504.13	28311.12
504.30	28882.21
504.48	28800.29
504.65	28952.43
504.83	28802.63
505.01	29369.04
505.18	28680.92
505.36	29706.08
505.53	29443.94
505.71	29539.90
505.88	29809.06
506.06	29757.57
506.23	29970.56
506.41	29432.24
506.58	29727.14
506.76	29656.93
506.93	30225.68
507.11	29993.97
507.28	30167.16
507.46	30047.80
507.63	30052.48
507.81	30483.14
507.98	30321.64
508.16	30394.20
508.33	30565.06
508.50	30817.83
508.68	31023.80
508.85	31222.75
509.03	30946.56
509.20	30871.67
509.38	31480.21
509.55	31056.57
509.73	31227.43
509.90	31576.17
510.08	31494.25
510.25	31365.52
510.42	31608.93
510.60	31632.34
510.77	31941.29
510.95	31873.42
511.12	31950.65
511.30	32215.13
511.47	32414.08
511.64	32252.58
511.82	32479.61
511.99	32336.84
512.17	32519.40
512.34	32268.97
512.51	32711.33
512.69	32847.08
512.86	32376.63
513.04	32910.27
513.21	32730.05
513.38	32666.86
513.56	32891.55
513.73	32818.99
513.90	33420.51
514.08	33071.77
514.25	32704.31
514.43	33350.29
514.60	33303.48
514.77	32989.85
514.95	33713.08
515.12	33460.30
515.29	33333.91
515.47	33649.88
515.64	34199.91
515.81	33951.81
515.99	33724.78
516.16	33858.19
516.33	33448.60
516.51	33991.60
516.68	33553.92
516.85	33172.41
517.03	33549.24
517.20	33975.22
517.37	34288.85
517.54	34532.26
517.72	34129.69
517.89	33923.72
518.06	33813.72
518.24	33762.23
518.41	34277.15
518.58	34740.57
518.75	34733.55
518.93	34558.01
519.10	34448.00
519.27	35442.73
519.45	35271.87
519.62	35498.91
519.79	35466.14
519.96	35452.09
520.14	35466.14
520.31	35218.04
520.48	35601.89
520.65	35168.89
520.83	36027.87
521.00	35901.48
521.17	35775.09
521.34	36222.13
521.52	36088.72
521.69	36219.79
521.86	36325.11
522.03	36561.51
522.20	36287.67
522.38	35990.42
522.55	36493.63
522.72	36610.66
522.89	36231.49
523.07	36746.41
523.24	36886.84
523.41	36594.28
523.58	37027.28
523.75	37663.90
523.92	37237.92
524.10	37022.59
524.27	37542.19
524.44	37425.17
524.61	37605.39
524.78	37352.61
524.96	37666.24
525.13	37383.04
525.30	37816.04
525.47	37708.37
525.64	37837.10
525.81	37490.70
525.98	37834.76
526.16	37766.88
526.33	36945.36
526.50	37591.34
526.67	36807.26
526.84	37212.18
527.01	37338.57
527.18	37858.17
527.36	38197.54
527.53	37935.40
527.70	38873.96
527.87	38204.56
528.04	38153.07
528.21	38323.93
528.38	38040.73
528.55	38675.01
528.72	38885.66
528.89	38850.55
529.07	38719.48
529.24	38583.73
529.41	38923.11
529.58	38972.26
529.75	38696.08
529.92	39096.31
530.09	39035.45
530.26	39161.84
530.43	39426.32
530.60	39421.64
530.77	39299.94
530.94	39398.24
531.11	39599.52
531.28	39335.04
531.46	39599.52
531.63	39922.52
531.80	39215.68
531.97	39365.47
532.14	39629.95
532.31	38979.28
532.48	39541.01
532.65	39779.74
532.82	39526.97
532.99	39487.18
533.16	39894.43
533.33	40137.85
533.50	40196.36
533.67	39779.74
533.84	39714.21
534.01	40652.76
534.18	40170.61
534.35	40786.18
534.52	39864.00
534.69	40170.61
534.86	40509.99
535.03	40493.61
535.20	40638.72
535.37	40858.73
535.54	40928.95
535.71	40505.31
535.88	40739.36
536.05	40481.91
536.22	40975.76
536.38	40481.91
536.55	40863.41
536.72	40568.51
536.89	40282.96
537.06	40629.36
537.23	40940.65
537.40	40926.61
537.57	41261.30
537.74	41116.19
537.91	42192.84
538.08	41324.50
538.25	41263.64
538.42	40765.11
538.59	41443.87
538.75	41205.13
538.92	41132.57
539.09	41287.05
539.26	40786.18
539.43	41638.13
539.60	40959.38
539.77	41242.58
539.94	41429.82
540.11	41184.07
540.28	41237.90
540.44	41698.98
540.61	41614.72
540.78	41301.09
540.95	41422.80
541.12	41408.76
541.29	41610.04
541.46	41790.27
541.62	42017.30
541.79	41773.88
541.96	41792.61
542.13	42033.68
542.30	41769.20
542.47	41750.48
542.63	42092.19
542.80	42183.48
542.97	42038.36
543.14	42103.90
543.31	42251.35
543.48	42286.46
543.64	43084.58
543.81	42955.85
543.98	42679.67
544.15	42253.69
544.32	42682.01
544.48	43449.70
544.65	42787.33
544.82	42686.69
544.99	42548.60
545.16	42787.33
545.32	43016.71
545.49	43363.11
545.66	43510.56
545.83	43225.01
546.00	43168.84
546.16	42997.98
546.33	43014.37
546.50	43274.16
546.67	43236.72
546.83	43112.67
547.00	43388.85
547.17	42927.77
547.34	42965.21
547.50	43412.26
547.67	43543.33
547.84	43543.33
548.00	43854.62
548.17	43707.16
548.34	43667.37
548.51	43814.83
548.67	43742.27
548.84	43878.02
549.01	43412.26
549.18	43686.10
549.34	43725.89
549.51	43557.37
549.68	43639.29
549.84	43863.98
550.01	43674.40
550.18	43510.56
550.34	43761.00
550.51	44217.40
550.68	43922.49
550.84	43377.15
551.01	43962.28
551.18	43580.78
551.34	43814.83
551.51	44404.64
551.68	44500.61
551.84	44385.92
552.01	44222.08
552.18	44144.84
552.34	43878.02
552.51	44296.98
552.68	43938.88
552.84	44170.59
553.01	44519.33
553.18	44465.50
553.34	44612.95
553.51	44399.96
553.67	44729.98
553.84	44762.75
554.01	44821.26
554.17	44701.89
554.34	44421.03
554.51	44788.49
554.67	45247.24
554.84	44369.54
555.00	44334.43
555.17	44708.91
555.33	44832.96
555.50	44587.21
555.67	44732.32
555.83	44865.73
556.00	44966.37
556.16	44863.39
556.33	44648.06
556.50	45219.15
556.66	44694.87
556.83	44678.49
556.99	44526.35
557.16	44849.35
557.32	44797.85
557.49	45146.59
557.65	44678.49
557.82	44949.99
557.98	45043.61
558.15	45237.87
558.32	44896.16
558.48	44390.60
558.65	45024.89
558.81	44877.43
558.98	44669.12
559.14	45020.20
559.31	44933.60
559.47	44741.68
559.64	45228.51
559.80	45062.33
559.97	45268.30
560.13	45001.48
560.30	45088.08
560.46	45219.15
560.63	45193.40
560.79	45530.44
560.96	45619.38
561.12	45331.50
561.29	45172.34
561.45	45490.65
561.61	45434.48
561.78	45474.27
561.94	45560.87
562.11	45345.54
562.27	44999.14
562.44	45633.42
562.60	45270.64
562.77	45621.72
562.93	45282.34
563.10	45860.46
563.26	45219.15
563.42	45530.44
563.59	45420.44
563.75	45558.53
563.92	45525.76
564.08	45628.74
564.24	45883.86
564.41	45584.27
564.57	44690.19
564.74	45434.48
564.90	45483.63
565.07	45528.10
565.23	45581.93
565.39	45525.76
565.56	45710.66
565.72	45350.22
565.88	45394.69
566.05	45160.64
566.21	45490.65
566.38	45476.61
566.54	45619.38
566.70	45773.86
566.87	46176.43
567.03	45703.64
567.19	46300.48
567.36	46033.66
567.52	45759.81
567.68	45684.92
567.85	45488.31
568.01	46045.36
568.17	45886.20
568.34	45937.69
568.50	45764.49
568.66	45593.64
568.83	45801.94
568.99	45563.21
569.15	45734.07
569.32	45551.51
569.48	45727.05
569.64	45858.12
569.81	45776.20
569.97	45710.66
570.13	46021.95
570.30	45202.77
570.46	45766.84
570.62	45502.35
570.78	45570.23
570.95	45382.99
571.11	45787.90
571.27	45525.76
571.43	45825.35
571.60	45766.84
571.76	45504.70
571.92	46068.76
572.09	45808.96
572.25	46028.98
572.41	45844.07
572.57	45909.61
572.74	46260.69
572.90	45944.72
573.06	46272.39
573.22	46162.39
573.38	46057.06
573.55	45930.67
573.71	46246.65
573.87	45799.60
574.03	45806.62
574.20	46019.61
574.36	45851.09
574.52	46064.08
574.68	45893.22
574.84	45680.24
575.01	45820.67
575.17	45647.47
575.33	45780.88
575.49	45539.80
575.65	45694.28
575.82	46356.65
575.98	45703.64
576.14	46349.63
576.30	46075.79
576.46	46401.12
576.62	45434.48
576.79	45771.52
576.95	45539.80
577.11	45900.25
577.27	46080.47
577.43	45998.55
577.59	45713.00
577.75	45745.77
577.92	45724.71
578.08	45429.80
578.24	45560.87
578.40	45904.93
578.56	45830.03
578.72	46017.27
578.88	46005.57
579.04	46017.27
579.21	45652.15
579.37	46101.53
579.53	46272.39
579.69	45745.77
579.85	46115.58
580.01	46122.60
580.17	46146.00
580.33	46230.26
580.49	46054.72
580.65	46080.47
580.82	45998.55
580.98	45940.04
581.14	45441.50
581.30	46567.30
581.46	45848.75
581.62	45961.10
581.78	46188.13
581.94	46192.81
582.10	46110.89
582.26	46258.35
582.42	46036.00
582.58	45928.33
582.74	46099.19
582.90	46419.84
583.06	46146.00
583.22	46153.02
583.38	46260.69
583.54	46017.27
583.70	46146.00
583.86	46036.00
584.02	45839.39
584.18	46344.95
584.34	46506.44
584.50	46113.23
584.66	46272.39
584.82	46047.70
584.98	45942.38
585.14	46473.68
585.30	45865.14
585.46	46089.83
585.62	46050.04
585.78	45904.93
585.94	45263.62
586.10	45881.52
586.26	45528.10
586.42	46609.43
586.58	46351.97
586.74	45874.50
586.90	45783.22
587.06	45935.35
587.22	45928.33
587.38	45942.38
587.54	46071.10
587.70	46457.29
587.86	46396.44
588.02	46150.68
588.18	46328.56
588.34	46040.68
588.49	45603.00
588.65	45476.61
588.81	45572.57
588.97	45883.86
589.13	45729.39
589.29	45434.48
589.45	45570.23
589.61	46185.79
589.77	45991.53
589.93	46443.25
590.08	46036.00
590.24	45869.82
590.40	46131.96
590.56	46136.64
590.72	46202.18
590.88	45865.14
591.04	46110.89
591.20	46909.02
591.35	46539.21
591.51	46571.98
591.67	46450.27
591.83	45879.18
591.99	45928.33
592.15	45951.74
592.31	46541.55
592.46	46223.24
592.62	46246.65
592.78	46340.27
592.94	46026.63
593.10	46099.19
593.26	46543.89
593.41	46183.45
593.57	46117.92
593.73	46003.23
593.89	46157.70
594.05	46024.29
594.20	46127.28
594.36	46089.83
594.52	46277.07
594.68	46253.67
594.84	45832.37
594.99	46241.96
595.15	45935.35
595.31	46541.55
595.47	46286.43
595.62	46602.41
595.78	46019.61
595.94	46188.13
596.10	46267.71
596.25	46050.04
596.41	46590.70
596.57	45799.60
596.73	46190.47
596.88	46122.60
597.04	45825.35
597.20	46195.15
597.36	46117.92
597.51	46412.82
597.67	46054.72
597.83	46569.64
597.99	46595.38
598.14	46068.76
598.30	46571.98
598.46	46333.24
598.61	46670.28
598.77	46270.05
598.93	46487.72
599.09	46373.03
599.24	46454.95
599.40	46726.46
599.56	46602.41
599.71	46031.32
599.87	46511.13
600.03	46431.55
600.18	46333.24
600.34	46499.42
600.50	46302.82
600.65	46316.86
600.81	45965.78
600.97	46499.42
601.12	46607.09
601.28	46005.57
601.44	46199.83
601.59	46321.54
601.75	45923.65
601.91	46157.70
602.06	45741.09
602.22	46288.77
602.37	46263.03
602.53	46124.94
602.69	46248.99
602.84	45923.65
603.00	46080.47
603.16	46000.89
603.31	46138.98
603.47	46073.45
603.62	45827.69
603.78	46295.80
603.94	46480.70
604.09	46564.96
604.25	46176.43
604.40	45909.61
604.56	46153.02
604.71	46387.08
604.87	46277.07
605.03	46340.27
605.18	46162.39
605.34	46061.74
605.49	45958.76
605.65	46225.58
605.80	45954.08
605.96	46160.05
606.12	45893.22
606.27	46330.90
606.43	46061.74
606.58	46288.77
606.74	46078.13
606.89	45935.35
607.05	46536.87
607.20	46218.56
607.36	46094.51
607.51	46368.35
607.67	46078.13
607.82	46340.27
607.98	45539.80
608.13	45848.75
608.29	45766.84
608.44	45242.56
608.60	45825.35
608.75	45916.63
608.91	45586.61
609.06	45507.04
609.22	45895.56
609.37	45432.14
609.53	45886.20
609.68	45853.44
609.84	45654.49
609.99	45766.84
610.15	45586.61
610.30	45471.93
610.46	45815.99
610.61	45549.17
610.76	45249.58
610.92	45375.97
611.07	45689.60
611.23	45429.80
611.38	46099.19
611.54	45378.31
611.69	45172.34
611.84	45361.92
612.00	45223.83
612.15	45357.24
612.31	45549.17
612.46	45654.49
612.62	45350.22
612.77	45162.98
612.92	45357.24
613.08	45607.68
613.23	44926.58
613.39	44870.41
613.54	45200.43
613.69	44999.14
613.85	44900.84
614.00	45317.45
614.15	45537.46
614.31	44973.39
614.46	45237.87
614.62	45097.44
614.77	44982.76
614.92	44858.71
615.08	44636.36
615.23	44769.77
615.38	44832.96
615.54	44828.28
615.69	44802.53
615.84	45001.48
616.00	44865.73
616.15	44737.00
616.30	45062.33
616.46	44790.83
616.61	44353.15
616.76	44371.88
616.92	44435.07
617.07	44811.90
617.22	44060.58
617.37	44126.12
617.53	44954.67
617.68	44987.44
617.83	44339.11
617.99	44121.44
618.14	44189.31
618.29	44299.32
618.45	44519.33
618.60	44100.37
618.75	43688.44
618.90	43955.26
619.06	44538.05
619.21	44217.40
619.36	44591.89
619.51	44315.70
619.67	44287.62
619.82	43761.00
619.97	44430.39
620.12	43782.06
620.28	43723.55
620.43	44116.76
620.58	44481.88
620.73	44020.80
620.89	43889.73
621.04	43945.90
621.19	43962.28
621.34	44006.75
621.49	43487.15
621.65	43789.08
621.80	44074.63
621.95	43697.80
622.10	44208.04
622.25	43871.00
622.41	43433.32
622.56	44067.61
622.71	44137.82
622.86	43386.51
623.01	43704.82
623.16	44142.50
623.32	43756.32
623.47	43929.51
623.62	43442.68
623.77	43159.48
623.92	43725.89
624.07	43377.15
624.23	42768.61
624.38	43077.56
624.53	43180.54
624.68	43103.31
624.83	43306.93
624.98	43283.53
625.13	43040.11
625.29	43276.51
625.44	42904.36
625.59	43246.08
625.74	43182.88
625.89	42693.71
626.04	43035.43
626.19	43161.82
626.34	43133.73
626.49	43063.52
626.65	42609.45
626.80	42667.97
626.95	42466.68
627.10	42539.24
627.25	42515.83
627.40	42436.25
627.55	42382.42
627.70	42691.37
627.85	42478.38
628.00	42504.13
628.15	42768.61
628.30	42747.54
628.45	42602.43
628.60	42873.93
628.76	42534.56
628.91	42342.63
629.06	42110.92
629.21	42342.63
629.36	42089.85
629.51	42422.21
629.66	42614.13
629.81	42047.72
629.96	42288.80
630.11	42307.52
630.26	42583.71
630.41	42742.86
630.56	42061.77
630.71	42050.06
630.86	42232.63
631.01	41741.11
631.16	41965.81
631.31	41261.30
631.46	41663.88
631.61	42120.28
631.76	42209.22
631.91	42213.90
632.06	42225.60
632.21	42005.59
632.36	41701.32
632.51	41221.52
632.66	41654.51
632.81	41141.94
632.96	41663.88
633.10	41659.20
633.25	41876.86
633.40	41682.60
633.55	41698.98
633.70	41755.16
633.85	41766.86
634.00	41909.63
634.15	41628.77
634.30	41588.98
634.45	41675.58
634.60	41137.26
634.75	41202.79
634.90	41268.33
635.05	41469.61
635.19	41680.26
635.34	41097.47
635.49	41500.04
635.64	41177.04
635.79	41329.18
635.94	41111.51
636.09	40910.22
636.24	40631.70
636.39	40945.33
636.53	41020.23
636.68	40968.74
636.83	41153.64
636.98	41233.22
637.13	41041.29
637.28	41104.49
637.43	40910.22
637.57	41340.88
637.72	40730.00
637.87	40935.97
638.02	40954.69
638.17	40809.58
638.32	40875.12
638.46	40678.51
638.61	40851.71
638.76	40598.93
638.91	40512.33
639.06	40215.08
639.20	40961.72
639.35	40914.90
639.50	40552.12
639.65	40514.67
639.80	40540.42
639.94	40381.26
640.09	40776.81
640.24	40165.93
640.39	40233.81
640.54	40484.25
640.68	40114.44
640.83	39978.69
640.98	40236.15
641.13	39784.43
641.27	40250.19
641.42	39915.50
641.57	40437.44
641.72	40098.06
641.86	39943.58
642.01	39821.87
642.16	40112.10
642.31	39859.32
642.45	39957.63
642.60	39288.23
642.75	39620.59
642.90	40205.72
643.04	39784.43
643.19	39880.39
643.34	39901.45
643.48	39634.63
643.63	39735.27
643.78	40250.19
643.93	39983.37
644.07	39580.80
644.22	39702.51
644.37	39800.81
644.51	39255.46
644.66	39746.98
644.81	39473.13
644.95	39496.54
645.10	40086.36
645.25	39700.17
645.39	39515.26
645.54	39533.99
645.69	39423.98
645.83	39548.03
645.98	39248.44
646.13	39243.76
646.27	39814.85
646.42	39309.30
646.57	38965.24
646.71	39562.08
646.86	39206.31
647.00	39313.98
647.15	39157.16
647.30	39681.44
647.44	39241.42
647.59	39000.35
647.74	38337.98
647.88	38852.89
648.03	38895.02
648.17	39077.58
648.32	38986.30
648.47	38934.81
648.61	38852.89
648.76	39187.59
648.90	38969.92
649.05	38672.67
649.20	39108.01
649.34	39213.34
649.49	38621.18
649.63	38700.76
649.78	38616.50
649.92	38403.51
650.07	38878.64
650.21	38632.88
650.36	39044.82
650.51	38693.74
650.65	38829.49
650.80	39138.44
650.94	38646.93
651.09	38555.64
651.23	37986.89
651.38	38501.81
651.52	38302.87
651.67	38171.80
651.81	37928.38
651.96	38188.18
652.10	38366.06
652.25	38579.05
652.39	38745.23
652.54	38071.15
652.68	38485.43
652.83	38459.68
652.97	38653.95
653.12	38239.67
653.26	37886.25
653.41	38218.61
653.55	38293.50
653.70	37841.78
653.84	38536.92
653.99	37886.25
654.13	37439.21
654.27	38000.94
654.42	37904.98
654.56	37970.51
654.71	37996.26
654.85	38000.94
655.00	38305.21
655.14	37539.85
655.29	37474.32
655.43	37214.52
655.57	37345.59
655.72	37471.98
655.86	37546.87
656.01	37163.03
656.15	36613.00
656.30	37083.45
656.44	37329.20
656.58	37589.00
656.73	37352.61
656.87	37368.99
657.01	36957.06
657.16	36978.12
657.30	36622.36
657.45	36900.89
657.59	37247.29
657.73	36699.60
657.88	37202.82
658.02	37359.63
658.16	37460.27
658.31	37368.99
658.45	37184.09
658.60	37106.85
658.74	36861.10
658.88	37102.17
659.03	36818.97
659.17	36673.85
659.31	36769.82
659.46	36542.78
659.60	36842.37
659.74	36774.50
659.89	36421.08
660.03	36360.22
660.17	36992.17
660.32	36547.47
660.46	36226.81
660.60	36112.13
660.74	36180.00
660.89	36332.14
661.03	36549.81
661.17	36470.23
661.32	36126.17
661.46	36062.97
661.60	36020.84
661.74	35849.99
661.89	36079.36
662.03	35852.33
662.17	36187.02
662.31	35955.31
662.46	36287.67
662.60	35756.36
662.74	35669.76
662.88	35508.27
663.03	35765.73
663.17	35519.97
663.31	35461.46
663.45	35543.38
663.60	35276.55
663.74	35150.17
663.88	35098.67
664.02	35002.71
664.17	35461.46
664.31	35000.37
664.45	35505.93
664.59	35360.81
664.73	35098.67
664.88	34925.47
665.02	34728.87
665.16	34323.96
665.30	34946.54
665.44	34511.20
665.59	34501.84
665.73	34513.54
665.87	34555.67
666.01	34316.93
666.15	34438.64
666.29	34836.53
666.44	34780.36
666.58	34345.02
666.72	34298.21
666.86	34660.99
667.00	34457.37
667.14	34064.16
667.28	34120.33
667.43	34295.87
667.57	34401.19
667.71	34183.52
667.85	34019.69
667.99	34071.18
668.13	34122.67
668.27	33806.70
668.41	33827.76
668.56	33640.52
668.70	33563.28
668.84	33362.00
668.98	33247.31
669.12	33748.18
669.26	33359.66
669.40	33085.81
669.54	33144.33
669.68	33001.55
669.82	32449.19
669.96	33081.13
670.10	32809.63
670.25	32863.46
670.39	33092.83
670.53	32884.53
670.67	32503.02
670.81	33486.04
670.95	32961.76
671.09	32847.08
671.23	32180.03
671.37	32407.06
671.51	32608.34
671.65	32634.09
671.79	32154.28
671.93	32151.94
672.07	32194.07
672.21	32173.00
672.35	32252.58
672.49	31723.62
672.63	31824.26
672.77	31817.24
672.91	31864.05
673.05	31690.85
673.19	31665.11
673.33	31445.10
673.47	31311.69
673.61	31730.64
673.75	31091.68
673.89	31267.22
674.03	31243.81
674.17	31353.82
674.31	31000.40
674.45	31484.89
674.59	31768.09
674.73	31150.19
674.87	30972.31
675.01	31208.70
675.15	30843.58
675.29	30932.52
675.43	30651.66
675.56	30836.56
675.70	30558.03
675.84	30644.63
675.98	29357.34
676.12	30288.87
676.26	30679.74
676.40	30246.74
676.54	30024.39
676.68	29680.33
676.82	29240.31
676.96	29834.81
677.10	29706.08
677.23	29907.37
677.37	29518.84
677.51	29542.24
677.65	29165.42
677.79	28807.31
677.93	28900.94
678.07	29013.28
678.21	28554.54
678.34	28699.65
678.48	28699.65
678.62	28584.96
678.76	28339.21
678.90	28229.20
679.04	28510.07
679.18	28531.13
679.31	27798.54
679.45	27784.50
679.59	27796.20
679.73	27885.14
679.87	27943.66
680.00	28009.19
680.14	27690.88
680.28	27728.33
680.42	27213.41
680.56	27225.11
680.70	27297.67
680.83	27442.78
680.97	27178.30
681.11	27431.08
681.25	26693.81
681.39	26817.86
681.52	27056.59
681.66	26588.49
681.80	26541.68
681.94	26625.93
682.07	26436.35
682.21	26586.15
682.35	26089.95
682.49	26239.75
682.62	25993.99
682.76	26153.15
682.90	25935.48
683.04	25926.11
683.17	26003.35
683.31	25706.10
683.45	25497.80
683.59	25572.69
683.72	25577.37
683.86	25315.23
684.00	25109.27
684.13	24847.13
684.27	24828.40
684.41	25427.58
684.55	25095.22
684.68	24905.64
684.82	25104.59
684.96	24917.34
685.09	24250.29
685.23	24510.09
685.37	24542.86
685.50	23995.17
685.64	24041.98
685.78	24271.36
685.91	24215.18
686.05	24114.54
686.19	23779.84
686.32	23901.55
686.46	23482.59
686.60	23236.84
686.73	23175.98
686.87	23082.36
687.01	23070.66
687.14	23220.45
687.28	22757.03
687.42	23201.73
687.55	23211.09
687.69	22958.31
687.82	22925.55
687.96	22934.91
688.10	22583.83
688.23	22270.20
688.37	22714.90
688.50	22567.45
688.64	22764.05
688.78	22419.99
688.91	22143.81
689.05	21820.81
689.18	21724.85
689.32	21762.30
689.46	21942.52
689.59	21930.82
689.73	21909.75
689.86	21781.03
690.00	21621.87
690.13	21692.08
690.27	21329.30
690.41	21305.90
690.54	21282.49
690.68	21193.55
690.81	21343.35
690.95	21120.99
691.08	21174.83
691.22	21151.42
691.35	21006.31
691.49	20978.22
691.62	20828.43
691.76	20627.14
691.89	20739.49
692.03	20886.94
692.16	20486.71
692.30	19889.87
692.43	20056.05
692.57	19800.93
692.70	19800.93
692.84	19843.06
692.97	19630.07
693.11	19735.40
693.24	19690.93
693.38	19590.28
693.51	19648.80
693.65	19548.15
693.78	19477.94
693.92	19555.18
694.05	19152.60
694.19	19232.18
694.32	19271.97
694.45	19089.41
694.59	18897.49
694.72	19091.75
694.86	18817.91
694.99	18789.82
695.13	18717.26
695.26	18654.07
695.39	18457.46
695.53	18611.94
695.66	18237.45
695.80	18057.23
695.93	18204.69
696.07	18090.00
696.20	18148.51
696.33	18136.81
696.47	17970.63
696.60	18054.89
696.73	17797.43
696.87	17781.05
697.00	17628.92
697.14	17514.23
697.27	17689.77
697.40	17216.98
697.54	17053.14
697.67	17273.15
697.80	17362.09
697.94	17170.17
698.07	16931.44
698.21	16952.50
698.34	17214.64
698.47	16772.28
698.61	16999.31
698.74	16868.24
698.87	16585.04
699.01	16325.24
699.14	16477.37
699.27	16318.22
699.40	16505.46
699.54	16332.26
699.67	15999.90
699.80	16243.32
699.94	15861.81
700.07	16489.07
700.20	16205.87
700.34	15927.35
700.47	15932.03
700.60	15838.41
700.73	15822.02
700.87	15527.11
701.00	15637.12
701.13	15676.91
701.26	15351.57
701.40	15475.62
701.53	15236.89
701.66	15243.91
701.79	15136.24
701.93	15005.17
702.06	14888.15
702.19	14934.96
702.32	14857.72
702.46	15016.88
702.59	14785.16
702.72	14902.19
702.85	14747.72
702.99	14663.46
703.12	14560.47
703.25	14422.38
703.38	14401.32
703.51	14164.92
703.65	14225.78
703.78	13987.04
703.91	13818.52
704.04	14111.09
704.17	13893.42
704.31	13902.78
704.44	13951.93
704.57	13671.07
704.70	13556.38
704.83	13715.54
704.96	13642.98
705.10	13626.60
705.23	13345.73
>>>>>End Processed Spectral Data<<<<<
