SpectraSuite Data File
++++++++++++++++++++++++++++++++++++
Date: Fri Oct 25 11:23:19 EDT 2013
User: price-jones
Dark Spectrum Present: No
Reference Spectrum Present: No
Number of Sampled Component Spectra: 1
Spectrometers: USB2+H05261
Integration Time (usec): 100000 (USB2+H05261)
Spectra Averaged: 1 (USB2+H05261)
Boxcar Smoothing: 0 (USB2+H05261)
Correct for Electrical Dark: No (USB2+H05261)
Strobe/Lamp Enabled: No (USB2+H05261)
Correct for Detector Non-linearity: No (USB2+H05261)
Correct for Stray Light: No (USB2+H05261)
Number of Pixels in Processed Spectrum: 2048
>>>>>Begin Processed Spectral Data<<<<<
365.73	215.33
365.92	215.33
366.12	215.33
366.32	140.43
366.52	187.24
366.72	166.18
366.91	98.30
367.11	140.43
367.31	140.43
367.51	177.88
367.70	112.35
367.90	114.69
368.10	105.32
368.30	182.56
368.49	72.56
368.69	220.01
368.89	161.50
369.09	79.58
369.28	100.64
369.48	187.24
369.68	126.39
369.87	168.52
370.07	147.45
370.27	215.33
370.47	367.46
370.66	510.24
370.86	657.69
371.06	709.18
371.25	683.44
371.45	641.31
371.65	725.57
371.84	699.82
372.04	711.52
372.24	692.80
372.44	643.65
372.63	755.99
372.83	739.61
373.03	711.52
373.22	765.36
373.42	709.18
373.62	751.31
373.81	758.33
374.01	812.17
374.21	784.08
374.40	793.44
374.60	720.88
374.79	835.57
374.99	793.44
375.19	856.64
375.38	816.85
375.58	802.80
375.78	912.81
375.97	842.59
376.17	851.96
376.37	861.32
376.56	849.61
376.76	844.93
376.95	959.62
377.15	910.47
377.35	910.47
377.54	884.72
377.74	887.06
377.93	903.45
378.13	901.11
378.33	882.38
378.52	952.60
378.72	877.70
378.91	919.83
379.11	905.79
379.31	912.81
379.50	868.34
379.70	978.34
379.89	978.34
380.09	952.60
380.28	987.71
380.48	1020.47
380.68	987.71
380.87	994.73
381.07	987.71
381.26	1025.15
381.46	1004.09
381.65	1036.86
381.85	1036.86
382.04	1027.50
382.24	1015.79
382.43	1004.09
382.63	1090.69
382.83	1114.10
383.02	1100.05
383.22	1100.05
383.41	1130.48
383.61	1149.20
383.80	1170.27
384.00	1083.67
384.19	1135.16
384.39	1100.05
384.58	1142.18
384.78	1174.95
384.97	1221.76
385.17	1135.16
385.36	1121.12
385.56	1207.72
385.75	1074.31
385.95	1266.23
386.14	1156.22
386.34	1172.61
386.53	1224.10
386.72	1224.10
386.92	1231.12
387.11	1242.82
387.31	1217.08
387.50	1362.19
387.70	1259.21
387.89	1287.29
388.09	1289.64
388.28	1254.53
388.48	1266.23
388.67	1259.21
388.86	1299.00
389.06	1315.38
389.25	1352.83
389.45	1362.19
389.64	1331.76
389.84	1350.49
390.03	1416.02
390.22	1432.41
390.42	1399.64
390.61	1385.60
390.81	1362.19
391.00	1467.52
391.19	1488.58
391.39	1533.05
391.58	1511.99
391.78	1530.71
391.97	1371.55
392.16	1612.63
392.36	1577.52
392.55	1551.78
392.75	1441.77
392.94	1458.15
393.13	1547.09
393.33	1448.79
393.52	1591.56
393.71	1605.61
393.91	1593.90
394.10	1612.63
394.29	1504.96
394.49	1575.18
394.68	1687.53
394.88	1659.44
395.07	1699.23
395.26	1675.82
395.46	1706.25
395.65	1727.32
395.84	1750.72
396.04	1713.27
396.23	1802.21
396.42	1774.13
396.62	1842.00
396.81	1785.83
397.00	1741.36
397.19	1809.23
397.39	1834.98
397.58	1884.13
397.77	1825.62
397.97	1806.89
398.16	1853.70
398.35	1888.81
398.55	1858.39
398.74	1872.43
398.93	1968.39
399.12	1926.26
399.32	1944.99
399.51	1870.09
399.70	1987.11
399.90	1863.07
400.09	2031.58
400.28	2078.40
400.47	2038.61
400.67	2153.29
400.86	2120.53
401.05	2047.97
401.24	2108.82
401.44	2125.21
401.63	2106.48
401.82	2141.59
402.01	2204.78
402.21	2188.40
402.40	2150.95
402.59	2225.85
402.78	2312.45
402.97	2307.77
403.17	2200.10
403.36	2317.13
403.55	2324.15
403.74	2293.72
403.93	2289.04
404.13	2366.28
404.32	2237.55
404.51	2441.18
404.70	2413.09
404.89	2438.84
405.09	2562.89
405.28	2413.09
405.47	2530.12
405.66	2487.99
405.85	2525.44
406.05	2513.74
406.24	2607.36
406.43	2656.51
406.62	2661.19
406.81	2710.34
407.00	2574.59
407.20	2541.82
407.39	2616.72
407.58	2726.72
407.77	2679.91
407.96	2771.19
408.15	2757.15
408.34	2834.39
408.54	2841.41
408.73	2745.45
408.92	2855.45
409.11	2963.12
409.30	2956.10
409.49	2963.12
409.68	2902.26
409.87	2883.54
410.07	3136.32
410.26	2932.69
410.45	3164.40
410.64	3040.36
410.83	3234.62
411.02	3138.66
411.21	3199.51
411.40	3199.51
411.59	3307.18
411.78	3126.96
411.98	3222.92
412.17	3274.41
412.36	3300.16
412.55	3363.35
412.74	3499.10
412.93	3442.93
413.12	3426.54
413.31	3449.95
413.50	3506.12
413.69	3602.08
413.88	3592.72
414.07	3681.66
414.26	3630.17
414.45	3655.92
414.64	3714.43
414.83	3728.47
415.02	3871.25
415.22	3906.35
415.41	3850.18
415.60	3896.99
415.79	3995.29
415.98	3978.91
416.17	4046.79
416.36	4009.34
416.55	4053.81
416.74	4063.17
416.93	4028.06
417.12	4088.92
417.31	4149.77
417.50	4191.90
417.69	4243.39
417.88	4322.97
418.07	4390.84
418.26	4440.00
418.45	4311.27
418.64	4568.73
418.83	4465.74
419.02	4374.46
419.21	4610.86
419.39	4580.43
419.58	4512.55
419.77	4475.10
419.96	4564.04
420.15	4617.88
420.34	4484.47
420.53	4622.56
420.72	4734.90
420.91	4713.84
421.10	4777.03
421.29	4847.25
421.48	4809.80
421.67	4774.69
421.86	4873.00
422.05	4802.78
422.24	4788.74
422.43	4940.87
422.61	4943.21
422.80	4910.44
422.99	4896.40
423.18	5027.47
423.37	5151.52
423.56	5053.22
423.75	5149.18
423.94	5018.11
424.13	4533.62
424.32	4926.83
424.50	4959.60
424.69	5212.37
424.88	5130.45
425.07	5053.22
425.26	4889.38
425.45	4990.02
425.64	4999.38
425.83	4957.25
426.01	5095.35
426.20	5153.86
426.39	4992.36
426.58	5123.43
426.77	5100.03
426.96	5093.01
427.15	5170.24
427.33	5315.36
427.52	5310.68
427.71	5291.95
427.90	5366.85
428.09	5373.87
428.28	5355.15
428.46	5460.47
428.65	5226.42
428.84	5612.60
429.03	5640.69
429.22	5441.75
429.40	5612.60
429.59	5530.69
429.78	5369.19
429.97	5280.25
430.16	5476.85
430.34	5514.30
430.53	5647.71
430.72	5738.99
430.91	5741.33
431.10	5706.23
431.28	5687.50
431.47	5949.64
431.66	5994.11
431.85	5846.66
432.03	5930.92
432.22	6071.35
432.41	6134.54
432.60	5954.32
432.79	6064.33
432.97	6045.60
433.16	6071.35
433.35	6019.86
433.54	6202.42
433.72	6085.39
433.91	6127.52
434.10	6218.80
434.28	6183.70
434.47	6249.23
434.66	6366.26
434.85	6471.58
435.03	6520.73
435.22	6321.79
435.41	6539.46
435.59	6410.73
435.78	6492.65
435.97	6604.99
436.16	6527.75
436.34	6487.96
436.53	6693.93
436.72	6794.58
436.90	6532.44
437.09	6693.93
437.28	6558.18
437.46	6619.04
437.65	6796.92
437.84	6780.53
438.02	6906.92
438.21	6937.35
438.40	6665.85
438.58	7140.97
438.77	7124.59
438.96	6993.52
439.14	7108.21
439.33	7227.57
439.52	7180.76
439.70	7234.60
439.89	7522.48
440.08	7566.95
440.26	7501.42
440.45	7470.99
440.63	7623.12
440.82	7793.98
441.01	7550.57
441.19	7669.94
441.38	7728.45
441.57	7873.56
441.75	7913.35
441.94	7981.23
442.12	8238.69
442.31	8138.04
442.50	8102.93
442.68	8297.20
442.87	8011.65
443.05	8109.96
443.24	8280.82
443.43	8191.88
443.61	8116.98
443.80	8638.92
443.98	8212.94
444.17	7847.82
444.35	8470.40
444.54	8503.17
444.73	8264.43
444.91	8341.67
445.10	8437.63
445.28	8393.16
445.47	8360.39
445.65	8374.44
445.84	8421.25
446.02	8699.77
446.21	8439.97
446.39	8397.84
446.58	8580.40
446.77	8432.95
446.95	8479.76
447.14	8334.65
447.32	8566.36
447.51	8582.74
447.69	8437.63
447.88	8720.84
448.06	8622.53
448.25	8561.68
448.43	8678.71
448.62	8491.46
448.80	8601.47
448.99	8926.80
449.17	8678.71
449.36	8692.75
449.54	8720.84
449.73	8982.98
449.91	9137.45
450.10	9034.47
450.28	9212.35
450.46	9153.84
450.65	9249.80
450.83	9207.67
451.02	9184.26
451.20	9308.31
451.39	9401.93
451.57	9252.14
451.76	9348.10
451.94	9221.71
452.13	9509.60
452.31	9376.19
452.49	9490.87
452.68	9430.02
452.86	9525.98
453.05	9631.30
453.23	9558.75
453.42	9528.32
453.60	9474.49
453.78	9607.90
453.97	9481.51
454.15	9584.49
454.34	9533.00
454.52	9769.40
454.70	9612.58
454.89	9900.47
455.07	9987.07
455.26	9743.65
455.44	9888.76
455.62	9863.02
455.81	10033.88
455.99	10045.58
456.17	10113.45
456.36	10139.20
456.54	10375.59
456.73	10338.15
456.91	10499.64
457.09	10532.41
457.28	10544.11
457.46	10235.16
457.64	10576.88
457.83	10775.83
458.01	10511.35
458.19	10885.83
458.38	10684.55
458.56	10878.81
458.74	10740.72
458.93	10588.58
459.11	10934.98
459.29	10876.47
459.48	11171.38
459.66	10885.83
459.84	10963.07
460.03	11108.18
460.21	11173.72
460.39	11103.50
460.57	11117.54
460.76	11103.50
460.94	11169.04
461.12	11236.91
461.31	11442.88
461.49	11391.39
461.67	11126.91
461.85	11517.78
462.04	11440.54
462.22	11662.89
462.40	11592.67
462.59	11808.00
462.77	11609.06
462.95	11651.19
463.13	11620.76
463.32	11674.59
463.50	11864.18
463.68	11812.68
463.86	12140.36
464.05	11634.80
464.23	11726.08
464.41	12140.36
464.59	11882.90
464.78	12208.23
464.96	12217.60
465.14	12109.93
465.32	12243.34
465.50	12285.47
465.69	12428.24
465.87	12306.54
466.05	12273.77
466.23	12358.03
466.41	12521.87
466.60	12636.55
466.78	12386.12
466.96	12503.14
467.14	12362.71
467.32	12479.74
467.51	12912.74
467.69	12226.96
467.87	12659.96
468.05	12664.64
468.23	12610.81
468.41	12451.65
468.60	12961.89
468.78	12791.03
468.96	12617.83
469.14	13004.02
469.32	13170.19
469.50	12842.52
469.69	13184.24
469.87	13277.86
470.05	13226.37
470.23	13135.09
470.41	13217.01
470.59	13439.36
470.77	13217.01
470.95	13376.16
471.14	13748.31
471.32	13327.01
471.50	13694.47
471.68	13701.50
471.86	13858.31
472.04	14104.07
472.22	14153.22
472.40	13743.63
472.58	13998.74
472.77	14174.28
472.95	14317.06
473.13	14759.42
473.31	14097.05
473.49	14310.04
473.67	14160.24
473.85	14384.93
474.03	14705.59
474.21	14576.86
474.39	14815.59
474.57	14918.57
474.75	15094.11
474.93	15133.90
475.12	15225.18
475.30	15564.56
475.48	15110.50
475.66	15190.08
475.84	15634.78
476.02	15482.64
476.20	15585.63
476.38	15690.95
476.56	16233.96
476.74	16304.17
476.92	15922.66
477.10	16060.76
477.28	16177.78
477.46	16278.43
477.64	16695.04
477.82	16950.16
478.00	17310.60
478.18	16924.41
478.36	17242.73
478.54	17348.05
478.72	17055.48
478.90	17408.90
479.08	17738.92
479.26	17813.82
479.44	17858.29
479.62	18003.40
479.80	18286.61
479.98	18450.44
480.16	18937.27
480.34	18497.25
480.52	18593.22
480.70	19080.05
480.88	18207.03
481.06	18977.06
481.24	19023.87
481.41	19136.22
481.59	19971.79
481.77	19510.71
481.95	19637.09
482.13	19927.32
482.31	19850.08
482.49	20479.69
482.67	20404.79
482.85	20477.35
483.03	20884.60
483.21	21041.42
483.39	21266.11
483.57	21427.60
483.74	21296.53
483.92	21544.63
484.10	21642.93
484.28	22054.87
484.46	22441.06
484.64	22637.66
484.82	22054.87
485.00	22527.66
485.18	22728.94
485.35	23150.24
485.53	23047.26
485.71	23047.26
485.89	23840.70
486.07	23304.71
486.25	23248.54
486.43	24058.37
486.61	24290.08
486.78	24360.30
486.96	24526.47
487.14	24730.10
487.32	25060.12
487.50	25263.74
487.68	25240.34
487.85	25832.49
488.03	25949.52
488.21	25783.34
488.39	25991.65
488.57	26221.02
488.75	26752.32
488.92	26738.28
489.10	27063.61
489.28	26752.32
489.46	27587.89
489.64	27571.51
489.81	28091.11
489.99	28137.92
490.17	27857.06
490.35	28481.98
490.53	28519.43
490.70	28591.98
490.88	28407.08
491.06	28954.77
491.24	29235.63
491.41	29476.71
491.59	29542.24
491.77	29771.61
491.95	30082.91
492.13	30260.79
492.30	30258.45
492.48	30305.26
492.66	30590.80
492.84	30761.66
493.01	30895.07
493.19	30759.32
493.37	31241.47
493.54	31407.65
493.72	31868.73
493.90	31529.36
494.08	31948.31
494.25	32236.20
494.43	32315.78
494.61	32828.35
494.79	33123.26
494.96	32854.10
495.14	33439.23
495.32	33565.62
495.49	33586.69
495.67	33570.30
495.85	33914.36
496.02	33956.49
496.20	34483.11
496.38	34653.97
496.55	34384.81
496.73	35007.39
496.91	34988.67
497.09	35204.00
497.26	35627.63
497.44	35328.05
497.62	35629.98
497.79	36526.40
497.97	35929.56
498.14	36414.05
498.32	36872.80
498.50	36753.43
498.67	36863.44
498.85	36882.16
499.03	37205.16
499.20	37432.19
499.38	37486.02
499.56	37464.96
499.73	37701.35
499.91	37879.23
500.08	37944.76
500.26	37907.32
500.44	37926.04
500.61	38134.35
500.79	38122.65
500.97	38745.23
501.14	39227.38
501.32	38866.94
501.49	39168.87
501.67	38939.49
501.84	39512.92
502.02	39543.35
502.20	39702.51
502.37	39615.91
502.55	39672.08
502.72	39892.09
502.90	39700.17
503.07	39849.96
503.25	40603.61
503.43	40334.45
503.60	40470.20
503.78	40325.09
503.95	40701.92
504.13	41120.87
504.30	40603.61
504.48	40964.06
504.65	41331.52
504.83	41514.08
505.01	41766.86
505.18	41612.38
505.36	42160.07
505.53	41717.71
505.71	42300.50
505.88	41951.76
506.06	42330.93
506.23	42466.68
506.41	42171.77
506.58	42614.13
506.76	42806.06
506.93	42813.08
507.11	42712.44
507.28	42960.53
507.46	43217.99
507.63	43430.98
507.81	43592.48
507.98	43388.85
508.16	43225.01
508.33	43856.96
508.50	43976.33
508.68	44168.25
508.85	44498.26
509.03	43910.79
509.20	44414.01
509.38	45104.46
509.55	44964.03
509.73	44942.97
509.90	44964.03
510.08	44964.03
510.25	45125.53
510.42	45125.53
510.60	45680.24
510.77	45574.91
510.95	46019.61
511.12	45724.71
511.30	45539.80
511.47	45886.20
511.64	45778.54
511.82	46330.90
511.99	46263.03
512.17	46469.00
512.34	46405.80
512.51	46560.28
512.69	47068.17
512.86	46588.36
513.04	47559.69
513.21	46892.63
513.38	46866.89
513.56	47323.29
513.73	47129.03
513.90	47456.70
514.08	47220.31
514.25	47426.28
514.43	47648.63
514.60	47906.08
514.77	47714.16
514.95	48470.15
515.12	47906.08
515.29	48095.67
515.47	48378.87
515.64	48453.77
515.81	48418.66
515.99	48793.15
516.16	48692.50
516.33	48573.14
516.51	48980.39
516.68	48877.41
516.85	48949.96
517.03	49294.02
517.20	49078.69
517.37	48830.60
517.54	49397.01
517.72	49539.78
517.89	49277.64
518.06	49916.61
518.24	49368.92
518.41	49673.19
518.58	49790.22
518.75	49727.02
518.93	50162.36
519.10	50096.83
519.27	50113.21
519.45	50258.32
519.62	50466.63
519.79	50363.65
519.96	50368.33
520.14	50719.41
520.31	50639.83
520.48	50850.48
520.65	50759.20
520.83	50850.48
521.00	50981.55
521.17	51110.28
521.34	51084.53
521.52	51119.64
521.69	51100.92
521.86	51339.65
522.03	51257.73
522.20	51714.14
522.38	51742.22
522.55	51643.92
522.72	51824.14
522.89	51662.64
523.07	51777.33
523.24	51943.51
523.41	52109.69
523.58	52105.01
523.75	52250.12
523.92	52151.82
524.10	52589.50
524.27	52381.19
524.44	52247.78
524.61	52549.71
524.78	52306.29
524.96	52458.43
525.13	52938.24
525.30	52903.13
525.47	52846.96
525.64	52788.44
525.81	52954.62
525.98	53242.51
526.16	52835.25
526.33	53034.20
526.50	53422.73
526.67	53081.01
526.84	53165.27
527.01	53277.61
527.18	53027.18
527.36	53183.99
527.53	53214.42
527.70	53937.65
527.87	53719.98
528.04	53357.19
528.21	53614.65
528.38	53680.19
528.55	54059.35
528.72	53722.32
528.89	53748.06
529.07	53834.66
529.24	53666.14
529.41	53982.12
529.58	54049.99
529.75	53942.33
529.92	53911.90
530.09	54206.81
530.26	54534.48
530.43	54372.99
530.60	54094.46
530.77	54387.03
530.94	54321.49
531.11	54475.97
531.28	54593.00
531.46	54450.22
531.63	54628.10
531.80	54712.36
531.97	54607.04
532.14	54752.15
532.31	54904.29
532.48	54958.12
532.65	54869.18
532.82	54857.48
532.99	55145.36
533.16	55023.65
533.33	55093.87
533.50	55437.93
533.67	55449.63
533.84	55110.25
534.01	55147.70
534.18	55182.81
534.35	55674.32
534.52	55133.66
534.69	55648.58
534.86	55494.10
535.03	55781.99
535.20	55297.50
535.37	55676.66
535.54	55739.86
535.71	55426.23
535.88	56025.40
536.05	55882.63
536.22	55770.28
536.38	56037.11
536.55	56095.62
536.72	55861.57
536.89	55948.17
537.06	55847.52
537.23	56184.56
537.40	56006.68
537.57	55994.98
537.74	56214.99
537.91	56453.72
538.08	56097.96
538.25	55866.25
538.42	56147.11
538.59	56362.44
538.75	56186.90
538.92	56339.04
539.09	56495.85
539.26	56182.22
539.43	56437.34
539.60	56519.26
539.77	56645.65
539.94	56776.72
540.11	56523.94
540.28	56896.08
540.44	56970.98
540.61	56809.48
540.78	56570.75
540.95	56587.13
541.12	56727.56
541.29	56802.46
541.46	56896.08
541.62	56980.34
541.79	57090.35
541.96	56692.46
542.13	56844.59
542.30	57013.11
542.47	57263.55
542.63	57160.56
542.80	57212.06
542.97	57254.18
543.14	57726.97
543.31	57570.16
543.48	57607.61
543.64	57811.23
543.81	57701.23
543.98	57579.52
544.15	57485.90
544.32	57750.38
544.48	57736.34
544.65	57689.52
544.82	57694.21
544.99	57626.33
545.16	57895.49
545.32	57542.07
545.49	58028.90
545.66	58059.33
545.83	57937.62
546.00	57979.75
546.16	57972.73
546.33	58054.65
546.50	58012.52
546.67	58185.72
546.83	57663.78
547.00	58131.89
547.17	57949.32
547.34	57970.39
547.50	58138.91
547.67	58312.11
547.84	58131.89
548.00	58419.77
548.17	58403.39
548.34	58412.75
548.51	58543.82
548.67	58466.58
548.84	58396.37
549.01	58216.14
549.18	58274.66
549.34	58541.48
549.51	58527.44
549.68	58653.82
549.84	58480.63
550.01	58761.49
550.18	58471.26
550.34	58759.15
550.51	58705.32
550.68	58770.85
550.84	58494.67
551.01	58937.03
551.18	58904.26
551.34	58766.17
551.51	58773.19
551.68	58770.85
551.84	58925.33
552.01	58597.65
552.18	59135.98
552.34	58707.66
552.51	59152.36
552.68	58932.35
552.84	58876.18
553.01	59084.48
553.18	59089.16
553.34	59166.40
553.51	58969.80
553.67	59110.23
553.84	59274.07
554.01	59231.94
554.17	59276.41
554.34	59262.36
554.51	59330.24
554.67	59395.77
554.84	59515.14
555.00	59433.22
555.17	59271.73
555.33	59533.87
555.50	59222.58
555.67	59271.73
555.83	59248.32
556.00	59454.29
556.16	59538.55
556.33	59590.04
556.50	59580.68
556.66	59653.23
556.83	59442.59
556.99	59529.19
557.16	59845.16
557.32	59606.42
557.49	59983.25
557.65	59657.91
557.82	59833.46
557.98	59721.11
558.15	59576.00
558.32	59819.41
558.48	59554.93
558.65	59807.71
558.81	59648.55
558.98	59660.26
559.14	59835.80
559.31	60009.00
559.47	60046.44
559.64	59943.46
559.80	60104.96
559.97	59992.61
560.13	59868.56
560.30	60058.15
560.46	60149.43
560.63	60151.77
560.79	60287.52
560.96	60114.32
561.12	60282.84
561.29	60266.45
561.45	60156.45
561.61	60025.38
561.78	60067.51
561.94	60268.79
562.11	60104.96
562.27	60065.17
562.44	60252.41
562.60	60179.85
562.77	60200.92
562.93	60069.85
563.10	60331.99
563.26	60065.17
563.42	60612.85
563.59	60212.62
563.75	60266.45
563.92	60177.51
564.08	60128.36
564.24	60449.02
564.41	60537.96
564.57	60350.71
564.74	60495.83
564.90	60416.25
565.07	60371.78
565.23	60324.97
565.39	60479.44
565.56	60563.70
565.72	60324.97
565.88	60430.29
566.05	60355.39
566.21	60484.12
566.38	60399.86
566.54	60680.73
566.70	60647.96
566.87	60793.07
567.03	60458.38
567.19	60617.53
567.36	60481.78
567.52	60561.36
567.68	60762.65
567.85	60596.47
568.01	60584.77
568.17	60657.32
568.34	60694.77
568.50	60748.60
568.66	60694.77
568.83	60729.88
568.99	60608.17
569.15	60692.43
569.32	60725.20
569.48	60615.19
569.64	60750.94
569.81	60729.88
569.97	60690.09
570.13	60762.65
570.30	60498.17
570.46	60882.02
570.62	60900.74
570.78	60947.55
570.95	60797.76
571.11	60977.98
571.27	61151.18
571.43	60779.03
571.60	60989.68
571.76	60865.63
571.92	60882.02
572.09	60685.41
572.25	61078.62
572.41	60804.78
572.57	60629.24
572.74	61146.50
572.90	60764.99
573.06	60828.18
573.22	60893.72
573.38	60802.44
573.55	60713.50
573.71	60959.25
573.87	60968.61
574.03	60711.16
574.20	60886.70
574.36	60832.86
574.52	60985.00
574.68	61031.81
574.84	60959.25
575.01	61162.88
575.17	61010.74
575.33	60982.66
575.49	60701.79
575.65	61024.79
575.82	61200.33
575.98	61034.15
576.14	61205.01
576.30	61092.66
576.46	60975.64
576.62	60816.48
576.79	61003.72
576.95	60935.85
577.11	61212.03
577.27	61172.24
577.43	61062.24
577.59	60935.85
577.75	60992.02
577.92	60914.78
578.08	61123.09
578.24	61153.52
578.40	61298.63
578.56	61188.63
578.72	61111.39
578.88	61382.89
579.04	61415.66
579.21	61073.94
579.37	61212.03
579.53	61340.76
579.69	61057.56
579.85	61024.79
580.01	61223.73
580.17	61153.52
580.33	61197.99
580.49	61240.12
580.65	61209.69
580.82	61050.53
580.98	60947.55
581.14	61165.22
581.30	61350.12
581.46	61139.47
581.62	61020.11
581.78	61258.84
581.94	61305.65
582.10	61284.59
582.26	61109.05
582.42	61286.93
582.58	61221.39
582.74	61057.56
582.90	61169.90
583.06	61254.16
583.22	61186.28
583.38	61099.68
583.54	61221.39
583.70	61151.18
583.86	61190.97
584.02	61165.22
584.18	61202.67
584.34	61261.18
584.50	61233.10
584.66	61029.47
584.82	61013.08
584.98	61453.11
585.14	61315.01
585.30	61186.28
585.46	61275.22
585.62	61326.72
585.78	61410.98
585.94	61062.24
586.10	61205.01
586.26	61366.51
586.42	61436.72
586.58	61525.66
586.74	61394.59
586.90	61228.41
587.06	61244.80
587.22	61457.79
587.38	61263.52
587.54	61490.55
587.70	61537.36
587.86	61270.54
588.02	61492.89
588.18	61338.42
588.34	61298.63
588.49	61410.98
588.65	61347.78
588.81	61307.99
588.97	61509.28
589.13	61471.83
589.29	61406.30
589.45	61535.02
589.61	61418.00
589.77	61719.93
589.93	61467.15
590.08	61581.84
590.24	61497.58
590.40	61511.62
590.56	61661.41
590.72	61647.37
590.88	61453.11
591.04	61593.54
591.20	61670.78
591.35	61481.19
591.51	61808.87
591.67	61612.26
591.83	61780.78
591.99	61668.44
592.15	61520.98
592.31	61546.73
592.46	61773.76
592.62	61593.54
592.78	61673.12
592.94	61893.13
593.10	61745.67
593.26	61736.31
593.41	61621.62
593.57	61647.37
593.73	61740.99
593.89	61874.40
594.05	61900.15
594.20	61733.97
594.36	61855.68
594.52	61822.91
594.68	61638.01
594.84	61619.28
594.99	61797.16
595.15	61769.08
595.31	61881.42
595.47	61567.79
595.62	61673.12
595.78	61659.07
595.94	61834.61
596.10	61829.93
596.25	61820.57
596.41	61886.10
596.57	61886.10
596.73	62045.26
596.88	61750.35
597.04	61895.47
597.20	62159.95
597.36	61977.39
597.51	61925.89
597.67	61853.34
597.83	61853.34
597.99	61984.41
598.14	61958.66
598.30	61961.00
598.46	61991.43
598.61	61977.39
598.77	61876.74
598.93	61902.49
599.09	61902.49
599.24	62143.56
599.40	61855.68
599.56	61918.87
599.71	62157.61
599.87	62108.46
600.03	61953.98
600.18	61914.19
600.34	61813.55
600.50	62078.03
600.65	61881.42
600.81	61956.32
600.97	61972.70
601.12	61895.47
601.28	62082.71
601.44	61935.26
601.59	61958.66
601.75	61972.70
601.91	62234.84
602.06	62082.71
602.22	62134.20
602.37	61970.36
602.53	61956.32
602.69	62122.50
602.84	61925.89
603.00	61755.03
603.16	61865.04
603.31	62134.20
603.47	62178.67
603.62	61932.92
603.78	62092.07
603.94	61923.55
604.09	62045.26
604.25	62162.29
604.40	61921.21
604.56	62120.16
604.71	62368.26
604.87	61900.15
605.03	62087.39
605.18	61965.68
605.34	62085.05
605.49	61937.60
605.65	62251.23
605.80	62071.01
605.96	62173.99
606.12	62110.80
606.27	62082.71
606.43	61930.58
606.58	62211.44
606.74	62007.81
606.89	62080.37
607.05	62253.57
607.20	62106.12
607.36	62087.39
607.51	61776.10
607.67	61757.38
607.82	61876.74
607.98	62035.90
608.13	61975.05
608.29	61982.07
608.44	61881.42
608.60	61783.12
608.75	61846.32
608.91	62033.56
609.06	61783.12
609.22	62049.94
609.37	61666.09
609.53	61865.04
609.68	61937.60
609.84	61698.86
609.99	61855.68
610.15	61911.85
610.30	61923.55
610.46	62021.86
610.61	61944.62
610.76	61902.49
610.92	61682.48
611.07	61771.42
611.23	61712.91
611.38	61921.21
611.54	61680.14
611.69	61797.16
611.84	61834.61
612.00	61808.87
612.15	61726.95
612.31	61911.85
612.46	61698.86
612.62	61750.35
612.77	61666.09
612.92	61813.55
613.08	61684.82
613.23	61827.59
613.39	61687.16
613.54	61616.94
613.69	61832.27
613.85	61815.89
614.00	61808.87
614.15	61764.40
614.31	61539.71
614.46	61888.45
614.62	61619.28
614.77	61558.43
614.92	61710.56
615.08	61520.98
615.23	61502.26
615.38	61623.96
615.54	61614.60
615.69	61441.40
615.84	61609.92
616.00	61633.33
616.15	61663.75
616.30	61581.84
616.46	61581.84
616.61	61581.84
616.76	61736.31
616.92	61462.47
617.07	61453.11
617.22	61364.17
617.37	61525.66
617.53	61677.80
617.68	61513.96
617.83	61528.00
617.99	61572.47
618.14	61375.87
618.29	61537.36
618.45	61268.20
618.60	61443.74
618.75	61200.33
618.90	61509.28
619.06	61698.86
619.21	61591.20
619.36	61530.34
619.51	61319.70
619.67	61300.97
619.82	61455.45
619.97	61450.77
620.12	61212.03
620.28	61425.02
620.43	61240.12
620.58	61338.42
620.73	61069.26
620.89	61066.92
621.04	61488.21
621.19	61176.92
621.34	61174.58
621.49	60949.89
621.65	61216.71
621.80	61422.68
621.95	61031.81
622.10	61221.39
622.25	61275.22
622.41	61165.22
622.56	60884.36
622.71	61083.30
622.86	60949.89
623.01	61034.15
623.16	60886.70
623.32	61104.37
623.47	61073.94
623.62	61151.18
623.77	61090.32
623.92	61277.57
624.07	61113.73
624.23	61113.73
624.38	61008.40
624.53	60935.85
624.68	61073.94
624.83	61027.13
624.98	61078.62
625.13	60811.80
625.29	61010.74
625.44	60970.96
625.59	60729.88
625.74	60912.44
625.89	60835.20
626.04	60654.98
626.19	60615.19
626.34	60638.60
626.49	60708.82
626.65	60577.75
626.80	60704.13
626.95	60713.50
627.10	60514.55
627.25	60629.24
627.40	60502.85
627.55	60582.43
627.70	60678.39
627.85	60549.66
628.00	60418.59
628.15	60659.66
628.30	60446.68
628.45	60687.75
628.60	60498.17
628.76	60725.20
628.91	60559.02
629.06	60500.51
629.21	60612.85
629.36	60734.56
629.51	60470.08
629.66	60512.21
629.81	60229.01
629.96	60271.14
630.11	60271.14
630.26	60294.54
630.41	60374.12
630.56	60364.76
630.71	60341.35
630.86	60404.55
631.01	60121.34
631.16	60364.76
631.31	60182.19
631.46	60039.42
631.61	60313.26
631.76	60172.83
631.91	60360.08
632.06	60322.63
632.21	60278.16
632.36	60116.66
632.51	59936.44
632.66	60165.81
632.81	59910.69
632.96	60266.45
633.10	60154.11
633.25	60198.58
633.40	60231.35
633.55	60172.83
633.70	59917.71
633.85	60165.81
634.00	60030.06
634.15	59908.35
634.30	59983.25
634.45	60095.60
634.60	60130.70
634.75	59941.12
634.90	59791.33
635.05	59793.67
635.19	59842.82
635.34	59957.50
635.49	59992.61
635.64	60097.94
635.79	59842.82
635.94	59955.16
636.09	59742.17
636.24	59629.83
636.39	59798.35
636.53	59901.33
636.68	59929.42
636.83	59669.62
636.98	59819.41
637.13	59774.94
637.28	59730.47
637.43	59824.09
637.57	59718.77
637.72	59709.41
637.87	59810.05
638.02	59531.53
638.17	59735.15
638.32	59536.21
638.46	59774.94
638.61	59690.68
638.76	59477.69
638.91	59454.29
639.06	59557.27
639.20	59451.95
639.35	59262.36
639.50	59461.31
639.65	59557.27
639.80	59451.95
639.94	59437.90
640.09	59405.14
640.24	59473.01
640.39	59489.40
640.54	59531.53
640.68	59384.07
640.83	59372.37
640.98	59416.84
641.13	59283.43
641.27	59590.04
641.42	59269.39
641.57	59018.95
641.72	59377.05
641.86	59086.82
642.01	59091.51
642.16	59208.53
642.31	59035.33
642.45	59274.07
642.60	59124.27
642.75	59355.99
642.90	59337.26
643.04	59009.59
643.19	59072.78
643.34	58962.78
643.48	59491.74
643.63	59096.19
643.78	59121.93
643.93	59028.31
644.07	58967.46
644.22	59023.63
644.37	58747.45
644.51	58969.80
644.66	59021.29
644.81	59047.04
644.95	59260.02
645.10	58997.88
645.25	58927.67
645.39	58817.66
645.54	58583.61
645.69	58588.29
645.83	58869.15
645.98	58808.30
646.13	58796.60
646.27	58862.13
646.42	58712.34
646.57	58695.95
646.71	58754.47
646.86	58983.84
647.00	58761.49
647.15	58775.53
647.30	58646.80
647.44	58473.60
647.59	58890.22
647.74	58925.33
647.88	58665.53
648.03	58773.19
648.17	58712.34
648.32	58623.40
648.47	58539.14
648.61	58646.80
648.76	58660.85
648.90	58541.48
649.05	58518.07
649.20	58717.02
649.34	58457.22
649.49	58546.16
649.63	58569.57
649.78	58635.10
649.92	58539.14
650.07	58520.41
650.21	58136.57
650.36	58525.10
650.51	58319.13
650.65	58431.47
650.80	58628.08
650.94	58183.38
651.09	58166.99
651.23	58108.48
651.38	58337.85
651.52	58234.87
651.67	58145.93
651.81	58258.27
651.96	58262.96
652.10	57961.03
652.25	58162.31
652.39	58265.30
652.54	58141.25
652.68	57832.30
652.83	57717.61
652.97	58045.29
653.12	58134.23
653.26	58099.12
653.41	58216.14
653.55	58302.74
653.70	57923.58
653.84	58120.18
653.99	58162.31
654.13	57659.10
654.27	57935.28
654.42	57787.83
654.56	57914.22
654.71	58028.90
654.85	57839.32
655.00	57982.09
655.14	58028.90
655.29	57811.23
655.43	57977.41
655.57	57808.89
655.72	57932.94
655.86	57773.78
656.01	57579.52
656.15	57448.45
656.30	57829.96
656.44	57890.81
656.58	57710.59
656.73	57998.48
656.87	57623.99
657.01	57621.65
657.16	57687.18
657.30	57432.07
657.45	57364.19
657.59	57425.04
657.73	57560.79
657.88	57385.25
658.02	57403.98
658.16	57602.92
658.31	57240.14
658.45	57446.11
658.60	57088.01
658.74	57675.48
658.88	57518.67
659.03	57242.48
659.17	57160.56
659.31	57242.48
659.46	57174.61
659.60	57308.02
659.74	57272.91
659.89	56872.68
660.03	56961.62
660.17	57291.63
660.32	57181.63
660.46	57010.77
660.60	57141.84
660.74	57059.92
660.89	57022.47
661.03	56779.06
661.17	56837.57
661.32	56821.19
661.46	56690.12
661.60	57036.51
661.74	56907.79
661.89	56577.77
662.03	56603.52
662.17	56374.14
662.31	56687.78
662.46	56790.76
662.60	56605.86
662.74	56580.11
662.88	56413.93
663.03	56320.31
663.17	56243.07
663.31	56032.42
663.45	56317.97
663.60	56130.73
663.74	56081.58
663.88	55973.91
664.02	56336.69
664.17	56214.99
664.31	56004.34
664.45	56093.28
664.59	55796.03
664.73	55971.57
664.88	56053.49
665.02	55529.21
665.16	55636.87
665.30	55697.73
665.44	55805.39
665.59	55739.86
665.73	55433.25
665.87	55529.21
666.01	55458.99
666.15	55618.15
666.29	55529.21
666.44	55540.91
666.58	55482.40
666.72	55178.13
666.86	55421.55
667.00	55545.59
667.14	54745.13
667.28	55234.30
667.43	55105.57
667.57	55231.96
667.71	54883.22
667.85	54784.92
667.99	54780.24
668.13	54845.77
668.27	55047.06
668.41	54768.54
668.56	55009.61
668.70	54653.85
668.84	54700.66
668.98	54539.16
669.12	54770.88
669.26	54658.53
669.40	54794.28
669.54	54487.67
669.68	54272.34
669.82	54347.24
669.96	54590.66
670.10	54082.76
670.25	54522.78
670.39	54244.26
670.53	54321.49
670.67	54298.09
670.81	54281.70
670.95	54064.03
671.09	53958.71
671.23	53727.00
671.37	53591.25
671.51	53719.98
671.65	53684.87
671.79	53516.35
671.93	53516.35
672.07	53661.46
672.21	53530.39
672.35	53151.23
672.49	53235.48
672.63	52779.08
672.77	52825.89
672.91	53176.97
673.05	53085.69
673.19	52861.00
673.33	53003.77
673.47	52713.55
673.61	52809.51
673.75	52608.22
673.89	52556.73
674.03	52437.36
674.17	52617.58
674.31	52308.63
674.45	51899.04
674.59	52303.95
674.73	52191.61
674.87	51786.69
675.01	52313.31
675.15	51929.47
675.29	51798.40
675.43	51842.87
675.56	51480.08
675.70	51702.43
675.84	51250.71
675.98	50330.88
676.12	51583.07
676.26	51203.90
676.40	51215.60
676.54	51416.89
676.68	51210.92
676.82	50066.40
676.96	50707.71
677.10	50691.32
677.23	50127.25
677.37	50216.19
677.51	49923.63
677.65	50028.95
677.79	49741.06
677.93	49586.59
678.07	49455.52
678.21	49347.86
678.34	49389.98
678.48	49184.02
678.62	49001.46
678.76	48762.72
678.90	48842.30
679.04	49081.03
679.18	49017.84
679.31	48273.55
679.45	48217.38
679.59	48399.94
679.73	48540.37
679.87	48306.32
680.00	47772.67
680.14	47812.46
680.28	47660.33
680.42	47765.65
680.56	47494.15
680.70	47082.22
680.83	47112.64
680.97	47274.14
681.11	47274.14
681.25	47466.06
681.39	46815.40
681.52	46824.76
681.66	46677.30
681.80	46071.10
681.94	45975.14
682.07	46319.20
682.21	45844.07
682.35	45565.55
682.49	46064.08
682.62	45621.72
682.76	45930.67
682.90	45832.37
683.04	45771.52
683.17	45287.03
683.31	44935.95
683.45	44811.90
683.59	44531.03
683.72	44563.80
683.86	44598.91
684.00	44355.49
684.13	44509.97
684.27	44002.07
684.41	44191.65
684.55	43910.79
684.68	43896.75
684.82	43693.12
684.96	43489.49
685.09	43131.39
685.23	42787.33
685.37	42794.36
685.50	42960.53
685.64	42726.48
685.78	42986.28
685.91	42958.19
686.05	42799.04
686.19	41890.91
686.32	41471.95
686.46	41860.48
686.60	41165.34
686.73	41148.96
686.87	40924.27
687.01	41486.00
687.14	41319.82
687.28	40669.15
687.42	41043.63
687.55	40568.51
687.69	40402.33
687.82	40367.22
687.96	40058.27
688.10	40184.66
688.23	40369.56
688.37	39934.22
688.50	39655.70
688.64	39620.59
688.78	39442.71
688.91	39042.48
689.05	39051.84
689.18	39030.77
689.32	38052.43
689.46	38347.34
689.59	38349.68
689.73	38029.02
689.86	37528.15
690.00	37661.56
690.13	38113.28
690.27	37820.72
690.41	37544.53
690.54	37202.82
690.68	37441.55
690.81	37525.81
690.95	37151.32
691.08	36484.27
691.22	36547.47
691.35	36474.91
691.49	36987.49
691.62	36535.76
691.76	36343.84
691.89	35737.64
692.03	35311.66
692.16	35739.98
692.30	35548.06
692.43	35185.27
692.57	35274.21
692.70	35292.94
692.84	34883.34
692.97	35084.63
693.11	35000.37
693.24	34635.25
693.38	34422.26
693.51	34305.23
693.65	34101.61
693.78	34000.96
693.92	34532.26
694.05	33741.16
694.19	33509.45
694.32	33399.44
694.45	33102.20
694.59	33488.38
694.72	32905.59
694.86	32762.82
694.99	32194.07
695.13	32594.30
695.26	32376.63
695.39	31571.49
695.53	31737.66
695.66	32126.19
695.80	31934.27
695.93	31468.50
696.07	31384.24
696.20	30906.77
696.33	30614.21
696.47	31131.47
696.60	31056.57
696.73	30618.89
696.87	30738.26
697.00	30801.45
697.14	30445.69
697.27	30511.22
697.40	30272.49
697.54	29867.58
697.67	29804.38
697.80	29858.21
697.94	29764.59
698.07	29490.75
698.21	29043.71
698.34	29254.36
698.47	28896.25
698.61	28774.55
698.74	28793.27
698.87	28692.63
699.01	28535.81
699.14	28538.15
699.27	28294.74
699.40	28610.71
699.54	28212.82
699.67	28119.20
699.80	27714.28
699.94	28004.51
700.07	27742.37
700.20	27585.55
700.34	27166.60
700.47	26852.97
700.60	26799.13
700.73	26434.01
700.87	26464.44
701.00	26403.58
701.13	26059.52
701.26	26099.31
701.40	26036.12
701.53	26085.27
701.66	26300.60
701.79	25600.78
701.93	25067.14
702.06	25188.85
702.19	25095.22
702.32	25352.68
702.46	25132.67
702.59	24765.21
702.72	24496.05
702.85	24680.95
702.99	25163.10
703.12	24608.39
703.25	24545.20
703.38	24180.07
703.51	24112.20
703.65	23892.19
703.78	23388.97
703.91	23508.34
704.04	23557.49
704.17	23880.49
704.31	23194.71
704.44	23005.13
704.57	23056.62
704.70	23136.20
704.83	22670.43
704.96	22740.64
705.10	22628.30
705.23	22459.78
>>>>>End Processed Spectral Data<<<<<
