SpectraSuite Data File
++++++++++++++++++++++++++++++++++++
Date: Fri Oct 25 11:22:36 EDT 2013
User: price-jones
Dark Spectrum Present: No
Reference Spectrum Present: No
Number of Sampled Component Spectra: 1
Spectrometers: USB2+H05261
Integration Time (usec): 100000 (USB2+H05261)
Spectra Averaged: 1 (USB2+H05261)
Boxcar Smoothing: 0 (USB2+H05261)
Correct for Electrical Dark: No (USB2+H05261)
Strobe/Lamp Enabled: No (USB2+H05261)
Correct for Detector Non-linearity: No (USB2+H05261)
Correct for Stray Light: No (USB2+H05261)
Number of Pixels in Processed Spectrum: 2048
>>>>>Begin Processed Spectral Data<<<<<
365.73	290.23
365.92	290.23
366.12	290.23
366.32	121.71
366.52	161.50
366.72	46.81
366.91	72.56
367.11	128.73
367.31	86.60
367.51	105.32
367.70	166.18
367.90	128.73
368.10	110.01
368.30	117.03
368.49	142.77
368.69	173.20
368.89	163.84
369.09	102.98
369.28	175.54
369.48	140.43
369.68	163.84
369.87	180.22
370.07	135.75
370.27	175.54
370.47	322.99
370.66	585.13
370.86	582.79
371.06	594.50
371.25	685.78
371.45	617.90
371.65	671.73
371.84	648.33
372.04	662.37
372.24	695.14
372.44	718.54
372.63	758.33
372.83	669.39
373.03	678.76
373.22	795.78
373.42	730.25
373.62	704.50
373.81	770.04
374.01	793.44
374.21	798.12
374.40	842.59
374.60	849.61
374.79	812.17
374.99	863.66
375.19	844.93
375.38	816.85
375.58	772.38
375.78	763.01
375.97	788.76
376.17	882.38
376.37	877.70
376.56	863.66
376.76	833.23
376.95	870.68
377.15	978.34
377.35	861.32
377.54	910.47
377.74	971.32
377.93	896.43
378.13	884.72
378.33	1025.15
378.52	954.94
378.72	922.17
378.91	997.07
379.11	898.77
379.31	903.45
379.50	999.41
379.70	957.28
379.89	990.05
380.09	933.87
380.28	933.87
380.48	966.64
380.68	901.11
380.87	968.98
381.07	1060.26
381.26	1050.90
381.46	1053.24
381.65	1020.47
381.85	1036.86
382.04	1013.45
382.24	1055.58
382.43	1043.88
382.63	1081.33
382.83	1067.28
383.02	1151.54
383.22	1107.07
383.41	1188.99
383.61	1086.01
383.80	1128.14
384.00	1125.80
384.19	1078.99
384.39	1191.33
384.58	1090.69
384.78	1128.14
384.97	1151.54
385.17	1139.84
385.36	1132.82
385.56	1135.16
385.75	1151.54
385.95	1193.67
386.14	1198.35
386.34	1238.14
386.53	1179.63
386.72	1144.52
386.92	1266.23
387.11	1301.34
387.31	1348.15
387.50	1226.44
387.70	1231.12
387.89	1212.40
388.09	1324.74
388.28	1245.16
388.48	1296.66
388.67	1273.25
388.86	1352.83
389.06	1294.32
389.25	1378.58
389.45	1282.61
389.64	1385.60
389.84	1411.34
390.03	1397.30
390.22	1446.45
390.42	1310.70
390.61	1338.79
390.81	1397.30
391.00	1423.05
391.19	1502.62
391.39	1423.05
391.58	1469.86
391.78	1476.88
391.97	1444.11
392.16	1507.30
392.36	1577.52
392.55	1561.14
392.75	1584.54
392.94	1528.37
393.13	1537.73
393.33	1544.75
393.52	1556.46
393.71	1561.14
393.91	1596.25
394.10	1619.65
394.29	1600.93
394.49	1678.16
394.68	1619.65
394.88	1673.48
395.07	1652.42
395.26	1629.01
395.46	1673.48
395.65	1657.10
395.84	1757.74
396.04	1771.79
396.23	1736.68
396.42	1612.63
396.62	1795.19
396.81	1703.91
397.00	1825.62
397.19	1830.30
397.39	1785.83
397.58	1734.34
397.77	1837.32
397.97	1736.68
398.16	1816.26
398.35	1823.28
398.55	1834.98
398.74	1944.99
398.93	1930.94
399.12	1907.54
399.32	1867.75
399.51	1853.70
399.70	2047.97
399.90	1834.98
400.09	1928.60
400.28	2078.40
400.47	2047.97
400.67	2076.06
400.86	2111.16
401.05	2150.95
401.24	2076.06
401.44	2057.33
401.63	2010.52
401.82	2069.03
402.01	2026.90
402.21	2111.16
402.40	2265.64
402.59	2188.40
402.78	2267.98
402.97	2326.49
403.17	2392.03
403.36	2275.00
403.55	2216.49
403.74	2340.54
403.93	2377.98
404.13	2324.15
404.32	2417.77
404.51	2392.03
404.70	2469.27
404.89	2417.77
405.09	2380.32
405.28	2471.61
405.47	2485.65
405.66	2457.56
405.85	2572.25
406.05	2534.80
406.24	2628.42
406.43	2640.12
406.62	2619.06
406.81	2661.19
407.00	2644.81
407.20	2668.21
407.39	2670.55
407.58	2715.02
407.77	2759.49
407.96	2747.79
408.15	2867.16
408.34	2700.98
408.54	2808.64
408.73	2864.82
408.92	2836.73
409.11	2897.58
409.30	2991.20
409.49	2841.41
409.68	2949.08
409.87	2981.84
410.07	3145.68
410.26	3030.99
410.45	3049.72
410.64	3028.65
410.83	3110.57
411.02	3136.32
411.21	3232.28
411.40	3152.70
411.59	3194.83
411.78	3255.69
411.98	3049.72
412.17	3269.73
412.36	3276.75
412.55	3393.78
412.74	3403.14
412.93	3321.22
413.12	3510.80
413.31	3508.46
413.50	3433.57
413.69	3438.25
413.88	3611.45
414.07	3515.48
414.26	3658.26
414.45	3691.02
414.64	3651.24
414.83	3698.05
415.02	3840.82
415.22	3920.40
415.41	3957.85
415.60	3964.87
415.79	4046.79
415.98	3929.76
416.17	4009.34
416.36	4077.21
416.55	4117.00
416.74	4348.72
416.93	4074.87
417.12	4140.41
417.31	4269.14
417.50	4294.88
417.69	4341.69
417.88	4278.50
418.07	4269.14
418.26	4386.16
418.45	4358.08
418.64	4491.49
418.83	4386.16
419.02	4475.10
419.21	4519.57
419.39	4519.57
419.58	4535.96
419.77	4456.38
419.96	4580.43
420.15	4542.98
420.34	4657.67
420.53	4652.98
420.72	4645.96
420.91	4685.75
421.10	4748.95
421.29	4800.44
421.48	4851.93
421.67	4802.78
421.86	4737.24
422.05	4671.71
422.24	4938.53
422.43	4938.53
422.61	4922.15
422.80	5109.39
422.99	5050.88
423.18	4999.38
423.37	5149.18
423.56	4912.78
423.75	4926.83
423.94	4842.57
424.13	4627.24
424.32	4870.65
424.50	4985.34
424.69	5090.67
424.88	5071.94
425.07	5006.41
425.26	4795.76
425.45	5097.69
425.64	4887.04
425.83	5097.69
426.01	5188.97
426.20	5114.07
426.39	5123.43
426.58	5022.79
426.77	5048.54
426.96	5146.84
427.15	5151.52
427.33	5121.09
427.52	5210.03
427.71	5210.03
427.90	5355.15
428.09	5254.50
428.28	5277.91
428.46	5474.51
428.65	5317.70
428.84	5549.41
429.03	5579.84
429.22	5497.92
429.40	5514.30
429.59	5640.69
429.78	5338.76
429.97	5247.48
430.16	5483.88
430.34	5572.82
430.53	5612.60
430.72	5668.78
430.91	5467.49
431.10	5671.12
431.28	5825.59
431.47	5923.90
431.66	5729.63
431.85	5804.53
432.03	6033.90
432.22	5961.34
432.41	5926.24
432.60	5809.21
432.79	5879.43
432.97	5984.75
433.16	6076.03
433.35	5888.79
433.54	6171.99
433.72	6214.12
433.91	6193.06
434.10	6258.59
434.28	6211.78
434.47	6279.66
434.66	6279.66
434.85	6167.31
435.03	6373.28
435.22	6356.90
435.41	6532.44
435.59	6420.09
435.78	6464.56
435.97	6630.74
436.16	6347.53
436.34	6530.09
436.53	6476.26
436.72	6532.44
436.90	6555.84
437.09	6750.10
437.28	6675.21
437.46	6661.16
437.65	6619.04
437.84	6855.43
438.02	6684.57
438.21	6918.62
438.40	6794.58
438.58	7026.29
438.77	7026.29
438.96	7126.93
439.14	7131.61
439.33	7152.68
439.52	7241.62
439.70	7307.15
439.89	7253.32
440.08	7400.77
440.26	7480.35
440.45	7494.40
440.63	7555.25
440.82	7569.29
441.01	7632.49
441.19	7679.30
441.38	7590.36
441.57	7925.05
441.75	7964.84
441.94	8021.02
442.12	7829.09
442.31	7920.37
442.50	8166.13
442.68	8149.75
442.87	8170.81
443.05	8105.28
443.24	8290.18
443.43	8332.31
443.61	8344.01
443.80	8542.96
443.98	8184.85
444.17	7988.25
444.35	8393.16
444.54	8538.27
444.73	8299.54
444.91	8306.56
445.10	8505.51
445.28	8313.58
445.47	8451.67
445.65	8416.57
445.84	8521.89
446.02	8435.29
446.21	8559.34
446.39	8617.85
446.58	8299.54
446.77	8332.31
446.95	8327.63
447.14	8648.28
447.32	8692.75
447.51	8521.89
447.69	8554.66
447.88	8629.56
448.06	8557.00
448.25	8571.04
448.43	8613.17
448.62	8657.64
448.80	8552.32
448.99	8725.52
449.17	8793.39
449.36	8898.72
449.54	8952.55
449.73	9210.01
449.91	9060.21
450.10	9287.25
450.28	9207.67
450.46	9191.28
450.65	9102.34
450.83	9067.24
451.02	9050.85
451.20	9121.07
451.39	9057.87
451.57	9298.95
451.76	9235.75
451.94	9163.20
452.13	9617.26
452.31	9177.24
452.49	9135.11
452.68	9432.36
452.86	9474.49
453.05	9500.23
453.23	9575.13
453.42	9521.30
453.60	9467.47
453.78	9549.39
453.97	9652.37
454.15	9626.62
454.34	9710.88
454.52	10026.86
454.70	9708.54
454.89	9856.00
455.07	9914.51
455.26	9912.17
455.44	10026.86
455.62	10012.81
455.81	10033.88
455.99	9848.97
456.17	9991.75
456.36	10085.37
456.54	10157.92
456.73	10253.89
456.91	10675.18
457.09	10525.39
457.28	10780.51
457.46	10413.04
457.64	10724.33
457.83	10415.38
458.01	10595.61
458.19	10970.09
458.38	10572.20
458.56	10820.30
458.74	10731.36
458.93	10759.44
459.11	10857.75
459.29	10771.15
459.48	10803.91
459.66	10939.66
459.84	11101.16
460.03	11208.83
460.21	11035.63
460.39	11206.48
460.57	10902.22
460.76	11199.46
460.94	11204.14
461.12	11204.14
461.31	11309.47
461.49	11220.53
461.67	11365.64
461.85	11595.01
462.04	11332.87
462.22	11721.40
462.40	11735.45
462.59	11721.40
462.77	11517.78
462.95	11695.66
463.13	11506.07
463.32	11655.87
463.50	11943.75
463.68	11819.71
463.86	12020.99
464.05	11735.45
464.23	11892.26
464.41	12002.27
464.59	11894.60
464.78	12280.79
464.96	12114.61
465.14	12093.55
465.32	12299.52
465.50	12109.93
465.69	12472.71
465.87	12149.72
466.05	12271.43
466.23	12304.20
466.41	12526.55
466.60	12528.89
466.78	12404.84
466.96	12386.12
467.14	12355.69
467.32	12425.90
467.51	12556.97
467.69	12166.10
467.87	12409.52
468.05	12535.91
468.23	12475.06
468.41	12276.11
468.60	12844.86
468.78	12812.09
468.96	12676.34
469.14	12985.29
469.32	13006.36
469.50	12945.50
469.69	13004.02
469.87	13207.64
470.05	13296.58
470.23	13289.56
470.41	13411.27
470.59	13495.53
470.77	13380.84
470.95	13289.56
471.14	13638.30
471.32	13069.55
471.50	13715.54
471.68	13790.44
471.86	13678.09
472.04	13872.36
472.22	14218.75
472.40	13738.94
472.58	14167.26
472.77	13886.40
472.95	14370.89
473.13	14600.26
473.31	14209.39
473.49	14574.52
473.67	14366.21
473.85	14239.82
474.03	14682.18
474.21	14684.52
474.39	14661.12
474.57	14944.32
474.75	15016.88
474.93	14754.74
475.12	14909.21
475.30	15068.37
475.48	15384.34
475.66	15318.81
475.84	15164.33
476.02	15578.61
476.20	15632.44
476.38	15733.08
476.56	16215.23
476.74	16231.62
476.92	16437.58
477.10	15847.77
477.28	16332.26
477.46	16126.29
477.64	16580.36
477.82	16751.21
478.00	16929.09
478.18	17111.66
478.36	17088.25
478.54	16957.18
478.72	17282.52
478.90	17680.41
479.08	17741.26
479.26	17806.80
479.44	17930.84
479.62	17996.38
479.80	18167.24
479.98	18291.29
480.16	18787.48
480.34	18593.22
480.52	18640.03
480.70	18827.27
480.88	18721.95
481.06	18728.97
481.24	19063.66
481.41	19438.15
481.59	19421.77
481.77	19927.32
481.95	19840.72
482.13	19857.10
482.31	19793.91
482.49	20545.22
482.67	20814.38
482.85	20718.42
483.03	20659.91
483.21	20933.75
483.39	21266.11
483.57	21088.23
483.74	21572.72
483.92	21706.13
484.10	21338.66
484.28	21858.26
484.46	22139.13
484.64	22604.89
484.82	22209.34
485.00	22555.74
485.18	23115.13
485.35	23248.54
485.53	23009.81
485.71	23122.15
485.89	23768.14
486.07	23440.47
486.25	23522.38
486.43	24149.65
486.61	24191.78
486.78	24339.23
486.96	24290.08
487.14	24917.34
487.32	24870.53
487.50	25322.26
487.68	25376.09
487.85	25223.95
488.03	25605.46
488.21	26141.44
488.39	26209.32
488.57	26522.95
488.75	26991.06
488.92	26944.25
489.10	27061.27
489.28	26869.35
489.46	27161.92
489.64	27040.21
489.81	27761.09
489.99	27941.32
490.17	28402.40
490.35	28390.70
490.53	28393.04
490.70	28877.53
490.88	28711.35
491.06	29235.63
491.24	29198.18
491.41	29319.89
491.59	29750.55
491.77	29853.53
491.95	29970.56
492.13	30349.73
492.30	30581.44
492.48	30441.01
492.66	30661.02
492.84	30742.94
493.01	31189.98
493.19	30986.35
493.37	31152.53
493.54	31480.21
493.72	31957.67
493.90	31831.29
494.08	31648.72
494.25	32484.30
494.43	32395.35
494.61	32484.30
494.79	32723.03
494.96	32650.47
495.14	33277.74
495.32	33462.64
495.49	33600.73
495.67	33586.69
495.85	33972.88
496.02	33750.52
496.20	34085.22
496.38	34333.32
496.55	34696.10
496.73	34892.71
496.91	34969.94
497.09	34904.41
497.26	35431.03
497.44	35426.35
497.62	35323.36
497.79	36533.42
497.97	35845.30
498.14	36180.00
498.32	36524.06
498.50	36545.12
498.67	37483.68
498.85	36734.71
499.03	36919.61
499.20	37163.03
499.38	37174.73
499.56	37338.57
499.73	37537.51
499.91	38024.34
500.08	37982.21
500.26	37668.58
500.44	38614.16
500.61	38337.98
500.79	38354.36
500.97	38497.13
501.14	38979.28
501.32	38815.44
501.49	39009.71
501.67	39213.34
501.84	39133.76
502.02	39435.69
502.20	39454.41
502.37	39786.77
502.55	39515.26
502.72	39711.87
502.90	40016.14
503.07	39833.58
503.25	40081.67
503.43	39803.15
503.60	40470.20
503.78	40444.46
503.95	40687.87
504.13	40783.83
504.30	41284.71
504.48	40800.22
504.65	41092.79
504.83	41378.33
505.01	41626.43
505.18	41738.77
505.36	41956.44
505.53	41567.91
505.71	41855.80
505.88	42756.91
506.06	41956.44
506.23	42087.51
506.41	42497.11
506.58	42543.92
506.76	42810.74
506.93	43054.15
507.11	42494.77
507.28	42735.84
507.46	42918.40
507.63	43342.04
507.81	43784.40
507.98	43262.46
508.16	43475.45
508.33	43576.09
508.50	43882.70
508.68	44018.46
508.85	44147.18
509.03	44334.43
509.20	44016.11
509.38	44589.55
509.55	44842.32
509.73	44882.11
509.90	44889.13
510.08	45076.38
510.25	44858.71
510.42	44926.58
510.60	45331.50
510.77	46068.76
510.95	46043.02
511.12	45647.47
511.30	45544.48
511.47	45572.57
511.64	46026.63
511.82	46377.72
511.99	46019.61
512.17	46309.84
512.34	45940.04
512.51	46749.86
512.69	46843.48
512.86	46703.05
513.04	47157.11
513.21	47133.71
513.38	47309.25
513.56	47571.39
513.73	47098.60
513.90	47655.65
514.08	47463.72
514.25	47775.02
514.43	47449.68
514.60	48119.07
514.77	47611.18
514.95	48294.61
515.12	47810.12
515.29	47838.21
515.47	48500.58
515.64	48421.00
515.81	48538.03
515.99	48535.69
516.16	48776.76
516.33	48849.32
516.51	49057.63
516.68	48626.97
516.85	48685.48
517.03	49310.41
517.20	48973.37
517.37	49130.19
517.54	49155.93
517.72	49331.47
517.89	49298.70
518.06	49495.31
518.24	49949.37
518.41	49633.40
518.58	49694.25
518.75	49916.61
518.93	50040.65
519.10	49708.30
519.27	49968.10
519.45	50024.27
519.62	50408.12
519.79	50220.87
519.96	50192.79
520.14	50412.80
520.31	50216.19
520.48	51091.55
520.65	51084.53
520.83	51004.95
521.00	51243.69
521.17	51168.79
521.34	50972.19
521.52	50836.44
521.69	51182.84
521.86	51367.74
522.03	51463.70
522.20	51983.30
522.38	51814.78
522.55	51725.84
522.72	51746.90
522.89	51503.49
523.07	51929.47
523.24	51882.66
523.41	51999.68
523.58	51526.89
523.75	52432.68
523.92	52119.05
524.10	52547.37
524.27	52268.84
524.44	52278.21
524.61	52418.64
524.78	52505.24
524.96	52652.69
525.13	52505.24
525.30	52687.80
525.47	53003.77
525.64	52732.27
525.81	52657.37
525.98	53158.25
526.16	52802.49
526.33	52945.26
526.50	53226.12
526.67	53015.47
526.84	53230.80
527.01	53162.93
527.18	53235.48
527.36	53455.50
527.53	53446.13
527.70	53808.92
527.87	53450.81
528.04	53399.32
528.21	53600.61
528.38	53539.75
528.55	53696.57
528.72	53511.67
528.89	53560.82
529.07	53806.58
529.24	53717.64
529.41	54255.96
529.58	53881.47
529.75	53790.19
529.92	53947.01
530.09	54197.44
530.26	54298.09
530.43	54452.56
530.60	54253.62
530.77	54321.49
530.94	54520.44
531.11	54342.56
531.28	54356.60
531.46	54532.14
531.63	54852.80
531.80	54478.31
531.97	54766.20
532.14	54923.01
532.31	54803.64
532.48	55035.36
532.65	54955.78
532.82	54522.78
532.99	54920.67
533.16	54700.66
533.33	55353.67
533.50	55208.56
533.67	55203.88
533.84	55002.59
534.01	55084.51
534.18	55236.64
534.35	55571.34
534.52	55491.76
534.69	55494.10
534.86	55533.89
535.03	55613.47
535.20	55480.06
535.37	55463.67
535.54	55620.49
535.71	55391.12
535.88	55856.88
536.05	55536.23
536.22	55810.07
536.38	55796.03
536.55	55985.61
536.72	56016.04
536.89	56030.08
537.06	55938.80
537.23	55985.61
537.40	55704.75
537.57	55810.07
537.74	55980.93
537.91	56292.22
538.08	56175.20
538.25	56011.36
538.42	56165.84
538.59	56512.23
538.75	56409.25
538.92	56207.97
539.09	56535.64
539.26	56465.42
539.43	56552.02
539.60	56540.32
539.77	56772.03
539.94	56718.20
540.11	56535.64
540.28	56589.47
540.44	56589.47
540.61	56736.93
540.78	56685.43
540.95	56757.99
541.12	56662.03
541.29	56762.67
541.46	56928.85
541.62	56933.53
541.79	56905.44
541.96	56762.67
542.13	57006.09
542.30	57017.79
542.47	57017.79
542.63	56996.73
542.80	57305.68
542.97	57476.54
543.14	57408.66
543.31	57432.07
543.48	57310.36
543.64	57649.74
543.81	57467.17
543.98	57687.18
544.15	57813.57
544.32	57712.93
544.48	57677.82
544.65	57588.88
544.82	57748.04
544.99	57572.50
545.16	57712.93
545.32	57645.05
545.49	58028.90
545.66	57961.03
545.83	57883.79
546.00	58042.95
546.16	58047.63
546.33	57712.93
546.50	57551.43
546.67	58218.49
546.83	57523.35
547.00	58082.73
547.17	57881.45
547.34	58101.46
547.50	58321.47
547.67	58337.85
547.84	58246.57
548.00	58431.47
548.17	58349.56
548.34	58319.13
548.51	58616.38
548.67	58497.01
548.84	58344.87
549.01	58279.34
549.18	58480.63
549.34	58681.91
549.51	58740.42
549.68	58651.48
549.84	58660.85
550.01	58543.82
550.18	58677.23
550.34	58625.74
550.51	58843.41
550.68	58775.53
550.84	58513.39
551.01	58808.30
551.18	58787.24
551.34	58822.34
551.51	58637.44
551.68	58873.84
551.84	58965.12
552.01	58698.30
552.18	58808.30
552.34	58653.82
552.51	58796.60
552.68	58812.98
552.84	58995.54
553.01	59182.79
553.18	59257.68
553.34	59171.08
553.51	58958.09
553.67	58962.78
553.84	59096.19
554.01	59311.52
554.17	59374.71
554.34	59215.55
554.51	59028.31
554.67	59323.22
554.84	59086.82
555.00	59068.10
555.17	59168.74
555.33	59035.33
555.50	59164.06
555.67	59119.59
555.83	59206.19
556.00	59468.33
556.16	59753.88
556.33	59613.44
556.50	59278.75
556.66	59620.47
556.83	59482.37
556.99	59655.57
557.16	59779.62
557.32	59730.47
557.49	59742.17
557.65	59435.56
557.82	59676.64
557.98	59676.64
558.15	59657.91
558.32	59725.79
558.48	59599.40
558.65	59678.98
558.81	59657.91
558.98	59690.68
559.14	59863.88
559.31	59929.42
559.47	59929.42
559.64	60027.72
559.80	59810.05
559.97	60020.70
560.13	59744.51
560.30	60025.38
560.46	60116.66
560.63	59938.78
560.79	59962.18
560.96	60126.02
561.12	60168.15
561.29	60264.11
561.45	60123.68
561.61	60193.90
561.78	60032.40
561.94	59913.03
562.11	59938.78
562.27	60205.60
562.44	60186.88
562.60	60409.23
562.77	60271.14
562.93	60135.38
563.10	60334.33
563.26	59945.80
563.42	60456.04
563.59	60259.43
563.75	60177.51
563.92	60172.83
564.08	60172.83
564.24	60561.36
564.41	60214.96
564.57	60444.33
564.74	60465.40
564.90	60622.22
565.07	60446.68
565.23	60364.76
565.39	60402.21
565.56	60348.37
565.72	60158.79
565.88	60397.52
566.05	60336.67
566.21	60425.61
566.38	60638.60
566.54	60629.24
566.70	60528.59
566.87	60561.36
567.03	60381.14
567.19	60713.50
567.36	60568.38
567.52	60470.08
567.68	60664.35
567.85	60699.45
568.01	60797.76
568.17	60554.34
568.34	60954.57
568.50	60544.98
568.66	60402.21
568.83	60736.90
568.99	60479.44
569.15	60769.67
569.32	60629.24
569.48	60512.21
569.64	60781.37
569.81	60809.46
569.97	60788.39
570.13	60779.03
570.30	60741.58
570.46	60521.57
570.62	60945.21
570.78	60809.46
570.95	60654.98
571.11	60814.14
571.27	60500.51
571.43	60910.10
571.60	60907.76
571.76	60779.03
571.92	61015.43
572.09	60764.99
572.25	61015.43
572.41	60746.26
572.57	60832.86
572.74	61197.99
572.90	60755.63
573.06	60872.65
573.22	60741.58
573.38	61008.40
573.55	60755.63
573.71	61041.17
573.87	60933.51
574.03	60680.73
574.20	60853.93
574.36	60956.91
574.52	60900.74
574.68	61102.03
574.84	61029.47
575.01	60846.91
575.17	61090.32
575.33	61036.49
575.49	60940.53
575.65	60980.32
575.82	60994.36
575.98	61048.19
576.14	61258.84
576.30	61181.60
576.46	60982.66
576.62	61188.63
576.79	61038.83
576.95	60877.33
577.11	61048.19
577.27	60940.53
577.43	61099.68
577.59	60910.10
577.75	60963.93
577.92	60942.87
578.08	60919.46
578.24	61001.38
578.40	61247.14
578.56	61209.69
578.72	61106.71
578.88	61207.35
579.04	61387.57
579.21	61095.00
579.37	61298.63
579.53	61251.82
579.69	60891.38
579.85	61130.11
580.01	61155.86
580.17	61125.43
580.33	61282.25
580.49	61174.58
580.65	61123.09
580.82	61118.41
580.98	61179.26
581.14	60956.91
581.30	61286.93
581.46	61268.20
581.62	61380.55
581.78	60919.46
581.94	61324.38
582.10	61197.99
582.26	61036.49
582.42	61087.98
582.58	61116.07
582.74	61291.61
582.90	61223.73
583.06	61085.64
583.22	61024.79
583.38	61066.92
583.54	61247.14
583.70	61446.08
583.86	61144.16
584.02	61165.22
584.18	61162.88
584.34	61228.41
584.50	61132.45
584.66	61076.28
584.82	61069.26
584.98	61469.49
585.14	61237.78
585.30	61024.79
585.46	61265.86
585.62	61317.35
585.78	61579.49
585.94	61188.63
586.10	61242.46
586.26	61434.38
586.42	61258.84
586.58	61326.72
586.74	61359.48
586.90	61095.00
587.06	61134.79
587.22	61254.16
587.38	61230.75
587.54	61467.15
587.70	61422.68
587.86	61403.95
588.02	61242.46
588.18	61282.25
588.34	61169.90
588.49	61195.65
588.65	61443.74
588.81	61293.95
588.97	61345.44
589.13	61221.39
589.29	61340.76
589.45	61455.45
589.61	61441.40
589.77	61401.61
589.93	61525.66
590.08	61668.44
590.24	61619.28
590.40	61694.18
590.56	61696.52
590.72	61633.33
590.88	61509.28
591.04	61408.64
591.20	61776.10
591.35	61748.01
591.51	61785.46
591.67	61661.41
591.83	61755.03
591.99	61427.36
592.15	61551.41
592.31	61539.71
592.46	61745.67
592.62	61567.79
592.78	61574.81
592.94	61769.08
593.10	61623.96
593.26	61886.10
593.41	61750.35
593.57	61680.14
593.73	61724.61
593.89	61911.85
594.05	61752.69
594.20	61808.87
594.36	61993.77
594.52	61773.76
594.68	61481.19
594.84	61577.15
594.99	61853.34
595.15	61675.46
595.31	61759.72
595.47	61645.03
595.62	61876.74
595.78	61677.80
595.94	61818.23
596.10	62080.37
596.25	61691.84
596.41	61773.76
596.57	61799.50
596.73	61846.32
596.88	61806.53
597.04	61970.36
597.20	61963.34
597.36	61925.89
597.51	62157.61
597.67	61757.38
597.83	61764.40
597.99	61890.79
598.14	61832.27
598.30	61895.47
598.46	61965.68
598.61	62063.99
598.77	61829.93
598.93	62007.81
599.09	61972.70
599.24	62206.76
599.40	61918.87
599.56	61832.27
599.71	61764.40
599.87	62063.99
600.03	61979.73
600.18	61911.85
600.34	61811.21
600.50	61787.80
600.65	61956.32
600.81	62003.13
600.97	61876.74
601.12	62038.24
601.28	61900.15
601.44	61942.28
601.59	61944.62
601.75	62089.73
601.91	62094.41
602.06	61984.41
602.22	62279.31
602.37	62124.84
602.53	61909.51
602.69	61986.75
602.84	61909.51
603.00	61930.58
603.16	62024.20
603.31	61977.39
603.47	61946.96
603.62	61916.53
603.78	62038.24
603.94	61832.27
604.09	62045.26
604.25	61993.77
604.40	61865.04
604.56	62049.94
604.71	62176.33
604.87	61893.13
605.03	61843.98
605.18	61876.74
605.34	61977.39
605.49	61719.93
605.65	62087.39
605.80	62066.33
605.96	62166.97
606.12	62073.35
606.27	62288.68
606.43	62005.47
606.58	62157.61
606.74	61867.38
606.89	61970.36
607.05	62026.54
607.20	62031.22
607.36	61719.93
607.51	61783.12
607.67	61860.36
607.82	61827.59
607.98	62012.49
608.13	62028.88
608.29	61769.08
608.44	61834.61
608.60	61677.80
608.75	61757.38
608.91	61827.59
609.06	61729.29
609.22	61858.02
609.37	61691.84
609.53	61783.12
609.68	61949.30
609.84	61804.19
609.99	61783.12
610.15	61846.32
610.30	62106.12
610.46	61904.83
610.61	61825.25
610.76	61729.29
610.92	61675.46
611.07	61806.53
611.23	61757.38
611.38	61759.72
611.54	61698.86
611.69	61918.87
611.84	61858.02
612.00	61769.08
612.15	61717.59
612.31	61820.57
612.46	61605.24
612.62	61698.86
612.77	61528.00
612.92	61794.82
613.08	61755.03
613.23	61703.54
613.39	61731.63
613.54	61483.53
613.69	61544.39
613.85	61652.05
614.00	61499.92
614.15	61682.48
614.31	61689.50
614.46	61792.48
614.62	61656.73
614.77	61523.32
614.92	61539.71
615.08	61595.88
615.23	61740.99
615.38	61403.95
615.54	61546.73
615.69	61609.92
615.84	61630.99
616.00	61661.41
616.15	61584.18
616.30	61565.45
616.46	61469.49
616.61	61495.24
616.76	61563.11
616.92	61492.89
617.07	61528.00
617.22	61408.64
617.37	61305.65
617.53	61656.73
617.68	61628.65
617.83	61506.94
617.99	61595.88
618.14	61425.02
618.29	61415.66
618.45	61359.48
618.60	61408.64
618.75	61240.12
618.90	61286.93
619.06	61743.33
619.21	61499.92
619.36	61556.09
619.51	61464.81
619.67	61202.67
619.82	61162.88
619.97	61296.29
620.12	61221.39
620.28	61134.79
620.43	61221.39
620.58	61254.16
620.73	61113.73
620.89	61183.94
621.04	61415.66
621.19	61282.25
621.34	61296.29
621.49	61095.00
621.65	61258.84
621.80	61387.57
621.95	61118.41
622.10	61265.86
622.25	61036.49
622.41	61165.22
622.56	61015.43
622.71	61436.72
622.86	60992.02
623.01	61052.87
623.16	61034.15
623.32	60867.97
623.47	61076.28
623.62	61148.84
623.77	61022.45
623.92	61008.40
624.07	61343.10
624.23	61013.08
624.38	61090.32
624.53	60954.57
624.68	61055.21
624.83	60987.34
624.98	61080.96
625.13	60816.48
625.29	60940.53
625.44	61064.58
625.59	60973.30
625.74	60722.86
625.89	60638.60
626.04	60467.74
626.19	60589.45
626.34	60561.36
626.49	60552.00
626.65	60605.83
626.80	60753.29
626.95	60687.75
627.10	60514.55
627.25	60629.24
627.40	60313.26
627.55	60720.52
627.70	60556.68
627.85	60680.73
628.00	60306.24
628.15	60673.71
628.30	60404.55
628.45	60537.96
628.60	60315.61
628.76	60434.97
628.91	60514.55
629.06	60470.08
629.21	60584.77
629.36	60423.27
629.51	60278.16
629.66	60341.35
629.81	60355.39
629.96	60252.41
630.11	60385.82
630.26	60292.20
630.41	60341.35
630.56	60245.39
630.71	60395.18
630.86	60360.08
631.01	60226.66
631.16	60474.76
631.31	60018.36
631.46	60081.55
631.61	60327.31
631.76	60324.97
631.91	60210.28
632.06	60378.80
632.21	60245.39
632.36	60079.21
632.51	59985.59
632.66	60130.70
632.81	60156.45
632.96	60376.46
633.10	60240.71
633.25	60067.51
633.40	60381.14
633.55	60041.76
633.70	59824.09
633.85	60062.83
634.00	59978.57
634.15	60004.31
634.30	59796.01
634.45	60069.85
634.60	60346.03
634.75	60214.96
634.90	59901.33
635.05	60011.34
635.19	59891.97
635.34	60191.56
635.49	59753.88
635.64	59854.52
635.79	59891.97
635.94	59810.05
636.09	59664.94
636.24	59702.38
636.39	59660.26
636.53	60074.53
636.68	59578.34
636.83	59779.62
636.98	59744.51
637.13	59690.68
637.28	59611.10
637.43	59805.37
637.57	59796.01
637.72	59540.89
637.87	59697.70
638.02	59316.20
638.17	59660.26
638.32	59620.47
638.46	59508.12
638.61	59540.89
638.76	59327.90
638.91	59554.93
639.06	59512.80
639.20	59458.97
639.35	59238.96
639.50	59124.27
639.65	59503.44
639.80	59480.03
639.94	59215.55
640.09	59351.30
640.24	59433.22
640.39	59360.67
640.54	59267.05
640.68	59351.30
640.83	59435.56
640.98	59423.86
641.13	59037.67
641.27	59547.91
641.42	59281.09
641.57	59192.15
641.72	59089.16
641.86	59206.19
642.01	59042.35
642.16	59302.15
642.31	59206.19
642.45	59412.16
642.60	59194.49
642.75	59150.02
642.90	59210.87
643.04	59215.55
643.19	59028.31
643.34	59098.53
643.48	59374.71
643.63	59047.04
643.78	59054.06
643.93	59065.76
644.07	59098.53
644.22	59000.22
644.37	58850.43
644.51	58791.92
644.66	58904.26
644.81	59157.04
644.95	59082.14
645.10	58958.09
645.25	59124.27
645.39	59023.63
645.54	58775.53
645.69	58834.05
645.83	58805.96
645.98	58775.53
646.13	58782.55
646.27	58614.04
646.42	58534.46
646.57	58433.81
646.71	58688.93
646.86	59056.40
647.00	58990.86
647.15	58766.17
647.30	58705.32
647.44	58791.92
647.59	59032.99
647.74	58672.55
647.88	58630.42
648.03	58927.67
648.17	58770.85
648.32	58342.53
648.47	58679.57
648.61	58562.54
648.76	58632.76
648.90	58695.95
649.05	58581.27
649.20	58805.96
649.34	58532.12
649.49	58387.00
649.63	58686.59
649.78	58724.04
649.92	58349.56
650.07	58569.57
650.21	58410.41
650.36	58389.34
650.51	58227.85
650.65	58719.36
650.80	58520.41
650.94	58319.13
651.09	58197.42
651.23	58174.02
651.38	58188.06
651.52	58136.57
651.67	58265.30
651.81	58174.02
651.96	58199.76
652.10	58082.73
652.25	58143.59
652.39	58134.23
652.54	57984.43
652.68	57958.69
652.83	58007.84
652.97	58279.34
653.12	57909.53
653.26	58045.29
653.41	58291.04
653.55	58096.78
653.70	57968.05
653.84	58232.53
653.99	58152.95
654.13	57677.82
654.27	57928.26
654.42	58014.86
654.56	57883.79
654.71	58085.07
654.85	57968.05
655.00	58082.73
655.14	57921.24
655.29	57741.02
655.43	57879.11
655.57	57757.40
655.72	57801.87
655.86	57836.98
656.01	57649.74
656.15	57670.80
656.30	57930.60
656.44	57879.11
656.58	57958.69
656.73	57733.99
656.87	57717.61
657.01	57600.58
657.16	57614.63
657.30	57712.93
657.45	57638.03
657.59	57537.39
657.73	57301.00
657.88	57343.12
658.02	57322.06
658.16	57518.67
658.31	57343.12
658.45	57219.08
658.60	57455.47
658.74	57418.02
658.88	57329.08
659.03	57242.48
659.17	57134.82
659.31	57261.21
659.46	56954.60
659.60	57403.98
659.74	57134.82
659.89	57027.15
660.03	56912.47
660.17	57055.24
660.32	57097.37
660.46	57029.49
660.60	56561.39
660.74	56741.61
660.89	57296.31
661.03	56870.34
661.17	56898.42
661.32	56683.09
661.46	56882.04
661.60	56783.74
661.74	56662.03
661.89	56624.58
662.03	56416.27
662.17	56568.41
662.31	56788.42
662.46	56938.21
662.60	56554.36
662.74	56500.53
662.88	56561.39
663.03	56350.74
663.17	56425.64
663.31	55985.61
663.45	56294.56
663.60	55952.85
663.74	55838.16
663.88	56128.39
664.02	56119.02
664.17	56252.44
664.31	55906.04
664.45	56135.41
664.59	56112.00
664.73	55887.31
664.88	56135.41
665.02	55344.31
665.16	55543.25
665.30	55583.04
665.44	55676.66
665.59	55222.60
665.73	55327.92
665.87	55377.08
666.01	55405.16
666.15	55533.89
666.29	55569.00
666.44	55292.82
666.58	55089.19
666.72	55264.73
666.86	55229.62
667.00	55274.09
667.14	54850.45
667.28	55004.93
667.43	54911.31
667.57	54878.54
667.71	55009.61
667.85	54885.56
667.99	54993.23
668.13	54901.95
668.27	55082.17
668.41	55093.87
668.56	54660.87
668.70	54813.01
668.84	54602.36
668.98	54330.86
669.12	54597.68
669.26	54815.35
669.40	54195.10
669.54	54363.62
669.68	54190.42
669.82	54066.38
669.96	54363.62
670.10	54288.73
670.25	54286.39
670.39	54363.62
670.53	53954.03
670.67	53954.03
670.81	54466.61
670.95	54356.60
671.09	53673.16
671.23	53605.29
671.37	53846.36
671.51	53944.67
671.65	53673.16
671.79	53528.05
671.93	53380.60
672.07	53549.12
672.21	53572.52
672.35	53247.19
672.49	53202.72
672.63	52849.30
672.77	53153.57
672.91	52889.09
673.05	52788.44
673.19	52928.87
673.33	52750.99
673.47	52545.03
673.61	53010.79
673.75	52589.50
673.89	52622.26
674.03	52390.55
674.17	52336.72
674.31	52238.42
674.45	52119.05
674.59	51894.36
674.73	52112.03
674.87	52027.77
675.01	51693.07
675.15	51983.30
675.29	51959.89
675.43	51643.92
675.56	51742.22
675.70	51304.54
675.84	51447.32
675.98	50459.61
676.12	51299.86
676.26	51611.15
676.40	51246.03
676.54	51131.34
676.68	51213.26
676.82	50237.26
676.96	50679.62
677.10	50436.20
677.23	50115.55
677.37	50401.10
677.51	50155.34
677.65	50019.59
677.79	49366.58
677.93	49514.03
678.07	48999.12
678.21	49034.22
678.34	49523.40
678.48	49034.22
678.62	48650.38
678.76	48966.35
678.90	48725.27
679.04	49118.48
679.18	49034.22
679.31	48477.18
679.45	48615.27
679.59	48797.83
679.73	48423.34
679.87	48076.94
680.00	47952.90
680.14	47510.53
680.28	47402.87
680.42	47798.42
680.56	47264.78
680.70	47105.62
680.83	47178.18
680.97	47243.71
681.11	47000.30
681.25	47047.11
681.39	46925.40
681.52	46777.95
681.66	46731.14
681.80	46256.01
681.94	46284.09
682.07	46443.25
682.21	46007.91
682.35	45382.99
682.49	45713.00
682.62	45635.77
682.76	45811.31
682.90	45989.19
683.04	45099.78
683.17	45036.59
683.31	45418.10
683.45	44889.13
683.59	44772.11
683.72	44715.93
683.86	44568.48
684.00	44456.14
684.13	44418.69
684.27	43854.62
684.41	43957.60
684.55	43885.04
684.68	44144.84
684.82	43629.93
684.96	43798.44
685.09	43292.89
685.23	43058.84
685.37	42801.38
685.50	42775.63
685.64	42920.74
685.78	42906.70
685.91	42815.42
686.05	42424.55
686.19	41801.97
686.32	41722.39
686.46	41256.62
686.60	41172.36
686.73	41249.60
686.87	40755.75
687.01	41425.14
687.14	41535.15
687.28	40840.01
687.42	40467.86
687.55	40926.61
687.69	40856.39
687.82	40409.35
687.96	40046.57
688.10	39737.62
688.23	39974.01
688.37	40212.74
688.50	39339.72
688.64	39454.41
688.78	39732.93
688.91	38885.66
689.05	38890.34
689.18	38773.31
689.32	38667.99
689.46	38361.38
689.59	38171.80
689.73	37846.46
689.86	37893.27
690.00	37853.48
690.13	37757.52
690.27	37666.24
690.41	37675.60
690.54	37453.25
690.68	37132.60
690.81	37287.07
690.95	37481.34
691.08	36858.76
691.22	36437.46
691.35	36540.44
691.49	36926.63
691.62	36725.35
691.76	36135.53
691.89	35791.47
692.03	35812.54
692.16	35531.67
692.30	35821.90
692.43	34976.97
692.57	35299.96
692.70	35138.46
692.84	35105.70
692.97	35129.10
693.11	34869.30
693.24	34686.74
693.38	34258.42
693.51	34036.07
693.65	33872.23
693.78	34244.38
693.92	33783.29
694.05	33923.72
694.19	33558.60
694.32	33593.71
694.45	33326.89
694.59	33294.12
694.72	32844.74
694.86	32758.14
694.99	32582.60
695.13	32493.66
695.26	31936.61
695.39	31737.66
695.53	31819.58
695.66	32243.22
695.80	31695.53
695.93	31920.23
696.07	30824.86
696.20	31335.09
696.33	31185.30
696.47	31189.98
696.60	30766.34
696.73	30932.52
696.87	31000.40
697.00	30326.32
697.14	30160.14
697.27	29970.56
697.40	29979.92
697.54	30057.16
697.67	29947.15
697.80	29869.92
697.94	29518.84
698.07	29371.38
698.21	29130.31
698.34	29291.80
698.47	28783.91
698.61	28577.94
698.74	28826.04
698.87	28924.34
699.01	28175.37
699.14	28123.88
699.27	28142.60
699.40	28037.28
699.54	28065.36
699.67	28046.64
699.80	27800.88
699.94	27913.23
700.07	27880.46
700.20	27655.77
700.34	26993.40
700.47	27030.85
700.60	27215.75
700.73	26661.04
700.87	26384.86
701.00	26326.35
701.13	26015.05
701.26	26132.08
701.40	26251.45
701.53	26167.19
701.66	26017.40
701.79	25804.41
701.93	25205.23
702.06	25179.48
702.19	25158.42
702.32	25034.37
702.46	25170.12
702.59	24592.01
702.72	24451.58
702.85	24610.73
702.99	24657.54
703.12	24306.46
703.25	24315.83
703.38	24016.24
703.51	24039.64
703.65	23896.87
703.78	23763.46
703.91	23538.77
704.04	23751.76
704.17	23604.30
704.31	23730.69
704.44	23058.96
704.57	22892.78
704.70	22845.97
704.83	23049.60
704.96	22689.15
705.10	22031.46
705.23	22359.14
>>>>>End Processed Spectral Data<<<<<
