SpectraSuite Data File
++++++++++++++++++++++++++++++++++++
Date: Fri Oct 25 10:48:18 EDT 2013
User: price-jones
Dark Spectrum Present: No
Reference Spectrum Present: No
Number of Sampled Component Spectra: 1
Spectrometers: USB2+H05261
Integration Time (usec): 100000 (USB2+H05261)
Spectra Averaged: 1 (USB2+H05261)
Boxcar Smoothing: 0 (USB2+H05261)
Correct for Electrical Dark: No (USB2+H05261)
Strobe/Lamp Enabled: No (USB2+H05261)
Correct for Detector Non-linearity: No (USB2+H05261)
Correct for Stray Light: No (USB2+H05261)
Number of Pixels in Processed Spectrum: 2048
>>>>>Begin Processed Spectral Data<<<<<
365.73	114.69
365.92	114.69
366.12	114.69
366.32	70.22
366.52	53.83
366.72	88.94
366.91	0.00
367.11	60.85
367.31	23.41
367.51	4.68
367.70	72.56
367.90	93.62
368.10	51.49
368.30	51.49
368.49	49.15
368.69	72.56
368.89	81.92
369.09	79.58
369.28	105.32
369.48	14.04
369.68	102.98
369.87	53.83
370.07	112.35
370.27	145.11
370.47	257.46
370.66	388.53
370.86	454.06
371.06	526.62
371.25	564.07
371.45	491.51
371.65	479.81
371.84	461.09
372.04	486.83
372.24	561.73
372.44	545.34
372.63	554.71
372.83	512.58
373.03	594.50
373.22	514.92
373.42	582.79
373.62	568.75
373.81	552.37
374.01	617.90
374.21	540.66
374.40	535.98
374.60	641.31
374.79	575.77
374.99	631.94
375.19	613.22
375.38	596.84
375.58	594.50
375.78	582.79
375.97	650.67
376.17	683.44
376.37	545.34
376.56	636.63
376.76	617.90
376.95	657.69
377.15	655.35
377.35	664.71
377.54	739.61
377.74	695.14
377.93	697.48
378.13	734.93
378.33	716.20
378.52	641.31
378.72	690.46
378.91	620.24
379.11	664.71
379.31	746.63
379.50	678.76
379.70	739.61
379.89	709.18
380.09	770.04
380.28	681.10
380.48	753.65
380.68	704.50
380.87	725.57
381.07	730.25
381.26	781.74
381.46	695.14
381.65	823.87
381.85	770.04
382.04	734.93
382.24	767.70
382.43	739.61
382.63	688.12
382.83	695.14
383.02	634.29
383.22	770.04
383.41	681.10
383.61	760.67
383.80	835.57
384.00	840.25
384.19	835.57
384.39	875.36
384.58	814.51
384.78	896.43
384.97	919.83
385.17	800.46
385.36	795.78
385.56	851.96
385.75	924.51
385.95	837.91
386.14	931.53
386.34	767.70
386.53	945.58
386.72	905.79
386.92	870.68
387.11	929.19
387.31	933.87
387.50	887.06
387.70	943.24
387.89	973.66
388.09	919.83
388.28	854.30
388.48	978.34
388.67	952.60
388.86	976.00
389.06	950.26
389.25	1027.50
389.45	1062.60
389.64	976.00
389.84	1046.22
390.03	971.32
390.22	1064.94
390.42	954.94
390.61	1043.88
390.81	1081.33
391.00	1081.33
391.19	1086.01
391.39	1057.92
391.58	1083.67
391.78	1090.69
391.97	1050.90
392.16	1020.47
392.36	1153.88
392.55	1062.60
392.75	1081.33
392.94	1015.79
393.13	1048.56
393.33	1046.22
393.52	1102.39
393.71	1123.46
393.91	1158.57
394.10	1149.20
394.29	1193.67
394.49	1282.61
394.68	1226.44
394.88	1315.38
395.07	1394.96
395.26	1383.26
395.46	1282.61
395.65	1270.91
395.84	1334.11
396.04	1273.25
396.23	1235.80
396.42	1163.25
396.62	1217.08
396.81	1233.46
397.00	1224.10
397.19	1385.60
397.39	1397.30
397.58	1418.36
397.77	1432.41
397.97	1458.15
398.16	1420.71
398.35	1465.18
398.55	1409.00
398.74	1544.75
398.93	1533.05
399.12	1638.38
399.32	1544.75
399.51	1645.40
399.70	1575.18
399.90	1586.88
400.09	1540.07
400.28	1638.38
400.47	1727.32
400.67	1809.23
400.86	1760.08
401.05	1746.04
401.24	1701.57
401.44	1867.75
401.63	1739.02
401.82	1788.17
402.01	1834.98
402.21	1774.13
402.40	1806.89
402.59	1769.44
402.78	1905.20
402.97	1856.04
403.17	1795.19
403.36	1940.30
403.55	1933.28
403.74	1994.14
403.93	2015.20
404.13	1907.54
404.32	1935.62
404.51	2017.54
404.70	1977.75
404.89	1923.92
405.09	2087.76
405.28	2054.99
405.47	2059.67
405.66	2040.95
405.85	2022.22
406.05	2054.99
406.24	2029.24
406.43	2186.06
406.62	2228.19
406.81	2162.66
407.00	2136.91
407.20	2092.44
407.39	2127.55
407.58	2167.34
407.77	2312.45
407.96	2340.54
408.15	2392.03
408.34	2373.30
408.54	2237.55
408.73	2406.07
408.92	2375.64
409.11	2293.72
409.30	2363.94
409.49	2267.98
409.68	2342.88
409.87	2406.07
410.07	2480.97
410.26	2485.65
410.45	2537.14
410.64	2537.14
410.83	2560.55
411.02	2609.70
411.21	2665.87
411.40	2719.70
411.59	2806.30
411.78	2691.62
411.98	2628.42
412.17	2722.04
412.36	2782.90
412.55	2916.31
412.74	2693.96
412.93	2883.54
413.12	2733.75
413.31	2918.65
413.50	2991.20
413.69	2944.39
413.88	3000.57
414.07	3045.04
414.26	3059.08
414.45	3040.36
414.64	3023.97
414.83	3131.64
415.02	3199.51
415.22	3133.98
415.41	3239.30
415.60	3241.64
415.79	3290.79
415.98	3211.22
416.17	3412.50
416.36	3463.99
416.55	3445.27
416.74	3426.54
416.93	3251.00
417.12	3368.03
417.31	3480.38
417.50	3417.18
417.69	3569.32
417.88	3487.40
418.07	3410.16
418.26	3482.72
418.45	3625.49
418.64	3698.05
418.83	3623.15
419.02	3747.20
419.21	3838.48
419.39	3616.13
419.58	3808.05
419.77	3786.99
419.96	3770.60
420.15	3779.97
420.34	3686.34
420.53	3946.14
420.72	3960.19
420.91	3782.31
421.10	4095.94
421.29	4035.08
421.48	3861.88
421.67	3810.39
421.86	3852.52
422.05	3868.91
422.24	3836.14
422.43	3981.25
422.61	4060.83
422.80	4070.19
422.99	4053.81
423.18	4079.55
423.37	4023.38
423.56	4142.75
423.75	4098.28
423.94	4072.53
424.13	3868.91
424.32	3955.51
424.50	4053.81
424.69	4131.05
424.88	4095.94
425.07	3960.19
425.26	3906.35
425.45	4119.34
425.64	3997.64
425.83	4072.53
426.01	4224.67
426.20	4086.58
426.39	4348.72
426.58	4112.32
426.77	4114.66
426.96	4290.20
427.15	4191.90
427.33	4212.96
427.52	4187.22
427.71	4304.25
427.90	4269.14
428.09	4388.50
428.28	4283.18
428.46	4458.72
428.65	4266.80
428.84	4524.26
429.03	4465.74
429.22	4222.33
429.40	4320.63
429.59	4219.99
429.78	4163.81
429.97	3955.51
430.16	4161.47
430.34	4369.78
430.53	4208.28
430.72	4376.80
430.91	4421.27
431.10	4559.36
431.28	4709.16
431.47	4828.53
431.66	4755.97
431.85	4828.53
432.03	4711.50
432.22	4919.81
432.41	4603.83
432.60	4870.65
432.79	4917.47
432.97	4844.91
433.16	4898.74
433.35	4856.61
433.54	4809.80
433.72	4788.74
433.91	4748.95
434.10	4842.57
434.28	4968.96
434.47	4968.96
434.66	5090.67
434.85	4926.83
435.03	5172.58
435.22	5064.92
435.41	5144.50
435.59	5245.14
435.78	5179.61
435.97	5371.53
436.16	5263.86
436.34	5324.72
436.53	5198.33
436.72	5359.83
436.90	5259.18
437.09	5322.38
437.28	5411.32
437.46	5355.15
437.65	5331.74
437.84	5343.44
438.02	5465.15
438.21	5420.68
438.40	5338.76
438.58	5481.53
438.77	5680.48
438.96	5568.13
439.14	5940.28
439.33	5769.42
439.52	5916.87
439.70	5696.86
439.89	5778.78
440.08	5923.90
440.26	5928.58
440.45	5884.11
440.63	6043.26
440.82	6193.06
441.01	6038.58
441.19	6036.24
441.38	6319.45
441.57	6249.23
441.75	6494.99
441.94	6382.64
442.12	6590.95
442.31	6504.35
442.50	6466.90
442.68	6583.93
442.87	6590.95
443.05	6558.18
443.24	6635.42
443.43	6682.23
443.61	6644.78
443.80	6719.68
443.98	6705.63
444.17	6384.98
444.35	6672.87
444.54	6726.70
444.73	6729.04
444.91	6644.78
445.10	6693.93
445.28	6682.23
445.47	6572.22
445.65	6616.69
445.84	6726.70
446.02	6937.35
446.21	6801.60
446.39	6944.37
446.58	6942.03
446.77	6864.79
446.95	6754.79
447.14	6918.62
447.32	7183.10
447.51	6836.70
447.69	6778.19
447.88	6913.94
448.06	6792.23
448.25	6878.83
448.43	7061.40
448.62	6965.43
448.80	6918.62
448.99	7045.01
449.17	7190.13
449.36	6890.54
449.54	7119.91
449.73	7339.92
449.91	7307.15
450.10	7414.82
450.28	7440.56
450.46	7536.52
450.65	7489.71
450.83	7489.71
451.02	7372.69
451.20	7503.76
451.39	7541.21
451.57	7372.69
451.76	7384.39
451.94	7433.54
452.13	7562.27
452.31	7559.93
452.49	7248.64
452.68	7468.65
452.86	7529.50
453.05	7421.84
453.23	7536.52
453.42	7683.98
453.60	7475.67
453.78	7569.29
453.97	7470.99
454.15	7679.30
454.34	7644.19
454.52	7772.92
454.70	7899.31
454.89	7775.26
455.07	7838.45
455.26	7840.79
455.44	7903.99
455.62	7976.55
455.81	7833.77
455.99	8168.47
456.17	8011.65
456.36	8166.13
456.54	8107.62
456.73	8191.88
456.91	8505.51
457.09	8397.84
457.28	8465.72
457.46	8304.22
457.64	8271.45
457.83	8528.91
458.01	8390.82
458.19	8552.32
458.38	8477.42
458.56	8636.58
458.74	8442.31
458.93	8652.96
459.11	8624.87
459.29	8470.40
459.48	8718.50
459.66	8439.97
459.84	8737.22
460.03	8814.46
460.21	8861.27
460.39	8901.06
460.57	8727.86
460.76	8896.38
460.94	8856.59
461.12	8903.40
461.31	8826.16
461.49	8828.50
461.67	8842.54
461.85	9249.80
462.04	9081.28
462.22	9467.47
462.40	9128.09
462.59	9221.71
462.77	8917.44
462.95	9224.05
463.13	9116.39
463.32	9254.48
463.50	9289.59
463.68	9167.88
463.86	9427.68
464.05	9202.99
464.23	9111.71
464.41	9343.42
464.59	9184.26
464.78	9593.86
464.96	9341.08
465.14	9420.66
465.32	9626.62
465.50	9591.52
465.69	9537.68
465.87	9518.96
466.05	9703.86
466.23	9556.41
466.41	9399.59
466.60	9659.39
466.78	9572.79
466.96	9774.08
467.14	9645.35
467.32	9645.35
467.51	9767.06
467.69	9397.25
467.87	9671.09
468.05	9848.97
468.23	9619.60
468.41	9750.67
468.60	9926.21
468.78	9856.00
468.96	9832.59
469.14	10064.30
469.32	10176.65
469.50	9774.08
469.69	9958.98
469.87	9797.48
470.05	10040.90
470.23	10148.56
470.41	10094.73
470.59	10363.89
470.77	10169.63
470.95	10237.50
471.14	10485.60
471.32	10122.82
471.50	10778.17
471.68	10691.57
471.86	10616.67
472.04	10567.52
472.22	10817.96
472.40	10569.86
472.58	10752.42
472.77	10530.07
472.95	10920.94
473.13	11166.70
473.31	10740.72
473.49	10822.64
473.67	10916.26
473.85	11026.26
474.03	11290.74
474.21	11358.62
474.39	11293.08
474.57	11290.74
474.75	11499.05
474.93	11744.81
475.12	11571.61
475.30	11798.64
475.48	11449.90
475.66	11587.99
475.84	11513.10
476.02	11672.25
476.20	11646.51
476.38	12105.25
476.56	12159.08
476.74	12170.79
476.92	12294.83
477.10	12320.58
477.28	12374.41
477.46	12468.03
477.64	12620.17
477.82	12606.13
478.00	13095.30
478.18	12702.09
478.36	12901.03
478.54	13158.49
478.72	13406.59
478.90	13114.02
479.08	13481.49
479.26	13490.85
479.44	13535.32
479.62	13734.26
479.80	13771.71
479.98	13846.61
480.16	13752.99
480.34	13928.53
480.52	14141.52
480.70	14113.43
480.88	13916.83
481.06	14406.00
481.24	14459.83
481.41	14459.83
481.59	14576.86
481.77	14822.61
481.95	14881.13
482.13	15033.26
482.31	15154.97
482.49	15524.77
482.67	15255.61
482.85	15342.21
483.03	15545.84
483.21	15763.51
483.39	16067.78
483.57	15807.98
483.74	15960.11
483.92	16088.84
484.10	15995.22
484.28	16292.47
484.46	16477.37
484.64	16748.87
484.82	16802.71
485.00	16833.13
485.18	16788.66
485.35	16727.81
485.53	16580.36
485.71	16505.46
485.89	16957.18
486.07	16631.85
486.25	16975.91
486.43	17525.93
486.61	17528.27
486.78	17998.72
486.96	17975.31
487.14	18101.70
487.32	17951.91
487.50	18523.00
487.68	18888.12
487.85	19051.96
488.03	19037.92
488.21	19119.84
488.39	18916.21
488.57	19276.65
488.75	19688.59
488.92	19583.26
489.10	19857.10
489.28	19971.79
489.46	20467.98
489.64	20095.84
489.81	20610.76
489.99	20788.64
490.17	20683.31
490.35	21099.93
490.53	20980.56
490.70	21022.69
490.88	21041.42
491.06	21336.32
491.24	21149.08
491.41	21280.15
491.59	21844.22
491.77	21928.48
491.95	21341.00
492.13	21986.99
492.30	22485.53
492.48	22094.66
492.66	22441.06
492.84	22586.17
493.01	22548.72
493.19	22733.62
493.37	23077.68
493.54	22621.28
493.72	23410.04
493.90	23475.57
494.08	23599.62
494.25	23810.27
494.43	23653.45
494.61	23901.55
494.79	24016.24
494.96	23983.47
495.14	24238.59
495.32	24091.13
495.49	24666.91
495.67	24554.56
495.85	24917.34
496.02	25268.42
496.20	25041.39
496.38	25223.95
496.55	24989.90
496.73	26068.89
496.91	25682.70
497.09	25937.82
497.26	26038.46
497.44	25708.44
497.62	25795.04
497.79	26246.77
497.97	25762.28
498.14	26026.76
498.32	26134.42
498.50	26359.11
498.67	26675.09
498.85	26897.44
499.03	27365.54
499.20	27103.40
499.38	27161.92
499.56	27367.88
499.73	26979.36
499.91	27016.80
500.08	27356.18
500.26	27215.75
500.44	27255.54
500.61	27522.36
500.79	27730.67
500.97	27938.97
501.14	28133.24
501.32	28056.00
501.49	28056.00
501.67	27974.08
501.84	27873.44
502.02	27903.87
502.20	28264.31
502.37	28505.38
502.55	28795.61
502.72	28980.51
502.90	28704.33
503.07	28788.59
503.25	28498.36
503.43	28797.95
503.60	28821.36
503.78	29184.14
503.95	29359.68
504.13	29338.62
504.30	29619.48
504.48	29017.96
504.65	29647.57
504.83	30064.18
505.01	30106.31
505.18	30029.07
505.36	30319.30
505.53	29909.71
505.71	30707.83
505.88	30845.92
506.06	30373.13
506.23	30256.11
506.41	30281.85
506.58	30698.47
506.76	30731.23
506.93	30932.52
507.11	31089.34
507.28	30876.35
507.46	30831.88
507.63	30588.46
507.81	30883.37
507.98	30927.84
508.16	31089.34
508.33	31047.21
508.50	31522.34
508.68	31674.47
508.85	32079.38
509.03	32128.53
509.20	32322.80
509.38	32205.77
509.55	31793.84
509.73	32313.44
509.90	32470.25
510.08	32144.92
510.25	32158.96
510.42	32107.47
510.60	32641.11
510.77	32666.86
510.95	32624.73
511.12	32596.64
511.30	33214.54
511.47	33261.35
511.64	33354.97
511.82	33001.55
511.99	33015.60
512.17	33359.66
512.34	32943.04
512.51	33165.39
512.69	33544.56
512.86	33958.83
513.04	33809.04
513.21	33942.45
513.38	33493.07
513.56	33565.62
513.73	33443.91
513.90	34101.61
514.08	33752.87
514.25	34061.82
514.43	34171.82
514.60	34263.10
514.77	34148.42
514.95	34312.25
515.12	34005.64
515.29	34698.44
515.47	34806.11
515.64	35250.81
515.81	34340.34
515.99	34955.90
516.16	34876.32
516.33	34258.42
516.51	34550.99
516.68	34424.60
516.85	34373.11
517.03	35023.78
517.20	34581.42
517.37	34763.98
517.54	35548.06
517.72	35290.60
517.89	35185.27
518.06	34866.96
518.24	35119.74
518.41	35042.50
518.58	35742.32
518.75	35461.46
518.93	35995.10
519.10	36002.12
519.27	36390.65
519.45	36070.00
519.62	36018.50
519.79	36196.38
519.96	36580.23
520.14	36673.85
520.31	35606.57
520.48	36212.77
520.65	36350.86
520.83	36924.29
521.00	36753.43
521.17	36711.30
521.34	36821.31
521.52	36938.33
521.69	37207.50
521.86	37464.96
522.03	37319.84
522.20	37127.92
522.38	37357.29
522.55	37399.42
522.72	37486.02
522.89	37193.45
523.07	37806.67
523.24	37244.94
523.41	37790.29
523.58	37979.87
523.75	38054.77
523.92	38548.62
524.10	38293.50
524.27	38424.57
524.44	38066.47
524.61	38721.82
524.78	38237.33
524.96	38621.18
525.13	38590.75
525.30	39297.59
525.47	38712.46
525.64	38698.42
525.81	38892.68
525.98	38831.83
526.16	38333.29
526.33	38017.32
526.50	38602.46
526.67	38110.94
526.84	38541.60
527.01	38586.07
527.18	38785.02
527.36	39098.65
527.53	39222.70
527.70	39920.18
527.87	39412.28
528.04	39541.01
528.21	39601.86
528.38	39213.34
528.55	40009.12
528.72	39456.75
528.89	40402.33
529.07	40254.87
529.24	39819.53
529.41	39522.29
529.58	39742.30
529.75	39538.67
529.92	40027.84
530.09	40149.55
530.26	40084.01
530.43	40584.89
530.60	40137.85
530.77	40512.33
530.94	40765.11
531.11	40488.93
531.28	40643.40
531.46	40634.04
531.63	40755.75
531.80	40559.14
531.97	40390.62
532.14	40580.21
532.31	40266.58
532.48	40315.73
532.65	41181.73
532.82	40493.61
532.99	41006.19
533.16	40809.58
533.33	40821.28
533.50	41022.57
533.67	41237.90
533.84	40947.67
534.01	41251.94
534.18	41048.32
534.35	41727.07
534.52	41048.32
534.69	41605.36
534.86	41497.70
535.03	41574.94
535.20	41958.78
535.37	41804.31
535.54	42323.91
535.71	41443.87
535.88	41954.10
536.05	41380.67
536.22	41956.44
536.38	41687.28
536.55	41457.91
536.72	42005.59
536.89	41523.44
537.06	41986.87
537.23	42401.14
537.40	41790.27
537.57	42405.83
537.74	42141.35
537.91	42401.14
538.08	42134.32
538.25	42197.52
538.42	42314.55
538.59	42724.14
538.75	41794.95
538.92	42141.35
539.09	42129.64
539.26	42515.83
539.43	42340.29
539.60	42784.99
539.77	42621.16
539.94	42515.83
540.11	42487.74
540.28	43035.43
540.44	42483.06
540.61	42576.69
540.78	42464.34
540.95	42508.81
541.12	42576.69
541.29	42801.38
541.46	43007.34
541.62	43332.68
541.79	43262.46
541.96	42766.27
542.13	43089.26
542.30	43267.14
542.47	42845.85
542.63	43058.84
542.80	43419.28
542.97	43566.73
543.14	43758.66
543.31	43683.76
543.48	44182.29
543.64	43826.53
543.81	44226.76
543.98	43995.05
544.15	43936.54
544.32	44392.94
544.48	44006.75
544.65	44135.48
544.82	43917.81
544.99	44039.52
545.16	43859.30
545.32	43859.30
545.49	44304.00
545.66	44250.17
545.83	44280.60
546.00	44755.72
546.16	44514.65
546.33	43964.62
546.50	43952.92
546.67	44273.57
546.83	43922.49
547.00	43924.83
547.17	44105.06
547.34	44378.90
547.50	44573.16
547.67	44636.36
547.84	44524.01
548.00	44748.70
548.17	44786.15
548.34	44729.98
548.51	44811.90
548.67	44783.81
548.84	44664.44
549.01	44872.75
549.18	44978.07
549.34	44847.00
549.51	44788.49
549.68	44863.39
549.84	45036.59
550.01	45148.93
550.18	44762.75
550.34	44882.11
550.51	44715.93
550.68	44795.51
550.84	44910.20
551.01	45287.03
551.18	44942.97
551.34	45223.83
551.51	45347.88
551.68	45242.56
551.84	45635.77
552.01	45200.43
552.18	45406.39
552.34	45062.33
552.51	45600.66
552.68	45928.33
552.84	45230.85
553.01	45844.07
553.18	45427.46
553.34	45521.08
553.51	45558.53
553.67	45514.06
553.84	45897.91
554.01	46003.23
554.17	45769.18
554.34	45689.60
554.51	45715.34
554.67	45949.40
554.84	45713.00
555.00	45944.72
555.17	45691.94
555.33	45635.77
555.50	45675.55
555.67	45853.44
555.83	45848.75
556.00	45909.61
556.16	46265.37
556.33	46012.59
556.50	46120.26
556.66	46284.09
556.83	45500.01
556.99	45944.72
557.16	46321.54
557.32	45811.31
557.49	46387.08
557.65	46082.81
557.82	45631.08
557.98	46124.94
558.15	46122.60
558.32	46522.83
558.48	45968.12
558.65	46026.63
558.81	46309.84
558.98	46122.60
559.14	46209.20
559.31	46309.84
559.47	46230.26
559.64	46094.51
559.80	46223.24
559.97	46309.84
560.13	45940.04
560.30	46415.16
560.46	46583.68
560.63	46459.63
560.79	46469.00
560.96	46274.73
561.12	46855.18
561.29	46899.65
561.45	46553.26
561.61	46478.36
561.78	46286.43
561.94	46450.27
562.11	46504.10
562.27	46480.70
562.44	46309.84
562.60	46918.38
562.77	46925.40
562.93	46878.59
563.10	46916.04
563.26	46188.13
563.42	47262.44
563.59	46515.81
563.75	47004.98
563.92	46878.59
564.08	46550.91
564.24	46969.87
564.41	46595.38
564.57	47009.66
564.74	46848.16
564.90	46927.74
565.07	46487.72
565.23	46539.21
565.39	47037.75
565.56	47072.85
565.72	46380.06
565.88	47030.72
566.05	46733.48
566.21	46887.95
566.38	46674.96
566.54	47040.09
566.70	47131.37
566.87	47358.40
567.03	47154.77
567.19	47171.16
567.36	47068.17
567.52	46749.86
567.68	46988.60
567.85	47021.36
568.01	47023.70
568.17	46873.91
568.34	47058.81
568.50	46838.80
568.66	46857.52
568.83	46822.42
568.99	46789.65
569.15	46939.44
569.32	46878.59
569.48	46791.99
569.64	47332.65
569.81	47185.20
569.97	46983.91
570.13	47122.01
570.30	46485.38
570.46	46824.76
570.62	46731.14
570.78	46696.03
570.95	46976.89
571.11	46913.70
571.27	46913.70
571.43	46899.65
571.60	47014.34
571.76	47119.66
571.92	46911.36
572.09	47019.02
572.25	47346.70
572.41	47023.70
572.57	46983.91
572.74	47835.87
572.90	47428.62
573.06	47000.30
573.22	47093.92
573.38	47159.45
573.55	47199.24
573.71	47636.92
573.87	47189.88
574.03	47157.11
574.20	47292.86
574.36	47133.71
574.52	46990.94
574.68	46845.82
574.84	47199.24
575.01	47332.65
575.17	47187.54
575.33	46827.10
575.49	46993.28
575.65	47185.20
575.82	47489.47
575.98	47222.65
576.14	47126.69
576.30	47332.65
576.46	47313.93
576.62	46855.18
576.79	47096.26
576.95	46616.45
577.11	47147.75
577.27	47227.33
577.43	47166.48
577.59	47180.52
577.75	47138.39
577.92	46763.90
578.08	46541.55
578.24	46848.16
578.40	46759.22
578.56	47014.34
578.72	47154.77
578.88	47313.93
579.04	47136.05
579.21	47505.85
579.37	46979.23
579.53	47051.79
579.69	47122.01
579.85	47416.91
580.01	47522.24
580.17	47124.35
580.33	46990.94
580.49	47171.16
580.65	47061.15
580.82	47164.14
580.98	46911.36
581.14	46595.38
581.30	47571.39
581.46	47491.81
581.62	47430.96
581.78	47466.06
581.94	47648.63
582.10	47208.61
582.26	47667.35
582.42	47365.42
582.58	47126.69
582.74	47299.89
582.90	47337.33
583.06	47412.23
583.22	47547.98
583.38	47562.03
583.54	47311.59
583.70	47337.33
583.86	47026.04
584.02	46897.31
584.18	47620.54
584.34	47374.78
584.50	46939.44
584.66	47065.83
584.82	47339.68
584.98	47290.52
585.14	47531.60
585.30	47150.09
585.46	47042.43
585.62	47138.39
585.78	47096.26
585.94	47196.90
586.10	47330.31
586.26	47241.37
586.42	47323.29
586.58	47555.00
586.74	47271.80
586.90	47182.86
587.06	47187.54
587.22	47449.68
587.38	47100.94
587.54	47505.85
587.70	47295.21
587.86	47222.65
588.02	47210.95
588.18	47351.38
588.34	46902.00
588.49	46906.68
588.65	46422.19
588.81	46698.37
588.97	46850.50
589.13	46632.83
589.29	46672.62
589.45	46864.55
589.61	47072.85
589.77	47800.76
589.93	47498.83
590.08	47461.38
590.24	47405.21
590.40	47342.02
590.56	47508.19
590.72	47154.77
590.88	47065.83
591.04	47583.09
591.20	47257.76
591.35	47440.32
591.51	47870.98
591.67	47288.18
591.83	47480.11
591.99	47026.04
592.15	47283.50
592.31	47657.99
592.46	47260.10
592.62	47569.05
592.78	47555.00
592.94	47185.20
593.10	47430.96
593.26	47327.97
593.41	47367.76
593.57	47311.59
593.73	47356.06
593.89	47367.76
594.05	47342.02
594.20	47690.76
594.36	47346.70
594.52	47161.79
594.68	47646.29
594.84	47299.89
594.99	47859.27
595.15	47105.62
595.31	47459.04
595.47	47224.99
595.62	47618.20
595.78	47555.00
595.94	47557.35
596.10	47861.61
596.25	47700.12
596.41	47503.51
596.57	47459.04
596.73	47657.99
596.88	47400.53
597.04	47828.85
597.20	47587.77
597.36	47246.05
597.51	47625.22
597.67	47559.69
597.83	47775.02
597.99	47672.03
598.14	47517.56
598.30	47793.74
598.46	47309.25
598.61	47641.60
598.77	47262.44
598.93	47196.90
599.09	47459.04
599.24	47999.71
599.40	47246.05
599.56	47650.97
599.71	47264.78
599.87	47423.93
600.03	47672.03
600.18	47260.10
600.34	47564.37
600.50	47463.72
600.65	47107.96
600.81	47709.48
600.97	47870.98
601.12	47622.88
601.28	47491.81
601.44	47304.57
601.59	47498.83
601.75	46930.08
601.91	47608.84
602.06	47138.39
602.22	47545.64
602.37	47086.90
602.53	47372.44
602.69	47985.66
602.84	47751.61
603.00	47683.73
603.16	47299.89
603.31	47711.82
603.47	47466.06
603.62	47299.89
603.78	47618.20
603.94	47421.59
604.09	47248.39
604.25	47707.14
604.40	47693.10
604.56	47636.92
604.71	47515.22
604.87	47004.98
605.03	47311.59
605.18	47168.82
605.34	47056.47
605.49	47243.71
605.65	47072.85
605.80	47164.14
605.96	47377.12
606.12	47388.83
606.27	47714.16
606.43	47182.86
606.58	47398.19
606.74	46876.25
606.89	47496.49
607.05	47632.24
607.20	47164.14
607.36	47164.14
607.51	47732.89
607.67	47122.01
607.82	47274.14
607.98	47407.55
608.13	46784.97
608.29	47002.64
608.44	47009.66
608.60	46717.09
608.75	47035.41
608.91	47058.81
609.06	46611.77
609.22	46859.87
609.37	47143.07
609.53	47061.15
609.68	47030.72
609.84	46803.69
609.99	47302.23
610.15	46955.83
610.30	46581.34
610.46	46614.11
610.61	46639.86
610.76	46534.53
610.92	46674.96
611.07	46981.57
611.23	46534.53
611.38	46841.14
611.54	46450.27
611.69	46684.33
611.84	46614.11
612.00	46593.04
612.15	46604.75
612.31	46438.57
612.46	46157.70
612.62	47019.02
612.77	46298.14
612.92	46909.02
613.08	46340.27
613.23	46665.60
613.39	46026.63
613.54	45989.19
613.69	46581.34
613.85	46288.77
614.00	46707.73
614.15	46635.17
614.31	46852.84
614.46	46866.89
614.62	46384.74
614.77	46707.73
614.92	46574.32
615.08	46396.44
615.23	46202.18
615.38	46054.72
615.54	46206.86
615.69	46080.47
615.84	45691.94
616.00	46237.28
616.15	45862.80
616.30	46000.89
616.46	45696.62
616.61	45717.68
616.76	45907.27
616.92	45656.83
617.07	45537.46
617.22	45544.48
617.37	45780.88
617.53	46199.83
617.68	46204.52
617.83	45991.53
617.99	46237.28
618.14	46010.25
618.29	45469.59
618.45	45481.29
618.60	45649.81
618.75	45722.37
618.90	45539.80
619.06	45731.73
619.21	45837.05
619.36	45696.62
619.51	45710.66
619.67	45172.34
619.82	45869.82
619.97	45846.41
620.12	45404.05
620.28	45022.54
620.43	45420.44
620.58	45378.31
620.73	45390.01
620.89	45233.19
621.04	45230.85
621.19	45507.04
621.34	45113.83
621.49	44907.86
621.65	45280.00
621.80	45083.40
621.95	44697.21
622.10	45270.64
622.25	45139.57
622.41	45378.31
622.56	44917.22
622.71	45090.42
622.86	44849.35
623.01	45326.81
623.16	45055.31
623.32	45132.55
623.47	45366.60
623.62	44755.72
623.77	44942.97
623.92	45045.95
624.07	44442.09
624.23	44406.98
624.38	44612.95
624.53	44776.79
624.68	45048.29
624.83	44624.65
624.98	44861.05
625.13	44098.03
625.29	44369.54
625.44	44556.78
625.59	44334.43
625.74	44076.97
625.89	43945.90
626.04	44219.74
626.19	44069.95
626.34	44128.46
626.49	44149.53
626.65	44184.63
626.80	44383.58
626.95	44313.36
627.10	44004.41
627.25	43973.98
627.40	43311.61
627.55	43351.40
627.70	43658.01
627.85	43571.41
628.00	44018.46
628.15	44081.65
628.30	43756.32
628.45	43859.30
628.60	44027.82
628.76	43955.26
628.91	44034.84
629.06	43775.04
629.21	44020.80
629.36	43854.62
629.51	43913.13
629.66	43391.19
629.81	43316.29
629.96	43887.39
630.11	43107.99
630.26	43803.13
630.41	43498.86
630.56	43311.61
630.71	43433.32
630.86	42990.96
631.01	43405.23
631.16	43519.92
631.31	42976.92
631.46	42958.19
631.61	43047.13
631.76	43189.91
631.91	43285.87
632.06	43206.29
632.21	43466.09
632.36	43604.18
632.51	43002.66
632.66	43344.38
632.81	43098.62
632.96	42733.50
633.10	42827.12
633.25	42948.83
633.40	43093.94
633.55	42953.51
633.70	43093.94
633.85	42876.27
634.00	42794.36
634.15	43072.88
634.30	42838.83
634.45	42646.90
634.60	43138.41
634.75	42712.44
634.90	42735.84
635.05	42672.65
635.19	42651.58
635.34	43220.33
635.49	43044.79
635.64	42520.51
635.79	42550.94
635.94	42239.65
636.09	42841.17
636.24	42176.45
636.39	42131.98
636.53	42256.03
636.68	42483.06
636.83	42197.52
636.98	42490.09
637.13	42225.60
637.28	42663.28
637.43	42335.61
637.57	42363.70
637.72	42099.22
637.87	42361.36
638.02	42663.28
638.17	42010.28
638.32	42066.45
638.46	41911.97
638.61	42059.43
638.76	41748.14
638.91	42263.05
639.06	42033.68
639.20	42082.83
639.35	42047.72
639.50	41525.78
639.65	42377.74
639.80	41827.71
639.94	41450.89
640.09	41689.62
640.24	41284.71
640.39	41371.31
640.54	41368.97
640.68	41043.63
640.83	41198.11
640.98	41677.92
641.13	41628.77
641.27	41654.51
641.42	41345.56
641.57	41378.33
641.72	41741.11
641.86	41265.99
642.01	41390.03
642.16	41226.20
642.31	41151.30
642.45	41703.67
642.60	41078.74
642.75	40903.20
642.90	40769.79
643.04	41174.70
643.19	41148.96
643.34	41088.10
643.48	41319.82
643.63	41198.11
643.78	40891.50
643.93	41263.64
644.07	40823.62
644.22	40648.08
644.37	40460.84
644.51	40758.09
644.66	41062.36
644.81	40975.76
644.95	40891.50
645.10	41324.50
645.25	41261.30
645.39	41214.49
645.54	40999.16
645.69	40783.83
645.83	40608.29
645.98	40917.25
646.13	41296.41
646.27	40832.99
646.42	40402.33
646.57	40259.55
646.71	40369.56
646.86	40268.92
647.00	40573.19
647.15	40664.47
647.30	40538.08
647.44	40264.24
647.59	40484.25
647.74	40018.48
647.88	39969.33
648.03	39929.54
648.17	39646.33
648.32	39728.25
648.47	40205.72
648.61	40336.79
648.76	40467.86
648.90	40002.10
649.05	40119.12
649.20	40320.41
649.34	40076.99
649.49	39889.75
649.63	39789.11
649.78	40336.79
649.92	40421.05
650.07	40582.55
650.21	39618.25
650.36	40385.94
650.51	39763.36
650.65	40226.79
650.80	40137.85
650.94	39810.17
651.09	39856.98
651.23	39711.87
651.38	39798.47
651.52	39721.23
651.67	39342.06
651.81	39615.91
651.96	39580.80
652.10	39321.00
652.25	39372.49
652.39	39461.43
652.54	39622.93
652.68	39777.40
652.83	39974.01
652.97	39604.20
653.12	39278.87
653.26	39370.15
653.41	39131.42
653.55	39152.48
653.70	39091.63
653.84	39026.09
653.99	39316.32
654.13	39248.44
654.27	39274.19
654.42	39367.81
654.56	39377.17
654.71	39356.11
654.85	39000.35
655.00	39166.52
655.14	39129.08
655.29	38801.40
655.43	38960.56
655.57	38227.97
655.72	38115.62
655.86	38756.93
656.01	38541.60
656.15	37825.40
656.30	38326.27
656.44	38499.47
656.58	38431.60
656.73	38234.99
656.87	37944.76
657.01	38223.29
657.16	38302.87
657.30	38110.94
657.45	37982.21
657.59	38375.42
657.73	38504.15
657.88	38232.65
658.02	38012.64
658.16	38005.62
658.31	38335.63
658.45	38272.44
658.60	38176.48
658.74	38384.79
658.88	38340.32
659.03	37984.55
659.17	38075.84
659.31	37914.34
659.46	38279.46
659.60	37846.46
659.74	37521.13
659.89	37102.17
660.03	37715.39
660.17	37649.86
660.32	37942.42
660.46	38040.73
660.60	37607.73
660.74	37694.33
660.89	37453.25
661.03	37429.85
661.17	37078.77
661.32	37287.07
661.46	37408.78
661.60	37329.20
661.74	37186.43
661.89	37614.75
662.03	37177.07
662.17	37090.47
662.31	37378.36
662.46	37343.25
662.60	36954.72
662.74	36648.11
662.88	36877.48
663.03	36418.74
663.17	36414.05
663.31	36517.04
663.45	36666.83
663.60	36400.01
663.74	36329.80
663.88	36699.60
664.02	36290.01
664.17	36442.14
664.31	36236.17
664.45	36196.38
664.59	35868.71
664.73	36215.11
664.88	36332.14
665.02	35927.22
665.16	36367.24
665.30	36107.44
665.44	36254.90
665.59	35587.85
665.73	36039.57
665.87	35845.30
666.01	35730.62
666.15	35426.35
666.29	35976.37
666.44	35562.10
666.58	35655.72
666.72	35576.14
666.86	35648.70
667.00	35395.92
667.14	35489.54
667.28	34962.92
667.43	35091.65
667.57	34986.33
667.71	34682.06
667.85	34864.62
667.99	34845.90
668.13	34731.21
668.27	34766.32
668.41	35292.94
668.56	34735.89
668.70	34766.32
668.84	34789.72
668.98	34368.43
669.12	34581.42
669.26	34611.84
669.40	34691.42
669.54	34043.09
669.68	34326.30
669.82	34302.89
669.96	33656.90
670.10	33525.83
670.25	34398.85
670.39	34417.58
670.53	33928.41
670.67	33551.58
670.81	34218.63
670.95	34148.42
671.09	34096.92
671.23	33897.98
671.37	34157.78
671.51	33603.07
671.65	33975.22
671.79	33406.47
671.93	33518.81
672.07	33511.79
672.21	33469.66
672.35	33153.69
672.49	33099.86
672.63	33708.40
672.77	32797.93
672.91	32926.66
673.05	33221.56
673.19	32804.95
673.33	32786.22
673.47	32491.32
673.61	32643.45
673.75	32524.08
673.89	31964.70
674.03	31903.84
674.17	32158.96
674.31	31971.72
674.45	32341.52
674.59	32086.40
674.73	32025.55
674.87	32158.96
675.01	32065.34
675.15	31857.03
675.29	31974.06
675.43	31541.06
675.56	31742.35
675.70	31550.42
675.84	31484.89
675.98	30228.02
676.12	31405.31
676.26	31199.34
676.40	31239.13
676.54	30906.77
676.68	31072.95
676.82	30286.53
676.96	30726.55
677.10	30424.62
677.23	30740.60
677.37	30679.74
677.51	30567.40
677.65	30225.68
677.79	30113.33
677.93	30249.08
678.07	30300.58
678.21	29799.70
678.34	29488.41
678.48	29663.95
678.62	29853.53
678.76	29598.41
678.90	29474.37
679.04	29371.38
679.18	29359.68
679.31	29284.78
679.45	28961.79
679.59	28875.19
679.73	29233.29
679.87	29125.63
680.00	29081.16
680.14	28496.02
680.28	28711.35
680.42	28594.32
680.56	28194.09
680.70	28762.84
680.83	28350.91
680.97	28268.99
681.11	28091.11
681.25	27707.26
681.39	28060.68
681.52	27995.15
681.66	27824.29
681.80	28180.05
681.94	27433.42
682.07	27770.46
682.21	27063.61
682.35	26941.91
682.49	27218.09
682.62	27515.34
682.76	27091.70
682.90	27269.58
683.04	27138.51
683.17	27218.09
683.31	26675.09
683.45	26677.43
683.59	26377.84
683.72	26209.32
683.86	26324.01
684.00	26377.84
684.13	26417.63
684.27	26059.52
684.41	26008.03
684.55	25886.32
684.68	25834.83
684.82	25628.87
684.96	25514.18
685.09	25364.39
685.23	25493.12
685.37	25633.55
685.50	25612.48
685.64	25413.54
685.78	25404.17
685.91	25209.91
686.05	25130.33
686.19	25144.38
686.32	25015.65
686.46	24489.03
686.60	24180.07
686.73	24219.86
686.87	23789.20
687.01	24039.64
687.14	23875.80
687.28	23693.24
687.42	23597.28
687.55	23391.31
687.69	23325.78
687.82	23370.25
687.96	23623.03
688.10	23428.76
688.23	23183.01
688.37	23267.27
688.50	23403.02
688.64	23168.96
688.78	23019.17
688.91	22822.56
689.05	22923.21
689.18	22785.12
689.32	22431.69
689.46	22775.75
689.59	22874.06
689.73	22588.51
689.86	22150.83
690.00	22326.37
690.13	22277.22
690.27	22209.34
690.41	22352.12
690.54	22099.34
690.68	21986.99
690.81	21975.29
690.95	21855.92
691.08	21832.52
691.22	21546.97
691.35	21589.10
691.49	21364.41
691.62	21825.50
691.76	21509.52
691.89	21781.03
692.03	21128.02
692.16	21069.50
692.30	21509.52
692.43	21032.05
692.57	20826.09
692.70	20814.38
692.84	20783.96
692.97	20592.03
693.11	20526.50
693.24	20348.62
693.38	20545.22
693.51	20198.82
693.65	20142.65
693.78	20486.71
693.92	19999.88
694.05	19845.40
694.19	19805.61
694.32	19892.21
694.45	20025.62
694.59	19737.74
694.72	19934.34
694.86	19564.54
694.99	19187.71
695.13	19157.28
695.26	18984.09
695.39	18824.93
695.53	19302.40
695.66	19318.78
695.80	19110.47
695.93	19082.39
696.07	18733.65
696.20	18597.90
696.33	18354.48
696.47	18569.81
696.60	18705.56
696.73	18307.67
696.87	18396.61
697.00	18188.30
697.14	18366.18
697.27	18031.49
697.40	18293.63
697.54	18073.62
697.67	18047.87
697.80	17841.90
697.94	17673.39
698.07	17823.18
698.21	17654.66
698.34	17621.89
698.47	17523.59
698.61	17338.69
698.74	17121.02
698.87	17266.13
699.01	16973.56
699.14	16929.09
699.27	16791.00
699.40	16676.32
699.54	16655.25
699.67	16643.55
699.80	16676.32
699.94	16580.36
700.07	16641.21
700.20	16500.78
700.34	16294.81
700.47	16439.92
700.60	16446.94
700.73	16526.52
700.87	16098.20
701.00	15768.19
701.13	15641.80
701.26	15859.47
701.40	16133.31
701.53	15735.42
701.66	15712.02
701.79	15543.50
701.93	15297.74
702.06	15115.18
702.19	15321.15
702.32	15211.14
702.46	15274.34
702.59	15426.47
702.72	15215.82
702.85	15374.98
702.99	15288.38
703.12	15358.60
703.25	14857.72
703.38	14768.78
703.51	14743.03
703.65	14888.15
703.78	14857.72
703.91	14728.99
704.04	14602.60
704.17	14541.75
704.31	14370.89
704.44	14228.12
704.57	14052.58
704.70	13933.21
704.83	13940.23
704.96	14160.24
705.10	13956.61
705.23	14183.65
>>>>>End Processed Spectral Data<<<<<
