SpectraSuite Data File
++++++++++++++++++++++++++++++++++++
Date: Fri Oct 25 11:23:44 EDT 2013
User: price-jones
Dark Spectrum Present: No
Reference Spectrum Present: No
Number of Sampled Component Spectra: 1
Spectrometers: USB2+H05261
Integration Time (usec): 100000 (USB2+H05261)
Spectra Averaged: 1 (USB2+H05261)
Boxcar Smoothing: 0 (USB2+H05261)
Correct for Electrical Dark: No (USB2+H05261)
Strobe/Lamp Enabled: No (USB2+H05261)
Correct for Detector Non-linearity: No (USB2+H05261)
Correct for Stray Light: No (USB2+H05261)
Number of Pixels in Processed Spectrum: 2048
>>>>>Begin Processed Spectral Data<<<<<
365.73	227.03
365.92	227.03
366.12	227.03
366.32	187.24
366.52	138.09
366.72	138.09
366.91	121.71
367.11	121.71
367.31	128.73
367.51	79.58
367.70	201.29
367.90	65.54
368.10	100.64
368.30	154.48
368.49	152.13
368.69	245.76
368.89	184.90
369.09	140.43
369.28	112.35
369.48	187.24
369.68	112.35
369.87	241.08
370.07	166.18
370.27	271.50
370.47	346.40
370.66	613.22
370.86	606.20
371.06	681.10
371.25	613.22
371.45	599.18
371.65	781.74
371.84	657.69
372.04	631.94
372.24	725.57
372.44	753.65
372.63	770.04
372.83	770.04
373.03	758.33
373.22	758.33
373.42	868.34
373.62	779.40
373.81	861.32
374.01	786.42
374.21	821.53
374.40	816.85
374.60	835.57
374.79	774.72
374.99	767.70
375.19	823.87
375.38	884.72
375.58	816.85
375.78	880.04
375.97	826.21
376.17	929.19
376.37	884.72
376.56	791.10
376.76	873.02
376.95	837.91
377.15	873.02
377.35	842.59
377.54	933.87
377.74	915.15
377.93	926.85
378.13	940.90
378.33	980.68
378.52	877.70
378.72	929.19
378.91	940.90
379.11	950.26
379.31	945.58
379.50	933.87
379.70	957.28
379.89	997.07
380.09	908.13
380.28	1015.79
380.48	1034.52
380.68	971.32
380.87	1029.84
381.07	929.19
381.26	1064.94
381.46	992.39
381.65	1020.47
381.85	990.05
382.04	1053.24
382.24	1034.52
382.43	1088.35
382.63	1025.15
382.83	1139.84
383.02	1156.22
383.22	1121.12
383.41	1088.35
383.61	1160.91
383.80	1125.80
384.00	1067.28
384.19	1116.44
384.39	1153.88
384.58	1212.40
384.78	1116.44
384.97	1203.04
385.17	1170.27
385.36	1217.08
385.56	1224.10
385.75	1067.28
385.95	1156.22
386.14	1291.98
386.34	1177.29
386.53	1256.87
386.72	1217.08
386.92	1252.19
387.11	1252.19
387.31	1268.57
387.50	1270.91
387.70	1277.93
387.89	1291.98
388.09	1320.06
388.28	1284.95
388.48	1233.46
388.67	1317.72
388.86	1369.21
389.06	1331.76
389.25	1444.11
389.45	1273.25
389.64	1310.70
389.84	1406.66
390.03	1324.74
390.22	1362.19
390.42	1373.89
390.61	1390.28
390.81	1409.00
391.00	1366.87
391.19	1378.58
391.39	1446.45
391.58	1462.83
391.78	1549.43
391.97	1430.07
392.16	1507.30
392.36	1540.07
392.55	1671.14
392.75	1568.16
392.94	1591.56
393.13	1486.24
393.33	1476.88
393.52	1483.90
393.71	1519.01
393.91	1610.29
394.10	1558.80
394.29	1605.61
394.49	1582.20
394.68	1643.06
394.88	1577.52
395.07	1664.12
395.26	1621.99
395.46	1734.34
395.65	1762.42
395.84	1734.34
396.04	1727.32
396.23	1750.72
396.42	1689.87
396.62	1739.02
396.81	1650.08
397.00	1732.00
397.19	1884.13
397.39	1715.61
397.58	1846.68
397.77	1844.34
397.97	1884.13
398.16	1891.15
398.35	1839.66
398.55	1863.07
398.74	1879.45
398.93	2012.86
399.12	1956.69
399.32	1940.30
399.51	1989.46
399.70	2054.99
399.90	1853.70
400.09	2017.54
400.28	2031.58
400.47	2015.20
400.67	2097.12
400.86	2050.31
401.05	2073.71
401.24	2165.00
401.44	2132.23
401.63	2120.53
401.82	2111.16
402.01	2174.36
402.21	2186.06
402.40	2167.34
402.59	2211.81
402.78	2277.34
402.97	2293.72
403.17	2218.83
403.36	2328.83
403.55	2165.00
403.74	2275.00
403.93	2356.92
404.13	2349.90
404.32	2389.69
404.51	2361.60
404.70	2502.03
404.89	2408.41
405.09	2368.62
405.28	2541.82
405.47	2532.46
405.66	2495.01
405.85	2525.44
406.05	2452.88
406.24	2459.90
406.43	2530.12
406.62	2649.49
406.81	2644.81
407.00	2640.12
407.20	2609.70
407.39	2668.21
407.58	2792.26
407.77	2766.51
407.96	2806.30
408.15	2794.60
408.34	2782.90
408.54	2771.19
408.73	2752.47
408.92	2818.00
409.11	2836.73
409.30	2876.52
409.49	2963.12
409.68	2951.42
409.87	2930.35
410.07	2956.10
410.26	3073.12
410.45	3103.55
410.64	3187.81
410.83	3138.66
411.02	3131.64
411.21	3052.06
411.40	3133.98
411.59	3286.11
411.78	3251.00
411.98	3260.37
412.17	3304.84
412.36	3328.24
412.55	3290.79
412.74	3353.99
412.93	3346.97
413.12	3468.67
413.31	3576.34
413.50	3480.38
413.69	3583.36
413.88	3569.32
414.07	3559.95
414.26	3632.51
414.45	3691.02
414.64	3705.07
414.83	3845.50
415.02	3822.09
415.22	3899.33
415.41	3918.06
415.60	3791.67
415.79	3829.12
415.98	4046.79
416.17	3978.91
416.36	3847.84
416.55	3983.59
416.74	4112.32
416.93	4063.17
417.12	4133.39
417.31	4095.94
417.50	4383.82
417.69	4285.52
417.88	4184.88
418.07	4337.01
418.26	4432.97
418.45	4297.22
418.64	4542.98
418.83	4400.21
419.02	4648.30
419.21	4561.70
419.39	4507.87
419.58	4547.66
419.77	4606.17
419.96	4531.28
420.15	4681.07
420.34	4758.31
420.53	4631.92
420.72	4697.46
420.91	4716.18
421.10	4887.04
421.29	4905.76
421.48	4669.37
421.67	4791.08
421.86	4713.84
422.05	4683.41
422.24	4814.48
422.43	4772.35
422.61	4922.15
422.80	4954.91
422.99	5039.17
423.18	4933.85
423.37	5088.32
423.56	4950.23
423.75	4933.85
423.94	4971.30
424.13	4711.50
424.32	4851.93
424.50	4821.50
424.69	5107.05
424.88	5022.79
425.07	4868.31
425.26	4983.00
425.45	5011.09
425.64	4898.74
425.83	5050.88
426.01	5015.77
426.20	5041.51
426.39	4964.28
426.58	5114.07
426.77	5097.69
426.96	5078.96
427.15	5261.52
427.33	5259.18
427.52	5226.42
427.71	5277.91
427.90	5266.21
428.09	5291.95
428.28	5392.59
428.46	5451.11
428.65	5355.15
428.84	5493.24
429.03	5572.82
429.22	5303.65
429.40	5579.84
429.59	5556.43
429.78	5406.64
429.97	5357.49
430.16	5570.48
430.34	5715.59
430.53	5584.52
430.72	5533.03
430.91	5671.12
431.10	5692.18
431.28	5757.72
431.47	5717.93
431.66	5923.90
431.85	5816.23
432.03	6003.47
432.22	6162.63
432.41	5991.77
432.60	5837.30
432.79	6054.97
432.97	5935.60
433.16	6108.80
433.35	6113.48
433.54	6050.28
433.72	6141.57
433.91	6045.60
434.10	6113.48
434.28	6043.26
434.47	6263.27
434.66	6387.32
434.85	6249.23
435.03	6375.62
435.22	6314.77
435.41	6581.59
435.59	6417.75
435.78	6497.33
435.97	6607.33
436.16	6415.41
436.34	6574.56
436.53	6623.72
436.72	6733.72
436.90	6427.11
437.09	6644.78
437.28	6597.97
437.46	6677.55
437.65	6612.01
437.84	6923.30
438.02	6656.48
438.21	6773.51
438.40	6675.21
438.58	6932.67
438.77	7061.40
438.96	6902.24
439.14	6981.82
439.33	7204.17
439.52	7274.38
439.70	7229.91
439.89	7265.02
440.08	7267.36
440.26	7358.64
440.45	7405.46
440.63	7482.69
440.82	7564.61
441.01	7382.05
441.19	7707.38
441.38	7866.54
441.57	7749.51
441.75	7751.85
441.94	7964.84
442.12	7880.58
442.31	8168.47
442.50	8032.72
442.68	8182.51
442.87	8039.74
443.05	8402.52
443.24	8454.02
443.43	8257.41
443.61	8266.77
443.80	8451.67
443.98	7960.16
444.17	7922.71
444.35	8297.20
444.54	8344.01
444.73	8145.06
444.91	8315.92
445.10	8468.06
445.28	8400.18
445.47	8486.78
445.65	8140.38
445.84	8526.57
446.02	8383.80
446.21	8369.76
446.39	8355.71
446.58	8641.26
446.77	8514.87
446.95	8280.82
447.14	8514.87
447.32	8606.15
447.51	8734.88
447.69	8573.38
447.88	8641.26
448.06	8493.80
448.25	8641.26
448.43	8568.70
448.62	8624.87
448.80	8636.58
448.99	8685.73
449.17	8718.50
449.36	8821.48
449.54	8959.57
449.73	8746.58
449.91	9027.45
450.10	9254.48
450.28	8992.34
450.46	9167.88
450.65	9020.42
450.83	9170.22
451.02	8938.51
451.20	9320.01
451.39	9160.86
451.57	9097.66
451.76	9247.46
451.94	9188.94
452.13	9404.27
452.31	9399.59
452.49	9158.52
452.68	9341.08
452.86	9305.97
453.05	9439.38
453.23	9437.04
453.42	9420.66
453.60	9490.87
453.78	9430.02
453.97	9413.63
454.15	9598.54
454.34	9437.04
454.52	9575.13
454.70	9785.78
454.89	9790.46
455.07	9825.57
455.26	10153.24
455.44	10221.12
455.62	9919.19
455.81	9937.91
455.99	10087.71
456.17	10080.69
456.36	10104.09
456.54	10153.24
456.73	10326.44
456.91	10635.39
457.09	10583.90
457.28	10310.06
457.46	10345.17
457.64	10705.61
457.83	10707.95
458.01	10597.95
458.19	10682.20
458.38	10764.12
458.56	11035.63
458.74	10775.83
458.93	10801.57
459.11	10665.82
459.29	10869.45
459.48	10815.62
459.66	11005.20
459.84	11152.65
460.03	11044.99
460.21	11192.44
460.39	11035.63
460.57	11117.54
460.76	11265.00
460.94	11173.72
461.12	11393.73
461.31	11192.44
461.49	11267.34
461.67	11180.74
461.85	11477.99
462.04	11461.60
462.22	11648.85
462.40	11548.20
462.59	11419.47
462.77	11379.68
462.95	11721.40
463.13	11667.57
463.32	11761.19
463.50	12006.95
463.68	11864.18
463.86	11920.35
464.05	11496.71
464.23	11674.59
464.41	11985.88
464.59	11709.70
464.78	12311.22
464.96	12035.03
465.14	12156.74
465.32	12201.21
465.50	12222.28
465.69	12159.08
465.87	11824.39
466.05	12025.67
466.23	12191.85
466.41	12166.10
466.60	12468.03
466.78	12304.20
466.96	12219.94
467.14	12222.28
467.32	12575.70
467.51	12556.97
467.69	12435.27
467.87	12421.22
468.05	12734.85
468.23	12575.70
468.41	12695.07
468.60	12531.23
468.78	12936.14
468.96	12552.29
469.14	12908.05
469.32	12774.64
469.50	12884.65
469.69	13050.83
469.87	13214.66
470.05	13172.54
470.23	13268.50
470.41	13245.09
470.59	13455.74
470.77	13268.50
470.95	13619.58
471.14	13717.88
471.32	13254.45
471.50	13584.47
471.68	13635.96
471.86	13706.18
472.04	13855.97
472.22	14150.88
472.40	13867.67
472.58	13832.57
472.77	14164.92
472.95	14279.61
473.13	14677.50
473.31	14207.05
473.49	14366.21
473.67	14249.18
473.85	14326.42
474.03	14511.32
474.21	14679.84
474.39	14775.80
474.57	15021.56
474.75	14848.36
474.93	14895.17
475.12	15152.63
475.30	15264.97
475.48	15257.95
475.66	15147.95
475.84	14993.47
476.02	15480.30
476.20	15218.16
476.38	15389.02
476.56	16086.50
476.74	16159.06
476.92	16070.12
477.10	15896.92
477.28	16402.47
477.46	16168.42
477.64	16475.03
477.82	16744.19
478.00	17125.70
478.18	16774.62
478.36	16802.71
478.54	17319.96
478.72	17254.43
478.90	17324.65
479.08	17451.03
479.26	17675.73
479.44	17961.27
479.62	17788.07
479.80	18202.35
479.98	18204.69
480.16	18796.84
480.34	18487.89
480.52	18520.66
480.70	18637.69
480.88	18511.30
481.06	18794.50
481.24	19084.73
481.41	19190.05
481.59	19541.13
481.77	19625.39
481.95	19829.02
482.13	19424.11
482.31	19798.59
482.49	20365.00
482.67	20552.24
482.85	20292.44
483.03	20533.52
483.21	20577.99
483.39	20790.98
483.57	21298.88
483.74	21455.69
483.92	21617.19
484.10	21287.17
484.28	21949.54
484.46	22267.86
484.64	22445.74
484.82	22075.93
485.00	22192.96
485.18	22537.02
485.35	23234.50
485.53	23030.87
485.71	23009.81
485.89	23250.88
486.07	23468.55
486.25	23412.38
486.43	23608.98
486.61	23798.57
486.78	24231.57
486.96	24341.57
487.14	24311.14
487.32	24912.66
487.50	24964.15
487.68	25151.40
487.85	25355.02
488.03	25715.47
488.21	25853.56
488.39	26047.82
488.57	26511.25
488.75	26434.01
488.92	26469.12
489.10	26782.75
489.28	26813.18
489.46	27372.57
489.64	27285.97
489.81	27763.43
489.99	27693.22
490.17	27843.01
490.35	28266.65
490.53	28528.79
490.70	28175.37
490.88	28374.31
491.06	28945.41
491.24	29003.92
491.41	29247.33
491.59	29378.40
491.77	29237.97
491.95	29797.36
492.13	29755.23
492.30	29802.04
492.48	30148.44
492.66	29982.26
492.84	30515.90
493.01	30878.69
493.19	31012.10
493.37	30941.88
493.54	31297.64
493.72	31838.31
493.90	31543.40
494.08	32067.68
494.25	32243.22
494.43	32154.28
494.61	32332.16
494.79	32683.24
494.96	32765.16
495.14	32758.14
495.32	33640.52
495.49	33675.63
495.67	33567.96
495.85	33813.72
496.02	33780.95
496.20	34160.12
496.38	34370.77
496.55	34281.83
496.73	35161.87
496.91	34890.37
497.09	35030.80
497.26	34918.45
497.44	35480.18
497.62	35644.02
497.79	36304.05
497.97	35686.15
498.14	36058.29
498.32	36046.59
498.50	36421.08
498.67	36657.47
498.85	36198.73
499.03	36896.20
499.20	37305.80
499.38	37397.08
499.56	37474.32
499.73	37352.61
499.91	37385.38
500.08	37675.60
500.26	37832.42
500.44	37919.02
500.61	38653.95
500.79	37818.38
500.97	38230.31
501.14	38878.64
501.32	39222.70
501.49	38972.26
501.67	39178.23
501.84	39220.36
502.02	39009.71
502.20	39414.62
502.37	39459.09
502.55	39737.62
502.72	39648.68
502.90	40009.12
503.07	39576.12
503.25	40369.56
503.43	39828.90
503.60	40360.20
503.78	40383.60
503.95	40524.04
504.13	40617.66
504.30	40870.43
504.48	40809.58
504.65	40985.12
504.83	41401.74
505.01	41799.63
505.18	41539.83
505.36	41434.50
505.53	41282.37
505.71	41769.20
505.88	42024.32
506.06	41453.23
506.23	42043.04
506.41	41911.97
506.58	42258.37
506.76	42382.42
506.93	43131.39
507.11	42714.78
507.28	42703.07
507.46	42539.24
507.63	42899.68
507.81	43393.53
507.98	43374.81
508.16	43405.23
508.33	43845.26
508.50	43463.75
508.68	44156.55
508.85	44311.02
509.03	44161.23
509.20	44381.24
509.38	44605.93
509.55	44687.85
509.73	44664.44
509.90	45017.86
510.08	44671.46
510.25	44589.55
510.42	44966.37
510.60	45268.30
510.77	45851.09
510.95	45736.41
511.12	45221.49
511.30	45722.37
511.47	46033.66
511.64	45886.20
511.82	46010.25
511.99	46059.40
512.17	46150.68
512.34	46192.81
512.51	46429.21
512.69	46693.69
512.86	46595.38
513.04	46501.76
513.21	46899.65
513.38	46897.31
513.56	47014.34
513.73	46892.63
513.90	47496.49
514.08	47433.30
514.25	47615.86
514.43	47466.06
514.60	47533.94
514.77	47821.83
514.95	48123.75
515.12	47702.46
515.29	47791.40
515.47	48311.00
515.64	48533.35
515.81	47634.58
515.99	48463.13
516.16	48734.63
516.33	49031.88
516.51	48800.17
516.68	49031.88
516.85	48624.63
517.03	49078.69
517.20	49305.73
517.37	49076.35
517.54	48917.20
517.72	49195.72
517.89	49497.65
518.06	49490.63
518.24	49509.35
518.41	49610.00
518.58	49661.49
518.75	49509.35
518.93	49642.76
519.10	49790.22
519.27	50078.10
519.45	50157.68
519.62	50263.00
519.79	50405.78
519.96	50237.26
520.14	50190.45
520.31	50288.75
520.48	50630.47
520.65	50754.52
520.83	50810.69
521.00	50450.25
521.17	50604.72
521.34	50883.25
521.52	50770.90
521.69	51072.83
521.86	50855.16
522.03	51592.43
522.20	51686.05
522.38	51751.59
522.55	51444.98
522.72	51367.74
522.89	51709.46
523.07	51772.65
523.24	51772.65
523.41	51913.08
523.58	51587.75
523.75	51877.97
523.92	51920.10
524.10	52030.11
524.27	52238.42
524.44	52137.77
524.61	52413.96
524.78	52126.07
524.96	52250.12
525.13	52495.88
525.30	52505.24
525.47	52563.75
525.64	52708.86
525.81	52956.96
525.98	52739.29
526.16	52949.94
526.33	52814.19
526.50	53069.31
526.67	52982.71
526.84	53130.16
527.01	53076.33
527.18	53352.51
527.36	52963.98
527.53	53003.77
527.70	53635.72
527.87	53579.54
528.04	53469.54
528.21	53226.12
528.38	53385.28
528.55	53832.32
528.72	53652.10
528.89	53876.79
529.07	53694.23
529.24	53181.65
529.41	53703.59
529.58	53972.75
529.75	53645.08
529.92	53839.34
530.09	53956.37
530.26	54042.97
530.43	54220.85
530.60	53745.72
530.77	53989.14
530.94	54171.70
531.11	54321.49
531.28	54300.43
531.46	54251.28
531.63	54536.82
531.80	54625.76
531.97	54607.04
532.14	54796.62
532.31	54618.74
532.48	54693.64
532.65	54740.45
532.82	54775.56
532.99	54878.54
533.16	54791.94
533.33	54932.37
533.50	55229.62
533.67	55253.03
533.84	54890.24
534.01	55028.34
534.18	55281.11
534.35	55327.92
534.52	55456.65
534.69	55206.22
534.86	55463.67
535.03	55283.45
535.20	55456.65
535.37	55566.66
535.54	55604.11
535.71	55515.17
535.88	55655.60
536.05	55650.92
536.22	56016.04
536.38	55966.89
536.55	55854.54
536.72	55765.60
536.89	55786.67
537.06	55716.45
537.23	55990.30
537.40	55805.39
537.57	56067.53
537.74	55952.85
537.91	56165.84
538.08	56095.62
538.25	55845.18
538.42	55962.21
538.59	56420.95
538.75	55856.88
538.92	56142.43
539.09	56357.76
539.26	56214.99
539.43	56404.57
539.60	56411.59
539.77	56222.01
539.94	56519.26
540.11	56458.40
540.28	56556.70
540.44	56746.29
540.61	56507.55
540.78	56479.47
540.95	56683.09
541.12	56589.47
541.29	56385.85
541.46	56605.86
541.62	56769.69
541.79	56697.14
541.96	56596.49
542.13	56729.90
542.30	56924.17
542.47	56985.02
542.63	57057.58
542.80	57003.75
542.97	57277.59
543.14	57270.57
543.31	57343.12
543.48	57247.16
543.64	57591.22
543.81	57530.37
543.98	57509.30
544.15	57457.81
544.32	57701.23
544.48	57668.46
544.65	57460.15
544.82	57628.67
544.99	57719.95
545.16	57724.63
545.32	57537.39
545.49	57546.75
545.66	57778.46
545.83	57972.73
546.00	57883.79
546.16	57893.15
546.33	57598.24
546.50	57675.48
546.67	58106.14
546.83	57684.84
547.00	57825.28
547.17	57851.02
547.34	58017.20
547.50	58248.91
547.67	58082.73
547.84	58279.34
548.00	58262.96
548.17	58368.28
548.34	58342.53
548.51	58436.16
548.67	58468.92
548.84	58293.38
549.01	58291.04
549.18	58241.89
549.34	58541.48
549.51	58403.39
549.68	58702.98
549.84	58333.17
550.01	58698.30
550.18	58520.41
550.34	58529.78
550.51	58401.05
550.68	58632.76
550.84	58468.92
551.01	58660.85
551.18	58506.37
551.34	58602.33
551.51	58791.92
551.68	58742.77
551.84	58803.62
552.01	58604.67
552.18	58869.15
552.34	58787.24
552.51	58848.09
552.68	58787.24
552.84	58934.69
553.01	59082.14
553.18	58850.43
553.34	59030.65
553.51	58728.72
553.67	58838.73
553.84	58969.80
554.01	59044.69
554.17	59231.94
554.34	59131.29
554.51	59063.42
554.67	59086.82
554.84	59004.91
555.00	59054.06
555.17	59133.63
555.33	59227.26
555.50	59084.48
555.67	59189.81
555.83	59168.74
556.00	59323.22
556.16	59449.61
556.33	59433.22
556.50	59447.27
556.66	59437.90
556.83	59316.20
556.99	59283.43
557.16	59512.80
557.32	59585.36
557.49	59681.32
557.65	59608.76
557.82	59498.76
557.98	59409.82
558.15	59587.70
558.32	59737.49
558.48	59468.33
558.65	59508.12
558.81	59578.34
558.98	59847.50
559.14	59838.14
559.31	59796.01
559.47	59767.92
559.64	59966.87
559.80	59976.23
559.97	59868.56
560.13	59636.85
560.30	59990.27
560.46	59894.31
560.63	59784.30
560.79	59936.44
560.96	59962.18
561.12	60126.02
561.29	60027.72
561.45	60013.68
561.61	59910.69
561.78	59987.93
561.94	59800.69
562.11	60123.68
562.27	59969.21
562.44	60011.34
562.60	60374.12
562.77	60196.24
562.93	59847.50
563.10	60163.47
563.26	60097.94
563.42	60315.61
563.59	60175.17
563.75	60006.65
563.92	60086.23
564.08	60048.78
564.24	60287.52
564.41	60257.09
564.57	60217.30
564.74	60219.64
564.90	60170.49
565.07	60095.60
565.23	60362.42
565.39	60346.03
565.56	60210.28
565.72	60327.31
565.88	60170.49
566.05	60135.38
566.21	60336.67
566.38	60491.15
566.54	60392.84
566.70	60580.09
566.87	60498.17
567.03	60287.52
567.19	60647.96
567.36	60512.21
567.52	60362.42
567.68	60725.20
567.85	60463.06
568.01	60608.17
568.17	60355.39
568.34	60486.46
568.50	60467.74
568.66	60416.25
568.83	60512.21
568.99	60481.78
569.15	60516.89
569.32	60392.84
569.48	60528.59
569.64	60657.32
569.81	60582.43
569.97	60406.89
570.13	60659.66
570.30	60374.12
570.46	60575.40
570.62	60680.73
570.78	60498.17
570.95	60603.49
571.11	60886.70
571.27	60652.64
571.43	60692.43
571.60	60692.43
571.76	60544.98
571.92	60708.82
572.09	60746.26
572.25	60669.03
572.41	60647.96
572.57	60694.77
572.74	60977.98
572.90	60769.67
573.06	60734.56
573.22	60807.12
573.38	60701.79
573.55	60912.44
573.71	60858.61
573.87	60886.70
574.03	60715.84
574.20	60732.22
574.36	60622.22
574.52	60753.29
574.68	60666.69
574.84	61059.90
575.01	60718.18
575.17	60694.77
575.33	60830.52
575.49	60842.23
575.65	60900.74
575.82	60945.21
575.98	60945.21
576.14	61165.22
576.30	60844.57
576.46	60753.29
576.62	60793.07
576.79	60954.57
576.95	60814.14
577.11	61120.75
577.27	60949.89
577.43	60949.89
577.59	60853.93
577.75	60903.08
577.92	60954.57
578.08	60933.51
578.24	60973.30
578.40	60835.20
578.56	61102.03
578.72	61038.83
578.88	61080.96
579.04	61141.81
579.21	61043.51
579.37	60985.00
579.53	61106.71
579.69	60980.32
579.85	60882.02
580.01	60982.66
580.17	60961.59
580.33	61113.73
580.49	61057.56
580.65	61057.56
580.82	60800.10
580.98	61111.39
581.14	60851.59
581.30	61137.13
581.46	61006.06
581.62	61120.75
581.78	60872.65
581.94	61055.21
582.10	61059.90
582.26	61144.16
582.42	61172.24
582.58	61137.13
582.74	60982.66
582.90	60977.98
583.06	61106.71
583.22	61172.24
583.38	61153.52
583.54	61038.83
583.70	61195.65
583.86	61235.44
584.02	60851.59
584.18	60977.98
584.34	61197.99
584.50	61165.22
584.66	60898.40
584.82	60811.80
584.98	61256.50
585.14	61322.04
585.30	60863.29
585.46	61268.20
585.62	61293.95
585.78	61263.52
585.94	61010.74
586.10	61087.98
586.26	61172.24
586.42	61020.11
586.58	61226.07
586.74	61148.84
586.90	61111.39
587.06	61090.32
587.22	61279.91
587.38	61347.78
587.54	61036.49
587.70	61448.42
587.86	61165.22
588.02	61293.95
588.18	61256.50
588.34	61219.05
588.49	60977.98
588.65	61083.30
588.81	61305.65
588.97	61380.55
589.13	61291.61
589.29	61261.18
589.45	61485.87
589.61	61165.22
589.77	61380.55
589.93	61525.66
590.08	61371.19
590.24	61605.24
590.40	61605.24
590.56	61481.19
590.72	61532.68
590.88	61366.51
591.04	61488.21
591.20	61563.11
591.35	61289.27
591.51	61846.32
591.67	61549.07
591.83	61766.74
591.99	61488.21
592.15	61574.81
592.31	61722.27
592.46	61528.00
592.62	61453.11
592.78	61563.11
592.94	61708.22
593.10	61549.07
593.26	61593.54
593.41	61476.51
593.57	61485.87
593.73	61462.47
593.89	61780.78
594.05	61792.48
594.20	61499.92
594.36	61790.14
594.52	61780.78
594.68	61537.36
594.84	61420.34
594.99	61633.33
595.15	61469.49
595.31	61696.52
595.47	61663.75
595.62	61595.88
595.78	61558.43
595.94	61794.82
596.10	61815.89
596.25	61895.47
596.41	61654.39
596.57	61797.16
596.73	61759.72
596.88	61694.18
597.04	61762.06
597.20	61694.18
597.36	61923.55
597.51	61883.76
597.67	61661.41
597.83	61509.28
597.99	61836.95
598.14	61801.85
598.30	61904.83
598.46	61790.14
598.61	62096.75
598.77	61748.01
598.93	61719.93
599.09	61790.14
599.24	62129.52
599.40	61939.94
599.56	61881.42
599.71	61925.89
599.87	62000.79
600.03	61886.10
600.18	61832.27
600.34	61740.99
600.50	61843.98
600.65	61799.50
600.81	61911.85
600.97	61862.70
601.12	61778.44
601.28	61851.00
601.44	61902.49
601.59	62014.83
601.75	61731.63
601.91	62061.64
602.06	61937.60
602.22	62183.35
602.37	61963.34
602.53	62075.69
602.69	61921.21
602.84	61724.61
603.00	61818.23
603.16	61958.66
603.31	61984.41
603.47	61832.27
603.62	61848.66
603.78	61963.34
603.94	61827.59
604.09	61778.44
604.25	61918.87
604.40	61890.79
604.56	61989.09
604.71	62300.38
604.87	61762.06
605.03	61736.31
605.18	62012.49
605.34	62028.88
605.49	61703.54
605.65	62078.03
605.80	61752.69
605.96	61888.45
606.12	61893.13
606.27	61942.28
606.43	61680.14
606.58	61937.60
606.74	61834.61
606.89	61911.85
607.05	62007.81
607.20	62012.49
607.36	61703.54
607.51	61876.74
607.67	61762.06
607.82	61640.35
607.98	61712.91
608.13	61879.08
608.29	61925.89
608.44	61680.14
608.60	61705.88
608.75	61834.61
608.91	61588.86
609.06	61392.25
609.22	61769.08
609.37	61736.31
609.53	61577.15
609.68	61787.80
609.84	61609.92
609.99	61848.66
610.15	61616.94
610.30	61829.93
610.46	61659.07
610.61	61771.42
610.76	61668.44
610.92	61750.35
611.07	61565.45
611.23	61722.27
611.38	61675.46
611.54	61680.14
611.69	61811.21
611.84	61520.98
612.00	61537.36
612.15	61717.59
612.31	61806.53
612.46	61675.46
612.62	61539.71
612.77	61736.31
612.92	61836.95
613.08	61532.68
613.23	61619.28
613.39	61450.77
613.54	61300.97
613.69	61591.20
613.85	61307.99
614.00	61682.48
614.15	61652.05
614.31	61432.04
614.46	61469.49
614.62	61403.95
614.77	61436.72
614.92	61504.60
615.08	61464.81
615.23	61432.04
615.38	61432.04
615.54	61520.98
615.69	61623.96
615.84	61722.27
616.00	61485.87
616.15	61591.20
616.30	61609.92
616.46	61385.23
616.61	61226.07
616.76	61378.21
616.92	61265.86
617.07	61408.64
617.22	61197.99
617.37	61270.54
617.53	61530.34
617.68	61560.77
617.83	61284.59
617.99	61338.42
618.14	61380.55
618.29	61497.58
618.45	61256.50
618.60	61153.52
618.75	61237.78
618.90	61102.03
619.06	61286.93
619.21	61523.32
619.36	61593.54
619.51	61310.33
619.67	61235.44
619.82	61109.05
619.97	61291.61
620.12	61036.49
620.28	61043.51
620.43	61300.97
620.58	61036.49
620.73	61155.86
620.89	60940.53
621.04	61368.85
621.19	61001.38
621.34	61167.56
621.49	61071.60
621.65	61048.19
621.80	61359.48
621.95	61111.39
622.10	60963.93
622.25	60996.70
622.41	61141.81
622.56	60989.68
622.71	60942.87
622.86	60872.65
623.01	61015.43
623.16	60800.10
623.32	61048.19
623.47	61006.06
623.62	60898.40
623.77	60900.74
623.92	60999.04
624.07	61120.75
624.23	60989.68
624.38	60975.64
624.53	60891.38
624.68	60708.82
624.83	60790.73
624.98	60795.42
625.13	60481.78
625.29	60715.84
625.44	60860.95
625.59	60685.41
625.74	60914.78
625.89	60470.08
626.04	60633.92
626.19	60629.24
626.34	60582.43
626.49	60458.38
626.65	60392.84
626.80	60720.52
626.95	60404.55
627.10	60472.42
627.25	60444.33
627.40	60214.96
627.55	60540.30
627.70	60434.97
627.85	60481.78
628.00	60257.09
628.15	60388.16
628.30	60083.89
628.45	60505.19
628.60	60179.85
628.76	60456.04
628.91	60594.13
629.06	60341.35
629.21	60470.08
629.36	60289.86
629.51	60257.09
629.66	60200.92
629.81	60165.81
629.96	60320.29
630.11	60168.15
630.26	60353.05
630.41	60320.29
630.56	60285.18
630.71	60327.31
630.86	60257.09
631.01	60236.03
631.16	60083.89
631.31	60268.79
631.46	59957.50
631.61	60147.09
631.76	60018.36
631.91	60200.92
632.06	60282.84
632.21	60158.79
632.36	60069.85
632.51	59655.57
632.66	60088.57
632.81	59938.78
632.96	60142.41
633.10	60074.53
633.25	60119.00
633.40	60210.28
633.55	60161.13
633.70	59831.11
633.85	59882.61
634.00	59807.71
634.15	59863.88
634.30	59784.30
634.45	59894.31
634.60	59985.59
634.75	60076.87
634.90	59730.47
635.05	59737.49
635.19	59714.09
635.34	59861.54
635.49	59934.10
635.64	59763.24
635.79	59774.94
635.94	59730.47
636.09	59700.04
636.24	59643.87
636.39	59578.34
636.53	59889.63
636.68	59594.72
636.83	59833.46
636.98	59805.37
637.13	59540.89
637.28	59407.48
637.43	59800.69
637.57	59470.67
637.72	59337.26
637.87	59515.14
638.02	59360.67
638.17	59503.44
638.32	59583.02
638.46	59480.03
638.61	59465.99
638.76	59414.50
638.91	59337.26
639.06	59398.12
639.20	59278.75
639.35	59295.13
639.50	59292.79
639.65	59327.90
639.80	59442.59
639.94	59250.66
640.09	59199.17
640.24	59451.95
640.39	59391.09
640.54	59182.79
640.68	59454.29
640.83	59339.60
640.98	59213.21
641.13	59098.53
641.27	59426.20
641.42	59267.05
641.57	59025.97
641.72	59004.91
641.86	58953.41
642.01	58993.20
642.16	59014.27
642.31	59037.67
642.45	59166.40
642.60	58841.07
642.75	59196.83
642.90	59143.00
643.04	59185.13
643.19	58763.83
643.34	59030.65
643.48	59084.48
643.63	59093.85
643.78	58855.11
643.93	59002.56
644.07	59047.04
644.22	58845.75
644.37	58665.53
644.51	58883.20
644.66	59014.27
644.81	59002.56
644.95	58911.28
645.10	58960.44
645.25	58817.66
645.39	58721.70
645.54	58822.34
645.69	58712.34
645.83	58775.53
645.98	58548.50
646.13	58660.85
646.27	58714.68
646.42	58569.57
646.57	58422.11
646.71	58618.72
646.86	58501.69
647.00	58810.64
647.15	58611.70
647.30	58553.18
647.44	58408.07
647.59	58710.00
647.74	58670.21
647.88	58597.65
648.03	58880.86
648.17	58560.20
648.32	58548.50
648.47	58541.48
648.61	58464.24
648.76	58717.02
648.90	58431.47
649.05	58450.20
649.20	58508.71
649.34	58457.22
649.49	58328.49
649.63	58326.15
649.78	58473.60
649.92	58342.53
650.07	58543.82
650.21	58190.40
650.36	58094.44
650.51	58361.26
650.65	58391.68
650.80	58548.50
650.94	58220.83
651.09	58124.86
651.23	57961.03
651.38	58049.97
651.52	58026.56
651.67	58003.16
651.81	57932.94
651.96	57904.85
652.10	58136.57
652.25	57972.73
652.39	58080.39
652.54	57631.01
652.68	57804.21
652.83	57991.45
652.97	57984.43
653.12	57968.05
653.26	57902.51
653.41	57996.13
653.55	58026.56
653.70	57745.70
653.84	58143.59
653.99	57736.34
654.13	57776.12
654.27	57935.28
654.42	57825.28
654.56	57764.42
654.71	57907.19
654.85	57827.62
655.00	57996.13
655.14	57670.80
655.29	57666.12
655.43	57944.64
655.57	57818.25
655.72	57598.24
655.86	57675.48
656.01	57605.26
656.15	57336.10
656.30	57848.68
656.44	57668.46
656.58	57965.71
656.73	57841.66
656.87	57537.39
657.01	57462.49
657.16	57708.25
657.30	57584.20
657.45	57361.85
657.59	57523.35
657.73	57223.76
657.88	57347.81
658.02	57429.72
658.16	57270.57
658.31	57242.48
658.45	57186.31
658.60	57226.10
658.74	57385.25
658.88	57214.40
659.03	57216.74
659.17	56823.53
659.31	57111.41
659.46	57233.12
659.60	57195.67
659.74	57120.77
659.89	56978.00
660.03	56992.04
660.17	57389.94
660.32	56935.87
660.46	56903.10
660.60	56882.04
660.74	56687.78
660.89	56980.34
661.03	56865.66
661.17	56765.01
661.32	56568.41
661.46	56683.09
661.60	56652.67
661.74	56528.62
661.89	56523.94
662.03	56647.99
662.17	56423.29
662.31	56439.68
662.46	56594.15
662.60	56334.35
662.74	56343.72
662.88	55922.42
663.03	56161.15
663.17	56343.72
663.31	56193.92
663.45	56273.50
663.60	56282.86
663.74	55875.61
663.88	55943.48
664.02	55812.41
664.17	55875.61
664.31	55601.77
664.45	55971.57
664.59	55817.10
664.73	55805.39
664.88	55749.22
665.02	55313.88
665.16	55409.84
665.30	55536.23
665.44	55414.52
665.59	55498.78
665.73	55482.40
665.87	55477.72
666.01	55583.04
666.15	55203.88
666.29	55388.78
666.44	55444.95
666.58	55253.03
666.72	55143.02
666.86	54897.27
667.00	55234.30
667.14	54838.75
667.28	54948.76
667.43	54934.71
667.57	55154.72
667.71	54841.09
667.85	54513.42
667.99	54747.47
668.13	54845.77
668.27	54677.25
668.41	54471.29
668.56	54616.40
668.70	54691.30
668.84	54454.90
668.98	54262.98
669.12	54733.43
669.26	54604.70
669.40	54241.92
669.54	54344.90
669.68	54468.95
669.82	54089.78
669.96	54333.20
670.10	54197.44
670.25	54429.16
670.39	54005.52
670.53	54185.74
670.67	53881.47
670.81	54169.36
670.95	53813.60
671.09	53701.25
671.23	53488.26
671.37	53778.49
671.51	53853.39
671.65	53804.24
671.79	53495.28
671.93	53476.56
672.07	53645.08
672.21	53298.68
672.35	52956.96
672.49	52931.22
672.63	52973.34
672.77	52910.15
672.91	52963.98
673.05	52933.56
673.19	52800.15
673.33	52566.09
673.47	52617.58
673.61	52741.63
673.75	52397.57
673.89	52378.85
674.03	52072.24
674.17	52112.03
674.31	52266.50
674.45	51723.50
674.59	51924.78
674.73	51894.36
674.87	51683.71
675.01	51824.14
675.15	51980.96
675.29	51868.61
675.43	51576.04
675.56	51267.09
675.70	51084.53
675.84	51283.48
675.98	50466.63
676.12	51349.01
676.26	51021.34
676.40	51002.61
676.54	50930.06
676.68	50836.44
676.82	50267.69
676.96	50492.38
677.10	50368.33
677.23	50347.26
677.37	50244.28
677.51	50363.65
677.65	49741.06
677.79	49191.04
677.93	49088.06
678.07	49539.78
678.21	49315.09
678.34	49546.80
678.48	49205.08
678.62	48769.74
678.76	48648.03
678.90	48652.72
679.04	48804.85
679.18	48900.81
679.31	48629.31
679.45	48348.45
679.59	48383.55
679.73	48381.21
679.87	48076.94
680.00	47583.09
680.14	47695.44
680.28	47503.51
680.42	47302.23
680.56	47459.04
680.70	46890.29
680.83	47253.08
680.97	46604.75
681.11	47243.71
681.25	46951.15
681.39	46426.87
681.52	46398.78
681.66	46454.95
681.80	46223.24
681.94	45989.19
682.07	46043.02
682.21	45516.40
682.35	45394.69
682.49	45904.93
682.62	45633.42
682.76	45656.83
682.90	45202.77
683.04	45467.25
683.17	45340.86
683.31	44673.81
683.45	44615.29
683.59	44287.62
683.72	44126.12
683.86	44554.44
684.00	44222.08
684.13	44282.94
684.27	43873.34
684.41	44135.48
684.55	43608.86
684.68	43370.13
684.82	43683.76
684.96	43414.60
685.09	43278.85
685.23	42904.36
685.37	42667.97
685.50	42628.18
685.64	42892.66
685.78	42588.39
685.91	42417.53
686.05	41736.43
686.19	41219.17
686.32	41596.00
686.46	41181.73
686.60	40961.72
686.73	41102.15
686.87	40788.52
687.01	41261.30
687.14	41083.42
687.28	40697.24
687.42	40711.28
687.55	40505.31
687.69	40828.30
687.82	40243.17
687.96	40147.21
688.10	39526.97
688.23	40091.04
688.37	39791.45
688.50	39321.00
688.64	38953.54
688.78	39353.77
688.91	38660.97
689.05	38637.56
689.18	38447.98
689.32	38171.80
689.46	37851.14
689.59	37794.97
689.73	37890.93
689.86	37963.49
690.00	37684.97
690.13	38150.73
690.27	37518.79
690.41	38153.07
690.54	37120.90
690.68	37034.30
690.81	37120.90
690.95	36917.27
691.08	36493.63
691.22	36421.08
691.35	36334.48
691.49	36507.68
691.62	36306.39
691.76	35978.72
691.89	35480.18
692.03	35426.35
692.16	35894.46
692.30	35218.04
692.43	35243.79
692.57	35213.36
692.70	34960.58
692.84	34607.16
692.97	34939.52
693.11	34719.51
693.24	34335.66
693.38	34029.05
693.51	33916.70
693.65	33736.48
693.78	33303.48
693.92	33560.94
694.05	33549.24
694.19	33429.87
694.32	33200.50
694.45	33062.41
694.59	33067.09
694.72	32556.85
694.86	32849.42
694.99	32414.08
695.13	32173.00
695.26	31997.46
695.39	31487.23
695.53	32231.52
695.66	31873.42
695.80	31541.06
695.93	31019.12
696.07	31206.36
696.20	31002.74
696.33	31033.16
696.47	30902.09
696.60	31009.76
696.73	30347.39
696.87	30551.01
697.00	30190.57
697.14	30616.55
697.27	30022.05
697.40	30150.78
697.54	29715.44
697.67	29954.18
697.80	29853.53
697.94	29694.38
698.07	29010.94
698.21	28982.85
698.34	28919.66
698.47	28727.74
698.61	28304.10
698.74	28826.04
698.87	28456.23
699.01	28299.42
699.14	28016.21
699.27	28086.43
699.40	28318.14
699.54	28119.20
699.67	28025.57
699.80	27580.87
699.94	27707.26
700.07	27548.11
700.20	27414.69
700.34	26986.38
700.47	26904.46
700.60	26455.08
700.73	26553.38
700.87	26178.89
701.00	26324.01
701.13	26164.85
701.26	25757.60
701.40	26024.42
701.53	25708.44
701.66	26061.87
701.79	25509.50
701.93	25446.30
702.06	25209.91
702.19	24807.34
702.32	25312.89
702.46	24994.58
702.59	24748.82
702.72	24549.88
702.85	24821.38
702.99	24315.83
703.12	24528.81
703.25	24325.19
703.38	23765.80
703.51	23847.72
703.65	23885.17
703.78	23419.40
703.91	23438.12
704.04	23218.11
704.17	23484.94
704.31	23496.64
704.44	22874.06
704.57	22904.48
704.70	22714.90
704.83	22485.53
704.96	22572.13
705.10	22176.58
705.23	22448.08
>>>>>End Processed Spectral Data<<<<<
