SpectraSuite Data File
++++++++++++++++++++++++++++++++++++
Date: Fri Oct 25 11:25:47 EDT 2013
User: price-jones
Dark Spectrum Present: No
Reference Spectrum Present: No
Number of Sampled Component Spectra: 1
Spectrometers: USB2+H05261
Integration Time (usec): 100000 (USB2+H05261)
Spectra Averaged: 1 (USB2+H05261)
Boxcar Smoothing: 0 (USB2+H05261)
Correct for Electrical Dark: No (USB2+H05261)
Strobe/Lamp Enabled: No (USB2+H05261)
Correct for Detector Non-linearity: No (USB2+H05261)
Correct for Stray Light: No (USB2+H05261)
Number of Pixels in Processed Spectrum: 2048
>>>>>Begin Processed Spectral Data<<<<<
365.73	222.35
365.92	222.35
366.12	222.35
366.32	154.48
366.52	72.56
366.72	93.62
366.91	112.35
367.11	135.75
367.31	84.26
367.51	182.56
367.70	110.01
367.90	121.71
368.10	177.88
368.30	205.97
368.49	140.43
368.69	152.13
368.89	191.92
369.09	140.43
369.28	250.44
369.48	112.35
369.68	234.05
369.87	212.99
370.07	182.56
370.27	290.23
370.47	308.95
370.66	664.71
370.86	622.58
371.06	610.88
371.25	671.73
371.45	629.60
371.65	690.46
371.84	664.71
372.04	664.71
372.24	690.46
372.44	744.29
372.63	753.65
372.83	716.20
373.03	741.95
373.22	655.35
373.42	802.80
373.62	786.42
373.81	753.65
374.01	802.80
374.21	777.06
374.40	737.27
374.60	835.57
374.79	809.83
374.99	819.19
375.19	866.00
375.38	896.43
375.58	894.08
375.78	856.64
375.97	791.10
376.17	837.91
376.37	837.91
376.56	828.55
376.76	798.12
376.95	844.93
377.15	866.00
377.35	929.19
377.54	931.53
377.74	901.11
377.93	933.87
378.13	837.91
378.33	938.55
378.52	896.43
378.72	943.24
378.91	936.21
379.11	940.90
379.31	945.58
379.50	908.13
379.70	933.87
379.89	952.60
380.09	964.30
380.28	1027.50
380.48	964.30
380.68	936.21
380.87	987.71
381.07	1048.56
381.26	976.00
381.46	971.32
381.65	1011.11
381.85	1078.99
382.04	1071.97
382.24	1039.20
382.43	1097.71
382.63	1107.07
382.83	1027.50
383.02	1135.16
383.22	1111.75
383.41	1048.56
383.61	1025.15
383.80	1048.56
384.00	1093.03
384.19	1078.99
384.39	1064.94
384.58	1064.94
384.78	1142.18
384.97	1149.20
385.17	1064.94
385.36	1118.78
385.56	1163.25
385.75	1135.16
385.95	1163.25
386.14	1212.40
386.34	1167.93
386.53	1203.04
386.72	1200.69
386.92	1294.32
387.11	1273.25
387.31	1212.40
387.50	1153.88
387.70	1174.95
387.89	1291.98
388.09	1273.25
388.28	1341.13
388.48	1334.11
388.67	1254.53
388.86	1327.08
389.06	1289.64
389.25	1275.59
389.45	1303.68
389.64	1355.17
389.84	1394.96
390.03	1348.15
390.22	1376.24
390.42	1317.72
390.61	1392.62
390.81	1439.43
391.00	1399.64
391.19	1474.54
391.39	1423.05
391.58	1458.15
391.78	1500.28
391.97	1418.36
392.16	1526.03
392.36	1481.56
392.55	1430.07
392.75	1483.90
392.94	1561.14
393.13	1551.78
393.33	1437.09
393.52	1519.01
393.71	1591.56
393.91	1596.25
394.10	1549.43
394.29	1612.63
394.49	1509.65
394.68	1572.84
394.88	1530.71
395.07	1629.01
395.26	1764.76
395.46	1633.69
395.65	1713.27
395.84	1706.25
396.04	1863.07
396.23	1724.97
396.42	1680.50
396.62	1755.40
396.81	1797.53
397.00	1682.85
397.19	1696.89
397.39	1767.10
397.58	1832.64
397.77	1926.26
397.97	1818.60
398.16	1811.57
398.35	1802.21
398.55	1879.45
398.74	1954.35
398.93	1921.58
399.12	1933.28
399.32	1809.23
399.51	1853.70
399.70	1968.39
399.90	1813.92
400.09	1966.05
400.28	2038.61
400.47	1959.03
400.67	2047.97
400.86	2090.10
401.05	2193.08
401.24	2136.91
401.44	2150.95
401.63	2029.24
401.82	2099.46
402.01	2069.03
402.21	2122.87
402.40	2155.63
402.59	2122.87
402.78	2134.57
402.97	2249.25
403.17	2275.00
403.36	2284.36
403.55	2242.23
403.74	2321.81
403.93	2436.50
404.13	2368.62
404.32	2340.54
404.51	2284.36
404.70	2478.63
404.89	2385.01
405.09	2448.20
405.28	2422.45
405.47	2354.58
405.66	2436.50
405.85	2506.71
406.05	2450.54
406.24	2525.44
406.43	2516.08
406.62	2729.06
406.81	2588.63
407.00	2466.92
407.20	2485.65
407.39	2586.29
407.58	2729.06
407.77	2815.66
407.96	2752.47
408.15	2733.75
408.34	2745.45
408.54	2705.66
408.73	2813.32
408.92	2752.47
409.11	2885.88
409.30	2874.18
409.49	2942.05
409.68	2860.13
409.87	2825.03
410.07	2998.23
410.26	2956.10
410.45	2848.43
410.64	3002.91
410.83	2988.86
411.02	2977.16
411.21	3049.72
411.40	3091.85
411.59	3119.93
411.78	3206.53
411.98	3318.88
412.17	3248.66
412.36	3314.20
412.55	3386.76
412.74	3332.92
412.93	3353.99
413.12	3318.88
413.31	3588.04
413.50	3499.10
413.69	3431.23
413.88	3569.32
414.07	3496.76
414.26	3569.32
414.45	3585.70
414.64	3609.11
414.83	3625.49
415.02	3789.33
415.22	3866.56
415.41	3794.01
415.60	3882.95
415.79	3969.55
415.98	3957.85
416.17	3850.18
416.36	4044.45
416.55	4011.68
416.74	4194.24
416.93	4070.19
417.12	3932.10
417.31	4212.96
417.50	4320.63
417.69	4332.33
417.88	4219.99
418.07	4227.01
418.26	4234.03
418.45	4337.01
418.64	4379.14
418.83	4491.49
419.02	4383.82
419.21	4440.00
419.39	4479.79
419.58	4358.08
419.77	4301.90
419.96	4482.13
420.15	4533.62
420.34	4531.28
420.53	4447.02
420.72	4718.52
420.91	4755.97
421.10	4667.03
421.29	4727.88
421.48	4695.11
421.67	4777.03
421.86	4629.58
422.05	4678.73
422.24	4784.06
422.43	4870.65
422.61	4805.12
422.80	5001.72
422.99	4856.61
423.18	4819.16
423.37	5025.13
423.56	4840.23
423.75	4884.70
423.94	4884.70
424.13	4489.15
424.32	4594.47
424.50	4999.38
424.69	4933.85
424.88	5097.69
425.07	4910.44
425.26	4894.06
425.45	4901.08
425.64	4898.74
425.83	4915.12
426.01	5085.98
426.20	5107.05
426.39	5184.29
426.58	4983.00
426.77	5174.92
426.96	5144.50
427.15	5095.35
427.33	5200.67
427.52	4992.36
427.71	5273.23
427.90	5111.73
428.09	5343.44
428.28	5100.03
428.46	5446.43
428.65	5373.87
428.84	5528.35
429.03	5474.51
429.22	5074.28
429.40	5383.23
429.59	5329.40
429.78	5210.03
429.97	5280.25
430.16	5348.12
430.34	5547.07
430.53	5671.12
430.72	5621.97
430.91	5603.24
431.10	5500.26
431.28	5636.01
431.47	5694.52
431.66	5771.76
431.85	5699.20
432.03	5926.24
432.22	5893.47
432.41	5729.63
432.60	5959.00
432.79	5933.26
432.97	6087.73
433.16	5968.37
433.35	5975.39
433.54	6141.57
433.72	6061.99
433.91	6115.82
434.10	6090.07
434.28	6045.60
434.47	6073.69
434.66	6118.16
434.85	6120.50
435.03	6333.49
435.22	6396.68
435.41	6317.11
435.59	6382.64
435.78	6342.85
435.97	6445.84
436.16	6478.60
436.34	6401.37
436.53	6314.77
436.72	6637.76
436.90	6424.77
437.09	6574.56
437.28	6399.02
437.46	6647.12
437.65	6406.05
437.84	6579.25
438.02	6649.46
438.21	6663.51
438.40	6885.86
438.58	6885.86
438.77	7019.27
438.96	7033.31
439.14	7009.90
439.33	7068.42
439.52	7075.44
439.70	7232.26
439.89	7267.36
440.08	7372.69
440.26	7215.87
440.45	7410.14
440.63	7370.35
440.82	7475.67
441.01	7384.39
441.19	7564.61
441.38	7784.62
441.57	7824.41
441.75	7843.14
441.94	7859.52
442.12	7889.95
442.31	7889.95
442.50	8070.17
442.68	7971.86
442.87	8013.99
443.05	8011.65
443.24	8269.11
443.43	8119.32
443.61	8030.38
443.80	8212.94
443.98	8006.97
444.17	7819.73
444.35	8208.26
444.54	8388.48
444.73	8161.45
444.91	8226.98
445.10	8292.52
445.28	8320.60
445.47	8142.72
445.65	8138.04
445.84	8315.92
446.02	8458.70
446.21	8439.97
446.39	8234.00
446.58	8315.92
446.77	8463.38
446.95	8269.11
447.14	8201.24
447.32	8538.27
447.51	8475.08
447.69	8320.60
447.88	8514.87
448.06	8425.93
448.25	8685.73
448.43	8461.04
448.62	8425.93
448.80	8414.23
448.99	8557.00
449.17	8833.18
449.36	8542.96
449.54	8891.70
449.73	8753.60
449.91	8954.89
450.10	9004.04
450.28	8971.27
450.46	8985.32
450.65	9032.13
450.83	8849.57
451.02	9114.05
451.20	8966.59
451.39	9034.47
451.57	9036.81
451.76	9048.51
451.94	9132.77
452.13	9149.15
452.31	9179.58
452.49	9177.24
452.68	9242.78
452.86	9095.32
453.05	9219.37
453.23	9233.41
453.42	9329.38
453.60	9242.78
453.78	9530.66
453.97	9406.61
454.15	9495.55
454.34	9373.85
454.52	9525.98
454.70	9577.47
454.89	9448.74
455.07	9764.72
455.26	9760.03
455.44	9858.34
455.62	9626.62
455.81	9823.23
455.99	9949.62
456.17	10022.17
456.36	9764.72
456.54	10284.31
456.73	10176.65
456.91	10377.94
457.09	10242.18
457.28	10312.40
457.46	10312.40
457.64	10464.54
457.83	10204.74
458.01	10225.80
458.19	10609.65
458.38	10427.09
458.56	10457.51
458.74	10684.55
458.93	10480.92
459.11	10581.56
459.29	10656.46
459.48	10757.10
459.66	10717.31
459.84	10827.32
460.03	11063.71
460.21	10832.00
460.39	10883.49
460.57	10927.96
460.76	10920.94
460.94	11124.57
461.12	11059.03
461.31	11009.88
461.49	10942.00
461.67	10981.79
461.85	11375.00
462.04	11262.66
462.22	11728.42
462.40	11459.26
462.59	11552.88
462.77	11611.40
462.95	11473.31
463.13	11265.00
463.32	11705.02
463.50	11719.06
463.68	11831.41
463.86	11634.80
464.05	11559.91
464.23	11707.36
464.41	11920.35
464.59	11693.32
464.78	11992.90
464.96	11990.56
465.14	11660.55
465.32	11990.56
465.50	11974.18
465.69	12229.30
465.87	12191.85
466.05	12311.22
466.23	11995.25
466.41	12369.73
466.60	12470.37
466.78	12116.95
466.96	12250.36
467.14	12154.40
467.32	12074.82
467.51	12432.93
467.69	11927.37
467.87	12355.69
468.05	12510.16
468.23	12388.46
468.41	12341.64
468.60	12383.77
468.78	12807.41
468.96	12622.51
469.14	12716.13
469.32	12940.82
469.50	12510.16
469.69	12929.12
469.87	12886.99
470.05	12823.80
470.23	12975.93
470.41	13036.78
470.59	13151.47
470.77	13177.22
470.95	13291.90
471.14	13268.50
471.32	13277.86
471.50	13401.91
471.68	13301.26
471.86	13451.06
472.04	13619.58
472.22	13848.95
472.40	13572.77
472.58	13804.48
472.77	13778.73
472.95	14052.58
473.13	14712.61
473.31	13963.64
473.49	14043.21
473.67	14228.12
473.85	14183.65
474.03	14567.49
474.21	14738.35
474.39	14541.75
474.57	14431.74
474.75	14803.89
474.93	14810.91
475.12	15023.90
475.30	14871.76
475.48	14897.51
475.66	14967.73
475.84	15019.22
476.02	15241.57
476.20	15372.64
476.38	15859.47
476.56	15824.36
476.74	15655.84
476.92	15721.38
477.10	15714.36
477.28	15953.09
477.46	16067.78
477.64	16203.53
477.82	16255.02
478.00	16950.16
478.18	16615.46
478.36	16910.37
478.54	16954.84
478.72	16982.93
478.90	17439.33
479.08	17301.24
479.26	17387.84
479.44	17460.40
479.62	17919.14
479.80	18080.64
479.98	18092.34
480.16	18448.10
480.34	18155.54
480.52	18307.67
480.70	18609.60
480.88	18431.72
481.06	18558.11
481.24	18689.18
481.41	19047.28
481.59	19187.71
481.77	19220.48
481.95	19243.88
482.13	19721.35
482.31	19594.96
482.49	20121.59
482.67	20039.67
482.85	20236.27
483.03	20484.37
483.21	20456.28
483.39	20870.56
483.57	20655.23
483.74	20823.75
483.92	21240.36
484.10	21329.30
484.28	21270.79
484.46	21687.40
484.64	21926.14
484.82	21820.81
485.00	22178.92
485.18	22780.43
485.35	22860.01
485.53	22541.70
485.71	22843.63
485.89	23386.63
486.07	23241.52
486.25	23307.05
486.43	23405.36
486.61	23391.31
486.78	24032.62
486.96	24144.97
487.14	24304.12
487.32	24812.02
487.50	24601.37
487.68	24842.45
487.85	25144.38
488.03	25081.18
488.21	25610.14
488.39	25553.97
488.57	25628.87
488.75	25785.68
488.92	26260.81
489.10	26263.15
489.28	26513.59
489.46	27178.30
489.64	26885.73
489.81	27480.23
489.99	27461.51
490.17	27522.36
490.35	27817.27
490.53	28046.64
490.70	28266.65
490.88	28121.54
491.06	28608.37
491.24	28872.85
491.41	29069.45
491.59	28971.15
491.77	28891.57
491.95	29776.30
492.13	29401.81
492.30	30141.42
492.48	29727.14
492.66	29947.15
492.84	30075.88
493.01	30260.79
493.19	30724.21
493.37	30747.62
493.54	30698.47
493.72	31243.81
493.90	31077.63
494.08	31529.36
494.25	31503.61
494.43	32112.15
494.61	32109.81
494.79	31784.48
494.96	32744.09
495.14	32535.79
495.32	33167.73
495.49	33113.90
495.67	32816.65
495.85	33638.18
496.02	33354.97
496.20	33780.95
496.38	33830.10
496.55	33993.94
496.73	34410.56
496.91	34443.32
497.09	34366.09
497.26	34618.86
497.44	34742.91
497.62	34862.28
497.79	35400.60
497.97	35215.70
498.14	35786.79
498.32	35964.67
498.50	35962.33
498.67	36100.42
498.85	36222.13
499.03	36552.15
499.20	36690.24
499.38	36774.50
499.56	36699.60
499.73	36933.65
499.91	36891.52
500.08	37525.81
500.26	36912.59
500.44	37532.83
500.61	37607.73
500.79	37584.32
500.97	37411.12
501.14	38139.03
501.32	38316.91
501.49	38197.54
501.67	38352.02
501.84	38616.50
502.02	38604.80
502.20	38768.63
502.37	39044.82
502.55	38850.55
502.72	38906.73
502.90	39267.17
503.07	39304.62
503.25	39393.56
503.43	39744.64
503.60	39555.05
503.78	39871.03
503.95	40154.23
504.13	40472.54
504.30	40282.96
504.48	40318.07
504.65	40229.13
504.83	40816.60
505.01	41109.17
505.18	40818.94
505.36	41144.28
505.53	40863.41
505.71	41277.69
505.88	41640.47
506.06	41352.58
506.23	41633.45
506.41	41600.68
506.58	41759.84
506.76	41738.77
506.93	42223.26
507.11	41961.12
507.28	42391.78
507.46	42103.90
507.63	42569.66
507.81	42738.18
507.98	42480.72
508.16	42717.12
508.33	43000.32
508.50	43536.30
508.68	43290.55
508.85	43325.66
509.03	43253.10
509.20	43599.50
509.38	44004.41
509.55	44107.40
509.73	44222.08
509.90	44701.89
510.08	44460.82
510.25	44226.76
510.42	44509.97
510.60	44797.85
510.77	44811.90
510.95	45116.17
511.12	44917.22
511.30	44823.60
511.47	45343.20
511.64	45102.12
511.82	45682.58
511.99	45212.13
512.17	45354.90
512.34	45088.08
512.51	46206.86
512.69	46005.57
512.86	46143.66
513.04	46543.89
513.21	46113.23
513.38	46344.95
513.56	46431.55
513.73	46520.49
513.90	46834.12
514.08	46897.31
514.25	46799.01
514.43	47089.24
514.60	46967.53
514.77	47021.36
514.95	47810.12
515.12	47227.33
515.29	47061.15
515.47	47461.38
515.64	47625.22
515.81	47814.80
515.99	48154.18
516.16	48502.92
516.33	47913.11
516.51	48472.49
516.68	48182.27
516.85	48179.93
517.03	48498.24
517.20	48959.33
517.37	48706.55
517.54	48652.72
517.72	49195.72
517.89	48818.89
518.06	49013.16
518.24	49050.61
518.41	49024.86
518.58	48985.07
518.75	48879.75
518.93	49364.24
519.10	48774.42
519.27	49481.27
519.45	49357.22
519.62	49668.51
519.79	49352.54
519.96	49935.33
520.14	49595.95
520.31	49502.33
520.48	49771.49
520.65	50024.27
520.83	50064.06
521.00	50567.27
521.17	50007.89
521.34	50408.12
521.52	50625.79
521.69	50813.03
521.86	50770.90
522.03	50604.72
522.20	50684.30
522.38	51290.50
522.55	51199.22
522.72	51253.05
522.89	51107.94
523.07	51154.75
523.24	51171.13
523.41	51367.74
523.58	51084.53
523.75	51751.59
523.92	51578.39
524.10	51985.64
524.27	51774.99
524.44	51796.06
524.61	51737.54
524.78	51959.89
524.96	51877.97
525.13	51913.08
525.30	51749.24
525.47	52072.24
525.64	52271.18
525.81	52467.79
525.98	52423.32
526.16	52486.51
526.33	52200.97
526.50	52624.60
526.67	52795.46
526.84	52678.44
527.01	52708.86
527.18	52629.29
527.36	52671.42
527.53	53020.16
527.70	53003.77
527.87	53221.44
528.04	52987.39
528.21	53415.71
528.38	53050.58
528.55	53347.83
528.72	53125.48
528.89	52949.94
529.07	53198.04
529.24	53305.70
529.41	53373.58
529.58	53488.26
529.75	53558.48
529.92	53340.81
530.09	53717.64
530.26	53947.01
530.43	53963.39
530.60	53518.69
530.77	53542.10
530.94	54040.63
531.11	54073.40
531.28	53815.94
531.46	53773.81
531.63	53928.28
531.80	53605.29
531.97	54085.10
532.14	54372.99
532.31	54291.07
532.48	54160.00
532.65	54412.77
532.82	54447.88
532.99	54578.95
533.16	54260.64
533.33	54562.57
533.50	54607.04
533.67	54607.04
533.84	54508.74
534.01	54789.60
534.18	54721.72
534.35	54752.15
534.52	55112.59
534.69	55182.81
534.86	55203.88
535.03	54712.36
535.20	55056.42
535.37	55098.55
535.54	55018.97
535.71	55107.91
535.88	55384.10
536.05	55515.17
536.22	55456.65
536.38	55278.77
536.55	55304.52
536.72	55257.71
536.89	55201.53
537.06	55468.36
537.23	55377.08
537.40	55543.25
537.57	55267.07
537.74	55475.38
537.91	55650.92
538.08	55714.11
538.25	55428.57
538.42	55744.54
538.59	56093.28
538.75	55679.00
538.92	55908.38
539.09	55934.12
539.26	56051.15
539.43	55868.59
539.60	55978.59
539.77	55929.44
539.94	56507.55
540.11	56182.22
540.28	56233.71
540.44	56044.13
540.61	55992.64
540.78	56247.75
540.95	56406.91
541.12	56165.84
541.29	56294.56
541.46	56189.24
541.62	56591.81
541.79	56430.32
541.96	56355.42
542.13	56442.02
542.30	56610.54
542.47	56647.99
542.63	56596.49
542.80	56701.82
542.97	56591.81
543.14	57282.27
543.31	56956.94
543.48	57195.67
543.64	57371.21
543.81	57270.57
543.98	57137.16
544.15	57127.80
544.32	57322.06
544.48	57279.93
544.65	57429.72
544.82	57006.09
544.99	57109.07
545.16	57284.61
545.32	57205.03
545.49	57495.26
545.66	57560.79
545.83	57380.57
546.00	57413.34
546.16	57432.07
546.33	57354.83
546.50	57116.09
546.67	57563.14
546.83	57411.00
547.00	57401.64
547.17	57504.62
547.34	57689.52
547.50	57808.89
547.67	57874.43
547.84	57682.50
548.00	57799.53
548.17	57762.08
548.34	57968.05
548.51	57900.17
548.67	58061.67
548.84	57989.11
549.01	57904.85
549.18	57776.12
549.34	57846.34
549.51	58059.33
549.68	58244.23
549.84	58262.96
550.01	58178.70
550.18	58227.85
550.34	58183.38
550.51	58138.91
550.68	58429.13
550.84	58145.93
551.01	58436.16
551.18	58300.40
551.34	58216.14
551.51	58361.26
551.68	58396.37
551.84	58384.66
552.01	58361.26
552.18	58539.14
552.34	58169.33
552.51	58590.63
552.68	58452.54
552.84	58485.31
553.01	58754.47
553.18	58745.11
553.34	58789.58
553.51	58632.76
553.67	58578.93
553.84	58838.73
554.01	58749.79
554.17	58986.18
554.34	58812.98
554.51	58738.08
554.67	58817.66
554.84	58812.98
555.00	58562.54
555.17	58731.06
555.33	59023.63
555.50	58745.11
555.67	58667.87
555.83	58777.87
556.00	58887.88
556.16	59206.19
556.33	59131.29
556.50	58951.07
556.66	59100.87
556.83	59114.91
556.99	59269.39
557.16	59278.75
557.32	59363.01
557.49	59501.10
557.65	59236.62
557.82	59274.07
557.98	59227.26
558.15	59339.60
558.32	59208.53
558.48	59161.72
558.65	59475.35
558.81	59274.07
558.98	59339.60
559.14	59580.68
559.31	59405.14
559.47	59477.69
559.64	59688.34
559.80	59578.34
559.97	59618.13
560.13	59566.63
560.30	59334.92
560.46	59686.00
560.63	59606.42
560.79	59526.84
560.96	59636.85
561.12	59629.83
561.29	59587.70
561.45	59758.56
561.61	59676.64
561.78	59576.00
561.94	59543.23
562.11	59693.02
562.27	59760.90
562.44	59674.30
562.60	60018.36
562.77	59870.90
562.93	59711.75
563.10	59870.90
563.26	59676.64
563.42	59920.05
563.59	59992.61
563.75	59709.41
563.92	59847.50
564.08	59718.77
564.24	60025.38
564.41	59931.76
564.57	59840.48
564.74	59973.89
564.90	59777.28
565.07	59964.52
565.23	59875.58
565.39	59887.29
565.56	60030.06
565.72	59868.56
565.88	60072.19
566.05	60116.66
566.21	59891.97
566.38	60076.87
566.54	60142.41
566.70	60095.60
566.87	60229.01
567.03	60044.10
567.19	60229.01
567.36	60238.37
567.52	60322.63
567.68	60320.29
567.85	60200.92
568.01	60331.99
568.17	60186.88
568.34	60231.35
568.50	60111.98
568.66	60041.76
568.83	60210.28
568.99	60023.04
569.15	60275.82
569.32	60233.69
569.48	60076.87
569.64	60346.03
569.81	60385.82
569.97	60130.70
570.13	60388.16
570.30	60369.44
570.46	60203.26
570.62	60385.82
570.78	60285.18
570.95	60189.22
571.11	60446.68
571.27	60453.70
571.43	60484.12
571.60	60523.91
571.76	60411.57
571.92	60514.55
572.09	60341.35
572.25	60446.68
572.41	60331.99
572.57	60308.58
572.74	60666.69
572.90	60420.93
573.06	60336.67
573.22	60481.78
573.38	60444.33
573.55	60486.46
573.71	60757.97
573.87	60502.85
574.03	60423.27
574.20	60519.23
574.36	60610.51
574.52	60678.39
574.68	60537.96
574.84	60659.66
575.01	60514.55
575.17	60727.54
575.33	60540.30
575.49	60512.21
575.65	60540.30
575.82	60804.78
575.98	60624.56
576.14	60552.00
576.30	60734.56
576.46	60577.75
576.62	60528.59
576.79	60781.37
576.95	60514.55
577.11	60666.69
577.27	60598.81
577.43	60582.43
577.59	60423.27
577.75	60474.76
577.92	60505.19
578.08	60657.32
578.24	60757.97
578.40	60647.96
578.56	61020.11
578.72	60718.18
578.88	60718.18
579.04	60636.26
579.21	60718.18
579.37	60903.08
579.53	61015.43
579.69	60528.59
579.85	60591.79
580.01	60575.40
580.17	60474.76
580.33	60755.63
580.49	60954.57
580.65	60708.82
580.82	60739.24
580.98	60601.15
581.14	60582.43
581.30	60739.24
581.46	60676.05
581.62	60797.76
581.78	60544.98
581.94	60762.65
582.10	60673.71
582.26	60631.58
582.42	60652.64
582.58	60718.18
582.74	60647.96
582.90	60734.56
583.06	60734.56
583.22	60697.11
583.38	60671.37
583.54	60743.92
583.70	60690.09
583.86	60959.25
584.02	60521.57
584.18	60711.16
584.34	60853.93
584.50	60734.56
584.66	60900.74
584.82	60444.33
584.98	61034.15
585.14	60783.71
585.30	60853.93
585.46	60884.36
585.62	60853.93
585.78	60849.25
585.94	60622.22
586.10	60874.99
586.26	60917.12
586.42	60825.84
586.58	61034.15
586.74	60884.36
586.90	60872.65
587.06	60748.60
587.22	60942.87
587.38	60739.24
587.54	60874.99
587.70	61158.20
587.86	61048.19
588.02	60863.29
588.18	61001.38
588.34	60769.67
588.49	60867.97
588.65	60987.34
588.81	61312.67
588.97	61083.30
589.13	60970.96
589.29	60970.96
589.45	61275.22
589.61	61102.03
589.77	61223.73
589.93	61261.18
590.08	60959.25
590.24	61319.70
590.40	61183.94
590.56	61329.06
590.72	61261.18
590.88	61073.94
591.04	61116.07
591.20	61319.70
591.35	61286.93
591.51	61474.17
591.67	61338.42
591.83	61242.46
591.99	61099.68
592.15	61158.20
592.31	61446.08
592.46	61261.18
592.62	61195.65
592.78	61439.06
592.94	61394.59
593.10	61310.33
593.26	61476.51
593.41	61319.70
593.57	61249.48
593.73	61336.08
593.89	61499.92
594.05	61469.49
594.20	61277.57
594.36	61476.51
594.52	61467.15
594.68	61462.47
594.84	61190.97
594.99	61279.91
595.15	61265.86
595.31	61481.19
595.47	61214.37
595.62	61303.31
595.78	61249.48
595.94	61296.29
596.10	61647.37
596.25	61499.92
596.41	61422.68
596.57	61293.95
596.73	61497.58
596.88	61354.80
597.04	61375.87
597.20	61642.69
597.36	61436.72
597.51	61525.66
597.67	61326.72
597.83	61329.06
597.99	61565.45
598.14	61352.46
598.30	61312.67
598.46	61495.24
598.61	61619.28
598.77	61467.15
598.93	61497.58
599.09	61460.13
599.24	61792.48
599.40	61605.24
599.56	61668.44
599.71	61792.48
599.87	61694.18
600.03	61855.68
600.18	61485.87
600.34	61350.12
600.50	61705.88
600.65	61520.98
600.81	61635.67
600.97	61708.22
601.12	61673.12
601.28	61401.61
601.44	61394.59
601.59	61630.99
601.75	61506.94
601.91	61855.68
602.06	61755.03
602.22	61841.63
602.37	61719.93
602.53	61628.65
602.69	61418.00
602.84	61518.64
603.00	61621.62
603.16	61766.74
603.31	61790.14
603.47	61729.29
603.62	61691.84
603.78	61574.81
603.94	61785.46
604.09	61696.52
604.25	61684.82
604.40	61469.49
604.56	61544.39
604.71	61647.37
604.87	61612.26
605.03	61736.31
605.18	61593.54
605.34	61579.49
605.49	61518.64
605.65	61717.59
605.80	61570.13
605.96	61743.33
606.12	61806.53
606.27	61668.44
606.43	61497.58
606.58	61750.35
606.74	61556.09
606.89	61633.33
607.05	61623.96
607.20	61513.96
607.36	61474.17
607.51	61581.84
607.67	61329.06
607.82	61453.11
607.98	61513.96
608.13	61380.55
608.29	61249.48
608.44	61469.49
608.60	61453.11
608.75	61687.16
608.91	61460.13
609.06	61317.35
609.22	61525.66
609.37	61410.98
609.53	61319.70
609.68	61537.36
609.84	61361.82
609.99	61460.13
610.15	61607.58
610.30	61492.89
610.46	61401.61
610.61	61497.58
610.76	61563.11
610.92	61455.45
611.07	61401.61
611.23	61389.91
611.38	61537.36
611.54	61544.39
611.69	61481.19
611.84	61520.98
612.00	61190.97
612.15	61506.94
612.31	61422.68
612.46	61298.63
612.62	61312.67
612.77	61326.72
612.92	61296.29
613.08	61200.33
613.23	61364.17
613.39	61134.79
613.54	61249.48
613.69	61237.78
613.85	61223.73
614.00	61504.60
614.15	61399.27
614.31	61221.39
614.46	61455.45
614.62	61062.24
614.77	61265.86
614.92	61268.20
615.08	61188.63
615.23	61069.26
615.38	61219.05
615.54	61261.18
615.69	61296.29
615.84	61261.18
616.00	61242.46
616.15	61151.18
616.30	61296.29
616.46	61350.12
616.61	61073.94
616.76	61331.40
616.92	60921.80
617.07	61076.28
617.22	61003.72
617.37	61148.84
617.53	61186.28
617.68	61205.01
617.83	61148.84
617.99	61193.31
618.14	61036.49
618.29	61109.05
618.45	61066.92
618.60	60884.36
618.75	60921.80
618.90	60980.32
619.06	61097.34
619.21	60985.00
619.36	60947.55
619.51	61059.90
619.67	60631.58
619.82	60949.89
619.97	60961.59
620.12	60900.74
620.28	60893.72
620.43	60846.91
620.58	60867.97
620.73	60860.95
620.89	60949.89
621.04	60865.63
621.19	60662.00
621.34	60886.70
621.49	60671.37
621.65	60743.92
621.80	60947.55
621.95	60629.24
622.10	60846.91
622.25	60741.58
622.41	60622.22
622.56	60505.19
622.71	60760.31
622.86	60622.22
623.01	60626.90
623.16	60477.10
623.32	60781.37
623.47	60851.59
623.62	60797.76
623.77	60603.49
623.92	60856.27
624.07	60701.79
624.23	60685.41
624.38	60519.23
624.53	60324.97
624.68	60411.57
624.83	60619.88
624.98	60575.40
625.13	60467.74
625.29	60556.68
625.44	60624.56
625.59	60465.40
625.74	60343.69
625.89	60383.48
626.04	60456.04
626.19	60245.39
626.34	60423.27
626.49	60224.32
626.65	60292.20
626.80	60257.09
626.95	60259.43
627.10	60245.39
627.25	60069.85
627.40	59990.27
627.55	60154.11
627.70	60226.66
627.85	60149.43
628.00	60254.75
628.15	60313.26
628.30	60023.04
628.45	60083.89
628.60	60107.30
628.76	60111.98
628.91	60156.45
629.06	60097.94
629.21	60268.79
629.36	60032.40
629.51	60062.83
629.66	59964.52
629.81	59796.01
629.96	59903.67
630.11	59704.73
630.26	60041.76
630.41	60039.42
630.56	59969.21
630.71	60126.02
630.86	59966.87
631.01	59957.50
631.16	60020.70
631.31	59721.11
631.46	59718.77
631.61	59854.52
631.76	60133.04
631.91	59856.86
632.06	59955.16
632.21	59955.16
632.36	59709.41
632.51	59543.23
632.66	59714.09
632.81	59732.81
632.96	59803.03
633.10	59833.46
633.25	59870.90
633.40	59674.30
633.55	59786.64
633.70	59524.50
633.85	59547.91
634.00	59332.58
634.15	59545.57
634.30	59440.24
634.45	59601.74
634.60	59784.30
634.75	59749.20
634.90	59379.39
635.05	59346.62
635.19	59554.93
635.34	59688.34
635.49	59440.24
635.64	59554.93
635.79	59337.26
635.94	59475.35
636.09	59465.99
636.24	59353.65
636.39	59299.81
636.53	59372.37
636.68	59248.32
636.83	59412.16
636.98	59564.29
637.13	59405.14
637.28	59367.69
637.43	59306.83
637.57	59304.49
637.72	59040.01
637.87	59337.26
638.02	59182.79
638.17	59316.20
638.32	59297.47
638.46	59374.71
638.61	59278.75
638.76	59147.68
638.91	59140.66
639.06	59290.45
639.20	58960.44
639.35	58944.05
639.50	58915.96
639.65	59082.14
639.80	59119.59
639.94	59126.61
640.09	59065.76
640.24	59051.72
640.39	59028.31
640.54	58897.24
640.68	58738.08
640.83	58880.86
640.98	58939.37
641.13	58597.65
641.27	59096.19
641.42	59018.95
641.57	58787.24
641.72	58848.09
641.86	58607.01
642.01	58876.18
642.16	58754.47
642.31	58405.73
642.45	58848.09
642.60	58642.12
642.75	58787.24
642.90	58857.45
643.04	58801.28
643.19	58468.92
643.34	58787.24
643.48	58651.48
643.63	58838.73
643.78	58672.55
643.93	58557.86
644.07	58625.74
644.22	58534.46
644.37	58379.98
644.51	58389.34
644.66	58557.86
644.81	58387.00
644.95	58515.73
645.10	58511.05
645.25	58595.31
645.39	58415.09
645.54	58471.26
645.69	58291.04
645.83	58445.52
645.98	58096.78
646.13	58511.05
646.27	58604.67
646.42	58459.56
646.57	58396.37
646.71	58511.05
646.86	58443.18
647.00	58372.96
647.15	58363.60
647.30	58351.90
647.44	58309.77
647.59	58541.48
647.74	58328.49
647.88	58389.34
648.03	58564.88
648.17	58307.43
648.32	58185.72
648.47	58192.74
648.61	58232.53
648.76	58085.07
648.90	57942.30
649.05	58204.44
649.20	58143.59
649.34	58199.76
649.49	58253.59
649.63	58166.99
649.78	58150.61
649.92	58068.69
650.07	58279.34
650.21	57963.37
650.36	58071.03
650.51	57956.35
650.65	58202.10
650.80	58073.37
650.94	57869.75
651.09	57890.81
651.23	57696.55
651.38	57829.96
651.52	57844.00
651.67	57762.08
651.81	57659.10
651.96	57797.19
652.10	57670.80
652.25	57787.83
652.39	57771.44
652.54	57794.85
652.68	57495.26
652.83	57628.67
652.97	57790.17
653.12	57719.95
653.26	57476.54
653.41	57970.39
653.55	57778.46
653.70	57682.50
653.84	57806.55
653.99	57659.10
654.13	57418.02
654.27	57455.47
654.42	57441.43
654.56	57626.33
654.71	57495.26
654.85	57921.24
655.00	57532.71
655.14	57268.23
655.29	57315.04
655.43	57516.32
655.57	57301.00
655.72	57296.31
655.86	57382.91
656.01	57371.21
656.15	57329.08
656.30	57516.32
656.44	57270.57
656.58	57668.46
656.73	57588.88
656.87	57359.51
657.01	57158.22
657.16	57284.61
657.30	57113.75
657.45	56851.61
657.59	56863.32
657.73	56633.94
657.88	56793.10
658.02	57055.24
658.16	56970.98
658.31	57160.56
658.45	56924.17
658.60	57017.79
658.74	57055.24
658.88	56917.15
659.03	56912.47
659.17	56568.41
659.31	56982.68
659.46	57113.75
659.60	56779.06
659.74	56825.87
659.89	56315.63
660.03	56491.17
660.17	57050.56
660.32	56528.62
660.46	56760.33
660.60	56683.09
660.74	56680.75
660.89	56804.80
661.03	56519.26
661.17	56460.74
661.32	56154.13
661.46	56528.62
661.60	56545.00
661.74	56343.72
661.89	56229.03
662.03	56158.81
662.17	56161.15
662.31	56090.94
662.46	56420.95
662.60	55915.40
662.74	56130.73
662.88	55941.14
663.03	55606.45
663.17	55962.21
663.31	55667.30
663.45	55976.25
663.60	55709.43
663.74	55592.40
663.88	55484.74
664.02	55484.74
664.17	55547.93
664.31	55512.83
664.45	55458.99
664.59	55433.25
664.73	55456.65
664.88	55583.04
665.02	54941.74
665.16	55271.75
665.30	55419.20
665.44	55121.96
665.59	55231.96
665.73	55110.25
665.87	55152.38
666.01	54932.37
666.15	55222.60
666.29	55021.31
666.44	54960.46
666.58	55025.99
666.72	54850.45
666.86	54852.80
667.00	54824.71
667.14	54555.55
667.28	54649.17
667.43	54843.43
667.57	54578.95
667.71	54494.69
667.85	54501.71
667.99	54459.58
668.13	54157.66
668.27	54148.29
668.41	54216.17
668.56	54005.52
668.70	54204.47
668.84	53663.80
668.98	53741.04
669.12	54007.86
669.26	54223.19
669.40	54122.55
669.54	54394.05
669.68	53939.99
669.82	53909.56
669.96	53895.52
670.10	53844.02
670.25	53965.73
670.39	53670.82
670.53	53752.74
670.67	53553.80
670.81	53865.09
670.95	53614.65
671.09	53378.26
671.23	53261.23
671.37	53368.90
671.51	53378.26
671.65	53240.17
671.79	53382.94
671.93	52767.38
672.07	53305.70
672.21	53099.73
672.35	52603.54
672.49	52343.74
672.63	52734.61
672.77	52781.42
672.91	52732.27
673.05	52479.49
673.19	52411.62
673.33	52072.24
673.47	52327.36
673.61	52381.19
673.75	51941.17
673.89	51721.16
674.03	51526.89
674.17	52074.58
674.31	51540.94
674.45	51395.82
674.59	51414.55
674.73	51367.74
674.87	51325.61
675.01	51283.48
675.15	51435.61
675.29	51311.56
675.43	51360.72
675.56	51096.24
675.70	51063.47
675.84	50731.11
675.98	50068.74
676.12	50955.80
676.26	50829.41
676.40	50674.94
676.54	50363.65
676.68	50618.77
676.82	49769.15
676.96	50206.83
677.10	49720.00
677.23	49890.86
677.37	49614.68
677.51	49900.22
677.65	48875.07
677.79	48392.92
677.93	48940.60
678.07	49071.67
678.21	48837.62
678.34	48849.32
678.48	48488.88
678.62	48718.25
678.76	48617.61
678.90	48130.78
679.04	48481.86
679.18	48355.47
679.31	47718.84
679.45	48074.60
679.59	48184.61
679.73	48060.56
679.87	47159.45
680.00	47526.92
680.14	46932.42
680.28	46976.89
680.42	47026.04
680.56	46665.60
680.70	46773.27
680.83	46344.95
680.97	46583.68
681.11	46721.77
681.25	46122.60
681.39	46286.43
681.52	46075.79
681.66	46223.24
681.80	45834.71
681.94	45741.09
682.07	45542.14
682.21	45193.40
682.35	45567.89
682.49	44945.31
682.62	44994.46
682.76	45331.50
682.90	44900.84
683.04	44959.35
683.17	44758.06
683.31	44177.61
683.45	44299.32
683.59	43791.42
683.72	43803.13
683.86	43746.95
684.00	43721.21
684.13	43761.00
684.27	43536.30
684.41	43777.38
684.55	43924.83
684.68	43271.82
684.82	43005.00
684.96	42735.84
685.09	42920.74
685.23	42199.86
685.37	41947.08
685.50	42012.62
685.64	41975.17
685.78	42391.78
685.91	41607.70
686.05	41684.94
686.19	41015.55
686.32	41074.06
686.46	41130.23
686.60	40657.45
686.73	40683.19
686.87	40725.32
687.01	40989.80
687.14	40835.33
687.28	40463.18
687.42	40163.59
687.55	40123.80
687.69	40355.52
687.82	39842.94
687.96	39730.59
688.10	39229.72
688.23	39702.51
688.37	39208.65
688.50	38717.14
688.64	38590.75
688.78	39019.07
688.91	38419.89
689.05	38677.35
689.18	38443.30
689.32	37404.10
689.46	37612.41
689.59	37574.96
689.73	37425.17
689.86	37338.57
690.00	37085.79
690.13	37270.69
690.27	37102.17
690.41	37638.15
690.54	37071.75
690.68	36524.06
690.81	36641.09
690.95	35974.03
691.08	36273.62
691.22	35629.98
691.35	35571.46
691.49	35683.81
691.62	35768.07
691.76	35101.01
691.89	35253.15
692.03	35503.59
692.16	34913.77
692.30	34944.20
692.43	35133.78
692.57	34534.60
692.70	34272.46
692.84	34937.18
692.97	34682.06
693.11	34345.02
693.24	34017.35
693.38	34003.30
693.51	33411.15
693.65	33511.79
693.78	33511.79
693.92	33277.74
694.05	32875.16
694.19	33141.99
694.32	32582.60
694.45	32500.68
694.59	32858.78
694.72	32610.68
694.86	32411.74
694.99	32070.02
695.13	31648.72
695.26	31386.58
695.39	31552.76
695.53	31791.50
695.66	31505.95
695.80	31552.76
695.93	30834.22
696.07	30707.83
696.20	30295.89
696.33	30401.22
696.47	30766.34
696.60	30560.37
696.73	30139.08
696.87	30026.73
697.00	30139.08
697.14	30139.08
697.27	29818.42
697.40	29406.49
697.54	29523.52
697.67	29212.23
697.80	28914.98
697.94	28781.57
698.07	28596.67
698.21	28790.93
698.34	28989.88
698.47	28577.94
698.61	27967.06
698.74	28465.60
698.87	28367.29
699.01	27789.18
699.14	28088.77
699.27	27847.69
699.40	27913.23
699.54	27978.76
699.67	27332.78
699.80	27297.67
699.94	26794.45
700.07	27470.87
700.20	26780.41
700.34	26757.00
700.47	26160.17
700.60	26209.32
700.73	26422.31
700.87	25603.12
701.00	25453.33
701.13	25659.29
701.26	25429.92
701.40	25916.75
701.53	25671.00
701.66	25671.00
701.79	25151.40
701.93	24769.89
702.06	24926.71
702.19	24980.54
702.32	25041.39
702.46	24797.98
702.59	24334.55
702.72	24269.01
702.85	24531.15
702.99	24617.75
703.12	24023.26
703.25	24060.71
703.38	23686.22
703.51	23470.89
703.65	23421.74
703.78	23248.54
703.91	22920.87
704.04	23030.87
704.17	23293.01
704.31	22974.70
704.44	22696.17
704.57	22831.93
704.70	22515.95
704.83	21942.52
704.96	22354.46
705.10	22239.77
705.23	22307.65
>>>>>End Processed Spectral Data<<<<<
