SpectraSuite Data File
++++++++++++++++++++++++++++++++++++
Date: Fri Oct 25 11:22:29 EDT 2013
User: price-jones
Dark Spectrum Present: No
Reference Spectrum Present: No
Number of Sampled Component Spectra: 1
Spectrometers: USB2+H05261
Integration Time (usec): 100000 (USB2+H05261)
Spectra Averaged: 1 (USB2+H05261)
Boxcar Smoothing: 0 (USB2+H05261)
Correct for Electrical Dark: No (USB2+H05261)
Strobe/Lamp Enabled: No (USB2+H05261)
Correct for Detector Non-linearity: No (USB2+H05261)
Correct for Stray Light: No (USB2+H05261)
Number of Pixels in Processed Spectrum: 2048
>>>>>Begin Processed Spectral Data<<<<<
365.73	229.37
365.92	229.37
366.12	229.37
366.32	140.43
366.52	65.54
366.72	86.60
366.91	51.49
367.11	63.19
367.31	126.39
367.51	168.52
367.70	121.71
367.90	95.96
368.10	128.73
368.30	98.30
368.49	119.37
368.69	110.01
368.89	161.50
369.09	159.16
369.28	175.54
369.48	145.11
369.68	145.11
369.87	229.37
370.07	124.05
370.27	208.31
370.47	262.14
370.66	533.64
370.86	664.71
371.06	629.60
371.25	727.91
371.45	601.52
371.65	650.67
371.84	674.07
372.04	725.57
372.24	786.42
372.44	627.26
372.63	770.04
372.83	725.57
373.03	641.31
373.22	711.52
373.42	781.74
373.62	809.83
373.81	809.83
374.01	814.51
374.21	788.76
374.40	772.38
374.60	887.06
374.79	863.66
374.99	795.78
375.19	856.64
375.38	880.04
375.58	755.99
375.78	807.48
375.97	851.96
376.17	898.77
376.37	763.01
376.56	894.08
376.76	875.36
376.95	898.77
377.15	880.04
377.35	910.47
377.54	915.15
377.74	896.43
377.93	947.92
378.13	910.47
378.33	924.51
378.52	945.58
378.72	933.87
378.91	968.98
379.11	943.24
379.31	1004.09
379.50	882.38
379.70	1001.75
379.89	954.94
380.09	950.26
380.28	1004.09
380.48	968.98
380.68	919.83
380.87	1064.94
381.07	1046.22
381.26	994.73
381.46	1015.79
381.65	1071.97
381.85	1020.47
382.04	1081.33
382.24	1020.47
382.43	1071.97
382.63	997.07
382.83	1036.86
383.02	1055.58
383.22	1153.88
383.41	1039.20
383.61	1067.28
383.80	1172.61
384.00	1139.84
384.19	1109.41
384.39	1057.92
384.58	1121.12
384.78	1156.22
384.97	1057.92
385.17	1163.25
385.36	1172.61
385.56	1170.27
385.75	1060.26
385.95	1200.69
386.14	1235.80
386.34	1188.99
386.53	1191.33
386.72	1198.35
386.92	1254.53
387.11	1203.04
387.31	1280.27
387.50	1240.48
387.70	1245.16
387.89	1238.14
388.09	1235.80
388.28	1261.55
388.48	1277.93
388.67	1416.02
388.86	1341.13
389.06	1294.32
389.25	1310.70
389.45	1334.11
389.64	1327.08
389.84	1373.89
390.03	1373.89
390.22	1364.53
390.42	1350.49
390.61	1399.64
390.81	1427.73
391.00	1462.83
391.19	1430.07
391.39	1488.58
391.58	1329.42
391.78	1544.75
391.97	1467.52
392.16	1472.20
392.36	1514.33
392.55	1530.71
392.75	1591.56
392.94	1530.71
393.13	1558.80
393.33	1610.29
393.52	1526.03
393.71	1570.50
393.91	1621.99
394.10	1549.43
394.29	1629.01
394.49	1638.38
394.68	1643.06
394.88	1610.29
395.07	1685.19
395.26	1678.16
395.46	1809.23
395.65	1664.12
395.84	1685.19
396.04	1722.63
396.23	1741.36
396.42	1746.04
396.62	1757.74
396.81	1813.92
397.00	1797.53
397.19	1778.81
397.39	1881.79
397.58	1914.56
397.77	1827.96
397.97	1954.35
398.16	1902.86
398.35	1788.17
398.55	1919.24
398.74	1832.64
398.93	2022.22
399.12	1933.28
399.32	1865.41
399.51	1863.07
399.70	1961.37
399.90	1973.07
400.09	2010.52
400.28	1994.14
400.47	2108.82
400.67	1982.43
400.86	2076.06
401.05	2090.10
401.24	2153.29
401.44	2129.89
401.63	2195.42
401.82	2136.91
402.01	2120.53
402.21	2155.63
402.40	2193.08
402.59	2165.00
402.78	2260.96
402.97	2340.54
403.17	2293.72
403.36	2331.17
403.55	2333.51
403.74	2340.54
403.93	2399.05
404.13	2429.48
404.32	2382.67
404.51	2431.82
404.70	2466.92
404.89	2445.86
405.09	2495.01
405.28	2513.74
405.47	2513.74
405.66	2546.50
405.85	2455.22
406.05	2480.97
406.24	2630.76
406.43	2581.61
406.62	2590.97
406.81	2658.85
407.00	2630.76
407.20	2619.06
407.39	2640.12
407.58	2775.88
407.77	2738.43
407.96	2860.13
408.15	2785.24
408.34	2815.66
408.54	2864.82
408.73	2757.15
408.92	2829.71
409.11	2963.12
409.30	2841.41
409.49	2974.82
409.68	2935.03
409.87	3028.65
410.07	3080.14
410.26	3054.40
410.45	3059.08
410.64	3042.70
410.83	3185.47
411.02	3080.14
411.21	3159.72
411.40	3201.85
411.59	3150.36
411.78	3269.73
411.98	3269.73
412.17	3335.26
412.36	3421.86
412.55	3358.67
412.74	3372.71
412.93	3393.78
413.12	3410.16
413.31	3754.22
413.50	3524.85
413.69	3592.72
413.88	3627.83
414.07	3592.72
414.26	3506.12
414.45	3721.45
414.64	3660.60
414.83	3726.13
415.02	3990.61
415.22	3819.75
415.41	3815.07
415.60	3889.97
415.79	3859.54
415.98	4166.15
416.17	4121.68
416.36	3964.87
416.55	3896.99
416.74	4030.40
416.93	4070.19
417.12	4166.15
417.31	4156.79
417.50	4287.86
417.69	4360.42
417.88	4318.29
418.07	4189.56
418.26	4432.97
418.45	4269.14
418.64	4437.66
418.83	4636.60
419.02	4358.08
419.21	4671.71
419.39	4550.00
419.58	4482.13
419.77	4440.00
419.96	4550.00
420.15	4636.60
420.34	4713.84
420.53	4620.22
420.72	4760.65
420.91	4674.05
421.10	4840.23
421.29	4905.76
421.48	4713.84
421.67	4940.87
421.86	4770.01
422.05	4840.23
422.24	4823.84
422.43	5027.47
422.61	5060.24
422.80	5085.98
422.99	4990.02
423.18	4999.38
423.37	4959.60
423.56	4903.42
423.75	5093.01
423.94	4940.87
424.13	4777.03
424.32	4730.22
424.50	5048.54
424.69	5200.67
424.88	5163.22
425.07	5050.88
425.26	4994.70
425.45	4987.68
425.64	5039.17
425.83	4936.19
426.01	5114.07
426.20	5181.95
426.39	5060.24
426.58	5210.03
426.77	4990.02
426.96	5200.67
427.15	5270.89
427.33	5357.49
427.52	5170.24
427.71	5186.63
427.90	5345.78
428.09	5479.19
428.28	5453.45
428.46	5233.44
428.65	5397.28
428.84	5561.11
429.03	5640.69
429.22	5561.11
429.40	5451.11
429.59	5493.24
429.78	5280.25
429.97	5366.85
430.16	5408.98
430.34	5556.43
430.53	5832.62
430.72	5694.52
430.91	5703.89
431.10	5636.01
431.28	5659.42
431.47	6008.16
431.66	5870.06
431.85	5851.34
432.03	6008.16
432.22	6031.56
432.41	5996.45
432.60	6012.84
432.79	6085.39
432.97	6045.60
433.16	6012.84
433.35	5916.87
433.54	6092.41
433.72	6200.08
433.91	6326.47
434.10	6307.74
434.28	6204.76
434.47	6317.11
434.66	6113.48
434.85	6286.68
435.03	6382.64
435.22	6326.47
435.41	6707.98
435.59	6382.64
435.78	6452.86
435.97	6590.95
436.16	6347.53
436.34	6558.18
436.53	6628.40
436.72	6782.87
436.90	6602.65
437.09	6731.38
437.28	6693.93
437.46	6600.31
437.65	6789.89
437.84	6780.53
438.02	6801.60
438.21	6862.45
438.40	6867.13
438.58	7213.53
438.77	7089.48
438.96	6932.67
439.14	7171.40
439.33	7225.23
439.52	7208.85
439.70	7384.39
439.89	7311.83
440.08	7524.82
440.26	7719.09
440.45	7410.14
440.63	7463.97
440.82	7868.88
441.01	7609.08
441.19	7545.89
441.38	7850.16
441.57	7585.68
441.75	7981.23
441.94	8205.92
442.12	8250.39
442.31	7995.27
442.50	8121.66
442.68	8025.70
442.87	8133.36
443.05	8250.39
443.24	8238.69
443.43	8400.18
443.61	8243.37
443.80	8461.04
443.98	8053.78
444.17	8023.36
444.35	8369.76
444.54	8545.30
444.73	8327.63
444.91	8439.97
445.10	8613.17
445.28	8177.83
445.47	8390.82
445.65	8704.45
445.84	8390.82
446.02	8500.83
446.21	8496.14
446.39	8498.49
446.58	8423.59
446.77	8762.97
446.95	8222.30
447.14	8552.32
447.32	8613.17
447.51	8606.15
447.69	8772.33
447.88	8762.97
448.06	8713.81
448.25	8477.42
448.43	8582.74
448.62	8837.86
448.80	8758.28
448.99	8732.54
449.17	8746.58
449.36	8664.66
449.54	9083.62
449.73	9011.06
449.91	9291.93
450.10	9085.96
450.28	9156.18
450.46	9217.03
450.65	9247.46
450.83	9195.96
451.02	9151.49
451.20	9371.50
451.39	9432.36
451.57	9364.48
451.76	9277.88
451.94	9282.56
452.13	9406.61
452.31	9432.36
452.49	9228.73
452.68	9547.05
452.86	9474.49
453.05	9315.33
453.23	9518.96
453.42	9476.83
453.60	9488.53
453.78	9696.84
453.97	9530.66
454.15	9692.16
454.34	9542.36
454.52	9753.01
454.70	9895.78
454.89	9973.02
455.07	9769.40
455.26	9935.57
455.44	10071.33
455.62	10024.51
455.81	10120.48
455.99	10092.39
456.17	10373.25
456.36	9944.94
456.54	10225.80
456.73	10539.43
456.91	10752.42
457.09	10518.37
457.28	10710.29
457.46	10658.80
457.64	10630.71
457.83	10609.65
458.01	10590.92
458.19	10824.98
458.38	10719.65
458.56	10836.68
458.74	10527.73
458.93	10799.23
459.11	10925.62
459.29	10810.93
459.48	10890.51
459.66	11068.39
459.84	10944.34
460.03	11295.43
460.21	10977.11
460.39	11239.25
460.57	11061.37
460.76	11232.23
460.94	11250.96
461.12	11157.33
461.31	11281.38
461.49	11302.45
461.67	11400.75
461.85	11761.19
462.04	11426.50
462.22	11550.54
462.40	11730.76
462.59	11646.51
462.77	11587.99
462.95	11838.43
463.13	11690.98
463.32	11723.74
463.50	11974.18
463.68	12128.66
463.86	12013.97
464.05	11660.55
464.23	12037.38
464.41	12163.76
464.59	11782.26
464.78	12276.11
464.96	12224.62
465.14	12102.91
465.32	12262.07
465.50	12355.69
465.69	12273.77
465.87	12215.26
466.05	12400.16
466.23	12313.56
466.41	12414.20
466.60	12816.77
466.78	12456.33
466.96	12311.22
467.14	12439.95
467.32	12685.70
467.51	12671.66
467.69	12372.07
467.87	12416.54
468.05	13046.15
468.23	12592.08
468.41	12409.52
468.60	12638.89
468.78	12830.82
468.96	13001.68
469.14	13057.85
469.32	13371.48
469.50	12877.63
469.69	13081.25
469.87	13233.39
470.05	13205.30
470.23	13144.45
470.41	13247.43
470.59	13521.27
470.77	13390.20
470.95	13635.96
471.14	13881.72
471.32	13523.62
471.50	13717.88
471.68	13692.13
471.86	13736.60
472.04	13970.66
472.22	14015.13
472.40	14111.09
472.58	14113.43
472.77	14239.82
472.95	14120.45
473.13	14675.16
473.31	14223.44
473.49	14272.59
473.67	14300.67
473.85	14654.09
474.03	14822.61
474.21	14771.12
474.39	15012.20
474.57	14822.61
474.75	15059.01
474.93	14946.66
475.12	15264.97
475.30	15213.48
475.48	15066.03
475.66	15344.55
475.84	15339.87
476.02	15625.42
476.20	15566.90
476.38	15955.43
476.56	16072.46
476.74	16147.36
476.92	16252.68
477.10	16030.33
477.28	16133.31
477.46	16201.19
477.64	16458.65
477.82	16842.50
478.00	17055.48
478.18	17160.81
478.36	17146.76
478.54	17324.65
478.72	17544.66
478.90	17717.86
479.08	18019.78
479.26	17858.29
479.44	17886.37
479.62	18017.44
479.80	18260.86
479.98	18155.54
480.16	18677.48
480.34	18822.59
480.52	18951.32
480.70	18899.83
480.88	18764.07
481.06	19339.85
481.24	19309.42
481.41	19286.01
481.59	19517.73
481.77	19761.14
481.95	19882.85
482.13	20037.33
482.31	19976.47
482.49	20601.40
482.67	20620.12
482.85	20568.63
483.03	20788.64
483.21	21036.74
483.39	21029.71
483.57	20964.18
483.74	21551.65
483.92	21722.51
484.10	21451.01
484.28	22057.21
484.46	22120.40
484.64	22719.58
484.82	22363.82
485.00	22892.78
485.18	23021.51
485.35	23309.40
485.53	23131.51
485.71	23431.10
485.89	23709.63
486.07	23573.88
486.25	23824.31
486.43	23967.09
486.61	24137.94
486.78	24285.40
486.96	24332.21
487.14	25104.59
487.32	25032.03
487.50	25099.90
487.68	25301.19
487.85	25621.84
488.03	26192.94
488.21	26377.84
488.39	26211.66
488.57	26199.96
488.75	26735.94
488.92	26871.69
489.10	26881.05
489.28	27363.20
489.46	27358.52
489.64	27522.36
489.81	28168.35
489.99	27981.10
490.17	28018.55
490.35	28606.03
490.53	28889.23
490.70	28631.77
490.88	28886.89
491.06	29202.86
491.24	29008.60
491.41	29125.63
491.59	29448.62
491.77	29369.04
491.95	30361.43
492.13	30089.93
492.30	30412.92
492.48	30188.23
492.66	30632.93
492.84	30876.35
493.01	31342.11
493.19	31393.61
493.37	31604.25
493.54	31330.41
493.72	31707.24
493.90	31583.19
494.08	32098.11
494.25	32716.01
494.43	32074.70
494.61	32474.93
494.79	32673.88
494.96	32828.35
495.14	33275.40
495.32	33692.01
495.49	33769.25
495.67	33479.02
495.85	34483.11
496.02	34256.08
496.20	34672.70
496.38	34288.85
496.55	34614.18
496.73	35175.91
496.91	35222.72
497.09	35290.60
497.26	35091.65
497.44	35168.89
497.62	35931.90
497.79	36196.38
497.97	35716.58
498.14	36442.14
498.32	36800.24
498.50	36638.75
498.67	37207.50
498.85	36617.68
499.03	37296.44
499.20	37273.03
499.38	37565.60
499.56	37432.19
499.73	37886.25
499.91	37741.14
500.08	38300.53
500.26	37694.33
500.44	37881.57
500.61	38286.48
500.79	38022.00
500.97	38440.96
501.14	38925.45
501.32	39175.89
501.49	39257.81
501.67	39257.81
501.84	39634.63
502.02	39496.54
502.20	39538.67
502.37	39615.91
502.55	39660.38
502.72	39845.28
502.90	39903.79
503.07	39861.66
503.25	40392.97
503.43	40467.86
503.60	40385.94
503.78	40774.47
503.95	40870.43
504.13	41069.38
504.30	40942.99
504.48	40856.39
504.65	41518.76
504.83	41605.36
505.01	41851.12
505.18	41478.97
505.36	42391.78
505.53	42033.68
505.71	41790.27
505.88	41956.44
506.06	42082.83
506.23	42590.73
506.41	42335.61
506.58	42792.01
506.76	42665.63
506.93	42997.98
507.11	42810.74
507.28	43009.68
507.46	43175.86
507.63	43302.25
507.81	43405.23
507.98	43379.49
508.16	43894.41
508.33	43992.71
508.50	44151.87
508.68	43938.88
508.85	44549.76
509.03	44308.68
509.20	44612.95
509.38	44783.81
509.55	44903.18
509.73	44619.97
509.90	45200.43
510.08	44687.85
510.25	45539.80
510.42	45212.13
510.60	45923.65
510.77	45998.55
510.95	46099.19
511.12	45881.52
511.30	45652.15
511.47	45895.56
511.64	45762.15
511.82	46286.43
511.99	46487.72
512.17	46202.18
512.34	46335.59
512.51	46564.96
512.69	46930.08
512.86	46852.84
513.04	47292.86
513.21	47173.50
513.38	47386.49
513.56	47634.58
513.73	47173.50
513.90	47653.31
514.08	47753.95
514.25	47545.64
514.43	47966.94
514.60	48062.90
514.77	47824.17
514.95	48491.22
515.12	48222.06
515.29	47880.34
515.47	48102.69
515.64	48662.08
515.81	48486.54
515.99	48706.55
516.16	48816.55
516.33	48987.41
516.51	49382.96
516.68	49001.46
516.85	49179.34
517.03	49612.34
517.20	49350.20
517.37	49425.09
517.54	49462.54
517.72	49619.36
517.89	49675.53
518.06	49787.88
518.24	49815.96
518.41	49755.11
518.58	50106.19
518.75	50045.33
518.93	49904.90
519.10	49762.13
519.27	50227.90
519.45	49963.42
519.62	50543.87
519.79	50129.59
519.96	50504.08
520.14	50569.61
520.31	50487.70
520.48	50677.28
520.65	51040.06
520.83	51035.38
521.00	51323.27
521.17	50941.76
521.34	51063.47
521.52	51262.41
521.69	51358.38
521.86	51667.33
522.03	51416.89
522.20	51973.94
522.38	51601.79
522.55	51786.69
522.72	51887.34
522.89	52137.77
523.07	52065.22
523.24	51842.87
523.41	52233.74
523.58	51948.19
523.75	52491.19
523.92	52147.14
524.10	52622.26
524.27	52460.77
524.44	52552.05
524.61	52657.37
524.78	52715.89
524.96	52594.18
525.13	52538.01
525.30	52678.44
525.47	52797.80
525.64	52928.87
525.81	53155.91
525.98	53139.52
526.16	53015.47
526.33	53251.87
526.50	53418.05
526.67	53183.99
526.84	53275.27
527.01	53176.97
527.18	53237.83
527.36	53301.02
527.53	53427.41
527.70	53876.79
527.87	53626.35
528.04	53619.33
528.21	53631.04
528.38	53626.35
528.55	54078.08
528.72	53860.41
528.89	53902.54
529.07	53853.39
529.24	53991.48
529.41	54089.78
529.58	53975.09
529.75	53867.43
529.92	54403.41
530.09	54148.29
530.26	54408.09
530.43	54457.24
530.60	54096.80
530.77	54333.20
530.94	54274.68
531.11	54382.35
531.28	54433.84
531.46	54560.23
531.63	54677.25
531.80	54590.66
531.97	54763.85
532.14	54981.52
532.31	54925.35
532.48	54885.56
532.65	55264.73
532.82	54831.73
532.99	54869.18
533.16	54918.33
533.33	55304.52
533.50	55248.35
533.67	55316.22
533.84	55402.82
534.01	55330.26
534.18	55168.77
534.35	55650.92
534.52	55461.33
534.69	55468.36
534.86	55489.42
535.03	55271.75
535.20	55543.25
535.37	55688.37
535.54	55643.90
535.71	55402.82
535.88	55964.55
536.05	55913.06
536.22	56144.77
536.38	55962.21
536.55	55945.83
536.72	55997.32
536.89	55693.05
537.06	56039.45
537.23	55786.67
537.40	55945.83
537.57	55997.32
537.74	56348.40
537.91	56240.73
538.08	56217.33
538.25	55950.51
538.42	56100.30
538.59	56278.18
538.75	56278.18
538.92	56268.82
539.09	56692.46
539.26	56449.04
539.43	56437.34
539.60	56741.61
539.77	56673.73
539.94	56788.42
540.11	56673.73
540.28	56598.83
540.44	56741.61
540.61	56704.16
540.78	56650.33
540.95	56631.60
541.12	56753.31
541.29	56762.67
541.46	56797.78
541.62	56956.94
541.79	56952.26
541.96	56631.60
542.13	56978.00
542.30	57279.93
542.47	57190.99
542.63	57195.67
542.80	57357.17
542.97	57418.02
543.14	57539.73
543.31	57638.03
543.48	57464.83
543.64	57670.80
543.81	57385.25
543.98	57694.21
544.15	57560.79
544.32	57797.19
544.48	58059.33
544.65	57804.21
544.82	57858.04
544.99	57663.78
545.16	57937.62
545.32	57703.57
545.49	58223.17
545.66	58155.29
545.83	57881.45
546.00	58204.44
546.16	58017.20
546.33	57787.83
546.50	57813.57
546.67	58181.04
546.83	57645.05
547.00	58169.33
547.17	58087.42
547.34	58258.27
547.50	58206.78
547.67	58475.94
547.84	58356.58
548.00	58518.07
548.17	58599.99
548.34	58480.63
548.51	58433.81
548.67	58602.33
548.84	58468.92
549.01	58431.47
549.18	58522.76
549.34	58651.48
549.51	58742.77
549.68	58646.80
549.84	58656.17
550.01	58829.37
550.18	58632.76
550.34	58843.41
550.51	58911.28
550.68	58904.26
550.84	58646.80
551.01	58995.54
551.18	58925.33
551.34	59018.95
551.51	58979.16
551.68	59070.44
551.84	58796.60
552.01	58808.30
552.18	58880.86
552.34	58915.96
552.51	59023.63
552.68	58705.32
552.84	58829.37
553.01	59264.70
553.18	59152.36
553.34	59070.44
553.51	59054.06
553.67	59143.00
553.84	59278.75
554.01	59260.02
554.17	59250.66
554.34	59316.20
554.51	59166.40
554.67	59288.11
554.84	59444.93
555.00	59147.68
555.17	59309.18
555.33	59454.29
555.50	59262.36
555.67	59353.65
555.83	59421.52
556.00	59433.22
556.16	59723.45
556.33	59632.17
556.50	59461.31
556.66	59576.00
556.83	59613.44
556.99	59688.34
557.16	59765.58
557.32	59793.67
557.49	59898.99
557.65	59618.13
557.82	59688.34
557.98	59653.23
558.15	59763.24
558.32	59742.17
558.48	59721.11
558.65	59889.63
558.81	59889.63
558.98	60048.78
559.14	59889.63
559.31	59704.73
559.47	59880.27
559.64	60013.68
559.80	60020.70
559.97	59976.23
560.13	59770.26
560.30	60109.64
560.46	60140.07
560.63	60107.30
560.79	60126.02
560.96	60193.90
561.12	60034.74
561.29	60076.87
561.45	60135.38
561.61	60100.28
561.78	60107.30
561.94	60207.94
562.11	60046.44
562.27	60191.56
562.44	60229.01
562.60	60214.96
562.77	60137.72
562.93	60149.43
563.10	60374.12
563.26	60074.53
563.42	60488.80
563.59	60226.66
563.75	60280.50
563.92	60371.78
564.08	60144.75
564.24	60402.21
564.41	60453.70
564.57	60409.23
564.74	60465.40
564.90	60402.21
565.07	60397.52
565.23	60381.14
565.39	60306.24
565.56	60395.18
565.72	60392.84
565.88	60608.17
566.05	60413.91
566.21	60434.97
566.38	60683.07
566.54	60601.15
566.70	60580.09
566.87	60605.83
567.03	60498.17
567.19	60687.75
567.36	60425.61
567.52	60512.21
567.68	60842.23
567.85	60617.53
568.01	60750.94
568.17	60570.72
568.34	60638.60
568.50	60472.42
568.66	60577.75
568.83	60664.35
568.99	60537.96
569.15	60659.66
569.32	60694.77
569.48	60788.39
569.64	60907.76
569.81	60879.67
569.97	60631.58
570.13	60828.18
570.30	60598.81
570.46	60669.03
570.62	60816.48
570.78	60828.18
570.95	60987.34
571.11	60952.23
571.27	60882.02
571.43	60750.94
571.60	60893.72
571.76	60900.74
571.92	60828.18
572.09	60851.59
572.25	61048.19
572.41	60741.58
572.57	60832.86
572.74	61153.52
572.90	60931.17
573.06	61041.17
573.22	60835.20
573.38	60982.66
573.55	60889.04
573.71	61160.54
573.87	61043.51
574.03	60933.51
574.20	60924.14
574.36	61027.13
574.52	61048.19
574.68	60994.36
574.84	60921.80
575.01	61113.73
575.17	60788.39
575.33	61071.60
575.49	61001.38
575.65	61214.37
575.82	61132.45
575.98	61092.66
576.14	61258.84
576.30	61045.85
576.46	61162.88
576.62	61069.26
576.79	61207.35
576.95	61052.87
577.11	61230.75
577.27	61055.21
577.43	61059.90
577.59	61085.64
577.75	61162.88
577.92	61125.43
578.08	61174.58
578.24	61111.39
578.40	61240.12
578.56	61286.93
578.72	61258.84
578.88	61209.69
579.04	61233.10
579.21	61322.04
579.37	61137.13
579.53	61347.78
579.69	61162.88
579.85	61132.45
580.01	61132.45
580.17	60999.04
580.33	61282.25
580.49	61333.74
580.65	61296.29
580.82	61083.30
580.98	61188.63
581.14	61104.37
581.30	61263.52
581.46	61235.44
581.62	61247.14
581.78	61174.58
581.94	61254.16
582.10	61137.13
582.26	61291.61
582.42	61305.65
582.58	61312.67
582.74	61205.01
582.90	61181.60
583.06	61247.14
583.22	60956.91
583.38	61497.58
583.54	61300.97
583.70	61319.70
583.86	61186.28
584.02	61162.88
584.18	61485.87
584.34	61048.19
584.50	61242.46
584.66	61013.08
584.82	61085.64
584.98	61460.13
585.14	61380.55
585.30	61179.26
585.46	61352.46
585.62	61226.07
585.78	61439.06
585.94	61148.84
586.10	61300.97
586.26	61368.85
586.42	61455.45
586.58	61450.77
586.74	61329.06
586.90	61401.61
587.06	61347.78
587.22	61455.45
587.38	61293.95
587.54	61492.89
587.70	61530.34
587.86	61284.59
588.02	61591.20
588.18	61556.09
588.34	61375.87
588.49	61317.35
588.65	61219.05
588.81	61450.77
588.97	61460.13
589.13	61247.14
589.29	61485.87
589.45	61511.62
589.61	61694.18
589.77	61605.24
589.93	61506.94
590.08	61586.52
590.24	61745.67
590.40	61635.67
590.56	61825.25
590.72	61799.50
590.88	61502.26
591.04	61586.52
591.20	61836.95
591.35	62087.39
591.51	61820.57
591.67	61705.88
591.83	61736.31
591.99	61677.80
592.15	61584.18
592.31	61556.09
592.46	61577.15
592.62	61729.29
592.78	61715.25
592.94	61900.15
593.10	61825.25
593.26	61801.85
593.41	61865.04
593.57	61939.94
593.73	61750.35
593.89	61951.64
594.05	61736.31
594.20	61914.19
594.36	61925.89
594.52	61876.74
594.68	61715.25
594.84	61710.56
594.99	61813.55
595.15	61832.27
595.31	61921.21
595.47	61811.21
595.62	61701.20
595.78	61743.33
595.94	61848.66
596.10	62066.33
596.25	61909.51
596.41	62024.20
596.57	61953.98
596.73	61832.27
596.88	61874.40
597.04	61872.06
597.20	61883.76
597.36	62007.81
597.51	62080.37
597.67	61942.28
597.83	61827.59
597.99	61953.98
598.14	61841.63
598.30	62033.56
598.46	61991.43
598.61	62000.79
598.77	61815.89
598.93	61986.75
599.09	62019.52
599.24	62122.50
599.40	62239.53
599.56	62113.14
599.71	61984.41
599.87	62063.99
600.03	61989.09
600.18	61808.87
600.34	61914.19
600.50	62059.30
600.65	62110.80
600.81	62117.82
600.97	61930.58
601.12	62127.18
601.28	61829.93
601.44	62061.64
601.59	62122.50
601.75	61986.75
601.91	62120.16
602.06	62071.01
602.22	62101.43
602.37	61876.74
602.53	62049.94
602.69	62049.94
602.84	61703.54
603.00	62085.05
603.16	62017.17
603.31	62101.43
603.47	62089.73
603.62	62188.03
603.78	62150.59
603.94	61968.02
604.09	62092.07
604.25	62045.26
604.40	61925.89
604.56	61977.39
604.71	62337.83
604.87	61883.76
605.03	61993.77
605.18	62148.24
605.34	62061.64
605.49	61932.92
605.65	62166.97
605.80	61979.73
605.96	62134.20
606.12	62363.57
606.27	62178.67
606.43	61818.23
606.58	62085.05
606.74	62000.79
606.89	61928.23
607.05	61946.96
607.20	62094.41
607.36	61883.76
607.51	61956.32
607.67	61780.78
607.82	61963.34
607.98	61914.19
608.13	61904.83
608.29	61984.41
608.44	61717.59
608.60	61790.14
608.75	61874.40
608.91	61724.61
609.06	61558.43
609.22	62155.27
609.37	61748.01
609.53	61923.55
609.68	61780.78
609.84	61921.21
609.99	62071.01
610.15	61872.06
610.30	62049.94
610.46	61911.85
610.61	61839.29
610.76	61705.88
610.92	61876.74
611.07	61909.51
611.23	62040.58
611.38	61939.94
611.54	61797.16
611.69	61921.21
611.84	62031.22
612.00	61766.74
612.15	61740.99
612.31	61951.64
612.46	61813.55
612.62	61813.55
612.77	61701.20
612.92	61708.22
613.08	61682.48
613.23	61726.95
613.39	61682.48
613.54	61504.60
613.69	61846.32
613.85	61673.12
614.00	61731.63
614.15	61745.67
614.31	61633.33
614.46	61759.72
614.62	61572.47
614.77	61771.42
614.92	61626.31
615.08	61748.01
615.23	61635.67
615.38	61726.95
615.54	61570.13
615.69	61652.05
615.84	61647.37
616.00	61666.09
616.15	61659.07
616.30	61827.59
616.46	61504.60
616.61	61656.73
616.76	61675.46
616.92	61474.17
617.07	61598.22
617.22	61394.59
617.37	61490.55
617.53	61691.84
617.68	61542.05
617.83	61694.18
617.99	61600.56
618.14	61471.83
618.29	61560.77
618.45	61254.16
618.60	61228.41
618.75	61254.16
618.90	61418.00
619.06	61420.34
619.21	61329.06
619.36	61574.81
619.51	61485.87
619.67	61270.54
619.82	61223.73
619.97	61382.89
620.12	61249.48
620.28	61317.35
620.43	61193.31
620.58	61380.55
620.73	61251.82
620.89	61169.90
621.04	61429.70
621.19	61153.52
621.34	61205.01
621.49	61167.56
621.65	61237.78
621.80	61471.83
621.95	61130.11
622.10	61261.18
622.25	61153.52
622.41	61160.54
622.56	61230.75
622.71	61102.03
622.86	60977.98
623.01	60891.38
623.16	61041.17
623.32	61303.31
623.47	61109.05
623.62	61006.06
623.77	61134.79
623.92	61020.11
624.07	61209.69
624.23	61296.29
624.38	61226.07
624.53	60825.84
624.68	61008.40
624.83	61095.00
624.98	60896.06
625.13	60760.31
625.29	61048.19
625.44	61008.40
625.59	60963.93
625.74	60736.90
625.89	60687.75
626.04	60580.09
626.19	60647.96
626.34	60865.63
626.49	60626.90
626.65	60694.77
626.80	60685.41
626.95	60650.30
627.10	60608.17
627.25	60622.22
627.40	60554.34
627.55	60514.55
627.70	60772.01
627.85	60584.77
628.00	60605.83
628.15	60853.93
628.30	60409.23
628.45	60327.31
628.60	60327.31
628.76	60568.38
628.91	60671.37
629.06	60493.49
629.21	60493.49
629.36	60467.74
629.51	60467.74
629.66	60488.80
629.81	60390.50
629.96	60252.41
630.11	60252.41
630.26	60308.58
630.41	60484.12
630.56	60331.99
630.71	60502.85
630.86	60355.39
631.01	60334.33
631.16	60254.75
631.31	60280.50
631.46	60100.28
631.61	60245.39
631.76	60257.09
631.91	60411.57
632.06	60441.99
632.21	60404.55
632.36	60191.56
632.51	59781.96
632.66	60250.07
632.81	60027.72
632.96	60371.78
633.10	60198.58
633.25	60186.88
633.40	60362.42
633.55	60097.94
633.70	59962.18
633.85	59929.42
634.00	60163.47
634.15	59934.10
634.30	60200.92
634.45	60142.41
634.60	60315.61
634.75	60252.41
634.90	59938.78
635.05	59798.35
635.19	60140.07
635.34	60186.88
635.49	59859.20
635.64	60163.47
635.79	60126.02
635.94	59917.71
636.09	59948.14
636.24	59564.29
636.39	59873.24
636.53	60130.70
636.68	59821.75
636.83	59840.48
636.98	60006.65
637.13	59793.67
637.28	59767.92
637.43	59674.30
637.57	59884.95
637.72	59641.53
637.87	59601.74
638.02	59561.95
638.17	59714.09
638.32	59688.34
638.46	59735.15
638.61	59721.11
638.76	59498.76
638.91	59409.82
639.06	59264.70
639.20	59559.61
639.35	59707.07
639.50	59346.62
639.65	59585.36
639.80	59449.61
639.94	59423.86
640.09	59608.76
640.24	59444.93
640.39	59428.54
640.54	59484.72
640.68	59662.60
640.83	59444.93
640.98	59458.97
641.13	59398.12
641.27	59749.20
641.42	59316.20
641.57	59126.61
641.72	59391.09
641.86	59262.36
642.01	59330.24
642.16	59061.08
642.31	59199.17
642.45	59386.41
642.60	59208.53
642.75	59395.77
642.90	59105.55
643.04	59288.11
643.19	59180.45
643.34	59021.29
643.48	59133.63
643.63	59229.60
643.78	59117.25
643.93	59152.36
644.07	58990.86
644.22	59065.76
644.37	58876.18
644.51	58939.37
644.66	59002.56
644.81	59030.65
644.95	58946.39
645.10	59063.42
645.25	59042.35
645.39	58932.35
645.54	58866.81
645.69	58890.22
645.83	58805.96
645.98	58702.98
646.13	58691.27
646.27	58967.46
646.42	58717.02
646.57	58866.81
646.71	58913.62
646.86	59030.65
647.00	58749.79
647.15	58780.21
647.30	58787.24
647.44	58731.06
647.59	58922.99
647.74	58808.30
647.88	58557.86
648.03	58976.82
648.17	58747.45
648.32	58368.28
648.47	58511.05
648.61	58571.91
648.76	58562.54
648.90	58499.35
649.05	58599.99
649.20	58595.31
649.34	58614.04
649.49	58597.65
649.63	58770.85
649.78	58829.37
649.92	58344.87
650.07	58649.14
650.21	58450.20
650.36	58452.54
650.51	58394.03
650.65	58632.76
650.80	58656.17
650.94	58223.17
651.09	58206.78
651.23	58122.52
651.38	58300.40
651.52	58152.95
651.67	58148.27
651.81	58410.41
651.96	58211.46
652.10	58225.51
652.25	58279.34
652.39	58197.42
652.54	57911.88
652.68	57968.05
652.83	58319.13
652.97	58277.00
653.12	58092.10
653.26	58094.44
653.41	58192.74
653.55	58185.72
653.70	58096.78
653.84	57946.98
653.99	58108.48
654.13	58026.56
654.27	57865.06
654.42	57776.12
654.56	58028.90
654.71	58017.20
654.85	58073.37
655.00	58038.26
655.14	58071.03
655.29	57935.28
655.43	57726.97
655.57	57682.50
655.72	57839.32
655.86	57694.21
656.01	57607.61
656.15	57846.34
656.30	57635.69
656.44	57946.98
656.58	57937.62
656.73	57937.62
656.87	58049.97
657.01	57897.83
657.16	57949.32
657.30	57553.77
657.45	57553.77
657.59	57638.03
657.73	57471.85
657.88	57551.43
658.02	57460.15
658.16	57574.84
658.31	57296.31
658.45	57518.67
658.60	57310.36
658.74	57621.65
658.88	57375.89
659.03	57425.04
659.17	57499.94
659.31	57174.61
659.46	57326.74
659.60	57261.21
659.74	57237.80
659.89	57066.94
660.03	57031.83
660.17	57195.67
660.32	57205.03
660.46	57113.75
660.60	56942.89
660.74	56914.81
660.89	57116.09
661.03	56711.18
661.17	56732.25
661.32	56877.36
661.46	56596.49
661.60	56760.33
661.74	56837.57
661.89	56706.50
662.03	56584.79
662.17	56746.29
662.31	56568.41
662.46	56708.84
662.60	56591.81
662.74	56577.77
662.88	56392.87
663.03	56294.56
663.17	56647.99
663.31	55990.30
663.45	56191.58
663.60	56020.72
663.74	55966.89
663.88	56030.08
664.02	56207.97
664.17	56343.72
664.31	56039.45
664.45	55917.74
664.59	55976.25
664.73	55936.46
664.88	56013.70
665.02	55583.04
665.16	55751.56
665.30	55625.17
665.44	55524.53
665.59	55739.86
665.73	55866.25
665.87	55339.63
666.01	55590.06
666.15	55330.26
666.29	55458.99
666.44	55515.17
666.58	55512.83
666.72	55360.69
666.86	55255.37
667.00	55194.51
667.14	54869.18
667.28	55243.66
667.43	55018.97
667.57	55274.09
667.71	54965.14
667.85	54897.27
667.99	54878.54
668.13	54915.99
668.27	54780.24
668.41	54883.22
668.56	54684.28
668.70	54962.80
668.84	55091.53
668.98	54475.97
669.12	54887.90
669.26	54719.38
669.40	54546.18
669.54	54527.46
669.68	54506.40
669.82	54017.22
669.96	54560.23
670.10	54272.34
670.25	54712.36
670.39	54344.90
670.53	54209.15
670.67	54218.51
670.81	54382.35
670.95	54328.52
671.09	53977.43
671.23	53872.11
671.37	54026.59
671.51	53801.89
671.65	54021.90
671.79	53708.27
671.93	53935.30
672.07	53396.98
672.21	53399.32
672.35	53181.65
672.49	52945.26
672.63	53055.26
672.77	53310.38
672.91	53319.74
673.05	52814.19
673.19	53066.97
673.33	52903.13
673.47	52659.71
673.61	53041.22
673.75	52664.39
673.89	52842.27
674.03	52701.84
674.17	52528.64
674.31	52243.10
674.45	52151.82
674.59	52062.88
674.73	52332.04
674.87	52240.76
675.01	51608.81
675.15	52229.05
675.29	52025.43
675.43	52058.20
675.56	51580.73
675.70	51435.61
675.84	51583.07
675.98	50497.06
676.12	51613.49
676.26	51657.96
676.40	51639.24
676.54	51299.86
676.68	51454.34
676.82	50487.70
676.96	50759.20
677.10	50501.74
677.23	50253.64
677.37	50323.86
677.51	50801.33
677.65	49851.07
677.79	49457.86
677.93	49574.89
678.07	49499.99
678.21	49191.04
678.34	49745.75
678.48	49167.63
678.62	49097.42
678.76	48989.75
678.90	49134.87
679.04	48793.15
679.18	49139.55
679.31	48500.58
679.45	48308.66
679.59	48556.75
679.73	48271.21
679.87	48191.63
680.00	47817.14
680.14	47812.46
680.28	48032.47
680.42	47849.91
680.56	47421.59
680.70	47161.79
680.83	47442.66
680.97	46651.56
681.11	47634.58
681.25	47423.93
681.39	47253.08
681.52	47058.81
681.66	46873.91
681.80	46932.42
681.94	46480.70
682.07	46492.40
682.21	46099.19
682.35	45727.05
682.49	45968.12
682.62	45820.67
682.76	45839.39
682.90	45633.42
683.04	45553.85
683.17	45514.06
683.31	45469.59
683.45	45111.49
683.59	45123.19
683.72	44376.56
683.86	44502.95
684.00	44720.62
684.13	44685.51
684.27	44016.11
684.41	43438.00
684.55	44083.99
684.68	43973.98
684.82	44402.30
684.96	43533.96
685.09	43672.06
685.23	43636.95
685.37	43068.20
685.50	42920.74
685.64	42707.76
685.78	42784.99
685.91	42649.24
686.05	42644.56
686.19	41748.14
686.32	41827.71
686.46	41209.81
686.60	41184.07
686.73	41233.22
686.87	41188.75
687.01	41574.94
687.14	41684.94
687.28	41193.43
687.42	40886.82
687.55	40451.48
687.69	40865.75
687.82	40711.28
687.96	40088.70
688.10	40058.27
688.23	39962.31
688.37	39817.19
688.50	39754.00
688.64	39601.86
688.78	39903.79
688.91	39131.42
689.05	38862.26
689.18	38660.97
689.32	38717.14
689.46	38391.81
689.59	37902.64
689.73	38022.00
689.86	38249.03
690.00	37759.86
690.13	37963.49
690.27	38078.18
690.41	37958.81
690.54	37303.46
690.68	36549.81
690.81	37184.09
690.95	36907.91
691.08	37041.32
691.22	37193.45
691.35	36343.84
691.49	36568.53
691.62	36505.34
691.76	36046.59
691.89	36128.51
692.03	35833.60
692.16	35735.30
692.30	35665.08
692.43	35557.42
692.57	35250.81
692.70	35234.42
692.84	35276.55
692.97	35061.22
693.11	35051.86
693.24	34796.74
693.38	34455.03
693.51	33596.05
693.65	34440.98
693.78	34066.50
693.92	33832.44
694.05	33977.56
694.19	33528.17
694.32	33895.64
694.45	33095.18
694.59	33366.68
694.72	32961.76
694.86	32811.97
694.99	32732.39
695.13	32264.28
695.26	32306.41
695.39	31800.86
695.53	31725.96
695.66	32023.21
695.80	31564.46
695.93	31711.92
696.07	31344.45
696.20	31033.16
696.33	30925.50
696.47	31005.08
696.60	31225.09
696.73	30871.67
696.87	31115.08
697.00	30506.54
697.14	30228.02
697.27	29827.79
697.40	30270.15
697.54	30155.46
697.67	30120.35
697.80	30331.00
697.94	29621.82
698.07	29542.24
698.21	29331.59
698.34	29139.67
698.47	29027.32
698.61	28538.15
698.74	28673.90
698.87	28535.81
699.01	28261.97
699.14	28311.12
699.27	28491.34
699.40	28428.15
699.54	28268.99
699.67	28187.07
699.80	27651.09
699.94	27644.07
700.07	27824.29
700.20	27358.52
700.34	27323.41
700.47	27246.18
700.60	26941.91
700.73	26794.45
700.87	26609.55
701.00	25893.35
701.13	26305.28
701.26	26256.13
701.40	26185.91
701.53	26061.87
701.66	26141.44
701.79	25977.61
701.93	25179.48
702.06	25064.80
702.19	25130.33
702.32	25151.40
702.46	25242.68
702.59	25095.22
702.72	25120.97
702.85	24596.69
702.99	24779.25
703.12	24421.15
703.25	24088.79
703.38	24376.68
703.51	24236.25
703.65	23894.53
703.78	23578.56
703.91	23515.36
704.04	23353.87
704.17	23782.18
704.31	23538.77
704.44	23190.03
704.57	22888.10
704.70	23073.00
704.83	22700.86
704.96	22635.32
705.10	22441.06
705.23	22319.35
>>>>>End Processed Spectral Data<<<<<
