SpectraSuite Data File
++++++++++++++++++++++++++++++++++++
Date: Fri Oct 25 10:48:07 EDT 2013
User: price-jones
Dark Spectrum Present: No
Reference Spectrum Present: No
Number of Sampled Component Spectra: 1
Spectrometers: USB2+H05261
Integration Time (usec): 100000 (USB2+H05261)
Spectra Averaged: 1 (USB2+H05261)
Boxcar Smoothing: 0 (USB2+H05261)
Correct for Electrical Dark: No (USB2+H05261)
Strobe/Lamp Enabled: No (USB2+H05261)
Correct for Detector Non-linearity: No (USB2+H05261)
Correct for Stray Light: No (USB2+H05261)
Number of Pixels in Processed Spectrum: 2048
>>>>>Begin Processed Spectral Data<<<<<
365.73	159.16
365.92	159.16
366.12	159.16
366.32	39.79
366.52	23.41
366.72	65.54
366.91	4.68
367.11	2.34
367.31	21.06
367.51	44.47
367.70	72.56
367.90	9.36
368.10	56.17
368.30	0.00
368.49	46.81
368.69	32.77
368.89	84.26
369.09	63.19
369.28	65.54
369.48	98.30
369.68	114.69
369.87	49.15
370.07	46.81
370.27	175.54
370.47	203.63
370.66	351.08
370.86	402.57
371.06	409.59
371.25	517.26
371.45	400.23
371.65	440.02
371.84	433.00
372.04	440.02
372.24	416.62
372.44	449.38
372.63	491.51
372.83	545.34
373.03	519.60
373.22	451.72
373.42	465.77
373.62	475.13
373.81	493.85
374.01	540.66
374.21	561.73
374.40	533.64
374.60	505.56
374.79	547.69
374.99	463.43
375.19	533.64
375.38	568.75
375.58	507.90
375.78	615.56
375.97	538.32
376.17	587.47
376.37	552.37
376.56	608.54
376.76	552.37
376.95	624.92
377.15	589.82
377.35	624.92
377.54	613.22
377.74	603.86
377.93	594.50
378.13	683.44
378.33	634.29
378.52	678.76
378.72	613.22
378.91	723.23
379.11	603.86
379.31	660.03
379.50	641.31
379.70	634.29
379.89	685.78
380.09	608.54
380.28	709.18
380.48	657.69
380.68	631.94
380.87	589.82
381.07	688.12
381.26	648.33
381.46	585.13
381.65	667.05
381.85	634.29
382.04	667.05
382.24	610.88
382.43	704.50
382.63	594.50
382.83	655.35
383.02	704.50
383.22	739.61
383.41	688.12
383.61	681.10
383.80	678.76
384.00	720.88
384.19	741.95
384.39	802.80
384.58	695.14
384.78	734.93
384.97	774.72
385.17	685.78
385.36	741.95
385.56	690.46
385.75	678.76
385.95	774.72
386.14	880.04
386.34	755.99
386.53	688.12
386.72	755.99
386.92	814.51
387.11	760.67
387.31	770.04
387.50	816.85
387.70	851.96
387.89	763.01
388.09	854.30
388.28	795.78
388.48	828.55
388.67	861.32
388.86	833.23
389.06	884.72
389.25	901.11
389.45	875.36
389.64	861.32
389.84	919.83
390.03	898.77
390.22	858.98
390.42	922.17
390.61	929.19
390.81	873.02
391.00	896.43
391.19	987.71
391.39	1013.45
391.58	1004.09
391.78	945.58
391.97	992.39
392.16	929.19
392.36	1046.22
392.55	999.41
392.75	990.05
392.94	973.66
393.13	929.19
393.33	929.19
393.52	957.28
393.71	1022.81
393.91	987.71
394.10	966.64
394.29	1020.47
394.49	1039.20
394.68	1090.69
394.88	1041.54
395.07	1118.78
395.26	1008.77
395.46	1076.65
395.65	1118.78
395.84	1074.31
396.04	1114.10
396.23	1088.35
396.42	1153.88
396.62	1130.48
396.81	1034.52
397.00	1156.22
397.19	1198.35
397.39	1191.33
397.58	1224.10
397.77	1193.67
397.97	1240.48
398.16	1235.80
398.35	1296.66
398.55	1240.48
398.74	1329.42
398.93	1378.58
399.12	1320.06
399.32	1259.21
399.51	1221.76
399.70	1359.85
399.90	1345.81
400.09	1383.26
400.28	1329.42
400.47	1362.19
400.67	1324.74
400.86	1423.05
401.05	1460.49
401.24	1394.96
401.44	1404.32
401.63	1554.12
401.82	1495.60
402.01	1343.47
402.21	1523.69
402.40	1432.41
402.59	1474.54
402.78	1437.09
402.97	1486.24
403.17	1638.38
403.36	1535.39
403.55	1561.14
403.74	1533.05
403.93	1626.67
404.13	1591.56
404.32	1689.87
404.51	1504.96
404.70	1624.33
404.89	1626.67
405.09	1795.19
405.28	1722.63
405.47	1692.21
405.66	1650.08
405.85	1722.63
406.05	1783.49
406.24	1797.53
406.43	1846.68
406.62	1905.20
406.81	1771.79
407.00	1706.25
407.20	1818.60
407.39	1832.64
407.58	1860.73
407.77	1846.68
407.96	1874.77
408.15	1872.43
408.34	1933.28
408.54	2052.65
408.73	1989.46
408.92	1970.73
409.11	1989.46
409.30	1994.14
409.49	1975.41
409.68	1898.17
409.87	2167.34
410.07	2066.69
410.26	2106.48
410.45	2012.86
410.64	1949.67
410.83	2019.88
411.02	2188.40
411.21	2176.70
411.40	2181.38
411.59	2232.87
411.78	2258.62
411.98	2150.95
412.17	2436.50
412.36	2356.92
412.55	2340.54
412.74	2387.35
412.93	2333.51
413.12	2361.60
413.31	2555.86
413.50	2370.96
413.69	2469.27
413.88	2487.99
414.07	2607.36
414.26	2485.65
414.45	2534.80
414.64	2649.49
414.83	2574.59
415.02	2588.63
415.22	2647.15
415.41	2731.41
415.60	2787.58
415.79	2719.70
415.98	2843.75
416.17	2885.88
416.36	2773.53
416.55	2843.75
416.74	2942.05
416.93	2890.56
417.12	2780.56
417.31	2885.88
417.50	2829.71
417.69	3012.27
417.88	3082.49
418.07	2958.44
418.26	3066.10
418.45	3150.36
418.64	3192.49
418.83	3080.14
419.02	3183.13
419.21	3166.74
419.39	3183.13
419.58	3014.61
419.77	3171.43
419.96	3150.36
420.15	3276.75
420.34	3183.13
420.53	3255.69
420.72	3295.47
420.91	3260.37
421.10	3361.01
421.29	3279.09
421.48	3190.15
421.67	3297.81
421.86	3396.12
422.05	3281.43
422.24	3421.86
422.43	3349.31
422.61	3267.39
422.80	3515.48
422.99	3471.01
423.18	3445.27
423.37	3513.14
423.56	3478.04
423.75	3361.01
423.94	3391.44
424.13	3208.87
424.32	3377.39
424.50	3571.66
424.69	3520.17
424.88	3597.40
425.07	3363.35
425.26	3396.12
425.45	3391.44
425.64	3473.36
425.83	3424.20
426.01	3569.32
426.20	3517.83
426.39	3426.54
426.58	3548.25
426.77	3538.89
426.96	3712.09
427.15	3602.08
427.33	3588.04
427.52	3726.13
427.71	3698.05
427.90	3501.44
428.09	3723.79
428.28	3611.45
428.46	3700.39
428.65	3805.71
428.84	3735.50
429.03	3936.78
429.22	3705.07
429.40	3737.84
429.59	3693.37
429.78	3529.53
429.97	3559.95
430.16	3613.79
430.34	3868.91
430.53	3784.65
430.72	3882.95
430.91	3932.10
431.10	3744.86
431.28	3936.78
431.47	4051.47
431.66	4058.49
431.85	3943.80
432.03	4079.55
432.22	4238.71
432.41	4161.47
432.60	4149.77
432.79	4058.49
432.97	4147.43
433.16	4147.43
433.35	4166.15
433.54	4203.60
433.72	4205.94
433.91	4138.07
434.10	4161.47
434.28	4194.24
434.47	4241.05
434.66	4339.35
434.85	4383.82
435.03	4463.40
435.22	4276.16
435.41	4442.34
435.59	4351.06
435.78	4219.99
435.97	4510.21
436.16	4519.57
436.34	4587.45
436.53	4519.57
436.72	4524.26
436.90	4526.60
437.09	4624.90
437.28	4489.15
437.46	4454.04
437.65	4561.70
437.84	4636.60
438.02	4664.69
438.21	4685.75
438.40	4648.30
438.58	4784.06
438.77	4842.57
438.96	4840.23
439.14	4856.61
439.33	4950.23
439.52	5004.07
439.70	4737.24
439.89	4973.64
440.08	5043.85
440.26	5043.85
440.45	5060.24
440.63	4922.15
440.82	5214.71
441.01	5121.09
441.19	5343.44
441.38	5451.11
441.57	5329.40
441.75	5387.91
441.94	5462.81
442.12	5280.25
442.31	5385.57
442.50	5355.15
442.68	5652.39
442.87	5465.15
443.05	5652.39
443.24	5678.14
443.43	5666.44
443.61	5673.46
443.80	5776.44
443.98	5570.48
444.17	5490.90
444.35	5584.52
444.54	5802.19
444.73	5837.30
444.91	5689.84
445.10	5771.76
445.28	5659.42
445.47	5586.86
445.65	5643.03
445.84	5746.02
446.02	5912.19
446.21	5647.71
446.39	5687.50
446.58	5888.79
446.77	5823.25
446.95	5792.83
447.14	5755.38
447.32	5980.07
447.51	5820.91
447.69	5722.61
447.88	5870.06
448.06	5919.21
448.25	5813.89
448.43	5893.47
448.62	5970.71
448.80	5956.66
448.99	5991.77
449.17	5982.41
449.36	5982.41
449.54	6001.13
449.73	6097.10
449.91	6080.71
450.10	6270.30
450.28	6293.70
450.46	6246.89
450.65	6207.10
450.83	6384.98
451.02	6148.59
451.20	6291.36
451.39	6246.89
451.57	6303.06
451.76	6417.75
451.94	6377.96
452.13	6494.99
452.31	6370.94
452.49	6312.42
452.68	6492.65
452.86	6431.79
453.05	6462.22
453.23	6555.84
453.42	6345.19
453.60	6499.67
453.78	6583.93
453.97	6516.05
454.15	6448.18
454.34	6487.96
454.52	6502.01
454.70	6551.16
454.89	6609.67
455.07	6619.04
455.26	6850.75
455.44	6815.64
455.62	6876.49
455.81	6803.94
455.99	6874.15
456.17	6803.94
456.36	6981.82
456.54	7009.90
456.73	7021.61
456.91	7150.34
457.09	7110.55
457.28	7279.07
457.46	7080.12
457.64	7164.38
457.83	7115.23
458.01	7089.48
458.19	7339.92
458.38	7187.79
458.56	7236.94
458.74	7250.98
458.93	7239.28
459.11	7349.28
459.29	7346.94
459.48	7403.11
459.66	7412.48
459.84	7360.98
460.03	7463.97
460.21	7536.52
460.39	7576.31
460.57	7480.35
460.76	7602.06
460.94	7655.89
461.12	7604.40
461.31	7527.16
461.49	7405.46
461.67	7548.23
461.85	7606.74
462.04	7653.55
462.22	8067.83
462.40	7889.95
462.59	7688.66
462.77	7824.41
462.95	7906.33
463.13	7985.91
463.32	7936.76
463.50	8105.28
463.68	8011.65
463.86	7875.90
464.05	7733.13
464.23	7913.35
464.41	8159.11
464.59	7829.09
464.78	8093.57
464.96	8119.32
465.14	7918.03
465.32	8030.38
465.50	8320.60
465.69	8236.35
465.87	8205.92
466.05	8173.15
466.23	8159.11
466.41	8149.75
466.60	8531.25
466.78	8269.11
466.96	8084.21
467.14	8341.67
467.32	8180.17
467.51	8596.79
467.69	8229.32
467.87	8334.65
468.05	8465.72
468.23	8557.00
468.41	8400.18
468.60	8409.54
468.78	8744.24
468.96	8535.93
469.14	8648.28
469.32	8620.19
469.50	8416.57
469.69	8585.08
469.87	8575.72
470.05	8777.01
470.23	8884.67
470.41	8912.76
470.59	8908.08
470.77	8947.87
470.95	8795.73
471.14	8950.21
471.32	8889.35
471.50	9137.45
471.68	9111.71
471.86	9060.21
472.04	9069.58
472.22	9273.20
472.40	9359.80
472.58	9284.91
472.77	9291.93
472.95	9479.17
473.13	9577.47
473.31	9376.19
473.49	9565.77
473.67	9334.06
473.85	9542.36
474.03	9727.27
474.21	9748.33
474.39	9816.21
474.57	9788.12
474.75	9909.83
474.93	10076.01
475.12	9853.66
475.30	9926.21
475.48	9937.91
475.66	9966.00
475.84	10141.54
476.02	10202.40
476.20	10111.11
476.38	10394.32
476.56	10633.05
476.74	10530.07
476.92	10403.68
477.10	10726.68
477.28	10628.37
477.46	10558.16
477.64	10799.23
477.82	11009.88
478.00	11269.68
478.18	11304.79
478.36	11314.15
478.54	11335.21
478.72	11215.85
478.90	11496.71
479.08	11541.18
479.26	11571.61
479.44	11698.00
479.62	11744.81
479.80	11784.60
479.98	11625.44
480.16	12287.81
480.34	12212.92
480.52	12084.19
480.70	12287.81
480.88	12065.46
481.06	12301.86
481.24	12599.10
481.41	12690.38
481.59	12720.81
481.77	12842.52
481.95	12784.01
482.13	13025.08
482.31	13099.98
482.49	13401.91
482.67	13149.13
482.85	13631.28
483.03	13378.50
483.21	13713.20
483.39	13666.39
483.57	13806.82
483.74	13818.52
483.92	14094.71
484.10	13984.70
484.28	14193.01
484.46	14391.95
484.64	14663.46
484.82	14239.82
485.00	14712.61
485.18	14649.41
485.35	14820.27
485.53	14782.82
485.71	14736.01
485.89	15272.00
486.07	15070.71
486.25	15454.56
486.43	15260.29
486.61	15349.23
486.78	15751.81
486.96	15922.66
487.14	16049.05
487.32	16025.65
487.50	16098.20
487.68	16269.06
487.85	16456.31
488.03	16814.41
488.21	16879.94
488.39	16865.90
488.57	16936.12
488.75	16802.71
488.92	17324.65
489.10	17273.15
489.28	17336.35
489.46	17940.21
489.64	17413.59
489.81	18335.76
489.99	18106.38
490.17	18600.24
490.35	18288.95
490.53	18441.08
490.70	18164.90
490.88	18537.04
491.06	18642.37
491.24	18782.80
491.41	19105.79
491.59	18991.11
491.77	18904.51
491.95	19084.73
492.13	19363.25
492.30	19278.99
492.48	19737.74
492.66	19726.04
492.84	19747.10
493.01	19779.87
493.19	20009.24
493.37	20006.90
493.54	20491.39
493.72	20360.32
493.90	20308.83
494.08	21032.05
494.25	21020.35
494.43	20915.03
494.61	21013.33
494.79	20879.92
494.96	21015.67
495.14	21158.44
495.32	21165.46
495.49	21198.23
495.67	21521.23
495.85	21708.47
496.02	22099.34
496.20	21928.48
496.38	22052.53
496.55	22214.02
496.73	22888.10
496.91	22347.44
497.09	22370.84
497.26	22548.72
497.44	22302.96
497.62	22998.10
497.79	22881.08
497.97	22822.56
498.14	23295.35
498.32	23239.18
498.50	23496.64
498.67	23370.25
498.85	23386.63
499.03	23487.28
499.20	23726.01
499.38	23922.62
499.56	23981.13
499.73	23669.84
499.91	24039.64
500.08	24044.32
500.26	23903.89
500.44	24247.95
500.61	24236.25
500.79	24477.32
500.97	24638.82
501.14	24847.13
501.32	24772.23
501.49	24870.53
501.67	24915.00
501.84	25008.62
502.02	25046.07
502.20	25333.96
502.37	25245.02
502.55	25481.41
502.72	25298.85
502.90	25408.86
503.07	25483.75
503.25	25727.17
503.43	25544.61
503.60	25722.49
503.78	25752.91
503.95	26197.62
504.13	25926.11
504.30	26277.19
504.48	26434.01
504.65	26342.73
504.83	26700.83
505.01	26265.49
505.18	26211.66
505.36	26562.74
505.53	26958.29
505.71	27094.04
505.88	26969.99
506.06	26583.80
506.23	26988.72
506.41	26782.75
506.58	27543.42
506.76	26934.88
506.93	27576.19
507.11	27410.01
507.28	27786.84
507.46	27442.78
507.63	27360.86
507.81	27828.97
507.98	27573.85
508.16	27885.14
508.33	28182.39
508.50	28023.23
508.68	27800.88
508.85	28486.66
509.03	28290.06
509.20	28173.03
509.38	28725.39
509.55	28746.46
509.73	28669.22
509.90	28512.41
510.08	28594.32
510.25	28945.41
510.42	29364.36
510.60	28985.19
510.77	29109.24
510.95	29429.90
511.12	29074.13
511.30	29383.09
511.47	29593.73
511.64	29797.36
511.82	29876.94
511.99	29853.53
512.17	29853.53
512.34	29682.67
512.51	29780.98
512.69	29883.96
512.86	30359.09
513.04	30459.73
513.21	30267.81
513.38	29993.97
513.56	30066.52
513.73	30361.43
513.90	30560.37
514.08	30277.17
514.25	30295.89
514.43	30721.87
514.60	30338.02
514.77	30588.46
514.95	30684.42
515.12	31051.89
515.29	30960.61
515.47	31101.04
515.64	31307.01
515.81	31318.71
515.99	30892.73
516.16	31295.30
516.33	31681.49
516.51	31594.89
516.68	31192.32
516.85	31232.11
517.03	31199.34
517.20	31545.74
517.37	31676.81
517.54	32091.09
517.72	31952.99
517.89	31929.59
518.06	31964.70
518.24	31557.44
518.41	32093.43
518.58	32086.40
518.75	31922.57
518.93	32191.73
519.10	32048.96
519.27	32570.90
519.45	32273.65
519.62	32643.45
519.79	32744.09
519.96	33039.00
520.14	33008.58
520.31	33029.64
520.48	33139.65
520.65	33102.20
520.83	32739.41
521.00	33638.18
521.17	32961.76
521.34	33298.80
521.52	33853.51
521.69	33565.62
521.86	33692.01
522.03	33649.88
522.20	34050.11
522.38	33876.91
522.55	33965.85
522.72	34216.29
522.89	33928.41
523.07	33998.62
523.24	33780.95
523.41	34075.86
523.58	34047.77
523.75	34443.32
523.92	34550.99
524.10	34553.33
524.27	34810.79
524.44	34583.76
524.61	34616.52
524.78	34663.33
524.96	34946.54
525.13	35304.64
525.30	35026.12
525.47	34862.28
525.64	35145.48
525.81	34953.56
525.98	35093.99
526.16	34815.47
526.33	34789.72
526.50	35302.30
526.67	35199.32
526.84	35154.85
527.01	35309.32
527.18	35229.74
527.36	35758.70
527.53	35854.67
527.70	35791.47
527.87	35880.41
528.04	35620.61
528.21	35615.93
528.38	35548.06
528.55	36168.30
528.72	35962.33
528.89	36198.73
529.07	35990.42
529.24	36048.93
529.41	36060.63
529.58	35632.32
529.75	36119.15
529.92	36002.12
530.09	35936.59
530.26	36608.32
530.43	36219.79
530.60	36252.56
530.77	36636.41
530.94	36713.64
531.11	36828.33
531.28	36774.50
531.46	36711.30
531.63	36884.50
531.80	36900.89
531.97	36919.61
532.14	36739.39
532.31	36737.05
532.48	37024.93
532.65	36933.65
532.82	36840.03
532.99	37549.21
533.16	37060.04
533.33	37207.50
533.50	37656.88
533.67	37518.79
533.84	37296.44
534.01	37453.25
534.18	37333.89
534.35	37769.22
534.52	37516.45
534.69	37495.38
534.86	38101.58
535.03	37308.14
535.20	37984.55
535.37	38022.00
535.54	38263.08
535.71	37591.34
535.88	38211.59
536.05	38368.40
536.22	38022.00
536.38	38005.62
536.55	38183.50
536.72	38089.88
536.89	38085.20
537.06	37965.83
537.23	38396.49
537.40	38206.90
537.57	38677.35
537.74	38890.34
537.91	38731.18
538.08	38307.55
538.25	38412.87
538.42	38728.84
538.59	38979.28
538.75	38068.81
538.92	38569.69
539.09	38838.85
539.26	38820.13
539.43	38855.23
539.60	38904.38
539.77	38850.55
539.94	38976.94
540.11	38682.03
540.28	39049.50
540.44	39131.42
540.61	38604.80
540.78	38990.98
540.95	39049.50
541.12	39136.10
541.29	39372.49
541.46	39079.92
541.62	39416.96
541.79	39409.94
541.96	39023.75
542.13	39395.90
542.30	39655.70
542.47	39569.10
542.63	39386.54
542.80	39812.51
542.97	39826.56
543.14	40432.75
543.31	40383.60
543.48	40404.67
543.64	40039.54
543.81	39856.98
543.98	40350.84
544.15	40172.96
544.32	40355.52
544.48	40802.56
544.65	40266.58
544.82	40505.31
544.99	40119.12
545.16	40453.82
545.32	40322.75
545.49	40856.39
545.66	40521.69
545.83	40329.77
546.00	40961.72
546.16	40603.61
546.33	40844.69
546.50	40161.25
546.67	40624.68
546.83	40659.79
547.00	40655.11
547.17	40762.77
547.34	40825.96
547.50	40959.38
547.67	41043.63
547.84	41181.73
548.00	41392.37
548.17	41418.12
548.34	41495.36
548.51	41493.02
548.67	41277.69
548.84	41069.38
549.01	41488.34
549.18	41200.45
549.34	41752.82
549.51	41680.26
549.68	41308.11
549.84	41366.63
550.01	41427.48
550.18	41390.03
550.34	41708.35
550.51	41345.56
550.68	41235.56
550.84	41509.40
551.01	41532.81
551.18	41556.21
551.34	41808.99
551.51	42040.70
551.68	41897.93
551.84	41560.89
552.01	42139.00
552.18	41890.91
552.34	41797.29
552.51	42113.26
552.68	42211.56
552.84	42036.02
553.01	42188.16
553.18	42024.32
553.34	41621.75
553.51	41928.36
553.67	42153.05
553.84	42529.87
554.01	42618.81
554.17	42340.29
554.34	42223.26
554.51	42284.12
554.67	42646.90
554.84	42466.68
555.00	42073.47
555.17	42391.78
555.33	42335.61
555.50	42436.25
555.67	42658.60
555.83	42679.67
556.00	42651.58
556.16	42986.28
556.33	42955.85
556.50	42511.15
556.66	42946.49
556.83	42401.14
556.99	42707.76
557.16	42693.71
557.32	42511.15
557.49	42997.98
557.65	42457.32
557.82	43058.84
557.98	42831.80
558.15	42630.52
558.32	43508.22
558.48	43023.73
558.65	43079.90
558.81	43236.72
558.98	42623.50
559.14	42855.21
559.31	42976.92
559.47	43225.01
559.64	43072.88
559.80	43271.82
559.97	42990.96
560.13	42857.55
560.30	42986.28
560.46	43115.01
560.63	42913.72
560.79	43552.69
560.96	43356.08
561.12	43538.65
561.29	42855.21
561.45	43246.08
561.61	42995.64
561.78	43440.34
561.94	42995.64
562.11	43320.98
562.27	42972.24
562.44	43356.08
562.60	43421.62
562.77	43756.32
562.93	43522.26
563.10	43796.10
563.26	43157.14
563.42	43730.57
563.59	43435.66
563.75	43796.10
563.92	43821.85
564.08	43168.84
564.24	44051.22
564.41	43716.53
564.57	43604.18
564.74	43901.43
564.90	43508.22
565.07	43552.69
565.23	43339.70
565.39	43990.37
565.56	44002.07
565.72	43981.01
565.88	43833.55
566.05	43608.86
566.21	43917.81
566.38	43718.87
566.54	43573.75
566.70	43868.66
566.87	44112.08
567.03	44065.27
567.19	44151.87
567.36	43969.30
567.52	44053.56
567.68	44072.29
567.85	43852.28
568.01	43737.59
568.17	43852.28
568.34	43866.32
568.50	43744.61
568.66	43697.80
568.83	43658.01
568.99	44072.29
569.15	43702.48
569.32	43650.99
569.48	43894.41
569.64	44041.86
569.81	44165.91
569.97	43863.98
570.13	44287.62
570.30	43613.54
570.46	43573.75
570.62	43686.10
570.78	43941.22
570.95	43672.06
571.11	43950.58
571.27	43812.49
571.43	43929.51
571.60	44233.78
571.76	43779.72
571.92	43695.46
572.09	43622.90
572.25	43988.03
572.41	44037.18
572.57	44257.19
572.74	44554.44
572.90	44575.50
573.06	44011.43
573.22	44350.81
573.38	43749.29
573.55	43674.40
573.71	44428.05
573.87	43910.79
574.03	43489.49
574.20	44065.27
574.36	44336.77
574.52	44191.65
574.68	44322.72
574.84	43981.01
575.01	44060.58
575.17	43861.64
575.33	44177.61
575.49	44172.93
575.65	44397.62
575.82	44334.43
575.98	44135.48
576.14	44390.60
576.30	44137.82
576.46	44002.07
576.62	43817.17
576.79	44205.70
576.95	43665.03
577.11	44039.52
577.27	44282.94
577.43	44341.45
577.59	44261.87
577.75	44027.82
577.92	43847.60
578.08	44020.80
578.24	43936.54
578.40	44076.97
578.56	43819.51
578.72	44093.35
578.88	44491.24
579.04	44334.43
579.21	44210.38
579.37	44065.27
579.53	44121.44
579.69	44062.93
579.85	44575.50
580.01	44229.10
580.17	44083.99
580.33	44505.29
580.49	44271.23
580.65	44470.18
580.82	43962.28
580.98	44215.06
581.14	44414.01
581.30	44664.44
581.46	44734.66
581.62	44842.32
581.78	44332.09
581.94	45254.26
582.10	44622.31
582.26	44381.24
582.42	44706.57
582.58	44456.14
582.74	44748.70
582.90	44257.19
583.06	44645.72
583.22	44582.52
583.38	44383.58
583.54	44671.46
583.70	44488.90
583.86	44392.94
584.02	44732.32
584.18	44690.19
584.34	44460.82
584.50	44325.07
584.66	44392.94
584.82	44222.08
584.98	44713.59
585.14	44409.32
585.30	44516.99
585.46	44229.10
585.62	44289.96
585.78	44226.76
585.94	44198.68
586.10	44301.66
586.26	44069.95
586.42	44814.24
586.58	45024.89
586.74	44299.32
586.90	44694.87
587.06	44662.10
587.22	44130.80
587.38	44320.38
587.54	44414.01
587.70	44612.95
587.86	44404.64
588.02	44727.64
588.18	44839.98
588.34	44271.23
588.49	44100.37
588.65	43887.39
588.81	44353.15
588.97	44268.89
589.13	44465.50
589.29	44093.35
589.45	44772.11
589.61	44549.76
589.77	44786.15
589.93	44421.03
590.08	44957.01
590.24	44666.78
590.40	44737.00
590.56	44868.07
590.72	44842.32
590.88	44495.92
591.04	45120.85
591.20	45130.21
591.35	44807.22
591.51	45249.58
591.67	44807.22
591.83	44732.32
591.99	44549.76
592.15	44414.01
592.31	45078.72
592.46	45233.19
592.62	44680.83
592.78	44854.03
592.94	44823.60
593.10	44783.81
593.26	45127.87
593.41	45092.76
593.57	44465.50
593.73	44797.85
593.89	44818.92
594.05	44556.78
594.20	44727.64
594.36	44854.03
594.52	44531.03
594.68	44893.82
594.84	44891.48
594.99	44961.69
595.15	44821.26
595.31	44966.37
595.47	44737.00
595.62	44580.18
595.78	44996.80
595.94	45118.51
596.10	45181.70
596.25	45200.43
596.41	45010.84
596.57	45111.49
596.73	44971.05
596.88	44882.11
597.04	44980.42
597.20	44910.20
597.36	45097.44
597.51	45291.71
597.67	44851.69
597.83	45324.47
597.99	45570.23
598.14	44729.98
598.30	44683.17
598.46	44341.45
598.61	44669.12
598.77	44542.74
598.93	44425.71
599.09	44566.14
599.24	45130.21
599.40	45127.87
599.56	44933.60
599.71	44582.52
599.87	45170.00
600.03	45078.72
600.18	44844.66
600.34	44947.65
600.50	44683.17
600.65	44519.33
600.81	45322.13
600.97	45170.00
601.12	45425.12
601.28	44645.72
601.44	44847.00
601.59	44797.85
601.75	44442.09
601.91	44575.50
602.06	44720.62
602.22	45139.57
602.37	44987.44
602.53	44996.80
602.69	44928.92
602.84	44957.01
603.00	44996.80
603.16	44729.98
603.31	44875.09
603.47	44994.46
603.62	44753.38
603.78	45184.04
603.94	45078.72
604.09	44842.32
604.25	45029.57
604.40	44931.26
604.56	45111.49
604.71	44893.82
604.87	44561.46
605.03	44851.69
605.18	45064.67
605.34	44453.79
605.49	44575.50
605.65	44615.29
605.80	44776.79
605.96	44931.26
606.12	45104.46
606.27	44779.13
606.43	44720.62
606.58	45127.87
606.74	44741.68
606.89	44603.59
607.05	45212.13
607.20	44538.05
607.36	44463.16
607.51	45539.80
607.67	45331.50
607.82	44783.81
607.98	44554.44
608.13	44861.05
608.29	44711.25
608.44	44397.62
608.60	44308.68
608.75	44278.25
608.91	44105.06
609.06	44472.52
609.22	44486.56
609.37	44619.97
609.53	44863.39
609.68	44533.37
609.84	44385.92
609.99	44521.67
610.15	44428.05
610.30	44320.38
610.46	44362.51
610.61	44285.28
610.76	44514.65
610.92	44289.96
611.07	44196.34
611.23	44037.18
611.38	44498.26
611.54	44165.91
611.69	44432.73
611.84	43868.66
612.00	44100.37
612.15	43985.69
612.31	44191.65
612.46	44378.90
612.62	44121.44
612.77	44002.07
612.92	44278.25
613.08	44477.20
613.23	44304.00
613.39	43812.49
613.54	43854.62
613.69	44245.49
613.85	43906.11
614.00	43728.23
614.15	44102.71
614.31	44121.44
614.46	44186.97
614.62	43882.70
614.77	43997.39
614.92	43997.39
615.08	43555.03
615.23	43501.20
615.38	44224.42
615.54	43852.28
615.69	43875.68
615.84	43351.40
616.00	44018.46
616.15	43690.78
616.30	43899.09
616.46	43335.02
616.61	43571.41
616.76	43669.72
616.92	43634.61
617.07	43796.10
617.22	43311.61
617.37	43311.61
617.53	43885.04
617.68	43421.62
617.83	43786.74
617.99	43662.69
618.14	43943.56
618.29	43484.81
618.45	43339.70
618.60	43026.07
618.75	43714.19
618.90	43070.54
619.06	43306.93
619.21	43309.27
619.36	43559.71
619.51	43136.07
619.67	43065.86
619.82	43138.41
619.97	43299.91
620.12	42923.08
620.28	42890.32
620.43	43049.47
620.58	43393.53
620.73	42862.23
620.89	43026.07
621.04	43112.67
621.19	43227.35
621.34	43122.03
621.49	42763.93
621.65	42871.59
621.80	42899.68
621.95	42642.22
622.10	42777.97
622.25	42656.26
622.41	42459.66
622.56	42997.98
622.71	43037.77
622.86	42806.06
623.01	42862.23
623.16	42698.39
623.32	42752.23
623.47	43250.76
623.62	42777.97
623.77	42747.54
623.92	42291.14
624.07	42424.55
624.23	42485.40
624.38	42653.92
624.53	42644.56
624.68	42747.54
624.83	42141.35
624.98	42745.20
625.13	42019.64
625.29	42642.22
625.44	42579.03
625.59	42328.59
625.74	42103.90
625.89	41977.51
626.04	41897.93
626.19	41605.36
626.34	42073.47
626.49	42234.97
626.65	42342.63
626.80	41851.12
626.95	42202.20
627.10	41682.60
627.25	41827.71
627.40	41750.48
627.55	41092.79
627.70	41242.58
627.85	41563.23
628.00	41624.09
628.15	42195.18
628.30	41743.45
628.45	42043.04
628.60	41413.44
628.76	41993.89
628.91	41900.27
629.06	41474.29
629.21	41745.80
629.36	41525.78
629.51	41748.14
629.66	41244.92
629.81	41588.98
629.96	41455.57
630.11	41825.37
630.26	41860.48
630.41	41633.45
630.56	41212.15
630.71	41614.72
630.86	41394.71
631.01	40954.69
631.16	41062.36
631.31	40755.75
631.46	40282.96
631.61	41118.53
631.76	41228.54
631.91	41413.44
632.06	41385.35
632.21	41240.24
632.36	41434.50
632.51	41130.23
632.66	41333.86
632.81	40727.66
632.96	40835.33
633.10	40655.11
633.25	40690.21
633.40	41127.89
633.55	41017.89
633.70	40994.48
633.85	41102.15
634.00	40758.09
634.15	41134.92
634.30	40844.69
634.45	40907.88
634.60	40533.40
634.75	41036.61
634.90	40210.40
635.05	40877.46
635.19	40416.37
635.34	40825.96
635.49	40720.64
635.64	40264.24
635.79	40381.26
635.94	40479.57
636.09	40821.28
636.24	40526.38
636.39	40177.64
636.53	40470.20
636.68	40215.08
636.83	40245.51
636.98	40453.82
637.13	39768.04
637.28	40730.00
637.43	40350.84
637.57	40655.11
637.72	40612.98
637.87	40542.76
638.02	40215.08
638.17	40376.58
638.32	39686.12
638.46	40226.79
638.61	40023.16
638.76	39765.70
638.91	39763.36
639.06	39971.67
639.20	39985.71
639.35	40004.44
639.50	39854.64
639.65	40123.80
639.80	39871.03
639.94	39859.32
640.09	39934.22
640.24	39529.31
640.39	39365.47
640.54	39419.30
640.68	39346.75
640.83	40081.67
640.98	39203.97
641.13	39391.22
641.27	39833.58
641.42	39707.19
641.57	39714.21
641.72	39580.80
641.86	39625.27
642.01	39171.21
642.16	39201.63
642.31	38906.73
642.45	39005.03
642.60	38827.15
642.75	39098.65
642.90	39075.24
643.04	39145.46
643.19	39019.07
643.34	39445.05
643.48	38976.94
643.63	39342.06
643.78	39143.12
643.93	38808.42
644.07	38974.60
644.22	38707.78
644.37	38965.24
644.51	38684.37
644.66	38979.28
644.81	38925.45
644.95	39449.73
645.10	39058.86
645.25	39412.28
645.39	39283.55
645.54	39356.11
645.69	38801.40
645.83	39108.01
645.98	39021.41
646.13	39082.27
646.27	39075.24
646.42	38389.47
646.57	38888.00
646.71	38913.75
646.86	38747.57
647.00	38859.91
647.15	38801.40
647.30	38761.61
647.44	38455.00
647.59	38843.53
647.74	38768.63
647.88	38438.62
648.03	38396.49
648.17	38377.76
648.32	37677.94
648.47	38415.21
648.61	38302.87
648.76	38560.33
648.90	38146.05
649.05	38450.32
649.20	37928.38
649.34	38452.66
649.49	37867.53
649.63	38124.99
649.78	38749.91
649.92	38504.15
650.07	38387.13
650.21	37558.58
650.36	38094.56
650.51	38038.39
650.65	38810.76
650.80	38153.07
650.94	38216.27
651.09	37844.12
651.23	38181.16
651.38	38024.34
651.52	37813.70
651.67	38405.85
651.81	38225.63
651.96	37589.00
652.10	38218.61
652.25	37610.07
652.39	37769.22
652.54	37724.75
652.68	37972.85
652.83	37832.42
652.97	38288.82
653.12	37766.88
653.26	37626.45
653.41	37624.11
653.55	37219.20
653.70	37427.51
653.84	37624.11
653.99	37645.18
654.13	37710.71
654.27	37448.57
654.42	37486.02
654.56	37731.78
654.71	37673.26
654.85	37640.50
655.00	37317.50
655.14	37043.66
655.29	37153.66
655.43	36533.42
655.57	36809.61
655.72	36608.32
655.86	37074.09
656.01	37123.24
656.15	37003.87
656.30	36547.47
656.44	36950.04
656.58	36821.31
656.73	36854.08
656.87	36938.33
657.01	36830.67
657.16	36828.33
657.30	36400.01
657.45	36343.84
657.59	36697.26
657.73	36739.39
657.88	36746.41
658.02	36594.28
658.16	36627.04
658.31	36708.96
658.45	36978.12
658.60	36680.88
658.74	37113.87
658.88	36545.12
659.03	36292.35
659.17	36580.23
659.31	36236.17
659.46	36713.64
659.60	35967.01
659.74	35971.69
659.89	35849.99
660.03	35840.62
660.17	36250.22
660.32	36357.88
660.46	36002.12
660.60	35810.20
660.74	36245.54
660.89	36151.91
661.03	35571.46
661.17	35587.85
661.32	35473.16
661.46	35828.92
661.60	35777.43
661.74	35791.47
661.89	35349.11
662.03	35634.66
662.17	35243.79
662.31	35543.38
662.46	35555.08
662.60	35297.62
662.74	35316.34
662.88	35250.81
663.03	35218.04
663.17	35075.27
663.31	35098.67
663.45	35498.91
663.60	35145.48
663.74	35168.89
663.88	34866.96
664.02	34660.99
664.17	35012.07
664.31	34483.11
664.45	34361.40
664.59	34677.38
664.73	34536.94
664.88	34995.69
665.02	34539.29
665.16	34775.68
665.30	34911.43
665.44	34550.99
665.59	34033.73
665.73	33888.62
665.87	33799.68
666.01	34274.80
666.15	34281.83
666.29	34314.59
666.44	34265.44
666.58	34096.92
666.72	33947.13
666.86	34464.39
667.00	34117.99
667.14	33780.95
667.28	33443.91
667.43	33453.28
667.57	33460.30
667.71	33607.75
667.85	33675.63
667.99	33354.97
668.13	33127.94
668.27	33574.98
668.41	33692.01
668.56	33399.44
668.70	33340.93
668.84	33294.12
668.98	33160.71
669.12	33305.82
669.26	33329.23
669.40	33043.68
669.54	32690.26
669.68	32620.05
669.82	32896.23
669.96	32594.30
670.10	32638.77
670.25	32659.84
670.39	32514.72
670.53	32498.34
670.67	32479.61
670.81	32678.56
670.95	32727.71
671.09	32613.02
671.23	32456.21
671.37	32165.98
671.51	31709.58
671.65	31714.26
671.79	32315.78
671.93	32128.53
672.07	32320.46
672.21	32002.14
672.35	31393.61
672.49	31952.99
672.63	31735.32
672.77	32041.93
672.91	31728.30
673.05	31688.51
673.19	31732.98
673.33	31564.46
673.47	31470.84
673.61	31297.64
673.75	30691.44
673.89	30806.13
674.03	30448.03
674.17	30696.13
674.31	30778.04
674.45	30693.79
674.59	30827.20
674.73	30848.26
674.87	30623.57
675.01	30558.03
675.15	30848.26
675.29	30693.79
675.43	30300.58
675.56	30267.81
675.70	30642.29
675.84	29797.36
675.98	29687.36
676.12	29996.31
676.26	29605.44
676.40	29926.09
676.54	30106.31
676.68	29710.76
676.82	29331.59
676.96	29289.46
677.10	29177.12
677.23	29221.59
677.37	29113.92
677.51	29137.33
677.65	29558.63
677.79	28512.41
677.93	29244.99
678.07	28669.22
678.21	28617.73
678.34	28847.10
678.48	28517.09
678.62	28655.18
678.76	28442.19
678.90	28507.72
679.04	28439.85
679.18	28393.04
679.31	28184.73
679.45	28016.21
679.59	27702.58
679.73	27845.35
679.87	27826.63
680.00	27861.74
680.14	27611.30
680.28	27080.00
680.42	27419.38
680.56	27391.29
680.70	27206.39
680.83	27096.38
680.97	27077.66
681.11	26764.03
681.25	26593.17
681.39	26972.33
681.52	26506.57
681.66	26735.94
681.80	26272.51
681.94	26623.59
682.07	26459.76
682.21	26118.04
682.35	26209.32
682.49	25914.41
682.62	26087.61
682.76	25937.82
682.90	26045.48
683.04	25736.53
683.17	25359.70
683.31	25778.66
683.45	25912.07
683.59	25481.41
683.72	25455.67
683.86	25177.14
684.00	25055.43
684.13	25303.53
684.27	24870.53
684.41	24989.90
684.55	24732.44
684.68	24669.25
684.82	24592.01
684.96	24393.06
685.09	24327.53
685.23	24566.26
685.37	24479.66
685.50	24283.06
685.64	24360.30
685.78	24341.57
685.91	24315.83
686.05	24102.84
686.19	23868.78
686.32	23616.01
686.46	23536.43
686.60	23152.58
686.73	23433.44
686.87	23218.11
687.01	23379.61
687.14	22827.24
687.28	22974.70
687.42	23049.60
687.55	22984.06
687.69	23349.18
687.82	22888.10
687.96	23042.57
688.10	22862.35
688.23	22717.24
688.37	22710.22
688.50	22178.92
688.64	22583.83
688.78	22167.21
688.91	22064.23
689.05	21972.95
689.18	21848.90
689.32	21500.16
689.46	21724.85
689.59	22141.47
689.73	22052.53
689.86	21535.27
690.00	21682.72
690.13	21893.37
690.27	21692.08
690.41	21406.54
690.54	21348.03
690.68	20877.58
690.81	20893.96
690.95	21022.69
691.08	21050.78
691.22	20915.03
691.35	21172.49
691.49	20922.05
691.62	20835.45
691.76	20755.87
691.89	20835.45
692.03	20599.05
692.16	20563.95
692.30	20325.21
692.43	20262.02
692.57	20166.06
692.70	20009.24
692.84	20009.24
692.97	19796.25
693.11	19915.62
693.24	19859.45
693.38	19637.09
693.51	19344.53
693.65	19634.75
693.78	19669.86
693.92	19281.33
694.05	19356.23
694.19	18948.98
694.32	19248.57
694.45	18871.74
694.59	18902.17
694.72	18988.77
694.86	18759.39
694.99	18635.35
695.13	18338.10
695.26	18647.05
695.39	18530.02
695.53	18230.43
695.66	18368.52
695.80	18288.95
695.93	18129.79
696.07	18157.88
696.20	18015.10
696.33	18377.89
696.47	17869.99
696.60	18040.85
696.73	17729.56
696.87	17776.37
697.00	17692.11
697.14	17518.91
697.27	17259.11
697.40	17429.97
697.54	17542.32
697.67	17076.55
697.80	17015.69
697.94	16945.48
698.07	16996.97
698.21	16886.97
698.34	16854.20
698.47	16739.51
698.61	16634.19
698.74	16606.10
698.87	16615.46
699.01	16432.90
699.14	16397.79
699.27	16489.07
699.40	16428.22
699.54	16411.84
699.67	15871.17
699.80	15889.90
699.94	15833.72
700.07	16306.51
700.20	15784.57
700.34	15513.07
700.47	15726.06
700.60	15955.43
700.73	15513.07
700.87	15583.29
701.00	15190.08
701.13	15468.60
701.26	15192.42
701.40	15346.89
701.53	15199.44
701.66	15311.78
701.79	15108.16
701.93	14864.74
702.06	15140.93
702.19	14846.02
702.32	14757.08
702.46	14773.46
702.59	14712.61
702.72	14836.66
702.85	14719.63
702.99	14672.82
703.12	14698.56
703.25	14523.02
703.38	14340.46
703.51	14410.68
703.65	14284.29
703.78	14408.34
703.91	14232.80
704.04	13923.85
704.17	14022.15
704.31	14216.41
704.44	13610.22
704.57	13605.53
704.70	13582.13
704.83	13469.78
704.96	13682.77
705.10	13612.56
705.23	13731.92
>>>>>End Processed Spectral Data<<<<<
