SpectraSuite Data File
++++++++++++++++++++++++++++++++++++
Date: Fri Oct 25 10:47:18 EDT 2013
User: price-jones
Dark Spectrum Present: No
Reference Spectrum Present: No
Number of Sampled Component Spectra: 1
Spectrometers: USB2+H05261
Integration Time (usec): 100000 (USB2+H05261)
Spectra Averaged: 1 (USB2+H05261)
Boxcar Smoothing: 0 (USB2+H05261)
Correct for Electrical Dark: No (USB2+H05261)
Strobe/Lamp Enabled: No (USB2+H05261)
Correct for Detector Non-linearity: No (USB2+H05261)
Correct for Stray Light: No (USB2+H05261)
Number of Pixels in Processed Spectrum: 2048
>>>>>Begin Processed Spectral Data<<<<<
365.73	121.71
365.92	121.71
366.12	121.71
366.32	35.11
366.52	35.11
366.72	53.83
366.91	0.00
367.11	51.49
367.31	7.02
367.51	49.15
367.70	79.58
367.90	91.28
368.10	0.00
368.30	0.00
368.49	35.11
368.69	35.11
368.89	102.98
369.09	79.58
369.28	51.49
369.48	135.75
369.68	112.35
369.87	117.03
370.07	124.05
370.27	110.01
370.47	294.91
370.66	313.63
370.86	383.85
371.06	374.49
371.25	451.72
371.45	423.64
371.65	421.30
371.84	440.02
372.04	416.62
372.24	514.92
372.44	557.05
372.63	554.71
372.83	479.81
373.03	493.85
373.22	470.45
373.42	526.62
373.62	545.34
373.81	507.90
374.01	531.30
374.21	575.77
374.40	507.90
374.60	540.66
374.79	496.19
374.99	608.54
375.19	543.00
375.38	557.05
375.58	603.86
375.78	557.05
375.97	538.32
376.17	566.41
376.37	664.71
376.56	596.84
376.76	484.49
376.95	552.37
377.15	557.05
377.35	610.88
377.54	575.77
377.74	650.67
377.93	531.30
378.13	613.22
378.33	575.77
378.52	622.58
378.72	596.84
378.91	550.03
379.11	547.69
379.31	571.09
379.50	550.03
379.70	650.67
379.89	629.60
380.09	650.67
380.28	641.31
380.48	641.31
380.68	615.56
380.87	758.33
381.07	671.73
381.26	678.76
381.46	631.94
381.65	669.39
381.85	674.07
382.04	629.60
382.24	641.31
382.43	732.59
382.63	678.76
382.83	685.78
383.02	744.29
383.22	812.17
383.41	688.12
383.61	678.76
383.80	753.65
384.00	718.54
384.19	751.31
384.39	755.99
384.58	669.39
384.78	781.74
384.97	800.46
385.17	690.46
385.36	692.80
385.56	760.67
385.75	774.72
385.95	739.61
386.14	816.85
386.34	807.48
386.53	795.78
386.72	739.61
386.92	800.46
387.11	877.70
387.31	816.85
387.50	774.72
387.70	786.42
387.89	875.36
388.09	837.91
388.28	882.38
388.48	784.08
388.67	791.10
388.86	823.87
389.06	826.21
389.25	863.66
389.45	819.19
389.64	905.79
389.84	901.11
390.03	903.45
390.22	938.55
390.42	882.38
390.61	880.04
390.81	814.51
391.00	908.13
391.19	880.04
391.39	905.79
391.58	912.81
391.78	992.39
391.97	973.66
392.16	924.51
392.36	980.68
392.55	947.92
392.75	1025.15
392.94	905.79
393.13	933.87
393.33	985.37
393.52	1001.75
393.71	1013.45
393.91	1006.43
394.10	990.05
394.29	1102.39
394.49	964.30
394.68	1071.97
394.88	1069.62
395.07	1046.22
395.26	1076.65
395.46	1055.58
395.65	1135.16
395.84	1039.20
396.04	1123.46
396.23	1057.92
396.42	1055.58
396.62	1064.94
396.81	1104.73
397.00	1100.05
397.19	1125.80
397.39	1104.73
397.58	1121.12
397.77	1179.63
397.97	1249.85
398.16	1245.16
398.35	1095.37
398.55	1200.69
398.74	1249.85
398.93	1205.38
399.12	1308.36
399.32	1277.93
399.51	1249.85
399.70	1275.59
399.90	1284.95
400.09	1240.48
400.28	1385.60
400.47	1320.06
400.67	1460.49
400.86	1338.79
401.05	1404.32
401.24	1364.53
401.44	1364.53
401.63	1502.62
401.82	1385.60
402.01	1357.51
402.21	1465.18
402.40	1469.86
402.59	1488.58
402.78	1472.20
402.97	1453.47
403.17	1476.88
403.36	1507.30
403.55	1460.49
403.74	1561.14
403.93	1530.71
404.13	1558.80
404.32	1474.54
404.51	1537.73
404.70	1619.65
404.89	1586.88
405.09	1626.67
405.28	1575.18
405.47	1544.75
405.66	1607.95
405.85	1647.74
406.05	1600.93
406.24	1633.69
406.43	1671.14
406.62	1664.12
406.81	1818.60
407.00	1732.00
407.20	1795.19
407.39	1717.95
407.58	1813.92
407.77	1753.06
407.96	1748.38
408.15	1769.44
408.34	1834.98
408.54	1858.39
408.73	1825.62
408.92	1891.15
409.11	1942.64
409.30	1825.62
409.49	1923.92
409.68	1959.03
409.87	1877.11
410.07	1940.30
410.26	1940.30
410.45	2019.88
410.64	2031.58
410.83	2080.74
411.02	2022.22
411.21	2139.25
411.40	2157.97
411.59	2148.61
411.78	2216.49
411.98	2146.27
412.17	2235.21
412.36	2197.76
412.55	2293.72
412.74	2305.43
412.93	2370.96
413.12	2204.78
413.31	2406.07
413.50	2394.37
413.69	2338.20
413.88	2450.54
414.07	2424.80
414.26	2441.18
414.45	2476.29
414.64	2431.82
414.83	2551.18
415.02	2551.18
415.22	2630.76
415.41	2672.89
415.60	2567.57
415.79	2576.93
415.98	2677.57
416.17	2558.21
416.36	2740.77
416.55	2775.88
416.74	2740.77
416.93	2876.52
417.12	2778.22
417.31	2677.57
417.50	2801.62
417.69	2991.20
417.88	3077.80
418.07	2906.95
418.26	2958.44
418.45	3019.29
418.64	3131.64
418.83	2935.03
419.02	3145.68
419.21	3124.62
419.39	3052.06
419.58	3068.44
419.77	2972.48
419.96	3141.00
420.15	3155.04
420.34	3091.85
420.53	3152.70
420.72	3243.98
420.91	3262.71
421.10	3290.79
421.29	3243.98
421.48	3187.81
421.67	3262.71
421.86	3253.34
422.05	3265.05
422.24	3234.62
422.43	3304.84
422.61	3194.83
422.80	3501.44
422.99	3384.41
423.18	3325.90
423.37	3517.83
423.56	3384.41
423.75	3400.80
423.94	3370.37
424.13	3183.13
424.32	3419.52
424.50	3515.48
424.69	3440.59
424.88	3393.78
425.07	3258.03
425.26	3328.24
425.45	3258.03
425.64	3412.50
425.83	3403.14
426.01	3349.31
426.20	3403.14
426.39	3421.86
426.58	3407.82
426.77	3555.27
426.96	3492.08
427.15	3452.29
427.33	3513.14
427.52	3389.10
427.71	3543.57
427.90	3590.38
428.09	3592.72
428.28	3698.05
428.46	3515.48
428.65	3786.99
428.84	3702.73
429.03	3859.54
429.22	3721.45
429.40	3662.94
429.59	3660.60
429.78	3574.00
429.97	3639.53
430.16	3625.49
430.34	3693.37
430.53	3808.05
430.72	3824.44
430.91	3658.26
431.10	3726.13
431.28	3812.73
431.47	3957.85
431.66	3990.61
431.85	3960.19
432.03	4121.68
432.22	4212.96
432.41	4135.73
432.60	3988.27
432.79	4039.76
432.97	4002.32
433.16	4124.02
433.35	4032.74
433.54	3943.80
433.72	4032.74
433.91	4245.73
434.10	4173.18
434.28	4018.70
434.47	4105.30
434.66	4161.47
434.85	4227.01
435.03	4290.20
435.22	4346.37
435.41	4458.72
435.59	4372.12
435.78	4432.97
435.97	4278.50
436.16	4393.19
436.34	4339.35
436.53	4517.23
436.72	4393.19
436.90	4236.37
437.09	4550.00
437.28	4461.06
437.46	4472.76
437.65	4496.17
437.84	4610.86
438.02	4699.80
438.21	4451.70
438.40	4451.70
438.58	4739.58
438.77	4734.90
438.96	4830.87
439.14	4718.52
439.33	4812.14
439.52	4994.70
439.70	4940.87
439.89	4840.23
440.08	4847.25
440.26	4828.53
440.45	4762.99
440.63	5109.39
440.82	5053.22
441.01	5118.75
441.19	5109.39
441.38	5191.31
441.57	5184.29
441.75	5240.46
441.94	5418.34
442.12	5254.50
442.31	5554.09
442.50	5357.49
442.68	5322.38
442.87	5586.86
443.05	5483.88
443.24	5633.67
443.43	5614.95
443.61	5427.70
443.80	5476.85
443.98	5411.32
444.17	5352.81
444.35	5483.88
444.54	5575.16
444.73	5509.62
444.91	5591.54
445.10	5605.58
445.28	5568.13
445.47	5490.90
445.65	5514.30
445.84	5603.24
446.02	5727.29
446.21	5591.54
446.39	5446.43
446.58	5657.07
446.77	5746.02
446.95	5685.16
447.14	5579.84
447.32	5827.93
447.51	5827.93
447.69	5638.35
447.88	5645.37
448.06	5661.76
448.25	5820.91
448.43	5790.49
448.62	5682.82
448.80	5886.45
448.99	5877.09
449.17	5909.85
449.36	5839.64
449.54	5961.34
449.73	6066.67
449.91	5914.53
450.10	6005.81
450.28	6153.27
450.46	6052.63
450.65	6139.23
450.83	6033.90
451.02	6005.81
451.20	6171.99
451.39	6113.48
451.57	6291.36
451.76	6258.59
451.94	6183.70
452.13	6174.33
452.31	6216.46
452.49	6181.35
452.68	6200.08
452.86	6197.74
453.05	6218.80
453.23	6382.64
453.42	6230.51
453.60	6169.65
453.78	6375.62
453.97	6361.58
454.15	6242.21
454.34	6394.34
454.52	6321.79
454.70	6525.41
454.89	6499.67
455.07	6523.07
455.26	6574.56
455.44	6607.33
455.62	6642.44
455.81	6520.73
455.99	6675.21
456.17	6740.74
456.36	6888.20
456.54	6960.75
456.73	6841.39
456.91	6913.94
457.09	6932.67
457.28	6956.07
457.46	6967.77
457.64	7138.63
457.83	6911.60
458.01	6902.24
458.19	7229.91
458.38	7059.06
458.56	6906.92
458.74	7061.40
458.93	7148.00
459.11	7040.33
459.29	7208.85
459.48	7201.83
459.66	7201.83
459.84	7080.12
460.03	7321.20
460.21	7468.65
460.39	7304.81
460.57	7295.45
460.76	7552.91
460.94	7311.83
461.12	7377.37
461.31	7517.80
461.49	7407.80
461.67	7440.56
461.85	7616.10
462.04	7538.87
462.22	8004.63
462.40	7665.25
462.59	7648.87
462.77	7695.68
462.95	7784.62
463.13	7967.18
463.32	7618.44
463.50	7569.29
463.68	7660.57
463.86	7730.79
464.05	7686.32
464.23	7747.17
464.41	7948.46
464.59	7665.25
464.78	7901.65
464.96	7632.49
465.14	7882.92
465.32	7941.44
465.50	8095.91
465.69	7936.76
465.87	8018.68
466.05	8039.74
466.23	8095.91
466.41	7981.23
466.60	8035.06
466.78	7896.97
466.96	8102.93
467.14	8294.86
467.32	8114.64
467.51	8145.06
467.69	8044.42
467.87	8152.09
468.05	8276.13
468.23	8163.79
468.41	8290.18
468.60	8222.30
468.78	8409.54
468.96	8208.26
469.14	8470.40
469.32	8358.05
469.50	8138.04
469.69	8470.40
469.87	8519.55
470.05	8540.61
470.23	8769.99
470.41	8573.38
470.59	8751.26
470.77	8582.74
470.95	8718.50
471.14	8847.22
471.32	8753.60
471.50	8786.37
471.68	9207.67
471.86	9137.45
472.04	9170.22
472.22	9095.32
472.40	8936.17
472.58	9041.49
472.77	9149.15
472.95	9165.54
473.13	9516.62
473.31	9144.47
473.49	9083.62
473.67	9444.06
473.85	9394.91
474.03	9399.59
474.21	9568.11
474.39	9359.80
474.57	9650.03
474.75	9694.50
474.93	9645.35
475.12	9860.68
475.30	9870.04
475.48	9757.69
475.66	10083.03
475.84	9785.78
476.02	9764.72
476.20	10045.58
476.38	10068.98
476.56	10127.50
476.74	10279.63
476.92	10497.30
477.10	10253.89
477.28	10619.01
477.46	10483.26
477.64	10651.78
477.82	10614.33
478.00	11009.88
478.18	10977.11
478.36	10958.39
478.54	11190.10
478.72	11117.54
478.90	11293.08
479.08	11506.07
479.26	11492.03
479.44	11386.71
479.62	11463.94
479.80	11662.89
479.98	11751.83
480.16	11976.52
480.34	11747.15
480.52	11866.52
480.70	12070.14
480.88	11920.35
481.06	11988.22
481.24	12217.60
481.41	12449.31
481.59	12278.45
481.77	12358.03
481.95	12805.07
482.13	12863.58
482.31	12809.75
482.49	13004.02
482.67	12978.27
482.85	12999.34
483.03	13422.97
483.21	13535.32
483.39	13448.72
483.57	13528.30
483.74	13752.99
483.92	13680.43
484.10	13762.35
484.28	13778.73
484.46	13717.88
484.64	14244.50
484.82	14298.33
485.00	14090.02
485.18	14221.10
485.35	14853.04
485.53	14611.96
485.71	14736.01
485.89	14839.00
486.07	14691.54
486.25	14850.70
486.43	14899.85
486.61	15452.22
486.78	15318.81
486.96	15456.90
487.14	15803.30
487.32	15700.31
487.50	15962.45
487.68	16360.34
487.85	16402.47
488.03	16430.56
488.21	16297.15
488.39	16690.36
488.57	16826.11
488.75	16659.93
488.92	16755.90
489.10	17099.95
489.28	17343.37
489.46	17479.12
489.64	17224.00
489.81	17542.32
489.99	17844.24
490.17	18169.58
490.35	18099.36
490.53	17778.71
490.70	18310.01
490.88	17884.03
491.06	18059.57
491.24	18331.08
491.41	18499.59
491.59	18387.25
491.77	18654.07
491.95	18569.81
492.13	19016.85
492.30	18934.93
492.48	19096.43
492.66	19180.69
492.84	19358.57
493.01	19751.78
493.19	19819.66
493.37	19903.92
493.54	19777.53
493.72	19962.43
493.90	19957.75
494.08	20255.00
494.25	20519.48
494.43	20367.34
494.61	20814.38
494.79	20704.38
494.96	20912.69
495.14	20989.92
495.32	20973.54
495.49	21003.97
495.67	21305.90
495.85	21195.89
496.02	21610.17
496.20	21729.53
496.38	21869.97
496.55	21769.32
496.73	22171.89
496.91	21961.25
497.09	22061.89
497.26	22122.74
497.44	22419.99
497.62	22298.28
497.79	22427.01
497.97	22588.51
498.14	22651.70
498.32	22785.12
498.50	22782.77
498.67	23154.92
498.85	23131.51
499.03	23260.24
499.20	23405.36
499.38	23253.22
499.56	23716.65
499.73	23786.86
499.91	23903.89
500.08	23754.10
500.26	23555.15
500.44	24102.84
500.61	23929.64
500.79	23957.72
500.97	24091.13
501.14	24486.68
501.32	24709.04
501.49	24294.76
501.67	24484.34
501.84	24741.80
502.02	24528.81
502.20	24699.67
502.37	24929.05
502.55	24760.53
502.72	24833.08
502.90	25205.23
503.07	25263.74
503.25	25294.17
503.43	25116.29
503.60	25666.31
503.78	25308.21
503.95	25453.33
504.13	25666.31
504.30	25731.85
504.48	25898.03
504.65	25806.75
504.83	26068.89
505.01	26209.32
505.18	25996.33
505.36	26434.01
505.53	26197.62
505.71	26621.25
505.88	26726.58
506.06	26410.60
506.23	26478.48
506.41	26696.15
506.58	26749.98
506.76	26820.20
506.93	27234.47
507.11	27072.98
507.28	26820.20
507.46	27243.84
507.63	27227.45
507.81	27744.71
507.98	27257.88
508.16	27178.30
508.33	27447.46
508.50	27367.88
508.68	27615.98
508.85	28102.81
509.03	28065.36
509.20	27861.74
509.38	28053.66
509.55	28348.57
509.73	28411.76
509.90	27917.91
510.08	28280.69
510.25	28606.03
510.42	28386.02
510.60	28655.18
510.77	28872.85
510.95	28884.55
511.12	28973.49
511.30	29050.73
511.47	29443.94
511.64	29179.46
511.82	29153.71
511.99	29186.48
512.17	29259.04
512.34	29528.20
512.51	29369.04
512.69	29628.84
512.86	29680.33
513.04	29659.27
513.21	29399.47
513.38	29612.46
513.56	30218.66
513.73	29830.13
513.90	30094.61
514.08	30295.89
514.25	30202.27
514.43	30433.99
514.60	30204.61
514.77	30422.28
514.95	30642.29
515.12	30604.84
515.29	30328.66
515.47	30745.28
515.64	30871.67
515.81	30532.29
515.99	30799.11
516.16	30686.76
516.33	30918.48
516.51	30874.01
516.68	30874.01
516.85	30654.00
517.03	31168.91
517.20	31281.26
517.37	31225.09
517.54	31409.99
517.72	31447.44
517.89	31379.56
518.06	31330.41
518.24	31686.17
518.41	31351.48
518.58	31384.24
518.75	31304.67
518.93	31707.24
519.10	31463.82
519.27	31637.02
519.45	32233.86
519.62	32226.84
519.79	31988.10
519.96	32023.21
520.14	32816.65
520.31	32198.75
520.48	32411.74
520.65	32460.89
520.83	32795.59
521.00	32591.96
521.17	32954.74
521.34	32996.87
521.52	33024.96
521.69	32872.82
521.86	33207.52
522.03	33273.06
522.20	33371.36
522.38	33408.81
522.55	33493.07
522.72	33535.20
522.89	33354.97
523.07	33895.64
523.24	33457.96
523.41	33673.29
523.58	33476.68
523.75	34117.99
523.92	33860.53
524.10	34122.67
524.27	34094.58
524.44	34054.79
524.61	34160.12
524.78	34225.65
524.96	34494.82
525.13	34192.89
525.30	34511.20
525.47	34813.13
525.64	35126.76
525.81	34679.72
525.98	34656.31
526.16	34440.98
526.33	34717.17
526.50	34934.84
526.67	34651.63
526.84	34433.96
527.01	34745.25
527.18	34892.71
527.36	35236.77
527.53	35302.30
527.70	35477.84
527.87	35316.34
528.04	35199.32
528.21	35374.86
528.38	34817.81
528.55	35339.75
528.72	35833.60
528.89	35676.79
529.07	35782.11
529.24	35440.39
529.41	35599.55
529.58	35534.01
529.75	35716.58
529.92	35840.62
530.09	35622.95
530.26	35838.28
530.43	35952.97
530.60	35672.10
530.77	36037.23
530.94	36151.91
531.11	36318.09
531.28	36301.71
531.46	36208.09
531.63	36739.39
531.80	36472.57
531.97	36322.77
532.14	36608.32
532.31	36505.34
532.48	36589.59
532.65	36943.02
532.82	36655.13
532.99	37069.40
533.16	36659.81
533.33	36910.25
533.50	36627.04
533.67	36730.03
533.84	37010.89
534.01	36491.29
534.18	37031.96
534.35	36790.88
534.52	37249.63
534.69	37003.87
534.86	36821.31
535.03	36788.54
535.20	37544.53
535.37	37612.41
535.54	37488.36
535.71	37350.27
535.88	37687.31
536.05	37399.42
536.22	37858.17
536.38	37495.38
536.55	37574.96
536.72	37909.66
536.89	37479.00
537.06	37846.46
537.23	38059.45
537.40	38246.69
537.57	37977.53
537.74	37979.87
537.91	38258.40
538.08	38237.33
538.25	37916.68
538.42	37979.87
538.59	38693.74
538.75	38199.88
538.92	38127.33
539.09	38396.49
539.26	38298.19
539.43	38429.26
539.60	38316.91
539.77	38480.75
539.94	38314.57
540.11	38871.62
540.28	38141.37
540.44	38766.29
540.61	38574.37
540.78	38703.10
540.95	38515.86
541.12	38665.65
541.29	38787.36
541.46	38735.87
541.62	38635.22
541.79	38639.90
541.96	39037.80
542.13	38834.17
542.30	38937.15
542.47	39112.69
542.63	39393.56
542.80	39405.26
542.97	39189.93
543.14	40030.18
543.31	39419.30
543.48	39625.27
543.64	40266.58
543.81	39917.84
543.98	39746.98
544.15	39693.15
544.32	40346.15
544.48	39739.96
544.65	39922.52
544.82	40142.53
544.99	39459.09
545.16	40147.21
545.32	40053.59
545.49	40411.69
545.66	40158.91
545.83	39974.01
546.00	40458.50
546.16	40477.22
546.33	40238.49
546.50	40084.01
546.67	40142.53
546.83	39992.73
547.00	40598.93
547.17	40060.61
547.34	40587.23
547.50	40509.99
547.67	40854.05
547.84	40900.86
548.00	40900.86
548.17	40879.80
548.34	40376.58
548.51	41240.24
548.67	41261.30
548.84	41003.85
549.01	40388.28
549.18	40928.95
549.34	40751.07
549.51	40875.12
549.68	41233.22
549.84	41237.90
550.01	41535.15
550.18	41106.83
550.34	41296.41
550.51	40577.87
550.68	41139.60
550.84	40634.04
551.01	41326.84
551.18	41390.03
551.34	41666.22
551.51	41605.36
551.68	41511.74
551.84	41647.49
552.01	41439.18
552.18	41418.12
552.34	41181.73
552.51	41570.25
552.68	41818.35
552.84	41383.01
553.01	41881.55
553.18	41457.91
553.34	41549.19
553.51	41502.38
553.67	41659.20
553.84	42253.69
554.01	42000.91
554.17	42279.44
554.34	41890.91
554.51	42117.94
554.67	42478.38
554.84	41975.17
555.00	41502.38
555.17	41647.49
555.33	41876.86
555.50	42263.05
555.67	41904.95
555.83	42127.30
556.00	42197.52
556.16	42340.29
556.33	42256.03
556.50	41876.86
556.66	42466.68
556.83	41858.14
556.99	42532.22
557.16	42192.84
557.32	42532.22
557.49	42618.81
557.65	41993.89
557.82	42635.20
557.98	42267.73
558.15	42511.15
558.32	43271.82
558.48	42422.21
558.65	42337.95
558.81	42265.39
558.98	42909.04
559.14	42651.58
559.31	42752.23
559.47	42529.87
559.64	42649.24
559.80	43278.85
559.97	42658.60
560.13	42595.41
560.30	42770.95
560.46	42815.42
560.63	43093.94
560.79	43077.56
560.96	43065.86
561.12	42803.72
561.29	42490.09
561.45	42745.20
561.61	42344.97
561.78	42909.04
561.94	42969.90
562.11	42979.26
562.27	42682.01
562.44	42754.57
562.60	43203.95
562.77	43325.66
562.93	42775.63
563.10	42850.53
563.26	43058.84
563.42	43152.46
563.59	43000.32
563.75	42717.12
563.92	43316.29
564.08	43203.95
564.24	43117.35
564.41	43395.87
564.57	42887.98
564.74	43372.47
564.90	43037.77
565.07	42941.81
565.23	43325.66
565.39	43203.95
565.56	43086.92
565.72	42899.68
565.88	43105.65
566.05	43407.58
566.21	43255.44
566.38	42923.08
566.54	43438.00
566.70	43449.70
566.87	43842.92
567.03	43098.62
567.19	43274.16
567.36	43737.59
567.52	43213.31
567.68	43922.49
567.85	43110.33
568.01	43543.33
568.17	43856.96
568.34	43758.66
568.50	43580.78
568.66	43517.58
568.83	43646.31
568.99	43386.51
569.15	43540.99
569.32	43084.58
569.48	43398.21
569.64	43938.88
569.81	43676.74
569.97	43604.18
570.13	43629.93
570.30	43276.51
570.46	43203.95
570.62	43047.13
570.78	43281.19
570.95	43658.01
571.11	43608.86
571.27	43550.35
571.43	43466.09
571.60	43690.78
571.76	43868.66
571.92	43503.54
572.09	43576.09
572.25	43470.77
572.41	43365.45
572.57	43421.62
572.74	44327.41
572.90	43529.28
573.06	43517.58
573.22	43681.42
573.38	43768.02
573.55	43555.03
573.71	43763.34
573.87	43831.21
574.03	43679.08
574.20	43831.21
574.36	43171.18
574.52	43585.46
574.68	43756.32
574.84	44105.06
575.01	44046.54
575.17	44081.65
575.33	43761.00
575.49	43597.16
575.65	44105.06
575.82	44296.98
575.98	43938.88
576.14	44069.95
576.30	44060.58
576.46	43519.92
576.62	43838.23
576.79	43559.71
576.95	43386.51
577.11	43885.04
577.27	44144.84
577.43	44048.88
577.59	43536.30
577.75	44004.41
577.92	43517.58
578.08	43777.38
578.24	43973.98
578.40	43941.22
578.56	43882.70
578.72	44091.01
578.88	44039.52
579.04	44165.91
579.21	43768.02
579.37	43552.69
579.53	43494.18
579.69	44004.41
579.85	43793.76
580.01	43903.77
580.17	44304.00
580.33	44254.85
580.49	44346.13
580.65	44514.65
580.82	44137.82
580.98	43775.04
581.14	44009.09
581.30	44046.54
581.46	43728.23
581.62	43941.22
581.78	43587.80
581.94	44631.68
582.10	44032.50
582.26	43901.43
582.42	44020.80
582.58	44299.32
582.74	43533.96
582.90	44186.97
583.06	44079.31
583.22	44046.54
583.38	43723.55
583.54	43866.32
583.70	43693.12
583.86	43892.07
584.02	43739.93
584.18	43768.02
584.34	44194.00
584.50	43983.35
584.66	43969.30
584.82	43880.36
584.98	44023.14
585.14	44093.35
585.30	43882.70
585.46	43903.77
585.62	44004.41
585.78	43655.67
585.94	43952.92
586.10	44058.24
586.26	43796.10
586.42	44079.31
586.58	44268.89
586.74	44357.83
586.90	43861.64
587.06	43571.41
587.22	44004.41
587.38	44266.55
587.54	43992.71
587.70	43964.62
587.86	44285.28
588.02	44357.83
588.18	44210.38
588.34	44100.37
588.49	43988.03
588.65	43924.83
588.81	44105.06
588.97	43819.51
589.13	44079.31
589.29	43920.15
589.45	44444.43
589.61	43955.26
589.77	43817.17
589.93	44308.68
590.08	44196.34
590.24	44126.12
590.40	44069.95
590.56	44339.11
590.72	44294.64
590.88	44123.78
591.04	44346.13
591.20	44762.75
591.35	44367.20
591.51	44610.61
591.67	44222.08
591.83	44664.44
591.99	44421.03
592.15	44168.25
592.31	44041.86
592.46	44334.43
592.62	44247.83
592.78	44318.04
592.94	44566.14
593.10	44577.84
593.26	44847.00
593.41	44100.37
593.57	44189.31
593.73	44065.27
593.89	44619.97
594.05	44435.07
594.20	44374.22
594.36	44481.88
594.52	44540.39
594.68	44224.42
594.84	44575.50
594.99	44893.82
595.15	44247.83
595.31	44519.33
595.47	44446.77
595.62	44486.56
595.78	44533.37
595.94	44781.47
596.10	44491.24
596.25	44467.84
596.41	44587.21
596.57	44355.49
596.73	44502.95
596.88	43758.66
597.04	44292.30
597.20	44334.43
597.36	44521.67
597.51	44978.07
597.67	44818.92
597.83	44463.16
597.99	44985.10
598.14	44315.70
598.30	44306.34
598.46	44552.10
598.61	44832.96
598.77	44320.38
598.93	44767.43
599.09	44133.14
599.24	45158.30
599.40	44879.77
599.56	44619.97
599.71	44685.51
599.87	44659.76
600.03	44744.02
600.18	44626.99
600.34	44346.13
600.50	44552.10
600.65	44439.75
600.81	44814.24
600.97	45223.83
601.12	45411.07
601.28	44641.04
601.44	44526.35
601.59	45106.80
601.75	44322.72
601.91	44648.06
602.06	44414.01
602.22	44666.78
602.37	44357.83
602.53	44697.21
602.69	44832.96
602.84	44751.04
603.00	44540.39
603.16	44318.04
603.31	44423.37
603.47	44421.03
603.62	44027.82
603.78	44636.36
603.94	44722.96
604.09	44985.10
604.25	44863.39
604.40	44268.89
604.56	44542.74
604.71	44868.07
604.87	44189.31
605.03	44516.99
605.18	44568.48
605.34	44304.00
605.49	43849.94
605.65	44694.87
605.80	44435.07
605.96	44634.02
606.12	44648.06
606.27	44643.38
606.43	44519.33
606.58	44699.55
606.74	44392.94
606.89	44339.11
607.05	44683.17
607.20	44570.82
607.36	44676.15
607.51	44706.57
607.67	44687.85
607.82	44516.99
607.98	44371.88
608.13	44023.14
608.29	44002.07
608.44	44027.82
608.60	44304.00
608.75	43803.13
608.91	43866.32
609.06	44018.46
609.22	44287.62
609.37	44526.35
609.53	44217.40
609.68	44069.95
609.84	44074.63
609.99	43999.73
610.15	43955.26
610.30	43875.68
610.46	43571.41
610.61	43899.09
610.76	44329.75
610.92	44325.07
611.07	43786.74
611.23	43807.81
611.38	43779.72
611.54	44151.87
611.69	43990.37
611.84	43714.19
612.00	44135.48
612.15	43662.69
612.31	43915.47
612.46	43917.81
612.62	44322.72
612.77	43377.15
612.92	43800.79
613.08	43700.14
613.23	43576.09
613.39	43585.46
613.54	43409.92
613.69	43552.69
613.85	43882.70
614.00	44020.80
614.15	43700.14
614.31	43983.35
614.46	44172.93
614.62	43786.74
614.77	43686.10
614.92	42916.06
615.08	43290.55
615.23	43569.07
615.38	43533.96
615.54	42990.96
615.69	43377.15
615.84	43028.41
616.00	43730.57
616.15	43468.43
616.30	43833.55
616.46	43393.53
616.61	43037.77
616.76	43159.48
616.92	43213.31
617.07	43037.77
617.22	42852.87
617.37	43454.39
617.53	43304.59
617.68	43707.16
617.83	43356.08
617.99	43093.94
618.14	42993.30
618.29	43189.91
618.45	42438.59
618.60	43239.06
618.75	42993.30
618.90	42995.64
619.06	43304.59
619.21	43217.99
619.36	42958.19
619.51	42817.76
619.67	42890.32
619.82	43344.38
619.97	42843.51
620.12	42569.66
620.28	42663.28
620.43	42679.67
620.58	42546.26
620.73	42389.44
620.89	42756.91
621.04	42775.63
621.19	42834.14
621.34	42316.89
621.49	42316.89
621.65	42387.10
621.80	42401.14
621.95	42686.69
622.10	42279.44
622.25	42742.86
622.41	42258.37
622.56	42359.02
622.71	42492.43
622.86	42504.13
623.01	42639.88
623.16	42363.70
623.32	42555.62
623.47	42583.71
623.62	42335.61
623.77	42136.66
623.92	42490.09
624.07	42457.32
624.23	42092.19
624.38	42323.91
624.53	42174.11
624.68	42550.94
624.83	41956.44
624.98	42469.02
625.13	41853.46
625.29	41954.10
625.44	42349.65
625.59	41790.27
625.74	41626.43
625.89	41729.41
626.04	41642.81
626.19	41792.61
626.34	41888.57
626.49	42190.50
626.65	41883.89
626.80	41776.22
626.95	41301.09
627.10	41586.64
627.25	41546.85
627.40	41200.45
627.55	41570.25
627.70	41340.88
627.85	41621.75
628.00	41177.04
628.15	41958.78
628.30	41741.11
628.45	41591.32
628.60	41368.97
628.76	41530.47
628.91	41567.91
629.06	41439.18
629.21	41350.24
629.36	41205.13
629.51	41343.22
629.66	41024.91
629.81	40870.43
629.96	41535.15
630.11	41188.75
630.26	41446.21
630.41	41488.34
630.56	41064.70
630.71	41216.83
630.86	41144.28
631.01	41074.06
631.16	40996.82
631.31	40463.18
631.46	40540.42
631.61	41113.85
631.76	40886.82
631.91	40947.67
632.06	41038.95
632.21	40914.90
632.36	40627.02
632.51	40858.73
632.66	40697.24
632.81	40219.77
632.96	40891.50
633.10	40449.14
633.25	40783.83
633.40	40477.22
633.55	40870.43
633.70	40528.72
633.85	40851.71
634.00	40465.52
634.15	40477.22
634.30	40271.26
634.45	40289.98
634.60	40257.21
634.75	40357.86
634.90	40168.27
635.05	40449.14
635.19	40205.72
635.34	40926.61
635.49	40720.64
635.64	40191.68
635.79	40538.08
635.94	40224.45
636.09	39950.60
636.24	40233.81
636.39	39896.77
636.53	40191.68
636.68	39800.81
636.83	39688.46
636.98	40002.10
637.13	39639.31
637.28	40109.76
637.43	40472.54
637.57	40367.22
637.72	39817.19
637.87	40074.65
638.02	39601.86
638.17	39950.60
638.32	39824.22
638.46	39569.10
638.61	39447.39
638.76	39241.42
638.91	39494.20
639.06	39819.53
639.20	39789.11
639.35	39856.98
639.50	39292.91
639.65	39852.30
639.80	39934.22
639.94	39159.50
640.09	39276.53
640.24	39203.97
640.39	38808.42
640.54	39171.21
640.68	39421.64
640.83	38602.46
640.98	39012.05
641.13	38983.96
641.27	39236.74
641.42	39021.41
641.57	39594.84
641.72	39342.06
641.86	38754.59
642.01	39166.52
642.16	39194.61
642.31	38869.28
642.45	39086.95
642.60	38632.88
642.75	39054.18
642.90	39072.90
643.04	38707.78
643.19	39009.71
643.34	39180.57
643.48	39218.02
643.63	39180.57
643.78	38735.87
643.93	38923.11
644.07	38726.50
644.22	38560.33
644.37	38499.47
644.51	38492.45
644.66	38754.59
644.81	38899.70
644.95	38609.48
645.10	39100.99
645.25	39255.46
645.39	38909.07
645.54	39063.54
645.69	38946.51
645.83	38284.14
645.98	38377.76
646.13	38576.71
646.27	38663.31
646.42	38504.15
646.57	38478.41
646.71	38703.10
646.86	39068.22
647.00	38653.95
647.15	38026.68
647.30	38616.50
647.44	38363.72
647.59	38515.86
647.74	38625.86
647.88	38061.79
648.03	38213.93
648.17	38040.73
648.32	38043.07
648.47	38024.34
648.61	37647.52
648.76	38555.64
648.90	38359.04
649.05	38148.39
649.20	38251.38
649.34	37965.83
649.49	37785.61
649.63	37951.79
649.78	37837.10
649.92	37745.82
650.07	38146.05
650.21	37759.86
650.36	37530.49
650.51	37818.38
650.65	37881.57
650.80	38162.43
650.94	38157.75
651.09	38099.24
651.23	37591.34
651.38	37558.58
651.52	37385.38
651.67	37670.92
651.81	37722.41
651.96	37378.36
652.10	37670.92
652.25	37603.05
652.39	37202.82
652.54	37771.57
652.68	37532.83
652.83	37635.81
652.97	37181.75
653.12	37432.19
653.26	37284.73
653.41	37565.60
653.55	37532.83
653.70	37141.96
653.84	37284.73
653.99	37659.22
654.13	37427.51
654.27	37062.38
654.42	37504.74
654.56	37273.03
654.71	37298.78
654.85	36945.36
655.00	36947.70
655.14	36479.59
655.29	36662.15
655.43	36388.31
655.57	36758.11
655.72	36451.50
655.86	36556.83
656.01	36531.08
656.15	36877.48
656.30	36825.99
656.44	36837.69
656.58	36510.02
656.73	36247.88
656.87	36467.89
657.01	36549.81
657.16	36086.38
657.30	36383.63
657.45	36067.66
657.59	36236.17
657.73	36325.11
657.88	36297.03
658.02	36699.60
658.16	36210.43
658.31	36336.82
658.45	36425.76
658.60	36322.77
658.74	36320.43
658.88	36486.61
659.03	36037.23
659.17	36011.48
659.31	36215.11
659.46	35924.88
659.60	35885.09
659.74	35948.29
659.89	36030.21
660.03	35819.56
660.17	36070.00
660.32	35644.02
660.46	35948.29
660.60	35690.83
660.74	36137.87
660.89	35981.06
661.03	35590.19
661.17	35648.70
661.32	35515.29
661.46	35449.75
661.60	35501.25
661.74	35328.05
661.89	35171.23
662.03	35625.29
662.17	35119.74
662.31	35225.06
662.46	35477.84
662.60	35393.58
662.74	35211.02
662.88	35033.14
663.03	34941.86
663.17	35211.02
663.31	34948.88
663.45	34796.74
663.60	34693.76
663.74	34651.63
663.88	34412.90
664.02	34548.65
664.17	34696.10
664.31	34588.44
664.45	34579.07
664.59	34724.19
664.73	34539.29
664.88	34653.97
665.02	33827.76
665.16	34363.75
665.30	34120.33
665.44	33696.69
665.59	34099.26
665.73	34103.95
665.87	33684.99
666.01	34127.35
666.15	34000.96
666.29	34017.35
666.44	33902.66
666.58	33773.93
666.72	33848.83
666.86	34005.64
667.00	33905.00
667.14	33535.20
667.28	33457.96
667.43	33593.71
667.57	33596.05
667.71	33062.41
667.85	33446.26
667.99	33640.52
668.13	32964.10
668.27	33333.91
668.41	32858.78
668.56	32767.50
668.70	33315.19
668.84	33322.21
668.98	33017.94
669.12	32683.24
669.26	32699.62
669.40	32498.34
669.54	32594.30
669.68	32783.88
669.82	32662.18
669.96	32446.85
670.10	32388.33
670.25	32570.90
670.39	32430.46
670.53	32411.74
670.67	32491.32
670.81	32341.52
670.95	32498.34
671.09	32240.88
671.23	32194.07
671.37	32416.42
671.51	32088.74
671.65	31505.95
671.79	31658.09
671.93	31541.06
672.07	32039.59
672.21	31899.16
672.35	31433.39
672.49	31496.59
672.63	31665.11
672.77	31094.02
672.91	31608.93
673.05	31367.86
673.19	31068.27
673.33	31433.39
673.47	31108.06
673.61	31030.82
673.75	30843.58
673.89	30508.88
674.03	30855.28
674.17	30799.11
674.31	30579.10
674.45	30581.44
674.59	30965.29
674.73	30738.26
674.87	30576.76
675.01	31091.68
675.15	30686.76
675.29	30583.78
675.43	30368.45
675.56	30286.53
675.70	30597.82
675.84	29972.90
675.98	29310.53
676.12	29963.54
676.26	29518.84
676.40	29516.50
676.54	29584.37
676.68	29394.79
676.82	28896.25
676.96	29343.30
677.10	29212.23
677.23	29081.16
677.37	29544.58
677.51	28725.39
677.65	28545.17
677.79	28655.18
677.93	28872.85
678.07	28498.36
678.21	28521.77
678.34	28393.04
678.48	28381.34
678.62	28507.72
678.76	28350.91
678.90	28060.68
679.04	27899.19
679.18	28245.58
679.31	28013.87
679.45	27723.65
679.59	27538.74
679.73	27819.61
679.87	27721.30
680.00	27529.38
680.14	27311.71
680.28	27328.10
680.42	27075.32
680.56	27381.93
680.70	27040.21
680.83	26668.06
680.97	26792.11
681.11	26974.67
681.25	26679.77
681.39	26902.12
681.52	26717.22
681.66	26855.31
681.80	26635.30
681.94	26040.80
682.07	26314.64
682.21	26274.85
682.35	26101.65
682.49	26424.65
682.62	26284.22
682.76	25865.26
682.90	25970.58
683.04	25865.26
683.17	25720.15
683.31	25685.04
683.45	25928.45
683.59	25322.26
683.72	25193.53
683.86	24936.07
684.00	24816.70
684.13	25163.10
684.27	25263.74
684.41	25048.41
684.55	24641.16
684.68	24489.03
684.82	24556.90
684.96	24521.79
685.09	24388.38
685.23	24315.83
685.37	24339.23
685.50	24142.63
685.64	24313.48
685.78	24135.60
685.91	24163.69
686.05	24013.90
686.19	23449.83
686.32	23407.70
686.46	23452.17
686.60	23316.42
686.73	23323.44
686.87	23314.08
687.01	22941.93
687.14	23000.44
687.28	22955.97
687.42	22986.40
687.55	22895.12
687.69	22888.10
687.82	22707.88
687.96	22604.89
688.10	22750.01
688.23	22511.27
688.37	22647.02
688.50	22129.77
688.64	22068.91
688.78	22162.53
688.91	21692.08
689.05	22356.80
689.18	21923.80
689.32	21811.45
689.46	21886.35
689.59	22199.98
689.73	21968.27
689.86	21558.67
690.00	21427.60
690.13	21483.78
690.27	21406.54
690.41	21238.02
690.54	20835.45
690.68	20879.92
690.81	20688.00
690.95	21149.08
691.08	20800.34
691.22	20854.17
691.35	20582.67
691.49	20915.03
691.62	20805.02
691.76	20659.91
691.89	20322.87
692.03	20149.67
692.16	20060.73
692.30	20257.34
692.43	19639.44
692.57	20034.99
692.70	19936.68
692.84	19700.29
692.97	19594.96
693.11	19356.23
693.24	19578.58
693.38	19407.72
693.51	19246.23
693.65	19477.94
693.78	19484.96
693.92	19066.00
694.05	19119.84
694.19	19143.24
694.32	19164.31
694.45	19152.60
694.59	18916.21
694.72	18874.08
694.86	18824.93
694.99	18616.62
695.13	18560.45
695.26	18267.88
695.39	17891.06
695.53	18197.67
695.66	18211.71
695.80	18174.26
695.93	17980.00
696.07	17869.99
696.20	17757.64
696.33	17745.94
696.47	17860.63
696.60	18043.19
696.73	18008.08
696.87	17390.18
697.00	17797.43
697.14	17687.43
697.27	17678.07
697.40	17310.60
697.54	17565.72
697.67	16741.85
697.80	17001.65
697.94	16945.48
698.07	17027.40
698.21	16428.22
698.34	16755.90
698.47	16926.75
698.61	16645.89
698.74	16587.38
698.87	16521.84
699.01	16444.60
699.14	16175.44
699.27	16266.72
699.40	16224.59
699.54	16126.29
699.67	16072.46
699.80	15793.94
699.94	15775.21
700.07	15838.41
700.20	15805.64
700.34	15686.27
700.47	15665.21
700.60	15747.12
700.73	15431.15
700.87	15726.06
701.00	15372.64
701.13	15503.71
701.26	15372.64
701.40	15272.00
701.53	15126.88
701.66	15227.53
701.79	15019.22
701.93	15051.99
702.06	14895.17
702.19	14754.74
702.32	14794.53
702.46	14956.02
702.59	14532.39
702.72	14384.93
702.85	14466.85
702.99	14504.30
703.12	14611.96
703.25	14286.63
703.38	14345.14
703.51	14260.88
703.65	14141.52
703.78	14029.17
703.91	13935.55
704.04	14068.96
704.17	14071.30
704.31	13858.31
704.44	13570.43
704.57	13729.58
704.70	13462.76
704.83	13500.21
704.96	13481.49
705.10	13554.04
705.23	13570.43
>>>>>End Processed Spectral Data<<<<<
