SpectraSuite Data File
++++++++++++++++++++++++++++++++++++
Date: Fri Oct 25 11:26:29 EDT 2013
User: price-jones
Dark Spectrum Present: No
Reference Spectrum Present: No
Number of Sampled Component Spectra: 1
Spectrometers: USB2+H05261
Integration Time (usec): 100000 (USB2+H05261)
Spectra Averaged: 1 (USB2+H05261)
Boxcar Smoothing: 0 (USB2+H05261)
Correct for Electrical Dark: No (USB2+H05261)
Strobe/Lamp Enabled: No (USB2+H05261)
Correct for Detector Non-linearity: No (USB2+H05261)
Correct for Stray Light: No (USB2+H05261)
Number of Pixels in Processed Spectrum: 2048
>>>>>Begin Processed Spectral Data<<<<<
365.73	236.39
365.92	236.39
366.12	236.39
366.32	191.92
366.52	180.22
366.72	142.77
366.91	119.37
367.11	81.92
367.31	234.05
367.51	201.29
367.70	191.92
367.90	121.71
368.10	187.24
368.30	159.16
368.49	191.92
368.69	161.50
368.89	133.41
369.09	154.48
369.28	234.05
369.48	147.45
369.68	124.05
369.87	154.48
370.07	184.90
370.27	299.59
370.47	304.27
370.66	624.92
370.86	617.90
371.06	613.22
371.25	734.93
371.45	587.47
371.65	753.65
371.84	681.10
372.04	699.82
372.24	748.97
372.44	671.73
372.63	711.52
372.83	826.21
373.03	823.87
373.22	748.97
373.42	814.51
373.62	788.76
373.81	727.91
374.01	856.64
374.21	826.21
374.40	809.83
374.60	840.25
374.79	746.63
374.99	847.27
375.19	837.91
375.38	926.85
375.58	919.83
375.78	884.72
375.97	861.32
376.17	884.72
376.37	858.98
376.56	868.34
376.76	826.21
376.95	903.45
377.15	894.08
377.35	919.83
377.54	891.74
377.74	917.49
377.93	894.08
378.13	889.40
378.33	887.06
378.52	891.74
378.72	964.30
378.91	950.26
379.11	945.58
379.31	873.02
379.50	938.55
379.70	1015.79
379.89	1032.18
380.09	901.11
380.28	961.96
380.48	1006.43
380.68	987.71
380.87	1076.65
381.07	1086.01
381.26	1240.48
381.46	968.98
381.65	997.07
381.85	1022.81
382.04	1006.43
382.24	1041.54
382.43	1090.69
382.63	1132.82
382.83	1055.58
383.02	1078.99
383.22	1062.60
383.41	1071.97
383.61	1086.01
383.80	1200.69
384.00	1123.46
384.19	1125.80
384.39	1205.38
384.58	1107.07
384.78	1151.54
384.97	1116.44
385.17	1128.14
385.36	1160.91
385.56	1235.80
385.75	1174.95
385.95	1203.04
386.14	1306.02
386.34	1123.46
386.53	1228.78
386.72	1170.27
386.92	1188.99
387.11	1198.35
387.31	1296.66
387.50	1200.69
387.70	1179.63
387.89	1247.51
388.09	1266.23
388.28	1247.51
388.48	1301.34
388.67	1303.68
388.86	1355.17
389.06	1338.79
389.25	1336.45
389.45	1352.83
389.64	1366.87
389.84	1348.15
390.03	1366.87
390.22	1399.64
390.42	1413.68
390.61	1404.32
390.81	1320.06
391.00	1423.05
391.19	1528.37
391.39	1439.43
391.58	1416.02
391.78	1488.58
391.97	1432.41
392.16	1465.18
392.36	1507.30
392.55	1488.58
392.75	1465.18
392.94	1514.33
393.13	1474.54
393.33	1432.41
393.52	1521.35
393.71	1619.65
393.91	1495.60
394.10	1540.07
394.29	1629.01
394.49	1713.27
394.68	1668.80
394.88	1668.80
395.07	1732.00
395.26	1577.52
395.46	1614.97
395.65	1741.36
395.84	1668.80
396.04	1760.08
396.23	1736.68
396.42	1771.79
396.62	1746.04
396.81	1774.13
397.00	1727.32
397.19	1795.19
397.39	1748.38
397.58	1856.04
397.77	1902.86
397.97	1802.21
398.16	1870.09
398.35	1823.28
398.55	1844.34
398.74	1921.58
398.93	1998.82
399.12	1827.96
399.32	1905.20
399.51	1858.39
399.70	2008.18
399.90	1973.07
400.09	1909.88
400.28	1980.09
400.47	1956.69
400.67	2040.95
400.86	2043.29
401.05	1956.69
401.24	2090.10
401.44	2094.78
401.63	2162.66
401.82	2143.93
402.01	2059.67
402.21	2122.87
402.40	2216.49
402.59	2136.91
402.78	2204.78
402.97	2216.49
403.17	2279.68
403.36	2232.87
403.55	2279.68
403.74	2335.85
403.93	2314.79
404.13	2377.98
404.32	2282.02
404.51	2328.83
404.70	2401.39
404.89	2408.41
405.09	2415.43
405.28	2438.84
405.47	2492.67
405.66	2480.97
405.85	2424.80
406.05	2583.95
406.24	2593.31
406.43	2539.48
406.62	2619.06
406.81	2581.61
407.00	2665.87
407.20	2520.76
407.39	2480.97
407.58	2710.34
407.77	2766.51
407.96	2780.56
408.15	2700.98
408.34	2705.66
408.54	2991.20
408.73	2801.62
408.92	2689.28
409.11	2864.82
409.30	2862.48
409.49	2928.01
409.68	2883.54
409.87	2883.54
410.07	3040.36
410.26	2853.11
410.45	3068.44
410.64	3084.83
410.83	3166.74
411.02	3126.96
411.21	3215.90
411.40	3105.89
411.59	3141.00
411.78	3255.69
411.98	3307.18
412.17	3255.69
412.36	3318.88
412.55	3332.92
412.74	3382.07
412.93	3269.73
413.12	3262.71
413.31	3417.18
413.50	3449.95
413.69	3403.14
413.88	3566.98
414.07	3506.12
414.26	3630.17
414.45	3698.05
414.64	3693.37
414.83	3686.34
415.02	3843.16
415.22	3775.28
415.41	3939.12
415.60	3815.07
415.79	3911.04
415.98	3964.87
416.17	3904.01
416.36	4016.36
416.55	4128.70
416.74	4025.72
416.93	3950.82
417.12	4173.18
417.31	4088.92
417.50	4081.89
417.69	4259.78
417.88	4170.83
418.07	4196.58
418.26	4311.27
418.45	4379.14
418.64	4468.08
418.83	4444.68
419.02	4369.78
419.21	4280.84
419.39	4428.29
419.58	4482.13
419.77	4322.97
419.96	4486.81
420.15	4535.96
420.34	4491.49
420.53	4568.73
420.72	4805.12
420.91	4620.22
421.10	4863.63
421.29	4751.29
421.48	4512.55
421.67	4795.76
421.86	4744.27
422.05	4737.24
422.24	4695.11
422.43	4856.61
422.61	4842.57
422.80	5029.81
422.99	4894.06
423.18	5093.01
423.37	5093.01
423.56	4858.95
423.75	4959.60
423.94	4894.06
424.13	4510.21
424.32	4826.18
424.50	4947.89
424.69	4987.68
424.88	5036.83
425.07	5093.01
425.26	4858.95
425.45	5132.79
425.64	4896.40
425.83	4947.89
426.01	4910.44
426.20	5111.73
426.39	4912.78
426.58	4924.49
426.77	5057.90
426.96	5172.58
427.15	5137.48
427.33	5135.14
427.52	5034.49
427.71	5341.10
427.90	5165.56
428.09	5313.02
428.28	5268.55
428.46	5380.89
428.65	5364.51
428.84	5476.85
429.03	5579.84
429.22	5341.10
429.40	5448.77
429.59	5446.43
429.78	5394.93
429.97	5324.72
430.16	5490.90
430.34	5645.37
430.53	5631.33
430.72	5626.65
430.91	5619.63
431.10	5490.90
431.28	5743.67
431.47	5804.53
431.66	5746.02
431.85	5825.59
432.03	5893.47
432.22	5872.40
432.41	5851.34
432.60	5823.25
432.79	6045.60
432.97	6005.81
433.16	6015.18
433.35	5907.51
433.54	5987.09
433.72	6038.58
433.91	6167.31
434.10	6094.76
434.28	5984.75
434.47	6188.38
434.66	6143.91
434.85	6202.42
435.03	6370.94
435.22	6310.08
435.41	6459.88
435.59	6363.92
435.78	6384.98
435.97	6436.47
436.16	6534.78
436.34	6422.43
436.53	6509.03
436.72	6462.22
436.90	6459.88
437.09	6691.59
437.28	6392.00
437.46	6523.07
437.65	6700.95
437.84	6705.63
438.02	6630.74
438.21	6612.01
438.40	6654.14
438.58	6899.90
438.77	7084.80
438.96	6780.53
439.14	6963.09
439.33	7084.80
439.52	6960.75
439.70	7321.20
439.89	7180.76
440.08	7187.79
440.26	7363.33
440.45	7375.03
440.63	7393.75
440.82	7527.16
441.01	7581.00
441.19	7712.07
441.38	7728.45
441.57	7588.02
441.75	7737.81
441.94	7833.77
442.12	8060.80
442.31	7962.50
442.50	8037.40
442.68	7857.18
442.87	7943.78
443.05	8032.72
443.24	7967.18
443.43	7976.55
443.61	8116.98
443.80	8311.24
443.98	7833.77
444.17	7686.32
444.35	8152.09
444.54	8278.47
444.73	8191.88
444.91	8168.47
445.10	8259.75
445.28	8276.13
445.47	8234.00
445.65	8287.84
445.84	8269.11
446.02	8449.33
446.21	8388.48
446.39	8346.35
446.58	8336.99
446.77	8372.10
446.95	8184.85
447.14	8292.52
447.32	8489.12
447.51	8257.41
447.69	8486.78
447.88	8290.18
448.06	8327.63
448.25	8393.16
448.43	8344.01
448.62	8482.10
448.80	8688.07
448.99	8720.84
449.17	8528.91
449.36	8526.57
449.54	8884.67
449.73	8566.36
449.91	8929.14
450.10	8931.48
450.28	8968.93
450.46	9179.58
450.65	9076.60
450.83	8961.91
451.02	8919.78
451.20	9104.68
451.39	8910.42
451.57	8950.21
451.76	8938.51
451.94	9109.36
452.13	9137.45
452.31	9399.59
452.49	9430.02
452.68	9446.40
452.86	9296.61
453.05	9343.42
453.23	9221.71
453.42	9392.57
453.60	9109.36
453.78	9261.50
453.97	9460.45
454.15	9678.12
454.34	9458.10
454.52	9593.86
454.70	9535.34
454.89	9755.35
455.07	9518.96
455.26	10001.11
455.44	9722.59
455.62	9731.95
455.81	10155.58
455.99	9825.57
456.17	9933.23
456.36	9947.28
456.54	10024.51
456.73	10181.33
456.91	10693.91
457.09	10361.55
457.28	10572.20
457.46	10097.07
457.64	10427.09
457.83	10394.32
458.01	10506.66
458.19	10768.80
458.38	10291.34
458.56	10628.37
458.74	10356.87
458.93	10689.23
459.11	10523.05
459.29	10635.39
459.48	10782.85
459.66	10796.89
459.84	10745.40
460.03	10899.87
460.21	10995.84
460.39	10977.11
460.57	11028.60
460.76	11077.76
460.94	11059.03
461.12	11309.47
461.31	11098.82
461.49	11037.97
461.67	11096.48
461.85	11470.97
462.04	11040.31
462.22	11695.66
462.40	11552.88
462.59	11501.39
462.77	11445.22
462.95	11538.84
463.13	11419.47
463.32	11583.31
463.50	11611.40
463.68	11632.46
463.86	11726.08
464.05	11473.31
464.23	11595.01
464.41	11910.99
464.59	11616.08
464.78	11845.45
464.96	11838.43
465.14	11580.97
465.32	12037.38
465.50	12053.76
465.69	11978.86
465.87	12028.01
466.05	11957.80
466.23	12156.74
466.41	12287.81
466.60	12210.57
466.78	12018.65
466.96	12123.98
467.14	12009.29
467.32	12311.22
467.51	12393.14
467.69	12051.42
467.87	12442.29
468.05	12650.60
468.23	12177.81
468.41	12187.17
468.60	12725.49
468.78	12767.62
468.96	12514.84
469.14	12531.23
469.32	12613.15
469.50	12812.09
469.69	13032.10
469.87	13046.15
470.05	12807.41
470.23	12978.27
470.41	13163.17
470.59	13280.20
470.77	13202.96
470.95	13069.55
471.14	13425.31
471.32	13050.83
471.50	13544.68
471.68	13394.89
471.86	13504.89
472.04	13621.92
472.22	13970.66
472.40	13619.58
472.58	13935.55
472.77	13771.71
472.95	13689.79
473.13	14335.78
473.31	14120.45
473.49	14097.05
473.67	14090.02
473.85	14239.82
474.03	14689.20
474.21	14618.99
474.39	14518.34
474.57	14511.32
474.75	14839.00
474.93	14810.91
475.12	14569.83
475.30	14949.00
475.48	14941.98
475.66	14949.00
475.84	15201.78
476.02	15442.85
476.20	15419.45
476.38	15831.38
476.56	15756.49
476.74	15859.47
476.92	15468.60
477.10	15475.62
477.28	16163.74
477.46	16067.78
477.64	16130.97
477.82	16421.20
478.00	16702.06
478.18	16578.01
478.36	16760.58
478.54	17015.69
478.72	16982.93
478.90	17219.32
479.08	17420.61
479.26	17762.33
479.44	17626.57
479.62	17750.62
479.80	17855.95
479.98	17902.76
480.16	18548.75
480.34	18216.39
480.52	18422.36
480.70	18363.84
480.88	18295.97
481.06	18377.89
481.24	18625.98
481.41	19344.53
481.59	19070.68
481.77	19124.52
481.95	19393.68
482.13	19683.91
482.31	19536.45
482.49	20269.04
482.67	19845.40
482.85	20327.55
483.03	20503.09
483.21	20552.24
483.39	20570.97
483.57	20510.11
483.74	20989.92
483.92	21273.13
484.10	21216.96
484.28	21537.61
484.46	21862.94
484.64	22256.15
484.82	21565.70
485.00	22192.96
485.18	22546.38
485.35	22841.29
485.53	22965.34
485.71	22705.54
485.89	23281.31
486.07	22878.74
486.25	23035.55
486.43	23309.40
486.61	23924.96
486.78	24077.09
486.96	24166.03
487.14	24341.57
487.32	24404.77
487.50	25006.28
487.68	24875.21
487.85	25233.32
488.03	25390.13
488.21	25553.97
488.39	25717.81
488.57	25799.73
488.75	26092.29
488.92	26272.51
489.10	26305.28
489.28	26710.19
489.46	27007.44
489.64	26869.35
489.81	27470.87
489.99	27309.37
490.17	27711.94
490.35	27941.32
490.53	28056.00
490.70	28025.57
490.88	28147.28
491.06	28463.25
491.24	28507.72
491.41	28919.66
491.59	29340.96
491.77	28964.13
491.95	29570.33
492.13	29685.01
492.30	29855.87
492.48	30012.69
492.66	29804.38
492.84	30157.80
493.01	30417.60
493.19	30452.71
493.37	30845.92
493.54	30686.76
493.72	31775.11
493.90	30782.73
494.08	31477.86
494.25	31597.23
494.43	31749.37
494.61	31585.53
494.79	32128.53
494.96	32320.46
495.14	32430.46
495.32	32987.51
495.49	32877.51
495.67	33455.62
495.85	33221.56
496.02	33242.63
496.20	33579.67
496.38	33750.52
496.55	34059.48
496.73	34501.84
496.91	34602.48
497.09	34632.91
497.26	34412.90
497.44	34679.72
497.62	35014.41
497.79	35501.25
497.97	35299.96
498.14	35777.43
498.32	35704.87
498.50	35882.75
498.67	36198.73
498.85	36016.16
499.03	36538.10
499.20	36470.23
499.38	36858.76
499.56	36863.44
499.73	37139.62
499.91	37198.13
500.08	37631.13
500.26	37368.99
500.44	37439.21
500.61	37298.78
500.79	37570.28
500.97	37958.81
501.14	38583.73
501.32	38330.95
501.49	38113.28
501.67	38190.52
501.84	38876.30
502.02	38506.49
502.20	38745.23
502.37	38899.70
502.55	39054.18
502.72	39185.25
502.90	39519.95
503.07	39679.10
503.25	39302.28
503.43	39316.32
503.60	39487.18
503.78	39688.46
503.95	39943.58
504.13	40336.79
504.30	40161.25
504.48	40306.37
504.65	40549.78
504.83	41034.27
505.01	40587.23
505.18	40854.05
505.36	41296.41
505.53	41200.45
505.71	41226.20
505.88	41645.15
506.06	41268.33
506.23	41612.38
506.41	41731.75
506.58	41865.16
506.76	41574.94
506.93	42443.27
507.11	42033.68
507.28	42155.39
507.46	42543.92
507.63	42656.26
507.81	43269.48
507.98	42850.53
508.16	42422.21
508.33	43339.70
508.50	43370.13
508.68	43498.86
508.85	43702.48
509.03	43679.08
509.20	43824.19
509.38	44034.84
509.55	44009.09
509.73	44196.34
509.90	44376.56
510.08	44369.54
510.25	44545.08
510.42	44486.56
510.60	44952.33
510.77	44809.56
510.95	45322.13
511.12	44655.08
511.30	45006.16
511.47	45172.34
511.64	45373.63
511.82	45511.72
511.99	45401.71
512.17	45172.34
512.34	45507.04
512.51	46160.05
512.69	46232.60
512.86	46061.74
513.04	46546.23
513.21	46497.08
513.38	46377.72
513.56	47086.90
513.73	46508.79
513.90	46639.86
514.08	46583.68
514.25	47065.83
514.43	47140.73
514.60	47302.23
514.77	47000.30
514.95	47468.40
515.12	47093.92
515.29	47604.16
515.47	47583.09
515.64	47592.45
515.81	47756.29
515.99	47828.85
516.16	48109.71
516.33	48245.46
516.51	48133.12
516.68	47962.26
516.85	48175.25
517.03	48404.62
517.20	48584.84
517.37	48554.41
517.54	48713.57
517.72	48626.97
517.89	48744.00
518.06	48980.39
518.24	48996.77
518.41	48809.53
518.58	49195.72
518.75	49118.48
518.93	49179.34
519.10	48877.41
519.27	49612.34
519.45	49029.54
519.62	49940.01
519.79	49844.05
519.96	49874.48
520.14	50092.15
520.31	49759.79
520.48	50134.28
520.65	50005.55
520.83	50274.71
521.00	50234.92
521.17	50487.70
521.34	50483.01
521.52	50389.39
521.69	50532.17
521.86	50674.94
522.03	51035.38
522.20	50780.26
522.38	51075.17
522.55	51215.60
522.72	50962.82
522.89	51196.88
523.07	51442.63
523.24	51337.31
523.41	51283.48
523.58	50983.89
523.75	51559.66
523.92	51611.15
524.10	51597.11
524.27	51566.68
524.44	52046.49
524.61	51784.35
524.78	51714.14
524.96	51700.09
525.13	51695.41
525.30	52037.13
525.47	52594.18
525.64	52229.05
525.81	52303.95
525.98	52266.50
526.16	52378.85
526.33	52755.68
526.50	52694.82
526.67	52495.88
526.84	52893.77
527.01	52402.25
527.18	52856.32
527.36	52655.03
527.53	52774.40
527.70	52928.87
527.87	53254.21
528.04	52928.87
528.21	53139.52
528.38	53240.17
528.55	53406.34
528.72	53249.53
528.89	53214.42
529.07	53034.20
529.24	53195.70
529.41	53167.61
529.58	53366.55
529.75	53586.57
529.92	53588.91
530.09	53591.25
530.26	53808.92
530.43	53570.18
530.60	53647.42
530.77	53570.18
530.94	53736.36
531.11	53621.67
531.28	53766.79
531.46	54073.40
531.63	54082.76
531.80	53902.54
531.97	54106.16
532.14	54422.14
532.31	54192.76
532.48	54145.95
532.65	54569.59
532.82	54244.26
532.99	54522.78
533.16	54253.62
533.33	54471.29
533.50	54686.62
533.67	54581.29
533.84	54323.83
534.01	54850.45
534.18	54646.83
534.35	55021.31
534.52	54506.40
534.69	54862.16
534.86	55161.75
535.03	54726.41
535.20	54930.03
535.37	55222.60
535.54	55138.34
535.71	55267.07
535.88	55238.98
536.05	55278.77
536.22	55540.91
536.38	55440.27
536.55	55295.16
536.72	55372.39
536.89	55159.41
537.06	55466.02
537.23	55426.23
537.40	55576.02
537.57	55318.56
537.74	55739.86
537.91	55519.85
538.08	55660.28
538.25	55412.18
538.42	55512.83
538.59	56086.26
538.75	55695.39
538.92	55896.67
539.09	55920.08
539.26	55908.38
539.43	55985.61
539.60	56210.31
539.77	56273.50
539.94	56210.31
540.11	56142.43
540.28	56252.44
540.44	56488.83
540.61	56296.91
540.78	56275.84
540.95	56048.81
541.12	56114.34
541.29	56210.31
541.46	56446.70
541.62	56399.89
541.79	56390.53
541.96	56154.13
542.13	56453.72
542.30	56479.47
542.47	56739.27
542.63	56753.31
542.80	56582.45
542.97	56886.72
543.14	56879.70
543.31	56975.66
543.48	56935.87
543.64	56940.55
543.81	57268.23
543.98	57095.03
544.15	57207.37
544.32	57258.87
544.48	57584.20
544.65	57331.42
544.82	57116.09
544.99	57174.61
545.16	57347.81
545.32	57202.69
545.49	57574.84
545.66	57378.23
545.83	57422.70
546.00	57600.58
546.16	57453.13
546.33	57265.89
546.50	57312.70
546.67	57474.20
546.83	57144.18
547.00	57443.77
547.17	57368.87
547.34	57736.34
547.50	57600.58
547.67	57961.03
547.84	57593.56
548.00	57820.59
548.17	58028.90
548.34	57717.61
548.51	57876.77
548.67	57853.36
548.84	57771.44
549.01	57621.65
549.18	57904.85
549.34	58021.88
549.51	58122.52
549.68	58241.89
549.84	57982.09
550.01	58239.55
550.18	58108.48
550.34	58298.06
550.51	58330.83
550.68	58335.51
550.84	58066.35
551.01	58438.50
551.18	58204.44
551.34	58211.46
551.51	58330.83
551.68	58401.05
551.84	58489.99
552.01	58117.84
552.18	58384.66
552.34	58312.11
552.51	58438.50
552.68	58459.56
552.84	58576.59
553.01	58611.70
553.18	58529.78
553.34	58728.72
553.51	58639.78
553.67	58719.36
553.84	58611.70
554.01	58564.88
554.17	58841.07
554.34	59000.22
554.51	58983.84
554.67	58976.82
554.84	58857.45
555.00	58871.49
555.17	58965.12
555.33	58883.20
555.50	58595.31
555.67	58742.77
555.83	58812.98
556.00	59037.67
556.16	59164.06
556.33	59100.87
556.50	59049.38
556.66	59079.80
556.83	58908.94
556.99	59325.56
557.16	59241.30
557.32	59451.95
557.49	59323.22
557.65	59143.00
557.82	59243.64
557.98	58953.41
558.15	59166.40
558.32	59391.09
558.48	59297.47
558.65	59540.89
558.81	59320.88
558.98	59168.74
559.14	59224.92
559.31	59517.48
559.47	59604.08
559.64	59255.34
559.80	59358.33
559.97	59735.15
560.13	59363.01
560.30	59512.80
560.46	59568.97
560.63	59447.27
560.79	59498.76
560.96	59639.19
561.12	59707.07
561.29	59646.21
561.45	59765.58
561.61	59695.36
561.78	59730.47
561.94	59648.55
562.11	59770.26
562.27	59791.33
562.44	59648.55
562.60	59948.14
562.77	59800.69
562.93	59529.19
563.10	60081.55
563.26	59718.77
563.42	60097.94
563.59	59833.46
563.75	59922.40
563.92	59952.82
564.08	59643.87
564.24	59945.80
564.41	59889.63
564.57	59903.67
564.74	59840.48
564.90	59849.84
565.07	60095.60
565.23	60011.34
565.39	59924.74
565.56	60090.91
565.72	59992.61
565.88	59973.89
566.05	59924.74
566.21	59997.29
566.38	59964.52
566.54	60065.17
566.70	60348.37
566.87	60182.19
567.03	59767.92
567.19	60226.66
567.36	60093.25
567.52	60161.13
567.68	60378.80
567.85	60348.37
568.01	60156.45
568.17	60109.64
568.34	60289.86
568.50	60236.03
568.66	60165.81
568.83	60011.34
568.99	60275.82
569.15	60280.50
569.32	60420.93
569.48	60151.77
569.64	60357.74
569.81	60158.79
569.97	60224.32
570.13	60481.78
570.30	60266.45
570.46	60341.35
570.62	60261.77
570.78	60285.18
570.95	60285.18
571.11	60458.38
571.27	60289.86
571.43	60278.16
571.60	60341.35
571.76	60362.42
571.92	60296.88
572.09	60191.56
572.25	60329.65
572.41	60495.83
572.57	60296.88
572.74	60739.24
572.90	60413.91
573.06	60516.89
573.22	60261.77
573.38	60573.06
573.55	60369.44
573.71	60580.09
573.87	60654.98
574.03	60383.48
574.20	60570.72
574.36	60526.25
574.52	60671.37
574.68	60580.09
574.84	60617.53
575.01	60659.66
575.17	60561.36
575.33	60633.92
575.49	60355.39
575.65	60470.08
575.82	60528.59
575.98	60645.62
576.14	60823.50
576.30	60830.52
576.46	60519.23
576.62	60425.61
576.79	60509.87
576.95	60516.89
577.11	60502.85
577.27	60779.03
577.43	60523.91
577.59	60556.68
577.75	60580.09
577.92	60486.46
578.08	60561.36
578.24	60807.12
578.40	60860.95
578.56	60769.67
578.72	60626.90
578.88	60779.03
579.04	60879.67
579.21	60619.88
579.37	60874.99
579.53	60844.57
579.69	60481.78
579.85	60662.00
580.01	60568.38
580.17	60594.13
580.33	60622.22
580.49	60818.82
580.65	60832.86
580.82	60725.20
580.98	60612.85
581.14	60701.79
581.30	60842.23
581.46	60535.62
581.62	60828.18
581.78	60734.56
581.94	61013.08
582.10	60921.80
582.26	60657.32
582.42	60662.00
582.58	60786.05
582.74	60762.65
582.90	60692.43
583.06	60842.23
583.22	60523.91
583.38	60603.49
583.54	60856.27
583.70	60697.11
583.86	60788.39
584.02	60659.66
584.18	60956.91
584.34	60804.78
584.50	60832.86
584.66	60650.30
584.82	60828.18
584.98	60910.10
585.14	60767.33
585.30	60650.30
585.46	60800.10
585.62	60846.91
585.78	60694.77
585.94	60612.85
586.10	60910.10
586.26	60877.33
586.42	60828.18
586.58	61034.15
586.74	60811.80
586.90	60828.18
587.06	60919.46
587.22	61130.11
587.38	60924.14
587.54	60891.38
587.70	61050.53
587.86	60872.65
588.02	60877.33
588.18	61141.81
588.34	60811.80
588.49	60917.12
588.65	60720.52
588.81	61015.43
588.97	60828.18
589.13	60800.10
589.29	61076.28
589.45	61359.48
589.61	61244.80
589.77	61336.08
589.93	60992.02
590.08	61160.54
590.24	61127.77
590.40	61186.28
590.56	61256.50
590.72	61254.16
590.88	61212.03
591.04	61020.11
591.20	61366.51
591.35	61284.59
591.51	61228.41
591.67	61469.49
591.83	61160.54
591.99	61228.41
592.15	61127.77
592.31	61209.69
592.46	61127.77
592.62	61146.50
592.78	61183.94
592.94	61310.33
593.10	61291.61
593.26	61263.52
593.41	61497.58
593.57	61434.38
593.73	61219.05
593.89	61553.75
594.05	61275.22
594.20	61354.80
594.36	61406.30
594.52	61399.27
594.68	61200.33
594.84	61275.22
594.99	61160.54
595.15	61261.18
595.31	61272.88
595.47	61373.53
595.62	61371.19
595.78	61310.33
595.94	61310.33
596.10	61504.60
596.25	61530.34
596.41	61336.08
596.57	61265.86
596.73	61385.23
596.88	61380.55
597.04	61520.98
597.20	61546.73
597.36	61609.92
597.51	61595.88
597.67	61429.70
597.83	61434.38
597.99	61586.52
598.14	61598.22
598.30	61380.55
598.46	61394.59
598.61	61509.28
598.77	61389.91
598.93	61485.87
599.09	61504.60
599.24	61656.73
599.40	61696.52
599.56	61572.47
599.71	61649.71
599.87	61836.95
600.03	61635.67
600.18	61623.96
600.34	61553.75
600.50	61628.65
600.65	61563.11
600.81	61612.26
600.97	61605.24
601.12	61647.37
601.28	61572.47
601.44	61471.83
601.59	61443.74
601.75	61572.47
601.91	61506.94
602.06	61663.75
602.22	61841.63
602.37	61750.35
602.53	61682.48
602.69	61645.03
602.84	61560.77
603.00	61783.12
603.16	61670.78
603.31	61509.28
603.47	61602.90
603.62	61520.98
603.78	61726.95
603.94	61539.71
604.09	61661.41
604.25	61829.93
604.40	61513.96
604.56	61574.81
604.71	61876.74
604.87	61537.36
605.03	61680.14
605.18	61490.55
605.34	61675.46
605.49	61478.85
605.65	61731.63
605.80	61485.87
605.96	61708.22
606.12	61654.39
606.27	61736.31
606.43	61338.42
606.58	61675.46
606.74	61469.49
606.89	61586.52
607.05	61605.24
607.20	61771.42
607.36	61574.81
607.51	61446.08
607.67	61247.14
607.82	61352.46
607.98	61563.11
608.13	61537.36
608.29	61785.46
608.44	61602.90
608.60	61401.61
608.75	61399.27
608.91	61467.15
609.06	61385.23
609.22	61530.34
609.37	61441.40
609.53	61469.49
609.68	61242.46
609.84	61352.46
609.99	61652.05
610.15	61338.42
610.30	61464.81
610.46	61392.25
610.61	61469.49
610.76	61350.12
610.92	61216.71
611.07	61345.44
611.23	61179.26
611.38	61528.00
611.54	61546.73
611.69	61345.44
611.84	61553.75
612.00	61244.80
612.15	61357.14
612.31	61331.40
612.46	61141.81
612.62	61453.11
612.77	61249.48
612.92	61434.38
613.08	61186.28
613.23	61382.89
613.39	61282.25
613.54	61078.62
613.69	61336.08
613.85	61172.24
614.00	61565.45
614.15	61523.32
614.31	61127.77
614.46	61336.08
614.62	61212.03
614.77	61179.26
614.92	61251.82
615.08	61263.52
615.23	61141.81
615.38	61256.50
615.54	61382.89
615.69	61193.31
615.84	61193.31
616.00	61382.89
616.15	60956.91
616.30	61141.81
616.46	61102.03
616.61	61090.32
616.76	61268.20
616.92	61020.11
617.07	61336.08
617.22	60996.70
617.37	61106.71
617.53	61268.20
617.68	61169.90
617.83	60940.53
617.99	61073.94
618.14	61045.85
618.29	61099.68
618.45	60781.37
618.60	60882.02
618.75	60837.54
618.90	60814.14
619.06	60893.72
619.21	61071.60
619.36	61099.68
619.51	60914.78
619.67	60924.14
619.82	60743.92
619.97	61083.30
620.12	61001.38
620.28	60809.46
620.43	60870.31
620.58	60874.99
620.73	60680.73
620.89	61134.79
621.04	60938.19
621.19	61027.13
621.34	60867.97
621.49	60636.26
621.65	60823.50
621.80	60886.70
621.95	60540.30
622.10	60931.17
622.25	60793.07
622.41	60633.92
622.56	60692.43
622.71	60786.05
622.86	60430.29
623.01	60603.49
623.16	60589.45
623.32	60636.26
623.47	60589.45
623.62	60561.36
623.77	60552.00
623.92	60774.35
624.07	60563.70
624.23	60678.39
624.38	60617.53
624.53	60460.72
624.68	60268.79
624.83	60629.24
624.98	60477.10
625.13	60367.10
625.29	60542.64
625.44	60453.70
625.59	60289.86
625.74	60329.65
625.89	60238.37
626.04	60374.12
626.19	60287.52
626.34	60420.93
626.49	60200.92
626.65	60151.77
626.80	60575.40
626.95	60252.41
627.10	60048.78
627.25	60093.25
627.40	60140.07
627.55	60109.64
627.70	60257.09
627.85	60076.87
628.00	60074.53
628.15	60182.19
628.30	59938.78
628.45	60001.97
628.60	60037.08
628.76	60205.60
628.91	60240.71
629.06	60006.65
629.21	59896.65
629.36	60018.36
629.51	59959.84
629.66	60104.96
629.81	59964.52
629.96	59784.30
630.11	59957.50
630.26	59861.54
630.41	59992.61
630.56	59920.05
630.71	59756.22
630.86	59978.57
631.01	59955.16
631.16	59765.58
631.31	59519.82
631.46	59475.35
631.61	59842.82
631.76	59650.89
631.91	60044.10
632.06	60023.04
632.21	59807.71
632.36	59749.20
632.51	59531.53
632.66	59702.38
632.81	59681.32
632.96	59826.43
633.10	59718.77
633.25	59739.83
633.40	59524.50
633.55	59756.22
633.70	59889.63
633.85	59536.21
634.00	59636.85
634.15	59545.57
634.30	59473.01
634.45	59683.66
634.60	59777.28
634.75	59398.12
634.90	59346.62
635.05	59561.95
635.19	59365.35
635.34	59519.82
635.49	59587.70
635.64	59646.21
635.79	59346.62
635.94	59501.10
636.09	59540.89
636.24	59367.69
636.39	59465.99
636.53	59449.61
636.68	59313.86
636.83	59363.01
636.98	59454.29
637.13	59351.30
637.28	59187.47
637.43	59409.82
637.57	59449.61
637.72	59220.23
637.87	59241.30
638.02	59400.46
638.17	59185.13
638.32	59274.07
638.46	59047.04
638.61	59128.95
638.76	59152.36
638.91	59098.53
639.06	59075.12
639.20	59131.29
639.35	58979.16
639.50	58796.60
639.65	58852.77
639.80	58904.26
639.94	58913.62
640.09	59110.23
640.24	59000.22
640.39	58890.22
640.54	58827.02
640.68	59063.42
640.83	58925.33
640.98	58969.80
641.13	58724.04
641.27	58876.18
641.42	58822.34
641.57	58883.20
641.72	59152.36
641.86	58616.38
642.01	58508.71
642.16	58836.39
642.31	58628.08
642.45	58960.44
642.60	58810.64
642.75	58897.24
642.90	58681.91
643.04	58885.54
643.19	58387.00
643.34	58693.61
643.48	58862.13
643.63	58656.17
643.78	58532.12
643.93	58728.72
644.07	58316.79
644.22	58632.76
644.37	58188.06
644.51	58578.93
644.66	58775.53
644.81	58445.52
644.95	58571.91
645.10	58489.99
645.25	58401.05
645.39	58356.58
645.54	58480.63
645.69	58387.00
645.83	58471.26
645.98	58433.81
646.13	58670.21
646.27	58461.90
646.42	58136.57
646.57	58450.20
646.71	58342.53
646.86	58604.67
647.00	58599.99
647.15	58211.46
647.30	58157.63
647.44	58351.90
647.59	58417.43
647.74	58583.61
647.88	58539.14
648.03	58188.06
648.17	58375.30
648.32	58230.19
648.47	58230.19
648.61	58253.59
648.76	58042.95
648.90	58174.02
649.05	58141.25
649.20	58141.25
649.34	58078.05
649.49	58082.73
649.63	58124.86
649.78	58169.33
649.92	58188.06
650.07	58277.00
650.21	57944.64
650.36	58075.71
650.51	57787.83
650.65	58232.53
650.80	58337.85
650.94	57916.56
651.09	57829.96
651.23	57748.04
651.38	57741.02
651.52	57961.03
651.67	57551.43
651.81	57822.93
651.96	57769.10
652.10	57954.00
652.25	57755.06
652.39	57736.34
652.54	57556.11
652.68	57558.45
652.83	57621.65
652.97	57631.01
653.12	57607.61
653.26	57633.35
653.41	57867.40
653.55	57680.16
653.70	57518.67
653.84	57509.30
653.99	57403.98
654.13	57642.71
654.27	57528.03
654.42	57354.83
654.56	57502.28
654.71	57652.08
654.85	57478.88
655.00	57572.50
655.14	57387.60
655.29	57467.17
655.43	57277.59
655.57	57233.12
655.72	57137.16
655.86	57340.78
656.01	57567.82
656.15	57289.29
656.30	57359.51
656.44	57450.79
656.58	57483.56
656.73	57506.96
656.87	57275.25
657.01	57329.08
657.16	57392.28
657.30	57230.78
657.45	57158.22
657.59	57057.58
657.73	57073.96
657.88	56928.85
658.02	57006.09
658.16	56846.93
658.31	57076.30
658.45	57240.14
658.60	57043.54
658.74	57137.16
658.88	56743.95
659.03	56633.94
659.17	56687.78
659.31	56804.80
659.46	56715.86
659.60	56898.42
659.74	56846.93
659.89	56669.05
660.03	56720.54
660.17	56917.15
660.32	56650.33
660.46	56570.75
660.60	56519.26
660.74	56800.12
660.89	56671.39
661.03	56406.91
661.17	56273.50
661.32	56002.00
661.46	56320.31
661.60	56577.77
661.74	55994.98
661.89	56048.81
662.03	56074.55
662.17	56175.20
662.31	56065.19
662.46	56212.65
662.60	56137.75
662.74	55948.17
662.88	56116.68
663.03	55753.90
663.17	55891.99
663.31	55826.46
663.45	55615.81
663.60	55592.40
663.74	55559.64
663.88	55594.74
664.02	55742.20
664.17	55648.58
664.31	55372.39
664.45	55634.53
664.59	55295.16
664.73	55442.61
664.88	55641.56
665.02	55044.72
665.16	55430.91
665.30	55117.28
665.44	55458.99
665.59	55145.36
665.73	55386.44
665.87	55164.09
666.01	55140.68
666.15	55264.73
666.29	55110.25
666.44	55124.30
666.58	54700.66
666.72	54560.23
666.86	54623.42
667.00	54878.54
667.14	54382.35
667.28	54656.19
667.43	54649.17
667.57	54759.17
667.71	54710.02
667.85	54536.82
667.99	54457.24
668.13	54265.32
668.27	54394.05
668.41	54344.90
668.56	54031.27
668.70	53923.60
668.84	53762.11
668.98	53808.92
669.12	53893.18
669.26	54356.60
669.40	54174.04
669.54	53977.43
669.68	53780.83
669.82	53722.32
669.96	54234.89
670.10	53790.19
670.25	54059.35
670.39	53734.02
670.53	53848.71
670.67	53516.35
670.81	53939.99
670.95	53783.17
671.09	53247.19
671.23	52975.69
671.37	53125.48
671.51	53043.56
671.65	53099.73
671.79	53371.24
671.93	52959.30
672.07	53059.94
672.21	53052.92
672.35	52371.83
672.49	52582.48
672.63	52238.42
672.77	52535.66
672.91	52715.89
673.05	52154.16
673.19	52423.32
673.33	52067.56
673.47	52264.16
673.61	51966.91
673.75	52177.56
673.89	51751.59
674.03	52154.16
674.17	51870.95
674.31	51674.35
674.45	51444.98
674.59	51395.82
674.73	51800.74
674.87	51957.55
675.01	51508.17
675.15	51510.51
675.29	51426.25
675.43	51079.85
675.56	51182.84
675.70	51227.31
675.84	50518.12
675.98	49617.02
676.12	50789.62
676.26	51360.72
676.40	50209.17
676.54	50684.30
676.68	50459.61
676.82	49553.82
676.96	49949.37
677.10	49907.24
677.23	49605.31
677.37	49748.09
677.51	49256.57
677.65	49013.16
677.79	48666.76
677.93	48793.15
678.07	48851.66
678.21	48671.44
678.34	48772.08
678.48	48839.96
678.62	48933.58
678.76	48421.00
678.90	47847.57
679.04	48540.37
679.18	48128.44
679.31	47786.72
679.45	47807.78
679.59	48339.08
679.73	47983.32
679.87	47250.74
680.00	47208.61
680.14	47021.36
680.28	47208.61
680.42	46897.31
680.56	46197.49
680.70	46234.94
680.83	46990.94
680.97	46438.57
681.11	46490.06
681.25	45799.60
681.39	45869.82
681.52	46117.92
681.66	45600.66
681.80	45549.17
681.94	45516.40
682.07	45574.91
682.21	44968.71
682.35	45326.81
682.49	44512.31
682.62	45272.98
682.76	45193.40
682.90	44701.89
683.04	44973.39
683.17	44437.41
683.31	44004.41
683.45	43976.33
683.59	44399.96
683.72	43412.26
683.86	43756.32
684.00	43901.43
684.13	44236.12
684.27	43810.15
684.41	43562.05
684.55	43402.89
684.68	43353.74
684.82	42721.80
684.96	42618.81
685.09	42426.89
685.23	42309.86
685.37	41935.38
685.50	42131.98
685.64	42485.40
685.78	42450.30
685.91	41759.84
686.05	41572.60
686.19	41324.50
686.32	40973.42
686.46	41067.04
686.60	40505.31
686.73	40399.99
686.87	40643.40
687.01	40868.09
687.14	40664.47
687.28	39957.63
687.42	40020.82
687.55	39728.25
687.69	39892.09
687.82	39503.56
687.96	39257.81
688.10	39220.36
688.23	39615.91
688.37	38646.93
688.50	38873.96
688.64	39225.04
688.78	38473.73
688.91	38160.09
689.05	38859.91
689.18	38305.21
689.32	37689.65
689.46	37490.70
689.59	37558.58
689.73	37851.14
689.86	37345.59
690.00	37064.72
690.13	37076.43
690.27	36968.76
690.41	37319.84
690.54	36882.16
690.68	36311.07
690.81	36563.85
690.95	35943.61
691.08	36264.26
691.22	35901.48
691.35	35810.20
691.49	36161.28
691.62	35686.15
691.76	35274.21
691.89	35419.33
692.03	34995.69
692.16	34972.28
692.30	35098.67
692.43	34878.66
692.57	34305.23
692.70	34300.55
692.84	34391.83
692.97	34775.68
693.11	34059.48
693.24	33834.78
693.38	33249.65
693.51	33338.59
693.65	33303.48
693.78	33446.26
693.92	33347.95
694.05	33113.90
694.19	32966.45
694.32	32739.41
694.45	32748.78
694.59	32383.65
694.72	32383.65
694.86	32400.04
694.99	31889.80
695.13	32133.21
695.26	31789.16
695.39	31290.62
695.53	32013.85
695.66	31262.54
695.80	31178.28
695.93	30920.82
696.07	30902.09
696.20	30560.37
696.33	30569.74
696.47	30761.66
696.60	30494.84
696.73	30401.22
696.87	29942.47
697.00	30054.82
697.14	30199.93
697.27	29734.17
697.40	29752.89
697.54	29385.43
697.67	29628.84
697.80	29296.49
697.94	28811.99
698.07	28875.19
698.21	29085.84
698.34	28561.56
698.47	28180.05
698.61	28290.06
698.74	28362.61
698.87	28327.50
699.01	28266.65
699.14	27800.88
699.27	28091.11
699.40	28203.46
699.54	27618.32
699.67	27601.94
699.80	27225.11
699.94	27035.53
700.07	26918.50
700.20	26848.29
700.34	26649.34
700.47	26118.04
700.60	26188.25
700.73	26092.29
700.87	26057.18
701.00	25766.96
701.13	25788.02
701.26	26082.93
701.40	26015.05
701.53	25287.15
701.66	25348.00
701.79	25301.19
701.93	24868.19
702.06	24683.29
702.19	24732.44
702.32	24964.15
702.46	24467.96
702.59	24554.56
702.72	24044.32
702.85	24446.90
702.99	24191.78
703.12	24383.70
703.25	23672.18
703.38	23939.00
703.51	23501.32
703.65	23342.16
703.78	22970.02
703.91	23168.96
704.04	23108.11
704.17	23087.04
704.31	22827.24
704.44	22478.50
704.57	22455.10
704.70	22309.99
704.83	22239.77
704.96	22300.62
705.10	22403.61
705.23	22230.41
>>>>>End Processed Spectral Data<<<<<
