SpectraSuite Data File
++++++++++++++++++++++++++++++++++++
Date: Fri Oct 25 11:25:47 EDT 2013
User: price-jones
Dark Spectrum Present: No
Reference Spectrum Present: No
Number of Sampled Component Spectra: 1
Spectrometers: USB2+H05261
Integration Time (usec): 100000 (USB2+H05261)
Spectra Averaged: 1 (USB2+H05261)
Boxcar Smoothing: 0 (USB2+H05261)
Correct for Electrical Dark: No (USB2+H05261)
Strobe/Lamp Enabled: No (USB2+H05261)
Correct for Detector Non-linearity: No (USB2+H05261)
Correct for Stray Light: No (USB2+H05261)
Number of Pixels in Processed Spectrum: 2048
>>>>>Begin Processed Spectral Data<<<<<
365.73	257.46
365.92	257.46
366.12	257.46
366.32	156.82
366.52	184.90
366.72	65.54
366.91	166.18
367.11	124.05
367.31	93.62
367.51	84.26
367.70	147.45
367.90	182.56
368.10	201.29
368.30	177.88
368.49	135.75
368.69	138.09
368.89	147.45
369.09	184.90
369.28	152.13
369.48	168.52
369.68	198.95
369.87	149.79
370.07	173.20
370.27	191.92
370.47	262.14
370.66	535.98
370.86	662.37
371.06	664.71
371.25	720.88
371.45	664.71
371.65	702.16
371.84	648.33
372.04	720.88
372.24	702.16
372.44	692.80
372.63	688.12
372.83	697.48
373.03	718.54
373.22	676.41
373.42	767.70
373.62	777.06
373.81	826.21
374.01	835.57
374.21	767.70
374.40	830.89
374.60	882.38
374.79	823.87
374.99	840.25
375.19	880.04
375.38	798.12
375.58	866.00
375.78	819.19
375.97	915.15
376.17	891.74
376.37	924.51
376.56	866.00
376.76	835.57
376.95	896.43
377.15	840.25
377.35	889.40
377.54	905.79
377.74	854.30
377.93	940.90
378.13	875.36
378.33	873.02
378.52	903.45
378.72	945.58
378.91	924.51
379.11	889.40
379.31	884.72
379.50	966.64
379.70	940.90
379.89	1018.13
380.09	950.26
380.28	957.28
380.48	1036.86
380.68	1011.11
380.87	980.68
381.07	990.05
381.26	1034.52
381.46	943.24
381.65	1034.52
381.85	1139.84
382.04	1069.62
382.24	1057.92
382.43	1036.86
382.63	1041.54
382.83	1046.22
383.02	1076.65
383.22	1121.12
383.41	1076.65
383.61	1069.62
383.80	1097.71
384.00	1055.58
384.19	1081.33
384.39	1207.72
384.58	1226.44
384.78	1151.54
384.97	1198.35
385.17	1177.29
385.36	1158.57
385.56	1172.61
385.75	1198.35
385.95	1205.38
386.14	1144.52
386.34	1242.82
386.53	1203.04
386.72	1219.42
386.92	1228.78
387.11	1287.29
387.31	1296.66
387.50	1282.61
387.70	1221.76
387.89	1270.91
388.09	1254.53
388.28	1238.14
388.48	1345.81
388.67	1301.34
388.86	1299.00
389.06	1306.02
389.25	1409.00
389.45	1343.47
389.64	1282.61
389.84	1413.68
390.03	1334.11
390.22	1406.66
390.42	1397.30
390.61	1366.87
390.81	1364.53
391.00	1460.49
391.19	1551.78
391.39	1418.36
391.58	1469.86
391.78	1416.02
391.97	1537.73
392.16	1373.89
392.36	1547.09
392.55	1444.11
392.75	1504.96
392.94	1533.05
393.13	1469.86
393.33	1535.39
393.52	1591.56
393.71	1568.16
393.91	1523.69
394.10	1483.90
394.29	1593.90
394.49	1678.16
394.68	1643.06
394.88	1652.42
395.07	1596.25
395.26	1561.14
395.46	1661.78
395.65	1680.50
395.84	1778.81
396.04	1795.19
396.23	1722.63
396.42	1661.78
396.62	1767.10
396.81	1774.13
397.00	1753.06
397.19	1778.81
397.39	1722.63
397.58	1734.34
397.77	1825.62
397.97	1842.00
398.16	1919.24
398.35	1886.47
398.55	1858.39
398.74	1865.41
398.93	1961.37
399.12	1980.09
399.32	1935.62
399.51	1959.03
399.70	1926.26
399.90	2026.90
400.09	2036.27
400.28	2080.74
400.47	2038.61
400.67	2040.95
400.86	2132.23
401.05	2120.53
401.24	2101.80
401.44	2146.27
401.63	2153.29
401.82	2155.63
402.01	2090.10
402.21	2064.35
402.40	2115.84
402.59	2293.72
402.78	2160.31
402.97	2209.47
403.17	2286.70
403.36	2239.89
403.55	2193.08
403.74	2363.94
403.93	2387.35
404.13	2406.07
404.32	2392.03
404.51	2375.64
404.70	2352.24
404.89	2317.13
405.09	2473.95
405.28	2492.67
405.47	2356.92
405.66	2469.27
405.85	2586.29
406.05	2476.29
406.24	2469.27
406.43	2532.46
406.62	2424.80
406.81	2696.30
407.00	2483.31
407.20	2572.25
407.39	2621.40
407.58	2719.70
407.77	2647.15
407.96	2759.49
408.15	2710.34
408.34	2698.64
408.54	2792.26
408.73	2640.12
408.92	2888.22
409.11	2806.30
409.30	2956.10
409.49	2920.99
409.68	2965.46
409.87	3049.72
410.07	2988.86
410.26	3054.40
410.45	3087.17
410.64	3030.99
410.83	3012.27
411.02	3215.90
411.21	3236.96
411.40	2993.55
411.59	3171.43
411.78	3155.04
411.98	3243.98
412.17	3269.73
412.36	3351.65
412.55	3325.90
412.74	3372.71
412.93	3323.56
413.12	3414.84
413.31	3468.67
413.50	3487.40
413.69	3447.61
413.88	3604.42
414.07	3475.70
414.26	3513.14
414.45	3665.28
414.64	3672.30
414.83	3770.60
415.02	3777.62
415.22	3815.07
415.41	3985.93
415.60	3873.59
415.79	3829.12
415.98	3939.12
416.17	4021.04
416.36	3964.87
416.55	4044.45
416.74	4128.70
416.93	4039.76
417.12	4072.53
417.31	4156.79
417.50	4175.52
417.69	4257.43
417.88	4320.63
418.07	4255.09
418.26	4297.22
418.45	4397.87
418.64	4411.91
418.83	4542.98
419.02	4432.97
419.21	4454.04
419.39	4496.17
419.58	4379.14
419.77	4559.36
419.96	4507.87
420.15	4580.43
420.34	4606.17
420.53	4557.02
420.72	4690.43
420.91	4760.65
421.10	4758.31
421.29	4760.65
421.48	4608.51
421.67	4753.63
421.86	4685.75
422.05	4784.06
422.24	4849.59
422.43	4805.12
422.61	4901.08
422.80	4924.49
422.99	4971.30
423.18	5088.32
423.37	5027.47
423.56	5025.13
423.75	4887.04
423.94	4734.90
424.13	4510.21
424.32	4784.06
424.50	4814.48
424.69	5170.24
424.88	5001.72
425.07	5074.28
425.26	4910.44
425.45	5015.77
425.64	4917.47
425.83	4985.34
426.01	4997.04
426.20	5069.60
426.39	4999.38
426.58	5025.13
426.77	5097.69
426.96	5186.63
427.15	5088.32
427.33	5238.12
427.52	5153.86
427.71	5282.59
427.90	5268.55
428.09	5261.52
428.28	5259.18
428.46	5343.44
428.65	5291.95
428.84	5404.30
429.03	5551.75
429.22	5394.93
429.40	5612.60
429.59	5408.98
429.78	5322.38
429.97	5256.84
430.16	5474.51
430.34	5465.15
430.53	5647.71
430.72	5673.46
430.91	5792.83
431.10	5678.14
431.28	5774.10
431.47	5797.51
431.66	5783.46
431.85	5813.89
432.03	6024.54
432.22	6101.78
432.41	5977.73
432.60	5853.68
432.79	5905.17
432.97	6050.28
433.16	6010.50
433.35	6073.69
433.54	6022.20
433.72	6122.84
433.91	6282.00
434.10	6024.54
434.28	6143.91
434.47	6263.27
434.66	6214.12
434.85	6441.15
435.03	6399.02
435.22	6340.51
435.41	6401.37
435.59	6413.07
435.78	6459.88
435.97	6506.69
436.16	6403.71
436.34	6331.15
436.53	6476.26
436.72	6504.35
436.90	6539.46
437.09	6539.46
437.28	6546.48
437.46	6715.00
437.65	6679.89
437.84	6766.49
438.02	6682.23
438.21	6684.57
438.40	6691.59
438.58	7103.53
438.77	7056.72
438.96	6995.86
439.14	7110.55
439.33	7084.80
439.52	7218.21
439.70	7225.23
439.89	7382.05
440.08	7363.33
440.26	7452.27
440.45	7456.95
440.63	7211.19
440.82	7475.67
441.01	7400.77
441.19	7648.87
441.38	7782.28
441.57	7655.89
441.75	7857.18
441.94	7971.86
442.12	7772.92
442.31	7927.39
442.50	8011.65
442.68	7896.97
442.87	8039.74
443.05	7988.25
443.24	8238.69
443.43	8210.60
443.61	8070.17
443.80	8283.16
443.98	7971.86
444.17	7798.66
444.35	8187.19
444.54	8313.58
444.73	8278.47
444.91	8315.92
445.10	8257.41
445.28	8327.63
445.47	8241.03
445.65	8187.19
445.84	8334.65
446.02	8294.86
446.21	8461.04
446.39	8189.53
446.58	8526.57
446.77	8336.99
446.95	8327.63
447.14	8252.73
447.32	8557.00
447.51	8285.50
447.69	8325.29
447.88	8411.89
448.06	8723.18
448.25	8545.30
448.43	8629.56
448.62	8414.23
448.80	8477.42
448.99	8645.94
449.17	8753.60
449.36	8578.06
449.54	8952.55
449.73	8858.93
449.91	9121.07
450.10	8844.88
450.28	8952.55
450.46	9032.13
450.65	9114.05
450.83	9116.39
451.02	9074.26
451.20	9202.99
451.39	9029.79
451.57	9233.41
451.76	9104.68
451.94	8926.80
452.13	9032.13
452.31	9114.05
452.49	9284.91
452.68	9415.98
452.86	9266.18
453.05	9418.32
453.23	9467.47
453.42	9617.26
453.60	9448.74
453.78	9465.13
453.97	9394.91
454.15	9404.27
454.34	9514.28
454.52	9781.10
454.70	9750.67
454.89	9928.55
455.07	9823.23
455.26	9795.14
455.44	9783.44
455.62	9853.66
455.81	9788.12
455.99	9947.28
456.17	10052.60
456.36	9975.36
456.54	10164.95
456.73	10221.12
456.91	10209.42
457.09	10197.71
457.28	10225.80
457.46	10164.95
457.64	10155.58
457.83	10413.04
458.01	10277.29
458.19	10813.28
458.38	10717.31
458.56	10682.20
458.74	10731.36
458.93	10642.42
459.11	10576.88
459.29	10789.87
459.48	10672.84
459.66	10637.73
459.84	10740.72
460.03	10801.57
460.21	11019.24
460.39	10801.57
460.57	10974.77
460.76	11152.65
460.94	10979.45
461.12	11171.38
461.31	11077.76
461.49	11075.42
461.67	11206.48
461.85	11494.37
462.04	11204.14
462.22	11847.79
462.40	11541.18
462.59	11339.90
462.77	11456.92
462.95	11557.57
463.13	11382.03
463.32	11777.58
463.50	11676.93
463.68	11775.24
463.86	11978.86
464.05	11571.61
464.23	11391.39
464.41	11695.66
464.59	11489.69
464.78	12138.02
464.96	11901.62
465.14	11885.24
465.32	11833.75
465.50	11861.84
465.69	12049.08
465.87	12070.14
466.05	12112.27
466.23	12194.19
466.41	12016.31
466.60	12568.68
466.78	12070.14
466.96	12332.28
467.14	12219.94
467.32	12449.31
467.51	12484.42
467.69	12222.28
467.87	12556.97
468.05	12606.13
468.23	12306.54
468.41	12510.16
468.60	12578.04
468.78	12695.07
468.96	12484.42
469.14	12690.38
469.32	13025.08
469.50	12662.30
469.69	12898.69
469.87	12947.84
470.05	12858.90
470.23	13001.68
470.41	13097.64
470.59	13401.91
470.77	13212.32
470.95	13338.71
471.14	13544.68
471.32	12999.34
471.50	13413.61
471.68	13696.82
471.86	13448.72
472.04	13820.86
472.22	13958.96
472.40	13614.90
472.58	13762.35
472.77	14178.97
472.95	14031.51
473.13	14494.94
473.31	14066.62
473.49	14115.77
473.67	14129.81
473.85	14370.89
474.03	14761.76
474.21	14494.94
474.39	14649.41
474.57	14560.47
474.75	14972.41
474.93	14974.75
475.12	14700.90
475.30	15047.30
475.48	15012.20
475.66	15190.08
475.84	14867.08
476.02	15157.31
476.20	15447.54
476.38	15449.88
476.56	15939.05
476.74	15733.08
476.92	15913.30
477.10	15929.69
477.28	15878.19
477.46	16058.42
477.64	16208.21
477.82	16283.11
478.00	16931.44
478.18	16795.68
478.36	16805.05
478.54	17039.10
478.72	16856.54
478.90	17441.67
479.08	17568.06
479.26	17689.77
479.44	17528.27
479.62	17657.00
479.80	17834.88
479.98	17923.82
480.16	18487.89
480.34	18061.91
480.52	18221.07
480.70	18497.25
480.88	18148.51
481.06	18473.85
481.24	18621.30
481.41	19129.20
481.59	19393.68
481.77	19491.98
481.95	19281.33
482.13	19754.12
482.31	19435.81
482.49	20325.21
482.67	20332.23
482.85	20297.13
483.03	20533.52
483.21	20723.10
483.39	20971.20
483.57	20779.28
483.74	20957.16
483.92	21376.11
484.10	21125.68
484.28	21312.92
484.46	21895.71
484.64	22155.51
484.82	22047.85
485.00	22309.99
485.18	22717.24
485.35	23082.36
485.53	22864.69
485.71	22974.70
485.89	23264.92
486.07	23187.69
486.25	23496.64
486.43	23180.67
486.61	23960.06
486.78	23618.35
486.96	24123.90
487.14	24421.15
487.32	24568.60
487.50	24423.49
487.68	24809.68
487.85	25303.53
488.03	25223.95
488.21	25682.70
488.39	25495.46
488.57	25865.26
488.75	25837.17
488.92	26155.49
489.10	26515.93
489.28	26235.06
489.46	26934.88
489.64	26785.09
489.81	27725.99
489.99	27393.63
490.17	27346.82
490.35	27941.32
490.53	27672.15
490.70	28428.15
490.88	28376.66
491.06	28430.49
491.24	28797.95
491.41	29022.64
491.59	29369.04
491.77	29329.25
491.95	29696.72
492.13	29663.95
492.30	29874.60
492.48	29790.34
492.66	29923.75
492.84	30448.03
493.01	30541.65
493.19	30424.62
493.37	30934.86
493.54	30810.81
493.72	31419.35
493.90	31311.69
494.08	31573.83
494.25	31892.14
494.43	31997.46
494.61	31950.65
494.79	32542.81
494.96	32608.34
495.14	32442.17
495.32	32889.21
495.49	33088.15
495.67	33247.31
495.85	33661.58
496.02	33467.32
496.20	33914.36
496.38	33879.25
496.55	34258.42
496.73	34394.17
496.91	34125.01
497.09	34660.99
497.26	34904.41
497.44	34871.64
497.62	35096.33
497.79	35442.73
497.97	35395.92
498.14	35756.36
498.32	36037.23
498.50	36238.51
498.67	36332.14
498.85	36210.43
499.03	36594.28
499.20	36184.68
499.38	36900.89
499.56	36793.22
499.73	36985.15
499.91	37270.69
500.08	37432.19
500.26	37233.24
500.44	37794.97
500.61	37560.92
500.79	37860.51
500.97	38263.08
501.14	38368.40
501.32	38249.03
501.49	38234.99
501.67	37895.61
501.84	38726.50
502.02	38705.44
502.20	39044.82
502.37	39335.04
502.55	39115.03
502.72	39482.50
502.90	39718.89
503.07	39241.42
503.25	39555.05
503.43	39391.22
503.60	39693.15
503.78	39990.39
503.95	40313.39
504.13	40318.07
504.30	40762.77
504.48	40404.67
504.65	40371.90
504.83	40762.77
505.01	41113.85
505.18	40999.16
505.36	41460.25
505.53	41057.68
505.71	41071.72
505.88	41532.81
506.06	41687.28
506.23	42267.73
506.41	41743.45
506.58	42227.95
506.76	41780.90
506.93	42855.21
507.11	41837.08
507.28	42433.91
507.46	42419.87
507.63	42366.04
507.81	43026.07
507.98	42562.64
508.16	42586.05
508.33	43171.18
508.50	43028.41
508.68	43344.38
508.85	43730.57
509.03	43770.36
509.20	43576.09
509.38	43641.63
509.55	43910.79
509.73	43997.39
509.90	44645.72
510.08	44299.32
510.25	44498.26
510.42	44608.27
510.60	45118.51
510.77	45024.89
510.95	45134.89
511.12	45167.66
511.30	44959.35
511.47	45670.87
511.64	45160.64
511.82	45633.42
511.99	45326.81
512.17	45841.73
512.34	45544.48
512.51	46291.12
512.69	46370.69
512.86	45937.69
513.04	46646.88
513.21	46305.16
513.38	46197.49
513.56	46745.18
513.73	46136.64
513.90	46522.83
514.08	46548.57
514.25	47330.31
514.43	47316.27
514.60	47477.77
514.77	47423.93
514.95	47707.14
515.12	47180.52
515.29	47466.06
515.47	47746.93
515.64	47959.92
515.81	47882.68
515.99	48013.75
516.16	48364.83
516.33	48107.37
516.51	48704.21
516.68	48437.39
516.85	48397.60
517.03	48744.00
517.20	48823.58
517.37	48671.44
517.54	48683.14
517.72	48531.01
517.89	48790.81
518.06	49008.48
518.24	49188.70
518.41	49212.10
518.58	49432.11
518.75	49387.64
518.93	49595.95
519.10	49420.41
519.27	49673.19
519.45	49773.83
519.62	49834.69
519.79	49911.92
519.96	49776.17
520.14	50073.42
520.31	50478.33
520.48	50183.43
520.65	50096.83
520.83	50450.25
521.00	50522.80
521.17	50492.38
521.34	50543.87
521.52	50644.51
521.69	50527.48
521.86	51084.53
522.03	50897.29
522.20	51437.95
522.38	51442.63
522.55	51248.37
522.72	51129.00
522.89	51199.22
523.07	51728.18
523.24	51222.62
523.41	51381.78
523.58	51613.49
523.75	51653.28
523.92	51531.57
524.10	51585.41
524.27	51908.40
524.44	51894.36
524.61	52149.48
524.78	51948.19
524.96	51990.32
525.13	52353.10
525.30	52285.23
525.47	52472.47
525.64	52271.18
525.81	52612.90
525.98	52406.94
526.16	52294.59
526.33	52580.13
526.50	52648.01
526.67	52790.78
526.84	52816.53
527.01	52903.13
527.18	52758.02
527.36	53064.63
527.53	53162.93
527.70	53345.49
527.87	53240.17
528.04	53069.31
528.21	53315.06
528.38	53233.14
528.55	53268.25
528.72	53422.73
528.89	53209.74
529.07	53441.45
529.24	53172.29
529.41	53518.69
529.58	53502.31
529.75	53427.41
529.92	53738.70
530.09	53542.10
530.26	53731.68
530.43	53806.58
530.60	53584.22
530.77	53485.92
530.94	53879.13
531.11	53867.43
531.28	54129.57
531.46	53982.12
531.63	54349.58
531.80	53832.32
531.97	54300.43
532.14	54588.31
532.31	54349.58
532.48	54695.98
532.65	54656.19
532.82	54688.96
532.99	54422.14
533.16	54597.68
533.33	54461.93
533.50	54946.42
533.67	54550.87
533.84	54513.42
534.01	54794.28
534.18	54944.08
534.35	55283.45
534.52	54894.92
534.69	55065.78
534.86	55086.85
535.03	55112.59
535.20	54981.52
535.37	55248.35
535.54	55370.05
535.71	55271.75
535.88	55290.48
536.05	55227.28
536.22	55491.76
536.38	55356.01
536.55	55538.57
536.72	55463.67
536.89	55449.63
537.06	55566.66
537.23	55426.23
537.40	55365.37
537.57	55655.60
537.74	55817.10
537.91	55711.77
538.08	55927.10
538.25	55688.37
538.42	55849.86
538.59	55707.09
538.75	55810.07
538.92	55896.67
539.09	56041.79
539.26	55997.32
539.43	56069.87
539.60	55835.82
539.77	56037.11
539.94	56413.93
540.11	56072.21
540.28	56399.89
540.44	56594.15
540.61	56039.45
540.78	56636.28
540.95	56442.02
541.12	56016.04
541.29	56317.97
541.46	56509.89
541.62	56446.70
541.79	56673.73
541.96	56435.00
542.13	56308.61
542.30	56507.55
542.47	56839.91
542.63	56699.48
542.80	56956.94
542.97	56856.29
543.14	56945.23
543.31	57052.90
543.48	56842.25
543.64	57530.37
543.81	57235.46
543.98	57099.71
544.15	57190.99
544.32	57254.18
544.48	57434.41
544.65	57368.87
544.82	57396.96
544.99	57165.24
545.16	57471.85
545.32	57387.60
545.49	57556.11
545.66	57329.08
545.83	57488.24
546.00	57743.36
546.16	57453.13
546.33	57612.29
546.50	57329.08
546.67	57558.45
546.83	57387.60
547.00	57780.81
547.17	57565.48
547.34	57642.71
547.50	57855.70
547.67	57902.51
547.84	57925.92
548.00	58335.51
548.17	58258.27
548.34	58108.48
548.51	58216.14
548.67	58234.87
548.84	57970.39
549.01	58134.23
549.18	58159.97
549.34	58265.30
549.51	58026.56
549.68	58089.76
549.84	58054.65
550.01	58255.93
550.18	58166.99
550.34	58328.49
550.51	58333.17
550.68	58312.11
550.84	58122.52
551.01	58269.98
551.18	58307.43
551.34	58438.50
551.51	58368.28
551.68	58541.48
551.84	58506.37
552.01	58319.13
552.18	58489.99
552.34	58515.73
552.51	58658.51
552.68	58398.71
552.84	58529.78
553.01	58946.39
553.18	58667.87
553.34	59030.65
553.51	58644.46
553.67	58738.08
553.84	58581.27
554.01	58915.96
554.17	58876.18
554.34	59014.27
554.51	58721.70
554.67	58880.86
554.84	58740.42
555.00	59018.95
555.17	58702.98
555.33	58918.31
555.50	58848.09
555.67	58866.81
555.83	58845.75
556.00	59082.14
556.16	59302.15
556.33	59234.28
556.50	59047.04
556.66	59271.73
556.83	58885.54
556.99	59213.21
557.16	59325.56
557.32	59461.31
557.49	59477.69
557.65	59290.45
557.82	59264.70
557.98	59274.07
558.15	59299.81
558.32	59604.08
558.48	59213.21
558.65	59318.54
558.81	59320.88
558.98	59601.74
559.14	59583.02
559.31	59709.41
559.47	59412.16
559.64	59676.64
559.80	59578.34
559.97	59650.89
560.13	59489.40
560.30	59496.42
560.46	59604.08
560.63	59735.15
560.79	59625.15
560.96	59709.41
561.12	59896.65
561.29	59667.28
561.45	59618.13
561.61	59695.36
561.78	59770.26
561.94	59868.56
562.11	59786.64
562.27	59774.94
562.44	59765.58
562.60	59751.54
562.77	59889.63
562.93	59686.00
563.10	59980.91
563.26	59882.61
563.42	60123.68
563.59	59891.97
563.75	59824.09
563.92	59948.14
564.08	59915.37
564.24	60016.02
564.41	60168.15
564.57	59922.40
564.74	60030.06
564.90	59943.46
565.07	59934.10
565.23	60128.36
565.39	59882.61
565.56	60186.88
565.72	60041.76
565.88	59938.78
566.05	60039.42
566.21	59929.42
566.38	60104.96
566.54	60062.83
566.70	60144.75
566.87	60151.77
567.03	60053.47
567.19	60310.92
567.36	60238.37
567.52	60032.40
567.68	60353.05
567.85	60385.82
568.01	60343.69
568.17	60205.60
568.34	60292.20
568.50	60137.72
568.66	60364.76
568.83	60200.92
568.99	60224.32
569.15	60376.46
569.32	60252.41
569.48	60329.65
569.64	60526.25
569.81	60229.01
569.97	60205.60
570.13	60374.12
570.30	60254.75
570.46	60505.19
570.62	60341.35
570.78	60313.26
570.95	60479.44
571.11	60367.10
571.27	60430.29
571.43	60451.36
571.60	60477.10
571.76	60449.02
571.92	60523.91
572.09	60320.29
572.25	60533.28
572.41	60416.25
572.57	60544.98
572.74	60669.03
572.90	60474.76
573.06	60715.84
573.22	60589.45
573.38	60437.31
573.55	60474.76
573.71	60781.37
573.87	60610.51
574.03	60463.06
574.20	60734.56
574.36	60626.90
574.52	60706.47
574.68	60638.60
574.84	60652.64
575.01	60818.82
575.17	60863.29
575.33	60418.59
575.49	60383.48
575.65	60699.45
575.82	60795.42
575.98	60774.35
576.14	60790.73
576.30	60715.84
576.46	60624.56
576.62	60505.19
576.79	60750.94
576.95	60544.98
577.11	60638.60
577.27	60992.02
577.43	60769.67
577.59	60849.25
577.75	60535.62
577.92	60507.53
578.08	60605.83
578.24	60690.09
578.40	60886.70
578.56	60811.80
578.72	60699.45
578.88	60879.67
579.04	60917.12
579.21	60842.23
579.37	60992.02
579.53	60743.92
579.69	60624.56
579.85	60764.99
580.01	60835.20
580.17	60495.83
580.33	60893.72
580.49	60814.14
580.65	60795.42
580.82	60797.76
580.98	60720.52
581.14	60832.86
581.30	60938.19
581.46	60809.46
581.62	60985.00
581.78	60654.98
581.94	60837.54
582.10	60725.20
582.26	60842.23
582.42	60757.97
582.58	60926.49
582.74	60807.12
582.90	60999.04
583.06	60764.99
583.22	60390.50
583.38	60828.18
583.54	60882.02
583.70	60952.23
583.86	60933.51
584.02	60699.45
584.18	60912.44
584.34	60893.72
584.50	60940.53
584.66	60795.42
584.82	60743.92
584.98	60912.44
585.14	61022.45
585.30	60762.65
585.46	60900.74
585.62	60797.76
585.78	60973.30
585.94	60676.05
586.10	60879.67
586.26	60811.80
586.42	61020.11
586.58	60865.63
586.74	60924.14
586.90	60748.60
587.06	61043.51
587.22	60931.17
587.38	60900.74
587.54	61003.72
587.70	61190.97
587.86	61092.66
588.02	60947.55
588.18	61134.79
588.34	60821.16
588.49	60992.02
588.65	60970.96
588.81	61174.58
588.97	61123.09
589.13	60985.00
589.29	61071.60
589.45	61289.27
589.61	61146.50
589.77	61350.12
589.93	60968.61
590.08	61193.31
590.24	61319.70
590.40	61315.01
590.56	61462.47
590.72	61408.64
590.88	61057.56
591.04	61340.76
591.20	61305.65
591.35	61485.87
591.51	61621.62
591.67	61329.06
591.83	61282.25
591.99	61352.46
592.15	61256.50
592.31	61329.06
592.46	61406.30
592.62	61216.71
592.78	61336.08
592.94	61666.09
593.10	61183.94
593.26	61469.49
593.41	61408.64
593.57	61659.07
593.73	61382.89
593.89	61668.44
594.05	61422.68
594.20	61394.59
594.36	61518.64
594.52	61258.84
594.68	61256.50
594.84	61319.70
594.99	61483.53
595.15	61408.64
595.31	61504.60
595.47	61315.01
595.62	61226.07
595.78	61322.04
595.94	61380.55
596.10	61588.86
596.25	61310.33
596.41	61446.08
596.57	61532.68
596.73	61453.11
596.88	61511.62
597.04	61434.38
597.20	61607.58
597.36	61528.00
597.51	61616.94
597.67	61425.02
597.83	61415.66
597.99	61535.02
598.14	61623.96
598.30	61415.66
598.46	61415.66
598.61	61537.36
598.77	61380.55
598.93	61520.98
599.09	61530.34
599.24	62061.64
599.40	61776.10
599.56	61581.84
599.71	61715.25
599.87	61893.13
600.03	61677.80
600.18	61696.52
600.34	61675.46
600.50	61659.07
600.65	61682.48
600.81	61619.28
600.97	61633.33
601.12	61942.28
601.28	61448.42
601.44	61511.62
601.59	61586.52
601.75	61394.59
601.91	61715.25
602.06	61750.35
602.22	61893.13
602.37	61642.69
602.53	61537.36
602.69	61563.11
602.84	61715.25
603.00	61551.41
603.16	61794.82
603.31	61715.25
603.47	61602.90
603.62	61471.83
603.78	61841.63
603.94	61832.27
604.09	61647.37
604.25	61640.35
604.40	61626.31
604.56	61609.92
604.71	61907.17
604.87	61766.74
605.03	61811.21
605.18	61804.19
605.34	61745.67
605.49	61577.15
605.65	61666.09
605.80	61893.13
605.96	61797.16
606.12	61584.18
606.27	61806.53
606.43	61666.09
606.58	61801.85
606.74	61378.21
606.89	61645.03
607.05	61567.79
607.20	61787.80
607.36	61600.56
607.51	61410.98
607.67	61635.67
607.82	61378.21
607.98	61790.14
608.13	61675.46
608.29	61537.36
608.44	61528.00
608.60	61378.21
608.75	61504.60
608.91	61457.79
609.06	61312.67
609.22	61630.99
609.37	61432.04
609.53	61609.92
609.68	61647.37
609.84	61429.70
609.99	61530.34
610.15	61659.07
610.30	61455.45
610.46	61427.36
610.61	61539.71
610.76	61551.41
610.92	61443.74
611.07	61549.07
611.23	61581.84
611.38	61457.79
611.54	61380.55
611.69	61516.30
611.84	61642.69
612.00	61523.32
612.15	61144.16
612.31	61499.92
612.46	61453.11
612.62	61471.83
612.77	61439.06
612.92	61647.37
613.08	61434.38
613.23	61366.51
613.39	61336.08
613.54	61095.00
613.69	61441.40
613.85	61352.46
614.00	61572.47
614.15	61399.27
614.31	61366.51
614.46	61322.04
614.62	61333.74
614.77	61478.85
614.92	61263.52
615.08	61399.27
615.23	61286.93
615.38	61389.91
615.54	61195.65
615.69	61233.10
615.84	61392.25
616.00	61326.72
616.15	61216.71
616.30	61347.78
616.46	61193.31
616.61	61315.01
616.76	61481.19
616.92	61123.09
617.07	61064.58
617.22	61228.41
617.37	61073.94
617.53	61460.13
617.68	61144.16
617.83	61169.90
617.99	61219.05
618.14	61125.43
618.29	61127.77
618.45	61008.40
618.60	60816.48
618.75	60870.31
618.90	60893.72
619.06	61244.80
619.21	61125.43
619.36	61186.28
619.51	61120.75
619.67	60804.78
619.82	61092.66
619.97	61043.51
620.12	60921.80
620.28	60839.89
620.43	60968.61
620.58	60940.53
620.73	60654.98
620.89	60933.51
621.04	61137.13
621.19	60858.61
621.34	61008.40
621.49	60706.47
621.65	60919.46
621.80	60956.91
621.95	60746.26
622.10	60882.02
622.25	60938.19
622.41	60764.99
622.56	60882.02
622.71	60987.34
622.86	60643.28
623.01	60650.30
623.16	60697.11
623.32	60673.71
623.47	60874.99
623.62	60772.01
623.77	60704.13
623.92	60898.40
624.07	60645.62
624.23	60781.37
624.38	60645.62
624.53	60512.21
624.68	60509.87
624.83	60584.77
624.98	60793.07
625.13	60268.79
625.29	60432.63
625.44	60692.43
625.59	60535.62
625.74	60404.55
625.89	60280.50
626.04	60479.44
626.19	60477.10
626.34	60350.71
626.49	60238.37
626.65	60245.39
626.80	60392.84
626.95	60051.12
627.10	60083.89
627.25	60238.37
627.40	60135.38
627.55	60149.43
627.70	60233.69
627.85	60111.98
628.00	60189.22
628.15	60474.76
628.30	59941.12
628.45	60268.79
628.60	59962.18
628.76	60355.39
628.91	60308.58
629.06	60067.51
629.21	60104.96
629.36	60051.12
629.51	59983.25
629.66	60016.02
629.81	59838.14
629.96	59826.43
630.11	59931.76
630.26	59931.76
630.41	60135.38
630.56	59999.63
630.71	60018.36
630.86	59948.14
631.01	59952.82
631.16	59845.16
631.31	59643.87
631.46	59620.47
631.61	59678.98
631.76	59772.60
631.91	60016.02
632.06	59906.01
632.21	59845.16
632.36	59845.16
632.51	59512.80
632.66	59730.47
632.81	59690.68
632.96	59697.70
633.10	59657.91
633.25	59812.39
633.40	59917.71
633.55	59880.27
633.70	59711.75
633.85	59737.49
634.00	59711.75
634.15	59590.04
634.30	59566.63
634.45	59718.77
634.60	59662.60
634.75	59428.54
634.90	59372.37
635.05	59686.00
635.19	59632.17
635.34	59634.51
635.49	59491.74
635.64	59503.44
635.79	59475.35
635.94	59571.32
636.09	59463.65
636.24	59601.74
636.39	59477.69
636.53	59566.63
636.68	59496.42
636.83	59641.53
636.98	59746.86
637.13	59311.52
637.28	59241.30
637.43	59194.49
637.57	59281.09
637.72	59370.03
637.87	59318.54
638.02	59529.19
638.17	59405.14
638.32	59370.03
638.46	59199.17
638.61	59229.60
638.76	59213.21
638.91	59194.49
639.06	59047.04
639.20	59171.08
639.35	59009.59
639.50	58831.71
639.65	59131.29
639.80	58995.54
639.94	59131.29
640.09	59157.04
640.24	59215.55
640.39	58892.56
640.54	59049.38
640.68	59117.25
640.83	58878.52
640.98	59070.44
641.13	59007.25
641.27	59299.81
641.42	58880.86
641.57	58897.24
641.72	58962.78
641.86	58911.28
642.01	58475.94
642.16	58791.92
642.31	58869.15
642.45	58939.37
642.60	58852.77
642.75	59196.83
642.90	58670.21
643.04	59009.59
643.19	58707.66
643.34	58691.27
643.48	58913.62
643.63	58794.26
643.78	58721.70
643.93	58710.00
644.07	58721.70
644.22	58536.80
644.37	58440.84
644.51	58595.31
644.66	58747.45
644.81	58770.85
644.95	58450.20
645.10	58394.03
645.25	58501.69
645.39	58588.29
645.54	58508.71
645.69	58710.00
645.83	58560.20
645.98	58309.77
646.13	58653.82
646.27	58429.13
646.42	58223.17
646.57	58628.08
646.71	58424.45
646.86	58316.79
647.00	58588.29
647.15	58269.98
647.30	58440.84
647.44	58401.05
647.59	58433.81
647.74	58564.88
647.88	58291.04
648.03	58508.71
648.17	58525.10
648.32	58176.36
648.47	58286.36
648.61	58265.30
648.76	58244.23
648.90	58164.65
649.05	58035.92
649.20	58279.34
649.34	58323.81
649.49	58344.87
649.63	58354.24
649.78	58445.52
649.92	58391.68
650.07	58033.58
650.21	58092.10
650.36	58181.04
650.51	58178.70
650.65	58066.35
650.80	58337.85
650.94	58024.22
651.09	57968.05
651.23	57703.57
651.38	57939.96
651.52	57626.33
651.67	57888.47
651.81	57956.35
651.96	57991.45
652.10	57801.87
652.25	57841.66
652.39	57806.55
652.54	57560.79
652.68	57623.99
652.83	57553.77
652.97	57689.52
653.12	57647.39
653.26	57804.21
653.41	57755.06
653.55	57614.63
653.70	57680.16
653.84	57748.04
653.99	57626.33
654.13	57535.05
654.27	57736.34
654.42	57392.28
654.56	57556.11
654.71	57537.39
654.85	57757.40
655.00	57696.55
655.14	57708.25
655.29	57387.60
655.43	57485.90
655.57	57464.83
655.72	57513.98
655.86	57265.89
656.01	57481.22
656.15	57284.61
656.30	57366.53
656.44	57504.62
656.58	57350.15
656.73	57549.09
656.87	57586.54
657.01	57256.53
657.16	57359.51
657.30	57272.91
657.45	57249.50
657.59	57162.90
657.73	57193.33
657.88	57106.73
658.02	57179.29
658.16	57263.55
658.31	57221.42
658.45	56926.51
658.60	57001.41
658.74	57097.37
658.88	57069.28
659.03	56802.46
659.17	56743.95
659.31	57055.24
659.46	57027.15
659.60	56947.57
659.74	56947.57
659.89	56790.76
660.03	56652.67
660.17	56921.83
660.32	56914.81
660.46	56734.59
660.60	56685.43
660.74	56905.44
660.89	56870.34
661.03	56535.64
661.17	56140.09
661.32	56324.99
661.46	56472.45
661.60	56313.29
661.74	56025.40
661.89	56196.26
662.03	56378.82
662.17	56236.05
662.31	56100.30
662.46	56416.27
662.60	55915.40
662.74	56219.67
662.88	55950.51
663.03	56018.38
663.17	56168.18
663.31	55966.89
663.45	55826.46
663.60	55739.86
663.74	55671.98
663.88	55409.84
664.02	55639.22
664.17	55639.22
664.31	55657.94
664.45	55606.45
664.59	55641.56
664.73	55433.25
664.88	55458.99
665.02	55253.03
665.16	55388.78
665.30	55220.26
665.44	55393.46
665.59	55344.31
665.73	55288.13
665.87	55063.44
666.01	55346.65
666.15	55201.53
666.29	55271.75
666.44	55295.16
666.58	54855.14
666.72	54803.64
666.86	54747.47
667.00	55035.36
667.14	54445.54
667.28	54536.82
667.43	54747.47
667.57	54824.71
667.71	54700.66
667.85	54571.93
667.99	54480.65
668.13	54337.88
668.27	54340.22
668.41	54138.93
668.56	54000.84
668.70	54075.74
668.84	53989.14
668.98	53902.54
669.12	54089.78
669.26	54192.76
669.40	54148.29
669.54	54218.51
669.68	54122.55
669.82	53970.41
669.96	54089.78
670.10	53862.75
670.25	54094.46
670.39	53638.06
670.53	53862.75
670.67	53584.22
670.81	54150.63
670.95	53631.04
671.09	53584.22
671.23	53535.07
671.37	53097.39
671.51	53427.41
671.65	53572.52
671.79	53411.02
671.93	53179.31
672.07	53284.64
672.21	52914.83
672.35	52589.50
672.49	52612.90
672.63	52292.25
672.77	52395.23
672.91	52816.53
673.05	52332.04
673.19	52535.66
673.33	52362.46
673.47	52294.59
673.61	52165.86
673.75	52336.72
673.89	51976.28
674.03	51861.59
674.17	51903.72
674.31	51796.06
674.45	51641.58
674.59	51587.75
674.73	51697.75
674.87	51742.22
675.01	51690.73
675.15	51749.24
675.29	51325.61
675.43	51196.88
675.56	51201.56
675.70	50897.29
675.84	50859.84
675.98	49879.16
676.12	50693.66
676.26	50866.86
676.40	50370.67
676.54	50679.62
676.68	50810.69
676.82	49893.20
676.96	50241.94
677.10	49975.12
677.23	49792.56
677.37	50064.06
677.51	49839.37
677.65	49539.78
677.79	48832.94
677.93	48907.83
678.07	49221.47
678.21	48858.68
678.34	48727.61
678.48	49057.63
678.62	48570.80
678.76	48456.11
678.90	48215.04
679.04	48357.81
679.18	48369.51
679.31	47641.60
679.45	47683.73
679.59	47948.21
679.73	47929.49
679.87	47742.25
680.00	47285.84
680.14	47063.49
680.28	47306.91
680.42	46759.22
680.56	46806.03
680.70	46398.78
680.83	46490.06
680.97	46698.37
681.11	46579.00
681.25	46258.35
681.39	46342.61
681.52	46550.91
681.66	45933.01
681.80	45675.55
681.94	45869.82
682.07	45848.75
682.21	45146.59
682.35	45652.15
682.49	45212.13
682.62	44996.80
682.76	45375.97
682.90	45158.30
683.04	44800.19
683.17	44655.08
683.31	43863.98
683.45	44547.42
683.59	44034.84
683.72	43875.68
683.86	43920.15
684.00	43913.13
684.13	43981.01
684.27	43866.32
684.41	44158.89
684.55	43344.38
684.68	43557.37
684.82	43075.22
684.96	42724.14
685.09	42838.83
685.23	42672.65
685.37	42581.37
685.50	41848.78
685.64	42162.41
685.78	41909.63
685.91	42045.38
686.05	41745.80
686.19	41357.27
686.32	41525.78
686.46	40704.26
686.60	40673.83
686.73	40697.24
686.87	40655.11
687.01	41041.29
687.14	40692.55
687.28	40322.75
687.42	40179.98
687.55	40149.55
687.69	40388.28
687.82	39494.20
687.96	39849.96
688.10	39622.93
688.23	39328.02
688.37	39548.03
688.50	39075.24
688.64	39138.44
688.78	38834.17
688.91	38396.49
689.05	38595.43
689.18	38117.96
689.32	37303.46
689.46	37682.62
689.59	38000.94
689.73	37954.13
689.86	37443.89
690.00	37130.26
690.13	37118.56
690.27	37209.84
690.41	37596.03
690.54	36917.27
690.68	36570.87
690.81	36809.61
690.95	35969.35
691.08	36266.60
691.22	35784.45
691.35	36180.00
691.49	36531.08
691.62	35866.37
691.76	35538.69
691.89	35442.73
692.03	35803.17
692.16	35122.08
692.30	35005.05
692.43	35021.44
692.57	34689.08
692.70	34614.18
692.84	34504.18
692.97	34277.15
693.11	34787.38
693.24	34185.86
693.38	33539.88
693.51	33479.02
693.65	33656.90
693.78	33165.39
693.92	33481.36
694.05	33092.83
694.19	32854.10
694.32	33074.11
694.45	32931.34
694.59	32807.29
694.72	32800.27
694.86	32381.31
694.99	32114.49
695.13	31992.78
695.26	31646.38
695.39	31400.63
695.53	32034.91
695.66	31576.17
695.80	31442.76
695.93	31187.64
696.07	30693.79
696.20	30775.70
696.33	30539.31
696.47	30782.73
696.60	30291.21
696.73	30192.91
696.87	30309.94
697.00	29762.25
697.14	30136.74
697.27	30085.25
697.40	29593.73
697.54	29603.10
697.67	29247.33
697.80	29333.93
697.94	28914.98
698.07	28762.84
698.21	28474.96
698.34	28914.98
698.47	28451.55
698.61	28184.73
698.74	28210.48
698.87	28212.82
699.01	27929.61
699.14	27779.82
699.27	27880.46
699.40	28027.92
699.54	27566.83
699.67	27250.86
699.80	26874.03
699.94	27084.68
700.07	27513.00
700.20	27161.92
700.34	26951.27
700.47	26171.87
700.60	26441.03
700.73	26321.66
700.87	25937.82
701.00	25736.53
701.13	25666.31
701.26	25865.26
701.40	26085.27
701.53	25663.97
701.66	25364.39
701.79	25104.59
701.93	25362.04
702.06	24996.92
702.19	24765.21
702.32	25015.65
702.46	24900.96
702.59	24606.05
702.72	24140.29
702.85	24428.17
702.99	24425.83
703.12	24128.58
703.25	23924.96
703.38	23440.47
703.51	23896.87
703.65	23302.37
703.78	23089.38
703.91	23016.83
704.04	23000.44
704.17	22941.93
704.31	23168.96
704.44	22635.32
704.57	22939.59
704.70	22394.25
704.83	22382.54
704.96	22202.32
705.10	22190.62
705.23	22429.35
>>>>>End Processed Spectral Data<<<<<
