SpectraSuite Data File
++++++++++++++++++++++++++++++++++++
Date: Fri Oct 25 11:23:07 EDT 2013
User: price-jones
Dark Spectrum Present: No
Reference Spectrum Present: No
Number of Sampled Component Spectra: 1
Spectrometers: USB2+H05261
Integration Time (usec): 100000 (USB2+H05261)
Spectra Averaged: 1 (USB2+H05261)
Boxcar Smoothing: 0 (USB2+H05261)
Correct for Electrical Dark: No (USB2+H05261)
Strobe/Lamp Enabled: No (USB2+H05261)
Correct for Detector Non-linearity: No (USB2+H05261)
Correct for Stray Light: No (USB2+H05261)
Number of Pixels in Processed Spectrum: 2048
>>>>>Begin Processed Spectral Data<<<<<
365.73	266.82
365.92	266.82
366.12	266.82
366.32	114.69
366.52	88.94
366.72	110.01
366.91	93.62
367.11	142.77
367.31	102.98
367.51	95.96
367.70	138.09
367.90	86.60
368.10	119.37
368.30	131.07
368.49	124.05
368.69	224.69
368.89	110.01
369.09	191.92
369.28	170.86
369.48	168.52
369.68	227.03
369.87	194.26
370.07	238.73
370.27	220.01
370.47	304.27
370.66	589.82
370.86	695.14
371.06	671.73
371.25	697.48
371.45	634.29
371.65	648.33
371.84	643.65
372.04	645.99
372.24	730.25
372.44	777.06
372.63	758.33
372.83	720.88
373.03	653.01
373.22	748.97
373.42	725.57
373.62	758.33
373.81	770.04
374.01	830.89
374.21	861.32
374.40	734.93
374.60	809.83
374.79	807.48
374.99	772.38
375.19	837.91
375.38	861.32
375.58	793.44
375.78	802.80
375.97	805.14
376.17	894.08
376.37	880.04
376.56	912.81
376.76	868.34
376.95	880.04
377.15	873.02
377.35	957.28
377.54	861.32
377.74	910.47
377.93	910.47
378.13	959.62
378.33	959.62
378.52	950.26
378.72	992.39
378.91	1022.81
379.11	950.26
379.31	915.15
379.50	891.74
379.70	1008.77
379.89	959.62
380.09	959.62
380.28	933.87
380.48	957.28
380.68	1025.15
380.87	891.74
381.07	954.94
381.26	1109.41
381.46	1090.69
381.65	1004.09
381.85	1011.11
382.04	1071.97
382.24	1100.05
382.43	1008.77
382.63	1060.26
382.83	1086.01
383.02	1125.80
383.22	1111.75
383.41	1083.67
383.61	1064.94
383.80	1170.27
384.00	1146.86
384.19	1196.01
384.39	1156.22
384.58	1132.82
384.78	1172.61
384.97	1181.97
385.17	1149.20
385.36	1249.85
385.56	1170.27
385.75	1186.65
385.95	1188.99
386.14	1268.57
386.34	1132.82
386.53	1235.80
386.72	1228.78
386.92	1242.82
387.11	1240.48
387.31	1299.00
387.50	1289.64
387.70	1273.25
387.89	1224.10
388.09	1313.04
388.28	1327.08
388.48	1331.76
388.67	1289.64
388.86	1320.06
389.06	1341.13
389.25	1352.83
389.45	1383.26
389.64	1390.28
389.84	1338.79
390.03	1331.76
390.22	1359.85
390.42	1378.58
390.61	1406.66
390.81	1357.51
391.00	1371.55
391.19	1343.47
391.39	1462.83
391.58	1441.77
391.78	1568.16
391.97	1540.07
392.16	1474.54
392.36	1530.71
392.55	1528.37
392.75	1392.62
392.94	1540.07
393.13	1563.48
393.33	1490.92
393.52	1540.07
393.71	1577.52
393.91	1591.56
394.10	1537.73
394.29	1586.88
394.49	1675.82
394.68	1607.95
394.88	1596.25
395.07	1614.97
395.26	1736.68
395.46	1701.57
395.65	1699.23
395.84	1621.99
396.04	1750.72
396.23	1746.04
396.42	1692.21
396.62	1710.93
396.81	1790.51
397.00	1816.26
397.19	1764.76
397.39	1811.57
397.58	1769.44
397.77	1797.53
397.97	1877.11
398.16	1872.43
398.35	1937.96
398.55	1858.39
398.74	1963.71
398.93	1923.92
399.12	1926.26
399.32	1940.30
399.51	1912.22
399.70	2057.33
399.90	2005.84
400.09	2134.57
400.28	2090.10
400.47	2043.29
400.67	2143.93
400.86	2069.03
401.05	2155.63
401.24	1937.96
401.44	2150.95
401.63	2207.13
401.82	2162.66
402.01	2101.80
402.21	2176.70
402.40	2176.70
402.59	2237.55
402.78	2146.27
402.97	2122.87
403.17	2312.45
403.36	2370.96
403.55	2286.70
403.74	2359.26
403.93	2279.68
404.13	2392.03
404.32	2366.28
404.51	2410.75
404.70	2499.69
404.89	2347.56
405.09	2424.80
405.28	2567.57
405.47	2473.95
405.66	2607.36
405.85	2520.76
406.05	2607.36
406.24	2558.21
406.43	2682.25
406.62	2733.75
406.81	2637.78
407.00	2600.34
407.20	2616.72
407.39	2658.85
407.58	2708.00
407.77	2649.49
407.96	2719.70
408.15	2820.35
408.34	2775.88
408.54	2841.41
408.73	2853.11
408.92	2949.08
409.11	2918.65
409.30	2832.05
409.49	2808.64
409.68	2918.65
409.87	3016.95
410.07	3005.25
410.26	2998.23
410.45	2979.50
410.64	3091.85
410.83	3101.21
411.02	3117.59
411.21	3176.11
411.40	3159.72
411.59	3276.75
411.78	3148.02
411.98	3180.79
412.17	3501.44
412.36	3248.66
412.55	3389.10
412.74	3346.97
412.93	3428.88
413.12	3440.59
413.31	3599.74
413.50	3492.08
413.69	3461.65
413.88	3667.62
414.07	3489.74
414.26	3676.98
414.45	3590.38
414.64	3737.84
414.83	3684.00
415.02	3768.26
415.22	3946.14
415.41	3908.69
415.60	3915.72
415.79	3889.97
415.98	3873.59
416.17	3955.51
416.36	4124.02
416.55	4004.66
416.74	4124.02
416.93	4117.00
417.12	4102.96
417.31	4191.90
417.50	4306.59
417.69	4358.08
417.88	4290.20
418.07	4322.97
418.26	4418.93
418.45	4374.46
418.64	4447.02
418.83	4393.19
419.02	4498.51
419.21	4521.92
419.39	4784.06
419.58	4512.55
419.77	4386.16
419.96	4552.34
420.15	4746.61
420.34	4526.60
420.53	4713.84
420.72	4725.54
420.91	4823.84
421.10	4912.78
421.29	4767.67
421.48	4706.82
421.67	4758.31
421.86	4807.46
422.05	4870.65
422.24	4800.44
422.43	4856.61
422.61	4882.36
422.80	4975.98
422.99	5069.60
423.18	5102.37
423.37	4990.02
423.56	4793.42
423.75	4903.42
423.94	4997.04
424.13	4610.86
424.32	4793.42
424.50	5093.01
424.69	5004.07
424.88	5170.24
425.07	5102.37
425.26	5039.17
425.45	4999.38
425.64	5139.82
425.83	4905.76
426.01	5114.07
426.20	5231.10
426.39	5078.96
426.58	5172.58
426.77	5123.43
426.96	5039.17
427.15	5284.93
427.33	5291.95
427.52	5146.84
427.71	5411.32
427.90	5210.03
428.09	5458.13
428.28	5362.17
428.46	5345.78
428.65	5427.70
428.84	5448.77
429.03	5493.24
429.22	5322.38
429.40	5554.09
429.59	5591.54
429.78	5376.21
429.97	5313.02
430.16	5453.45
430.34	5654.73
430.53	5710.91
430.72	5703.89
430.91	5650.05
431.10	5462.81
431.28	5572.82
431.47	5785.80
431.66	5951.98
431.85	5870.06
432.03	6122.84
432.22	5951.98
432.41	5870.06
432.60	5989.43
432.79	6012.84
432.97	6122.84
433.16	6038.58
433.35	6047.94
433.54	6232.85
433.72	6101.78
433.91	6181.35
434.10	6148.59
434.28	6260.93
434.47	6246.89
434.66	6197.74
434.85	6368.60
435.03	6410.73
435.22	6321.79
435.41	6450.52
435.59	6396.68
435.78	6499.67
435.97	6434.13
436.16	6473.92
436.34	6546.48
436.53	6527.75
436.72	6808.62
436.90	6272.64
437.09	6675.21
437.28	6438.81
437.46	6480.94
437.65	6759.47
437.84	6759.47
438.02	6846.07
438.21	6956.07
438.40	6761.81
438.58	7248.64
438.77	7073.10
438.96	7131.61
439.14	7080.12
439.33	7337.58
439.52	7199.49
439.70	7307.15
439.89	7452.27
440.08	7538.87
440.26	7552.91
440.45	7248.64
440.63	7585.68
440.82	7723.77
441.01	7585.68
441.19	7602.06
441.38	7997.61
441.57	7676.96
441.75	7770.58
441.94	8116.98
442.12	7861.86
442.31	8016.33
442.50	8109.96
442.68	8273.79
442.87	8163.79
443.05	8243.37
443.24	8255.07
443.43	7939.10
443.61	8177.83
443.80	8418.91
443.98	8198.90
444.17	7871.22
444.35	8322.94
444.54	8557.00
444.73	8379.12
444.91	8234.00
445.10	8388.48
445.28	8334.65
445.47	8259.75
445.65	8374.44
445.84	8638.92
446.02	8212.94
446.21	8528.91
446.39	8449.33
446.58	8524.23
446.77	8636.58
446.95	8355.71
447.14	8360.39
447.32	8652.96
447.51	8631.90
447.69	8542.96
447.88	8643.60
448.06	8507.85
448.25	8643.60
448.43	8507.85
448.62	8718.50
448.80	8697.43
448.99	8685.73
449.17	8882.33
449.36	8608.49
449.54	8863.61
449.73	8968.93
449.91	9011.06
450.10	8898.72
450.28	8997.02
450.46	9050.85
450.65	9128.09
450.83	9116.39
451.02	8987.66
451.20	9387.89
451.39	9149.15
451.57	9214.69
451.76	9158.52
451.94	9401.93
452.13	9301.29
452.31	9584.49
452.49	9401.93
452.68	9320.01
452.86	9415.98
453.05	9483.85
453.23	9579.81
453.42	9341.08
453.60	9617.26
453.78	9537.68
453.97	9465.13
454.15	9537.68
454.34	9371.50
454.52	9841.95
454.70	9748.33
454.89	9905.15
455.07	9610.24
455.26	9940.26
455.44	9933.23
455.62	9987.07
455.81	9968.34
455.99	9970.68
456.17	10186.01
456.36	10071.33
456.54	10284.31
456.73	10298.36
456.91	10672.84
457.09	10328.78
457.28	10532.41
457.46	10221.12
457.64	10616.67
457.83	10609.65
458.01	10539.43
458.19	10611.99
458.38	10562.84
458.56	10595.61
458.74	10469.22
458.93	10824.98
459.11	10714.97
459.29	10949.03
459.48	10984.13
459.66	10871.79
459.84	11047.33
460.03	11044.99
460.21	11140.95
460.39	10934.98
460.57	11063.71
460.76	11063.71
460.94	11405.43
461.12	11267.34
461.31	11454.58
461.49	11267.34
461.67	11447.56
461.85	11609.06
462.04	11527.14
462.22	11627.78
462.40	11709.70
462.59	11597.35
462.77	11510.75
462.95	11726.08
463.13	11786.94
463.32	11728.42
463.50	11831.41
463.68	11882.90
463.86	11836.09
464.05	11740.13
464.23	11903.96
464.41	12009.29
464.59	11761.19
464.78	12294.83
464.96	12032.69
465.14	12065.46
465.32	12093.55
465.50	12168.45
465.69	12091.21
465.87	12231.64
466.05	12182.49
466.23	12322.92
466.41	12360.37
466.60	12826.14
466.78	12196.53
466.96	12198.87
467.14	12657.62
467.32	12470.37
467.51	12521.87
467.69	12236.32
467.87	12645.91
468.05	12739.54
468.23	12470.37
468.41	12713.79
468.60	12730.17
468.78	13034.44
468.96	12697.41
469.14	12896.35
469.32	12896.35
469.50	12863.58
469.69	12992.31
469.87	13099.98
470.05	13153.81
470.23	13547.02
470.41	13352.76
470.59	13584.47
470.77	13198.28
470.95	13540.00
471.14	13509.57
471.32	13252.11
471.50	13678.09
471.68	13860.65
471.86	13860.65
472.04	13781.07
472.22	14349.82
472.40	13734.26
472.58	13895.76
472.77	14061.94
472.95	14452.81
473.13	14731.33
473.31	14237.48
473.49	14366.21
473.67	14216.41
473.85	14562.81
474.03	14846.02
474.21	14525.36
474.39	14951.34
474.57	14738.35
474.75	15005.17
474.93	14958.36
475.12	15059.01
475.30	15433.49
475.48	15204.12
475.66	15349.23
475.84	15393.70
476.02	15543.50
476.20	15499.03
476.38	15838.41
476.56	16170.76
476.74	16173.10
476.92	15878.19
477.10	16002.24
477.28	16533.54
477.46	16435.24
477.64	16582.70
477.82	16704.40
478.00	17315.28
478.18	16870.58
478.36	17055.48
478.54	17476.78
478.72	17436.99
478.90	17689.77
479.08	17907.44
479.26	17731.90
479.44	17881.69
479.62	17860.63
479.80	18260.86
479.98	18366.18
480.16	18698.54
480.34	18317.03
480.52	18965.36
480.70	18768.76
480.88	18682.16
481.06	18853.02
481.24	18808.54
481.41	19171.33
481.59	19604.33
481.77	19569.22
481.95	19658.16
482.13	19861.79
482.31	19962.43
482.49	20475.01
482.67	20599.05
482.85	20538.20
483.03	20954.82
483.21	20954.82
483.39	20718.42
483.57	21139.72
483.74	21415.90
483.92	21472.07
484.10	21542.29
484.28	22050.19
484.46	22230.41
484.64	22572.13
484.82	22075.93
485.00	22637.66
485.18	22714.90
485.35	23110.45
485.53	22876.40
485.71	23288.33
485.89	23506.00
486.07	23332.80
486.25	24009.22
486.43	24032.62
486.61	24126.24
486.78	24510.09
486.96	24552.22
487.14	25135.01
487.32	24610.73
487.50	25209.91
487.68	25235.66
487.85	25481.41
488.03	26085.27
488.21	25874.62
488.39	26026.76
488.57	26326.35
488.75	26696.15
488.92	26714.87
489.10	27250.86
489.28	27447.46
489.46	27494.27
489.64	27367.88
489.81	27882.80
489.99	27974.08
490.17	27733.01
490.35	28709.01
490.53	28327.50
490.70	28973.49
490.88	28591.98
491.06	29223.93
491.24	29319.89
491.41	29226.27
491.59	29589.05
491.77	29743.53
491.95	29759.91
492.13	30281.85
492.30	30195.25
492.48	30490.16
492.66	30593.14
492.84	30735.92
493.01	30792.09
493.19	30604.84
493.37	31173.60
493.54	31204.02
493.72	32077.04
493.90	31814.90
494.08	31791.50
494.25	32496.00
494.43	32285.35
494.61	32755.80
494.79	32840.06
494.96	32652.81
495.14	32699.62
495.32	33567.96
495.49	33228.59
495.67	33392.42
495.85	33603.07
496.02	33769.25
496.20	34771.00
496.38	34394.17
496.55	34586.10
496.73	35157.19
496.91	34792.06
497.09	35044.84
497.26	35035.48
497.44	35241.45
497.62	35660.40
497.79	36041.91
497.97	36100.42
498.14	36514.70
498.32	36388.31
498.50	36680.88
498.67	37216.86
498.85	36882.16
499.03	37336.23
499.20	37097.49
499.38	37273.03
499.56	37376.01
499.73	37507.08
499.91	37673.26
500.08	38019.66
500.26	37949.45
500.44	38216.27
500.61	38209.25
500.79	38258.40
500.97	38270.10
501.14	39009.71
501.32	39068.22
501.49	38747.57
501.67	38974.60
501.84	39672.08
502.02	39517.60
502.20	39201.63
502.37	39840.60
502.55	39587.82
502.72	40287.64
502.90	40053.59
503.07	39636.97
503.25	40624.68
503.43	40048.91
503.60	40570.85
503.78	40488.93
503.95	40744.05
504.13	40697.24
504.30	41102.15
504.48	40795.54
504.65	41486.00
504.83	41900.27
505.01	41713.03
505.18	41635.79
505.36	42080.49
505.53	41532.81
505.71	41961.12
505.88	42459.66
506.06	41649.83
506.23	42227.95
506.41	42300.50
506.58	42637.54
506.76	42419.87
506.93	43213.31
507.11	42541.58
507.28	43061.18
507.46	42983.94
507.63	43026.07
507.81	43966.96
507.98	43548.01
508.16	43973.98
508.33	44037.18
508.50	43793.76
508.68	43941.22
508.85	44114.42
509.03	44016.11
509.20	44519.33
509.38	44594.23
509.55	44788.49
509.73	45118.51
509.90	45067.02
510.08	45071.70
510.25	44849.35
510.42	45357.24
510.60	45722.37
510.77	45436.82
510.95	45928.33
511.12	45352.56
511.30	45837.05
511.47	45993.87
511.64	45956.42
511.82	46330.90
511.99	45778.54
512.17	46508.79
512.34	46024.29
512.51	46693.69
512.69	46466.66
512.86	46447.93
513.04	47028.38
513.21	47164.14
513.38	47344.36
513.56	46997.96
513.73	47421.59
513.90	47255.42
514.08	47868.64
514.25	47889.70
514.43	47636.92
514.60	47384.15
514.77	47969.28
514.95	48273.55
515.12	48278.23
515.29	47901.40
515.47	48360.15
515.64	48942.94
515.81	48308.66
515.99	48575.48
516.16	49146.57
516.33	48924.22
516.51	49062.31
516.68	49258.91
516.85	48765.06
517.03	49013.16
517.20	49263.60
517.37	49155.93
517.54	49254.23
517.72	49263.60
517.89	49425.09
518.06	49427.43
518.24	49808.94
518.41	49567.87
518.58	49897.88
518.75	49649.78
518.93	49993.84
519.10	49794.90
519.27	49832.35
519.45	50064.06
519.62	50344.92
519.79	50195.13
519.96	50373.01
520.14	50733.45
520.31	50344.92
520.48	50681.96
520.65	50602.38
520.83	50986.23
521.00	51110.28
521.17	50897.29
521.34	50777.92
521.52	51372.42
521.69	51065.81
521.86	51166.45
522.03	51416.89
522.20	51646.26
522.38	51782.01
522.55	51870.95
522.72	51704.77
522.89	51498.81
523.07	52009.04
523.24	51702.43
523.41	51917.76
523.58	51529.23
523.75	52135.43
523.92	51948.19
524.10	52229.05
524.27	52409.28
524.44	52540.35
524.61	52465.45
524.78	52530.98
524.96	52477.15
525.13	52758.02
525.30	52861.00
525.47	52868.02
525.64	52879.72
525.81	53008.45
525.98	53013.13
526.16	53008.45
526.33	53139.52
526.50	53542.10
526.67	53055.26
526.84	53506.99
527.01	53134.84
527.18	53212.08
527.36	53212.08
527.53	53249.53
527.70	53600.61
527.87	53434.43
528.04	53415.71
528.21	53523.37
528.38	53382.94
528.55	53895.52
528.72	53719.98
528.89	53928.28
529.07	53354.85
529.24	53846.36
529.41	54078.08
529.58	54253.62
529.75	53902.54
529.92	54150.63
530.09	53937.65
530.26	54239.57
530.43	54384.69
530.60	53792.53
530.77	54424.48
530.94	54482.99
531.11	54218.51
531.28	54246.60
531.46	54747.47
531.63	54597.68
531.80	54625.76
531.97	54567.25
532.14	55070.46
532.31	54747.47
532.48	54836.41
532.65	55030.68
532.82	54705.34
532.99	55131.32
533.16	55000.25
533.33	54958.12
533.50	54930.03
533.67	55238.98
533.84	54824.71
534.01	55100.89
534.18	55407.50
534.35	55318.56
534.52	55458.99
534.69	55608.79
534.86	55573.68
535.03	55166.43
535.20	55475.38
535.37	55543.25
535.54	55690.71
535.71	55477.72
535.88	55833.48
536.05	55697.73
536.22	55676.66
536.38	56025.40
536.55	55887.31
536.72	55814.76
536.89	55744.54
537.06	55913.06
537.23	56104.98
537.40	56116.68
537.57	55955.19
537.74	56240.73
537.91	56142.43
538.08	56219.67
538.25	55880.29
538.42	56332.01
538.59	56264.14
538.75	56055.83
538.92	56512.23
539.09	56519.26
539.26	56313.29
539.43	56460.74
539.60	56617.56
539.77	56549.68
539.94	56472.45
540.11	56568.41
540.28	56725.22
540.44	56666.71
540.61	56690.12
540.78	56748.63
540.95	56732.25
541.12	56793.10
541.29	56865.66
541.46	56736.93
541.62	56802.46
541.79	57064.60
541.96	56720.54
542.13	56699.48
542.30	56952.26
542.47	57209.71
542.63	57237.80
542.80	57055.24
542.97	57523.35
543.14	57492.92
543.31	57359.51
543.48	57296.31
543.64	57682.50
543.81	57565.48
543.98	57553.77
544.15	57738.68
544.32	57642.71
544.48	57673.14
544.65	57691.86
544.82	57628.67
544.99	57228.44
545.16	57745.70
545.32	57607.61
545.49	58176.36
545.66	58162.31
545.83	57759.74
546.00	58054.65
546.16	57844.00
546.33	58101.46
546.50	57801.87
546.67	58113.16
546.83	57776.12
547.00	58199.76
547.17	58078.05
547.34	58064.01
547.50	58155.29
547.67	58277.00
547.84	58475.94
548.00	58422.11
548.17	58412.75
548.34	58342.53
548.51	58630.42
548.67	58415.09
548.84	58277.00
549.01	58443.18
549.18	58384.66
549.34	58433.81
549.51	58520.41
549.68	58724.04
549.84	58630.42
550.01	58805.96
550.18	58518.07
550.34	58754.47
550.51	58766.17
550.68	58576.59
550.84	58618.72
551.01	58979.16
551.18	58782.55
551.34	58791.92
551.51	58880.86
551.68	58747.45
551.84	58869.15
552.01	58827.02
552.18	58850.43
552.34	58866.81
552.51	58969.80
552.68	58721.70
552.84	58885.54
553.01	59096.19
553.18	59014.27
553.34	59143.00
553.51	58953.41
553.67	59107.89
553.84	59077.46
554.01	58995.54
554.17	59222.58
554.34	59264.70
554.51	59351.30
554.67	59166.40
554.84	59234.28
555.00	59267.05
555.17	59203.85
555.33	59295.13
555.50	59145.34
555.67	59058.74
555.83	59278.75
556.00	59363.01
556.16	59636.85
556.33	59688.34
556.50	59536.21
556.66	59533.87
556.83	59295.13
556.99	59714.09
557.16	59625.15
557.32	59697.70
557.49	59891.97
557.65	59765.58
557.82	59707.07
557.98	59599.40
558.15	59554.93
558.32	59746.86
558.48	59552.59
558.65	59629.83
558.81	59531.53
558.98	59852.18
559.14	59704.73
559.31	59978.57
559.47	59894.31
559.64	59824.09
559.80	59838.14
559.97	59964.52
560.13	59821.75
560.30	59821.75
560.46	60177.51
560.63	59861.54
560.79	60179.85
560.96	60030.06
561.12	60097.94
561.29	60163.47
561.45	60004.31
561.61	59971.55
561.78	60156.45
561.94	60205.60
562.11	60137.72
562.27	60076.87
562.44	60065.17
562.60	60065.17
562.77	60247.73
562.93	59948.14
563.10	60027.72
563.26	60243.05
563.42	60285.18
563.59	60158.79
563.75	60121.34
563.92	60257.09
564.08	60205.60
564.24	60296.88
564.41	60409.23
564.57	60336.67
564.74	60252.41
564.90	60350.71
565.07	60245.39
565.23	60509.87
565.39	60259.43
565.56	60275.82
565.72	60257.09
565.88	60243.05
566.05	60271.14
566.21	60458.38
566.38	60486.46
566.54	60573.06
566.70	60584.77
566.87	60596.47
567.03	60423.27
567.19	60825.84
567.36	60647.96
567.52	60636.26
567.68	60666.69
567.85	60793.07
568.01	60659.66
568.17	60537.96
568.34	60830.52
568.50	60666.69
568.66	60552.00
568.83	60839.89
568.99	60540.30
569.15	60444.33
569.32	60652.64
569.48	60928.83
569.64	60610.51
569.81	60500.51
569.97	60477.10
570.13	60704.13
570.30	60566.04
570.46	60818.82
570.62	60846.91
570.78	60825.84
570.95	60755.63
571.11	60954.57
571.27	60872.65
571.43	60802.44
571.60	60856.27
571.76	60750.94
571.92	60879.67
572.09	60790.73
572.25	60872.65
572.41	60863.29
572.57	60699.45
572.74	61057.56
572.90	60776.69
573.06	60786.05
573.22	60802.44
573.38	60722.86
573.55	60715.84
573.71	61155.86
573.87	60879.67
574.03	60867.97
574.20	61043.51
574.36	60814.14
574.52	60912.44
574.68	60896.06
574.84	61045.85
575.01	61024.79
575.17	61055.21
575.33	60905.42
575.49	60985.00
575.65	61029.47
575.82	61080.96
575.98	61031.81
576.14	61317.35
576.30	60970.96
576.46	60940.53
576.62	60879.67
576.79	61024.79
576.95	60912.44
577.11	61160.54
577.27	61001.38
577.43	61080.96
577.59	60832.86
577.75	60825.84
577.92	60912.44
578.08	61064.58
578.24	60912.44
578.40	61165.22
578.56	61312.67
578.72	61141.81
578.88	61064.58
579.04	61169.90
579.21	60816.48
579.37	61132.45
579.53	61361.82
579.69	60959.25
579.85	61174.58
580.01	61134.79
580.17	61055.21
580.33	61247.14
580.49	61263.52
580.65	61172.24
580.82	61017.77
580.98	61378.21
581.14	61038.83
581.30	61219.05
581.46	61153.52
581.62	61324.38
581.78	61109.05
581.94	61338.42
582.10	61017.77
582.26	61230.75
582.42	61228.41
582.58	61284.59
582.74	61092.66
582.90	61240.12
583.06	61244.80
583.22	61055.21
583.38	61343.10
583.54	61219.05
583.70	61247.14
583.86	61228.41
584.02	61205.01
584.18	61279.91
584.34	61076.28
584.50	61080.96
584.66	61062.24
584.82	61230.75
584.98	61289.27
585.14	61368.85
585.30	61083.30
585.46	61104.37
585.62	61226.07
585.78	61228.41
585.94	61167.56
586.10	61221.39
586.26	61265.86
586.42	61272.88
586.58	61385.23
586.74	61441.40
586.90	61219.05
587.06	61293.95
587.22	61357.14
587.38	61237.78
587.54	61499.92
587.70	61478.85
587.86	61354.80
588.02	61364.17
588.18	61441.40
588.34	61312.67
588.49	61385.23
588.65	61087.98
588.81	61406.30
588.97	61413.32
589.13	61429.70
589.29	61354.80
589.45	61621.62
589.61	61544.39
589.77	61726.95
589.93	61635.67
590.08	61392.25
590.24	61666.09
590.40	61570.13
590.56	61757.38
590.72	61776.10
590.88	61361.82
591.04	61429.70
591.20	61628.65
591.35	61628.65
591.51	61825.25
591.67	61616.94
591.83	61577.15
591.99	61633.33
592.15	61661.41
592.31	61593.54
592.46	61712.91
592.62	61640.35
592.78	61558.43
592.94	61787.80
593.10	61698.86
593.26	61743.33
593.41	61757.38
593.57	61778.44
593.73	61801.85
593.89	61883.76
594.05	61900.15
594.20	61682.48
594.36	61916.53
594.52	61715.25
594.68	61684.82
594.84	61652.05
594.99	61698.86
595.15	61572.47
595.31	61862.70
595.47	61623.96
595.62	61722.27
595.78	61553.75
595.94	61804.19
596.10	62061.64
596.25	62000.79
596.41	61865.04
596.57	61668.44
596.73	61949.30
596.88	61731.63
597.04	61813.55
597.20	61956.32
597.36	61701.20
597.51	61930.58
597.67	61663.75
597.83	61790.14
597.99	61876.74
598.14	61881.42
598.30	61911.85
598.46	61900.15
598.61	61872.06
598.77	61703.54
598.93	62014.83
599.09	61979.73
599.24	62162.29
599.40	62038.24
599.56	61961.00
599.71	62117.82
599.87	61996.11
600.03	62260.59
600.18	61904.83
600.34	61825.25
600.50	61986.75
600.65	61787.80
600.81	62031.22
600.97	61783.12
601.12	61904.83
601.28	61911.85
601.44	61986.75
601.59	62038.24
601.75	61923.55
601.91	62049.94
602.06	62049.94
602.22	62253.57
602.37	61956.32
602.53	62042.92
602.69	61993.77
602.84	61696.52
603.00	61970.36
603.16	62049.94
603.31	61963.34
603.47	62108.46
603.62	62014.83
603.78	62113.14
603.94	62003.13
604.09	62103.77
604.25	62063.99
604.40	62059.30
604.56	62152.93
604.71	62246.55
604.87	62010.15
605.03	62080.37
605.18	61953.98
605.34	61918.87
605.49	61783.12
605.65	62035.90
605.80	62078.03
605.96	62019.52
606.12	62061.64
606.27	62136.54
606.43	61839.29
606.58	62183.35
606.74	61921.21
606.89	61937.60
607.05	62014.83
607.20	62035.90
607.36	61757.38
607.51	61708.22
607.67	61872.06
607.82	61883.76
607.98	61820.57
608.13	61876.74
608.29	61902.49
608.44	61953.98
608.60	61820.57
608.75	62031.22
608.91	61790.14
609.06	61666.09
609.22	61982.07
609.37	61724.61
609.53	61853.34
609.68	61881.42
609.84	61893.13
609.99	61946.96
610.15	61958.66
610.30	61895.47
610.46	61907.17
610.61	61792.48
610.76	61843.98
610.92	61656.73
611.07	61792.48
611.23	61748.01
611.38	61773.76
611.54	61748.01
611.69	61825.25
611.84	61914.19
612.00	61687.16
612.15	61858.02
612.31	61939.94
612.46	61502.26
612.62	61588.86
612.77	61733.97
612.92	61766.74
613.08	61907.17
613.23	61572.47
613.39	61546.73
613.54	61726.95
613.69	61626.31
613.85	61595.88
614.00	61846.32
614.15	61755.03
614.31	61584.18
614.46	61773.76
614.62	61619.28
614.77	61701.20
614.92	61537.36
615.08	61518.64
615.23	61612.26
615.38	61563.11
615.54	61551.41
615.69	61537.36
615.84	61532.68
616.00	61572.47
616.15	61418.00
616.30	61677.80
616.46	61373.53
616.61	61453.11
616.76	61511.62
616.92	61467.15
617.07	61478.85
617.22	61453.11
617.37	61340.76
617.53	61712.91
617.68	61733.97
617.83	61399.27
617.99	61513.96
618.14	61502.26
618.29	61600.56
618.45	61378.21
618.60	61469.49
618.75	61275.22
618.90	61289.27
619.06	61497.58
619.21	61399.27
619.36	61652.05
619.51	61237.78
619.67	61300.97
619.82	61312.67
619.97	61511.62
620.12	61270.54
620.28	61361.82
620.43	61448.42
620.58	61073.94
620.73	61066.92
620.89	61036.49
621.04	61254.16
621.19	61045.85
621.34	61300.97
621.49	61013.08
621.65	61263.52
621.80	61352.46
621.95	61085.64
622.10	61190.97
622.25	61179.26
622.41	61080.96
622.56	61001.38
622.71	60994.36
622.86	60807.12
623.01	61031.81
623.16	60912.44
623.32	61235.44
623.47	61202.67
623.62	61249.48
623.77	61139.47
623.92	61080.96
624.07	61193.31
624.23	61137.13
624.38	60952.23
624.53	60811.80
624.68	60767.33
624.83	61036.49
624.98	60921.80
625.13	60849.25
625.29	60980.32
625.44	61085.64
625.59	60673.71
625.74	60860.95
625.89	60846.91
626.04	60605.83
626.19	60563.70
626.34	60640.94
626.49	60718.18
626.65	60432.63
626.80	60376.46
626.95	60601.15
627.10	60477.10
627.25	60535.62
627.40	60495.83
627.55	60624.56
627.70	60530.93
627.85	60519.23
628.00	60516.89
628.15	60662.00
628.30	60500.51
628.45	60638.60
628.60	60645.62
628.76	60542.64
628.91	60643.28
629.06	60474.76
629.21	60566.04
629.36	60329.65
629.51	60453.70
629.66	60446.68
629.81	60402.21
629.96	60287.52
630.11	60317.95
630.26	60374.12
630.41	60493.49
630.56	60467.74
630.71	60271.14
630.86	60264.11
631.01	60236.03
631.16	60413.91
631.31	60123.68
631.46	60191.56
631.61	59994.95
631.76	60374.12
631.91	60289.86
632.06	60217.30
632.21	60186.88
632.36	60065.17
632.51	59868.56
632.66	60004.31
632.81	59945.80
632.96	60198.58
633.10	60233.69
633.25	60198.58
633.40	60149.43
633.55	59920.05
633.70	60032.40
633.85	60083.89
634.00	59945.80
634.15	59641.53
634.30	60025.38
634.45	59950.48
634.60	60172.83
634.75	60055.81
634.90	59941.12
635.05	59868.56
635.19	60100.28
635.34	59936.44
635.49	59910.69
635.64	59966.87
635.79	59985.59
635.94	59952.82
636.09	59957.50
636.24	59615.79
636.39	59779.62
636.53	59725.79
636.68	59601.74
636.83	59587.70
636.98	59784.30
637.13	59625.15
637.28	59688.34
637.43	59688.34
637.57	59543.23
637.72	59646.21
637.87	59451.95
638.02	59667.28
638.17	59625.15
638.32	59554.93
638.46	59559.61
638.61	59608.76
638.76	59554.93
638.91	59531.53
639.06	59416.84
639.20	59590.04
639.35	59374.71
639.50	59260.02
639.65	59482.37
639.80	59604.08
639.94	59274.07
640.09	59206.19
640.24	59566.63
640.39	59398.12
640.54	59468.33
640.68	59372.37
640.83	59370.03
640.98	59339.60
641.13	59313.86
641.27	59592.38
641.42	59236.62
641.57	59175.76
641.72	59089.16
641.86	59147.68
642.01	59086.82
642.16	59220.23
642.31	59114.91
642.45	59470.67
642.60	59264.70
642.75	59330.24
642.90	59185.13
643.04	59171.08
643.19	59103.21
643.34	59269.39
643.48	59178.10
643.63	59166.40
643.78	59044.69
643.93	58922.99
644.07	59049.38
644.22	58866.81
644.37	59004.91
644.51	58958.09
644.66	58958.09
644.81	59138.32
644.95	58906.60
645.10	58937.03
645.25	59056.40
645.39	58571.91
645.54	58768.51
645.69	58841.07
645.83	58834.05
645.98	58824.68
646.13	58784.90
646.27	58848.09
646.42	58728.72
646.57	58695.95
646.71	58791.92
646.86	58869.15
647.00	58873.84
647.15	58726.38
647.30	58499.35
647.44	58824.68
647.59	59121.93
647.74	58969.80
647.88	58824.68
648.03	58887.88
648.17	58869.15
648.32	58567.23
648.47	58466.58
648.61	58578.93
648.76	58841.07
648.90	58585.95
649.05	58588.29
649.20	58382.32
649.34	58548.50
649.49	58410.41
649.63	58700.64
649.78	58791.92
649.92	58628.08
650.07	58649.14
650.21	58382.32
650.36	58377.64
650.51	58178.70
650.65	58602.33
650.80	58408.07
650.94	58192.74
651.09	58239.55
651.23	57949.32
651.38	58354.24
651.52	58171.67
651.67	58328.49
651.81	58258.27
651.96	57975.07
652.10	58241.89
652.25	58188.06
652.39	58232.53
652.54	58169.33
652.68	57818.25
652.83	58047.63
652.97	58014.86
653.12	58141.25
653.26	58122.52
653.41	58328.49
653.55	58152.95
653.70	58000.82
653.84	58012.52
653.99	58073.37
654.13	57780.81
654.27	58049.97
654.42	57724.63
654.56	57829.96
654.71	57745.70
654.85	57776.12
655.00	57914.22
655.14	58017.20
655.29	57710.59
655.43	57916.56
655.57	57909.53
655.72	57703.57
655.86	57818.25
656.01	57792.51
656.15	57689.52
656.30	57621.65
656.44	57855.70
656.58	57663.78
656.73	57752.72
656.87	57970.39
657.01	57733.99
657.16	57598.24
657.30	57614.63
657.45	57530.37
657.59	57605.26
657.73	57340.78
657.88	57361.85
658.02	57420.36
658.16	57642.71
658.31	57467.17
658.45	57268.23
658.60	57511.64
658.74	57420.36
658.88	57509.30
659.03	57361.85
659.17	57387.60
659.31	57148.86
659.46	57151.20
659.60	57286.95
659.74	57193.33
659.89	56989.70
660.03	57022.47
660.17	57158.22
660.32	56970.98
660.46	57134.82
660.60	57059.92
660.74	57017.79
660.89	56910.13
661.03	56650.33
661.17	56870.34
661.32	56575.43
661.46	56715.86
661.60	56746.29
661.74	56786.08
661.89	56736.93
662.03	56736.93
662.17	56453.72
662.31	56453.72
662.46	56626.92
662.60	56533.30
662.74	56619.90
662.88	56133.07
663.03	56465.42
663.17	56282.86
663.31	56107.32
663.45	56324.99
663.60	55997.32
663.74	56044.13
663.88	56294.56
664.02	56065.19
664.17	56016.04
664.31	55870.93
664.45	55877.95
664.59	55985.61
664.73	55721.13
664.88	55737.52
665.02	55196.85
665.16	55859.23
665.30	55583.04
665.44	55824.12
665.59	55618.15
665.73	55650.92
665.87	55590.06
666.01	55592.40
666.15	55587.72
666.29	55442.61
666.44	55484.74
666.58	55381.76
666.72	55082.17
666.86	55150.04
667.00	55281.11
667.14	55107.91
667.28	54958.12
667.43	55082.17
667.57	55248.35
667.71	54831.73
667.85	54932.37
667.99	54864.50
668.13	54993.23
668.27	54578.95
668.41	54859.82
668.56	54784.92
668.70	54361.28
668.84	54475.97
668.98	54501.71
669.12	54625.76
669.26	54576.61
669.40	54567.25
669.54	54480.65
669.68	54412.77
669.82	54213.83
669.96	54485.33
670.10	54061.69
670.25	54251.28
670.39	54066.38
670.53	54279.36
670.67	53958.71
670.81	54424.48
670.95	54061.69
671.09	54075.74
671.23	53825.30
671.37	53752.74
671.51	54014.88
671.65	53869.77
671.79	53766.79
671.93	53762.11
672.07	53485.92
672.21	53214.42
672.35	53020.16
672.49	53090.37
672.63	53174.63
672.77	53228.46
672.91	53045.90
673.05	52891.43
673.19	52870.36
673.33	52538.01
673.47	52928.87
673.61	53008.45
673.75	52917.17
673.89	52530.98
674.03	52332.04
674.17	52126.07
674.31	52072.24
674.45	52016.07
674.59	52205.65
674.73	51999.68
674.87	52142.45
675.01	51877.97
675.15	51597.11
675.29	51938.83
675.43	52046.49
675.56	51531.57
675.70	51395.82
675.84	51384.12
675.98	50553.23
676.12	51456.68
676.26	51475.40
676.40	50869.20
676.54	50688.98
676.68	51107.94
676.82	50431.52
676.96	50845.80
677.10	50401.10
677.23	50632.81
677.37	50487.70
677.51	50246.62
677.65	49783.19
677.79	49179.34
677.93	49799.58
678.07	49567.87
678.21	49579.57
678.34	49439.14
678.48	48992.09
678.62	48900.81
678.76	48971.03
678.90	49045.93
679.04	48996.77
679.18	48910.17
679.31	48245.46
679.45	48350.79
679.59	48568.46
679.73	48329.72
679.87	48154.18
680.00	47746.93
680.14	47632.24
680.28	47386.49
680.42	47334.99
680.56	47302.23
680.70	46628.15
680.83	47423.93
680.97	46904.34
681.11	47103.28
681.25	47468.40
681.39	46817.74
681.52	46784.97
681.66	46440.91
681.80	46277.07
681.94	46487.72
682.07	46366.01
682.21	46181.11
682.35	45603.00
682.49	45603.00
682.62	45956.42
682.76	46019.61
682.90	45677.90
683.04	45584.27
683.17	45317.45
683.31	44704.23
683.45	45162.98
683.59	44594.23
683.72	44636.36
683.86	44088.67
684.00	44645.72
684.13	44423.37
684.27	44189.31
684.41	44123.78
684.55	44137.82
684.68	43988.03
684.82	43648.65
684.96	43133.73
685.09	43138.41
685.23	43339.70
685.37	42850.53
685.50	42930.11
685.64	43000.32
685.78	42635.20
685.91	42520.51
686.05	42614.13
686.19	41748.14
686.32	41471.95
686.46	41497.70
686.60	40811.92
686.73	41249.60
686.87	41390.03
687.01	41067.04
687.14	41268.33
687.28	40566.16
687.42	40968.74
687.55	40886.82
687.69	40957.03
687.82	40437.44
687.96	40100.40
688.10	39908.47
688.23	40126.14
688.37	39665.06
688.50	39634.63
688.64	39391.22
688.78	39000.35
688.91	38520.54
689.05	39124.40
689.18	38953.54
689.32	38518.20
689.46	38277.12
689.59	37923.70
689.73	37979.87
689.86	38073.49
690.00	37755.18
690.13	37631.13
690.27	37699.01
690.41	37846.46
690.54	37600.71
690.68	36919.61
690.81	36889.18
690.95	36842.37
691.08	36900.89
691.22	36650.45
691.35	36474.91
691.49	36582.57
691.62	36575.55
691.76	35903.82
691.89	35704.87
692.03	35948.29
692.16	35690.83
692.30	35323.36
692.43	35381.88
692.57	35171.23
692.70	34871.64
692.84	34983.99
692.97	34815.47
693.11	35040.16
693.24	34239.70
693.38	34330.98
693.51	33984.58
693.65	34045.43
693.78	33745.84
693.92	33654.56
694.05	33668.61
694.19	33682.65
694.32	33839.47
694.45	33406.47
694.59	33022.62
694.72	32706.65
694.86	32606.00
694.99	32177.68
695.13	32048.96
695.26	31906.18
695.39	31859.37
695.53	32091.09
695.66	31644.04
695.80	31648.72
695.93	31246.15
696.07	31054.23
696.20	31068.27
696.33	30892.73
696.47	30969.97
696.60	31019.12
696.73	31002.74
696.87	30806.13
697.00	30167.16
697.14	30291.21
697.27	29862.90
697.40	30277.17
697.54	30256.11
697.67	29570.33
697.80	29766.93
697.94	29408.83
698.07	29413.51
698.21	29455.64
698.34	29060.09
698.47	28938.38
698.61	28105.15
698.74	28858.81
698.87	28467.94
699.01	28219.84
699.14	28481.98
699.27	28489.00
699.40	28549.85
699.54	28023.23
699.67	28107.49
699.80	27758.75
699.94	27473.21
700.07	27615.98
700.20	27360.86
700.34	26939.57
700.47	26857.65
700.60	26960.63
700.73	26607.21
700.87	26380.18
701.00	26267.83
701.13	25998.67
701.26	25757.60
701.40	26412.95
701.53	26118.04
701.66	25935.48
701.79	25502.48
701.93	25521.20
702.06	25188.85
702.19	25443.96
702.32	25074.16
702.46	25219.27
702.59	24786.27
702.72	24343.91
702.85	24685.63
702.99	24882.24
703.12	24720.74
703.25	24505.41
703.38	24105.18
703.51	23892.19
703.65	23859.42
703.78	23700.26
703.91	23440.47
704.04	23358.55
704.17	23496.64
704.31	23328.12
704.44	23173.64
704.57	23187.69
704.70	23061.30
704.83	22948.95
704.96	22506.59
705.10	22307.65
705.23	22199.98
>>>>>End Processed Spectral Data<<<<<
