SpectraSuite Data File
++++++++++++++++++++++++++++++++++++
Date: Fri Oct 25 10:44:16 EDT 2013
User: price-jones
Dark Spectrum Present: No
Reference Spectrum Present: No
Number of Sampled Component Spectra: 1
Spectrometers: USB2+H05261
Integration Time (usec): 100000 (USB2+H05261)
Spectra Averaged: 1 (USB2+H05261)
Boxcar Smoothing: 0 (USB2+H05261)
Correct for Electrical Dark: No (USB2+H05261)
Strobe/Lamp Enabled: No (USB2+H05261)
Correct for Detector Non-linearity: No (USB2+H05261)
Correct for Stray Light: No (USB2+H05261)
Number of Pixels in Processed Spectrum: 2048
>>>>>Begin Processed Spectral Data<<<<<
365.73	175.54
365.92	175.54
366.12	175.54
366.32	70.22
366.52	32.77
366.72	79.58
366.91	0.00
367.11	140.43
367.31	9.36
367.51	23.41
367.70	0.00
367.90	11.70
368.10	42.13
368.30	74.90
368.49	42.13
368.69	0.00
368.89	32.77
369.09	0.00
369.28	100.64
369.48	0.00
369.68	131.07
369.87	56.17
370.07	84.26
370.27	93.62
370.47	114.69
370.66	414.27
370.86	388.53
371.06	421.30
371.25	491.51
371.45	414.27
371.65	514.92
371.84	421.30
372.04	447.04
372.24	531.30
372.44	484.49
372.63	449.38
372.83	521.94
373.03	468.11
373.22	456.40
373.42	559.39
373.62	496.19
373.81	538.32
374.01	533.64
374.21	500.87
374.40	566.41
374.60	582.79
374.79	535.98
374.99	566.41
375.19	580.45
375.38	566.41
375.58	531.30
375.78	596.84
375.97	531.30
376.17	664.71
376.37	662.37
376.56	650.67
376.76	645.99
376.95	571.09
377.15	620.24
377.35	653.01
377.54	727.91
377.74	662.37
377.93	613.22
378.13	603.86
378.33	662.37
378.52	653.01
378.72	610.88
378.91	655.35
379.11	622.58
379.31	664.71
379.50	636.63
379.70	716.20
379.89	734.93
380.09	683.44
380.28	681.10
380.48	704.50
380.68	648.33
380.87	702.16
381.07	716.20
381.26	688.12
381.46	755.99
381.65	737.27
381.85	699.82
382.04	688.12
382.24	622.58
382.43	695.14
382.63	744.29
382.83	660.03
383.02	765.36
383.22	702.16
383.41	737.27
383.61	774.72
383.80	802.80
384.00	788.76
384.19	727.91
384.39	812.17
384.58	777.06
384.78	788.76
384.97	772.38
385.17	781.74
385.36	802.80
385.56	816.85
385.75	774.72
385.95	751.31
386.14	793.44
386.34	854.30
386.53	868.34
386.72	887.06
386.92	854.30
387.11	926.85
387.31	849.61
387.50	866.00
387.70	943.24
387.89	875.36
388.09	896.43
388.28	912.81
388.48	933.87
388.67	940.90
388.86	915.15
389.06	936.21
389.25	992.39
389.45	1088.35
389.64	971.32
389.84	1029.84
390.03	983.02
390.22	1011.11
390.42	1048.56
390.61	1041.54
390.81	1050.90
391.00	1048.56
391.19	1060.26
391.39	1060.26
391.58	1090.69
391.78	1043.88
391.97	1076.65
392.16	1083.67
392.36	1043.88
392.55	1011.11
392.75	1097.71
392.94	983.02
393.13	1027.50
393.33	894.08
393.52	1034.52
393.71	1057.92
393.91	1050.90
394.10	1050.90
394.29	1188.99
394.49	1170.27
394.68	1163.25
394.88	1275.59
395.07	1287.29
395.26	1280.27
395.46	1184.31
395.65	1231.12
395.84	1228.78
396.04	1242.82
396.23	1128.14
396.42	1142.18
396.62	1153.88
396.81	1263.89
397.00	1174.95
397.19	1280.27
397.39	1270.91
397.58	1416.02
397.77	1308.36
397.97	1427.73
398.16	1476.88
398.35	1432.41
398.55	1411.34
398.74	1626.67
398.93	1607.95
399.12	1462.83
399.32	1474.54
399.51	1537.73
399.70	1596.25
399.90	1549.43
400.09	1502.62
400.28	1600.93
400.47	1549.43
400.67	1678.16
400.86	1586.88
401.05	1584.54
401.24	1610.29
401.44	1582.20
401.63	1715.61
401.82	1788.17
402.01	1720.29
402.21	1797.53
402.40	1778.81
402.59	1788.17
402.78	1689.87
402.97	1661.78
403.17	1785.83
403.36	1755.40
403.55	1834.98
403.74	1827.96
403.93	1923.92
404.13	1877.11
404.32	1881.79
404.51	1844.34
404.70	1935.62
404.89	1902.86
405.09	2003.50
405.28	1954.35
405.47	1933.28
405.66	1909.88
405.85	1963.71
406.05	2005.84
406.24	1994.14
406.43	1982.43
406.62	2031.58
406.81	2127.55
407.00	1998.82
407.20	2097.12
407.39	2139.25
407.58	2197.76
407.77	2221.17
407.96	2244.57
408.15	2183.72
408.34	2235.21
408.54	2415.43
408.73	2251.60
408.92	2291.38
409.11	2296.07
409.30	2197.76
409.49	2368.62
409.68	2204.78
409.87	2319.47
410.07	2312.45
410.26	2347.56
410.45	2380.32
410.64	2469.27
410.83	2497.35
411.02	2567.57
411.21	2675.23
411.40	2576.93
411.59	2602.68
411.78	2719.70
411.98	2590.97
412.17	2595.65
412.36	2670.55
412.55	2700.98
412.74	2736.09
412.93	2757.15
413.12	2768.85
413.31	2736.09
413.50	2787.58
413.69	2906.95
413.88	2911.63
414.07	2860.13
414.26	2949.08
414.45	2881.20
414.64	2944.39
414.83	2981.84
415.02	3021.63
415.22	3038.02
415.41	3222.92
415.60	3183.13
415.79	3052.06
415.98	3300.16
416.17	3225.26
416.36	3089.51
416.55	3272.07
416.74	3288.45
416.93	3176.11
417.12	3262.71
417.31	3288.45
417.50	3412.50
417.69	3417.18
417.88	3302.50
418.07	3386.76
418.26	3571.66
418.45	3454.63
418.64	3590.38
418.83	3655.92
419.02	3524.85
419.21	3541.23
419.39	3609.11
419.58	3581.02
419.77	3492.08
419.96	3606.77
420.15	3728.47
420.34	3660.60
420.53	3716.77
420.72	3798.69
420.91	3854.86
421.10	3819.75
421.29	3920.40
421.48	3824.44
421.67	3880.61
421.86	3749.54
422.05	3894.65
422.24	3737.84
422.43	3801.03
422.61	3744.86
422.80	3964.87
422.99	3892.31
423.18	4121.68
423.37	4002.32
423.56	4126.36
423.75	4037.42
423.94	3932.10
424.13	3695.71
424.32	3817.41
424.50	4002.32
424.69	3925.08
424.88	3971.89
425.07	3847.84
425.26	3840.82
425.45	3868.91
425.64	3875.93
425.83	4105.30
426.01	4044.45
426.20	3875.93
426.39	3939.12
426.58	3999.98
426.77	3955.51
426.96	3936.78
427.15	3803.37
427.33	4051.47
427.52	4093.60
427.71	4180.20
427.90	4121.68
428.09	4035.08
428.28	4119.34
428.46	4060.83
428.65	4098.28
428.84	4348.72
429.03	4241.05
429.22	4145.09
429.40	4168.49
429.59	4105.30
429.78	3925.08
429.97	3859.54
430.16	4077.21
430.34	4030.40
430.53	4140.41
430.72	4056.15
430.91	4194.24
431.10	4346.37
431.28	4669.37
431.47	4578.09
431.66	4657.67
431.85	4561.70
432.03	4496.17
432.22	4695.11
432.41	4631.92
432.60	4718.52
432.79	4781.71
432.97	4875.34
433.16	4730.22
433.35	4594.47
433.54	4594.47
433.72	4571.07
433.91	4592.13
434.10	4676.39
434.28	4568.73
434.47	4840.23
434.66	4828.53
434.85	4954.91
435.03	5027.47
435.22	4980.66
435.41	5280.25
435.59	5233.44
435.78	5085.98
435.97	5097.69
436.16	5172.58
436.34	5027.47
436.53	5118.75
436.72	5364.51
436.90	5135.14
437.09	5195.99
437.28	5074.28
437.46	5116.41
437.65	5083.64
437.84	5156.20
438.02	5102.37
438.21	5107.05
438.40	5060.24
438.58	5366.85
438.77	5317.70
438.96	5430.04
439.14	5596.22
439.33	5659.42
439.52	5528.35
439.70	5486.22
439.89	5664.10
440.08	5731.97
440.26	5675.80
440.45	5760.06
440.63	5870.06
440.82	5947.30
441.01	5872.40
441.19	5891.13
441.38	6129.86
441.57	5928.58
441.75	6043.26
441.94	6303.06
442.12	6448.18
442.31	6438.81
442.50	6462.22
442.68	6190.72
442.87	6237.53
443.05	6366.26
443.24	6541.80
443.43	6422.43
443.61	6436.47
443.80	6546.48
443.98	6258.59
444.17	6408.39
444.35	6506.69
444.54	6586.27
444.73	6434.13
444.91	6581.59
445.10	6518.39
445.28	6431.79
445.47	6361.58
445.65	6312.42
445.84	6441.15
446.02	6459.88
446.21	6527.75
446.39	6382.64
446.58	6722.02
446.77	6619.04
446.95	6733.72
447.14	6649.46
447.32	6574.56
447.51	6693.93
447.69	6649.46
447.88	6775.85
448.06	6675.21
448.25	6768.83
448.43	6700.95
448.62	6558.18
448.80	6827.34
448.99	6850.75
449.17	6874.15
449.36	6621.38
449.54	7080.12
449.73	7117.57
449.91	7094.16
450.10	7164.38
450.28	7185.44
450.46	7248.64
450.65	7117.57
450.83	7356.30
451.02	7379.71
451.20	7201.83
451.39	7300.13
451.57	7042.67
451.76	7026.29
451.94	7351.62
452.13	7323.54
452.31	7000.54
452.49	6857.77
452.68	7157.36
452.86	7356.30
453.05	7412.48
453.23	7342.26
453.42	7262.68
453.60	7321.20
453.78	7403.11
453.97	7417.16
454.15	7463.97
454.34	7178.42
454.52	7679.30
454.70	7424.18
454.89	7466.31
455.07	7358.64
455.26	7679.30
455.44	7686.32
455.62	7658.23
455.81	7803.35
455.99	7852.50
456.17	7850.16
456.36	7857.18
456.54	7934.42
456.73	7990.59
456.91	8142.72
457.09	8149.75
457.28	8348.69
457.46	8023.36
457.64	8128.68
457.83	8154.43
458.01	7929.74
458.19	8156.77
458.38	8334.65
458.56	8262.09
458.74	8355.71
458.93	8203.58
459.11	8456.36
459.29	8365.07
459.48	8477.42
459.66	8224.64
459.84	8301.88
460.03	8683.39
460.21	8601.47
460.39	8198.90
460.57	8395.50
460.76	8648.28
460.94	8755.94
461.12	8503.17
461.31	8559.34
461.49	8514.87
461.67	8645.94
461.85	8844.88
462.04	8781.69
462.22	8863.61
462.40	9170.22
462.59	8772.33
462.77	8805.10
462.95	9022.77
463.13	8901.06
463.32	8926.80
463.50	8985.32
463.68	9135.11
463.86	8901.06
464.05	9022.77
464.23	8980.64
464.41	9027.45
464.59	8793.39
464.78	9357.46
464.96	9210.01
465.14	9111.71
465.32	9259.16
465.50	9235.75
465.69	9231.07
465.87	9284.91
466.05	9212.35
466.23	9137.45
466.41	9125.75
466.60	9540.02
466.78	9336.40
466.96	9193.62
467.14	9273.20
467.32	9497.89
467.51	9322.35
467.69	9198.31
467.87	9523.64
468.05	9579.81
468.23	9357.46
468.41	9638.33
468.60	9561.09
468.78	9610.24
468.96	9511.94
469.14	9771.74
469.32	9832.59
469.50	9408.95
469.69	9778.76
469.87	9792.80
470.05	9841.95
470.23	9582.15
470.41	9877.06
470.59	9881.74
470.77	9914.51
470.95	9984.73
471.14	10181.33
471.32	9949.62
471.50	10265.59
471.68	10389.64
471.86	10370.91
472.04	10478.58
472.22	10560.50
472.40	10225.80
472.58	10340.49
472.77	10546.45
472.95	10696.25
473.13	10946.69
473.31	10476.24
473.49	10492.62
473.67	10593.26
473.85	10740.72
474.03	10813.28
474.21	11066.05
474.39	11089.46
474.57	11229.89
474.75	11087.12
474.93	11117.54
475.12	11119.89
475.30	11318.83
475.48	11138.61
475.66	11178.40
475.84	11206.48
476.02	11552.88
476.20	11438.20
476.38	11520.12
476.56	11747.15
476.74	11756.51
476.92	11812.68
477.10	11693.32
477.28	12292.49
477.46	12074.82
477.64	12042.06
477.82	12154.40
478.00	12755.92
478.18	12765.28
478.36	12241.00
478.54	12674.00
478.72	12837.84
478.90	12952.52
479.08	12908.05
479.26	13090.62
479.44	13172.54
479.62	13118.70
479.80	13172.54
479.98	13303.60
480.16	13743.63
480.34	13624.26
480.52	13811.50
480.70	13535.32
480.88	13717.88
481.06	13963.64
481.24	14319.40
481.41	14045.55
481.59	14548.77
481.77	14354.51
481.95	14438.76
482.13	14436.42
482.31	14731.33
482.49	14719.63
482.67	14750.06
482.85	15061.35
483.03	15157.31
483.21	15407.75
483.39	15513.07
483.57	15257.95
483.74	15580.95
483.92	15719.04
484.10	15473.28
484.28	15925.00
484.46	16077.14
484.64	16374.39
484.82	16287.79
485.00	16180.12
485.18	16489.07
485.35	16547.59
485.53	16238.64
485.71	16231.62
485.89	16521.84
486.07	16350.98
486.25	16882.28
486.43	16844.84
486.61	17076.55
486.78	17228.68
486.96	17525.93
487.14	17811.48
487.32	17799.77
487.50	18148.51
487.68	17930.84
487.85	18593.22
488.03	18824.93
488.21	18597.90
488.39	18707.90
488.57	18506.62
488.75	18677.48
488.92	19381.98
489.10	19358.57
489.28	19176.01
489.46	19660.50
489.64	19716.67
489.81	20222.23
489.99	20339.26
490.17	20201.16
490.35	20437.56
490.53	20203.50
490.70	20409.47
490.88	20451.60
491.06	20994.61
491.24	20563.95
491.41	20823.75
491.59	20753.53
491.77	20779.28
491.95	21149.08
492.13	21502.50
492.30	21647.61
492.48	21619.53
492.66	21975.29
492.84	21844.22
493.01	22188.28
493.19	21893.37
493.37	22211.68
493.54	22293.60
493.72	22398.93
493.90	22750.01
494.08	22654.05
494.25	23328.12
494.43	23484.94
494.61	23634.73
494.79	23344.50
494.96	23463.87
495.14	23335.14
495.32	23573.88
495.49	23566.85
495.67	23934.32
495.85	23885.17
496.02	24383.70
496.20	24329.87
496.38	24463.28
496.55	24594.35
496.73	25123.31
496.91	24912.66
497.09	25120.97
497.26	24816.70
497.44	25226.29
497.62	25230.98
497.79	25493.12
497.97	25109.27
498.14	25441.62
498.32	25818.45
498.50	26120.38
498.67	26040.80
498.85	25921.43
499.03	26202.30
499.20	26534.65
499.38	26010.37
499.56	26576.78
499.73	26581.46
499.91	26408.26
500.08	26726.58
500.26	26382.52
500.44	26796.79
500.61	26665.72
500.79	26703.17
500.97	26904.46
501.14	27269.58
501.32	26937.23
501.49	27140.85
501.67	27461.51
501.84	27508.32
502.02	27342.14
502.20	27388.95
502.37	27859.40
502.55	27747.05
502.72	28198.77
502.90	28112.17
503.07	28226.86
503.25	28140.26
503.43	27941.32
503.60	28409.42
503.78	28009.19
503.95	28212.82
504.13	28470.28
504.30	28783.91
504.48	28896.25
504.65	28767.52
504.83	29434.58
505.01	28966.47
505.18	28978.17
505.36	29401.81
505.53	29032.00
505.71	29972.90
505.88	29593.73
506.06	29268.40
506.23	29397.13
506.41	29352.66
506.58	29820.77
506.76	29944.81
506.93	29928.43
507.11	29834.81
507.28	30494.84
507.46	29872.26
507.63	29724.80
507.81	30366.11
507.98	29898.00
508.16	30368.45
508.33	30661.02
508.50	30850.60
508.68	31227.43
508.85	31225.09
509.03	30682.08
509.20	31164.23
509.38	31250.83
509.55	31669.79
509.73	31864.05
509.90	31138.49
510.08	31344.45
510.25	31206.36
510.42	31655.75
510.60	31901.50
510.77	31641.70
510.95	32243.22
511.12	32306.41
511.30	32044.27
511.47	32484.30
511.64	32531.11
511.82	32666.86
511.99	32484.30
512.17	32662.18
512.34	32327.48
512.51	32716.01
512.69	32671.54
512.86	32549.83
513.04	33090.49
513.21	33069.43
513.38	32734.73
513.56	32884.53
513.73	33034.32
513.90	32982.83
514.08	32968.79
514.25	32823.67
514.43	33158.37
514.60	33254.33
514.77	33467.32
514.95	33544.56
515.12	33160.71
515.29	33614.77
515.47	33970.54
515.64	34033.73
515.81	33897.98
515.99	33965.85
516.16	33677.97
516.33	33542.22
516.51	33593.71
516.68	33523.49
516.85	33343.27
517.03	33488.38
517.20	34117.99
517.37	34232.68
517.54	34572.05
517.72	34356.72
517.89	34174.16
518.06	34057.14
518.24	34520.56
518.41	34279.49
518.58	34309.91
518.75	34932.50
518.93	34869.30
519.10	35033.14
519.27	34925.47
519.45	35426.35
519.62	35175.91
519.79	35292.94
519.96	35569.12
520.14	35597.21
520.31	35679.13
520.48	35431.03
520.65	35849.99
520.83	35878.07
521.00	35927.22
521.17	36184.68
521.34	35906.16
521.52	36404.69
521.69	36088.72
521.86	36271.28
522.03	36133.19
522.20	36128.51
522.38	36573.21
522.55	36589.59
522.72	36627.04
522.89	36568.53
523.07	36692.58
523.24	36591.94
523.41	37067.06
523.58	36833.01
523.75	37256.65
523.92	37184.09
524.10	37497.72
524.27	37670.92
524.44	37567.94
524.61	37593.68
524.78	37305.80
524.96	37762.20
525.13	37415.80
525.30	37823.06
525.47	37972.85
525.64	37312.82
525.81	37422.83
525.98	37706.03
526.16	37448.57
526.33	37589.00
526.50	37706.03
526.67	37336.23
526.84	37729.44
527.01	37256.65
527.18	37993.92
527.36	38333.29
527.53	38415.21
527.70	38644.59
527.87	38569.69
528.04	38366.06
528.21	38541.60
528.38	38625.86
528.55	38728.84
528.72	39016.73
528.89	39449.73
529.07	38616.50
529.24	38572.03
529.41	39002.69
529.58	39093.97
529.75	38883.32
529.92	39098.65
530.09	38878.64
530.26	39622.93
530.43	39524.63
530.60	39304.62
530.77	39512.92
530.94	39819.53
531.11	39557.39
531.28	39587.82
531.46	39658.04
531.63	39782.09
531.80	39510.58
531.97	39253.12
532.14	39833.58
532.31	39372.49
532.48	39402.92
532.65	40027.84
532.82	39597.18
532.99	39732.93
533.16	39339.72
533.33	40151.89
533.50	40322.75
533.67	39889.75
533.84	39859.32
534.01	40172.96
534.18	39651.02
534.35	40524.04
534.52	40341.47
534.69	40545.10
534.86	40744.05
535.03	40620.00
535.20	40851.71
535.37	40814.26
535.54	41209.81
535.71	40802.56
535.88	40634.04
536.05	40809.58
536.22	40708.94
536.38	40830.65
536.55	40872.78
536.72	40975.76
536.89	40659.79
537.06	41336.20
537.23	41429.82
537.40	40851.71
537.57	41041.29
537.74	41464.93
537.91	41663.88
538.08	41392.37
538.25	41443.87
538.42	41326.84
538.59	41273.01
538.75	41062.36
538.92	41446.21
539.09	41434.50
539.26	41698.98
539.43	41296.41
539.60	41525.78
539.77	41579.62
539.94	41970.49
540.11	41338.54
540.28	41364.29
540.44	41570.25
540.61	41312.80
540.78	41523.44
540.95	41717.71
541.12	41539.83
541.29	41989.21
541.46	42092.19
541.62	41855.80
541.79	42476.04
541.96	41698.98
542.13	42176.45
542.30	42344.97
542.47	42103.90
542.63	41982.19
542.80	42239.65
542.97	42209.22
543.14	42660.94
543.31	42630.52
543.48	42476.04
543.64	43402.89
543.81	42976.92
543.98	43269.48
544.15	42768.61
544.32	43217.99
544.48	42895.00
544.65	43274.16
544.82	42974.58
544.99	43016.71
545.16	43159.48
545.32	43143.09
545.49	43316.29
545.66	43672.06
545.83	43447.36
546.00	43466.09
546.16	43484.81
546.33	43171.18
546.50	43119.69
546.67	43363.11
546.83	43377.15
547.00	43503.54
547.17	43222.67
547.34	43690.78
547.50	43194.59
547.67	43817.17
547.84	43484.81
548.00	43655.67
548.17	43957.60
548.34	43845.26
548.51	43732.91
548.67	43505.88
548.84	43615.88
549.01	43508.22
549.18	43529.28
549.34	44034.84
549.51	44069.95
549.68	44116.76
549.84	43742.27
550.01	44495.92
550.18	43758.66
550.34	44278.25
550.51	44287.62
550.68	44013.77
550.84	43753.97
551.01	43934.20
551.18	44404.64
551.34	44107.40
551.51	44226.76
551.68	44631.68
551.84	44414.01
552.01	44308.68
552.18	44512.31
552.34	44032.50
552.51	44409.32
552.68	44603.59
552.84	44830.62
553.01	44744.02
553.18	44624.65
553.34	44641.04
553.51	44332.09
553.67	44561.46
553.84	44725.30
554.01	44659.76
554.17	44945.31
554.34	44968.71
554.51	44954.67
554.67	45188.72
554.84	44875.09
555.00	44975.73
555.17	44521.67
555.33	44732.32
555.50	44774.45
555.67	44912.54
555.83	44631.68
556.00	44980.42
556.16	45324.47
556.33	45258.94
556.50	45123.19
556.66	45198.09
556.83	44975.73
556.99	45034.25
557.16	45432.14
557.32	45139.57
557.49	45244.90
557.65	44765.09
557.82	45027.23
557.98	45167.66
558.15	45240.21
558.32	45635.77
558.48	45422.78
558.65	44879.77
558.81	45092.76
558.98	44847.00
559.14	45326.81
559.31	45270.64
559.47	45050.63
559.64	45457.88
559.80	45296.39
559.97	45247.24
560.13	45137.23
560.30	45062.33
560.46	45462.57
560.63	45488.31
560.79	45626.40
560.96	45787.90
561.12	45317.45
561.29	45385.33
561.45	45478.95
561.61	45497.67
561.78	45052.97
561.94	45422.78
562.11	45301.07
562.27	45577.25
562.44	45411.07
562.60	45827.69
562.77	45691.94
562.93	45736.41
563.10	45794.92
563.26	45329.16
563.42	45998.55
563.59	45123.19
563.75	45408.73
563.92	45956.42
564.08	45783.22
564.24	45865.14
564.41	45464.91
564.57	45710.66
564.74	45855.78
564.90	45757.47
565.07	45837.05
565.23	45811.31
565.39	45736.41
565.56	45951.74
565.72	45881.52
565.88	45776.20
566.05	45815.99
566.21	45872.16
566.38	45537.46
566.54	45773.86
566.70	46209.20
566.87	46344.95
567.03	45951.74
567.19	46185.79
567.36	46057.06
567.52	46178.77
567.68	46050.04
567.85	45626.40
568.01	46216.22
568.17	45914.29
568.34	46253.67
568.50	45844.07
568.66	46040.68
568.83	45972.80
568.99	45972.80
569.15	45907.27
569.32	45986.85
569.48	45860.46
569.64	46153.02
569.81	46312.18
569.97	46094.51
570.13	46328.56
570.30	45443.84
570.46	45806.62
570.62	45509.38
570.78	45818.33
570.95	46153.02
571.11	45682.58
571.27	46258.35
571.43	45696.62
571.60	45790.24
571.76	45911.95
571.92	46241.96
572.09	45654.49
572.25	46199.83
572.41	45656.83
572.57	46328.56
572.74	46574.32
572.90	46075.79
573.06	46181.11
573.22	46445.59
573.38	46153.02
573.55	46092.17
573.71	46080.47
573.87	46192.81
574.03	46302.82
574.20	46473.68
574.36	46312.18
574.52	46300.48
574.68	45918.97
574.84	46101.53
575.01	46253.67
575.17	46171.75
575.33	46192.81
575.49	45708.32
575.65	46543.89
575.82	46234.94
575.98	46403.46
576.14	46522.83
576.30	46646.88
576.46	45883.86
576.62	46323.88
576.79	46160.05
576.95	46021.95
577.11	46019.61
577.27	46110.89
577.43	45933.01
577.59	46106.21
577.75	46241.96
577.92	45647.47
578.08	45694.28
578.24	46117.92
578.40	46408.14
578.56	46068.76
578.72	46302.82
578.88	46171.75
579.04	46146.00
579.21	46206.86
579.37	46138.98
579.53	46373.03
579.69	45965.78
579.85	46103.87
580.01	46576.66
580.17	46199.83
580.33	46394.10
580.49	46412.82
580.65	46724.11
580.82	46557.94
580.98	46167.07
581.14	46241.96
581.30	46759.22
581.46	46349.63
581.62	46424.53
581.78	46471.34
581.94	46412.82
582.10	46305.16
582.26	46504.10
582.42	46195.15
582.58	46483.04
582.74	46590.70
582.90	46401.12
583.06	46932.42
583.22	46588.36
583.38	46555.60
583.54	46209.20
583.70	46422.19
583.86	46527.51
584.02	46426.87
584.18	46469.00
584.34	46160.05
584.50	46586.02
584.66	46525.17
584.82	46288.77
584.98	46789.65
585.14	46700.71
585.30	45989.19
585.46	46181.11
585.62	46284.09
585.78	46021.95
585.94	46209.20
586.10	46103.87
586.26	46057.06
586.42	46438.57
586.58	46726.46
586.74	46817.74
586.90	46199.83
587.06	46368.35
587.22	46160.05
587.38	46539.21
587.54	46913.70
587.70	46424.53
587.86	46218.56
588.02	46007.91
588.18	46745.18
588.34	46038.34
588.49	45748.11
588.65	46040.68
588.81	45834.71
588.97	46333.24
589.13	45975.14
589.29	46256.01
589.45	46174.09
589.61	45853.44
589.77	46616.45
589.93	46469.00
590.08	46461.97
590.24	46197.49
590.40	46330.90
590.56	47019.02
590.72	46424.53
590.88	46632.83
591.04	46614.11
591.20	47267.12
591.35	46248.99
591.51	46934.76
591.67	46380.06
591.83	46642.20
591.99	46445.59
592.15	46579.00
592.31	46230.26
592.46	46504.10
592.62	46394.10
592.78	47028.38
592.94	46878.59
593.10	46143.66
593.26	46674.96
593.41	46726.46
593.57	46146.00
593.73	46483.04
593.89	46522.83
594.05	46501.76
594.20	46178.77
594.36	46621.13
594.52	46321.54
594.68	46326.22
594.84	46340.27
594.99	46808.37
595.15	46237.28
595.31	46618.79
595.47	46450.27
595.62	46796.67
595.78	46277.07
595.94	47028.38
596.10	46930.08
596.25	46677.30
596.41	47091.58
596.57	46581.34
596.73	46469.00
596.88	46415.16
597.04	46663.26
597.20	46719.43
597.36	46684.33
597.51	46967.53
597.67	46607.09
597.83	46838.80
597.99	47021.36
598.14	46543.89
598.30	46508.79
598.46	47070.51
598.61	46410.48
598.77	46335.59
598.93	46534.53
599.09	46567.30
599.24	47267.12
599.40	47100.94
599.56	46586.02
599.71	46803.69
599.87	46586.02
600.03	46752.20
600.18	46733.48
600.34	46483.04
600.50	46735.82
600.65	46232.60
600.81	46653.90
600.97	46761.56
601.12	46822.42
601.28	46955.83
601.44	46216.22
601.59	46452.61
601.75	46136.64
601.91	46351.97
602.06	46501.76
602.22	46543.89
602.37	46408.14
602.53	46501.76
602.69	47002.64
602.84	46689.01
603.00	46232.60
603.16	46387.08
603.31	46382.40
603.47	46405.80
603.62	46871.57
603.78	46897.31
603.94	46321.54
604.09	46677.30
604.25	46639.86
604.40	46351.97
604.56	46747.52
604.71	46787.31
604.87	46698.37
605.03	46040.68
605.18	46073.45
605.34	46291.12
605.49	45769.18
605.65	46363.67
605.80	45900.25
605.96	46719.43
606.12	46735.82
606.27	46857.52
606.43	46148.34
606.58	46534.53
606.74	46253.67
606.89	45972.80
607.05	46525.17
607.20	46583.68
607.36	46480.70
607.51	46440.91
607.67	46199.83
607.82	46401.12
607.98	46227.92
608.13	45710.66
608.29	46464.32
608.44	45982.16
608.60	45724.71
608.75	45937.69
608.91	45998.55
609.06	45963.44
609.22	45937.69
609.37	46061.74
609.53	46333.24
609.68	46160.05
609.84	46281.75
609.99	45925.99
610.15	45879.18
610.30	45984.51
610.46	45684.92
610.61	45626.40
610.76	45595.98
610.92	46120.26
611.07	46094.51
611.23	46248.99
611.38	45834.71
611.54	45617.04
611.69	45670.87
611.84	45579.59
612.00	45394.69
612.15	45823.01
612.31	45820.67
612.46	45598.32
612.62	46007.91
612.77	45490.65
612.92	45935.35
613.08	45624.06
613.23	45633.42
613.39	45600.66
613.54	45015.52
613.69	45607.68
613.85	45287.03
614.00	45434.48
614.15	45818.33
614.31	45703.64
614.46	46106.21
614.62	45581.93
614.77	45455.54
614.92	45537.46
615.08	45022.54
615.23	45146.59
615.38	44877.43
615.54	45230.85
615.69	45228.51
615.84	44610.61
616.00	45591.30
616.15	44477.20
616.30	45373.63
616.46	45029.57
616.61	44907.86
616.76	44849.35
616.92	44479.54
617.07	44119.10
617.22	44830.62
617.37	44863.39
617.53	45184.04
617.68	45380.65
617.83	45303.41
617.99	45034.25
618.14	44924.24
618.29	44781.47
618.45	44362.51
618.60	44659.76
618.75	44765.09
618.90	44912.54
619.06	44800.19
619.21	44891.48
619.36	44872.75
619.51	44367.20
619.67	44521.67
619.82	44907.86
619.97	44741.68
620.12	44495.92
620.28	44350.81
620.43	44191.65
620.58	44706.57
620.73	44631.68
620.89	44435.07
621.04	44626.99
621.19	44526.35
621.34	44519.33
621.49	44458.48
621.65	44088.67
621.80	44626.99
621.95	43852.28
622.10	43985.69
622.25	43849.94
622.41	43952.92
622.56	43812.49
622.71	44198.68
622.86	44053.56
623.01	43948.24
623.16	43835.89
623.32	43821.85
623.47	43969.30
623.62	44086.33
623.77	43985.69
623.92	44203.36
624.07	44004.41
624.23	43519.92
624.38	43707.16
624.53	43681.42
624.68	43611.20
624.83	44074.63
624.98	43601.84
625.13	42803.72
625.29	43456.73
625.44	43555.03
625.59	43232.04
625.74	43049.47
625.89	43100.97
626.04	42801.38
626.19	43433.32
626.34	43365.45
626.49	43503.54
626.65	43908.45
626.80	43753.97
626.95	43107.99
627.10	43093.94
627.25	43040.11
627.40	43115.01
627.55	42682.01
627.70	42586.05
627.85	43065.86
628.00	42864.57
628.15	42724.14
628.30	42946.49
628.45	43098.62
628.60	43070.54
628.76	42955.85
628.91	43260.12
629.06	42792.01
629.21	42536.90
629.36	42560.30
629.51	42747.54
629.66	42635.20
629.81	42417.53
629.96	42576.69
630.11	42534.56
630.26	42307.52
630.41	42656.26
630.56	42436.25
630.71	42546.26
630.86	42274.76
631.01	42539.24
631.16	42543.92
631.31	42227.95
631.46	42347.31
631.61	42443.27
631.76	42068.79
631.91	42356.67
632.06	42124.96
632.21	42553.28
632.36	42555.62
632.51	42052.41
632.66	42108.58
632.81	41804.31
632.96	42005.59
633.10	42010.28
633.25	42026.66
633.40	41909.63
633.55	42286.46
633.70	42143.69
633.85	42019.64
634.00	41766.86
634.15	42110.92
634.30	41986.87
634.45	41790.27
634.60	41706.01
634.75	41493.02
634.90	41823.03
635.05	41680.26
635.19	41757.50
635.34	41926.02
635.49	41659.20
635.64	41336.20
635.79	41741.11
635.94	41338.54
636.09	41811.33
636.24	41368.97
636.39	41474.29
636.53	41390.03
636.68	41579.62
636.83	41202.79
636.98	41588.98
637.13	41343.22
637.28	41567.91
637.43	41579.62
637.57	41656.85
637.72	41310.46
637.87	41394.71
638.02	41212.15
638.17	41200.45
638.32	41380.67
638.46	41041.29
638.61	41399.40
638.76	40788.52
638.91	41401.74
639.06	40767.45
639.20	40978.10
639.35	41038.95
639.50	41078.74
639.65	41130.23
639.80	41125.55
639.94	40914.90
640.09	41130.23
640.24	40746.39
640.39	40460.84
640.54	40357.86
640.68	40821.28
640.83	40678.51
640.98	40383.60
641.13	40350.84
641.27	41139.60
641.42	40472.54
641.57	39910.82
641.72	40554.46
641.86	39756.34
642.01	40179.98
642.16	40371.90
642.31	40215.08
642.45	40465.52
642.60	40222.11
642.75	40332.11
642.90	40123.80
643.04	40311.05
643.19	40289.98
643.34	40006.78
643.48	39831.24
643.63	40285.30
643.78	39915.50
643.93	39974.01
644.07	40119.12
644.22	39826.56
644.37	40076.99
644.51	39821.87
644.66	40229.13
644.81	39931.88
644.95	40278.28
645.10	40109.76
645.25	39915.50
645.39	39763.36
645.54	39955.29
645.69	39622.93
645.83	40067.63
645.98	39908.47
646.13	39725.91
646.27	39924.86
646.42	39613.57
646.57	39583.14
646.71	39494.20
646.86	39966.99
647.00	40212.74
647.15	39957.63
647.30	39683.78
647.44	39505.90
647.59	39543.35
647.74	39606.55
647.88	39042.48
648.03	39510.58
648.17	39639.31
648.32	39313.98
648.47	39571.44
648.61	39014.39
648.76	39681.44
648.90	39470.79
649.05	39548.03
649.20	39316.32
649.34	39042.48
649.49	39227.38
649.63	38911.41
649.78	38710.12
649.92	39398.24
650.07	39047.16
650.21	38836.51
650.36	39302.28
650.51	38906.73
650.65	39295.25
650.80	39189.93
650.94	39590.16
651.09	39042.48
651.23	38995.67
651.38	38651.61
651.52	39166.52
651.67	38464.36
651.81	38328.61
651.96	38536.92
652.10	38719.48
652.25	38824.81
652.39	39068.22
652.54	38548.62
652.68	38871.62
652.83	38920.77
652.97	38993.32
653.12	38625.86
653.26	38520.54
653.41	38682.03
653.55	38483.09
653.70	38635.22
653.84	38646.93
653.99	38335.63
654.13	38417.55
654.27	38227.97
654.42	38022.00
654.56	37942.42
654.71	38649.27
654.85	38141.37
655.00	37904.98
655.14	38349.68
655.29	37809.01
655.43	37647.52
655.57	37570.28
655.72	37373.67
655.86	37652.20
656.01	37614.75
656.15	37523.47
656.30	37481.34
656.44	37738.80
656.58	37373.67
656.73	37785.61
656.87	37546.87
657.01	37448.57
657.16	37621.77
657.30	37258.99
657.45	37284.73
657.59	37581.98
657.73	37544.53
657.88	37963.49
658.02	38040.73
658.16	38073.49
658.31	37780.93
658.45	37848.80
658.60	37359.63
658.74	37621.77
658.88	37123.24
659.03	37256.65
659.17	36641.09
659.31	36886.84
659.46	36891.52
659.60	37366.65
659.74	37493.04
659.89	36882.16
660.03	36891.52
660.17	36591.94
660.32	36772.16
660.46	37078.77
660.60	36685.56
660.74	36643.43
660.89	36847.05
661.03	36425.76
661.17	36610.66
661.32	36079.36
661.46	36264.26
661.60	36395.33
661.74	36856.42
661.89	36339.16
662.03	35826.58
662.17	36411.71
662.31	35817.22
662.46	36591.94
662.60	36336.82
662.74	36198.73
662.88	35615.93
663.03	35716.58
663.17	35812.54
663.31	35491.88
663.45	36109.78
663.60	36126.17
663.74	35566.78
663.88	35798.49
664.02	35800.83
664.17	35374.86
664.31	35613.59
664.45	35278.89
664.59	35316.34
664.73	35625.29
664.88	35445.07
665.02	35049.52
665.16	34925.47
665.30	35152.51
665.44	35180.59
665.59	34518.22
665.73	34888.03
665.87	34803.77
666.01	35089.31
666.15	34892.71
666.29	34558.01
666.44	34728.87
666.58	34707.80
666.72	34785.04
666.86	35101.01
667.00	34916.11
667.14	34153.10
667.28	34518.22
667.43	34543.97
667.57	34726.53
667.71	34340.34
667.85	34185.86
667.99	34211.61
668.13	34206.93
668.27	34368.43
668.41	34548.65
668.56	33968.19
668.70	34064.16
668.84	33818.40
668.98	33614.77
669.12	34064.16
669.26	33392.42
669.40	33427.53
669.54	33909.68
669.68	33490.73
669.82	33518.81
669.96	33078.79
670.10	33453.28
670.25	33378.38
670.39	33104.54
670.53	32636.43
670.67	33083.47
670.81	33064.75
670.95	33139.65
671.09	33270.72
671.23	33010.92
671.37	32973.47
671.51	32917.29
671.65	32652.81
671.79	32577.92
671.93	32542.81
672.07	32816.65
672.21	32465.57
672.35	32531.11
672.49	32570.90
672.63	32811.97
672.77	32100.45
672.91	32641.11
673.05	31948.31
673.19	32196.41
673.33	31835.97
673.47	31824.26
673.61	31880.44
673.75	31517.65
673.89	31786.82
674.03	31482.55
674.17	31725.96
674.31	31309.35
674.45	31402.97
674.59	31311.69
674.73	31695.53
674.87	31531.70
675.01	31096.36
675.15	31342.11
675.29	31414.67
675.43	31012.10
675.56	31061.25
675.70	30902.09
675.84	30574.42
675.98	29879.28
676.12	30625.91
676.26	30717.19
676.40	30345.05
676.54	30710.17
676.68	30635.27
676.82	29654.59
676.96	30134.40
677.10	29954.18
677.23	29986.94
677.37	29853.53
677.51	29628.84
677.65	29443.94
677.79	29053.07
677.93	29420.53
678.07	29252.02
678.21	28730.08
678.34	29008.60
678.48	28987.53
678.62	28926.68
678.76	28458.57
678.90	28498.36
679.04	28348.57
679.18	28528.79
679.31	28514.75
679.45	28294.74
679.59	28479.64
679.73	28126.22
679.87	28032.60
680.00	27758.75
680.14	27789.18
680.28	28046.64
680.42	28060.68
680.56	27988.13
680.70	27707.26
680.83	27449.80
680.97	27866.42
681.11	27821.95
681.25	27227.45
681.39	27337.46
681.52	27365.54
681.66	27339.80
681.80	27087.02
681.94	26937.23
682.07	27168.94
682.21	26834.24
682.35	26602.53
682.49	27044.89
682.62	26654.02
682.76	26448.05
682.90	26305.28
683.04	26422.31
683.17	26087.61
683.31	26230.38
683.45	26143.78
683.59	26136.76
683.72	25635.89
683.86	25191.19
684.00	25671.00
684.13	25825.47
684.27	25937.82
684.41	25699.08
684.55	25502.48
684.68	25298.85
684.82	25472.05
684.96	25198.21
685.09	25348.00
685.23	24996.92
685.37	24891.60
685.50	24865.85
685.64	24950.11
685.78	24493.71
685.91	24374.34
686.05	24372.00
686.19	24325.19
686.32	23927.30
686.46	23632.39
686.60	23718.99
686.73	23466.21
686.87	23494.30
687.01	23077.68
687.14	23051.94
687.28	22965.34
687.42	23573.88
687.55	23089.38
687.69	23426.42
687.82	22930.23
687.96	23211.09
688.10	22941.93
688.23	22897.46
688.37	22497.23
688.50	22410.63
688.64	22876.40
688.78	22820.22
688.91	22309.99
689.05	22548.72
689.18	22398.93
689.32	22015.08
689.46	21919.12
689.59	22368.50
689.73	22176.58
689.86	22029.12
690.00	22380.20
690.13	21865.28
690.27	21640.59
690.41	21813.79
690.54	21446.33
690.68	21312.92
690.81	21427.60
690.95	21291.85
691.08	21415.90
691.22	20980.56
691.35	21289.51
691.49	21252.06
691.62	21434.63
691.76	21032.05
691.89	21102.27
692.03	20292.44
692.16	20690.34
692.30	20498.41
692.43	20549.90
692.57	20226.91
692.70	20175.42
692.84	20577.99
692.97	20294.79
693.11	20018.60
693.24	19838.38
693.38	19920.30
693.51	19623.05
693.65	19840.72
693.78	19763.48
693.92	19658.16
694.05	19267.29
694.19	19800.93
694.32	19353.89
694.45	19260.27
694.59	19449.85
694.72	19082.39
694.86	18965.36
694.99	18775.78
695.13	19297.72
695.26	18906.85
695.39	18647.05
695.53	18930.25
695.66	18848.33
695.80	19042.60
695.93	18586.19
696.07	18628.32
696.20	18759.39
696.33	18431.72
696.47	18307.67
696.60	18118.09
696.73	18115.75
696.87	17886.37
697.00	17965.95
697.14	17848.93
697.27	17701.47
697.40	17614.87
697.54	17736.58
697.67	17254.43
697.80	17516.57
697.94	17015.69
698.07	16891.65
698.21	17254.43
698.34	17240.39
698.47	16936.12
698.61	16945.48
698.74	16676.32
698.87	16755.90
699.01	16339.28
699.14	16348.64
699.27	16594.40
699.40	16208.21
699.54	16121.61
699.67	16257.36
699.80	16238.64
699.94	16320.56
700.07	16395.45
700.20	15964.79
700.34	16037.35
700.47	16016.29
700.60	16402.47
700.73	16271.40
700.87	15878.19
701.00	15686.27
701.13	15524.77
701.26	15630.10
701.40	15552.86
701.53	15248.59
701.66	15330.51
701.79	15080.07
701.93	15449.88
702.06	15255.61
702.19	14939.64
702.32	14988.79
702.46	14864.74
702.59	14691.54
702.72	14796.87
702.85	14824.95
702.99	14867.08
703.12	14558.13
703.25	14686.86
703.38	14083.00
703.51	14225.78
703.65	14398.98
703.78	14443.45
703.91	14265.57
704.04	14146.20
704.17	14300.67
704.31	13951.93
704.44	13895.76
704.57	14001.08
704.70	14108.75
704.83	13710.86
704.96	13930.87
705.10	13832.57
705.23	14012.79
>>>>>End Processed Spectral Data<<<<<
