SpectraSuite Data File
++++++++++++++++++++++++++++++++++++
Date: Fri Oct 25 11:26:14 EDT 2013
User: price-jones
Dark Spectrum Present: No
Reference Spectrum Present: No
Number of Sampled Component Spectra: 1
Spectrometers: USB2+H05261
Integration Time (usec): 100000 (USB2+H05261)
Spectra Averaged: 1 (USB2+H05261)
Boxcar Smoothing: 0 (USB2+H05261)
Correct for Electrical Dark: No (USB2+H05261)
Strobe/Lamp Enabled: No (USB2+H05261)
Correct for Detector Non-linearity: No (USB2+H05261)
Correct for Stray Light: No (USB2+H05261)
Number of Pixels in Processed Spectrum: 2048
>>>>>Begin Processed Spectral Data<<<<<
365.73	198.95
365.92	198.95
366.12	198.95
366.32	131.07
366.52	145.11
366.72	105.32
366.91	159.16
367.11	149.79
367.31	142.77
367.51	161.50
367.70	154.48
367.90	147.45
368.10	152.13
368.30	119.37
368.49	175.54
368.69	191.92
368.89	161.50
369.09	205.97
369.28	224.69
369.48	241.08
369.68	287.89
369.87	245.76
370.07	248.10
370.27	224.69
370.47	285.55
370.66	573.43
370.86	674.07
371.06	613.22
371.25	667.05
371.45	641.31
371.65	716.20
371.84	653.01
372.04	678.76
372.24	631.94
372.44	755.99
372.63	744.29
372.83	781.74
373.03	725.57
373.22	718.54
373.42	774.72
373.62	755.99
373.81	732.59
374.01	805.14
374.21	823.87
374.40	770.04
374.60	880.04
374.79	795.78
374.99	784.08
375.19	877.70
375.38	877.70
375.58	786.42
375.78	915.15
375.97	873.02
376.17	887.06
376.37	926.85
376.56	903.45
376.76	929.19
376.95	802.80
377.15	870.68
377.35	875.36
377.54	917.49
377.74	929.19
377.93	882.38
378.13	936.21
378.33	905.79
378.52	933.87
378.72	947.92
378.91	983.02
379.11	917.49
379.31	952.60
379.50	987.71
379.70	1008.77
379.89	1069.62
380.09	985.37
380.28	950.26
380.48	997.07
380.68	1001.75
380.87	1083.67
381.07	987.71
381.26	1053.24
381.46	961.96
381.65	1100.05
381.85	1055.58
382.04	1097.71
382.24	1011.11
382.43	1078.99
382.63	1067.28
382.83	1081.33
383.02	1114.10
383.22	1144.52
383.41	1090.69
383.61	1086.01
383.80	1153.88
384.00	1086.01
384.19	1132.82
384.39	1078.99
384.58	1095.37
384.78	1095.37
384.97	1167.93
385.17	1179.63
385.36	1132.82
385.56	1177.29
385.75	1076.65
385.95	1221.76
386.14	1249.85
386.34	1207.72
386.53	1186.65
386.72	1238.14
386.92	1245.16
387.11	1224.10
387.31	1301.34
387.50	1128.14
387.70	1203.04
387.89	1233.46
388.09	1299.00
388.28	1188.99
388.48	1233.46
388.67	1336.45
388.86	1338.79
389.06	1263.89
389.25	1404.32
389.45	1315.38
389.64	1359.85
389.84	1338.79
390.03	1299.00
390.22	1350.49
390.42	1331.76
390.61	1427.73
390.81	1420.71
391.00	1362.19
391.19	1444.11
391.39	1404.32
391.58	1392.62
391.78	1350.49
391.97	1448.79
392.16	1411.34
392.36	1575.18
392.55	1565.82
392.75	1561.14
392.94	1621.99
393.13	1530.71
393.33	1446.45
393.52	1589.22
393.71	1621.99
393.91	1593.90
394.10	1610.29
394.29	1624.33
394.49	1629.01
394.68	1617.31
394.88	1680.50
395.07	1645.40
395.26	1600.93
395.46	1703.91
395.65	1671.14
395.84	1802.21
396.04	1743.70
396.23	1839.66
396.42	1842.00
396.62	1769.44
396.81	1785.83
397.00	1671.14
397.19	1853.70
397.39	1837.32
397.58	1820.94
397.77	1785.83
397.97	1888.81
398.16	1863.07
398.35	1891.15
398.55	1839.66
398.74	1926.26
398.93	1940.30
399.12	1933.28
399.32	1895.83
399.51	1930.94
399.70	1947.33
399.90	1954.35
400.09	2026.90
400.28	2001.16
400.47	2113.50
400.67	2015.20
400.86	2127.55
401.05	2062.01
401.24	2008.18
401.44	2111.16
401.63	2146.27
401.82	2083.08
402.01	2101.80
402.21	2188.40
402.40	2172.02
402.59	2181.38
402.78	2165.00
402.97	2209.47
403.17	2265.64
403.36	2242.23
403.55	2244.57
403.74	2399.05
403.93	2347.56
404.13	2352.24
404.32	2403.73
404.51	2342.88
404.70	2382.67
404.89	2289.04
405.09	2427.14
405.28	2480.97
405.47	2450.54
405.66	2492.67
405.85	2359.26
406.05	2513.74
406.24	2448.20
406.43	2605.02
406.62	2696.30
406.81	2544.16
407.00	2555.86
407.20	2560.55
407.39	2602.68
407.58	2656.51
407.77	2705.66
407.96	2708.00
408.15	2738.43
408.34	2672.89
408.54	2771.19
408.73	2757.15
408.92	2892.90
409.11	2864.82
409.30	2782.90
409.49	2827.37
409.68	2906.95
409.87	2949.08
410.07	2878.86
410.26	2951.42
410.45	2850.77
410.64	2928.01
410.83	3042.70
411.02	3211.22
411.21	3133.98
411.40	3131.64
411.59	3300.16
411.78	3169.09
411.98	3171.43
412.17	3204.19
412.36	3269.73
412.55	3339.94
412.74	3412.50
412.93	3330.58
413.12	3232.28
413.31	3520.17
413.50	3494.42
413.69	3368.03
413.88	3758.90
414.07	3630.17
414.26	3557.61
414.45	3599.74
414.64	3578.68
414.83	3714.43
415.02	3744.86
415.22	3786.99
415.41	3829.12
415.60	3822.09
415.79	4009.34
415.98	3967.21
416.17	3906.35
416.36	4002.32
416.55	3976.57
416.74	3999.98
416.93	4072.53
417.12	4198.92
417.31	4117.00
417.50	4119.34
417.69	4245.73
417.88	4208.28
418.07	4297.22
418.26	4320.63
418.45	4447.02
418.64	4507.87
418.83	4442.34
419.02	4372.12
419.21	4498.51
419.39	4374.46
419.58	4528.94
419.77	4521.92
419.96	4652.98
420.15	4601.49
420.34	4676.39
420.53	4627.24
420.72	4643.62
420.91	4561.70
421.10	4770.01
421.29	4774.69
421.48	4585.11
421.67	4828.53
421.86	4748.95
422.05	4865.97
422.24	4865.97
422.43	4802.78
422.61	4980.66
422.80	4959.60
422.99	4823.84
423.18	4961.94
423.37	4954.91
423.56	4992.36
423.75	4924.49
423.94	4734.90
424.13	4655.33
424.32	4568.73
424.50	5060.24
424.69	5011.09
424.88	4945.55
425.07	4884.70
425.26	4943.21
425.45	4985.34
425.64	4929.17
425.83	4905.76
426.01	5053.22
426.20	4922.15
426.39	5118.75
426.58	5097.69
426.77	5057.90
426.96	5125.77
427.15	5034.49
427.33	5078.96
427.52	5093.01
427.71	5275.57
427.90	5186.63
428.09	5273.23
428.28	5357.49
428.46	5324.72
428.65	5350.46
428.84	5392.59
429.03	5518.98
429.22	5275.57
429.40	5504.94
429.59	5418.34
429.78	5282.59
429.97	5252.16
430.16	5467.49
430.34	5526.00
430.53	5617.29
430.72	5593.88
430.91	5589.20
431.10	5584.52
431.28	5682.82
431.47	5570.48
431.66	5830.27
431.85	5858.36
432.03	5912.19
432.22	5975.39
432.41	5870.06
432.60	5851.34
432.79	5973.05
432.97	6104.12
433.16	5975.39
433.35	5895.81
433.54	5980.07
433.72	6008.16
433.91	5989.43
434.10	6190.72
434.28	5956.66
434.47	6296.04
434.66	6207.10
434.85	6239.87
435.03	6375.62
435.22	6296.04
435.41	6363.92
435.59	6333.49
435.78	6401.37
435.97	6450.52
436.16	6209.44
436.34	6335.83
436.53	6590.95
436.72	6513.71
436.90	6352.21
437.09	6668.19
437.28	6487.96
437.46	6663.51
437.65	6663.51
437.84	6677.55
438.02	6647.12
438.21	6494.99
438.40	6623.72
438.58	6911.60
438.77	7000.54
438.96	6862.45
439.14	7000.54
439.33	7131.61
439.52	7290.77
439.70	7208.85
439.89	7293.11
440.08	7335.24
440.26	7260.34
440.45	7328.22
440.63	7318.86
440.82	7562.27
441.01	7653.55
441.19	7480.35
441.38	7719.09
441.57	7758.88
441.75	7571.63
441.94	7833.77
442.12	7880.58
442.31	8135.70
442.50	7775.26
442.68	7983.57
442.87	7943.78
443.05	8039.74
443.24	8231.66
443.43	8194.22
443.61	8049.10
443.80	8355.71
443.98	7960.16
444.17	7801.01
444.35	8311.24
444.54	8121.66
444.73	8152.09
444.91	8210.60
445.10	8388.48
445.28	8112.30
445.47	8292.52
445.65	8273.79
445.84	8552.32
446.02	8421.25
446.21	8402.52
446.39	8177.83
446.58	8505.51
446.77	8423.59
446.95	8339.33
447.14	8353.37
447.32	8414.23
447.51	8477.42
447.69	8461.04
447.88	8517.21
448.06	8446.99
448.25	8482.10
448.43	8517.21
448.62	8477.42
448.80	8491.46
448.99	8416.57
449.17	8692.75
449.36	8636.58
449.54	8549.98
449.73	8954.89
449.91	8861.27
450.10	8999.36
450.28	9029.79
450.46	8940.85
450.65	9125.75
450.83	8938.51
451.02	8957.23
451.20	8990.00
451.39	9104.68
451.57	9116.39
451.76	9046.17
451.94	9104.68
452.13	9146.81
452.31	9170.22
452.49	9095.32
452.68	9193.62
452.86	9149.15
453.05	9280.22
453.23	9329.38
453.42	9544.70
453.60	9387.89
453.78	9465.13
453.97	9387.89
454.15	9401.93
454.34	9479.17
454.52	9533.00
454.70	9540.02
454.89	9579.81
455.07	9626.62
455.26	9797.48
455.44	9811.53
455.62	9666.41
455.81	9905.15
455.99	10146.22
456.17	9984.73
456.36	9987.07
456.54	10277.29
456.73	10209.42
456.91	10354.53
457.09	10513.69
457.28	10581.56
457.46	10413.04
457.64	10574.54
457.83	10370.91
458.01	10413.04
458.19	10670.50
458.38	10368.57
458.56	10663.48
458.74	10588.58
458.93	10672.84
459.11	10640.08
459.29	10637.73
459.48	10836.68
459.66	10675.18
459.84	10881.15
460.03	11066.05
460.21	10916.26
460.39	10883.49
460.57	10808.59
460.76	11108.18
460.94	10876.47
461.12	11044.99
461.31	11220.53
461.49	11197.12
461.67	11002.86
461.85	11398.41
462.04	11382.03
462.22	11768.21
462.40	11323.51
462.59	11321.17
462.77	11314.15
462.95	11550.54
463.13	11426.50
463.32	11513.10
463.50	11690.98
463.68	11714.38
463.86	11845.45
464.05	11522.46
464.23	11800.98
464.41	11899.28
464.59	11522.46
464.78	12093.55
464.96	11896.94
465.14	11765.87
465.32	11690.98
465.50	11981.20
465.69	12182.49
465.87	11915.67
466.05	11831.41
466.23	11920.35
466.41	12365.05
466.60	12510.16
466.78	12355.69
466.96	12138.02
467.14	12215.26
467.32	12187.17
467.51	12526.55
467.69	12065.46
467.87	12451.65
468.05	12606.13
468.23	12346.33
468.41	12428.24
468.60	12524.21
468.78	12599.10
468.96	12571.02
469.14	12671.66
469.32	12905.71
469.50	12402.50
469.69	12795.71
469.87	13069.55
470.05	13027.42
470.23	13088.28
470.41	13095.30
470.59	13238.07
470.77	13067.21
470.95	13006.36
471.14	13582.13
471.32	12996.99
471.50	13465.10
471.68	13469.78
471.86	13362.12
472.04	13666.39
472.22	13982.36
472.40	13350.42
472.58	13741.29
472.77	14064.28
472.95	14059.60
473.13	14525.36
473.31	14073.64
473.49	13895.76
473.67	14001.08
473.85	14300.67
474.03	14267.91
474.21	14782.82
474.39	14595.58
474.57	14679.84
474.75	14644.73
474.93	14878.79
475.12	14951.34
475.30	15129.22
475.48	14998.15
475.66	15197.10
475.84	14878.79
476.02	15594.99
476.20	15288.38
476.38	15763.51
476.56	15939.05
476.74	15751.81
476.92	15791.59
477.10	15770.53
477.28	16002.24
477.46	16079.48
477.64	16341.62
477.82	16688.02
478.00	16917.39
478.18	16861.22
478.36	16809.73
478.54	16929.09
478.72	17104.64
478.90	16996.97
479.08	17441.67
479.26	17614.87
479.44	17542.32
479.62	17713.17
479.80	18024.47
479.98	18211.71
480.16	18595.56
480.34	18310.01
480.52	18476.19
480.70	18586.19
480.88	18232.77
481.06	18567.47
481.24	18808.54
481.41	19185.37
481.59	19459.21
481.77	19407.72
481.95	19309.42
482.13	19580.92
482.31	19861.79
482.49	20121.59
482.67	19990.52
482.85	20102.86
483.03	20484.37
483.21	20732.47
483.39	21020.35
483.57	20973.54
483.74	21137.38
483.92	21123.33
484.10	20893.96
484.28	21577.40
484.46	21682.72
484.64	22377.86
484.82	21795.07
485.00	22609.58
485.18	22520.63
485.35	22885.76
485.53	22691.49
485.71	23019.17
485.89	23318.76
486.07	23122.15
486.25	22981.72
486.43	23220.45
486.61	23550.47
486.78	23974.11
486.96	24074.75
487.14	24624.78
487.32	24563.92
487.50	24620.10
487.68	24884.58
487.85	25242.68
488.03	25593.76
488.21	25488.43
488.39	25881.64
488.57	25802.07
488.75	26125.06
488.92	26139.10
489.10	26328.69
489.28	26534.65
489.46	27180.64
489.64	26969.99
489.81	27391.29
489.99	27087.02
490.17	27630.02
490.35	28208.14
490.53	28189.41
490.70	28091.11
490.88	28079.41
491.06	28704.33
491.24	28659.86
491.41	28723.05
491.59	29207.55
491.77	29090.52
491.95	29383.09
492.13	29638.20
492.30	29858.21
492.48	29387.77
492.66	29724.80
492.84	30246.74
493.01	30391.86
493.19	30321.64
493.37	31161.89
493.54	31101.04
493.72	31442.76
493.90	31229.77
494.08	31627.66
494.25	31800.86
494.43	31637.02
494.61	31960.02
494.79	32208.11
494.96	32470.25
495.14	32566.21
495.32	32795.59
495.49	32774.52
495.67	33099.86
495.85	33291.78
496.02	33596.05
496.20	33921.38
496.38	33839.47
496.55	33535.20
496.73	34356.72
496.91	34305.23
497.09	34602.48
497.26	34911.43
497.44	34520.56
497.62	34644.61
497.79	35908.50
497.97	35325.71
498.14	35515.29
498.32	35782.11
498.50	36006.80
498.67	36290.01
498.85	36252.56
499.03	36577.89
499.20	36528.74
499.38	36517.04
499.56	37165.37
499.73	36989.83
499.91	37322.18
500.08	37193.45
500.26	37050.68
500.44	37160.69
500.61	37722.41
500.79	37319.84
500.97	38085.20
501.14	38143.71
501.32	38071.15
501.49	38146.05
501.67	38305.21
501.84	38518.20
502.02	38625.86
502.20	38864.60
502.37	38803.74
502.55	38983.96
502.72	39264.83
502.90	38988.64
503.07	39576.12
503.25	39894.43
503.43	39536.33
503.60	39784.43
503.78	39936.56
503.95	40222.11
504.13	40547.44
504.30	40727.66
504.48	40086.36
504.65	41029.59
504.83	40945.33
505.01	40917.25
505.18	41270.67
505.36	41155.98
505.53	41167.68
505.71	40938.31
505.88	41776.22
506.06	41448.55
506.23	41823.03
506.41	41390.03
506.58	41677.92
506.76	41830.05
506.93	42527.53
507.11	42007.94
507.28	42321.57
507.46	42462.00
507.63	42602.43
507.81	42693.71
507.98	42728.82
508.16	43009.68
508.33	43445.02
508.50	42887.98
508.68	43112.67
508.85	43985.69
509.03	43400.55
509.20	43983.35
509.38	43966.96
509.55	44095.69
509.73	44189.31
509.90	44287.62
510.08	44034.84
510.25	44566.14
510.42	44659.76
510.60	44957.01
510.77	44865.73
510.95	45387.67
511.12	44748.70
511.30	44816.58
511.47	45481.29
511.64	45008.50
511.82	45654.49
511.99	45382.99
512.17	45729.39
512.34	45603.00
512.51	46253.67
512.69	46309.84
512.86	46270.05
513.04	46270.05
513.21	46323.88
513.38	46415.16
513.56	46677.30
513.73	46316.86
513.90	46911.36
514.08	46452.61
514.25	47051.79
514.43	47405.21
514.60	47154.77
514.77	47126.69
514.95	47508.19
515.12	47407.55
515.29	47000.30
515.47	47627.56
515.64	48025.45
515.81	47562.03
515.99	47903.74
516.16	48058.22
516.33	48032.47
516.51	48149.50
516.68	48463.13
516.85	48229.08
517.03	48428.02
517.20	48418.66
517.37	48451.43
517.54	48652.72
517.72	48811.87
517.89	49029.54
518.06	49153.59
518.24	48638.67
518.41	49123.16
518.58	49209.76
518.75	48893.79
518.93	49331.47
519.10	49588.93
519.27	49102.10
519.45	49729.36
519.62	49743.41
519.79	49553.82
519.96	50293.43
520.14	49886.18
520.31	49865.11
520.48	50340.24
520.65	50492.38
520.83	50244.28
521.00	50724.09
521.17	50330.88
521.34	50677.28
521.52	50459.61
521.69	50817.71
521.86	50506.42
522.03	51051.76
522.20	51206.24
522.38	51136.02
522.55	51129.00
522.72	51035.38
522.89	51215.60
523.07	51622.86
523.24	51384.12
523.41	51550.30
523.58	51393.48
523.75	51676.69
523.92	51522.21
524.10	51772.65
524.27	51714.14
524.44	51875.63
524.61	51772.65
524.78	51964.57
524.96	52093.30
525.13	51892.02
525.30	51882.66
525.47	52329.70
525.64	52240.76
525.81	52156.50
525.98	52605.88
526.16	52582.48
526.33	52261.82
526.50	52905.47
526.67	52570.77
526.84	53090.37
527.01	52416.30
527.18	52552.05
527.36	53195.70
527.53	52900.79
527.70	53088.03
527.87	53205.06
528.04	53286.98
528.21	52783.76
528.38	53265.91
528.55	53263.57
528.72	53350.17
528.89	53174.63
529.07	53324.43
529.24	53226.12
529.41	53396.98
529.58	53333.79
529.75	53322.08
529.92	53312.72
530.09	53551.46
530.26	53745.72
530.43	53687.21
530.60	53757.42
530.77	53867.43
530.94	53984.46
531.11	53471.88
531.28	53741.04
531.46	54312.13
531.63	53893.18
531.80	53902.54
531.97	54405.75
532.14	54326.17
532.31	54202.13
532.48	54199.79
532.65	54457.24
532.82	54134.25
532.99	54567.25
533.16	54358.94
533.33	54384.69
533.50	54892.58
533.67	54705.34
533.84	54464.27
534.01	54590.66
534.18	54913.65
534.35	55187.49
534.52	55138.34
534.69	54913.65
534.86	54937.05
535.03	54410.43
535.20	55007.27
535.37	55206.22
535.54	55227.28
535.71	54979.18
535.88	54986.21
536.05	55311.54
536.22	55503.46
536.38	55243.66
536.55	55367.71
536.72	55494.10
536.89	55234.30
537.06	55351.33
537.23	55461.33
537.40	55428.57
537.57	55583.04
537.74	55447.29
537.91	55765.60
538.08	55716.45
538.25	55510.49
538.42	55753.90
538.59	55732.84
538.75	55639.22
538.92	56149.45
539.09	55931.78
539.26	55934.12
539.43	55913.06
539.60	56210.31
539.77	56128.39
539.94	56207.97
540.11	56123.71
540.28	56247.75
540.44	56144.77
540.61	56170.52
540.78	56236.05
540.95	56413.93
541.12	56081.58
541.29	56240.73
541.46	56406.91
541.62	56254.78
541.79	56413.93
541.96	56376.48
542.13	56299.25
542.30	56645.65
542.47	56526.28
542.63	56430.32
542.80	56786.08
542.97	56809.48
543.14	57190.99
543.31	57045.88
543.48	56900.76
543.64	57130.14
543.81	57275.25
543.98	56982.68
544.15	57198.01
544.32	57080.98
544.48	57460.15
544.65	57198.01
544.82	57425.04
544.99	57221.42
545.16	57242.48
545.32	57219.08
545.49	57499.94
545.66	57516.32
545.83	57689.52
546.00	57607.61
546.16	57623.99
546.33	57176.95
546.50	57254.18
546.67	57513.98
546.83	57216.74
547.00	57340.78
547.17	57455.47
547.34	57525.69
547.50	57670.80
547.67	57925.92
547.84	57893.15
548.00	57954.00
548.17	57935.28
548.34	57820.59
548.51	58122.52
548.67	57954.00
548.84	58052.31
549.01	58094.44
549.18	57975.07
549.34	58024.22
549.51	58136.57
549.68	58106.14
549.84	58302.74
550.01	58370.62
550.18	58204.44
550.34	58279.34
550.51	58166.99
550.68	58155.29
550.84	58218.49
551.01	58213.80
551.18	58239.55
551.34	58387.00
551.51	58468.92
551.68	58642.12
551.84	58436.16
552.01	58284.02
552.18	58445.52
552.34	58216.14
552.51	58702.98
552.68	58454.88
552.84	58202.10
553.01	58754.47
553.18	58726.38
553.34	58644.46
553.51	58710.00
553.67	58527.44
553.84	58562.54
554.01	58700.64
554.17	58834.05
554.34	58784.90
554.51	58733.40
554.67	59007.25
554.84	59028.31
555.00	58845.75
555.17	58674.89
555.33	58864.47
555.50	58960.44
555.67	58677.23
555.83	58925.33
556.00	59058.74
556.16	59189.81
556.33	59316.20
556.50	59014.27
556.66	59047.04
556.83	59002.56
556.99	59365.35
557.16	59175.76
557.32	59276.41
557.49	59409.82
557.65	59278.75
557.82	59262.36
557.98	59096.19
558.15	59330.24
558.32	59491.74
558.48	59145.34
558.65	59372.37
558.81	59187.47
558.98	59372.37
559.14	59681.32
559.31	59433.22
559.47	59716.43
559.64	59381.73
559.80	59655.57
559.97	59529.19
560.13	59337.26
560.30	59585.36
560.46	59473.01
560.63	59568.97
560.79	59695.36
560.96	59702.38
561.12	59594.72
561.29	59627.49
561.45	59756.22
561.61	59697.70
561.78	59700.04
561.94	59587.70
562.11	59838.14
562.27	59774.94
562.44	59931.76
562.60	59901.33
562.77	59913.03
562.93	59564.29
563.10	59959.84
563.26	59831.11
563.42	60095.60
563.59	59973.89
563.75	59718.77
563.92	59847.50
564.08	59646.21
564.24	59924.74
564.41	59920.05
564.57	59894.31
564.74	60020.70
564.90	60055.81
565.07	60013.68
565.23	59833.46
565.39	59819.41
565.56	60088.57
565.72	59915.37
565.88	60210.28
566.05	59910.69
566.21	60219.64
566.38	60088.57
566.54	60172.83
566.70	60268.79
566.87	60324.97
567.03	60004.31
567.19	60140.07
567.36	60126.02
567.52	60051.12
567.68	60439.65
567.85	60327.31
568.01	60214.96
568.17	60135.38
568.34	60292.20
568.50	60282.84
568.66	60329.65
568.83	60320.29
568.99	60238.37
569.15	60100.28
569.32	60383.48
569.48	59980.91
569.64	60250.07
569.81	60271.14
569.97	60055.81
570.13	60364.76
570.30	60083.89
570.46	60301.56
570.62	60397.52
570.78	60116.66
570.95	60210.28
571.11	60587.11
571.27	60329.65
571.43	60378.80
571.60	60444.33
571.76	60388.16
571.92	60523.91
572.09	60397.52
572.25	60519.23
572.41	60533.28
572.57	60673.71
572.74	60530.93
572.90	60268.79
573.06	60289.86
573.22	60453.70
573.38	60584.77
573.55	60406.89
573.71	60666.69
573.87	60654.98
574.03	60509.87
574.20	60500.51
574.36	60467.74
574.52	60654.98
574.68	60519.23
574.84	60549.66
575.01	60760.31
575.17	60406.89
575.33	60514.55
575.49	60432.63
575.65	60495.83
575.82	60706.47
575.98	60570.72
576.14	60772.01
576.30	60615.19
576.46	60636.26
576.62	60556.68
576.79	60757.97
576.95	60559.02
577.11	60708.82
577.27	60615.19
577.43	60839.89
577.59	60786.05
577.75	60800.10
577.92	60575.40
578.08	60671.37
578.24	60659.66
578.40	60704.13
578.56	60961.59
578.72	60769.67
578.88	60795.42
579.04	60917.12
579.21	60776.69
579.37	60645.62
579.53	60853.93
579.69	60486.46
579.85	60643.28
580.01	60664.35
580.17	60659.66
580.33	60727.54
580.49	60874.99
580.65	60849.25
580.82	60753.29
580.98	60825.84
581.14	60659.66
581.30	60647.96
581.46	60865.63
581.62	60795.42
581.78	60584.77
581.94	60907.76
582.10	60575.40
582.26	60673.71
582.42	60835.20
582.58	60762.65
582.74	60561.36
582.90	60750.94
583.06	60687.75
583.22	60662.00
583.38	60746.26
583.54	60823.50
583.70	60776.69
583.86	60797.76
584.02	60889.04
584.18	61106.71
584.34	61092.66
584.50	60898.40
584.66	60788.39
584.82	60601.15
584.98	60949.89
585.14	60828.18
585.30	60720.52
585.46	60828.18
585.62	60940.53
585.78	60968.61
585.94	60786.05
586.10	60739.24
586.26	60748.60
586.42	60891.38
586.58	60846.91
586.74	60872.65
586.90	60811.80
587.06	60844.57
587.22	61052.87
587.38	60816.48
587.54	60872.65
587.70	61010.74
587.86	61104.37
588.02	60966.27
588.18	61181.60
588.34	60846.91
588.49	60994.36
588.65	61036.49
588.81	60874.99
588.97	60919.46
589.13	61111.39
589.29	61139.47
589.45	61209.69
589.61	60898.40
589.77	61104.37
589.93	61268.20
590.08	61223.73
590.24	61336.08
590.40	61102.03
590.56	61085.64
590.72	61216.71
590.88	61104.37
591.04	61202.67
591.20	61530.34
591.35	61183.94
591.51	61408.64
591.67	61446.08
591.83	61258.84
591.99	61235.44
592.15	61226.07
592.31	61380.55
592.46	61296.29
592.62	61118.41
592.78	61310.33
592.94	61462.47
593.10	61317.35
593.26	61207.35
593.41	61270.54
593.57	61338.42
593.73	61399.27
593.89	61471.83
594.05	61469.49
594.20	61403.95
594.36	61415.66
594.52	61436.72
594.68	61305.65
594.84	61193.31
594.99	61354.80
595.15	61385.23
595.31	61619.28
595.47	61345.44
595.62	61354.80
595.78	61120.75
595.94	61394.59
596.10	61485.87
596.25	61525.66
596.41	61413.32
596.57	61429.70
596.73	61462.47
596.88	61553.75
597.04	61415.66
597.20	61495.24
597.36	61352.46
597.51	61469.49
597.67	61336.08
597.83	61518.64
597.99	61525.66
598.14	61415.66
598.30	61509.28
598.46	61396.93
598.61	61584.18
598.77	61403.95
598.93	61520.98
599.09	61546.73
599.24	61759.72
599.40	61607.58
599.56	61574.81
599.71	61509.28
599.87	61860.36
600.03	61705.88
600.18	61588.86
600.34	61731.63
600.50	61553.75
600.65	61668.44
600.81	61434.38
600.97	61726.95
601.12	61708.22
601.28	61490.55
601.44	61560.77
601.59	61614.60
601.75	61443.74
601.91	61799.50
602.06	61698.86
602.22	61769.08
602.37	61602.90
602.53	61462.47
602.69	61670.78
602.84	61591.20
603.00	61701.20
603.16	61638.01
603.31	61663.75
603.47	61586.52
603.62	61425.02
603.78	61652.05
603.94	61659.07
604.09	61733.97
604.25	61464.81
604.40	61593.54
604.56	61605.24
604.71	61724.61
604.87	61453.11
605.03	61574.81
605.18	61460.13
605.34	61572.47
605.49	61574.81
605.65	61675.46
605.80	61696.52
605.96	61598.22
606.12	61516.30
606.27	61677.80
606.43	61616.94
606.58	61846.32
606.74	61626.31
606.89	61827.59
607.05	61623.96
607.20	61642.69
607.36	61506.94
607.51	61605.24
607.67	61357.14
607.82	61371.19
607.98	61478.85
608.13	61464.81
608.29	61382.89
608.44	61642.69
608.60	61443.74
608.75	61499.92
608.91	61544.39
609.06	61368.85
609.22	61689.50
609.37	61319.70
609.53	61446.08
609.68	61558.43
609.84	61209.69
609.99	61778.44
610.15	61432.04
610.30	61673.12
610.46	61406.30
610.61	61537.36
610.76	61439.06
610.92	61265.86
611.07	61462.47
611.23	61469.49
611.38	61506.94
611.54	61357.14
611.69	61350.12
611.84	61635.67
612.00	61427.36
612.15	61366.51
612.31	61415.66
612.46	61080.96
612.62	61375.87
612.77	61434.38
612.92	61542.05
613.08	61200.33
613.23	61258.84
613.39	61345.44
613.54	61038.83
613.69	61130.11
613.85	61223.73
614.00	61443.74
614.15	61413.32
614.31	61406.30
614.46	61490.55
614.62	61270.54
614.77	61062.24
614.92	61251.82
615.08	61319.70
615.23	61197.99
615.38	61183.94
615.54	61359.48
615.69	61172.24
615.84	61251.82
616.00	61113.73
616.15	60992.02
616.30	61242.46
616.46	61073.94
616.61	61188.63
616.76	61317.35
616.92	61254.16
617.07	61310.33
617.22	61293.95
617.37	61137.13
617.53	61162.88
617.68	61092.66
617.83	61066.92
617.99	61006.06
618.14	61095.00
618.29	61202.67
618.45	60720.52
618.60	60886.70
618.75	60870.31
618.90	61029.47
619.06	61057.56
619.21	61050.53
619.36	61048.19
619.51	61102.03
619.67	60816.48
619.82	60818.82
619.97	60985.00
620.12	60928.83
620.28	60872.65
620.43	60865.63
620.58	60818.82
620.73	60767.33
620.89	61034.15
621.04	61109.05
621.19	61006.06
621.34	60680.73
621.49	60669.03
621.65	60671.37
621.80	60772.01
621.95	60470.08
622.10	60486.46
622.25	60842.23
622.41	60917.12
622.56	60622.22
622.71	60849.25
622.86	60554.34
623.01	60509.87
623.16	60615.19
623.32	60697.11
623.47	60889.04
623.62	60729.88
623.77	60561.36
623.92	60903.08
624.07	60760.31
624.23	60678.39
624.38	60552.00
624.53	60530.93
624.68	60500.51
624.83	60680.73
624.98	60491.15
625.13	60495.83
625.29	60580.09
625.44	60580.09
625.59	60500.51
625.74	60542.64
625.89	60079.21
626.04	60350.71
626.19	60339.01
626.34	60465.40
626.49	60383.48
626.65	59987.93
626.80	60528.59
626.95	59964.52
627.10	60116.66
627.25	60116.66
627.40	60037.08
627.55	60151.77
627.70	60264.11
627.85	60025.38
628.00	60238.37
628.15	60371.78
628.30	60011.34
628.45	60245.39
628.60	60039.42
628.76	60165.81
628.91	60069.85
629.06	60032.40
629.21	60165.81
629.36	60111.98
629.51	60184.54
629.66	59903.67
629.81	59835.80
629.96	59784.30
630.11	59913.03
630.26	60083.89
630.41	59936.44
630.56	60044.10
630.71	59812.39
630.86	59774.94
631.01	60041.76
631.16	59681.32
631.31	59678.98
631.46	59451.95
631.61	59749.20
631.76	59814.73
631.91	59943.46
632.06	60065.17
632.21	59793.67
632.36	59686.00
632.51	59538.55
632.66	59718.77
632.81	59784.30
632.96	59693.02
633.10	59791.33
633.25	59590.04
633.40	59880.27
633.55	59873.24
633.70	59618.13
633.85	59676.64
634.00	59449.61
634.15	59629.83
634.30	59374.71
634.45	59732.81
634.60	59557.27
634.75	59636.85
634.90	59416.84
635.05	59746.86
635.19	59458.97
635.34	59639.19
635.49	59629.83
635.64	59571.32
635.79	59463.65
635.94	59571.32
636.09	59117.25
636.24	59388.75
636.39	59487.06
636.53	59313.86
636.68	59447.27
636.83	59484.72
636.98	59536.21
637.13	59161.72
637.28	59140.66
637.43	59398.12
637.57	59456.63
637.72	59222.58
637.87	59494.08
638.02	59243.64
638.17	59337.26
638.32	59302.15
638.46	59042.35
638.61	59339.60
638.76	59288.11
638.91	59086.82
639.06	59224.92
639.20	58848.09
639.35	59054.06
639.50	59014.27
639.65	59250.66
639.80	59178.10
639.94	58974.48
640.09	59276.41
640.24	58990.86
640.39	58948.73
640.54	58962.78
640.68	58965.12
640.83	59070.44
640.98	58855.11
641.13	58932.35
641.27	59089.16
641.42	59175.76
641.57	58738.08
641.72	58787.24
641.86	58866.81
642.01	58454.88
642.16	59030.65
642.31	58646.80
642.45	58838.73
642.60	58724.04
642.75	58932.35
642.90	58859.79
643.04	58590.63
643.19	58497.01
643.34	58707.66
643.48	58742.77
643.63	58595.31
643.78	58763.83
643.93	58890.22
644.07	58539.14
644.22	58625.74
644.37	58443.18
644.51	58497.01
644.66	58646.80
644.81	58499.35
644.95	58595.31
645.10	58408.07
645.25	58494.67
645.39	58489.99
645.54	58377.64
645.69	58590.63
645.83	58518.07
645.98	58525.10
646.13	58403.39
646.27	58749.79
646.42	58248.91
646.57	58499.35
646.71	58358.92
646.86	58415.09
647.00	58405.73
647.15	58295.72
647.30	58312.11
647.44	58377.64
647.59	58342.53
647.74	58220.83
647.88	58377.64
648.03	58426.79
648.17	58281.68
648.32	58087.42
648.47	58241.89
648.61	58176.36
648.76	58159.97
648.90	58206.78
649.05	58183.38
649.20	58302.74
649.34	58307.43
649.49	58054.65
649.63	58291.04
649.78	58391.68
649.92	58045.29
650.07	58288.70
650.21	57993.79
650.36	58162.31
650.51	57914.22
650.65	57939.96
650.80	58232.53
650.94	58017.20
651.09	57944.64
651.23	57645.05
651.38	57839.32
651.52	57602.92
651.67	57631.01
651.81	57993.79
651.96	57748.04
652.10	57827.62
652.25	57869.75
652.39	57883.79
652.54	57801.87
652.68	57464.83
652.83	57631.01
652.97	57853.36
653.12	57654.42
653.26	57616.97
653.41	57806.55
653.55	57844.00
653.70	57626.33
653.84	57778.46
653.99	57570.16
654.13	57502.28
654.27	57422.70
654.42	57303.34
654.56	57375.89
654.71	57874.43
654.85	57860.38
655.00	57712.93
655.14	57439.09
655.29	57392.28
655.43	57448.45
655.57	57373.55
655.72	57340.78
655.86	57132.48
656.01	57237.80
656.15	57319.72
656.30	57389.94
656.44	57546.75
656.58	57499.94
656.73	57495.26
656.87	57462.49
657.01	57425.04
657.16	57174.61
657.30	57195.67
657.45	57233.12
657.59	56935.87
657.73	57027.15
657.88	57148.86
658.02	57120.77
658.16	57165.24
658.31	56832.89
658.45	56910.13
658.60	57088.01
658.74	57158.22
658.88	56914.81
659.03	56872.68
659.17	56739.27
659.31	56882.04
659.46	57062.26
659.60	56912.47
659.74	56739.27
659.89	56683.09
660.03	56814.16
660.17	56706.50
660.32	56786.08
660.46	56919.49
660.60	56741.61
660.74	56659.69
660.89	56767.35
661.03	56413.93
661.17	56402.23
661.32	56392.87
661.46	56559.05
661.60	56420.95
661.74	56229.03
661.89	56254.78
662.03	56133.07
662.17	56076.90
662.31	55987.95
662.46	56530.96
662.60	55973.91
662.74	55896.67
662.88	56271.16
663.03	55985.61
663.17	56051.15
663.31	55721.13
663.45	55945.83
663.60	55725.81
663.74	55564.32
663.88	55561.98
664.02	55657.94
664.17	55772.63
664.31	55489.42
664.45	55461.33
664.59	55449.63
664.73	55793.69
664.88	55550.27
665.02	55091.53
665.16	55351.33
665.30	55093.87
665.44	55290.48
665.59	55192.17
665.73	55477.72
665.87	55234.30
666.01	55159.41
666.15	55072.81
666.29	55199.19
666.44	55325.58
666.58	55061.10
666.72	54635.13
666.86	54815.35
667.00	54946.42
667.14	54534.48
667.28	54588.31
667.43	54417.46
667.57	54511.08
667.71	54677.25
667.85	54658.53
667.99	54443.20
668.13	54246.60
668.27	54464.27
668.41	54417.46
668.56	54089.78
668.70	53860.41
668.84	53738.70
668.98	53844.02
669.12	54199.79
669.26	54361.28
669.40	54073.40
669.54	54234.89
669.68	54192.76
669.82	53745.72
669.96	54073.40
670.10	53670.82
670.25	53970.41
670.39	53715.29
670.53	53661.46
670.67	53404.00
670.81	53921.26
670.95	53811.26
671.09	53567.84
671.23	53127.82
671.37	53560.82
671.51	53144.20
671.65	53235.48
671.79	53336.13
671.93	53008.45
672.07	53069.31
672.21	53071.65
672.35	52872.70
672.49	52629.29
672.63	52732.27
672.77	52456.09
672.91	52603.54
673.05	52072.24
673.19	52381.19
673.33	52245.44
673.47	52257.14
673.61	52292.25
673.75	52133.09
673.89	51756.27
674.03	51746.90
674.17	51606.47
674.31	51629.88
674.45	51620.52
674.59	51522.21
674.73	51739.88
674.87	51639.24
675.01	51559.66
675.15	51353.69
675.29	51442.63
675.43	51236.67
675.56	51103.26
675.70	51138.36
675.84	50775.58
675.98	50059.38
676.12	50913.67
676.26	50494.72
676.40	50604.72
676.54	50232.58
676.68	50696.00
676.82	49958.73
676.96	50059.38
677.10	49975.12
677.23	49872.14
677.37	49904.90
677.51	49495.31
677.65	49429.77
677.79	48781.45
677.93	48858.68
678.07	48758.04
678.21	48556.75
678.34	48718.25
678.48	48779.10
678.62	48678.46
678.76	48519.31
678.90	48348.45
679.04	48378.87
679.18	48287.59
679.31	47676.71
679.45	47636.92
679.59	47739.91
679.73	47737.57
679.87	47302.23
680.00	46986.25
680.14	47185.20
680.28	47334.99
680.42	47065.83
680.56	46279.41
680.70	46543.89
680.83	46555.60
680.97	46604.75
681.11	46761.56
681.25	46415.16
681.39	45958.76
681.52	46380.06
681.66	46092.17
681.80	45605.34
681.94	45577.25
682.07	46066.42
682.21	45258.94
682.35	45418.10
682.49	45001.48
682.62	45088.08
682.76	45378.31
682.90	44971.05
683.04	45017.86
683.17	44304.00
683.31	44240.81
683.45	44030.16
683.59	44109.74
683.72	43622.90
683.86	44023.14
684.00	43775.04
684.13	43746.95
684.27	43344.38
684.41	43674.40
684.55	43751.63
684.68	43154.80
684.82	43115.01
684.96	42808.40
685.09	42962.87
685.23	42398.80
685.37	42618.81
685.50	41937.72
685.64	42337.95
685.78	42010.28
685.91	42288.80
686.05	41668.56
686.19	41125.55
686.32	41151.30
686.46	40802.56
686.60	40957.03
686.73	40545.10
686.87	40615.32
687.01	40617.66
687.14	40589.57
687.28	40222.11
687.42	39985.71
687.55	39739.96
687.69	40055.93
687.82	39744.64
687.96	39276.53
688.10	39496.54
688.23	39419.30
688.37	39208.65
688.50	39220.36
688.64	38932.47
688.78	38691.40
688.91	38162.43
689.05	38651.61
689.18	38330.95
689.32	37530.49
689.46	37029.62
689.59	37411.12
689.73	37656.88
689.86	37443.89
690.00	36844.71
690.13	37298.78
690.27	37095.15
690.41	37539.85
690.54	36943.02
690.68	36442.14
690.81	36582.57
690.95	36645.77
691.08	36315.75
691.22	35967.01
691.35	35962.33
691.49	36116.81
691.62	35857.01
691.76	35290.60
691.89	35604.23
692.03	35431.03
692.16	35182.93
692.30	35196.98
692.43	34871.64
692.57	34522.90
692.70	34359.06
692.84	34298.21
692.97	34108.63
693.11	34249.06
693.24	33876.91
693.38	33965.85
693.51	34110.97
693.65	33493.07
693.78	33123.26
693.92	33153.69
694.05	33013.26
694.19	33310.50
694.32	33104.54
694.45	32959.42
694.59	32503.02
694.72	32477.27
694.86	32170.66
694.99	32357.91
695.13	31644.04
695.26	31517.65
695.39	31356.16
695.53	31732.98
695.66	31367.86
695.80	31772.77
695.93	30834.22
696.07	30986.35
696.20	30349.73
696.33	30307.60
696.47	30230.36
696.60	30485.48
696.73	30066.52
696.87	29993.97
697.00	30087.59
697.14	29846.51
697.27	29462.66
697.40	29738.85
697.54	29380.74
697.67	29214.57
697.80	28893.91
697.94	29041.37
698.07	28718.37
698.21	29053.07
698.34	28769.86
698.47	28191.75
698.61	28236.22
698.74	28191.75
698.87	28730.08
699.01	28102.81
699.14	28261.97
699.27	28023.23
699.40	28013.87
699.54	28128.56
699.67	27161.92
699.80	27171.28
699.94	27672.15
700.07	27225.11
700.20	26841.26
700.34	26726.58
700.47	26148.46
700.60	26387.20
700.73	26639.98
700.87	26103.99
701.00	25996.33
701.13	25797.38
701.26	25970.58
701.40	25825.47
701.53	25647.59
701.66	25851.22
701.79	25329.28
701.93	25113.95
702.06	24706.70
702.19	24978.20
702.32	25163.10
702.46	24458.60
702.59	24222.20
702.72	24350.93
702.85	24381.36
702.99	24074.75
703.12	24247.95
703.25	23915.59
703.38	23814.95
703.51	23744.73
703.65	23328.12
703.78	23145.56
703.91	23257.90
704.04	23288.33
704.17	22955.97
704.31	22874.06
704.44	22855.33
704.57	22565.10
704.70	22176.58
704.83	22455.10
704.96	22352.12
705.10	22279.56
705.23	22291.26
>>>>>End Processed Spectral Data<<<<<
