SpectraSuite Data File
++++++++++++++++++++++++++++++++++++
Date: Fri Oct 25 10:44:39 EDT 2013
User: price-jones
Dark Spectrum Present: No
Reference Spectrum Present: No
Number of Sampled Component Spectra: 1
Spectrometers: USB2+H05261
Integration Time (usec): 100000 (USB2+H05261)
Spectra Averaged: 1 (USB2+H05261)
Boxcar Smoothing: 0 (USB2+H05261)
Correct for Electrical Dark: No (USB2+H05261)
Strobe/Lamp Enabled: No (USB2+H05261)
Correct for Detector Non-linearity: No (USB2+H05261)
Correct for Stray Light: No (USB2+H05261)
Number of Pixels in Processed Spectrum: 2048
>>>>>Begin Processed Spectral Data<<<<<
365.73	72.56
365.92	72.56
366.12	72.56
366.32	0.00
366.52	0.00
366.72	63.19
366.91	46.81
367.11	18.72
367.31	72.56
367.51	42.13
367.70	30.43
367.90	49.15
368.10	14.04
368.30	37.45
368.49	23.41
368.69	37.45
368.89	16.38
369.09	95.96
369.28	18.72
369.48	23.41
369.68	0.00
369.87	117.03
370.07	86.60
370.27	112.35
370.47	149.79
370.66	416.62
370.86	463.43
371.06	512.58
371.25	517.26
371.45	423.64
371.65	437.68
371.84	449.38
372.04	510.24
372.24	484.49
372.44	498.53
372.63	449.38
372.83	454.06
373.03	444.70
373.22	437.68
373.42	475.13
373.62	498.53
373.81	552.37
374.01	550.03
374.21	521.94
374.40	493.85
374.60	547.69
374.79	540.66
374.99	482.15
375.19	573.43
375.38	592.16
375.58	606.20
375.78	582.79
375.97	533.64
376.17	655.35
376.37	557.05
376.56	528.96
376.76	512.58
376.95	564.07
377.15	585.13
377.35	535.98
377.54	608.54
377.74	592.16
377.93	552.37
378.13	634.29
378.33	667.05
378.52	589.82
378.72	512.58
378.91	573.43
379.11	620.24
379.31	585.13
379.50	601.52
379.70	599.18
379.89	638.97
380.09	580.45
380.28	615.56
380.48	638.97
380.68	617.90
380.87	678.76
381.07	645.99
381.26	669.39
381.46	706.84
381.65	620.24
381.85	629.60
382.04	643.65
382.24	664.71
382.43	624.92
382.63	657.69
382.83	676.41
383.02	645.99
383.22	716.20
383.41	692.80
383.61	664.71
383.80	727.91
384.00	683.44
384.19	716.20
384.39	737.27
384.58	805.14
384.78	702.16
384.97	720.88
385.17	793.44
385.36	727.91
385.56	718.54
385.75	779.40
385.95	737.27
386.14	720.88
386.34	767.70
386.53	727.91
386.72	727.91
386.92	786.42
387.11	791.10
387.31	833.23
387.50	732.59
387.70	765.36
387.89	863.66
388.09	800.46
388.28	823.87
388.48	760.67
388.67	926.85
388.86	830.89
389.06	821.53
389.25	887.06
389.45	891.74
389.64	880.04
389.84	866.00
390.03	833.23
390.22	877.70
390.42	905.79
390.61	931.53
390.81	966.64
391.00	952.60
391.19	905.79
391.39	912.81
391.58	976.00
391.78	922.17
391.97	1004.09
392.16	947.92
392.36	894.08
392.55	903.45
392.75	994.73
392.94	922.17
393.13	924.51
393.33	1008.77
393.52	973.66
393.71	1006.43
393.91	992.39
394.10	1069.62
394.29	1001.75
394.49	994.73
394.68	1097.71
394.88	1064.94
395.07	1153.88
395.26	1135.16
395.46	997.07
395.65	1074.31
395.84	1186.65
396.04	1139.84
396.23	1078.99
396.42	1093.03
396.62	1029.84
396.81	1060.26
397.00	1177.29
397.19	1226.44
397.39	1217.08
397.58	1188.99
397.77	1289.64
397.97	1252.19
398.16	1249.85
398.35	1317.72
398.55	1352.83
398.74	1348.15
398.93	1336.45
399.12	1301.34
399.32	1357.51
399.51	1301.34
399.70	1409.00
399.90	1350.49
400.09	1301.34
400.28	1348.15
400.47	1380.92
400.67	1357.51
400.86	1387.94
401.05	1387.94
401.24	1465.18
401.44	1568.16
401.63	1565.82
401.82	1561.14
402.01	1612.63
402.21	1469.86
402.40	1593.90
402.59	1476.88
402.78	1523.69
402.97	1572.84
403.17	1612.63
403.36	1568.16
403.55	1586.88
403.74	1666.46
403.93	1685.19
404.13	1727.32
404.32	1701.57
404.51	1603.27
404.70	1633.69
404.89	1657.10
405.09	1734.34
405.28	1762.42
405.47	1706.25
405.66	1750.72
405.85	1706.25
406.05	1682.85
406.24	1776.47
406.43	1694.55
406.62	1856.04
406.81	1825.62
407.00	1774.13
407.20	1757.74
407.39	1827.96
407.58	1846.68
407.77	1895.83
407.96	1842.00
408.15	1954.35
408.34	1977.75
408.54	2005.84
408.73	2024.56
408.92	2047.97
409.11	1984.77
409.30	2083.08
409.49	1928.60
409.68	1984.77
409.87	2113.50
410.07	2052.65
410.26	2111.16
410.45	2141.59
410.64	2106.48
410.83	2043.29
411.02	2204.78
411.21	2218.83
411.40	2246.91
411.59	2300.75
411.78	2263.30
411.98	2291.38
412.17	2286.70
412.36	2382.67
412.55	2445.86
412.74	2431.82
412.93	2420.11
413.12	2284.36
413.31	2443.52
413.50	2431.82
413.69	2483.31
413.88	2487.99
414.07	2633.10
414.26	2546.50
414.45	2597.99
414.64	2644.81
414.83	2619.06
415.02	2665.87
415.22	2708.00
415.41	2649.49
415.60	2764.17
415.79	2839.07
415.98	2810.98
416.17	2761.83
416.36	2792.26
416.55	2803.96
416.74	2942.05
416.93	2822.69
417.12	2888.22
417.31	2937.37
417.50	2881.20
417.69	2995.89
417.88	3056.74
418.07	2944.39
418.26	3098.87
418.45	3002.91
418.64	3251.00
418.83	3194.83
419.02	3063.76
419.21	3243.98
419.39	3279.09
419.58	3171.43
419.77	3164.40
419.96	3297.81
420.15	3265.05
420.34	3197.17
420.53	3349.31
420.72	3279.09
420.91	3307.18
421.10	3251.00
421.29	3382.07
421.48	3361.01
421.67	3424.20
421.86	3414.84
422.05	3410.16
422.24	3393.78
422.43	3372.71
422.61	3403.14
422.80	3471.01
422.99	3524.85
423.18	3548.25
423.37	3545.91
423.56	3555.27
423.75	3569.32
423.94	3616.13
424.13	3262.71
424.32	3379.73
424.50	3566.98
424.69	3557.61
424.88	3576.34
425.07	3559.95
425.26	3578.68
425.45	3463.99
425.64	3510.80
425.83	3522.51
426.01	3534.21
426.20	3524.85
426.39	3627.83
426.58	3602.08
426.77	3454.63
426.96	3557.61
427.15	3459.31
427.33	3660.60
427.52	3669.96
427.71	3616.13
427.90	3751.88
428.09	3723.79
428.28	3583.36
428.46	3681.66
428.65	3719.11
428.84	3733.15
429.03	3794.01
429.22	3679.32
429.40	3852.52
429.59	3719.11
429.78	3665.28
429.97	3705.07
430.16	3716.77
430.34	3871.25
430.53	3833.80
430.72	3925.08
430.91	3768.26
431.10	3812.73
431.28	3990.61
431.47	4109.98
431.66	4145.09
431.85	4018.70
432.03	4032.74
432.22	4079.55
432.41	4007.00
432.60	4166.15
432.79	4201.26
432.97	4262.12
433.16	4269.14
433.35	3995.29
433.54	4173.18
433.72	4205.94
433.91	4203.60
434.10	4266.80
434.28	4304.25
434.47	4337.01
434.66	4458.72
434.85	4423.61
435.03	4404.89
435.22	4334.67
435.41	4528.94
435.59	4344.03
435.78	4531.28
435.97	4582.77
436.16	4561.70
436.34	4610.86
436.53	4610.86
436.72	4725.54
436.90	4554.68
437.09	4652.98
437.28	4514.89
437.46	4648.30
437.65	4557.02
437.84	4786.40
438.02	4784.06
438.21	4720.86
438.40	4627.24
438.58	4819.16
438.77	4896.40
438.96	4800.44
439.14	4959.60
439.33	5025.13
439.52	5137.48
439.70	5111.73
439.89	5191.31
440.08	5142.16
440.26	5149.18
440.45	5118.75
440.63	5294.29
440.82	5277.91
441.01	5376.21
441.19	5387.91
441.38	5434.72
441.57	5308.34
441.75	5533.03
441.94	5643.03
442.12	5434.72
442.31	5699.20
442.50	5579.84
442.68	5633.67
442.87	5607.92
443.05	5682.82
443.24	5727.29
443.43	5820.91
443.61	5668.78
443.80	5825.59
443.98	5827.93
444.17	5392.59
444.35	5872.40
444.54	5975.39
444.73	5921.56
444.91	5767.08
445.10	5968.37
445.28	5792.83
445.47	5743.67
445.65	5841.98
445.84	5820.91
446.02	5865.38
446.21	5806.87
446.39	5830.27
446.58	5872.40
446.77	5951.98
446.95	5858.36
447.14	5748.36
447.32	5980.07
447.51	5942.62
447.69	5893.47
447.88	5785.80
448.06	5926.24
448.25	5989.43
448.43	6005.81
448.62	5886.45
448.80	5954.32
448.99	6167.31
449.17	5996.45
449.36	6167.31
449.54	6111.14
449.73	6202.42
449.91	6061.99
450.10	6452.86
450.28	6354.55
450.46	6396.68
450.65	6424.77
450.83	6452.86
451.02	6349.87
451.20	6368.60
451.39	6211.78
451.57	6188.38
451.76	6356.90
451.94	6342.85
452.13	6438.81
452.31	6413.07
452.49	6338.17
452.68	6403.71
452.86	6298.38
453.05	6626.06
453.23	6497.33
453.42	6420.09
453.60	6518.39
453.78	6633.08
453.97	6420.09
454.15	6602.65
454.34	6651.80
454.52	6633.08
454.70	6707.98
454.89	6733.72
455.07	6782.87
455.26	6860.11
455.44	7061.40
455.62	6871.81
455.81	6855.43
455.99	6937.35
456.17	6909.26
456.36	6953.73
456.54	7000.54
456.73	7105.87
456.91	7225.23
457.09	7250.98
457.28	7206.51
457.46	7206.51
457.64	7272.04
457.83	7328.22
458.01	7042.67
458.19	7372.69
458.38	7400.77
458.56	7454.61
458.74	7405.46
458.93	7382.05
459.11	7506.10
459.29	7332.90
459.48	7417.16
459.66	7276.73
459.84	7597.38
460.03	7609.08
460.21	7461.63
460.39	7695.68
460.57	7644.19
460.76	7779.94
460.94	7726.11
461.12	7833.77
461.31	7665.25
461.49	7700.36
461.67	7733.13
461.85	7941.44
462.04	7911.01
462.22	7976.55
462.40	8037.40
462.59	7971.86
462.77	7770.58
462.95	8039.74
463.13	8135.70
463.32	8095.91
463.50	7941.44
463.68	8016.33
463.86	7971.86
464.05	7988.25
464.23	8079.53
464.41	8051.44
464.59	7995.27
464.78	8166.13
464.96	8273.79
465.14	8037.40
465.32	8372.10
465.50	8299.54
465.69	8320.60
465.87	8374.44
466.05	8311.24
466.23	8301.88
466.41	8243.37
466.60	8521.89
466.78	8280.82
466.96	8336.99
467.14	8210.60
467.32	8503.17
467.51	8442.31
467.69	8318.26
467.87	8540.61
468.05	8573.38
468.23	8585.08
468.41	8484.44
468.60	8725.52
468.78	8774.67
468.96	8435.29
469.14	8716.16
469.32	8758.28
469.50	8521.89
469.69	8882.33
469.87	8912.76
470.05	8999.36
470.23	8720.84
470.41	9076.60
470.59	8931.48
470.77	8786.37
470.95	9034.47
471.14	8940.85
471.32	8947.87
471.50	9221.71
471.68	9172.56
471.86	9210.01
472.04	9415.98
472.22	9481.51
472.40	9231.07
472.58	9415.98
472.77	9392.57
472.95	9724.93
473.13	9781.10
473.31	9776.42
473.49	9273.20
473.67	9558.75
473.85	9745.99
474.03	9839.61
474.21	9823.23
474.39	10113.45
474.57	9687.48
474.75	9795.14
474.93	10015.15
475.12	9832.59
475.30	10052.60
475.48	10106.43
475.66	10300.70
475.84	10204.74
476.02	10202.40
476.20	10445.81
476.38	10260.91
476.56	10731.36
476.74	10562.84
476.92	10649.44
477.10	10640.08
477.28	10909.24
477.46	10930.30
477.64	10764.12
477.82	11173.72
478.00	11342.24
478.18	11370.32
478.36	11557.57
478.54	11323.51
478.72	11337.56
478.90	11644.17
479.08	11578.63
479.26	11777.58
479.44	12081.85
479.62	11798.64
479.80	12138.02
479.98	12107.59
480.16	12168.45
480.34	12194.19
480.52	12573.36
480.70	12400.16
480.88	12053.76
481.06	12596.76
481.24	12414.20
481.41	12760.60
481.59	13078.91
481.77	12971.25
481.95	12865.92
482.13	13064.87
482.31	13132.75
482.49	13345.73
482.67	13451.06
482.85	13699.16
483.03	13593.83
483.21	13764.69
483.39	13860.65
483.57	13891.08
483.74	13991.72
483.92	14263.22
484.10	14211.73
484.28	14567.49
484.46	14801.55
484.64	14843.68
484.82	14560.47
485.00	14773.46
485.18	15040.28
485.35	15115.18
485.53	14991.13
485.71	14764.10
485.89	15396.04
486.07	15410.09
486.25	15176.03
486.43	15602.01
486.61	15695.63
486.78	15527.11
486.96	16123.95
487.14	16299.49
487.32	15941.39
487.50	16407.16
487.68	16556.95
487.85	16472.69
488.03	16762.92
488.21	17029.74
488.39	16919.73
488.57	17114.00
488.75	17020.38
488.92	17642.96
489.10	17715.51
489.28	17579.76
489.46	17982.34
489.64	17907.44
489.81	18153.20
489.99	18274.90
490.17	18281.92
490.35	18562.79
490.53	18597.90
490.70	18654.07
490.88	18618.96
491.06	18686.84
491.24	18972.38
491.41	18717.26
491.59	19143.24
491.77	18946.64
491.95	19227.50
492.13	19536.45
492.30	19604.33
492.48	19714.33
492.66	19482.62
492.84	19850.08
493.01	19817.32
493.19	19990.52
493.37	20659.91
493.54	20409.47
493.72	20514.80
493.90	20673.95
494.08	20924.39
494.25	21029.71
494.43	20992.26
494.61	21130.36
494.79	21495.48
494.96	21331.64
495.14	21282.49
495.32	21549.31
495.49	21668.68
495.67	22134.45
495.85	21923.80
496.02	22288.92
496.20	22162.53
496.38	22506.59
496.55	22450.42
496.73	22609.58
496.91	22466.80
497.09	22998.10
497.26	22752.35
497.44	22939.59
497.62	23028.53
497.79	23365.57
497.97	23241.52
498.14	23297.69
498.32	23515.36
498.50	23396.00
498.67	23859.42
498.85	23618.35
499.03	24163.69
499.20	23955.38
499.38	24269.01
499.56	24102.84
499.73	24587.33
499.91	24383.70
500.08	24191.78
500.26	24271.36
500.44	24589.67
500.61	24716.06
500.79	24507.75
500.97	24870.53
501.14	25139.69
501.32	24875.21
501.49	24783.93
501.67	24847.13
501.84	25422.90
502.02	25249.70
502.20	25511.84
502.37	25781.00
502.55	25612.48
502.72	25586.74
502.90	25844.20
503.07	25628.87
503.25	26089.95
503.43	25579.71
503.60	25970.58
503.78	25834.83
503.95	25902.71
504.13	26024.42
504.30	26396.56
504.48	26197.62
504.65	26703.17
504.83	26780.41
505.01	26616.57
505.18	27026.17
505.36	27316.39
505.53	27037.87
505.71	27449.80
505.88	27597.26
506.06	26991.06
506.23	27227.45
506.41	26948.93
506.58	27372.57
506.76	27508.32
506.93	27513.00
507.11	27807.90
507.28	27784.50
507.46	27377.25
507.63	28175.37
507.81	27852.38
507.98	27861.74
508.16	28137.92
508.33	28388.36
508.50	28126.22
508.68	28231.54
508.85	28776.89
509.03	28446.87
509.20	28769.86
509.38	28872.85
509.55	28912.64
509.73	29167.76
509.90	29263.72
510.08	29123.29
510.25	28922.00
510.42	29420.53
510.60	28919.66
510.77	29390.11
510.95	29277.76
511.12	29446.28
511.30	29598.41
511.47	30029.07
511.64	29883.96
511.82	29722.46
511.99	29411.17
512.17	29998.65
512.34	29500.11
512.51	30085.25
512.69	30831.88
512.86	30143.76
513.04	30529.95
513.21	30429.30
513.38	30661.02
513.56	30574.42
513.73	30295.89
513.90	31136.15
514.08	30593.14
514.25	31002.74
514.43	30913.80
514.60	30962.95
514.77	30782.73
514.95	30916.14
515.12	31026.14
515.29	30675.06
515.47	30855.28
515.64	31573.83
515.81	31185.30
515.99	31108.06
516.16	31608.93
516.33	31419.35
516.51	31487.23
516.68	31468.50
516.85	31234.45
517.03	31634.68
517.20	31744.69
517.37	31990.44
517.54	31913.20
517.72	32217.47
517.89	31943.63
518.06	32002.14
518.24	32517.06
518.41	31824.26
518.58	31838.31
518.75	32086.40
518.93	32802.61
519.10	32456.21
519.27	32371.95
519.45	32629.41
519.62	32814.31
519.79	32488.98
519.96	33113.90
520.14	32783.88
520.31	32891.55
520.48	33153.69
520.65	32898.57
520.83	33310.50
521.00	33666.27
521.17	33289.44
521.34	33399.44
521.52	33778.61
521.69	33502.43
521.86	33846.49
522.03	33935.43
522.20	33708.40
522.38	34101.61
522.55	34258.42
522.72	34082.88
522.89	33879.25
523.07	34082.88
523.24	34155.44
523.41	34206.93
523.58	34408.22
523.75	34754.61
523.92	34958.24
524.10	34815.47
524.27	34665.67
524.44	34721.85
524.61	34822.49
524.78	35377.20
524.96	34923.13
525.13	35042.50
525.30	35014.41
525.47	35414.65
525.64	35489.54
525.81	35108.04
525.98	35253.15
526.16	35241.45
526.33	35295.28
526.50	35519.97
526.67	35168.89
526.84	35388.90
527.01	35178.25
527.18	35402.94
527.36	35725.94
527.53	35756.36
527.70	35695.51
527.87	35732.96
528.04	35838.28
528.21	35957.65
528.38	36004.46
528.55	35910.84
528.72	36341.50
528.89	36629.38
529.07	36306.39
529.24	35948.29
529.41	36332.14
529.58	36362.56
529.75	36180.00
529.92	36503.00
530.09	36765.14
530.26	36631.72
530.43	37024.93
530.60	36320.43
530.77	36659.81
530.94	36914.93
531.11	37368.99
531.28	37024.93
531.46	36732.37
531.63	37181.75
531.80	37191.11
531.97	37277.71
532.14	36893.86
532.31	37401.76
532.48	37127.92
532.65	37305.80
532.82	37163.03
532.99	37109.19
533.16	37102.17
533.33	37202.82
533.50	37289.42
533.67	37563.26
533.84	37605.39
534.01	37462.61
534.18	37544.53
534.35	37944.76
534.52	37890.93
534.69	38155.41
534.86	38010.30
535.03	38045.41
535.20	37846.46
535.37	38527.56
535.54	38225.63
535.71	38302.87
535.88	38693.74
536.05	37930.72
536.22	38120.31
536.38	38234.99
536.55	38300.53
536.72	38078.18
536.89	38209.25
537.06	38522.88
537.23	38469.04
537.40	38888.00
537.57	38417.55
537.74	38419.89
537.91	38642.24
538.08	39040.14
538.25	38574.37
538.42	38871.62
538.59	38899.70
538.75	38242.01
538.92	38562.67
539.09	38892.68
539.26	39222.70
539.43	39070.56
539.60	38450.32
539.77	39028.43
539.94	39344.41
540.11	39192.27
540.28	39171.21
540.44	39342.06
540.61	39398.24
540.78	39082.27
540.95	39438.03
541.12	38941.83
541.29	39571.44
541.46	39505.90
541.62	39924.86
541.79	39887.41
541.96	39241.42
542.13	39313.98
542.30	39606.55
542.47	40098.06
542.63	39615.91
542.80	39725.91
542.97	39861.66
543.14	40231.47
543.31	39880.39
543.48	40172.96
543.64	40840.01
543.81	40184.66
543.98	40334.45
544.15	40481.91
544.32	40601.27
544.48	40634.04
544.65	40179.98
544.82	40591.91
544.99	40343.81
545.16	40875.12
545.32	40128.48
545.49	40706.60
545.66	40535.74
545.83	41123.21
546.00	40840.01
546.16	40912.56
546.33	40488.93
546.50	40261.90
546.67	40924.27
546.83	40240.83
547.00	40844.69
547.17	40980.44
547.34	40825.96
547.50	40847.03
547.67	41291.73
547.84	41242.58
548.00	41127.89
548.17	41294.07
548.34	41322.16
548.51	41392.37
548.67	41687.28
548.84	41373.65
549.01	41347.90
549.18	41539.83
549.34	41645.15
549.51	41397.06
549.68	41750.48
549.84	41677.92
550.01	41591.32
550.18	41659.20
550.34	41745.80
550.51	41869.84
550.68	41834.74
550.84	41020.23
551.01	41841.76
551.18	41635.79
551.34	41741.11
551.51	42279.44
551.68	42190.50
551.84	41773.88
552.01	41694.30
552.18	41848.78
552.34	41846.44
552.51	41783.24
552.68	41471.95
552.84	42337.95
553.01	42012.62
553.18	41914.31
553.34	42082.83
553.51	42096.88
553.67	42005.59
553.84	43079.90
554.01	42651.58
554.17	42632.86
554.34	42476.04
554.51	42295.82
554.67	42581.37
554.84	42492.43
555.00	42312.20
555.17	42085.17
555.33	42586.05
555.50	42330.93
555.67	42433.91
555.83	42611.79
556.00	42902.02
556.16	43091.60
556.33	42497.11
556.50	42595.41
556.66	42595.41
556.83	42438.59
556.99	43241.40
557.16	43126.71
557.32	43061.18
557.49	43152.46
557.65	42422.21
557.82	42490.09
557.98	42754.57
558.15	42820.10
558.32	42827.12
558.48	42838.83
558.65	42799.04
558.81	43260.12
558.98	42934.79
559.14	42600.09
559.31	42829.46
559.47	43037.77
559.64	43482.47
559.80	43536.30
559.97	43105.65
560.13	42944.15
560.30	42682.01
560.46	42923.08
560.63	43250.76
560.79	43299.91
560.96	43374.81
561.12	42932.45
561.29	43793.76
561.45	43470.77
561.61	42960.53
561.78	43416.94
561.94	42813.08
562.11	43222.67
562.27	43246.08
562.44	43157.14
562.60	43641.63
562.77	43346.72
562.93	43196.93
563.10	43395.87
563.26	43295.23
563.42	43676.74
563.59	43524.60
563.75	43267.14
563.92	43517.58
564.08	43517.58
564.24	43791.42
564.41	43484.81
564.57	43517.58
564.74	43725.89
564.90	43061.18
565.07	43618.22
565.23	43658.01
565.39	43892.07
565.56	43690.78
565.72	43159.48
565.88	43756.32
566.05	43311.61
566.21	43721.21
566.38	43995.05
566.54	43646.31
566.70	44179.95
566.87	43824.19
567.03	43831.21
567.19	44189.31
567.36	43847.60
567.52	43803.13
567.68	44329.75
567.85	43454.39
568.01	43938.88
568.17	43557.37
568.34	43683.76
568.50	43236.72
568.66	43700.14
568.83	43931.86
568.99	43714.19
569.15	43714.19
569.32	43648.65
569.48	43353.74
569.64	44311.02
569.81	44383.58
569.97	43686.10
570.13	43981.01
570.30	43351.40
570.46	43971.64
570.62	43971.64
570.78	43962.28
570.95	43611.20
571.11	43997.39
571.27	44034.84
571.43	43903.77
571.60	43548.01
571.76	43800.79
571.92	43796.10
572.09	43927.17
572.25	44163.57
572.41	43812.49
572.57	44257.19
572.74	44493.58
572.90	44144.84
573.06	44205.70
573.22	43658.01
573.38	43952.92
573.55	44182.29
573.71	44306.34
573.87	44186.97
574.03	43765.68
574.20	44004.41
574.36	44275.91
574.52	44046.54
574.68	44362.51
574.84	44053.56
575.01	44332.09
575.17	43899.09
575.33	44074.63
575.49	44009.09
575.65	43976.33
575.82	44512.31
575.98	44208.04
576.14	44229.10
576.30	44147.18
576.46	44067.61
576.62	43779.72
576.79	43821.85
576.95	43861.64
577.11	44233.78
577.27	44388.26
577.43	44081.65
577.59	43901.43
577.75	43622.90
577.92	43725.89
578.08	44135.48
578.24	43959.94
578.40	43796.10
578.56	44294.64
578.72	43756.32
578.88	44425.71
579.04	44247.83
579.21	43995.05
579.37	44390.60
579.53	44402.30
579.69	44058.24
579.85	44177.61
580.01	44779.13
580.17	44179.95
580.33	44425.71
580.49	44399.96
580.65	44435.07
580.82	44294.64
580.98	44067.61
581.14	44032.50
581.30	44254.85
581.46	44425.71
581.62	44502.95
581.78	44055.90
581.94	44669.12
582.10	44479.54
582.26	44278.25
582.42	43835.89
582.58	44528.69
582.74	44156.55
582.90	44526.35
583.06	44339.11
583.22	44643.38
583.38	44369.54
583.54	44474.86
583.70	44231.44
583.86	44465.50
584.02	43906.11
584.18	44495.92
584.34	44542.74
584.50	44016.11
584.66	44304.00
584.82	43845.26
584.98	44975.73
585.14	44201.02
585.30	44098.03
585.46	44498.26
585.62	44285.28
585.78	44257.19
585.94	44266.55
586.10	44694.87
586.26	43927.17
586.42	44229.10
586.58	44605.93
586.74	44414.01
586.90	44315.70
587.06	44350.81
587.22	44299.32
587.38	44254.85
587.54	44311.02
587.70	44453.79
587.86	44449.11
588.02	44428.05
588.18	44067.61
588.34	44409.32
588.49	43959.94
588.65	43842.92
588.81	44189.31
588.97	44189.31
589.13	44343.79
589.29	44374.22
589.45	44172.93
589.61	44449.11
589.77	44456.14
589.93	44715.93
590.08	45160.64
590.24	44669.12
590.40	44505.29
590.56	44713.59
590.72	44669.12
590.88	44519.33
591.04	44540.39
591.20	44882.11
591.35	44868.07
591.51	44875.09
591.67	45020.20
591.83	44830.62
591.99	44760.40
592.15	44491.24
592.31	44643.38
592.46	44751.04
592.62	44713.59
592.78	44540.39
592.94	45268.30
593.10	44584.86
593.26	44559.12
593.41	44540.39
593.57	44449.11
593.73	44325.07
593.89	44870.41
594.05	44491.24
594.20	44573.16
594.36	45008.50
594.52	44725.30
594.68	44804.88
594.84	44439.75
594.99	44825.94
595.15	44755.72
595.31	44603.59
595.47	44877.43
595.62	44378.90
595.78	44610.61
595.94	45045.95
596.10	45160.64
596.25	44999.14
596.41	44456.14
596.57	44493.58
596.73	44896.16
596.88	44648.06
597.04	44858.71
597.20	45074.04
597.36	44643.38
597.51	44971.05
597.67	44919.56
597.83	44664.44
597.99	45113.83
598.14	44832.96
598.30	45254.26
598.46	44531.03
598.61	44795.51
598.77	44629.34
598.93	44882.11
599.09	44694.87
599.24	44865.73
599.40	45237.87
599.56	44828.28
599.71	44837.64
599.87	45193.40
600.03	44760.40
600.18	44589.55
600.34	44912.54
600.50	44882.11
600.65	44577.84
600.81	44638.70
600.97	45111.49
601.12	45205.11
601.28	44428.05
601.44	44807.22
601.59	44774.45
601.75	44245.49
601.91	44746.36
602.06	44631.68
602.22	44945.31
602.37	44865.73
602.53	44769.77
602.69	44996.80
602.84	44652.74
603.00	44825.94
603.16	44577.84
603.31	44877.43
603.47	44615.29
603.62	44505.29
603.78	44975.73
603.94	44921.90
604.09	45008.50
604.25	45448.52
604.40	44514.65
604.56	44781.47
604.71	44762.75
604.87	44666.78
605.03	44907.86
605.18	44519.33
605.34	44751.04
605.49	44348.47
605.65	44690.19
605.80	44825.94
605.96	44402.30
606.12	44767.43
606.27	45132.55
606.43	44296.98
606.58	44900.84
606.74	44205.70
606.89	44741.68
607.05	44868.07
607.20	44737.00
607.36	44444.43
607.51	44456.14
607.67	44713.59
607.82	44758.06
607.98	44622.31
608.13	44568.48
608.29	44903.18
608.44	43922.49
608.60	44229.10
608.75	43849.94
608.91	44360.17
609.06	44182.29
609.22	44685.51
609.37	44430.39
609.53	44495.92
609.68	44074.63
609.84	44608.27
609.99	44444.43
610.15	43948.24
610.30	43938.88
610.46	43810.15
610.61	44069.95
610.76	44296.98
610.92	44130.80
611.07	44261.87
611.23	44062.93
611.38	43976.33
611.54	44215.06
611.69	44023.14
611.84	44463.16
612.00	43772.70
612.15	43833.55
612.31	44184.63
612.46	43587.80
612.62	43643.97
612.77	43517.58
612.92	44329.75
613.08	43625.25
613.23	44002.07
613.39	44041.86
613.54	43201.61
613.69	43978.67
613.85	43866.32
614.00	43625.25
614.15	44236.12
614.31	43838.23
614.46	43901.43
614.62	43955.26
614.77	43311.61
614.92	43377.15
615.08	43627.59
615.23	43482.47
615.38	43548.01
615.54	42962.87
615.69	43674.40
615.84	43498.86
616.00	43840.57
616.15	43819.51
616.30	43498.86
616.46	42871.59
616.61	43178.20
616.76	43133.73
616.92	42618.81
617.07	43103.31
617.22	42801.38
617.37	43491.83
617.53	43131.39
617.68	43236.72
617.83	43732.91
617.99	43213.31
618.14	43192.25
618.29	43512.90
618.45	43136.07
618.60	42761.59
618.75	43210.97
618.90	43306.93
619.06	43063.52
619.21	43159.48
619.36	43229.69
619.51	43103.31
619.67	42979.26
619.82	42972.24
619.97	42986.28
620.12	43150.12
620.28	42719.46
620.43	42405.83
620.58	42850.53
620.73	42707.76
620.89	42859.89
621.04	42834.14
621.19	42981.60
621.34	42813.08
621.49	42579.03
621.65	42117.94
621.80	42740.52
621.95	42359.02
622.10	42415.19
622.25	42583.71
622.41	42272.42
622.56	42335.61
622.71	42747.54
622.86	42728.82
623.01	42555.62
623.16	42452.64
623.32	42344.97
623.47	42646.90
623.62	42384.76
623.77	42337.95
623.92	42562.64
624.07	42314.55
624.23	42162.41
624.38	42195.18
624.53	42122.62
624.68	41872.18
624.83	42234.97
624.98	42415.19
625.13	41647.49
625.29	42043.04
625.44	41897.93
625.59	41766.86
625.74	41968.15
625.89	41619.41
626.04	41659.20
626.19	41933.04
626.34	41982.19
626.49	42251.35
626.65	42045.38
626.80	42029.00
626.95	41633.45
627.10	41918.99
627.25	41668.56
627.40	41764.52
627.55	41064.70
627.70	40840.01
627.85	41600.68
628.00	41401.74
628.15	41509.40
628.30	41439.18
628.45	41785.58
628.60	41242.58
628.76	41329.18
628.91	41860.48
629.06	41404.08
629.21	41219.17
629.36	41247.26
629.51	41329.18
629.66	41095.13
629.81	41102.15
629.96	41060.02
630.11	40994.48
630.26	41392.37
630.41	40886.82
630.56	41305.77
630.71	40945.33
630.86	40933.63
631.01	41017.89
631.16	40783.83
631.31	40706.60
631.46	40818.94
631.61	40870.43
631.76	41153.64
631.91	40861.07
632.06	41045.97
632.21	40664.47
632.36	41062.36
632.51	40907.88
632.66	40676.17
632.81	40685.53
632.96	40631.70
633.10	40456.16
633.25	40620.00
633.40	40435.10
633.55	40570.85
633.70	40435.10
633.85	40402.33
634.00	40378.92
634.15	40795.54
634.30	40825.96
634.45	40521.69
634.60	40659.79
634.75	40217.43
634.90	40514.67
635.05	40107.42
635.19	40271.26
635.34	40629.36
635.49	39950.60
635.64	40245.51
635.79	40114.44
635.94	40336.79
636.09	40350.84
636.24	40105.08
636.39	39896.77
636.53	40074.65
636.68	40182.32
636.83	39669.74
636.98	40329.77
637.13	39639.31
637.28	39658.04
637.43	40259.55
637.57	40292.32
637.72	39913.16
637.87	39697.83
638.02	39950.60
638.17	39974.01
638.32	39835.92
638.46	39686.12
638.61	39274.19
638.76	39672.08
638.91	39658.04
639.06	39915.50
639.20	39913.16
639.35	39758.68
639.50	39765.70
639.65	39737.62
639.80	39871.03
639.94	39220.36
640.09	39016.73
640.24	39592.50
640.39	39002.69
640.54	39456.75
640.68	39480.16
640.83	39398.24
640.98	38799.06
641.13	39056.52
641.27	39463.77
641.42	39159.50
641.57	39112.69
641.72	39138.44
641.86	38932.47
642.01	39007.37
642.16	38424.57
642.31	38689.06
642.45	39108.01
642.60	38766.29
642.75	38822.47
642.90	39316.32
643.04	38834.17
643.19	38719.48
643.34	38998.01
643.48	38768.63
643.63	38405.85
643.78	38480.75
643.93	38752.25
644.07	38707.78
644.22	38373.08
644.37	38302.87
644.51	38824.81
644.66	39023.75
644.81	38679.69
644.95	39105.67
645.10	38253.72
645.25	38733.53
645.39	38967.58
645.54	38960.56
645.69	38934.81
645.83	38712.46
645.98	38206.90
646.13	38359.04
646.27	38469.04
646.42	38401.17
646.57	38941.83
646.71	38464.36
646.86	38534.58
647.00	38677.35
647.15	38768.63
647.30	38286.48
647.44	37963.49
647.59	38050.09
647.74	37848.80
647.88	38256.06
648.03	38307.55
648.17	38080.52
648.32	38047.75
648.47	38050.09
648.61	37626.45
648.76	38106.26
648.90	37743.48
649.05	38204.56
649.20	38295.85
649.34	38134.35
649.49	37607.73
649.63	37652.20
649.78	37879.23
649.92	37900.29
650.07	38227.97
650.21	37523.47
650.36	37811.35
650.51	37598.37
650.65	38127.33
650.80	38232.65
650.94	38218.61
651.09	37801.99
651.23	37366.65
651.38	37862.85
651.52	37242.60
651.67	37909.66
651.81	37345.59
651.96	37373.67
652.10	37050.68
652.25	37069.40
652.39	37518.79
652.54	37729.44
652.68	37212.18
652.83	37893.27
652.97	37338.57
653.12	37551.56
653.26	37591.34
653.41	37315.16
653.55	37090.47
653.70	37057.70
653.84	37010.89
653.99	37273.03
654.13	37493.04
654.27	37038.98
654.42	37095.15
654.56	36821.31
654.71	37177.07
654.85	37380.70
655.00	37200.47
655.14	37144.30
655.29	36418.74
655.43	36879.82
655.57	36203.41
655.72	36306.39
655.86	36690.24
656.01	36456.18
656.15	36400.01
656.30	36605.98
656.44	36449.16
656.58	36568.53
656.73	36718.32
656.87	36411.71
657.01	36533.42
657.16	36903.23
657.30	36517.04
657.45	36243.20
657.59	36510.02
657.73	35927.22
657.88	36706.62
658.02	36194.04
658.16	36243.20
658.31	36746.41
658.45	36414.05
658.60	36313.41
658.74	36154.26
658.88	36285.33
659.03	35866.37
659.17	36013.82
659.31	36020.84
659.46	35857.01
659.60	36222.13
659.74	36128.51
659.89	35739.98
660.03	35845.30
660.17	36100.42
660.32	36025.53
660.46	35814.88
660.60	35796.15
660.74	35730.62
660.89	35625.29
661.03	35187.61
661.17	35133.78
661.32	35239.11
661.46	35571.46
661.60	35346.77
661.74	35133.78
661.89	35555.08
662.03	35807.86
662.17	35285.92
662.31	35442.73
662.46	35372.52
662.60	35079.95
662.74	34902.07
662.88	35122.08
663.03	34759.30
663.17	34490.13
663.31	35023.78
663.45	34635.25
663.60	34972.28
663.74	34717.17
663.88	34614.18
664.02	34518.22
664.17	34504.18
664.31	34366.09
664.45	34663.33
664.59	34478.43
664.73	34197.57
664.88	34457.37
665.02	34150.76
665.16	34125.01
665.30	34040.75
665.44	33872.23
665.59	33804.36
665.73	33460.30
665.87	33860.53
666.01	33593.71
666.15	33778.61
666.29	33642.86
666.44	34146.08
666.58	33895.64
666.72	33776.27
666.86	33710.74
667.00	33614.77
667.14	33633.50
667.28	33724.78
667.43	33310.50
667.57	33729.46
667.71	33406.47
667.85	33153.69
667.99	33184.12
668.13	33399.44
668.27	33153.69
668.41	33031.98
668.56	32711.33
668.70	33179.43
668.84	32673.88
668.98	32882.19
669.12	32458.55
669.26	33151.35
669.40	32521.74
669.54	32521.74
669.68	32135.56
669.82	32627.07
669.96	32173.00
670.10	32245.56
670.25	32212.79
670.39	32385.99
670.53	31908.52
670.67	32240.88
670.81	32037.25
670.95	32046.62
671.09	31690.85
671.23	31735.32
671.37	31861.71
671.51	31632.34
671.65	31929.59
671.79	31051.89
671.93	31529.36
672.07	31627.66
672.21	31681.49
672.35	31402.97
672.49	31386.58
672.63	31637.02
672.77	31248.49
672.91	31236.79
673.05	31140.83
673.19	31119.76
673.33	30923.16
673.47	31159.55
673.61	30981.67
673.75	30731.23
673.89	30663.36
674.03	30539.31
674.17	30595.48
674.31	30813.15
674.45	30396.54
674.59	30595.48
674.73	30672.72
674.87	30256.11
675.01	30127.38
675.15	30323.98
675.29	30206.95
675.43	30295.89
675.56	30089.93
675.70	29853.53
675.84	29759.91
675.98	28966.47
676.12	29848.85
676.26	29792.68
676.40	29598.41
676.54	29408.83
676.68	29504.79
676.82	29172.44
676.96	29186.48
677.10	29076.48
677.23	29125.63
677.37	28971.15
677.51	28788.59
677.65	28699.65
677.79	28224.52
677.93	28517.09
678.07	28020.89
678.21	28158.99
678.34	27922.59
678.48	28053.66
678.62	28196.43
678.76	27688.54
678.90	27754.07
679.04	27424.06
679.18	27838.33
679.31	27346.82
679.45	27491.93
679.59	27264.90
679.73	27026.17
679.87	27339.80
680.00	26850.63
680.14	27269.58
680.28	26909.14
680.42	27098.72
680.56	27250.86
680.70	26827.22
680.83	27136.17
680.97	26906.80
681.11	27019.14
681.25	26693.81
681.39	26625.93
681.52	26307.62
681.66	26546.36
681.80	26239.75
681.94	26190.59
682.07	26579.12
682.21	26225.70
682.35	26103.99
682.49	26040.80
682.62	25855.90
682.76	25979.95
682.90	25788.02
683.04	25638.23
683.17	25696.74
683.31	25130.33
683.45	25575.03
683.59	25575.03
683.72	25041.39
683.86	24919.68
684.00	25125.65
684.13	25233.32
684.27	24802.66
684.41	24521.79
684.55	24489.03
684.68	24402.43
684.82	24535.84
684.96	24732.44
685.09	24416.47
685.23	24381.36
685.37	23915.59
685.50	24182.42
685.64	23997.51
685.78	23435.78
685.91	23555.15
686.05	23653.45
686.19	23517.70
686.32	23370.25
686.46	23138.54
686.60	22721.92
686.73	23232.16
686.87	22705.54
687.01	23302.37
687.14	22691.49
687.28	22775.75
687.42	22817.88
687.55	22923.21
687.69	22918.53
687.82	22759.37
687.96	22696.17
688.10	22588.51
688.23	22352.12
688.37	21998.70
688.50	21825.50
688.64	22064.23
688.78	22251.47
688.91	22015.08
689.05	21956.57
689.18	22019.76
689.32	21752.94
689.46	21612.51
689.59	21633.57
689.73	21923.80
689.86	21762.30
690.00	21582.08
690.13	21432.29
690.27	21060.14
690.41	21083.55
690.54	20737.15
690.68	20893.96
690.81	20631.82
690.95	20896.30
691.08	20769.91
691.22	20765.23
691.35	20734.81
691.49	20802.68
691.62	20561.61
691.76	20601.40
691.89	20556.93
692.03	20130.95
692.16	20042.01
692.30	20121.59
692.43	20166.06
692.57	19679.22
692.70	19814.98
692.84	19688.59
692.97	19777.53
693.11	19702.63
693.24	19337.51
693.38	19407.72
693.51	19000.47
693.65	19538.79
693.78	19456.87
693.92	19264.95
694.05	19026.21
694.19	19023.87
694.32	19056.64
694.45	18703.22
694.59	18649.39
694.72	18885.78
694.86	18731.31
694.99	18239.79
695.13	18244.48
695.26	18324.05
695.39	17951.91
695.53	18434.06
695.66	18405.97
695.80	18324.05
695.93	18263.20
696.07	17603.17
696.20	17724.88
696.33	17549.34
696.47	17762.33
696.60	17399.54
696.73	17530.61
696.87	17689.77
697.00	17507.21
697.14	17418.27
697.27	17312.94
697.40	17378.48
697.54	17481.46
697.67	17081.23
697.80	16992.29
697.94	16791.00
698.07	16648.23
698.21	16683.34
698.34	16418.86
698.47	16751.21
698.61	16269.06
698.74	16437.58
698.87	16365.03
699.01	16114.59
699.14	15953.09
699.27	15992.88
699.40	15896.92
699.54	16098.20
699.67	16035.01
699.80	15630.10
699.94	15927.35
700.07	15939.05
700.20	15688.61
700.34	15541.16
700.47	15889.90
700.60	15594.99
700.73	15712.02
700.87	15639.46
701.00	15374.98
701.13	15314.13
701.26	15239.23
701.40	15075.39
701.53	14949.00
701.66	14998.15
701.79	15021.56
701.93	14778.14
702.06	14792.19
702.19	14579.20
702.32	14918.57
702.46	14647.07
702.59	14459.83
702.72	14567.49
702.85	14602.60
702.99	14621.33
703.12	14427.06
703.25	14291.31
703.38	14075.98
703.51	14068.96
703.65	13874.70
703.78	14253.86
703.91	13933.21
704.04	13916.83
704.17	14036.19
704.31	13750.65
704.44	13729.58
704.57	13743.63
704.70	13486.17
704.83	13486.17
704.96	13668.73
705.10	13287.22
705.23	13544.68
>>>>>End Processed Spectral Data<<<<<
