SpectraSuite Data File
++++++++++++++++++++++++++++++++++++
Date: Fri Oct 25 11:24:06 EDT 2013
User: price-jones
Dark Spectrum Present: No
Reference Spectrum Present: No
Number of Sampled Component Spectra: 1
Spectrometers: USB2+H05261
Integration Time (usec): 100000 (USB2+H05261)
Spectra Averaged: 1 (USB2+H05261)
Boxcar Smoothing: 0 (USB2+H05261)
Correct for Electrical Dark: No (USB2+H05261)
Strobe/Lamp Enabled: No (USB2+H05261)
Correct for Detector Non-linearity: No (USB2+H05261)
Correct for Stray Light: No (USB2+H05261)
Number of Pixels in Processed Spectrum: 2048
>>>>>Begin Processed Spectral Data<<<<<
365.73	189.58
365.92	189.58
366.12	189.58
366.32	154.48
366.52	91.28
366.72	149.79
366.91	112.35
367.11	135.75
367.31	39.79
367.51	110.01
367.70	65.54
367.90	163.84
368.10	170.86
368.30	51.49
368.49	117.03
368.69	112.35
368.89	163.84
369.09	149.79
369.28	95.96
369.48	201.29
369.68	208.31
369.87	208.31
370.07	161.50
370.27	198.95
370.47	292.57
370.66	594.50
370.86	702.16
371.06	716.20
371.25	636.63
371.45	641.31
371.65	706.84
371.84	727.91
372.04	580.45
372.24	660.03
372.44	699.82
372.63	718.54
372.83	770.04
373.03	678.76
373.22	786.42
373.42	837.91
373.62	788.76
373.81	748.97
374.01	837.91
374.21	753.65
374.40	826.21
374.60	889.40
374.79	791.10
374.99	837.91
375.19	800.46
375.38	823.87
375.58	823.87
375.78	842.59
375.97	798.12
376.17	854.30
376.37	933.87
376.56	847.27
376.76	835.57
376.95	858.98
377.15	973.66
377.35	985.37
377.54	830.89
377.74	924.51
377.93	926.85
378.13	891.74
378.33	931.53
378.52	947.92
378.72	994.73
378.91	973.66
379.11	961.96
379.31	1018.13
379.50	952.60
379.70	912.81
379.89	940.90
380.09	971.32
380.28	1015.79
380.48	863.66
380.68	961.96
380.87	1032.18
381.07	1060.26
381.26	1043.88
381.46	1015.79
381.65	994.73
381.85	1011.11
382.04	1020.47
382.24	1069.62
382.43	1013.45
382.63	1081.33
382.83	1163.25
383.02	1125.80
383.22	1151.54
383.41	1048.56
383.61	1069.62
383.80	1156.22
384.00	994.73
384.19	1102.39
384.39	1156.22
384.58	1067.28
384.78	1188.99
384.97	1217.08
385.17	1139.84
385.36	1181.97
385.56	1158.57
385.75	1128.14
385.95	1231.12
386.14	1151.54
386.34	1093.03
386.53	1233.46
386.72	1231.12
386.92	1219.42
387.11	1224.10
387.31	1308.36
387.50	1203.04
387.70	1256.87
387.89	1240.48
388.09	1320.06
388.28	1390.28
388.48	1341.13
388.67	1263.89
388.86	1207.72
389.06	1376.24
389.25	1327.08
389.45	1322.40
389.64	1306.02
389.84	1336.45
390.03	1387.94
390.22	1427.73
390.42	1366.87
390.61	1366.87
390.81	1352.83
391.00	1359.85
391.19	1383.26
391.39	1359.85
391.58	1497.94
391.78	1481.56
391.97	1458.15
392.16	1504.96
392.36	1528.37
392.55	1537.73
392.75	1519.01
392.94	1533.05
393.13	1600.93
393.33	1533.05
393.52	1511.99
393.71	1490.92
393.91	1619.65
394.10	1650.08
394.29	1650.08
394.49	1664.12
394.68	1668.80
394.88	1568.16
395.07	1650.08
395.26	1607.95
395.46	1678.16
395.65	1696.89
395.84	1788.17
396.04	1811.57
396.23	1792.85
396.42	1652.42
396.62	1757.74
396.81	1762.42
397.00	1715.61
397.19	1743.70
397.39	1792.85
397.58	1853.70
397.77	1755.40
397.97	1879.45
398.16	1832.64
398.35	1879.45
398.55	1851.36
398.74	1870.09
398.93	1982.43
399.12	1867.75
399.32	1980.09
399.51	1947.33
399.70	2106.48
399.90	1933.28
400.09	1984.77
400.28	2099.46
400.47	2015.20
400.67	2122.87
400.86	2167.34
401.05	2026.90
401.24	2078.40
401.44	2115.84
401.63	2186.06
401.82	2125.21
402.01	2038.61
402.21	2176.70
402.40	2200.10
402.59	2134.57
402.78	2197.76
402.97	2190.74
403.17	2352.24
403.36	2298.41
403.55	2317.13
403.74	2476.29
403.93	2352.24
404.13	2436.50
404.32	2375.64
404.51	2392.03
404.70	2354.58
404.89	2457.56
405.09	2487.99
405.28	2427.14
405.47	2417.77
405.66	2469.27
405.85	2597.99
406.05	2476.29
406.24	2495.01
406.43	2499.69
406.62	2511.39
406.81	2740.77
407.00	2579.27
407.20	2455.22
407.39	2586.29
407.58	2815.66
407.77	2782.90
407.96	2665.87
408.15	2766.51
408.34	2698.64
408.54	2796.94
408.73	2785.24
408.92	2766.51
409.11	2827.37
409.30	2827.37
409.49	2871.84
409.68	2932.69
409.87	3084.83
410.07	2991.20
410.26	3005.25
410.45	3082.49
410.64	3028.65
410.83	2993.55
411.02	3164.40
411.21	3190.15
411.40	3150.36
411.59	3316.54
411.78	3220.58
411.98	3239.30
412.17	3311.86
412.36	3227.60
412.55	3281.43
412.74	3358.67
412.93	3328.24
413.12	3342.28
413.31	3620.81
413.50	3499.10
413.69	3468.67
413.88	3609.11
414.07	3684.00
414.26	3531.87
414.45	3702.73
414.64	3737.84
414.83	3777.62
415.02	3660.60
415.22	3735.50
415.41	3735.50
415.60	3803.37
415.79	3939.12
415.98	3929.76
416.17	3962.53
416.36	4063.17
416.55	4007.00
416.74	4042.11
416.93	4112.32
417.12	4025.72
417.31	4159.13
417.50	4159.13
417.69	4231.69
417.88	4173.18
418.07	4306.59
418.26	4348.72
418.45	4271.48
418.64	4578.09
418.83	4514.89
419.02	4447.02
419.21	4582.77
419.39	4594.47
419.58	4667.03
419.77	4540.64
419.96	4603.83
420.15	4592.13
420.34	4512.55
420.53	4580.43
420.72	4617.88
420.91	4739.58
421.10	4711.50
421.29	4781.71
421.48	4669.37
421.67	4865.97
421.86	4781.71
422.05	4793.42
422.24	4755.97
422.43	4842.57
422.61	4957.25
422.80	4980.66
422.99	4959.60
423.18	4999.38
423.37	4987.68
423.56	4896.40
423.75	5025.13
423.94	5027.47
424.13	4564.04
424.32	4739.58
424.50	4992.36
424.69	5114.07
424.88	5238.12
425.07	4877.68
425.26	4880.02
425.45	4983.00
425.64	4947.89
425.83	4919.81
426.01	5160.88
426.20	4971.30
426.39	5076.62
426.58	4964.28
426.77	5093.01
426.96	5207.69
427.15	5163.22
427.33	5303.65
427.52	5118.75
427.71	5327.06
427.90	5118.75
428.09	5233.44
428.28	5416.00
428.46	5455.79
428.65	5441.75
428.84	5551.75
429.03	5474.51
429.22	5273.23
429.40	5507.28
429.59	5551.75
429.78	5226.42
429.97	5462.81
430.16	5558.77
430.34	5696.86
430.53	5624.31
430.72	5572.82
430.91	5521.32
431.10	5724.95
431.28	5666.44
431.47	5783.46
431.66	5769.42
431.85	5820.91
432.03	5849.00
432.22	6024.54
432.41	5991.77
432.60	5926.24
432.79	5959.00
432.97	5930.92
433.16	5998.79
433.35	6015.18
433.54	6197.74
433.72	6174.33
433.91	6223.48
434.10	6237.53
434.28	6235.19
434.47	6228.17
434.66	6326.47
434.85	6211.78
435.03	6361.58
435.22	6286.68
435.41	6497.33
435.59	6356.90
435.78	6349.87
435.97	6506.69
436.16	6436.47
436.34	6392.00
436.53	6532.44
436.72	6803.94
436.90	6382.64
437.09	6504.35
437.28	6548.82
437.46	6612.01
437.65	6710.32
437.84	6691.59
438.02	6839.05
438.21	6724.36
438.40	6569.88
438.58	6925.65
438.77	7129.27
438.96	7042.67
439.14	7169.06
439.33	7204.17
439.52	7131.61
439.70	7398.43
439.89	7344.60
440.08	7419.50
440.26	7311.83
440.45	7302.47
440.63	7595.04
440.82	7456.95
441.01	7583.34
441.19	7613.76
441.38	7742.49
441.57	7791.64
441.75	7812.71
441.94	7990.59
442.12	8042.08
442.31	7990.59
442.50	8072.51
442.68	7922.71
442.87	8093.57
443.05	8250.39
443.24	8105.28
443.43	8203.58
443.61	8269.11
443.80	8521.89
443.98	7971.86
444.17	7871.22
444.35	8177.83
444.54	8430.61
444.73	8379.12
444.91	8449.33
445.10	8479.76
445.28	8264.43
445.47	8091.23
445.65	8411.89
445.84	8496.14
446.02	8552.32
446.21	8468.06
446.39	8341.67
446.58	8561.68
446.77	8638.92
446.95	8435.29
447.14	8395.50
447.32	8566.36
447.51	8463.38
447.69	8393.16
447.88	8493.80
448.06	8374.44
448.25	8461.04
448.43	8503.17
448.62	8659.98
448.80	8528.91
448.99	8620.19
449.17	8697.43
449.36	8542.96
449.54	8723.18
449.73	8982.98
449.91	8975.95
450.10	8868.29
450.28	9310.65
450.46	9238.09
450.65	9198.31
450.83	8947.87
451.02	9118.73
451.20	9380.87
451.39	9165.54
451.57	8908.08
451.76	9053.19
451.94	9352.78
452.13	9481.51
452.31	9270.86
452.49	9233.41
452.68	9312.99
452.86	9423.00
453.05	9511.94
453.23	9530.66
453.42	9451.08
453.60	9507.26
453.78	9713.22
453.97	9481.51
454.15	9420.66
454.34	9547.05
454.52	9729.61
454.70	9769.40
454.89	9809.19
455.07	9872.38
455.26	9968.34
455.44	10019.83
455.62	10076.01
455.81	10008.13
455.99	10106.43
456.17	10155.58
456.36	10122.82
456.54	10321.76
456.73	10272.61
456.91	10504.32
457.09	10338.15
457.28	10696.25
457.46	10434.11
457.64	10675.18
457.83	10431.77
458.01	10499.64
458.19	10714.97
458.38	10633.05
458.56	10841.36
458.74	10766.46
458.93	10574.54
459.11	10979.45
459.29	10869.45
459.48	11117.54
459.66	10752.42
459.84	10869.45
460.03	11042.65
460.21	10958.39
460.39	11119.89
460.57	10998.18
460.76	11105.84
460.94	11391.39
461.12	11232.23
461.31	11105.84
461.49	11152.65
461.67	11225.21
461.85	11265.00
462.04	11335.21
462.22	11375.00
462.40	11573.95
462.59	11412.45
462.77	11613.74
462.95	11681.61
463.13	11679.27
463.32	11789.28
463.50	11800.98
463.68	11819.71
463.86	11831.41
464.05	11948.43
464.23	11632.46
464.41	11925.03
464.59	11644.17
464.78	12196.53
464.96	12224.62
465.14	11763.53
465.32	12280.79
465.50	12046.74
465.69	12093.55
465.87	12313.56
466.05	12105.25
466.23	12304.20
466.41	12547.61
466.60	12624.85
466.78	12269.09
466.96	12201.21
467.14	12358.03
467.32	12493.78
467.51	12533.57
467.69	12229.30
467.87	12484.42
468.05	12453.99
468.23	12453.99
468.41	12519.53
468.60	12603.78
468.78	12943.16
468.96	12554.63
469.14	12821.45
469.32	13025.08
469.50	12631.87
469.69	12858.90
469.87	13268.50
470.05	13135.09
470.23	13259.13
470.41	13406.59
470.59	13277.86
470.77	13221.69
470.95	13228.71
471.14	13467.44
471.32	13380.84
471.50	13661.71
471.68	13769.37
471.86	13661.71
472.04	13673.41
472.22	14113.43
472.40	13671.07
472.58	14010.45
472.77	13956.61
472.95	14139.18
473.13	14841.34
473.31	14230.46
473.49	14087.68
473.67	14265.57
473.85	14214.07
474.03	14750.06
474.21	14665.80
474.39	14778.14
474.57	14949.00
474.75	14991.13
474.93	14946.66
475.12	14951.34
475.30	15091.77
475.48	15187.74
475.66	15161.99
475.84	15178.37
476.02	15183.06
476.20	15494.35
476.38	15569.24
476.56	16166.08
476.74	16159.06
476.92	16037.35
477.10	15679.25
477.28	16294.81
477.46	16451.63
477.64	16692.70
477.82	16641.21
478.00	17177.19
478.18	16849.52
478.36	17055.48
478.54	17472.10
478.72	17207.62
478.90	17329.33
479.08	17720.20
479.26	17884.03
479.44	17869.99
479.62	18129.79
479.80	18104.04
479.98	18242.14
480.16	18232.77
480.34	18445.76
480.52	18537.04
480.70	18588.53
480.88	18520.66
481.06	18806.20
481.24	18808.54
481.41	19323.46
481.59	19260.27
481.77	19690.93
481.95	19449.85
482.13	19709.65
482.31	19917.96
482.49	20486.71
482.67	20233.93
482.85	20556.93
483.03	20695.02
483.21	20872.90
483.39	20821.41
483.57	20805.02
483.74	21619.53
483.92	21415.90
484.10	21275.47
484.28	21664.00
484.46	22204.66
484.64	22232.75
484.82	22068.91
485.00	22462.12
485.18	22750.01
485.35	22801.50
485.53	22728.94
485.71	23009.81
485.89	23597.28
486.07	23442.81
486.25	23489.62
486.43	23630.05
486.61	23857.08
486.78	23995.17
486.96	24343.91
487.14	24599.03
487.32	24720.74
487.50	24711.38
487.68	25223.95
487.85	25439.28
488.03	25584.40
488.21	26113.36
488.39	25762.28
488.57	26047.82
488.75	26167.19
488.92	26639.98
489.10	26794.45
489.28	27119.79
489.46	27115.11
489.64	27332.78
489.81	28105.15
489.99	27693.22
490.17	27590.24
490.35	28271.33
490.53	28222.18
490.70	28762.84
490.88	28334.53
491.06	28718.37
491.24	29006.26
491.41	29514.16
491.59	29139.67
491.77	29504.79
491.95	29797.36
492.13	29755.23
492.30	30073.54
492.48	30050.14
492.66	30335.68
492.84	30221.00
493.01	30696.13
493.19	30801.45
493.37	31042.53
493.54	30906.77
493.72	31693.19
493.90	31580.85
494.08	32175.34
494.25	31728.30
494.43	32673.88
494.61	32554.51
494.79	32591.96
494.96	32790.91
495.14	32893.89
495.32	33109.22
495.49	32947.72
495.67	33296.46
495.85	33907.34
496.02	33757.55
496.20	33956.49
496.38	34375.45
496.55	33937.77
496.73	34939.52
496.91	34611.84
497.09	34859.94
497.26	35175.91
497.44	35051.86
497.62	35524.65
497.79	35981.06
497.97	35503.59
498.14	35749.34
498.32	36378.95
498.50	36531.08
498.67	36856.42
498.85	36439.80
499.03	36758.11
499.20	36622.36
499.38	37055.36
499.56	37081.11
499.73	37333.89
499.91	37577.30
500.08	37848.80
500.26	37326.86
500.44	37984.55
500.61	38115.62
500.79	38124.99
500.97	38340.32
501.14	38780.34
501.32	38621.18
501.49	38396.49
501.67	38565.01
501.84	39086.95
502.02	38799.06
502.20	39353.77
502.37	39400.58
502.55	39257.81
502.72	39641.65
502.90	39779.74
503.07	39477.82
503.25	40076.99
503.43	39948.26
503.60	39695.49
503.78	40357.86
503.95	40552.12
504.13	41134.92
504.30	41001.50
504.48	40591.91
504.65	40980.44
504.83	41244.92
505.01	41727.07
505.18	41528.13
505.36	41563.23
505.53	41518.76
505.71	41759.84
505.88	42031.34
506.06	41523.44
506.23	41972.83
506.41	41794.95
506.58	42103.90
506.76	42384.76
506.93	42583.71
507.11	42588.39
507.28	43009.68
507.46	42993.30
507.63	43562.05
507.81	43367.79
507.98	42719.46
508.16	43091.60
508.33	43679.08
508.50	43693.12
508.68	43548.01
508.85	43842.92
509.03	43756.32
509.20	44025.48
509.38	44343.79
509.55	44170.59
509.73	44818.92
509.90	44594.23
510.08	44467.84
510.25	44666.78
510.42	44458.48
510.60	45436.82
510.77	45291.71
510.95	45497.67
511.12	45399.37
511.30	45284.68
511.47	45397.03
511.64	45406.39
511.82	46033.66
511.99	46110.89
512.17	46630.49
512.34	46045.36
512.51	46347.29
512.69	46532.19
512.86	46602.41
513.04	46770.93
513.21	46691.35
513.38	46440.91
513.56	46953.49
513.73	47047.11
513.90	47379.46
514.08	47281.16
514.25	47505.85
514.43	47604.16
514.60	47576.07
514.77	47583.09
514.95	47878.00
515.12	47873.32
515.29	47316.27
515.47	48193.97
515.64	48285.25
515.81	48636.33
515.99	48006.73
516.16	48463.13
516.33	48318.02
516.51	48666.76
516.68	48781.45
516.85	48559.09
517.03	48989.75
517.20	49015.50
517.37	48884.43
517.54	49010.82
517.72	49162.95
517.89	49083.37
518.06	49401.69
518.24	49268.28
518.41	49492.97
518.58	49411.05
518.75	49240.19
518.93	49764.47
519.10	49705.96
519.27	49921.29
519.45	49806.60
519.62	49932.99
519.79	49984.48
519.96	49879.16
520.14	50115.55
520.31	50232.58
520.48	50293.43
520.65	50307.47
520.83	50487.70
521.00	50873.88
521.17	50754.52
521.34	51072.83
521.52	50953.46
521.69	51208.58
521.86	51117.30
522.03	51372.42
522.20	51786.69
522.38	51877.97
522.55	51185.18
522.72	51416.89
522.89	51325.61
523.07	51695.41
523.24	51508.17
523.41	52051.17
523.58	51416.89
523.75	52013.73
523.92	51793.71
524.10	52156.50
524.27	52156.50
524.44	52310.97
524.61	52198.63
524.78	52121.39
524.96	52196.29
525.13	52472.47
525.30	52889.09
525.47	52495.88
525.64	52795.46
525.81	52781.42
525.98	52683.12
526.16	52615.24
526.33	52500.56
526.50	53111.44
526.67	53050.58
526.84	52772.06
527.01	52823.55
527.18	53064.63
527.36	52917.17
527.53	53191.01
527.70	53109.10
527.87	53127.82
528.04	53460.18
528.21	53450.81
528.38	53380.60
528.55	53738.70
528.72	53581.88
528.89	53441.45
529.07	53408.68
529.24	53563.16
529.41	53818.28
529.58	53792.53
529.75	53752.74
529.92	53834.66
530.09	54014.88
530.26	54103.82
530.43	54185.74
530.60	54031.27
530.77	54253.62
530.94	54305.11
531.11	54167.02
531.28	54255.96
531.46	54333.20
531.63	54330.86
531.80	54450.22
531.97	54520.44
532.14	54447.88
532.31	54632.78
532.48	54794.28
532.65	54564.91
532.82	54677.25
532.99	55077.49
533.16	54871.52
533.33	55058.76
533.50	55161.75
533.67	54908.97
533.84	54880.88
534.01	54937.05
534.18	55068.12
534.35	55430.91
534.52	55201.53
534.69	55475.38
534.86	55145.36
535.03	55297.50
535.20	55150.04
535.37	55473.04
535.54	55437.93
535.71	55477.72
535.88	55753.90
536.05	55496.44
536.22	55477.72
536.38	55674.32
536.55	55704.75
536.72	55501.12
536.89	55662.62
537.06	55805.39
537.23	55966.89
537.40	55922.42
537.57	55760.92
537.74	56112.00
537.91	56055.83
538.08	55950.51
538.25	55767.94
538.42	56034.77
538.59	56144.77
538.75	56023.06
538.92	56053.49
539.09	56371.80
539.26	56233.71
539.43	56278.18
539.60	56322.65
539.77	56109.66
539.94	56652.67
540.11	56523.94
540.28	56418.61
540.44	56643.30
540.61	56615.22
540.78	56420.95
540.95	56685.43
541.12	56598.83
541.29	56362.44
541.46	56460.74
541.62	56638.62
541.79	56786.08
541.96	56491.17
542.13	56800.12
542.30	56875.02
542.47	57003.75
542.63	57006.09
542.80	56903.10
542.97	57167.58
543.14	57258.87
543.31	57558.45
543.48	57532.71
543.64	57488.24
543.81	57537.39
543.98	57439.09
544.15	57563.14
544.32	57581.86
544.48	57631.01
544.65	57469.51
544.82	57612.29
544.99	57408.66
545.16	57640.37
545.32	57467.17
545.49	57691.86
545.66	57640.37
545.83	57771.44
546.00	57886.13
546.16	57888.47
546.33	57549.09
546.50	57619.31
546.67	58031.24
546.83	57441.43
547.00	57776.12
547.17	57797.19
547.34	58092.10
547.50	58061.67
547.67	58024.22
547.84	58108.48
548.00	58159.97
548.17	58188.06
548.34	58033.58
548.51	58265.30
548.67	58349.56
548.84	58267.64
549.01	58398.71
549.18	58321.47
549.34	58480.63
549.51	58447.86
549.68	58344.87
549.84	58396.37
550.01	58417.43
550.18	58340.19
550.34	58642.12
550.51	58684.25
550.68	58850.43
550.84	58309.77
551.01	58794.26
551.18	58464.24
551.34	58698.30
551.51	58801.28
551.68	58691.27
551.84	58590.63
552.01	58726.38
552.18	58576.59
552.34	58482.97
552.51	58993.20
552.68	58794.26
552.84	58836.39
553.01	58969.80
553.18	58876.18
553.34	59007.25
553.51	58663.19
553.67	58953.41
553.84	59292.79
554.01	58946.39
554.17	59428.54
554.34	59323.22
554.51	59231.94
554.67	59110.23
554.84	59281.09
555.00	59199.17
555.17	59061.08
555.33	58986.18
555.50	59119.59
555.67	59215.55
555.83	59082.14
556.00	59290.45
556.16	59458.97
556.33	59475.35
556.50	59440.24
556.66	59487.06
556.83	59295.13
556.99	59678.98
557.16	59414.50
557.32	59632.17
557.49	59634.51
557.65	59606.42
557.82	59400.46
557.98	59386.41
558.15	59561.95
558.32	59498.76
558.48	59463.65
558.65	59386.41
558.81	59653.23
558.98	59496.42
559.14	59650.89
559.31	59833.46
559.47	59784.30
559.64	60037.08
559.80	59915.37
559.97	59887.29
560.13	59716.43
560.30	59746.86
560.46	59863.88
560.63	59739.83
560.79	59772.60
560.96	60203.26
561.12	59861.54
561.29	59828.77
561.45	59880.27
561.61	59746.86
561.78	59985.59
561.94	59781.96
562.11	59945.80
562.27	60027.72
562.44	60140.07
562.60	60156.45
562.77	60172.83
562.93	59959.84
563.10	59997.29
563.26	59978.57
563.42	60217.30
563.59	60090.91
563.75	60165.81
563.92	59985.59
564.08	60161.13
564.24	60385.82
564.41	60198.58
564.57	60121.34
564.74	60210.28
564.90	60177.51
565.07	60123.68
565.23	60203.26
565.39	60114.32
565.56	60472.42
565.72	60292.20
565.88	60261.77
566.05	60231.35
566.21	60034.74
566.38	60322.63
566.54	60306.24
566.70	60329.65
566.87	60619.88
567.03	60491.15
567.19	60547.32
567.36	60397.52
567.52	60250.07
567.68	60699.45
567.85	60594.13
568.01	60617.53
568.17	60357.74
568.34	60617.53
568.50	60544.98
568.66	60493.49
568.83	60540.30
568.99	60453.70
569.15	60449.02
569.32	60556.68
569.48	60381.14
569.64	60734.56
569.81	60594.13
569.97	60449.02
570.13	60530.93
570.30	60378.80
570.46	60341.35
570.62	60680.73
570.78	60507.53
570.95	60617.53
571.11	60638.60
571.27	60423.27
571.43	60711.16
571.60	60605.83
571.76	60739.24
571.92	60917.12
572.09	60610.51
572.25	60662.00
572.41	60769.67
572.57	60596.47
572.74	61078.62
572.90	60608.17
573.06	60779.03
573.22	60816.48
573.38	60900.74
573.55	60664.35
573.71	60851.59
573.87	60858.61
574.03	60533.28
574.20	60814.14
574.36	60605.83
574.52	60989.68
574.68	60722.86
574.84	60781.37
575.01	60718.18
575.17	60760.31
575.33	60781.37
575.49	60889.04
575.65	60928.83
575.82	60793.07
575.98	60893.72
576.14	61080.96
576.30	60980.32
576.46	60729.88
576.62	60839.89
576.79	60697.11
576.95	60797.76
577.11	60891.38
577.27	60912.44
577.43	60924.14
577.59	60755.63
577.75	60715.84
577.92	60669.03
578.08	60935.85
578.24	60783.71
578.40	61031.81
578.56	60896.06
578.72	60849.25
578.88	61062.24
579.04	61144.16
579.21	61085.64
579.37	61092.66
579.53	61181.60
579.69	60898.40
579.85	60739.24
580.01	60959.25
580.17	60898.40
580.33	60945.21
580.49	61048.19
580.65	60961.59
580.82	60889.04
580.98	60811.80
581.14	60919.46
581.30	61141.81
581.46	60935.85
581.62	61020.11
581.78	60858.61
581.94	61123.09
582.10	61057.56
582.26	60938.19
582.42	60774.35
582.58	61219.05
582.74	61031.81
582.90	60973.30
583.06	61043.51
583.22	60736.90
583.38	61193.31
583.54	61095.00
583.70	60973.30
583.86	61043.51
584.02	60968.61
584.18	61165.22
584.34	61183.94
584.50	61209.69
584.66	60989.68
584.82	61052.87
584.98	61385.23
585.14	61085.64
585.30	61064.58
585.46	61172.24
585.62	61057.56
585.78	61240.12
585.94	61076.28
586.10	61024.79
586.26	61052.87
586.42	61162.88
586.58	61113.73
586.74	61186.28
586.90	61120.75
587.06	61055.21
587.22	61279.91
587.38	61146.50
587.54	61427.36
587.70	61263.52
587.86	61158.20
588.02	61111.39
588.18	61371.19
588.34	61258.84
588.49	61340.76
588.65	60987.34
588.81	61118.41
588.97	61235.44
589.13	61359.48
589.29	61286.93
589.45	61434.38
589.61	61181.60
589.77	61439.06
589.93	61378.21
590.08	61558.43
590.24	61329.06
590.40	61516.30
590.56	61556.09
590.72	61565.45
590.88	61305.65
591.04	61244.80
591.20	61642.69
591.35	61661.41
591.51	61677.80
591.67	61464.81
591.83	61567.79
591.99	61326.72
592.15	61432.04
592.31	61450.77
592.46	61460.13
592.62	61567.79
592.78	61478.85
592.94	61677.80
593.10	61673.12
593.26	61654.39
593.41	61401.61
593.57	61523.32
593.73	61595.88
593.89	61745.67
594.05	61553.75
594.20	61600.56
594.36	61654.39
594.52	61792.48
594.68	61312.67
594.84	61343.10
594.99	61511.62
595.15	61520.98
595.31	61595.88
595.47	61467.15
595.62	61476.51
595.78	61476.51
595.94	61717.59
596.10	61743.33
596.25	61729.29
596.41	61731.63
596.57	61670.78
596.73	61670.78
596.88	61659.07
597.04	61558.43
597.20	61740.99
597.36	61708.22
597.51	61982.07
597.67	61762.06
597.83	61392.25
597.99	61647.37
598.14	61808.87
598.30	61928.23
598.46	61715.25
598.61	61715.25
598.77	61736.31
598.93	61698.86
599.09	61593.54
599.24	62052.28
599.40	61951.64
599.56	61696.52
599.71	61799.50
599.87	61865.04
600.03	61867.38
600.18	61984.41
600.34	61464.81
600.50	61876.74
600.65	61722.27
600.81	61860.36
600.97	61862.70
601.12	61970.36
601.28	61677.80
601.44	61769.08
601.59	61932.92
601.75	61879.08
601.91	61808.87
602.06	61930.58
602.22	62047.60
602.37	61715.25
602.53	61918.87
602.69	61815.89
602.84	61675.46
603.00	61642.69
603.16	62049.94
603.31	61855.68
603.47	62005.47
603.62	61834.61
603.78	61923.55
603.94	61647.37
604.09	61794.82
604.25	61836.95
604.40	61876.74
604.56	62066.33
604.71	61914.19
604.87	61717.59
605.03	61902.49
605.18	61879.08
605.34	61944.62
605.49	61703.54
605.65	61935.26
605.80	61975.05
605.96	61949.30
606.12	61876.74
606.27	61914.19
606.43	61897.81
606.58	61820.57
606.74	61769.08
606.89	61851.00
607.05	62141.22
607.20	61762.06
607.36	61647.37
607.51	61743.33
607.67	61532.68
607.82	61600.56
607.98	61619.28
608.13	61687.16
608.29	61661.41
608.44	61778.44
608.60	61518.64
608.75	61853.34
608.91	61680.14
609.06	61520.98
609.22	61886.10
609.37	61717.59
609.53	61818.23
609.68	61663.75
609.84	61614.60
609.99	61623.96
610.15	61790.14
610.30	61897.81
610.46	61612.26
610.61	61783.12
610.76	61787.80
610.92	61682.48
611.07	61773.76
611.23	61399.27
611.38	61832.27
611.54	61752.69
611.69	61738.65
611.84	61623.96
612.00	61687.16
612.15	61605.24
612.31	61623.96
612.46	61499.92
612.62	61628.65
612.77	61675.46
612.92	61748.01
613.08	61520.98
613.23	61680.14
613.39	61520.98
613.54	61364.17
613.69	61600.56
613.85	61525.66
614.00	61705.88
614.15	61579.49
614.31	61324.38
614.46	61460.13
614.62	61446.08
614.77	61453.11
614.92	61570.13
615.08	61432.04
615.23	61364.17
615.38	61490.55
615.54	61446.08
615.69	61481.19
615.84	61317.35
616.00	61488.21
616.15	61364.17
616.30	61614.60
616.46	61455.45
616.61	61436.72
616.76	61497.58
616.92	61195.65
617.07	61226.07
617.22	61375.87
617.37	61474.17
617.53	61497.58
617.68	61310.33
617.83	61382.89
617.99	61436.72
618.14	61338.42
618.29	61490.55
618.45	61123.09
618.60	61181.60
618.75	61083.30
618.90	61326.72
619.06	61296.29
619.21	61415.66
619.36	61448.42
619.51	61200.33
619.67	61095.00
619.82	61036.49
619.97	61111.39
620.12	61080.96
620.28	61045.85
620.43	61057.56
620.58	61329.06
620.73	60889.04
620.89	61008.40
621.04	61277.57
621.19	61083.30
621.34	61207.35
621.49	60673.71
621.65	61181.60
621.80	61389.91
621.95	61059.90
622.10	61029.47
622.25	60977.98
622.41	61268.20
622.56	60970.96
622.71	60863.29
622.86	60959.25
623.01	60961.59
623.16	60814.14
623.32	61095.00
623.47	60933.51
623.62	60905.42
623.77	60980.32
623.92	60853.93
624.07	61024.79
624.23	60933.51
624.38	60807.12
624.53	60713.50
624.68	60673.71
624.83	60720.52
624.98	60889.04
625.13	60631.58
625.29	60753.29
625.44	60755.63
625.59	60701.79
625.74	60596.47
625.89	60762.65
626.04	60364.76
626.19	60437.31
626.34	60624.56
626.49	60601.15
626.65	60406.89
626.80	60505.19
626.95	60413.91
627.10	60484.12
627.25	60322.63
627.40	60186.88
627.55	60645.62
627.70	60540.30
627.85	60271.14
628.00	60425.61
628.15	60388.16
628.30	60271.14
628.45	60427.95
628.60	60137.72
628.76	60481.78
628.91	60612.85
629.06	60292.20
629.21	60430.29
629.36	60350.71
629.51	60395.18
629.66	60257.09
629.81	60207.94
629.96	60053.47
630.11	60250.07
630.26	60348.37
630.41	60219.64
630.56	60329.65
630.71	60097.94
630.86	60053.47
631.01	60130.70
631.16	60191.56
631.31	60163.47
631.46	59845.16
631.61	60177.51
631.76	59962.18
631.91	59941.12
632.06	60097.94
632.21	60219.64
632.36	60196.24
632.51	59786.64
632.66	60081.55
632.81	59735.15
632.96	60088.57
633.10	60018.36
633.25	59994.95
633.40	59952.82
633.55	59847.50
633.70	60032.40
633.85	59784.30
634.00	59580.68
634.15	59812.39
634.30	59728.13
634.45	59931.76
634.60	59952.82
634.75	60067.51
634.90	59550.25
635.05	59781.96
635.19	59730.47
635.34	59840.48
635.49	59760.90
635.64	59845.16
635.79	59667.28
635.94	59763.24
636.09	59784.30
636.24	59489.40
636.39	59597.06
636.53	59870.90
636.68	59419.18
636.83	59571.32
636.98	59950.48
637.13	59620.47
637.28	59475.35
637.43	59447.27
637.57	59409.82
637.72	59355.99
637.87	59468.33
638.02	59412.16
638.17	59447.27
638.32	59561.95
638.46	59461.31
638.61	59501.10
638.76	59264.70
638.91	59381.73
639.06	59285.77
639.20	59201.51
639.35	59103.21
639.50	59107.89
639.65	59299.81
639.80	59571.32
639.94	59203.85
640.09	59288.11
640.24	59075.12
640.39	59440.24
640.54	59157.04
640.68	59220.23
640.83	59243.64
640.98	59309.18
641.13	59025.97
641.27	59217.89
641.42	59330.24
641.57	58789.58
641.72	59180.45
641.86	58766.17
642.01	58915.96
642.16	58993.20
642.31	58728.72
642.45	59316.20
642.60	58829.37
642.75	59222.58
642.90	59044.69
643.04	59047.04
643.19	58810.64
643.34	59068.10
643.48	59044.69
643.63	58915.96
643.78	58782.55
643.93	58937.03
644.07	58962.78
644.22	58871.49
644.37	58489.99
644.51	58824.68
644.66	58873.84
644.81	58922.99
644.95	58766.17
645.10	58770.85
645.25	58820.00
645.39	58754.47
645.54	58585.95
645.69	58569.57
645.83	58487.65
645.98	58695.95
646.13	58726.38
646.27	58660.85
646.42	58649.14
646.57	58358.92
646.71	58651.48
646.86	58667.87
647.00	58731.06
647.15	58688.93
647.30	58532.12
647.44	58440.84
647.59	58473.60
647.74	58693.61
647.88	58621.06
648.03	58667.87
648.17	58571.91
648.32	58330.83
648.47	58599.99
648.61	58433.81
648.76	58569.57
648.90	58426.79
649.05	58567.23
649.20	58543.82
649.34	58372.96
649.49	58365.94
649.63	58461.90
649.78	58522.76
649.92	58618.72
650.07	58363.60
650.21	58176.36
650.36	58382.32
650.51	58321.47
650.65	58478.28
650.80	58436.16
650.94	58166.99
651.09	58031.24
651.23	57659.10
651.38	58143.59
651.52	57925.92
651.67	57909.53
651.81	58080.39
651.96	58049.97
652.10	57916.56
652.25	58028.90
652.39	58101.46
652.54	58092.10
652.68	57841.66
652.83	57715.27
652.97	57979.75
653.12	57829.96
653.26	57806.55
653.41	58038.26
653.55	57841.66
653.70	57836.98
653.84	58028.90
653.99	57832.30
654.13	57867.40
654.27	57860.38
654.42	57698.89
654.56	57635.69
654.71	57872.09
654.85	57918.90
655.00	57820.59
655.14	57628.67
655.29	57446.11
655.43	57635.69
655.57	57726.97
655.72	57659.10
655.86	57528.03
656.01	57469.51
656.15	57560.79
656.30	57687.18
656.44	57670.80
656.58	57726.97
656.73	57539.73
656.87	57745.70
657.01	57408.66
657.16	57556.11
657.30	57282.27
657.45	57279.93
657.59	57659.10
657.73	57282.27
657.88	57195.67
658.02	57195.67
658.16	57324.40
658.31	57425.04
658.45	57228.44
658.60	57305.68
658.74	57132.48
658.88	57195.67
659.03	57001.41
659.17	57083.33
659.31	57233.12
659.46	57036.51
659.60	56886.72
659.74	57127.80
659.89	57102.05
660.03	56821.19
660.17	57169.93
660.32	56877.36
660.46	56917.15
660.60	56727.56
660.74	57008.43
660.89	56832.89
661.03	56685.43
661.17	56390.53
661.32	56601.18
661.46	56603.52
661.60	56657.35
661.74	56549.68
661.89	56605.86
662.03	56502.87
662.17	56507.55
662.31	56371.80
662.46	56575.43
662.60	56273.50
662.74	56222.01
662.88	56222.01
663.03	55964.55
663.17	56423.29
663.31	55973.91
663.45	55915.40
663.60	55863.91
663.74	55767.94
663.88	55812.41
664.02	55786.67
664.17	55756.24
664.31	55646.24
664.45	55941.14
664.59	55515.17
664.73	56018.38
664.88	55700.07
665.02	55440.27
665.16	55587.72
665.30	55458.99
665.44	55653.26
665.59	55475.38
665.73	55543.25
665.87	55480.06
666.01	55531.55
666.15	55435.59
666.29	55086.85
666.44	55442.61
666.58	55121.96
666.72	55119.62
666.86	54983.86
667.00	55285.79
667.14	54834.07
667.28	55150.04
667.43	54850.45
667.57	54908.97
667.71	54700.66
667.85	54733.43
667.99	54436.18
668.13	54805.98
668.27	54801.30
668.41	54871.52
668.56	54555.55
668.70	54398.73
668.84	54358.94
668.98	54372.99
669.12	54380.01
669.26	54403.41
669.40	54499.37
669.54	54471.29
669.68	54244.26
669.82	53991.48
669.96	54124.89
670.10	53975.09
670.25	54120.21
670.39	54103.82
670.53	53977.43
670.67	53984.46
670.81	54183.40
670.95	53979.78
671.09	53476.56
671.23	53528.05
671.37	53506.99
671.51	53455.50
671.65	53624.01
671.79	53595.93
671.93	53329.11
672.07	53265.91
672.21	53022.50
672.35	52865.68
672.49	52877.38
672.63	53132.50
672.77	52790.78
672.91	52919.51
673.05	52877.38
673.19	52844.62
673.33	52584.82
673.47	52800.15
673.61	52521.62
673.75	52533.32
673.89	51927.13
674.03	51999.68
674.17	52023.09
674.31	52158.84
674.45	51915.42
674.59	51746.90
674.73	51896.70
674.87	51861.59
675.01	51681.37
675.15	51803.08
675.29	51604.13
675.43	51660.30
675.56	51388.80
675.70	51098.58
675.84	51433.27
675.98	50326.20
676.12	51030.70
676.26	51096.24
676.40	50918.35
676.54	51035.38
676.68	50712.39
676.82	49916.61
676.96	50431.52
677.10	50443.23
677.23	50314.50
677.37	50150.66
677.51	49918.95
677.65	50026.61
677.79	49258.91
677.93	49092.74
678.07	49022.52
678.21	48980.39
678.34	48774.42
678.48	48956.99
678.62	48886.77
678.76	48732.29
678.90	48964.01
679.04	48783.79
679.18	48481.86
679.31	48137.80
679.45	48156.52
679.59	48346.11
679.73	48144.82
679.87	48203.33
680.00	47449.68
680.14	47320.95
680.28	47529.26
680.42	47037.75
680.56	46876.25
680.70	46539.21
680.83	47077.54
680.97	46564.96
681.11	46864.55
681.25	46894.97
681.39	46557.94
681.52	46951.15
681.66	46588.36
681.80	46185.79
681.94	46225.58
682.07	45893.22
682.21	45546.82
682.35	45357.24
682.49	46007.91
682.62	45382.99
682.76	45322.13
682.90	45617.04
683.04	45022.54
683.17	44968.71
683.31	44617.63
683.45	44631.68
683.59	44493.58
683.72	44137.82
683.86	44334.43
684.00	44355.49
684.13	44186.97
684.27	44311.02
684.41	44219.74
684.55	44280.60
684.68	43697.80
684.82	43540.99
684.96	43257.78
685.09	43510.56
685.23	42927.77
685.37	42714.78
685.50	42267.73
685.64	42604.77
685.78	42712.44
685.91	42295.82
686.05	42087.51
686.19	41603.02
686.32	41581.96
686.46	41607.70
686.60	40994.48
686.73	41092.79
686.87	41090.44
687.01	41202.79
687.14	40598.93
687.28	40350.84
687.42	40575.53
687.55	40123.80
687.69	40554.46
687.82	40158.91
687.96	39278.87
688.10	39894.43
688.23	39856.98
688.37	39732.93
688.50	39445.05
688.64	39360.79
688.78	38686.71
688.91	38485.43
689.05	38485.43
689.18	38494.79
689.32	37979.87
689.46	37886.25
689.59	37663.90
689.73	38061.79
689.86	37432.19
690.00	37574.96
690.13	37741.14
690.27	37809.01
690.41	37895.61
690.54	37020.25
690.68	37050.68
690.81	36758.11
690.95	36549.81
691.08	36680.88
691.22	36189.36
691.35	36154.26
691.49	36313.41
691.62	36229.15
691.76	35662.74
691.89	35861.69
692.03	35622.95
692.16	34955.90
692.30	35283.58
692.43	35690.83
692.57	35093.99
692.70	34291.19
692.84	34962.92
692.97	34637.59
693.11	34658.65
693.24	34167.14
693.38	34211.61
693.51	34012.66
693.65	33713.08
693.78	33294.12
693.92	33614.77
694.05	33411.15
694.19	33156.03
694.32	33326.89
694.45	33242.63
694.59	32687.92
694.72	32325.14
694.86	32570.90
694.99	32294.71
695.13	32079.38
695.26	32044.27
695.39	31770.43
695.53	31880.44
695.66	31840.65
695.80	32030.23
695.93	31440.42
696.07	31180.62
696.20	30756.98
696.33	31110.40
696.47	30801.45
696.60	30740.60
696.73	30724.21
696.87	30178.87
697.00	30319.30
697.14	30654.00
697.27	29982.26
697.40	30143.76
697.54	29937.79
697.67	29502.45
697.80	29549.26
697.94	29125.63
698.07	29436.92
698.21	28833.06
698.34	29266.06
698.47	29071.79
698.61	28671.56
698.74	28641.14
698.87	28465.60
699.01	28144.94
699.14	28540.49
699.27	28149.62
699.40	28173.03
699.54	27999.83
699.67	27796.20
699.80	27480.23
699.94	27665.13
700.07	27414.69
700.20	26745.30
700.34	27140.85
700.47	27030.85
700.60	26675.09
700.73	26225.70
700.87	26354.43
701.00	25930.80
701.13	25881.64
701.26	25860.58
701.40	26284.22
701.53	26103.99
701.66	26059.52
701.79	25532.90
701.93	25111.61
702.06	25006.28
702.19	25245.02
702.32	25406.52
702.46	25139.69
702.59	24917.34
702.72	24657.54
702.85	24608.39
702.99	24755.85
703.12	24362.64
703.25	24121.56
703.38	24077.09
703.51	23623.03
703.65	23419.40
703.78	23220.45
703.91	23105.77
704.04	23854.74
704.17	23075.34
704.31	23353.87
704.44	22932.57
704.57	22586.17
704.70	22412.97
704.83	22427.01
704.96	22457.44
705.10	22178.92
705.23	22771.07
>>>>>End Processed Spectral Data<<<<<
