SpectraSuite Data File
++++++++++++++++++++++++++++++++++++
Date: Fri Oct 25 10:44:28 EDT 2013
User: price-jones
Dark Spectrum Present: No
Reference Spectrum Present: No
Number of Sampled Component Spectra: 1
Spectrometers: USB2+H05261
Integration Time (usec): 100000 (USB2+H05261)
Spectra Averaged: 1 (USB2+H05261)
Boxcar Smoothing: 0 (USB2+H05261)
Correct for Electrical Dark: No (USB2+H05261)
Strobe/Lamp Enabled: No (USB2+H05261)
Correct for Detector Non-linearity: No (USB2+H05261)
Correct for Stray Light: No (USB2+H05261)
Number of Pixels in Processed Spectrum: 2048
>>>>>Begin Processed Spectral Data<<<<<
365.73	131.07
365.92	131.07
366.12	131.07
366.32	23.41
366.52	0.00
366.72	88.94
366.91	46.81
367.11	0.00
367.31	21.06
367.51	42.13
367.70	30.43
367.90	58.51
368.10	0.00
368.30	0.00
368.49	14.04
368.69	53.83
368.89	58.51
369.09	28.09
369.28	63.19
369.48	14.04
369.68	112.35
369.87	70.22
370.07	100.64
370.27	74.90
370.47	152.13
370.66	454.06
370.86	390.87
371.06	479.81
371.25	479.81
371.45	512.58
371.65	482.15
371.84	500.87
372.04	411.93
372.24	503.22
372.44	454.06
372.63	517.26
372.83	496.19
373.03	400.23
373.22	524.28
373.42	493.85
373.62	519.60
373.81	526.62
374.01	571.09
374.21	631.94
374.40	538.32
374.60	592.16
374.79	568.75
374.99	578.11
375.19	552.37
375.38	580.45
375.58	587.47
375.78	671.73
375.97	582.79
376.17	636.63
376.37	601.52
376.56	599.18
376.76	592.16
376.95	636.63
377.15	634.29
377.35	634.29
377.54	730.25
377.74	601.52
377.93	667.05
378.13	655.35
378.33	748.97
378.52	741.95
378.72	702.16
378.91	641.31
379.11	554.71
379.31	683.44
379.50	603.86
379.70	709.18
379.89	667.05
380.09	671.73
380.28	699.82
380.48	645.99
380.68	650.67
380.87	685.78
381.07	697.48
381.26	798.12
381.46	730.25
381.65	645.99
381.85	732.59
382.04	734.93
382.24	676.41
382.43	657.69
382.63	727.91
382.83	702.16
383.02	681.10
383.22	702.16
383.41	699.82
383.61	777.06
383.80	779.40
384.00	751.31
384.19	828.55
384.39	821.53
384.58	692.80
384.78	894.08
384.97	833.23
385.17	788.76
385.36	767.70
385.56	793.44
385.75	676.41
385.95	830.89
386.14	844.93
386.34	837.91
386.53	793.44
386.72	870.68
386.92	814.51
387.11	947.92
387.31	1032.18
387.50	819.19
387.70	908.13
387.89	978.34
388.09	919.83
388.28	861.32
388.48	854.30
388.67	912.81
388.86	943.24
389.06	868.34
389.25	959.62
389.45	976.00
389.64	1020.47
389.84	1041.54
390.03	1032.18
390.22	976.00
390.42	1004.09
390.61	1043.88
390.81	1088.35
391.00	980.68
391.19	1121.12
391.39	1055.58
391.58	1062.60
391.78	1064.94
391.97	1055.58
392.16	973.66
392.36	990.05
392.55	1043.88
392.75	1083.67
392.94	1001.75
393.13	1086.01
393.33	1013.45
393.52	999.41
393.71	1097.71
393.91	1109.41
394.10	1043.88
394.29	1135.16
394.49	1125.80
394.68	1238.14
394.88	1153.88
395.07	1198.35
395.26	1146.86
395.46	1146.86
395.65	1245.16
395.84	1233.46
396.04	1336.45
396.23	1198.35
396.42	1146.86
396.62	1177.29
396.81	1252.19
397.00	1207.72
397.19	1181.97
397.39	1420.71
397.58	1348.15
397.77	1427.73
397.97	1380.92
398.16	1383.26
398.35	1427.73
398.55	1556.46
398.74	1519.01
398.93	1575.18
399.12	1427.73
399.32	1533.05
399.51	1472.20
399.70	1528.37
399.90	1458.15
400.09	1600.93
400.28	1596.25
400.47	1593.90
400.67	1514.33
400.86	1624.33
401.05	1668.80
401.24	1699.23
401.44	1626.67
401.63	1638.38
401.82	1689.87
402.01	1736.68
402.21	1753.06
402.40	1762.42
402.59	1778.81
402.78	1774.13
402.97	1755.40
403.17	1755.40
403.36	1760.08
403.55	1874.77
403.74	1898.17
403.93	1776.47
404.13	1837.32
404.32	1774.13
404.51	1849.02
404.70	1959.03
404.89	1872.43
405.09	2057.33
405.28	1905.20
405.47	1937.96
405.66	1949.67
405.85	2062.01
406.05	1975.41
406.24	1973.07
406.43	2094.78
406.62	2080.74
406.81	2209.47
407.00	2026.90
407.20	2001.16
407.39	2092.44
407.58	2045.63
407.77	2071.37
407.96	2172.02
408.15	2314.79
408.34	2146.27
408.54	2232.87
408.73	2303.09
408.92	2331.17
409.11	2272.66
409.30	2293.72
409.49	2228.19
409.68	2282.02
409.87	2310.11
410.07	2310.11
410.26	2368.62
410.45	2324.15
410.64	2361.60
410.83	2415.43
411.02	2616.72
411.21	2626.08
411.40	2523.10
411.59	2663.53
411.78	2621.40
411.98	2506.71
412.17	2689.28
412.36	2661.19
412.55	2808.64
412.74	2729.06
412.93	2649.49
413.12	2661.19
413.31	2864.82
413.50	2738.43
413.69	2857.79
413.88	2881.20
414.07	2949.08
414.26	2867.16
414.45	2939.71
414.64	2841.41
414.83	3082.49
415.02	3059.08
415.22	2984.18
415.41	3129.30
415.60	3063.76
415.79	3112.91
415.98	3246.32
416.17	3358.67
416.36	3274.41
416.55	3236.96
416.74	3208.87
416.93	3197.17
417.12	3353.99
417.31	3274.41
417.50	3281.43
417.69	3412.50
417.88	3398.46
418.07	3370.37
418.26	3400.80
418.45	3463.99
418.64	3653.58
418.83	3517.83
419.02	3496.76
419.21	3644.21
419.39	3524.85
419.58	3583.36
419.77	3623.15
419.96	3620.81
420.15	3679.32
420.34	3822.09
420.53	3756.56
420.72	3742.52
420.91	3796.35
421.10	3936.78
421.29	3850.18
421.48	3728.47
421.67	3698.05
421.86	3838.48
422.05	3868.91
422.24	3627.83
422.43	3716.77
422.61	3861.88
422.80	3786.99
422.99	3840.82
423.18	3798.69
423.37	3892.31
423.56	3873.59
423.75	3978.91
423.94	3744.86
424.13	3672.30
424.32	3763.58
424.50	3967.21
424.69	3964.87
424.88	4194.24
425.07	3896.99
425.26	3857.20
425.45	3950.82
425.64	3908.69
425.83	3906.35
426.01	3967.21
426.20	4098.28
426.39	4007.00
426.58	4016.36
426.77	3913.38
426.96	3985.93
427.15	3887.63
427.33	4081.89
427.52	4107.64
427.71	4018.70
427.90	4135.73
428.09	4184.88
428.28	4051.47
428.46	4163.81
428.65	4311.27
428.84	4229.35
429.03	4189.56
429.22	4074.87
429.40	4088.92
429.59	4039.76
429.78	4056.15
429.97	4014.02
430.16	3950.82
430.34	4042.11
430.53	4264.46
430.72	4236.37
430.91	4229.35
431.10	4294.88
431.28	4521.92
431.47	4629.58
431.66	4636.60
431.85	4599.15
432.03	4683.41
432.22	4629.58
432.41	4554.68
432.60	4631.92
432.79	4667.03
432.97	4847.25
433.16	4741.93
433.35	4664.69
433.54	4648.30
433.72	4713.84
433.91	4732.56
434.10	4699.80
434.28	4734.90
434.47	4777.03
434.66	4873.00
434.85	4971.30
435.03	4835.55
435.22	5011.09
435.41	5074.28
435.59	5093.01
435.78	4999.38
435.97	5132.79
436.16	5125.77
436.34	5153.86
436.53	5280.25
436.72	5228.76
436.90	5060.24
437.09	5242.80
437.28	5160.88
437.46	5191.31
437.65	5170.24
437.84	5238.12
438.02	5111.73
438.21	5137.48
438.40	5039.17
438.58	5282.59
438.77	5425.36
438.96	5359.83
439.14	5518.98
439.33	5504.94
439.52	5643.03
439.70	5542.39
439.89	5549.41
440.08	5540.05
440.26	5603.24
440.45	5785.80
440.63	5753.04
440.82	6094.76
441.01	5987.09
441.19	5792.83
441.38	6010.50
441.57	5982.41
441.75	6033.90
441.94	6427.11
442.12	6174.33
442.31	6349.87
442.50	6370.94
442.68	6256.25
442.87	6349.87
443.05	6286.68
443.24	6420.09
443.43	6246.89
443.61	6502.01
443.80	6555.84
443.98	6253.91
444.17	6125.18
444.35	6569.88
444.54	6553.50
444.73	6450.52
444.91	6314.77
445.10	6466.90
445.28	6347.53
445.47	6513.71
445.65	6459.88
445.84	6609.67
446.02	6497.33
446.21	6700.95
446.39	6466.90
446.58	6586.27
446.77	6705.63
446.95	6562.86
447.14	6539.46
447.32	6700.95
447.51	6513.71
447.69	6707.98
447.88	6750.10
448.06	6581.59
448.25	6569.88
448.43	6803.94
448.62	6785.21
448.80	6754.79
448.99	6684.57
449.17	6750.10
449.36	6597.97
449.54	6979.48
449.73	6951.39
449.91	6988.84
450.10	7049.69
450.28	7164.38
450.46	7026.29
450.65	7157.36
450.83	7059.06
451.02	7227.57
451.20	7243.96
451.39	7140.97
451.57	7234.60
451.76	7283.75
451.94	7283.75
452.13	7136.29
452.31	7180.76
452.49	7091.82
452.68	7194.81
452.86	7253.32
453.05	7452.27
453.23	7218.21
453.42	7400.77
453.60	7365.67
453.78	7309.49
453.97	7435.88
454.15	7309.49
454.34	7314.17
454.52	7522.48
454.70	7470.99
454.89	7618.44
455.07	7412.48
455.26	7588.02
455.44	7620.78
455.62	7630.15
455.81	7751.85
455.99	7971.86
456.17	8004.63
456.36	7805.69
456.54	7726.11
456.73	8025.70
456.91	8231.66
457.09	8042.08
457.28	8219.96
457.46	7950.80
457.64	8028.04
457.83	8259.75
458.01	7864.20
458.19	8079.53
458.38	8081.87
458.56	8145.06
458.74	8266.77
458.93	8184.85
459.11	8329.97
459.29	8191.88
459.48	8287.84
459.66	8318.26
459.84	8299.54
460.03	8638.92
460.21	8362.73
460.39	8547.64
460.57	8596.79
460.76	8491.46
460.94	8538.27
461.12	8580.40
461.31	8582.74
461.49	8578.06
461.67	8568.70
461.85	8924.46
462.04	8486.78
462.22	8961.91
462.40	8898.72
462.59	8807.44
462.77	8812.12
462.95	8922.12
463.13	8919.78
463.32	8826.16
463.50	9050.85
463.68	9039.15
463.86	8950.21
464.05	8819.14
464.23	8905.74
464.41	8940.85
464.59	8802.75
464.78	9022.77
464.96	8835.52
465.14	9252.14
465.32	9221.71
465.50	9104.68
465.69	9320.01
465.87	9088.30
466.05	9184.26
466.23	9268.52
466.41	9277.88
466.60	9504.92
466.78	9158.52
466.96	9231.07
467.14	9390.23
467.32	9383.21
467.51	9497.89
467.69	9298.95
467.87	9336.40
468.05	9603.22
468.23	9448.74
468.41	9502.58
468.60	9465.13
468.78	9565.77
468.96	9493.21
469.14	9610.24
469.32	9848.97
469.50	9479.17
469.69	9755.35
469.87	9755.35
470.05	9776.42
470.23	9748.33
470.41	9643.01
470.59	9870.04
470.77	9767.06
470.95	9977.70
471.14	10134.52
471.32	10092.39
471.50	10211.76
471.68	10347.51
471.86	10504.32
472.04	10338.15
472.22	10403.68
472.40	10071.33
472.58	10169.63
472.77	10368.57
472.95	10490.28
473.13	10820.30
473.31	10616.67
473.49	10525.39
473.67	10560.50
473.85	10822.64
474.03	11033.29
474.21	10958.39
474.39	11019.24
474.57	11290.74
474.75	11080.10
474.93	11112.86
475.12	11044.99
475.30	11236.91
475.48	11129.25
475.66	11396.07
475.84	11485.01
476.02	11363.30
476.20	11339.90
476.38	11676.93
476.56	11950.78
476.74	11702.68
476.92	11770.55
477.10	11782.26
477.28	12182.49
477.46	12168.45
477.64	12222.28
477.82	12294.83
478.00	12336.96
478.18	12248.02
478.36	12601.44
478.54	12479.74
478.72	12442.29
478.90	12973.59
479.08	12910.40
479.26	13188.92
479.44	13195.94
479.62	13394.89
479.80	13240.41
479.98	13490.85
480.16	13582.13
480.34	13586.81
480.52	13680.43
480.70	13741.29
480.88	13745.97
481.06	13987.04
481.24	13645.32
481.41	14242.16
481.59	14565.15
481.77	14583.88
481.95	14225.78
482.13	14558.13
482.31	14565.15
482.49	14824.95
482.67	14733.67
482.85	14813.25
483.03	15222.84
483.21	15517.75
483.39	15225.18
483.57	15185.40
483.74	15630.10
483.92	15793.94
484.10	15559.88
484.28	15903.94
484.46	16142.67
484.64	16074.80
484.82	15896.92
485.00	16212.89
485.18	16257.36
485.35	16484.39
485.53	16107.57
485.71	16091.18
485.89	16343.96
486.07	16559.29
486.25	16929.09
486.43	17029.74
486.61	17048.46
486.78	17186.55
486.96	17259.11
487.14	17418.27
487.32	17710.83
487.50	18071.28
487.68	17972.97
487.85	18686.84
488.03	18569.81
488.21	18593.22
488.39	18597.90
488.57	18714.92
488.75	18745.35
488.92	18878.76
489.10	19297.72
489.28	19468.58
489.46	19634.75
489.64	19321.12
489.81	19941.36
489.99	19946.05
490.17	20180.10
490.35	20060.73
490.53	20247.97
490.70	20446.92
490.88	20456.28
491.06	20821.41
491.24	20896.30
491.41	20554.58
491.59	20678.63
491.77	20751.19
491.95	21083.55
492.13	21357.39
492.30	21469.73
492.48	21305.90
492.66	21809.11
492.84	21788.05
493.01	21930.82
493.19	22092.32
493.37	21888.69
493.54	22239.77
493.72	22410.63
493.90	22714.90
494.08	22623.62
494.25	23171.30
494.43	22700.86
494.61	23190.03
494.79	23412.38
494.96	23491.96
495.14	23283.65
495.32	23503.66
495.49	23665.16
495.67	23688.56
495.85	24240.93
496.02	24041.98
496.20	24320.51
496.38	24507.75
496.55	24556.90
496.73	24809.68
496.91	24805.00
497.09	24961.81
497.26	25069.48
497.44	24849.47
497.62	25207.57
497.79	25427.58
497.97	25223.95
498.14	24957.13
498.32	25591.42
498.50	25736.53
498.67	26075.91
498.85	26174.21
499.03	25947.18
499.20	26263.15
499.38	26464.44
499.56	26394.22
499.73	26384.86
499.91	26143.78
500.08	26426.99
500.26	26391.88
500.44	26705.51
500.61	26824.88
500.79	26438.69
500.97	26986.38
501.14	27417.04
501.32	27213.41
501.49	27115.11
501.67	27318.73
501.84	27070.64
502.02	27545.76
502.20	27421.72
502.37	28175.37
502.55	27960.04
502.72	28166.01
502.90	27868.76
503.07	27936.63
503.25	28161.33
503.43	27807.90
503.60	28280.69
503.78	28215.16
503.95	28297.08
504.13	28280.69
504.30	28744.12
504.48	28636.45
504.65	28706.67
504.83	29544.58
505.01	29446.28
505.18	28945.41
505.36	29362.02
505.53	29032.00
505.71	29748.21
505.88	29785.66
506.06	29448.62
506.23	29827.79
506.41	29605.44
506.58	29675.65
506.76	29710.76
506.93	30033.75
507.11	29975.24
507.28	29867.58
507.46	29916.73
507.63	29902.68
507.81	30099.29
507.98	30506.54
508.16	30445.69
508.33	30471.43
508.50	30686.76
508.68	30742.94
508.85	31250.83
509.03	31068.27
509.20	31037.84
509.38	31456.80
509.55	30869.33
509.73	31164.23
509.90	31618.30
510.08	31051.89
510.25	31337.43
510.42	31475.52
510.60	31480.21
510.77	31700.22
510.95	31868.73
511.12	32102.79
511.30	32245.56
511.47	32039.59
511.64	31990.44
511.82	32364.93
511.99	31978.74
512.17	32327.48
512.34	32130.87
512.51	32650.47
512.69	32727.71
512.86	32676.22
513.04	32779.20
513.21	33270.72
513.38	32526.42
513.56	32872.82
513.73	32680.90
513.90	33254.33
514.08	32732.39
514.25	33277.74
514.43	33076.45
514.60	33614.77
514.77	33324.55
514.95	34003.30
515.12	33710.74
515.29	33684.99
515.47	34150.76
515.64	34227.99
515.81	34094.58
515.99	33642.86
516.16	33663.93
516.33	33656.90
516.51	33734.14
516.68	33446.26
516.85	33511.79
517.03	33750.52
517.20	33462.64
517.37	34274.80
517.54	34565.03
517.72	34260.76
517.89	33975.22
518.06	33993.94
518.24	33993.94
518.41	34469.07
518.58	34501.84
518.75	35026.12
518.93	34885.68
519.10	34953.56
519.27	35288.26
519.45	35101.01
519.62	35288.26
519.79	35283.58
519.96	35342.09
520.14	35688.49
520.31	35419.33
520.48	35295.28
520.65	35218.04
520.83	35864.03
521.00	36196.38
521.17	35756.36
521.34	35646.36
521.52	36046.59
521.69	36109.78
521.86	36257.24
522.03	36233.83
522.20	36545.12
522.38	36493.63
522.55	36582.57
522.72	36407.03
522.89	36294.69
523.07	36802.58
523.24	36814.29
523.41	37226.22
523.58	37113.87
523.75	37251.97
523.92	37287.07
524.10	37411.12
524.27	37069.40
524.44	37214.52
524.61	37659.22
524.78	37617.09
524.96	37476.66
525.13	37591.34
525.30	37820.72
525.47	38199.88
525.64	37467.30
525.81	37778.59
525.98	37792.63
526.16	37464.96
526.33	37343.25
526.50	37869.87
526.67	37397.08
526.84	37060.04
527.01	37418.14
527.18	38061.79
527.36	38368.40
527.53	38033.71
527.70	38234.99
527.87	38368.40
528.04	38370.74
528.21	38644.59
528.38	38878.64
528.55	38859.91
528.72	39098.65
528.89	38944.17
529.07	38719.48
529.24	39178.23
529.41	38801.40
529.58	39115.03
529.75	38902.04
529.92	38897.36
530.09	39210.99
530.26	39194.61
530.43	39365.47
530.60	39351.43
530.77	39660.38
530.94	39545.69
531.11	39196.95
531.28	39143.12
531.46	39358.45
531.63	39660.38
531.80	39505.90
531.97	39688.46
532.14	39524.63
532.31	39232.06
532.48	39632.29
532.65	39669.74
532.82	39709.53
532.99	40076.99
533.16	39402.92
533.33	40086.36
533.50	40259.55
533.67	40495.95
533.84	40212.74
534.01	39669.74
534.18	40470.20
534.35	40505.31
534.52	40273.60
534.69	40589.57
534.86	40863.41
535.03	40495.95
535.20	40961.72
535.37	40975.76
535.54	41109.17
535.71	40388.28
535.88	41102.15
536.05	40856.39
536.22	40917.25
536.38	41003.85
536.55	40622.34
536.72	40479.57
536.89	40755.75
537.06	41024.91
537.23	41031.93
537.40	41113.85
537.57	40865.75
537.74	41361.95
537.91	41462.59
538.08	41209.81
538.25	40875.12
538.42	40992.14
538.59	41780.90
538.75	40987.46
538.92	41193.43
539.09	41947.08
539.26	41336.20
539.43	41544.51
539.60	41254.28
539.77	41097.47
539.94	41490.68
540.11	41488.34
540.28	41478.97
540.44	41289.39
540.61	41097.47
540.78	42005.59
540.95	41572.60
541.12	41570.25
541.29	41591.32
541.46	41670.90
541.62	41909.63
541.79	42014.96
541.96	41280.03
542.13	41757.50
542.30	41911.97
542.47	42344.97
542.63	42045.38
542.80	42178.79
542.97	42515.83
543.14	42572.00
543.31	42789.67
543.48	42452.64
543.64	42749.88
543.81	43028.41
543.98	43189.91
544.15	42857.55
544.32	43072.88
544.48	43620.56
544.65	43269.48
544.82	43084.58
544.99	43192.25
545.16	43107.99
545.32	42431.57
545.49	43517.58
545.66	43620.56
545.83	43232.04
546.00	43122.03
546.16	43178.20
546.33	43026.07
546.50	43105.65
546.67	42813.08
546.83	42981.60
547.00	43438.00
547.17	43477.79
547.34	43503.54
547.50	43777.38
547.67	43929.51
547.84	43278.85
548.00	43461.41
548.17	44126.12
548.34	43615.88
548.51	44184.63
548.67	44032.50
548.84	43948.24
549.01	43901.43
549.18	43908.45
549.34	43400.55
549.51	44044.20
549.68	44399.96
549.84	43868.66
550.01	43749.29
550.18	44048.88
550.34	44502.95
550.51	44285.28
550.68	44362.51
550.84	43812.49
551.01	43997.39
551.18	44133.14
551.34	44327.41
551.51	44421.03
551.68	44416.35
551.84	44573.16
552.01	44201.02
552.18	44205.70
552.34	44299.32
552.51	44465.50
552.68	44421.03
552.84	44683.17
553.01	44690.19
553.18	44093.35
553.34	44828.28
553.51	44194.00
553.67	44617.63
553.84	44605.93
554.01	44612.95
554.17	45153.62
554.34	44905.52
554.51	45280.00
554.67	44999.14
554.84	45078.72
555.00	44811.90
555.17	44790.83
555.33	45015.52
555.50	44378.90
555.67	45038.93
555.83	44802.53
556.00	44952.33
556.16	45132.55
556.33	44926.58
556.50	44996.80
556.66	44980.42
556.83	44762.75
556.99	45162.98
557.16	45303.41
557.32	45415.76
557.49	45343.20
557.65	45382.99
557.82	44788.49
557.98	45172.34
558.15	44945.31
558.32	45167.66
558.48	44905.52
558.65	44912.54
558.81	45212.13
558.98	45352.56
559.14	45050.63
559.31	45460.23
559.47	45354.90
559.64	45731.73
559.80	45500.01
559.97	45551.51
560.13	45305.75
560.30	45085.74
560.46	45830.03
560.63	45584.27
560.79	45923.65
560.96	45745.77
561.12	45944.72
561.29	45111.49
561.45	45687.26
561.61	45446.18
561.78	45272.98
561.94	45481.29
562.11	45780.88
562.27	45354.90
562.44	45303.41
562.60	45546.82
562.77	45778.54
562.93	45598.32
563.10	45656.83
563.26	45595.98
563.42	45640.45
563.59	45507.04
563.75	45415.76
563.92	46075.79
564.08	45839.39
564.24	45904.93
564.41	45595.98
564.57	45888.54
564.74	45778.54
564.90	45947.06
565.07	45666.19
565.23	46106.21
565.39	45872.16
565.56	45851.09
565.72	45717.68
565.88	45731.73
566.05	45633.42
566.21	45769.18
566.38	45317.45
566.54	45869.82
566.70	46461.97
566.87	46244.30
567.03	45923.65
567.19	46501.76
567.36	46038.34
567.52	46302.82
567.68	46038.34
567.85	45944.72
568.01	46124.94
568.17	45911.95
568.34	45883.86
568.50	45790.24
568.66	46033.66
568.83	45940.04
568.99	45631.08
569.15	46082.81
569.32	45827.69
569.48	45720.02
569.64	45986.85
569.81	46478.36
569.97	45918.97
570.13	45935.35
570.30	45792.58
570.46	45689.60
570.62	45631.08
570.78	45691.94
570.95	45647.47
571.11	46099.19
571.27	45921.31
571.43	45815.99
571.60	45883.86
571.76	46270.05
571.92	46075.79
572.09	46064.08
572.25	46092.17
572.41	46057.06
572.57	45701.30
572.74	46141.32
572.90	46548.57
573.06	46106.21
573.22	46213.88
573.38	46277.07
573.55	46092.17
573.71	46396.44
573.87	45923.65
574.03	45923.65
574.20	46087.49
574.36	46080.47
574.52	46361.33
574.68	46323.88
574.84	45846.41
575.01	46251.33
575.17	46358.99
575.33	45900.25
575.49	45769.18
575.65	46330.90
575.82	46234.94
575.98	45862.80
576.14	46564.96
576.30	46209.20
576.46	45965.78
576.62	46047.70
576.79	46347.29
576.95	45954.08
577.11	46124.94
577.27	46234.94
577.43	46806.03
577.59	46368.35
577.75	45937.69
577.92	45853.44
578.08	45783.22
578.24	46068.76
578.40	46218.56
578.56	46078.13
578.72	46014.93
578.88	46064.08
579.04	46522.83
579.21	46043.02
579.37	46429.21
579.53	46368.35
579.69	46206.86
579.85	46071.10
580.01	46211.54
580.17	46026.63
580.33	46562.62
580.49	46127.28
580.65	46560.28
580.82	46256.01
580.98	46050.04
581.14	46085.15
581.30	46501.76
581.46	46368.35
581.62	46497.08
581.78	46146.00
581.94	46756.88
582.10	46426.87
582.26	46466.66
582.42	46419.84
582.58	46316.86
582.74	46129.62
582.90	46623.47
583.06	46335.59
583.22	46440.91
583.38	46770.93
583.54	46466.66
583.70	46663.26
583.86	46621.13
584.02	46007.91
584.18	46588.36
584.34	46171.75
584.50	46347.29
584.66	46651.56
584.82	46309.84
584.98	46625.81
585.14	46188.13
585.30	46237.28
585.46	46504.10
585.62	46209.20
585.78	46323.88
585.94	46096.85
586.10	46202.18
586.26	45965.78
586.42	46579.00
586.58	46457.29
586.74	46522.83
586.90	46307.50
587.06	46375.37
587.22	45890.88
587.38	45846.41
587.54	46738.16
587.70	46375.37
587.86	46597.73
588.02	46457.29
588.18	46017.27
588.34	46167.07
588.49	46094.51
588.65	45633.42
588.81	45687.26
588.97	45930.67
589.13	45270.64
589.29	46267.71
589.45	46546.23
589.61	46298.14
589.77	46443.25
589.93	46059.40
590.08	46328.56
590.24	46436.23
590.40	46260.69
590.56	46918.38
590.72	46586.02
590.88	46419.84
591.04	46579.00
591.20	47262.44
591.35	46766.24
591.51	47192.22
591.67	46415.16
591.83	46607.09
591.99	46447.93
592.15	46490.06
592.31	46480.70
592.46	46335.59
592.62	46216.22
592.78	46513.47
592.94	46478.36
593.10	46529.85
593.26	46681.98
593.41	46401.12
593.57	46403.46
593.73	46340.27
593.89	46990.94
594.05	46625.81
594.20	46443.25
594.36	46707.73
594.52	46403.46
594.68	46358.99
594.84	46066.42
594.99	46684.33
595.15	46272.39
595.31	46691.35
595.47	46480.70
595.62	46485.38
595.78	46525.17
595.94	46939.44
596.10	46672.62
596.25	46602.41
596.41	46817.74
596.57	46485.38
596.73	46962.85
596.88	46539.21
597.04	46550.91
597.20	46789.65
597.36	46784.97
597.51	47082.22
597.67	47131.37
597.83	46787.31
597.99	47213.29
598.14	46550.91
598.30	46445.59
598.46	46232.60
598.61	46398.78
598.77	46246.65
598.93	46380.06
599.09	46717.09
599.24	47054.13
599.40	46782.63
599.56	47133.71
599.71	46415.16
599.87	46508.79
600.03	46665.60
600.18	46326.22
600.34	46588.36
600.50	46618.79
600.65	46419.84
600.81	46553.26
600.97	46923.06
601.12	46756.88
601.28	46841.14
601.44	47019.02
601.59	46672.62
601.75	46281.75
601.91	46438.57
602.06	46202.18
602.22	46649.22
602.37	46557.94
602.53	46663.26
602.69	46609.43
602.84	46576.66
603.00	46700.71
603.16	46298.14
603.31	46522.83
603.47	46363.67
603.62	46686.67
603.78	46539.21
603.94	46117.92
604.09	47012.00
604.25	46787.31
604.40	46340.27
604.56	46333.24
604.71	46939.44
604.87	46415.16
605.03	46581.34
605.18	46639.86
605.34	46216.22
605.49	46085.15
605.65	46567.30
605.80	46447.93
605.96	46513.47
606.12	46637.51
606.27	46705.39
606.43	46520.49
606.58	46700.71
606.74	45907.27
606.89	46265.37
607.05	46174.09
607.20	46358.99
607.36	46323.88
607.51	46511.13
607.67	46415.16
607.82	46410.48
607.98	45811.31
608.13	46424.53
608.29	46387.08
608.44	45631.08
608.60	45607.68
608.75	45528.10
608.91	45579.59
609.06	46094.51
609.22	46433.89
609.37	45841.73
609.53	45984.51
609.68	45577.25
609.84	46005.57
609.99	45881.52
610.15	45844.07
610.30	45797.26
610.46	45745.77
610.61	46122.60
610.76	45923.65
610.92	45837.05
611.07	45837.05
611.23	46195.15
611.38	46054.72
611.54	46101.53
611.69	46293.46
611.84	45684.92
612.00	45610.02
612.15	46007.91
612.31	45923.65
612.46	45553.85
612.62	45806.62
612.77	45659.17
612.92	45633.42
613.08	45867.48
613.23	45668.53
613.39	45638.11
613.54	45656.83
613.69	45434.48
613.85	44694.87
614.00	45500.01
614.15	45975.14
614.31	46061.74
614.46	45961.10
614.62	45324.47
614.77	45254.26
614.92	45544.48
615.08	45088.08
615.23	45251.92
615.38	45296.39
615.54	44748.70
615.69	45420.44
615.84	44964.03
616.00	45333.84
616.15	45212.13
616.30	44851.69
616.46	44622.31
616.61	45015.52
616.76	44903.18
616.92	44542.74
617.07	45008.50
617.22	44903.18
617.37	44739.34
617.53	45457.88
617.68	45347.88
617.83	45155.96
617.99	45158.30
618.14	44959.35
618.29	45120.85
618.45	44954.67
618.60	44481.88
618.75	45008.50
618.90	44889.13
619.06	45078.72
619.21	44669.12
619.36	45034.25
619.51	44563.80
619.67	44776.79
619.82	44758.06
619.97	45336.18
620.12	44451.45
620.28	44790.83
620.43	44648.06
620.58	44748.70
620.73	44823.60
620.89	44378.90
621.04	44350.81
621.19	44203.36
621.34	44591.89
621.49	44573.16
621.65	44458.48
621.80	44034.84
621.95	43971.64
622.10	44470.18
622.25	43981.01
622.41	43936.54
622.56	43938.88
622.71	44030.16
622.86	43913.13
623.01	44212.72
623.16	43814.83
623.32	43875.68
623.47	43730.57
623.62	44332.09
623.77	43838.23
623.92	44041.86
624.07	44184.63
624.23	43959.94
624.38	43695.46
624.53	43585.46
624.68	43709.50
624.83	43856.96
624.98	43498.86
625.13	43430.98
625.29	43765.68
625.44	43700.14
625.59	43562.05
625.74	43152.46
625.89	42689.03
626.04	43063.52
626.19	43154.80
626.34	43861.64
626.49	43674.40
626.65	43215.65
626.80	43400.55
626.95	43552.69
627.10	43360.76
627.25	43239.06
627.40	42951.17
627.55	42934.79
627.70	42363.70
627.85	43086.92
628.00	42726.48
628.15	43318.64
628.30	42796.70
628.45	43213.31
628.60	42927.77
628.76	42817.76
628.91	43150.12
629.06	42848.19
629.21	42546.26
629.36	42593.07
629.51	42637.54
629.66	42721.80
629.81	42265.39
629.96	42342.63
630.11	42564.98
630.26	42775.63
630.41	42799.04
630.56	43042.45
630.71	42522.85
630.86	42572.00
631.01	42326.25
631.16	42813.08
631.31	42089.85
631.46	42380.08
631.61	42452.64
631.76	42330.93
631.91	42408.17
632.06	42382.42
632.21	42728.82
632.36	42335.61
632.51	42267.73
632.66	42319.23
632.81	42183.48
632.96	41907.29
633.10	41900.27
633.25	42162.41
633.40	42012.62
633.55	42424.55
633.70	42490.09
633.85	42146.03
634.00	41315.14
634.15	42110.92
634.30	42110.92
634.45	41731.75
634.60	42024.32
634.75	42017.30
634.90	41933.04
635.05	41406.42
635.19	41670.90
635.34	41897.93
635.49	41434.50
635.64	41675.58
635.79	41628.77
635.94	41879.21
636.09	41586.64
636.24	41556.21
636.39	41574.94
636.53	41598.34
636.68	41212.15
636.83	41319.82
636.98	41706.01
637.13	40914.90
637.28	41263.64
637.43	41818.35
637.57	41448.55
637.72	41289.39
637.87	41263.64
638.02	40999.16
638.17	41263.64
638.32	41146.62
638.46	41038.95
638.61	41008.53
638.76	40760.43
638.91	41308.11
639.06	41312.80
639.20	41006.19
639.35	41244.92
639.50	40535.74
639.65	41205.13
639.80	41069.38
639.94	40994.48
640.09	41088.10
640.24	41090.44
640.39	41034.27
640.54	40509.99
640.68	40720.64
640.83	40987.46
640.98	40189.34
641.13	40786.18
641.27	41027.25
641.42	40535.74
641.57	40390.62
641.72	40325.09
641.86	40100.40
642.01	40435.10
642.16	40346.15
642.31	39927.20
642.45	40591.91
642.60	40039.54
642.75	40013.80
642.90	40364.88
643.04	40229.13
643.19	40453.82
643.34	40772.13
643.48	39988.05
643.63	40509.99
643.78	40100.40
643.93	39941.24
644.07	40172.96
644.22	40229.13
644.37	39742.30
644.51	39990.39
644.66	40816.60
644.81	40259.55
644.95	40212.74
645.10	40158.91
645.25	40264.24
645.39	39840.60
645.54	40112.10
645.69	39718.89
645.83	39751.66
645.98	40011.46
646.13	39576.12
646.27	39983.37
646.42	39896.77
646.57	39604.20
646.71	39730.59
646.86	39782.09
647.00	39662.72
647.15	39812.51
647.30	39796.13
647.44	39618.25
647.59	39583.14
647.74	39840.60
647.88	39503.56
648.03	39693.15
648.17	39758.68
648.32	39608.89
648.47	39445.05
648.61	39239.08
648.76	39461.43
648.90	39679.10
649.05	39082.27
649.20	39182.91
649.34	39159.50
649.49	39096.31
649.63	38733.53
649.78	39159.50
649.92	39082.27
650.07	39140.78
650.21	39304.62
650.36	39196.95
650.51	39079.92
650.65	39302.28
650.80	39356.11
650.94	39262.49
651.09	38930.13
651.23	39168.87
651.38	39215.68
651.52	38752.25
651.67	39253.12
651.81	38876.30
651.96	38370.74
652.10	38490.11
652.25	38567.35
652.39	38763.95
652.54	38642.24
652.68	38785.02
652.83	38778.00
652.97	38546.28
653.12	38946.51
653.26	38548.62
653.41	38230.31
653.55	38452.66
653.70	38302.87
653.84	38286.48
653.99	38487.77
654.13	38700.76
654.27	38122.65
654.42	38223.29
654.56	38356.70
654.71	38429.26
654.85	38146.05
655.00	38600.12
655.14	37975.19
655.29	38291.16
655.43	38176.48
655.57	37858.17
655.72	37799.65
655.86	37127.92
656.01	37266.01
656.15	37134.94
656.30	37401.76
656.44	38099.24
656.58	37373.67
656.73	37780.93
656.87	38040.73
657.01	37586.66
657.16	37661.56
657.30	37890.93
657.45	37448.57
657.59	37654.54
657.73	37336.23
657.88	37572.62
658.02	37645.18
658.16	37848.80
658.31	37544.53
658.45	37591.34
658.60	37322.18
658.74	37455.59
658.88	37748.16
659.03	36975.78
659.17	37046.00
659.31	37530.49
659.46	36957.06
659.60	37305.80
659.74	37570.28
659.89	37067.06
660.03	36952.38
660.17	37001.53
660.32	36825.99
660.46	37031.96
660.60	36931.31
660.74	36809.61
660.89	36889.18
661.03	36996.85
661.17	36411.71
661.32	35978.72
661.46	36788.54
661.60	36570.87
661.74	36797.90
661.89	36598.96
662.03	36615.34
662.17	36004.46
662.31	36268.94
662.46	36423.42
662.60	36311.07
662.74	36404.69
662.88	36062.97
663.03	35452.09
663.17	36133.19
663.31	35924.88
663.45	35971.69
663.60	35665.08
663.74	35587.85
663.88	35789.13
664.02	35555.08
664.17	35644.02
664.31	35707.21
664.45	35559.76
664.59	35817.22
664.73	35143.14
664.88	35225.06
665.02	35672.10
665.16	35021.44
665.30	35236.77
665.44	35058.88
665.59	35178.25
665.73	34836.53
665.87	35082.29
666.01	35316.34
666.15	34700.78
666.29	34789.72
666.44	34937.18
666.58	34771.00
666.72	35049.52
666.86	34988.67
667.00	34724.19
667.14	34717.17
667.28	34492.47
667.43	34504.18
667.57	34609.50
667.71	34115.65
667.85	34403.53
667.99	34443.32
668.13	33720.10
668.27	34211.61
668.41	34597.80
668.56	34122.67
668.70	34410.56
668.84	33991.60
668.98	33949.47
669.12	33741.16
669.26	33694.35
669.40	33589.03
669.54	33446.26
669.68	33469.66
669.82	33151.35
669.96	33289.44
670.10	33266.03
670.25	33682.65
670.39	33504.77
670.53	33188.80
670.67	32961.76
670.81	33434.55
670.95	32964.10
671.09	32842.40
671.23	32978.15
671.37	33020.28
671.51	32896.23
671.65	32561.53
671.79	32362.59
671.93	32425.78
672.07	33020.28
672.21	32893.89
672.35	32395.35
672.49	32795.59
672.63	32423.44
672.77	32634.09
672.91	32388.33
673.05	32144.92
673.19	32212.79
673.33	32046.62
673.47	31920.23
673.61	32053.64
673.75	31194.66
673.89	31388.92
674.03	31412.33
674.17	31732.98
674.31	32013.85
674.45	31522.34
674.59	31711.92
674.73	31627.66
674.87	31402.97
675.01	31171.25
675.15	31332.75
675.29	30792.09
675.43	31651.06
675.56	31150.19
675.70	31171.25
675.84	30761.66
675.98	29813.74
676.12	30642.29
676.26	30291.21
676.40	30471.43
676.54	30623.57
676.68	30295.89
676.82	29848.85
676.96	30389.52
677.10	30101.63
677.23	29982.26
677.37	30092.27
677.51	29940.13
677.65	29219.25
677.79	29134.99
677.93	29579.69
678.07	29193.50
678.21	29352.66
678.34	29319.89
678.48	29191.16
678.62	29027.32
678.76	28676.24
678.90	28498.36
679.04	28453.89
679.18	29088.18
679.31	28243.24
679.45	28465.60
679.59	28198.77
679.73	28194.09
679.87	28189.41
680.00	27777.48
680.14	28060.68
680.28	27835.99
680.42	28065.36
680.56	28339.21
680.70	27601.94
680.83	27985.79
680.97	27938.97
681.11	27653.43
681.25	27548.11
681.39	27363.20
681.52	27321.07
681.66	27370.22
681.80	27683.86
681.94	27367.88
682.07	26993.40
682.21	26668.06
682.35	26859.99
682.49	26787.43
682.62	26728.92
682.76	26555.72
682.90	26630.62
683.04	26445.71
683.17	26171.87
683.31	25851.22
683.45	26050.16
683.59	25781.00
683.72	25673.34
683.86	25781.00
684.00	25919.09
684.13	25905.05
684.27	25467.37
684.41	25542.27
684.55	24929.05
684.68	25324.60
684.82	25383.11
684.96	24975.86
685.09	25025.01
685.23	25015.65
685.37	25055.43
685.50	24830.74
685.64	24758.19
685.78	24458.60
685.91	24634.14
686.05	24320.51
686.19	24020.92
686.32	24369.66
686.46	23744.73
686.60	23906.23
686.73	23669.84
686.87	23227.48
687.01	23601.96
687.14	23508.34
687.28	23037.89
687.42	23229.82
687.55	23337.48
687.69	23232.16
687.82	23143.22
687.96	23304.71
688.10	23433.44
688.23	23016.83
688.37	22686.81
688.50	22740.64
688.64	22415.31
688.78	22607.23
688.91	22146.15
689.05	22944.27
689.18	22043.17
689.32	22302.96
689.46	22431.69
689.59	22436.38
689.73	22164.87
689.86	22047.85
690.00	22239.77
690.13	21673.36
690.27	21884.01
690.41	21680.38
690.54	21488.46
690.68	21453.35
690.81	21589.10
690.95	21366.75
691.08	21179.51
691.22	21223.98
691.35	21338.66
691.49	21240.36
691.62	21383.13
691.76	21216.96
691.89	20943.11
692.03	20783.96
692.16	20627.14
692.30	20601.40
692.43	20322.87
692.57	20163.72
692.70	20219.89
692.84	20386.07
692.97	19847.74
693.11	19974.13
693.24	19866.47
693.38	19899.23
693.51	19695.61
693.65	19822.00
693.78	19831.36
693.92	19887.53
694.05	19721.35
694.19	19503.68
694.32	19391.34
694.45	19040.26
694.59	19077.71
694.72	19068.34
694.86	19115.16
694.99	19061.32
695.13	18977.06
695.26	19068.34
695.39	18576.83
695.53	18838.97
695.66	18829.61
695.80	18764.07
695.93	19035.58
696.07	18207.03
696.20	18331.08
696.33	18354.48
696.47	17954.25
696.60	18017.44
696.73	18075.96
696.87	17963.61
697.00	18115.75
697.14	17975.31
697.27	17893.40
697.40	17785.73
697.54	17626.57
697.67	17289.54
697.80	17418.27
697.94	17198.26
698.07	17212.30
698.21	17186.55
698.34	17149.11
698.47	16744.19
698.61	16973.56
698.74	16781.64
698.87	16798.02
699.01	16606.10
699.14	16175.44
699.27	16535.88
699.40	16273.74
699.54	16315.87
699.67	16133.31
699.80	16308.85
699.94	16512.48
700.07	16243.32
700.20	16203.53
700.34	15962.45
700.47	16135.65
700.60	16126.29
700.73	16100.55
700.87	16011.60
701.00	15761.17
701.13	15772.87
701.26	15515.41
701.40	15604.35
701.53	15318.81
701.66	15459.24
701.79	15346.89
701.93	15122.20
702.06	15197.10
702.19	14810.91
702.32	15075.39
702.46	14972.41
702.59	14721.97
702.72	15051.99
702.85	14813.25
702.99	14717.29
703.12	14586.22
703.25	14471.53
703.38	14476.21
703.51	14003.43
703.65	14373.23
703.78	14176.62
703.91	14305.35
704.04	13975.34
704.17	14211.73
704.31	14331.10
704.44	13841.93
704.57	13914.48
704.70	14157.90
704.83	13921.51
704.96	13834.91
705.10	13661.71
705.23	13696.82
>>>>>End Processed Spectral Data<<<<<
