SpectraSuite Data File
++++++++++++++++++++++++++++++++++++
Date: Fri Oct 25 11:23:40 EDT 2013
User: price-jones
Dark Spectrum Present: No
Reference Spectrum Present: No
Number of Sampled Component Spectra: 1
Spectrometers: USB2+H05261
Integration Time (usec): 100000 (USB2+H05261)
Spectra Averaged: 1 (USB2+H05261)
Boxcar Smoothing: 0 (USB2+H05261)
Correct for Electrical Dark: No (USB2+H05261)
Strobe/Lamp Enabled: No (USB2+H05261)
Correct for Detector Non-linearity: No (USB2+H05261)
Correct for Stray Light: No (USB2+H05261)
Number of Pixels in Processed Spectrum: 2048
>>>>>Begin Processed Spectral Data<<<<<
365.73	269.16
365.92	269.16
366.12	269.16
366.32	110.01
366.52	133.41
366.72	161.50
366.91	131.07
367.11	168.52
367.31	126.39
367.51	121.71
367.70	138.09
367.90	138.09
368.10	140.43
368.30	126.39
368.49	77.24
368.69	84.26
368.89	81.92
369.09	138.09
369.28	208.31
369.48	110.01
369.68	119.37
369.87	163.84
370.07	117.03
370.27	297.25
370.47	301.93
370.66	571.09
370.86	643.65
371.06	624.92
371.25	763.01
371.45	734.93
371.65	704.50
371.84	662.37
372.04	695.14
372.24	732.59
372.44	716.20
372.63	720.88
372.83	751.31
373.03	716.20
373.22	753.65
373.42	734.93
373.62	732.59
373.81	807.48
374.01	854.30
374.21	763.01
374.40	812.17
374.60	779.40
374.79	767.70
374.99	786.42
375.19	798.12
375.38	777.06
375.58	833.23
375.78	877.70
375.97	849.61
376.17	861.32
376.37	954.94
376.56	908.13
376.76	828.55
376.95	833.23
377.15	922.17
377.35	851.96
377.54	903.45
377.74	910.47
377.93	877.70
378.13	922.17
378.33	973.66
378.52	910.47
378.72	880.04
378.91	858.98
379.11	880.04
379.31	889.40
379.50	891.74
379.70	983.02
379.89	940.90
380.09	919.83
380.28	1032.18
380.48	856.64
380.68	910.47
380.87	1011.11
381.07	1015.79
381.26	976.00
381.46	1055.58
381.65	1032.18
381.85	1022.81
382.04	1004.09
382.24	952.60
382.43	1041.54
382.63	1020.47
382.83	1008.77
383.02	1057.92
383.22	1100.05
383.41	1062.60
383.61	1179.63
383.80	1074.31
384.00	1034.52
384.19	1100.05
384.39	1102.39
384.58	1221.76
384.78	1156.22
384.97	1186.65
385.17	1146.86
385.36	1210.06
385.56	1118.78
385.75	1114.10
385.95	1167.93
386.14	1221.76
386.34	1188.99
386.53	1179.63
386.72	1226.44
386.92	1242.82
387.11	1282.61
387.31	1261.55
387.50	1179.63
387.70	1235.80
387.89	1226.44
388.09	1299.00
388.28	1266.23
388.48	1270.91
388.67	1238.14
388.86	1392.62
389.06	1364.53
389.25	1301.34
389.45	1275.59
389.64	1364.53
389.84	1366.87
390.03	1420.71
390.22	1373.89
390.42	1345.81
390.61	1352.83
390.81	1348.15
391.00	1495.60
391.19	1507.30
391.39	1542.41
391.58	1469.86
391.78	1465.18
391.97	1495.60
392.16	1479.22
392.36	1460.49
392.55	1474.54
392.75	1451.13
392.94	1479.22
393.13	1584.54
393.33	1586.88
393.52	1617.31
393.71	1605.61
393.91	1521.35
394.10	1472.20
394.29	1703.91
394.49	1621.99
394.68	1703.91
394.88	1558.80
395.07	1624.33
395.26	1570.50
395.46	1570.50
395.65	1764.76
395.84	1736.68
396.04	1823.28
396.23	1729.66
396.42	1757.74
396.62	1739.02
396.81	1732.00
397.00	1732.00
397.19	1762.42
397.39	1813.92
397.58	1900.52
397.77	1729.66
397.97	1863.07
398.16	1802.21
398.35	1839.66
398.55	1937.96
398.74	1907.54
398.93	2026.90
399.12	1900.52
399.32	1837.32
399.51	1933.28
399.70	2001.16
399.90	2005.84
400.09	1973.07
400.28	2087.76
400.47	1991.80
400.67	2057.33
400.86	1916.90
401.05	2115.84
401.24	2139.25
401.44	2113.50
401.63	2092.44
401.82	2101.80
402.01	2097.12
402.21	2090.10
402.40	2197.76
402.59	2146.27
402.78	2223.51
402.97	2195.42
403.17	2218.83
403.36	2347.56
403.55	2246.91
403.74	2251.60
403.93	2279.68
404.13	2394.37
404.32	2448.20
404.51	2471.61
404.70	2335.85
404.89	2345.22
405.09	2534.80
405.28	2504.37
405.47	2413.09
405.66	2513.74
405.85	2534.80
406.05	2553.52
406.24	2590.97
406.43	2544.16
406.62	2689.28
406.81	2750.13
407.00	2607.36
407.20	2654.17
407.39	2558.21
407.58	2665.87
407.77	2693.96
407.96	2693.96
408.15	2801.62
408.34	2836.73
408.54	2738.43
408.73	2745.45
408.92	2803.96
409.11	2970.14
409.30	2722.04
409.49	2984.18
409.68	2825.03
409.87	2981.84
410.07	2972.48
410.26	2970.14
410.45	2960.78
410.64	3056.74
410.83	3133.98
411.02	3063.76
411.21	3103.55
411.40	3063.76
411.59	3239.30
411.78	3047.38
411.98	3232.28
412.17	3213.56
412.36	3251.00
412.55	3400.80
412.74	3379.73
412.93	3449.95
413.12	3389.10
413.31	3529.53
413.50	3517.83
413.69	3599.74
413.88	3548.25
414.07	3595.06
414.26	3616.13
414.45	3716.77
414.64	3597.40
414.83	3784.65
415.02	3770.60
415.22	3794.01
415.41	3789.33
415.60	3946.14
415.79	4004.66
415.98	3983.59
416.17	3992.95
416.36	4007.00
416.55	3911.04
416.74	4072.53
416.93	4025.72
417.12	4170.83
417.31	4194.24
417.50	4217.65
417.69	4126.36
417.88	4128.70
418.07	4271.48
418.26	4407.23
418.45	4257.43
418.64	4505.53
418.83	4430.63
419.02	4425.95
419.21	4468.08
419.39	4475.10
419.58	4521.92
419.77	4652.98
419.96	4617.88
420.15	4601.49
420.34	4716.18
420.53	4690.43
420.72	4484.47
420.91	4631.92
421.10	4762.99
421.29	4765.33
421.48	4702.14
421.67	4781.71
421.86	4664.69
422.05	4730.22
422.24	4875.34
422.43	4896.40
422.61	4858.95
422.80	4992.36
422.99	5006.41
423.18	5018.11
423.37	5050.88
423.56	4966.62
423.75	4940.87
423.94	4755.97
424.13	4573.41
424.32	4741.93
424.50	4999.38
424.69	4964.28
424.88	5125.77
425.07	4884.70
425.26	4933.85
425.45	4964.28
425.64	5025.13
425.83	4985.34
426.01	5050.88
426.20	4985.34
426.39	4966.62
426.58	5060.24
426.77	5036.83
426.96	5046.20
427.15	5102.37
427.33	5151.52
427.52	5107.05
427.71	5247.48
427.90	5308.34
428.09	5195.99
428.28	5427.70
428.46	5317.70
428.65	5324.72
428.84	5413.66
429.03	5572.82
429.22	5406.64
429.40	5509.62
429.59	5500.26
429.78	5357.49
429.97	5373.87
430.16	5383.23
430.34	5706.23
430.53	5823.25
430.72	5647.71
430.91	5575.16
431.10	5621.97
431.28	5788.14
431.47	5647.71
431.66	5963.68
431.85	5856.02
432.03	5973.05
432.22	6024.54
432.41	6029.22
432.60	5832.62
432.79	5963.68
432.97	6001.13
433.16	6200.08
433.35	5973.05
433.54	6143.91
433.72	6141.57
433.91	6181.35
434.10	6190.72
434.28	6289.02
434.47	6242.21
434.66	6193.06
434.85	6258.59
435.03	6382.64
435.22	6293.70
435.41	6448.18
435.59	6282.00
435.78	6476.26
435.97	6431.79
436.16	6377.96
436.34	6361.58
436.53	6490.31
436.72	6693.93
436.90	6574.56
437.09	6658.82
437.28	6626.06
437.46	6513.71
437.65	6693.93
437.84	6750.10
438.02	6750.10
438.21	6733.72
438.40	6787.55
438.58	7094.16
438.77	7040.33
438.96	7066.08
439.14	7105.87
439.33	7089.48
439.52	7126.93
439.70	7300.13
439.89	7365.67
440.08	7398.43
440.26	7410.14
440.45	7328.22
440.63	7286.09
440.82	7372.69
441.01	7517.80
441.19	7398.43
441.38	7644.19
441.57	7651.21
441.75	7810.37
441.94	7829.09
442.12	7903.99
442.31	8021.02
442.50	8051.44
442.68	8128.68
442.87	7920.37
443.05	7946.12
443.24	8210.60
443.43	8264.43
443.61	8063.15
443.80	8236.35
443.98	8102.93
444.17	7880.58
444.35	8177.83
444.54	8381.46
444.73	8315.92
444.91	8320.60
445.10	8315.92
445.28	8264.43
445.47	8339.33
445.65	8311.24
445.84	8369.76
446.02	8493.80
446.21	8353.37
446.39	8484.44
446.58	8528.91
446.77	8430.61
446.95	8182.51
447.14	8308.90
447.32	8744.24
447.51	8463.38
447.69	8393.16
447.88	8538.27
448.06	8470.40
448.25	8376.78
448.43	8613.17
448.62	8594.45
448.80	8713.81
448.99	8730.20
449.17	8667.00
449.36	8566.36
449.54	8844.88
449.73	8896.38
449.91	9055.53
450.10	8971.27
450.28	8910.42
450.46	8982.98
450.65	8999.36
450.83	9076.60
451.02	8985.32
451.20	9029.79
451.39	9132.77
451.57	9315.33
451.76	9015.74
451.94	9121.07
452.13	9289.59
452.31	9308.31
452.49	9156.18
452.68	9291.93
452.86	9256.82
453.05	9413.63
453.23	9441.72
453.42	9284.91
453.60	9415.98
453.78	9628.96
453.97	9289.59
454.15	9434.70
454.34	9635.99
454.52	9680.46
454.70	9708.54
454.89	9741.31
455.07	9591.52
455.26	9760.03
455.44	9914.51
455.62	10017.49
455.81	9863.02
455.99	9914.51
456.17	10101.75
456.36	10183.67
456.54	10310.06
456.73	10178.99
456.91	10410.70
457.09	10670.50
457.28	10565.18
457.46	10312.40
457.64	10347.51
457.83	10576.88
458.01	10312.40
458.19	10867.11
458.38	10532.41
458.56	10630.71
458.74	10483.26
458.93	10705.61
459.11	10668.16
459.29	10832.00
459.48	10944.34
459.66	10705.61
459.84	10799.23
460.03	10918.60
460.21	11089.46
460.39	10876.47
460.57	11047.33
460.76	11089.46
460.94	11222.87
461.12	11199.46
461.31	11150.31
461.49	11159.67
461.67	11056.69
461.85	11513.10
462.04	11400.75
462.22	11356.28
462.40	11690.98
462.59	11463.94
462.77	11681.61
462.95	11634.80
463.13	11768.21
463.32	11618.42
463.50	11756.51
463.68	11637.14
463.86	11943.75
464.05	11754.17
464.23	11716.72
464.41	11967.16
464.59	11644.17
464.78	12311.22
464.96	12259.73
465.14	12016.31
465.32	11943.75
465.50	12112.27
465.69	11817.36
465.87	12100.57
466.05	12044.40
466.23	12236.32
466.41	12170.79
466.60	12367.39
466.78	12133.34
466.96	12030.35
467.14	12236.32
467.32	12365.05
467.51	12552.29
467.69	12142.70
467.87	12482.08
468.05	12657.62
468.23	12294.83
468.41	12542.93
468.60	12538.25
468.78	12671.66
468.96	12388.46
469.14	12751.24
469.32	13071.89
469.50	12863.58
469.69	13144.45
469.87	13249.77
470.05	13060.19
470.23	13181.90
470.41	13193.60
470.59	13329.35
470.77	13149.13
470.95	13324.67
471.14	13415.95
471.32	13249.77
471.50	13493.19
471.68	13488.51
471.86	13767.03
472.04	14146.20
472.22	14218.75
472.40	13706.18
472.58	13970.66
472.77	13830.23
472.95	14104.07
473.13	14574.52
473.31	14113.43
473.49	14342.80
473.67	14029.17
473.85	14235.14
474.03	14581.54
474.21	14602.60
474.39	14726.65
474.57	14635.37
474.75	15037.94
474.93	15122.20
475.12	14951.34
475.30	15250.93
475.48	15075.39
475.66	15269.66
475.84	15112.84
476.02	15534.14
476.20	15243.91
476.38	15721.38
476.56	15712.02
476.74	15840.75
476.92	15922.66
477.10	15964.79
477.28	16170.76
477.46	16425.88
477.64	16287.79
477.82	16390.77
478.00	16861.22
478.18	16711.42
478.36	16961.86
478.54	17406.56
478.72	16819.09
478.90	17116.34
479.08	17472.10
479.26	17839.56
479.44	17757.64
479.62	17764.67
479.80	18183.62
479.98	18317.03
480.16	18593.22
480.34	17968.29
480.52	18789.82
480.70	18703.22
480.88	18375.55
481.06	18728.97
481.24	19058.98
481.41	19187.71
481.59	19389.00
481.77	19442.83
481.95	19487.30
482.13	19756.46
482.31	19714.33
482.49	20205.84
482.67	20081.80
482.85	20430.54
483.03	20950.14
483.21	20669.27
483.39	21074.18
483.57	20781.62
483.74	21174.83
483.92	21490.80
484.10	21130.36
484.28	21500.16
484.46	21612.51
484.64	22391.91
484.82	21809.11
485.00	22153.17
485.18	22860.01
485.35	23056.62
485.53	23009.81
485.71	22951.29
485.89	23531.75
486.07	23531.75
486.25	23452.17
486.43	23424.08
486.61	23421.74
486.78	23770.48
486.96	23929.64
487.14	24980.54
487.32	24706.70
487.50	24524.13
487.68	25001.60
487.85	25371.41
488.03	25254.38
488.21	25771.64
488.39	25865.26
488.57	26103.99
488.75	26277.19
488.92	26576.78
489.10	26429.33
489.28	26661.04
489.46	26960.63
489.64	26705.51
489.81	27978.76
489.99	27489.59
490.17	27632.36
490.35	28194.09
490.53	27922.59
490.70	28891.57
490.88	28215.16
491.06	28847.10
491.24	28524.11
491.41	28877.53
491.59	29244.99
491.77	29301.17
491.95	29486.07
492.13	29752.89
492.30	30134.40
492.48	29984.60
492.66	30527.61
492.84	29769.27
493.01	30527.61
493.19	30658.68
493.37	30665.70
493.54	31178.28
493.72	31840.65
493.90	31302.32
494.08	31688.51
494.25	31847.67
494.43	32006.83
494.61	32301.73
494.79	32294.71
494.96	32884.53
495.14	32503.02
495.32	33034.32
495.49	32950.06
495.67	33289.44
495.85	33610.09
496.02	34263.10
496.20	33975.22
496.38	34197.57
496.55	34033.73
496.73	35180.59
496.91	34359.06
497.09	34466.73
497.26	34749.93
497.44	34789.72
497.62	35091.65
497.79	36037.23
497.97	35435.71
498.14	36163.62
498.32	36107.44
498.50	36259.58
498.67	36341.50
498.85	36650.45
499.03	36465.55
499.20	36601.30
499.38	36554.49
499.56	36999.19
499.73	37640.50
499.91	37095.15
500.08	37610.07
500.26	37118.56
500.44	37715.39
500.61	37537.51
500.79	37635.81
500.97	37893.27
501.14	38562.67
501.32	38635.22
501.49	38534.58
501.67	38536.92
501.84	39122.05
502.02	38834.17
502.20	39086.95
502.37	39323.34
502.55	39189.93
502.72	39250.78
502.90	39346.75
503.07	39538.67
503.25	40137.85
503.43	39580.80
503.60	40407.01
503.78	40320.41
503.95	40388.28
504.13	40404.67
504.30	40524.04
504.48	40807.24
504.65	41151.30
504.83	41071.72
505.01	41354.93
505.18	41139.60
505.36	41457.91
505.53	41404.08
505.71	41750.48
505.88	41748.14
506.06	41652.17
506.23	42092.19
506.41	41860.48
506.58	41949.42
506.76	42136.66
506.93	42632.86
507.11	42815.42
507.28	42604.77
507.46	42773.29
507.63	43084.58
507.81	43562.05
507.98	42960.53
508.16	43239.06
508.33	43812.49
508.50	43421.62
508.68	43922.49
508.85	44123.78
509.03	43328.00
509.20	43931.86
509.38	44371.88
509.55	44512.31
509.73	44952.33
509.90	44704.23
510.08	44378.90
510.25	44643.38
510.42	44652.74
510.60	45120.85
510.77	45221.49
510.95	45287.03
511.12	45233.19
511.30	45462.57
511.47	45607.68
511.64	45420.44
511.82	45762.15
511.99	45776.20
512.17	45792.58
512.34	46092.17
512.51	46625.81
512.69	46230.26
512.86	46258.35
513.04	46749.86
513.21	46831.78
513.38	47004.98
513.56	47196.90
513.73	46588.36
513.90	47276.48
514.08	46958.17
514.25	47250.74
514.43	47667.35
514.60	47192.22
514.77	47452.02
514.95	47791.40
515.12	47723.52
515.29	47817.14
515.47	48051.20
515.64	48325.04
515.81	47805.44
515.99	48341.42
516.16	48315.68
516.33	48212.70
516.51	48914.86
516.68	48507.60
516.85	48423.34
517.03	48622.29
517.20	48985.07
517.37	48760.38
517.54	49050.61
517.72	49095.08
517.89	48900.81
518.06	49200.40
518.24	49537.44
518.41	49282.32
518.58	49251.89
518.75	49640.42
518.93	49265.94
519.10	49722.34
519.27	49986.82
519.45	49783.19
519.62	49471.90
519.79	50169.38
519.96	50115.55
520.14	50099.17
520.31	49935.33
520.48	50445.57
520.65	50438.54
520.83	50838.78
521.00	50747.50
521.17	50703.03
521.34	50616.43
521.52	50611.74
521.69	50431.52
521.86	51091.55
522.03	51423.91
522.20	51180.49
522.38	51606.47
522.55	51423.91
522.72	51473.06
522.89	51508.17
523.07	51924.78
523.24	51702.43
523.41	51999.68
523.58	51636.90
523.75	51805.42
523.92	51791.37
524.10	51999.68
524.27	51817.12
524.44	51856.91
524.61	52210.33
524.78	52568.43
524.96	52149.48
525.13	52294.59
525.30	52528.64
525.47	52552.05
525.64	52502.90
525.81	52554.39
525.98	52610.56
526.16	52659.71
526.33	52343.74
526.50	53020.16
526.67	52664.39
526.84	53113.78
527.01	52690.14
527.18	52856.32
527.36	53020.16
527.53	53022.50
527.70	53535.07
527.87	53319.74
528.04	53207.40
528.21	53265.91
528.38	53558.48
528.55	53326.77
528.72	53413.37
528.89	53366.55
529.07	53584.22
529.24	53469.54
529.41	53825.30
529.58	53626.35
529.75	53848.71
529.92	53619.33
530.09	53806.58
530.26	53839.34
530.43	53844.02
530.60	53661.46
530.77	53794.87
530.94	54143.61
531.11	54167.02
531.28	54300.43
531.46	54277.02
531.63	54335.54
531.80	54106.16
531.97	54539.16
532.14	54501.71
532.31	54415.11
532.48	54504.06
532.65	54754.49
532.82	54361.28
532.99	54543.84
533.16	54555.55
533.33	54824.71
533.50	55283.45
533.67	54777.90
533.84	54607.04
534.01	55049.40
534.18	54904.29
534.35	55206.22
534.52	55213.24
534.69	55208.56
534.86	55119.62
535.03	54876.20
535.20	55185.15
535.37	55615.81
535.54	55227.28
535.71	55288.13
535.88	55693.05
536.05	55444.95
536.22	55676.66
536.38	55842.84
536.55	55529.21
536.72	55594.74
536.89	55414.52
537.06	55674.32
537.23	55824.12
537.40	55505.80
537.57	55657.94
537.74	55662.62
537.91	55873.27
538.08	55990.30
538.25	55840.50
538.42	55908.38
538.59	56053.49
538.75	55737.52
538.92	55931.78
539.09	56104.98
539.26	56271.16
539.43	56112.00
539.60	56254.78
539.77	56243.07
539.94	56488.83
540.11	56336.69
540.28	56275.84
540.44	56425.64
540.61	56423.29
540.78	56137.75
540.95	56748.63
541.12	56533.30
541.29	56278.18
541.46	56683.09
541.62	56507.55
541.79	56566.07
541.96	56388.19
542.13	56748.63
542.30	56760.33
542.47	56860.97
542.63	56765.01
542.80	56919.49
542.97	56996.73
543.14	57202.69
543.31	57024.81
543.48	57169.93
543.64	57293.97
543.81	57609.95
543.98	57565.48
544.15	57242.48
544.32	57460.15
544.48	57478.88
544.65	57481.22
544.82	57691.86
544.99	57392.28
545.16	57436.75
545.32	57523.35
545.49	57769.10
545.66	57808.89
545.83	57521.01
546.00	57818.25
546.16	57544.41
546.33	57478.88
546.50	57317.38
546.67	57579.52
546.83	57525.69
547.00	57804.21
547.17	57518.67
547.34	57783.15
547.50	57958.69
547.67	58174.02
547.84	57923.58
548.00	58300.40
548.17	58291.04
548.34	58035.92
548.51	58195.08
548.67	58272.32
548.84	58269.98
549.01	57935.28
549.18	58269.98
549.34	58082.73
549.51	58377.64
549.68	58403.39
549.84	58471.26
550.01	58284.02
550.18	58169.33
550.34	58511.05
550.51	58614.04
550.68	58578.93
550.84	58244.23
551.01	58543.82
551.18	58539.14
551.34	58319.13
551.51	58564.88
551.68	58511.05
551.84	58513.39
552.01	58546.16
552.18	58695.95
552.34	58660.85
552.51	58913.62
552.68	58543.82
552.84	58574.25
553.01	58876.18
553.18	58904.26
553.34	58841.07
553.51	58782.55
553.67	58745.11
553.84	59068.10
554.01	58965.12
554.17	58981.50
554.34	58922.99
554.51	59056.40
554.67	59079.80
554.84	59138.32
555.00	58934.69
555.17	58904.26
555.33	59164.06
555.50	58953.41
555.67	58983.84
555.83	59044.69
556.00	59107.89
556.16	59426.20
556.33	59157.04
556.50	59388.75
556.66	59402.80
556.83	59241.30
556.99	59316.20
557.16	59590.04
557.32	59480.03
557.49	59730.47
557.65	59337.26
557.82	59330.24
557.98	59320.88
558.15	59348.96
558.32	59533.87
558.48	59444.93
558.65	59271.73
558.81	59583.02
558.98	59533.87
559.14	59784.30
559.31	59480.03
559.47	59611.10
559.64	59716.43
559.80	59639.19
559.97	59781.96
560.13	59465.99
560.30	59554.93
560.46	59854.52
560.63	59664.94
560.79	59814.73
560.96	59821.75
561.12	59671.96
561.29	59791.33
561.45	59952.82
561.61	59763.24
561.78	59678.98
561.94	59669.62
562.11	59934.10
562.27	59877.93
562.44	59941.12
562.60	59896.65
562.77	60158.79
562.93	59662.60
563.10	59901.33
563.26	59856.86
563.42	60226.66
563.59	60081.55
563.75	60179.85
563.92	60065.17
564.08	60001.97
564.24	60254.75
564.41	60273.48
564.57	60079.21
564.74	60233.69
564.90	60168.15
565.07	60161.13
565.23	59999.63
565.39	60126.02
565.56	60278.16
565.72	60079.21
565.88	60238.37
566.05	60133.04
566.21	60196.24
566.38	60278.16
566.54	60154.11
566.70	60556.68
566.87	60385.82
567.03	60175.17
567.19	60367.10
567.36	60390.50
567.52	60238.37
567.68	60411.57
567.85	60420.93
568.01	60425.61
568.17	60261.77
568.34	60472.42
568.50	60451.36
568.66	60322.63
568.83	60577.75
568.99	60385.82
569.15	60458.38
569.32	60423.27
569.48	60402.21
569.64	60488.80
569.81	60432.63
569.97	60376.46
570.13	60399.86
570.30	60301.56
570.46	60605.83
570.62	60673.71
570.78	60596.47
570.95	60521.57
571.11	60591.79
571.27	60456.04
571.43	60622.22
571.60	60662.00
571.76	60624.56
571.92	60437.31
572.09	60498.17
572.25	60608.17
572.41	60516.89
572.57	60626.90
572.74	60832.86
572.90	60697.11
573.06	60671.37
573.22	60568.38
573.38	60577.75
573.55	60453.70
573.71	60734.56
573.87	60818.82
574.03	60493.49
574.20	60769.67
574.36	60692.43
574.52	60725.20
574.68	60849.25
574.84	60804.78
575.01	60694.77
575.17	60718.18
575.33	60863.29
575.49	60683.07
575.65	60535.62
575.82	60762.65
575.98	60807.12
576.14	61165.22
576.30	60790.73
576.46	60764.99
576.62	60795.42
576.79	60753.29
576.95	60678.39
577.11	60898.40
577.27	60947.55
577.43	60914.78
577.59	60708.82
577.75	60662.00
577.92	60807.12
578.08	60739.24
578.24	60816.48
578.40	61125.43
578.56	60769.67
578.72	60772.01
578.88	60996.70
579.04	61045.85
579.21	60860.95
579.37	61045.85
579.53	61172.24
579.69	60750.94
579.85	60795.42
580.01	60963.93
580.17	60683.07
580.33	61013.08
580.49	61003.72
580.65	60704.13
580.82	60732.22
580.98	60931.17
581.14	60774.35
581.30	60952.23
581.46	60884.36
581.62	60821.16
581.78	60823.50
581.94	60886.70
582.10	60961.59
582.26	60804.78
582.42	60994.36
582.58	60952.23
582.74	60999.04
582.90	60963.93
583.06	60940.53
583.22	60956.91
583.38	60912.44
583.54	60907.76
583.70	61027.13
583.86	60985.00
584.02	60851.59
584.18	61034.15
584.34	61001.38
584.50	60935.85
584.66	60919.46
584.82	60662.00
584.98	61345.44
585.14	61148.84
585.30	60900.74
585.46	61139.47
585.62	61165.22
585.78	61017.77
585.94	61043.51
586.10	60952.23
586.26	61195.65
586.42	61073.94
586.58	61027.13
586.74	61099.68
586.90	61195.65
587.06	61034.15
587.22	61230.75
587.38	60956.91
587.54	61174.58
587.70	61113.73
587.86	61034.15
588.02	60914.78
588.18	61160.54
588.34	61076.28
588.49	61069.26
588.65	61010.74
588.81	61104.37
588.97	61343.10
589.13	61073.94
589.29	61160.54
589.45	61474.17
589.61	61345.44
589.77	61523.32
589.93	61286.93
590.08	61354.80
590.24	61315.01
590.40	61539.71
590.56	61406.30
590.72	61303.31
590.88	61160.54
591.04	61282.25
591.20	61570.13
591.35	61488.21
591.51	61619.28
591.67	61478.85
591.83	61450.77
591.99	61413.32
592.15	61375.87
592.31	61310.33
592.46	61352.46
592.62	61425.02
592.78	61462.47
592.94	61549.07
593.10	61403.95
593.26	61488.21
593.41	61293.95
593.57	61471.83
593.73	61354.80
593.89	61740.99
594.05	61558.43
594.20	61539.71
594.36	61806.53
594.52	61453.11
594.68	61261.18
594.84	61446.08
594.99	61584.18
595.15	61558.43
595.31	61581.84
595.47	61427.36
595.62	61439.06
595.78	61247.14
595.94	61509.28
596.10	61907.17
596.25	61558.43
596.41	61694.18
596.57	61621.62
596.73	61560.77
596.88	61726.95
597.04	61647.37
597.20	61677.80
597.36	61689.50
597.51	61846.32
597.67	61450.77
597.83	61537.36
597.99	61586.52
598.14	61558.43
598.30	61722.27
598.46	61797.16
598.61	61843.98
598.77	61764.40
598.93	61766.74
599.09	61698.86
599.24	61911.85
599.40	61649.71
599.56	61797.16
599.71	61879.08
599.87	61970.36
600.03	61593.54
600.18	61626.31
600.34	61558.43
600.50	61736.31
600.65	61558.43
600.81	61792.48
600.97	61790.14
601.12	61858.02
601.28	61717.59
601.44	61668.44
601.59	61602.90
601.75	61642.69
601.91	62012.49
602.06	61853.34
602.22	61783.12
602.37	61762.06
602.53	61879.08
602.69	61881.42
602.84	61598.22
603.00	61701.20
603.16	61811.21
603.31	61881.42
603.47	61851.00
603.62	61806.53
603.78	61881.42
603.94	61750.35
604.09	61736.31
604.25	61619.28
604.40	61750.35
604.56	61645.03
604.71	61916.53
604.87	61762.06
605.03	61675.46
605.18	61818.23
605.34	61911.85
605.49	61378.21
605.65	61787.80
605.80	61881.42
605.96	61975.05
606.12	61827.59
606.27	61836.95
606.43	61619.28
606.58	61996.11
606.74	61691.84
606.89	61733.97
607.05	61565.45
607.20	61846.32
607.36	61661.41
607.51	61813.55
607.67	61483.53
607.82	61467.15
607.98	61593.54
608.13	61663.75
608.29	61759.72
608.44	61584.18
608.60	61600.56
608.75	61722.27
608.91	61600.56
609.06	61399.27
609.22	61867.38
609.37	61432.04
609.53	61872.06
609.68	61762.06
609.84	61528.00
609.99	61733.97
610.15	61860.36
610.30	61736.31
610.46	61333.74
610.61	61609.92
610.76	61509.28
610.92	61563.11
611.07	61687.16
611.23	61443.74
611.38	61612.26
611.54	61619.28
611.69	61558.43
611.84	61719.93
612.00	61551.41
612.15	61546.73
612.31	61640.35
612.46	61560.77
612.62	61462.47
612.77	61282.25
612.92	61413.32
613.08	61502.26
613.23	61586.52
613.39	61488.21
613.54	61434.38
613.69	61499.92
613.85	61446.08
614.00	61609.92
614.15	61516.30
614.31	61462.47
614.46	61453.11
614.62	61528.00
614.77	61460.13
614.92	61399.27
615.08	61345.44
615.23	61375.87
615.38	61322.04
615.54	61441.40
615.69	61523.32
615.84	61478.85
616.00	61368.85
616.15	61497.58
616.30	61422.68
616.46	61300.97
616.61	61146.50
616.76	61291.61
616.92	61300.97
617.07	61506.94
617.22	61123.09
617.37	61097.34
617.53	61375.87
617.68	61418.00
617.83	61357.14
617.99	61322.04
618.14	61183.94
618.29	61162.88
618.45	61296.29
618.60	61223.73
618.75	61134.79
618.90	61228.41
619.06	61392.25
619.21	61099.68
619.36	61413.32
619.51	61303.31
619.67	61062.24
619.82	61174.58
619.97	61141.81
620.12	60884.36
620.28	61066.92
620.43	61165.22
620.58	61010.74
620.73	61104.37
620.89	60994.36
621.04	61059.90
621.19	61139.47
621.34	61064.58
621.49	60828.18
621.65	60989.68
621.80	61179.26
621.95	60673.71
622.10	60842.23
622.25	60919.46
622.41	61052.87
622.56	60786.05
622.71	60935.85
622.86	60673.71
623.01	60741.58
623.16	60652.64
623.32	60804.78
623.47	61078.62
623.62	60935.85
623.77	60690.09
623.92	60917.12
624.07	60687.75
624.23	60804.78
624.38	60954.57
624.53	60526.25
624.68	60753.29
624.83	61057.56
624.98	60755.63
625.13	60484.12
625.29	60608.17
625.44	60601.15
625.59	60694.77
625.74	60467.74
625.89	60451.36
626.04	60420.93
626.19	60425.61
626.34	60563.70
626.49	60430.29
626.65	60392.84
626.80	60573.06
626.95	60271.14
627.10	60135.38
627.25	60383.48
627.40	60355.39
627.55	60416.25
627.70	60273.48
627.85	60317.95
628.00	60460.72
628.15	60371.78
628.30	60189.22
628.45	60240.71
628.60	59929.42
628.76	60303.90
628.91	60430.29
629.06	60299.22
629.21	60229.01
629.36	60282.84
629.51	60088.57
629.66	60072.19
629.81	60175.17
629.96	59889.63
630.11	60114.32
630.26	60137.72
630.41	60158.79
630.56	60126.02
630.71	60083.89
630.86	60205.60
631.01	60186.88
631.16	59966.87
631.31	59915.37
631.46	59856.86
631.61	60116.66
631.76	59950.48
631.91	60093.25
632.06	59983.25
632.21	60037.08
632.36	59908.35
632.51	59702.38
632.66	59753.88
632.81	60013.68
632.96	59929.42
633.10	59856.86
633.25	59983.25
633.40	60111.98
633.55	59781.96
633.70	59826.43
633.85	59793.67
634.00	59686.00
634.15	59849.84
634.30	59655.57
634.45	59880.27
634.60	60119.00
634.75	59678.98
634.90	59676.64
635.05	59536.21
635.19	59463.65
635.34	59746.86
635.49	59597.06
635.64	59910.69
635.79	59625.15
635.94	59538.55
636.09	59746.86
636.24	59496.42
636.39	59763.24
636.53	59700.04
636.68	59484.72
636.83	59412.16
636.98	59873.24
637.13	59503.44
637.28	59363.01
637.43	59758.56
637.57	59341.94
637.72	59355.99
637.87	59402.80
638.02	59454.29
638.17	59606.42
638.32	59494.08
638.46	59442.59
638.61	59683.66
638.76	59185.13
638.91	59339.60
639.06	59213.21
639.20	59070.44
639.35	59159.38
639.50	58878.52
639.65	59168.74
639.80	59358.33
639.94	59112.57
640.09	59110.23
640.24	58981.50
640.39	59157.04
640.54	59288.11
640.68	59082.14
640.83	59255.34
640.98	59178.10
641.13	59112.57
641.27	59395.77
641.42	59028.31
641.57	58969.80
641.72	58967.46
641.86	58801.28
642.01	59089.16
642.16	58951.07
642.31	58946.39
642.45	59398.12
642.60	59175.76
642.75	59135.98
642.90	59047.04
643.04	58791.92
643.19	58939.37
643.34	59077.46
643.48	58904.26
643.63	58834.05
643.78	58721.70
643.93	58925.33
644.07	58883.20
644.22	58777.87
644.37	58649.14
644.51	58511.05
644.66	58918.31
644.81	58702.98
644.95	58557.86
645.10	58583.61
645.25	58693.61
645.39	58656.17
645.54	58644.46
645.69	58440.84
645.83	58571.91
645.98	58611.70
646.13	58724.04
646.27	58609.35
646.42	58567.23
646.57	58614.04
646.71	58361.26
646.86	58501.69
647.00	58731.06
647.15	58424.45
647.30	58370.62
647.44	58382.32
647.59	58642.12
647.74	58482.97
647.88	58602.33
648.03	58855.11
648.17	58543.82
648.32	58508.71
648.47	58618.72
648.61	58457.22
648.76	58604.67
648.90	58372.96
649.05	58197.42
649.20	58515.73
649.34	58454.88
649.49	58394.03
649.63	58494.67
649.78	58489.99
649.92	58417.43
650.07	58536.80
650.21	58293.38
650.36	58302.74
650.51	58181.04
650.65	58288.70
650.80	58284.02
650.94	58120.18
651.09	57993.79
651.23	57684.84
651.38	58003.16
651.52	57820.59
651.67	58010.18
651.81	57975.07
651.96	57869.75
652.10	57766.76
652.25	57993.79
652.39	57616.97
652.54	58010.18
652.68	57485.90
652.83	57666.12
652.97	57708.25
653.12	57755.06
653.26	57743.36
653.41	58099.12
653.55	58021.88
653.70	57834.64
653.84	57907.19
653.99	57867.40
654.13	57829.96
654.27	57694.21
654.42	57836.98
654.56	57663.78
654.71	57396.96
654.85	57818.25
655.00	57762.08
655.14	57731.65
655.29	57621.65
655.43	57549.09
655.57	57574.84
655.72	57565.48
655.86	57329.08
656.01	57434.41
656.15	57453.13
656.30	57574.84
656.44	57738.68
656.58	57539.73
656.73	57766.76
656.87	57539.73
657.01	57476.54
657.16	57439.09
657.30	57249.50
657.45	57315.04
657.59	57242.48
657.73	57050.56
657.88	57111.41
658.02	57095.03
658.16	57202.69
658.31	57240.14
658.45	57228.44
658.60	57240.14
658.74	57162.90
658.88	57195.67
659.03	56893.74
659.17	56903.10
659.31	56982.68
659.46	56825.87
659.60	57186.31
659.74	57179.29
659.89	56683.09
660.03	56823.53
660.17	57013.11
660.32	56809.48
660.46	56903.10
660.60	56521.60
660.74	56886.72
660.89	56900.76
661.03	56458.40
661.17	56556.70
661.32	56151.79
661.46	56708.84
661.60	56563.73
661.74	56437.34
661.89	56175.20
662.03	56535.64
662.17	56280.52
662.31	56273.50
662.46	56404.57
662.60	56350.74
662.74	56500.53
662.88	56214.99
663.03	55812.41
663.17	56250.09
663.31	55763.26
663.45	56133.07
663.60	55866.25
663.74	55634.53
663.88	55737.52
664.02	55739.86
664.17	56254.78
664.31	55697.73
664.45	55861.57
664.59	55618.15
664.73	55714.11
664.88	55646.24
665.02	55018.97
665.16	55526.87
665.30	55327.92
665.44	55512.83
665.59	55295.16
665.73	55547.93
665.87	55332.60
666.01	55458.99
666.15	55337.29
666.29	55068.12
666.44	55421.55
666.58	55161.75
666.72	54979.18
666.86	55114.94
667.00	55248.35
667.14	54761.51
667.28	54869.18
667.43	55037.70
667.57	54841.09
667.71	54557.89
667.85	54789.60
667.99	54574.27
668.13	54644.49
668.27	54520.44
668.41	54904.29
668.56	54499.37
668.70	54438.52
668.84	54328.52
668.98	54323.83
669.12	54202.13
669.26	54417.46
669.40	54176.38
669.54	54089.78
669.68	54150.63
669.82	54033.61
669.96	54258.30
670.10	54103.82
670.25	54251.28
670.39	53783.17
670.53	53979.78
670.67	53743.38
670.81	54335.54
670.95	53989.14
671.09	53551.46
671.23	53244.85
671.37	53572.52
671.51	53584.22
671.65	53579.54
671.79	53626.35
671.93	53200.38
672.07	53308.04
672.21	53167.61
672.35	52655.03
672.49	52800.15
672.63	52853.98
672.77	52861.00
672.91	53106.76
673.05	52495.88
673.19	52711.20
673.33	52655.03
673.47	52217.35
673.61	52509.92
673.75	52355.44
673.89	52158.84
674.03	52114.37
674.17	51896.70
674.31	52037.13
674.45	51798.40
674.59	51927.13
674.73	52016.07
674.87	51973.94
675.01	51419.23
675.15	51498.81
675.29	51536.26
675.43	51585.41
675.56	51168.79
675.70	51093.89
675.84	51334.97
675.98	50045.33
676.12	51089.21
676.26	51323.27
676.40	51047.08
676.54	50602.38
676.68	50988.57
676.82	50010.23
676.96	50211.51
677.10	50358.97
677.23	50246.62
677.37	50155.34
677.51	50050.02
677.65	49776.17
677.79	49160.61
677.93	49055.29
678.07	49251.89
678.21	48975.71
678.34	49186.36
678.48	48573.14
678.62	48690.16
678.76	48526.33
678.90	48151.84
679.04	48479.52
679.18	48411.64
679.31	48231.42
679.45	47894.38
679.59	48130.78
679.73	48133.12
679.87	47735.23
680.00	47241.37
680.14	47030.72
680.28	47126.69
680.42	47196.90
680.56	46873.91
680.70	46607.09
680.83	46911.36
680.97	46745.18
681.11	47072.85
681.25	46754.54
681.39	46536.87
681.52	46202.18
681.66	46621.13
681.80	45977.48
681.94	45687.26
682.07	45914.29
682.21	45579.59
682.35	45518.74
682.49	45275.32
682.62	45270.64
682.76	45731.73
682.90	45439.16
683.04	45303.41
683.17	44809.56
683.31	44421.03
683.45	44247.83
683.59	44182.29
683.72	44051.22
683.86	43995.05
684.00	44238.47
684.13	44538.05
684.27	43658.01
684.41	43782.06
684.55	43620.56
684.68	44011.43
684.82	43225.01
684.96	43203.95
685.09	43140.75
685.23	42616.47
685.37	42113.26
685.50	42445.62
685.64	42410.51
685.78	42646.90
685.91	42012.62
686.05	42092.19
686.19	41593.66
686.32	41476.63
686.46	41050.66
686.60	41528.13
686.73	40891.50
686.87	41109.17
687.01	41207.47
687.14	41411.10
687.28	40617.66
687.42	40350.84
687.55	40285.30
687.69	40238.49
687.82	40271.26
687.96	39311.64
688.10	39452.07
688.23	39796.13
688.37	39526.97
688.50	39185.25
688.64	39140.78
688.78	39349.09
688.91	38504.15
689.05	38728.84
689.18	38518.20
689.32	37930.72
689.46	38073.49
689.59	37787.95
689.73	37607.73
689.86	37537.51
690.00	37502.40
690.13	37766.88
690.27	37357.29
690.41	37596.03
690.54	36755.77
690.68	36580.23
690.81	36774.50
690.95	36840.03
691.08	36528.74
691.22	36156.60
691.35	36229.15
691.49	36533.42
691.62	36222.13
691.76	35484.86
691.89	35683.81
692.03	35388.90
692.16	35517.63
692.30	35143.14
692.43	35318.68
692.57	35009.73
692.70	34824.83
692.84	34623.54
692.97	34452.69
693.11	34583.76
693.24	33888.62
693.38	34326.30
693.51	33511.79
693.65	34176.50
693.78	33645.20
693.92	33469.66
694.05	33429.87
694.19	33731.80
694.32	33022.62
694.45	33083.47
694.59	33053.05
694.72	32854.10
694.86	32446.85
694.99	32575.58
695.13	32030.23
695.26	31842.99
695.39	31543.40
695.53	31630.00
695.66	31648.72
695.80	31557.44
695.93	31393.61
696.07	30483.14
696.20	30916.14
696.33	30756.98
696.47	30913.80
696.60	30789.75
696.73	30487.82
696.87	30288.87
697.00	29921.41
697.14	30323.98
697.27	30017.37
697.40	29809.06
697.54	30026.73
697.67	29982.26
697.80	29333.93
697.94	29226.27
698.07	29383.09
698.21	28947.75
698.34	29057.75
698.47	29081.16
698.61	28222.18
698.74	28386.02
698.87	28673.90
699.01	27887.48
699.14	28046.64
699.27	27866.42
699.40	27838.33
699.54	28215.16
699.67	28006.85
699.80	27276.60
699.94	27428.74
700.07	27311.71
700.20	26965.31
700.34	26874.03
700.47	26672.74
700.60	26307.62
700.73	26417.63
700.87	25982.29
701.00	25766.96
701.13	25914.41
701.26	26160.17
701.40	25905.05
701.53	25731.85
701.66	25729.51
701.79	25376.09
701.93	24989.90
702.06	24610.73
702.19	24886.92
702.32	25214.59
702.46	24896.28
702.59	24273.70
702.72	24453.92
702.85	24657.54
702.99	24638.82
703.12	24030.28
703.25	24177.73
703.38	23482.59
703.51	23854.74
703.65	23573.88
703.78	23309.40
703.91	23585.58
704.04	23339.82
704.17	23054.28
704.31	23351.52
704.44	23201.73
704.57	22562.76
704.70	22852.99
704.83	22427.01
704.96	22553.40
705.10	21874.65
705.23	22244.45
>>>>>End Processed Spectral Data<<<<<
