SpectraSuite Data File
++++++++++++++++++++++++++++++++++++
Date: Fri Oct 25 10:47:49 EDT 2013
User: price-jones
Dark Spectrum Present: No
Reference Spectrum Present: No
Number of Sampled Component Spectra: 1
Spectrometers: USB2+H05261
Integration Time (usec): 100000 (USB2+H05261)
Spectra Averaged: 1 (USB2+H05261)
Boxcar Smoothing: 0 (USB2+H05261)
Correct for Electrical Dark: No (USB2+H05261)
Strobe/Lamp Enabled: No (USB2+H05261)
Correct for Detector Non-linearity: No (USB2+H05261)
Correct for Stray Light: No (USB2+H05261)
Number of Pixels in Processed Spectrum: 2048
>>>>>Begin Processed Spectral Data<<<<<
365.73	128.73
365.92	128.73
366.12	128.73
366.32	53.83
366.52	67.88
366.72	175.54
366.91	86.60
367.11	16.38
367.31	30.43
367.51	53.83
367.70	30.43
367.90	60.85
368.10	0.00
368.30	28.09
368.49	35.11
368.69	18.72
368.89	86.60
369.09	0.00
369.28	28.09
369.48	124.05
369.68	49.15
369.87	84.26
370.07	86.60
370.27	182.56
370.47	210.65
370.66	341.72
370.86	416.62
371.06	454.06
371.25	472.79
371.45	456.40
371.65	552.37
371.84	479.81
372.04	470.45
372.24	465.77
372.44	400.23
372.63	468.11
372.83	554.71
373.03	557.05
373.22	575.77
373.42	535.98
373.62	526.62
373.81	484.49
374.01	585.13
374.21	648.33
374.40	538.32
374.60	519.60
374.79	568.75
374.99	645.99
375.19	566.41
375.38	622.58
375.58	561.73
375.78	526.62
375.97	580.45
376.17	596.84
376.37	554.71
376.56	601.52
376.76	662.37
376.95	557.05
377.15	599.18
377.35	603.86
377.54	617.90
377.74	613.22
377.93	589.82
378.13	667.05
378.33	620.24
378.52	596.84
378.72	641.31
378.91	657.69
379.11	627.26
379.31	620.24
379.50	580.45
379.70	624.92
379.89	685.78
380.09	589.82
380.28	660.03
380.48	704.50
380.68	699.82
380.87	674.07
381.07	667.05
381.26	739.61
381.46	697.48
381.65	653.01
381.85	744.29
382.04	772.38
382.24	699.82
382.43	746.63
382.63	713.86
382.83	667.05
383.02	671.73
383.22	765.36
383.41	648.33
383.61	737.27
383.80	706.84
384.00	814.51
384.19	739.61
384.39	709.18
384.58	746.63
384.78	770.04
384.97	781.74
385.17	697.48
385.36	837.91
385.56	732.59
385.75	683.44
385.95	748.97
386.14	753.65
386.34	767.70
386.53	821.53
386.72	840.25
386.92	800.46
387.11	830.89
387.31	777.06
387.50	748.97
387.70	772.38
387.89	798.12
388.09	809.83
388.28	858.98
388.48	830.89
388.67	833.23
388.86	912.81
389.06	901.11
389.25	842.59
389.45	936.21
389.64	823.87
389.84	917.49
390.03	868.34
390.22	936.21
390.42	908.13
390.61	830.89
390.81	980.68
391.00	1053.24
391.19	894.08
391.39	999.41
391.58	1004.09
391.78	1008.77
391.97	931.53
392.16	938.55
392.36	1043.88
392.55	1015.79
392.75	987.71
392.94	901.11
393.13	940.90
393.33	957.28
393.52	1011.11
393.71	1104.73
393.91	1076.65
394.10	1090.69
394.29	1111.75
394.49	1036.86
394.68	1071.97
394.88	1135.16
395.07	1172.61
395.26	1191.33
395.46	1067.28
395.65	1069.62
395.84	1109.41
396.04	1160.91
396.23	1165.59
396.42	1090.69
396.62	1240.48
396.81	1186.65
397.00	1167.93
397.19	1163.25
397.39	1188.99
397.58	1263.89
397.77	1186.65
397.97	1270.91
398.16	1221.76
398.35	1273.25
398.55	1355.17
398.74	1341.13
398.93	1334.11
399.12	1348.15
399.32	1359.85
399.51	1399.64
399.70	1451.13
399.90	1423.05
400.09	1451.13
400.28	1373.89
400.47	1453.47
400.67	1568.16
400.86	1500.28
401.05	1495.60
401.24	1556.46
401.44	1516.67
401.63	1507.30
401.82	1535.39
402.01	1369.21
402.21	1465.18
402.40	1549.43
402.59	1497.94
402.78	1558.80
402.97	1629.01
403.17	1626.67
403.36	1577.52
403.55	1685.19
403.74	1586.88
403.93	1586.88
404.13	1706.25
404.32	1619.65
404.51	1614.97
404.70	1645.40
404.89	1671.14
405.09	1746.04
405.28	1760.08
405.47	1820.94
405.66	1685.19
405.85	1783.49
406.05	1813.92
406.24	1746.04
406.43	1816.26
406.62	1898.17
406.81	1865.41
407.00	1914.56
407.20	1916.90
407.39	2012.86
407.58	1916.90
407.77	1984.77
407.96	1891.15
408.15	1921.58
408.34	2045.63
408.54	2008.18
408.73	1947.33
408.92	1994.14
409.11	2111.16
409.30	2101.80
409.49	2099.46
409.68	2059.67
409.87	2040.95
410.07	2141.59
410.26	2127.55
410.45	2073.71
410.64	2195.42
410.83	2113.50
411.02	2246.91
411.21	2349.90
411.40	2370.96
411.59	2263.30
411.78	2286.70
411.98	2331.17
412.17	2375.64
412.36	2275.00
412.55	2403.73
412.74	2361.60
412.93	2452.88
413.12	2429.48
413.31	2586.29
413.50	2483.31
413.69	2509.05
413.88	2572.25
414.07	2654.17
414.26	2595.65
414.45	2597.99
414.64	2565.23
414.83	2712.68
415.02	2710.34
415.22	2668.21
415.41	2827.37
415.60	2778.22
415.79	2773.53
415.98	2935.03
416.17	2843.75
416.36	2810.98
416.55	2932.69
416.74	2995.89
416.93	2918.65
417.12	2895.24
417.31	3059.08
417.50	2939.71
417.69	3101.21
417.88	3075.46
418.07	2993.55
418.26	3061.42
418.45	3152.70
418.64	3232.28
418.83	3265.05
419.02	3260.37
419.21	3208.87
419.39	3166.74
419.58	3080.14
419.77	3063.76
419.96	3353.99
420.15	3314.20
420.34	3272.07
420.53	3353.99
420.72	3353.99
420.91	3283.77
421.10	3403.14
421.29	3433.57
421.48	3314.20
421.67	3471.01
421.86	3379.73
422.05	3410.16
422.24	3459.31
422.43	3391.44
422.61	3372.71
422.80	3410.16
422.99	3417.18
423.18	3529.53
423.37	3599.74
423.56	3583.36
423.75	3501.44
423.94	3447.61
424.13	3361.01
424.32	3302.50
424.50	3513.14
424.69	3562.30
424.88	3702.73
425.07	3562.30
425.26	3452.29
425.45	3660.60
425.64	3496.76
425.83	3576.34
426.01	3639.53
426.20	3620.81
426.39	3723.79
426.58	3653.58
426.77	3574.00
426.96	3550.59
427.15	3604.42
427.33	3754.22
427.52	3653.58
427.71	3815.07
427.90	3585.70
428.09	3763.58
428.28	3796.35
428.46	3735.50
428.65	3684.00
428.84	3941.46
429.03	3885.29
429.22	3639.53
429.40	3763.58
429.59	3918.06
429.78	3758.90
429.97	3562.30
430.16	3627.83
430.34	3871.25
430.53	3721.45
430.72	3749.54
430.91	3936.78
431.10	4114.66
431.28	4147.43
431.47	4124.02
431.66	4056.15
431.85	4138.07
432.03	4102.96
432.22	4252.75
432.41	4084.23
432.60	4191.90
432.79	4145.09
432.97	4325.31
433.16	4294.88
433.35	4252.75
433.54	4229.35
433.72	4285.52
433.91	4285.52
434.10	4236.37
434.28	4437.66
434.47	4217.65
434.66	4447.02
434.85	4477.44
435.03	4542.98
435.22	4456.38
435.41	4613.20
435.59	4545.32
435.78	4603.83
435.97	4727.88
436.16	4622.56
436.34	4507.87
436.53	4716.18
436.72	4657.67
436.90	4566.39
437.09	4711.50
437.28	4723.20
437.46	4601.49
437.65	4730.22
437.84	4624.90
438.02	4624.90
438.21	4681.07
438.40	4638.94
438.58	4868.31
438.77	4887.04
438.96	4833.21
439.14	5191.31
439.33	5111.73
439.52	5004.07
439.70	5093.01
439.89	5132.79
440.08	5174.92
440.26	5172.58
440.45	5191.31
440.63	5317.70
440.82	5380.89
441.01	5465.15
441.19	5469.83
441.38	5556.43
441.57	5441.75
441.75	5561.11
441.94	5647.71
442.12	5509.62
442.31	5535.37
442.50	5668.78
442.68	5762.40
442.87	5650.05
443.05	5554.09
443.24	5907.51
443.43	5865.38
443.61	5736.65
443.80	6033.90
443.98	5717.93
444.17	5617.29
444.35	5650.05
444.54	5994.11
444.73	5781.12
444.91	5781.12
445.10	5844.32
445.28	5781.12
445.47	5930.92
445.65	5942.62
445.84	5806.87
446.02	6085.39
446.21	5802.19
446.39	6003.47
446.58	6022.20
446.77	5905.17
446.95	5736.65
447.14	6017.52
447.32	6157.95
447.51	6125.18
447.69	5942.62
447.88	6015.18
448.06	5949.64
448.25	6005.81
448.43	6043.26
448.62	5989.43
448.80	5790.49
448.99	6230.51
449.17	6099.44
449.36	6092.41
449.54	6305.40
449.73	6413.07
449.91	6406.05
450.10	6298.38
450.28	6356.90
450.46	6249.23
450.65	6366.26
450.83	6583.93
451.02	6483.28
451.20	6523.07
451.39	6349.87
451.57	6546.48
451.76	6310.08
451.94	6513.71
452.13	6644.78
452.31	6656.48
452.49	6361.58
452.68	6579.25
452.86	6483.28
453.05	6464.56
453.23	6736.06
453.42	6567.54
453.60	6588.61
453.78	6871.81
453.97	6586.27
454.15	6616.69
454.34	6588.61
454.52	6752.45
454.70	6794.58
454.89	6775.85
455.07	6780.53
455.26	6867.13
455.44	6956.07
455.62	6979.48
455.81	6977.14
455.99	7162.04
456.17	7070.76
456.36	7173.74
456.54	7033.31
456.73	7124.59
456.91	7208.85
457.09	7321.20
457.28	7377.37
457.46	7269.70
457.64	7288.43
457.83	7438.22
458.01	7262.68
458.19	7412.48
458.38	7473.33
458.56	7302.47
458.74	7503.76
458.93	7529.50
459.11	7487.37
459.29	7272.04
459.48	7508.44
459.66	7377.37
459.84	7658.23
460.03	7667.60
460.21	7625.47
460.39	7775.26
460.57	7679.30
460.76	7714.41
460.94	7925.05
461.12	7789.30
461.31	7815.05
461.49	7831.43
461.67	7742.49
461.85	7873.56
462.04	8037.40
462.22	8156.77
462.40	8021.02
462.59	7943.78
462.77	8053.78
462.95	8149.75
463.13	8053.78
463.32	7906.33
463.50	8205.92
463.68	8135.70
463.86	8269.11
464.05	8084.21
464.23	8154.43
464.41	8231.66
464.59	8006.97
464.78	8283.16
464.96	8329.97
465.14	8304.22
465.32	8381.46
465.50	8346.35
465.69	8348.69
465.87	8259.75
466.05	8236.35
466.23	8285.50
466.41	8355.71
466.60	8566.36
466.78	8329.97
466.96	8446.99
467.14	8449.33
467.32	8421.25
467.51	8933.82
467.69	8212.94
467.87	8704.45
468.05	8608.49
468.23	8585.08
468.41	8580.40
468.60	8786.37
468.78	8517.21
468.96	8564.02
469.14	9100.00
469.32	8877.65
469.50	8557.00
469.69	8879.99
469.87	8840.20
470.05	9078.94
470.23	8980.64
470.41	8931.48
470.59	8943.19
470.77	8894.04
470.95	8919.78
471.14	9165.54
471.32	9053.19
471.50	9345.76
471.68	9308.31
471.86	9266.18
472.04	9352.78
472.22	9572.79
472.40	9280.22
472.58	9441.72
472.77	9530.66
472.95	9671.09
473.13	9799.82
473.31	9738.97
473.49	9458.10
473.67	9785.78
473.85	9682.80
474.03	10076.01
474.21	10064.30
474.39	10090.05
474.57	10134.52
474.75	9919.19
474.93	10183.67
475.12	10202.40
475.30	10092.39
475.48	10424.75
475.66	10164.95
475.84	10242.18
476.02	10319.42
476.20	10590.92
476.38	10705.61
476.56	10869.45
476.74	10665.82
476.92	10799.23
477.10	10757.10
477.28	10883.49
477.46	10829.66
477.64	10995.84
477.82	11117.54
478.00	11398.41
478.18	11232.23
478.36	11323.51
478.54	11618.42
478.72	11625.44
478.90	11716.72
479.08	11756.51
479.26	12105.25
479.44	11939.07
479.62	12086.53
479.80	12039.72
479.98	12262.07
480.16	12257.39
480.34	12369.73
480.52	12318.24
480.70	12425.90
480.88	12442.29
481.06	12596.76
481.24	12596.76
481.41	12739.54
481.59	13125.72
481.77	13092.96
481.95	13242.75
482.13	13130.41
482.31	13291.90
482.49	13715.54
482.67	13282.54
482.85	13912.14
483.03	13486.17
483.21	14015.13
483.39	13942.57
483.57	13933.21
483.74	14129.81
483.92	14225.78
484.10	14375.57
484.28	14490.26
484.46	14705.59
484.64	14792.19
484.82	14525.36
485.00	14857.72
485.18	14949.00
485.35	15147.95
485.53	15143.27
485.71	14906.87
485.89	15239.23
486.07	15232.21
486.25	15733.08
486.43	15597.33
486.61	15840.75
486.78	16060.76
486.96	15983.52
487.14	16175.44
487.32	16367.37
487.50	16395.45
487.68	16542.91
487.85	16489.07
488.03	16816.75
488.21	17167.83
488.39	17048.46
488.57	17324.65
488.75	17259.11
488.92	17624.23
489.10	18015.10
489.28	18012.76
489.46	18015.10
489.64	18099.36
489.81	18090.00
489.99	18354.48
490.17	18555.77
490.35	18738.33
490.53	18761.73
490.70	18810.89
490.88	18597.90
491.06	19318.78
491.24	19211.12
491.41	19344.53
491.59	19370.27
491.77	19147.92
491.95	19541.13
492.13	19477.94
492.30	19988.18
492.48	19992.86
492.66	20222.23
492.84	20063.07
493.01	20568.63
493.19	20437.56
493.37	20414.15
493.54	20547.56
493.72	20704.38
493.90	20964.18
494.08	20968.86
494.25	21172.49
494.43	21312.92
494.61	21654.64
494.79	21343.35
494.96	21221.64
495.14	21617.19
495.32	21947.20
495.49	21813.79
495.67	22047.85
495.85	22494.89
496.02	22513.61
496.20	22401.27
496.38	22513.61
496.55	22618.94
496.73	22895.12
496.91	22909.16
497.09	23096.41
497.26	23426.42
497.44	23061.30
497.62	23365.57
497.79	23283.65
497.97	23290.67
498.14	23564.51
498.32	23592.60
498.50	23594.94
498.67	23878.15
498.85	23913.25
499.03	24388.38
499.20	24425.83
499.38	24130.92
499.56	24245.61
499.73	24643.50
499.91	24566.26
500.08	24524.13
500.26	24334.55
500.44	24882.24
500.61	24680.95
500.79	24622.44
500.97	24947.77
501.14	25399.49
501.32	25146.72
501.49	24971.18
501.67	25401.83
501.84	25549.29
502.02	25483.75
502.20	25757.60
502.37	26139.10
502.55	25617.16
502.72	25933.14
502.90	25886.32
503.07	25961.22
503.25	26150.81
503.43	26019.74
503.60	26260.81
503.78	26553.38
503.95	26118.04
504.13	26579.12
504.30	26824.88
504.48	26955.95
504.65	26785.09
504.83	27250.86
505.01	26981.70
505.18	26740.62
505.36	27529.38
505.53	27302.35
505.71	27304.69
505.88	27234.47
506.06	27232.13
506.23	27566.83
506.41	27276.60
506.58	27892.16
506.76	27562.15
506.93	28182.39
507.11	27590.24
507.28	27744.71
507.46	27917.91
507.63	27758.75
507.81	28020.89
507.98	28095.79
508.16	28247.93
508.33	28287.71
508.50	28615.39
508.68	28732.42
508.85	29064.77
509.03	28552.20
509.20	28694.97
509.38	28807.31
509.55	29558.63
509.73	29127.97
509.90	29113.92
510.08	29483.73
510.25	29333.93
510.42	29350.32
510.60	29663.95
510.77	29727.14
510.95	29656.93
511.12	29516.50
511.30	30017.37
511.47	30185.89
511.64	30146.10
511.82	30061.84
511.99	29949.50
512.17	30108.65
512.34	30096.95
512.51	30078.22
512.69	30487.82
512.86	30391.86
513.04	30941.88
513.21	30384.83
513.38	30635.27
513.56	30646.97
513.73	30663.36
513.90	30583.78
514.08	30340.36
514.25	31175.94
514.43	31129.12
514.60	30866.98
514.77	31398.29
514.95	31283.60
515.12	31723.62
515.29	31534.04
515.47	31627.66
515.64	31337.43
515.81	32018.53
515.99	31796.18
516.16	31927.25
516.33	31711.92
516.51	31981.08
516.68	31562.12
516.85	31662.77
517.03	31765.75
517.20	31716.60
517.37	31821.92
517.54	32446.85
517.72	32201.09
517.89	32205.77
518.06	32355.57
518.24	32098.11
518.41	32407.06
518.58	32556.85
518.75	32226.84
518.93	32938.36
519.10	32458.55
519.27	33104.54
519.45	32886.87
519.62	32884.53
519.79	33074.11
519.96	33153.69
520.14	33352.63
520.31	33493.07
520.48	33476.68
520.65	33436.89
520.83	33516.47
521.00	33493.07
521.17	33745.84
521.34	33483.70
521.52	33865.21
521.69	34087.56
521.86	34160.12
522.03	34007.98
522.20	34167.14
522.38	34368.43
522.55	34368.43
522.72	34272.46
522.89	34256.08
523.07	34742.91
523.24	33673.29
523.41	34263.10
523.58	34576.73
523.75	34906.75
523.92	34782.70
524.10	35250.81
524.27	34752.27
524.44	35019.10
524.61	34897.39
524.78	35271.87
524.96	35124.42
525.13	35145.48
525.30	35234.42
525.47	36062.97
525.64	35864.03
525.81	35566.78
525.98	35515.29
526.16	35157.19
526.33	35421.67
526.50	35365.49
526.67	35763.39
526.84	35459.12
527.01	35505.93
527.18	35594.87
527.36	36025.53
527.53	35929.56
527.70	35981.06
527.87	36418.74
528.04	36287.67
528.21	36219.79
528.38	36109.78
528.55	36077.02
528.72	36313.41
528.89	36685.56
529.07	36315.75
529.24	36439.80
529.41	36631.72
529.58	36559.17
529.75	36676.19
529.92	36407.03
530.09	37067.06
530.26	37195.79
530.43	36896.20
530.60	36795.56
530.77	36823.65
530.94	36818.97
531.11	36849.39
531.28	37586.66
531.46	37443.89
531.63	37385.38
531.80	37249.63
531.97	37170.05
532.14	37242.60
532.31	37429.85
532.48	38061.79
532.65	37614.75
532.82	37294.10
532.99	37816.04
533.16	37308.14
533.33	37502.40
533.50	37579.64
533.67	37949.45
533.84	37572.62
534.01	38024.34
534.18	37699.01
534.35	38108.60
534.52	38216.27
534.69	38087.54
534.86	38071.15
535.03	38141.37
535.20	37963.49
535.37	38806.08
535.54	38569.69
535.71	38602.46
535.88	38759.27
536.05	38497.13
536.22	38920.77
536.38	38852.89
536.55	38480.75
536.72	38988.64
536.89	38014.98
537.06	38700.76
537.23	38700.76
537.40	38646.93
537.57	39161.84
537.74	38981.62
537.91	39040.14
538.08	39203.97
538.25	38888.00
538.42	39168.87
538.59	39178.23
538.75	39075.24
538.92	39077.58
539.09	39550.37
539.26	39281.21
539.43	39108.01
539.60	39342.06
539.77	39440.37
539.94	39622.93
540.11	39552.71
540.28	39550.37
540.44	39194.61
540.61	39054.18
540.78	39470.79
540.95	39683.78
541.12	39304.62
541.29	39098.65
541.46	39683.78
541.62	39840.60
541.79	39894.43
541.96	39810.17
542.13	40055.93
542.30	40261.90
542.47	39700.17
542.63	39618.25
542.80	40137.85
542.97	40573.19
543.14	40217.43
543.31	40390.62
543.48	40570.85
543.64	41228.54
543.81	40694.89
543.98	40830.65
544.15	40261.90
544.32	40793.20
544.48	41186.41
544.65	40828.30
544.82	40893.84
544.99	40449.14
545.16	41184.07
545.32	40954.69
545.49	41378.33
545.66	41151.30
545.83	41158.32
546.00	41481.31
546.16	41099.81
546.33	41144.28
546.50	40587.23
546.67	41165.34
546.83	40524.04
547.00	41209.81
547.17	41008.53
547.34	41244.92
547.50	41535.15
547.67	41811.33
547.84	41364.29
548.00	42026.66
548.17	41574.94
548.34	41359.61
548.51	41799.63
548.67	41848.78
548.84	41713.03
549.01	41731.75
549.18	41834.74
549.34	41942.40
549.51	42094.53
549.68	41745.80
549.84	41897.93
550.01	41996.23
550.18	41647.49
550.34	41731.75
550.51	42134.32
550.68	42026.66
550.84	41867.50
551.01	42075.81
551.18	42057.09
551.34	42188.16
551.51	42714.78
551.68	42131.98
551.84	42546.26
552.01	42359.02
552.18	42164.75
552.34	41968.15
552.51	42450.30
552.68	42433.91
552.84	42445.62
553.01	42511.15
553.18	42733.50
553.34	42323.91
553.51	42635.20
553.67	42340.29
553.84	42859.89
554.01	42944.15
554.17	42745.20
554.34	42995.64
554.51	42986.28
554.67	43168.84
554.84	42983.94
555.00	42426.89
555.17	43019.05
555.33	42534.56
555.50	42803.72
555.67	42784.99
555.83	43098.62
556.00	42918.40
556.16	43316.29
556.33	43112.67
556.50	43096.28
556.66	43246.08
556.83	42841.17
556.99	43658.01
557.16	43655.67
557.32	42979.26
557.49	43100.97
557.65	42691.37
557.82	43084.58
557.98	43178.20
558.15	43187.56
558.32	43353.74
558.48	43358.42
558.65	43269.48
558.81	43316.29
558.98	43414.60
559.14	43363.11
559.31	42859.89
559.47	43697.80
559.64	43821.85
559.80	43643.97
559.97	43583.12
560.13	43646.31
560.30	43328.00
560.46	43784.40
560.63	43442.68
560.79	43646.31
560.96	44025.48
561.12	44116.76
561.29	43552.69
561.45	44081.65
561.61	43896.75
561.78	43402.89
561.94	43498.86
562.11	43791.42
562.27	43175.86
562.44	43847.60
562.60	43973.98
562.77	44083.99
562.93	43927.17
563.10	43992.71
563.26	43718.87
563.42	44292.30
563.59	43964.62
563.75	43964.62
563.92	43985.69
564.08	43742.27
564.24	44182.29
564.41	44058.24
564.57	44208.04
564.74	44364.85
564.90	44299.32
565.07	44198.68
565.23	43533.96
565.39	44140.16
565.56	44673.81
565.72	43826.53
565.88	44306.34
566.05	43992.71
566.21	43625.25
566.38	43491.83
566.54	44479.54
566.70	44381.24
566.87	44278.25
567.03	43913.13
567.19	44769.77
567.36	44198.68
567.52	43746.95
567.68	43957.60
567.85	44285.28
568.01	44385.92
568.17	44002.07
568.34	44205.70
568.50	44622.31
568.66	44020.80
568.83	44938.29
568.99	44060.58
569.15	44102.71
569.32	43952.92
569.48	44016.11
569.64	44727.64
569.81	44329.75
569.97	44493.58
570.13	44140.16
570.30	44556.78
570.46	43810.15
570.62	44444.43
570.78	43737.59
570.95	43999.73
571.11	44524.01
571.27	44502.95
571.43	44313.36
571.60	44210.38
571.76	44369.54
571.92	44074.63
572.09	44772.11
572.25	44292.30
572.41	44006.75
572.57	44287.62
572.74	44811.90
572.90	44549.76
573.06	44856.37
573.22	44643.38
573.38	44388.26
573.55	44524.01
573.71	44601.25
573.87	44280.60
574.03	44069.95
574.20	44266.55
574.36	44287.62
574.52	45015.52
574.68	44329.75
574.84	44776.79
575.01	44788.49
575.17	44254.85
575.33	44783.81
575.49	44425.71
575.65	44849.35
575.82	44858.71
575.98	44563.80
576.14	44732.32
576.30	44671.46
576.46	44619.97
576.62	44451.45
576.79	44636.36
576.95	44402.30
577.11	44296.98
577.27	44458.48
577.43	44474.86
577.59	44320.38
577.75	44872.75
577.92	44201.02
578.08	44278.25
578.24	44275.91
578.40	44933.60
578.56	44643.38
578.72	44692.53
578.88	44694.87
579.04	45013.18
579.21	44725.30
579.37	44612.95
579.53	44720.62
579.69	44416.35
579.85	44601.25
580.01	44708.91
580.17	44605.93
580.33	44795.51
580.49	44580.18
580.65	44914.88
580.82	44711.25
580.98	44594.23
581.14	44535.71
581.30	44753.38
581.46	44781.47
581.62	45027.23
581.78	44596.57
581.94	44821.26
582.10	44938.29
582.26	44137.82
582.42	44673.81
582.58	45008.50
582.74	44746.36
582.90	44619.97
583.06	44753.38
583.22	45095.10
583.38	45113.83
583.54	45067.02
583.70	44872.75
583.86	44392.94
584.02	44643.38
584.18	44868.07
584.34	44722.96
584.50	44573.16
584.66	44348.47
584.82	44643.38
584.98	45352.56
585.14	45186.38
585.30	44481.88
585.46	44308.68
585.62	44793.17
585.78	44708.91
585.94	44528.69
586.10	44502.95
586.26	44491.24
586.42	44907.86
586.58	44821.26
586.74	44645.72
586.90	45177.02
587.06	44767.43
587.22	44872.75
587.38	44374.22
587.54	45319.79
587.70	45071.70
587.86	44947.65
588.02	45059.99
588.18	44825.94
588.34	44673.81
588.49	44416.35
588.65	44516.99
588.81	44781.47
588.97	44884.45
589.13	44844.66
589.29	44802.53
589.45	45050.63
589.61	44921.90
589.77	45170.00
589.93	45041.27
590.08	44879.77
590.24	45223.83
590.40	45425.12
590.56	45432.14
590.72	44919.56
590.88	44687.85
591.04	45116.17
591.20	45280.00
591.35	45113.83
591.51	45490.65
591.67	45301.07
591.83	45078.72
591.99	44659.76
592.15	44987.44
592.31	45102.12
592.46	44914.88
592.62	44903.18
592.78	45132.55
592.94	45055.31
593.10	44966.37
593.26	45343.20
593.41	45240.21
593.57	45228.51
593.73	45268.30
593.89	45081.06
594.05	45202.77
594.20	44849.35
594.36	45490.65
594.52	45099.78
594.68	45420.44
594.84	45242.56
594.99	45521.08
595.15	45083.40
595.31	45354.90
595.47	44680.83
595.62	44844.66
595.78	45179.36
595.94	45481.29
596.10	45523.42
596.25	45858.12
596.41	45345.54
596.57	45003.82
596.73	45162.98
596.88	44463.16
597.04	45038.93
597.20	45359.58
597.36	45052.97
597.51	45757.47
597.67	45336.18
597.83	45357.24
597.99	45443.84
598.14	45024.89
598.30	45331.50
598.46	45111.49
598.61	45287.03
598.77	44769.77
598.93	45071.70
599.09	45237.87
599.24	45579.59
599.40	44964.03
599.56	45485.97
599.71	45340.86
599.87	45528.10
600.03	45184.04
600.18	45247.24
600.34	44924.24
600.50	45727.05
600.65	45240.21
600.81	45764.49
600.97	45500.01
601.12	45621.72
601.28	45614.70
601.44	45717.68
601.59	45343.20
601.75	44711.25
601.91	45256.60
602.06	44891.48
602.22	45390.01
602.37	45165.32
602.53	44905.52
602.69	45418.10
602.84	45151.27
603.00	44884.45
603.16	45258.94
603.31	44842.32
603.47	45024.89
603.62	45251.92
603.78	45041.27
603.94	45052.97
604.09	45509.38
604.25	45673.21
604.40	45003.82
604.56	45052.97
604.71	45146.59
604.87	45357.24
605.03	45258.94
605.18	44580.18
605.34	45172.34
605.49	45069.36
605.65	44830.62
605.80	45184.04
605.96	45268.30
606.12	45406.39
606.27	45457.88
606.43	44657.42
606.58	45167.66
606.74	45116.17
606.89	45127.87
607.05	45331.50
607.20	45345.54
607.36	44952.33
607.51	45160.64
607.67	45001.48
607.82	45247.24
607.98	44811.90
608.13	45022.54
608.29	45031.91
608.44	44500.61
608.60	43859.30
608.75	44734.66
608.91	44781.47
609.06	44779.13
609.22	44942.97
609.37	44601.25
609.53	44671.46
609.68	44814.24
609.84	44708.91
609.99	44460.82
610.15	44538.05
610.30	44559.12
610.46	44289.96
610.61	44720.62
610.76	44711.25
610.92	44428.05
611.07	44575.50
611.23	44605.93
611.38	44596.57
611.54	44435.07
611.69	44271.23
611.84	44839.98
612.00	44414.01
612.15	44463.16
612.31	44549.76
612.46	44465.50
612.62	44809.56
612.77	44392.94
612.92	44201.02
613.08	44301.66
613.23	44100.37
613.39	44065.27
613.54	43590.14
613.69	44062.93
613.85	44034.84
614.00	44416.35
614.15	44521.67
614.31	44184.63
614.46	44404.64
614.62	44149.53
614.77	44191.65
614.92	44259.53
615.08	44140.16
615.23	44016.11
615.38	44189.31
615.54	44032.50
615.69	43863.98
615.84	43966.96
616.00	44467.84
616.15	44212.72
616.30	44095.69
616.46	43646.31
616.61	43335.02
616.76	44114.42
616.92	43587.80
617.07	43620.56
617.22	43959.94
617.37	44027.82
617.53	43711.84
617.68	43908.45
617.83	43718.87
617.99	44016.11
618.14	43915.47
618.29	43753.97
618.45	43239.06
618.60	43817.17
618.75	43515.24
618.90	43803.13
619.06	43356.08
619.21	43938.88
619.36	43782.06
619.51	43660.35
619.67	43653.33
619.82	43786.74
619.97	43728.23
620.12	43400.55
620.28	42944.15
620.43	43550.35
620.58	43140.75
620.73	43533.96
620.89	42976.92
621.04	43716.53
621.19	43103.31
621.34	43194.59
621.49	43140.75
621.65	43075.22
621.80	43299.91
621.95	42782.65
622.10	43274.16
622.25	43147.78
622.41	42806.06
622.56	42913.72
622.71	43311.61
622.86	42682.01
623.01	43388.85
623.16	43000.32
623.32	43206.29
623.47	43552.69
623.62	43313.95
623.77	42621.16
623.92	42670.31
624.07	42408.17
624.23	42351.99
624.38	42649.24
624.53	42162.41
624.68	43213.31
624.83	42623.50
624.98	42536.90
625.13	42277.10
625.29	43058.84
625.44	42504.13
625.59	42698.39
625.74	42726.48
625.89	42211.56
626.04	42124.96
626.19	42756.91
626.34	42178.79
626.49	42492.43
626.65	42096.88
626.80	42564.98
626.95	42164.75
627.10	42351.99
627.25	42410.51
627.40	41860.48
627.55	41790.27
627.70	41546.85
627.85	41769.20
628.00	42024.32
628.15	42206.88
628.30	41982.19
628.45	42321.57
628.60	41862.82
628.76	41359.61
628.91	41958.78
629.06	42202.20
629.21	41621.75
629.36	41926.02
629.51	42061.77
629.66	41453.23
629.81	41914.31
629.96	41525.78
630.11	41858.14
630.26	41787.92
630.41	42087.51
630.56	41570.25
630.71	41394.71
630.86	42155.39
631.01	41155.98
631.16	41446.21
631.31	41139.60
631.46	40631.70
631.61	41427.48
631.76	41502.38
631.91	41146.62
632.06	41654.51
632.21	41736.43
632.36	41546.85
632.51	41141.94
632.66	41413.44
632.81	40938.31
632.96	41144.28
633.10	40732.34
633.25	41155.98
633.40	41045.97
633.55	41474.29
633.70	41268.33
633.85	41013.21
634.00	40989.80
634.15	40971.08
634.30	41322.16
634.45	41120.87
634.60	40502.97
634.75	41237.90
634.90	41090.44
635.05	41060.02
635.19	40919.59
635.34	41443.87
635.49	40697.24
635.64	40664.47
635.79	40540.42
635.94	40385.94
636.09	40900.86
636.24	40741.71
636.39	40481.91
636.53	40418.71
636.68	40552.12
636.83	40294.66
636.98	40940.65
637.13	40046.57
637.28	40547.44
637.43	40657.45
637.57	40552.12
637.72	40645.74
637.87	40746.39
638.02	40430.41
638.17	40701.92
638.32	40065.29
638.46	40533.40
638.61	40219.77
638.76	40161.25
638.91	40217.43
639.06	39957.63
639.20	40081.67
639.35	40144.87
639.50	40135.51
639.65	40177.64
639.80	39995.07
639.94	39871.03
640.09	40158.91
640.24	39983.37
640.39	39997.41
640.54	40217.43
640.68	39824.22
640.83	40006.78
640.98	39714.21
641.13	39590.16
641.27	40219.77
641.42	39936.56
641.57	39477.82
641.72	40055.93
641.86	39704.85
642.01	39089.29
642.16	39402.92
642.31	39168.87
642.45	39737.62
642.60	39185.25
642.75	39103.33
642.90	39704.85
643.04	39175.89
643.19	39566.76
643.34	39585.48
643.48	39227.38
643.63	39658.04
643.78	39349.09
643.93	38794.38
644.07	38930.13
644.22	39192.27
644.37	39093.97
644.51	38752.25
644.66	39426.32
644.81	39344.41
644.95	39428.66
645.10	39058.86
645.25	39445.05
645.39	39105.67
645.54	39019.07
645.69	39234.40
645.83	38871.62
645.98	39136.10
646.13	39082.27
646.27	38883.32
646.42	38871.62
646.57	39110.35
646.71	38529.90
646.86	39108.01
647.00	39325.68
647.15	38721.82
647.30	39098.65
647.44	38801.40
647.59	38595.43
647.74	38120.31
647.88	38843.53
648.03	38663.31
648.17	38600.12
648.32	38763.95
648.47	38696.08
648.61	38588.41
648.76	38548.62
648.90	38506.49
649.05	38600.12
649.20	39077.58
649.34	38595.43
649.49	38197.54
649.63	38539.26
649.78	38471.39
649.92	38656.29
650.07	38895.02
650.21	38239.67
650.36	38204.56
650.51	37975.19
650.65	38628.20
650.80	38735.87
650.94	38532.24
651.09	38724.16
651.23	38300.53
651.38	38281.80
651.52	38195.20
651.67	37916.68
651.81	38321.59
651.96	37734.12
652.10	37926.04
652.25	37715.39
652.39	37755.18
652.54	38260.74
652.68	37989.24
652.83	38230.31
652.97	37647.52
653.12	37816.04
653.26	37703.69
653.41	37764.54
653.55	37785.61
653.70	37612.41
653.84	37544.53
653.99	37998.60
654.13	37612.41
654.27	37331.54
654.42	37546.87
654.56	37305.80
654.71	37434.53
654.85	37649.86
655.00	37315.16
655.14	37233.24
655.29	37275.37
655.43	37275.37
655.57	37038.98
655.72	36652.79
655.86	37212.18
656.01	37200.47
656.15	36966.42
656.30	36861.10
656.44	37221.54
656.58	36959.40
656.73	36842.37
656.87	37268.35
657.01	36498.31
657.16	36935.99
657.30	36856.42
657.45	36411.71
657.59	36786.20
657.73	36692.58
657.88	37060.04
658.02	36952.38
658.16	36528.74
658.31	36769.82
658.45	36973.44
658.60	37008.55
658.74	36788.54
658.88	36687.90
659.03	36697.26
659.17	36318.09
659.31	36271.28
659.46	36304.05
659.60	36165.96
659.74	36566.19
659.89	36278.30
660.03	36149.57
660.17	36226.81
660.32	36278.30
660.46	36566.19
660.60	36084.04
660.74	36388.31
660.89	36266.60
661.03	35983.40
661.17	35824.24
661.32	35693.17
661.46	35768.07
661.60	35386.56
661.74	35550.40
661.89	35749.34
662.03	35484.86
662.17	35096.33
662.31	35456.78
662.46	35969.35
662.60	35758.70
662.74	35503.59
662.88	35433.37
663.03	35519.97
663.17	35672.10
663.31	35482.52
663.45	35463.80
663.60	35035.48
663.74	35019.10
663.88	34881.00
664.02	34646.95
664.17	35302.30
664.31	34642.27
664.45	35084.63
664.59	35304.64
664.73	35023.78
664.88	35040.16
665.02	34740.57
665.16	34806.11
665.30	34747.59
665.44	34487.79
665.59	34258.42
665.73	34249.06
665.87	34340.34
666.01	34057.14
666.15	34314.59
666.29	34541.63
666.44	34153.10
666.58	34220.97
666.72	34270.12
666.86	34167.14
667.00	34183.52
667.14	34155.44
667.28	33795.00
667.43	33612.43
667.57	33385.40
667.71	33888.62
667.85	33352.63
667.99	33624.14
668.13	33242.63
668.27	33553.92
668.41	33654.56
668.56	33467.32
668.70	33305.82
668.84	33200.50
668.98	33422.85
669.12	33212.20
669.26	33504.77
669.40	33284.76
669.54	33132.62
669.68	33109.22
669.82	32957.08
669.96	32830.69
670.10	32758.14
670.25	32818.99
670.39	33106.88
670.53	32800.27
670.67	32423.44
670.81	32795.59
670.95	32643.45
671.09	32542.81
671.23	32659.84
671.37	32416.42
671.51	32400.04
671.65	32416.42
671.79	32121.51
671.93	32002.14
672.07	32299.39
672.21	32306.41
672.35	32156.62
672.49	31807.88
672.63	31934.27
672.77	31651.06
672.91	31814.90
673.05	31552.76
673.19	31571.49
673.33	31365.52
673.47	31655.75
673.61	31264.88
673.75	31323.39
673.89	31054.23
674.03	30747.62
674.17	30955.93
674.31	31271.90
674.45	30883.37
674.59	31037.84
674.73	31379.56
674.87	30738.26
675.01	30857.62
675.15	30866.98
675.29	31030.82
675.43	30717.19
675.56	30656.34
675.70	30555.69
675.84	30038.44
675.98	29165.42
676.12	30157.80
676.26	30155.46
676.40	29874.60
676.54	29621.82
676.68	29989.28
676.82	29184.14
676.96	29355.00
677.10	29717.78
677.23	29476.71
677.37	29392.45
677.51	28982.85
677.65	29383.09
677.79	28788.59
677.93	29134.99
678.07	28697.31
678.21	28910.30
678.34	28622.41
678.48	28755.82
678.62	28748.80
678.76	28526.45
678.90	28561.56
679.04	28346.23
679.18	28503.04
679.31	27889.82
679.45	27875.78
679.59	28175.37
679.73	27910.89
679.87	27915.57
680.00	28229.20
680.14	27681.52
680.28	27398.31
680.42	27529.38
680.56	27440.44
680.70	27594.92
680.83	27101.06
680.97	27168.94
681.11	26913.82
681.25	27042.55
681.39	26843.60
681.52	27316.39
681.66	26757.00
681.80	26991.06
681.94	26567.42
682.07	26579.12
682.21	26522.95
682.35	26204.64
682.49	26345.07
682.62	26401.24
682.76	26087.61
682.90	26214.00
683.04	26190.59
683.17	25996.33
683.31	26068.89
683.45	25855.90
683.59	25624.18
683.72	25095.22
683.86	25097.56
684.00	24978.20
684.13	25411.20
684.27	25287.15
684.41	25202.89
684.55	24985.22
684.68	25099.90
684.82	24364.98
684.96	24891.60
685.09	24737.12
685.23	24624.78
685.37	24680.95
685.50	24608.39
685.64	24400.08
685.78	24477.32
685.91	24128.58
686.05	24374.34
686.19	23658.14
686.32	23878.15
686.46	23917.93
686.60	23491.96
686.73	23566.85
686.87	23590.26
687.01	23527.06
687.14	23253.22
687.28	23178.33
687.42	23063.64
687.55	22721.92
687.69	22621.28
687.82	22862.35
687.96	22925.55
688.10	22728.94
688.23	22544.04
688.37	22750.01
688.50	22106.36
688.64	22473.82
688.78	22235.09
688.91	22202.32
689.05	22099.34
689.18	22155.51
689.32	21661.66
689.46	22106.36
689.59	22094.66
689.73	22017.42
689.86	21909.75
690.00	21591.44
690.13	21394.84
690.27	21706.13
690.41	21614.85
690.54	21001.63
690.68	21408.88
690.81	21116.31
690.95	21013.33
691.08	21008.65
691.22	21198.23
691.35	20744.17
691.49	20987.58
691.62	21055.46
691.76	20790.98
691.89	20849.49
692.03	20549.90
692.16	20372.02
692.30	20582.67
692.43	20051.37
692.57	19819.66
692.70	20191.80
692.84	20161.37
692.97	19641.78
693.11	19913.28
693.24	19936.68
693.38	19798.59
693.51	19325.80
693.65	19321.12
693.78	19440.49
693.92	19634.75
694.05	19295.38
694.19	19389.00
694.32	18677.48
694.45	19213.46
694.59	19040.26
694.72	19044.94
694.86	18876.42
694.99	18733.65
695.13	18808.54
695.26	18300.65
695.39	18455.12
695.53	18211.71
695.66	18448.10
695.80	18375.55
695.93	17982.34
696.07	18263.20
696.20	18455.12
696.33	17797.43
696.47	17970.63
696.60	18286.61
696.73	17891.06
696.87	17841.90
697.00	17488.48
697.14	17734.24
697.27	17575.08
697.40	17596.15
697.54	17575.08
697.67	17305.92
697.80	17324.65
697.94	16929.09
698.07	16950.16
698.21	16957.18
698.34	17069.53
698.47	16716.11
698.61	16491.41
698.74	16608.44
698.87	16545.25
699.01	16519.50
699.14	16489.07
699.27	16379.07
699.40	16297.15
699.54	16025.65
699.67	16023.31
699.80	16107.57
699.94	16100.55
700.07	16074.80
700.20	15955.43
700.34	15672.23
700.47	15756.49
700.60	15840.75
700.73	16084.16
700.87	15620.74
701.00	15522.43
701.13	15634.78
701.26	15461.58
701.40	15559.88
701.53	15068.37
701.66	15349.23
701.79	15133.90
701.93	15140.93
702.06	14871.76
702.19	14925.60
702.32	14885.81
702.46	15122.20
702.59	14782.82
702.72	14726.65
702.85	14808.57
702.99	14841.34
703.12	14555.79
703.25	14607.28
703.38	14623.67
703.51	14291.31
703.65	14520.68
703.78	14352.16
703.91	14115.77
704.04	13947.25
704.17	13977.68
704.31	13870.01
704.44	13657.03
704.57	13488.51
704.70	13776.39
704.83	13827.88
704.96	13872.36
705.10	13509.57
705.23	13928.53
>>>>>End Processed Spectral Data<<<<<
