SpectraSuite Data File
++++++++++++++++++++++++++++++++++++
Date: Fri Oct 25 10:44:43 EDT 2013
User: price-jones
Dark Spectrum Present: No
Reference Spectrum Present: No
Number of Sampled Component Spectra: 1
Spectrometers: USB2+H05261
Integration Time (usec): 100000 (USB2+H05261)
Spectra Averaged: 1 (USB2+H05261)
Boxcar Smoothing: 0 (USB2+H05261)
Correct for Electrical Dark: No (USB2+H05261)
Strobe/Lamp Enabled: No (USB2+H05261)
Correct for Detector Non-linearity: No (USB2+H05261)
Correct for Stray Light: No (USB2+H05261)
Number of Pixels in Processed Spectrum: 2048
>>>>>Begin Processed Spectral Data<<<<<
365.73	173.20
365.92	173.20
366.12	173.20
366.32	65.54
366.52	4.68
366.72	67.88
366.91	98.30
367.11	65.54
367.31	21.06
367.51	30.43
367.70	2.34
367.90	37.45
368.10	77.24
368.30	58.51
368.49	72.56
368.69	84.26
368.89	100.64
369.09	0.00
369.28	63.19
369.48	70.22
369.68	58.51
369.87	117.03
370.07	70.22
370.27	163.84
370.47	154.48
370.66	339.38
370.86	386.19
371.06	447.04
371.25	484.49
371.45	451.72
371.65	493.85
371.84	416.62
372.04	433.00
372.24	463.43
372.44	514.92
372.63	451.72
372.83	533.64
373.03	503.22
373.22	444.70
373.42	425.98
373.62	564.07
373.81	475.13
374.01	512.58
374.21	540.66
374.40	510.24
374.60	503.22
374.79	531.30
374.99	573.43
375.19	512.58
375.38	615.56
375.58	599.18
375.78	587.47
375.97	512.58
376.17	582.79
376.37	531.30
376.56	610.88
376.76	613.22
376.95	599.18
377.15	564.07
377.35	524.28
377.54	606.20
377.74	622.58
377.93	521.94
378.13	578.11
378.33	585.13
378.52	592.16
378.72	664.71
378.91	559.39
379.11	566.41
379.31	608.54
379.50	645.99
379.70	638.97
379.89	599.18
380.09	617.90
380.28	601.52
380.48	662.37
380.68	631.94
380.87	580.45
381.07	624.92
381.26	631.94
381.46	662.37
381.65	608.54
381.85	608.54
382.04	739.61
382.24	643.65
382.43	671.73
382.63	674.07
382.83	645.99
383.02	788.76
383.22	713.86
383.41	692.80
383.61	669.39
383.80	688.12
384.00	720.88
384.19	718.54
384.39	706.84
384.58	678.76
384.78	737.27
384.97	716.20
385.17	723.23
385.36	690.46
385.56	781.74
385.75	821.53
385.95	802.80
386.14	772.38
386.34	753.65
386.53	826.21
386.72	828.55
386.92	819.19
387.11	849.61
387.31	840.25
387.50	690.46
387.70	770.04
387.89	830.89
388.09	758.33
388.28	812.17
388.48	851.96
388.67	828.55
388.86	877.70
389.06	851.96
389.25	901.11
389.45	931.53
389.64	978.34
389.84	959.62
390.03	901.11
390.22	816.85
390.42	931.53
390.61	938.55
390.81	919.83
391.00	1034.52
391.19	1004.09
391.39	1006.43
391.58	1039.20
391.78	1004.09
391.97	919.83
392.16	887.06
392.36	1043.88
392.55	994.73
392.75	961.96
392.94	999.41
393.13	952.60
393.33	983.02
393.52	1053.24
393.71	1053.24
393.91	1074.31
394.10	1008.77
394.29	1029.84
394.49	1114.10
394.68	1174.95
394.88	1083.67
395.07	1158.57
395.26	1116.44
395.46	1097.71
395.65	1118.78
395.84	1144.52
396.04	1135.16
396.23	1039.20
396.42	1114.10
396.62	1135.16
396.81	1135.16
397.00	1181.97
397.19	1219.42
397.39	1144.52
397.58	1231.12
397.77	1252.19
397.97	1146.86
398.16	1252.19
398.35	1399.64
398.55	1252.19
398.74	1315.38
398.93	1441.77
399.12	1334.11
399.32	1310.70
399.51	1378.58
399.70	1437.09
399.90	1350.49
400.09	1502.62
400.28	1401.98
400.47	1441.77
400.67	1504.96
400.86	1516.67
401.05	1514.33
401.24	1472.20
401.44	1530.71
401.63	1446.45
401.82	1460.49
402.01	1586.88
402.21	1614.97
402.40	1495.60
402.59	1437.09
402.78	1547.09
402.97	1540.07
403.17	1572.84
403.36	1619.65
403.55	1619.65
403.74	1621.99
403.93	1647.74
404.13	1631.35
404.32	1629.01
404.51	1724.97
404.70	1654.76
404.89	1650.08
405.09	1816.26
405.28	1739.02
405.47	1692.21
405.66	1809.23
405.85	1778.81
406.05	1701.57
406.24	1790.51
406.43	1802.21
406.62	1849.02
406.81	1853.70
407.00	1816.26
407.20	1818.60
407.39	1741.36
407.58	1961.37
407.77	1916.90
407.96	2001.16
408.15	1959.03
408.34	1968.39
408.54	2019.88
408.73	1996.48
408.92	2069.03
409.11	1928.60
409.30	1994.14
409.49	2087.76
409.68	2008.18
409.87	2085.42
410.07	2183.72
410.26	2038.61
410.45	2076.06
410.64	2193.08
410.83	2246.91
411.02	2305.43
411.21	2375.64
411.40	2221.17
411.59	2251.60
411.78	2200.10
411.98	2200.10
412.17	2347.56
412.36	2394.37
412.55	2392.03
412.74	2394.37
412.93	2448.20
413.12	2476.29
413.31	2541.82
413.50	2548.84
413.69	2588.63
413.88	2546.50
414.07	2630.76
414.26	2682.25
414.45	2647.15
414.64	2595.65
414.83	2679.91
415.02	2860.13
415.22	2920.99
415.41	2773.53
415.60	2822.69
415.79	2899.92
415.98	2918.65
416.17	2953.76
416.36	2733.75
416.55	2857.79
416.74	2937.37
416.93	2939.71
417.12	2935.03
417.31	3026.31
417.50	3030.99
417.69	3138.66
417.88	3075.46
418.07	3185.47
418.26	3126.96
418.45	3183.13
418.64	3321.22
418.83	3218.24
419.02	3152.70
419.21	3426.54
419.39	3314.20
419.58	3073.12
419.77	3274.41
419.96	3323.56
420.15	3265.05
420.34	3325.90
420.53	3318.88
420.72	3349.31
420.91	3405.48
421.10	3510.80
421.29	3541.23
421.48	3391.44
421.67	3583.36
421.86	3386.76
422.05	3517.83
422.24	3445.27
422.43	3393.78
422.61	3574.00
422.80	3611.45
422.99	3552.93
423.18	3487.40
423.37	3691.02
423.56	3552.93
423.75	3487.40
423.94	3421.86
424.13	3344.63
424.32	3468.67
424.50	3566.98
424.69	3758.90
424.88	3721.45
425.07	3581.02
425.26	3541.23
425.45	3557.61
425.64	3676.98
425.83	3588.04
426.01	3705.07
426.20	3496.76
426.39	3660.60
426.58	3541.23
426.77	3700.39
426.96	3691.02
427.15	3585.70
427.33	3789.33
427.52	3810.39
427.71	3803.37
427.90	3763.58
428.09	3892.31
428.28	3824.44
428.46	3836.14
428.65	3761.24
428.84	3936.78
429.03	3953.16
429.22	3761.24
429.40	3854.86
429.59	3810.39
429.78	3765.92
429.97	3662.94
430.16	3756.56
430.34	3847.84
430.53	3983.59
430.72	3927.42
430.91	3808.05
431.10	3983.59
431.28	4112.32
431.47	4227.01
431.66	4273.82
431.85	4058.49
432.03	4154.45
432.22	4205.94
432.41	4269.14
432.60	4208.28
432.79	4149.77
432.97	4353.40
433.16	4414.25
433.35	4166.15
433.54	4138.07
433.72	4320.63
433.91	4196.58
434.10	4257.43
434.28	4374.46
434.47	4428.29
434.66	4510.21
434.85	4456.38
435.03	4484.47
435.22	4475.10
435.41	4816.82
435.59	4564.04
435.78	4535.96
435.97	4723.20
436.16	4613.20
436.34	4552.34
436.53	4568.73
436.72	4695.11
436.90	4676.39
437.09	4676.39
437.28	4723.20
437.46	4669.37
437.65	4720.86
437.84	4589.79
438.02	4882.36
438.21	4816.82
438.40	4746.61
438.58	4922.15
438.77	5114.07
438.96	4868.31
439.14	4931.51
439.33	5128.11
439.52	5083.64
439.70	5149.18
439.89	5245.14
440.08	5205.35
440.26	5146.84
440.45	5261.52
440.63	5210.03
440.82	5589.20
441.01	5263.86
441.19	5317.70
441.38	5540.05
441.57	5416.00
441.75	5423.02
441.94	5689.84
442.12	5781.12
442.31	5827.93
442.50	5778.78
442.68	5682.82
442.87	5724.95
443.05	5736.65
443.24	5846.66
443.43	5809.21
443.61	5804.53
443.80	6080.71
443.98	5727.29
444.17	5720.27
444.35	5970.71
444.54	5923.90
444.73	5888.79
444.91	5905.17
445.10	5706.23
445.28	6001.13
445.47	5809.21
445.65	5884.11
445.84	5818.57
446.02	5881.77
446.21	6139.23
446.39	5996.45
446.58	6085.39
446.77	6141.57
446.95	5783.46
447.14	6141.57
447.32	6090.07
447.51	6010.50
447.69	6094.76
447.88	5996.45
448.06	6005.81
448.25	6001.13
448.43	6146.25
448.62	6038.58
448.80	6153.27
448.99	6017.52
449.17	6228.17
449.36	6223.48
449.54	6258.59
449.73	6317.11
449.91	6544.14
450.10	6375.62
450.28	6609.67
450.46	6415.41
450.65	6684.57
450.83	6539.46
451.02	6544.14
451.20	6513.71
451.39	6558.18
451.57	6555.84
451.76	6469.24
451.94	6530.09
452.13	6729.04
452.31	6410.73
452.49	6490.31
452.68	6670.53
452.86	6583.93
453.05	6661.16
453.23	6509.03
453.42	6703.29
453.60	6651.80
453.78	6759.47
453.97	6562.86
454.15	6738.40
454.34	6619.04
454.52	6773.51
454.70	6799.26
454.89	6888.20
455.07	6991.18
455.26	7030.97
455.44	7007.56
455.62	6888.20
455.81	7047.35
455.99	7037.99
456.17	7143.32
456.36	7185.44
456.54	7150.34
456.73	7208.85
456.91	7353.96
457.09	7375.03
457.28	7463.97
457.46	7274.38
457.64	7541.21
457.83	7379.71
458.01	7133.95
458.19	7489.71
458.38	7480.35
458.56	7634.83
458.74	7435.88
458.93	7634.83
459.11	7571.63
459.29	7543.55
459.48	7679.30
459.66	7583.34
459.84	7637.17
460.03	7730.79
460.21	7592.70
460.39	7892.29
460.57	7786.96
460.76	7889.95
460.94	7672.28
461.12	7953.14
461.31	7969.52
461.49	7932.08
461.67	7751.85
461.85	8086.55
462.04	7854.84
462.22	8100.59
462.40	8374.44
462.59	8028.04
462.77	8098.25
462.95	8084.21
463.13	8116.98
463.32	8135.70
463.50	8037.40
463.68	8091.23
463.86	8236.35
464.05	8292.52
464.23	8142.72
464.41	8334.65
464.59	8028.04
464.78	8315.92
464.96	8318.26
465.14	8088.89
465.32	8423.59
465.50	8283.16
465.69	8496.14
465.87	8435.29
466.05	8367.42
466.23	8468.06
466.41	8505.51
466.60	8641.26
466.78	8606.15
466.96	8446.99
467.14	8496.14
467.32	8713.81
467.51	8503.17
467.69	8442.31
467.87	8528.91
468.05	8769.99
468.23	8692.75
468.41	8695.09
468.60	8655.30
468.78	8788.71
468.96	8849.57
469.14	8975.95
469.32	9092.98
469.50	8879.99
469.69	8926.80
469.87	8945.53
470.05	8978.30
470.23	9149.15
470.41	9036.81
470.59	9004.04
470.77	8973.61
470.95	9160.86
471.14	9172.56
471.32	9008.72
471.50	9390.23
471.68	9329.38
471.86	9525.98
472.04	9525.98
472.22	9795.14
472.40	9312.99
472.58	9460.45
472.77	9415.98
472.95	9769.40
473.13	9989.41
473.31	9542.36
473.49	9525.98
473.67	9720.24
473.85	9954.30
474.03	10153.24
474.21	10127.50
474.39	10129.84
474.57	10092.39
474.75	10312.40
474.93	10380.28
475.12	10274.95
475.30	10293.68
475.48	10141.54
475.66	10253.89
475.84	10317.08
476.02	10614.33
476.20	10438.79
476.38	10817.96
476.56	10918.60
476.74	10913.92
476.92	10794.55
477.10	10953.71
477.28	11105.84
477.46	11049.67
477.64	11178.40
477.82	11538.84
478.00	11384.37
478.18	11365.64
478.36	11550.54
478.54	11826.73
478.72	11770.55
478.90	11683.95
479.08	11908.65
479.26	12290.15
479.44	11969.50
479.62	12147.38
479.80	12294.83
479.98	12159.08
480.16	12531.23
480.34	12416.54
480.52	12751.24
480.70	12781.67
480.88	12526.55
481.06	12571.02
481.24	12751.24
481.41	12863.58
481.59	13102.32
481.77	13139.77
481.95	13209.98
482.13	13345.73
482.31	13425.31
482.49	13664.05
482.67	13682.77
482.85	13650.00
483.03	13912.14
483.21	14300.67
483.39	14080.66
483.57	14244.50
483.74	14003.43
483.92	14373.23
484.10	14125.13
484.28	14682.18
484.46	14764.10
484.64	14904.53
484.82	14768.78
485.00	15075.39
485.18	14979.43
485.35	15077.73
485.53	14794.53
485.71	15033.26
485.89	15262.63
486.07	15297.74
486.25	15576.27
486.43	15480.30
486.61	15936.71
486.78	15929.69
486.96	16128.63
487.14	16334.60
487.32	16437.58
487.50	16489.07
487.68	16561.63
487.85	17078.89
488.03	16989.95
488.21	17160.81
488.39	17116.34
488.57	17277.83
488.75	17406.56
488.92	17717.86
489.10	17905.10
489.28	17853.61
489.46	18150.85
489.64	18307.67
489.81	18572.15
489.99	18441.08
490.17	18600.24
490.35	18831.95
490.53	18913.87
490.70	18686.84
490.88	18848.33
491.06	19278.99
491.24	19370.27
491.41	19328.14
491.59	18906.85
491.77	19253.25
491.95	19520.07
492.13	19599.65
492.30	19826.68
492.48	19854.76
492.66	20362.66
492.84	20641.18
493.01	20568.63
493.19	20374.36
493.37	20711.40
493.54	20498.41
493.72	20837.79
493.90	21125.68
494.08	21404.20
494.25	21191.21
494.43	21387.82
494.61	21701.45
494.79	21532.93
494.96	21511.86
495.14	21706.13
495.32	22221.05
495.49	22066.57
495.67	21923.80
495.85	22148.49
496.02	22190.62
496.20	22668.09
496.38	22731.28
496.55	23049.60
496.73	22991.08
496.91	22848.31
497.09	23201.73
497.26	23161.94
497.44	23084.70
497.62	23482.59
497.79	23456.85
497.97	23323.44
498.14	23742.39
498.32	23552.81
498.50	23861.76
498.67	24095.82
498.85	23784.52
499.03	24208.16
499.20	24334.55
499.38	24339.23
499.56	24437.53
499.73	24961.81
499.91	24622.44
500.08	24797.98
500.26	24435.19
500.44	25097.56
500.61	24980.54
500.79	24741.80
500.97	25415.88
501.14	25181.82
501.32	25387.79
501.49	25191.19
501.67	25179.48
501.84	25537.59
502.02	25443.96
502.20	25635.89
502.37	26043.14
502.55	25832.49
502.72	25837.17
502.90	26394.22
503.07	26106.34
503.25	26366.13
503.43	26206.98
503.60	26225.70
503.78	25921.43
503.95	26581.46
504.13	26707.85
504.30	26651.68
504.48	26953.61
504.65	26962.97
504.83	27145.53
505.01	27058.93
505.18	26925.52
505.36	27868.76
505.53	27491.93
505.71	27136.17
505.88	27843.01
506.06	27358.52
506.23	27768.12
506.41	27571.51
506.58	27791.52
506.76	27971.74
506.93	27840.67
507.11	27857.06
507.28	27882.80
507.46	28287.71
507.63	28044.30
507.81	28077.07
507.98	28109.83
508.16	28610.71
508.33	28856.46
508.50	28959.45
508.68	29165.42
508.85	28924.34
509.03	28671.56
509.20	28821.36
509.38	29394.79
509.55	29071.79
509.73	29479.05
509.90	29450.96
510.08	29207.55
510.25	29029.66
510.42	29008.60
510.60	29743.53
510.77	29940.13
510.95	30103.97
511.12	29830.13
511.30	29968.22
511.47	30286.53
511.64	30401.22
511.82	30204.61
511.99	29912.05
512.17	30225.68
512.34	30110.99
512.51	30356.75
512.69	30698.47
512.86	30665.70
513.04	30974.65
513.21	30855.28
513.38	30480.80
513.56	30834.22
513.73	30560.37
513.90	31007.42
514.08	30817.83
514.25	31407.65
514.43	31070.61
514.60	31145.51
514.77	31124.44
514.95	31646.38
515.12	31433.39
515.29	31915.54
515.47	31587.87
515.64	31917.89
515.81	31709.58
515.99	31873.42
516.16	31929.59
516.33	31718.94
516.51	31866.39
516.68	31599.57
516.85	31880.44
517.03	31917.89
517.20	31789.16
517.37	32439.82
517.54	32053.64
517.72	32411.74
517.89	32313.44
518.06	32006.83
518.24	32224.50
518.41	32409.40
518.58	32367.27
518.75	32673.88
518.93	32936.02
519.10	33053.05
519.27	33043.68
519.45	32921.98
519.62	33376.04
519.79	33399.44
519.96	33434.55
520.14	33305.82
520.31	33254.33
520.48	33261.35
520.65	33502.43
520.83	33900.32
521.00	33996.28
521.17	33965.85
521.34	33949.47
521.52	33734.14
521.69	33750.52
521.86	34391.83
522.03	34483.11
522.20	34438.64
522.38	34160.12
522.55	34513.54
522.72	34611.84
522.89	34550.99
523.07	34609.50
523.24	34391.83
523.41	34806.11
523.58	34768.66
523.75	35115.06
523.92	35140.80
524.10	34778.02
524.27	34979.31
524.44	34756.96
524.61	35168.89
524.78	35683.81
524.96	35571.46
525.13	35566.78
525.30	35515.29
525.47	36187.02
525.64	35566.78
525.81	35700.19
525.98	35569.12
526.16	35405.28
526.33	35267.19
526.50	35868.71
526.67	35372.52
526.84	35800.83
527.01	35288.26
527.18	35754.02
527.36	35796.15
527.53	36392.99
527.70	36196.38
527.87	36320.43
528.04	36423.42
528.21	36421.08
528.38	36364.90
528.55	36804.92
528.72	36690.24
528.89	36510.02
529.07	36748.75
529.24	36224.47
529.41	36818.97
529.58	36872.80
529.75	36486.61
529.92	37003.87
530.09	37223.88
530.26	37064.72
530.43	36905.57
530.60	36540.44
530.77	36788.54
530.94	36917.27
531.11	36893.86
531.28	37270.69
531.46	36947.70
531.63	37446.23
531.80	37102.17
531.97	37507.08
532.14	37605.39
532.31	37364.31
532.48	37539.85
532.65	37713.05
532.82	37336.23
532.99	37610.07
533.16	37738.80
533.33	37794.97
533.50	37727.10
533.67	37921.36
533.84	37972.85
534.01	37991.58
534.18	37581.98
534.35	38120.31
534.52	38181.16
534.69	38419.89
534.86	38267.76
535.03	38162.43
535.20	38508.83
535.37	38981.62
535.54	38885.66
535.71	38548.62
535.88	38721.82
536.05	38167.12
536.22	38920.77
536.38	38337.98
536.55	38300.53
536.72	39044.82
536.89	38749.91
537.06	38476.07
537.23	38939.49
537.40	38988.64
537.57	39075.24
537.74	39126.74
537.91	39220.36
538.08	39098.65
538.25	38511.17
538.42	38880.98
538.59	39599.52
538.75	38948.85
538.92	39012.05
539.09	38696.08
539.26	39512.92
539.43	39667.40
539.60	39981.03
539.77	39428.66
539.94	39419.30
540.11	39243.76
540.28	39491.86
540.44	39264.83
540.61	39786.77
540.78	39665.06
540.95	39519.95
541.12	39313.98
541.29	39730.59
541.46	39693.15
541.62	39580.80
541.79	39658.04
541.96	39817.19
542.13	39971.67
542.30	39964.65
542.47	40350.84
542.63	39957.63
542.80	40184.66
542.97	40931.29
543.14	40507.65
543.31	40479.57
543.48	40339.13
543.64	41027.25
543.81	40816.60
543.98	40694.89
544.15	40584.89
544.32	40947.67
544.48	41163.00
544.65	40741.71
544.82	40940.65
544.99	40762.77
545.16	40994.48
545.32	40762.77
545.49	41111.51
545.66	41174.70
545.83	41474.29
546.00	41280.03
546.16	41329.18
546.33	40875.12
546.50	41083.42
546.67	41177.04
546.83	40921.93
547.00	41394.71
547.17	41179.39
547.34	41361.95
547.50	41034.27
547.67	41656.85
547.84	41532.81
548.00	42073.47
548.17	41993.89
548.34	41738.77
548.51	41539.83
548.67	41762.18
548.84	41965.81
549.01	42010.28
549.18	41851.12
549.34	41539.83
549.51	42218.58
549.68	41743.45
549.84	41933.04
550.01	41724.73
550.18	41893.25
550.34	42171.77
550.51	42199.86
550.68	42553.28
550.84	42068.79
551.01	41989.21
551.18	42349.65
551.34	42403.49
551.51	41968.15
551.68	42347.31
551.84	42384.76
552.01	41628.77
552.18	42583.71
552.34	41858.14
552.51	42447.96
552.68	42422.21
552.84	42745.20
553.01	42717.12
553.18	42450.30
553.34	42628.18
553.51	42190.50
553.67	42377.74
553.84	43056.50
554.01	43119.69
554.17	43044.79
554.34	43096.28
554.51	42848.19
554.67	42784.99
554.84	42799.04
555.00	42518.17
555.17	42639.88
555.33	42717.12
555.50	42969.90
555.67	42923.08
555.83	43180.54
556.00	43089.26
556.16	43608.86
556.33	42782.65
556.50	43328.00
556.66	43098.62
556.83	42604.77
556.99	43650.99
557.16	43688.44
557.32	43590.14
557.49	43339.70
557.65	42796.70
557.82	43393.53
557.98	43386.51
558.15	42993.30
558.32	43517.58
558.48	43473.11
558.65	43304.59
558.81	43281.19
558.98	43440.34
559.14	43196.93
559.31	43480.13
559.47	43746.95
559.64	43922.49
559.80	43716.53
559.97	43718.87
560.13	43569.07
560.30	43484.81
560.46	43761.00
560.63	43625.25
560.79	43873.34
560.96	43995.05
561.12	43606.52
561.29	43660.35
561.45	43735.25
561.61	43620.56
561.78	43447.36
561.94	43232.04
562.11	43622.90
562.27	43709.50
562.44	43676.74
562.60	44065.27
562.77	44002.07
562.93	43639.29
563.10	43920.15
563.26	43267.14
563.42	44006.75
563.59	43573.75
563.75	43569.07
563.92	43950.58
564.08	43999.73
564.24	44086.33
564.41	44025.48
564.57	43798.44
564.74	43669.72
564.90	43812.49
565.07	43821.85
565.23	44233.78
565.39	43693.12
565.56	44039.52
565.72	44168.25
565.88	43973.98
566.05	43835.89
566.21	43847.60
566.38	43732.91
566.54	44226.76
566.70	44168.25
566.87	44650.40
567.03	44376.56
567.19	44332.09
567.36	44477.20
567.52	43999.73
567.68	44018.46
567.85	44053.56
568.01	44055.90
568.17	43927.17
568.34	44744.02
568.50	44416.35
568.66	43688.44
568.83	44027.82
568.99	44142.50
569.15	44170.59
569.32	44135.48
569.48	44163.57
569.64	44163.57
569.81	44622.31
569.97	44521.67
570.13	44474.86
570.30	44032.50
570.46	44376.56
570.62	44144.84
570.78	44018.46
570.95	44252.51
571.11	44502.95
571.27	44025.48
571.43	44278.25
571.60	44409.32
571.76	44362.51
571.92	44280.60
572.09	44545.08
572.25	43913.13
572.41	44318.04
572.57	44626.99
572.74	44790.83
572.90	44376.56
573.06	44472.52
573.22	44549.76
573.38	44226.76
573.55	44289.96
573.71	44928.92
573.87	44636.36
574.03	44383.58
574.20	44247.83
574.36	44516.99
574.52	44465.50
574.68	44638.70
574.84	44156.55
575.01	44390.60
575.17	44636.36
575.33	44170.59
575.49	44472.52
575.65	44823.60
575.82	44617.63
575.98	44629.34
576.14	44694.87
576.30	44137.82
576.46	44404.64
576.62	44385.92
576.79	44619.97
576.95	44287.62
577.11	44229.10
577.27	44191.65
577.43	44601.25
577.59	44680.83
577.75	44194.00
577.92	44243.15
578.08	44580.18
578.24	44339.11
578.40	44449.11
578.56	44184.63
578.72	44428.05
578.88	44648.06
579.04	45074.04
579.21	44285.28
579.37	44491.24
579.53	44917.22
579.69	44369.54
579.85	44329.75
580.01	44566.14
580.17	44421.03
580.33	44692.53
580.49	44479.54
580.65	44657.42
580.82	44282.94
580.98	44456.14
581.14	44142.50
581.30	44748.70
581.46	44720.62
581.62	44423.37
581.78	44502.95
581.94	44804.88
582.10	44439.75
582.26	44596.57
582.42	44268.89
582.58	44385.92
582.74	44584.86
582.90	44839.98
583.06	44355.49
583.22	44989.78
583.38	44629.34
583.54	45010.84
583.70	44865.73
583.86	44514.65
584.02	44128.46
584.18	44722.96
584.34	44634.02
584.50	44739.34
584.66	44767.43
584.82	44582.52
584.98	45017.86
585.14	45106.80
585.30	44568.48
585.46	44919.56
585.62	44355.49
585.78	44751.04
585.94	44402.30
586.10	44811.90
586.26	44175.27
586.42	45127.87
586.58	44631.68
586.74	44971.05
586.90	44477.20
587.06	44292.30
587.22	44718.28
587.38	44222.08
587.54	44626.99
587.70	44882.11
587.86	44706.57
588.02	44573.16
588.18	44987.44
588.34	44626.99
588.49	44397.62
588.65	43899.09
588.81	44273.57
588.97	44414.01
589.13	44147.18
589.29	44299.32
589.45	44828.28
589.61	44786.15
589.77	44711.25
589.93	45013.18
590.08	45137.23
590.24	44765.09
590.40	45067.02
590.56	45081.06
590.72	44442.09
590.88	45027.23
591.04	44657.42
591.20	45567.89
591.35	44917.22
591.51	45638.11
591.67	45139.57
591.83	45155.96
591.99	44935.95
592.15	44949.99
592.31	44921.90
592.46	44779.13
592.62	45022.54
592.78	45291.71
592.94	45022.54
593.10	44905.52
593.26	44886.79
593.41	44624.65
593.57	44870.41
593.73	44858.71
593.89	44975.73
594.05	44818.92
594.20	45134.89
594.36	44849.35
594.52	44989.78
594.68	44711.25
594.84	44615.29
594.99	45600.66
595.15	44959.35
595.31	45031.91
595.47	45184.04
595.62	45162.98
595.78	44547.42
595.94	45303.41
596.10	45382.99
596.25	45469.59
596.41	45439.16
596.57	44949.99
596.73	45315.11
596.88	45226.17
597.04	45104.46
597.20	45038.93
597.36	45059.99
597.51	45088.08
597.67	45151.27
597.83	45081.06
597.99	45371.28
598.14	45111.49
598.30	45303.41
598.46	44722.96
598.61	44816.58
598.77	44772.11
598.93	44718.28
599.09	45043.61
599.24	45759.81
599.40	45485.97
599.56	45289.37
599.71	45174.68
599.87	45111.49
600.03	45118.51
600.18	44985.10
600.34	44999.14
600.50	44748.70
600.65	44917.22
600.81	45092.76
600.97	45312.77
601.12	45247.24
601.28	45469.59
601.44	44961.69
601.59	44907.86
601.75	44872.75
601.91	45081.06
602.06	45240.21
602.22	44839.98
602.37	45043.61
602.53	45074.04
602.69	45418.10
602.84	45111.49
603.00	45102.12
603.16	45186.38
603.31	45113.83
603.47	44924.24
603.62	44783.81
603.78	45375.97
603.94	45050.63
604.09	45230.85
604.25	45013.18
604.40	45368.94
604.56	44959.35
604.71	44924.24
604.87	44800.19
605.03	44858.71
605.18	44935.95
605.34	44779.13
605.49	44552.10
605.65	45006.16
605.80	44814.24
605.96	45013.18
606.12	44715.93
606.27	45577.25
606.43	44622.31
606.58	45050.63
606.74	44818.92
606.89	44896.16
607.05	44872.75
607.20	45034.25
607.36	44804.88
607.51	45132.55
607.67	44615.29
607.82	44697.21
607.98	44971.05
608.13	44514.65
608.29	44289.96
608.44	44378.90
608.60	44318.04
608.75	44355.49
608.91	44811.90
609.06	44542.74
609.22	44582.52
609.37	44126.12
609.53	44725.30
609.68	44507.63
609.84	44343.79
609.99	44727.64
610.15	44268.89
610.30	44095.69
610.46	44306.34
610.61	44479.54
610.76	44247.83
610.92	44439.75
611.07	44844.66
611.23	44411.67
611.38	44540.39
611.54	44514.65
611.69	43924.83
611.84	44446.77
612.00	44734.66
612.15	44212.72
612.31	44463.16
612.46	44170.59
612.62	44423.37
612.77	44079.31
612.92	44577.84
613.08	43824.19
613.23	44495.92
613.39	44205.70
613.54	43873.34
613.69	44219.74
613.85	43711.84
614.00	44376.56
614.15	44626.99
614.31	44285.28
614.46	44055.90
614.62	43969.30
614.77	44285.28
614.92	43959.94
615.08	43700.14
615.23	43943.56
615.38	44069.95
615.54	43732.91
615.69	43063.52
615.84	43325.66
616.00	43718.87
616.15	44004.41
616.30	43810.15
616.46	43187.56
616.61	43622.90
616.76	43491.83
616.92	43522.26
617.07	43349.06
617.22	43398.21
617.37	43498.86
617.53	43548.01
617.68	43632.27
617.83	43604.18
617.99	43641.63
618.14	43335.02
618.29	43620.56
618.45	43152.46
618.60	43419.28
618.75	43482.47
618.90	43793.76
619.06	43545.67
619.21	43517.58
619.36	43894.41
619.51	43423.96
619.67	43405.23
619.82	43515.24
619.97	43580.78
620.12	43426.30
620.28	42665.63
620.43	42866.91
620.58	43182.88
620.73	42983.94
620.89	43051.81
621.04	42890.32
621.19	42969.90
621.34	43299.91
621.49	42890.32
621.65	42469.02
621.80	43026.07
621.95	42691.37
622.10	42829.46
622.25	42494.77
622.41	42277.10
622.56	42946.49
622.71	42752.23
622.86	42859.89
623.01	42885.64
623.16	42738.18
623.32	42443.27
623.47	43105.65
623.62	42279.44
623.77	42473.70
623.92	42660.94
624.07	42508.81
624.23	42899.68
624.38	42457.32
624.53	42284.12
624.68	42281.78
624.83	42239.65
624.98	42169.43
625.13	42256.03
625.29	42010.28
625.44	42258.37
625.59	42120.28
625.74	41481.31
625.89	42082.83
626.04	41818.35
626.19	42155.39
626.34	42209.22
626.49	42230.29
626.65	43098.62
626.80	42342.63
626.95	42298.16
627.10	42068.79
627.25	41895.59
627.40	41659.20
627.55	41654.51
627.70	41507.06
627.85	41659.20
628.00	41284.71
628.15	42007.94
628.30	41546.85
628.45	41263.64
628.60	41640.47
628.76	41481.31
628.91	42122.62
629.06	41624.09
629.21	41635.79
629.36	41949.42
629.51	41380.67
629.66	41368.97
629.81	41008.53
629.96	41380.67
630.11	41345.56
630.26	41682.60
630.41	41432.16
630.56	41273.01
630.71	41361.95
630.86	40877.46
631.01	41184.07
631.16	41420.46
631.31	41179.39
631.46	41191.09
631.61	41221.52
631.76	41029.59
631.91	40973.42
632.06	41146.62
632.21	41387.69
632.36	41359.61
632.51	41024.91
632.66	41230.88
632.81	40437.44
632.96	41247.26
633.10	40935.97
633.25	41022.57
633.40	40849.37
633.55	40498.29
633.70	40767.45
633.85	40449.14
634.00	40879.80
634.15	40493.61
634.30	41034.27
634.45	40673.83
634.60	40755.75
634.75	40985.12
634.90	40762.77
635.05	40336.79
635.19	40250.19
635.34	40591.91
635.49	40514.67
635.64	40311.05
635.79	40282.96
635.94	40655.11
636.09	40622.34
636.24	40350.84
636.39	40002.10
636.53	40374.24
636.68	40116.78
636.83	39812.51
636.98	40355.52
637.13	39803.15
637.28	40142.53
637.43	40652.76
637.57	40367.22
637.72	39959.97
637.87	39835.92
638.02	40315.73
638.17	40163.59
638.32	40240.83
638.46	39655.70
638.61	40194.02
638.76	39592.50
638.91	40149.55
639.06	39990.39
639.20	39957.63
639.35	40027.84
639.50	40444.46
639.65	39782.09
639.80	40257.21
639.94	39428.66
640.09	39555.05
640.24	39739.96
640.39	39531.65
640.54	39445.05
640.68	39627.61
640.83	39562.08
640.98	39693.15
641.13	39564.42
641.27	39861.66
641.42	39264.83
641.57	39428.66
641.72	39428.66
641.86	39306.96
642.01	38843.53
642.16	39143.12
642.31	38745.23
642.45	39260.15
642.60	39007.37
642.75	39220.36
642.90	39363.13
643.04	39229.72
643.19	38939.49
643.34	39360.79
643.48	39283.55
643.63	38873.96
643.78	38813.10
643.93	38527.56
644.07	39292.91
644.22	38857.57
644.37	38852.89
644.51	38778.00
644.66	39306.96
644.81	39346.75
644.95	39115.03
645.10	39246.10
645.25	39136.10
645.39	38803.74
645.54	39119.71
645.69	38534.58
645.83	38660.97
645.98	38405.85
646.13	38759.27
646.27	38761.61
646.42	38515.86
646.57	38675.01
646.71	38616.50
646.86	38691.40
647.00	38691.40
647.15	38733.53
647.30	38658.63
647.44	38216.27
647.59	38490.11
647.74	38515.86
647.88	38487.77
648.03	38377.76
648.17	38256.06
648.32	38220.95
648.47	38581.39
648.61	37982.21
648.76	38085.20
648.90	38389.47
649.05	38347.34
649.20	37937.74
649.34	38213.93
649.49	38249.03
649.63	38459.68
649.78	37961.15
649.92	37855.82
650.07	38295.85
650.21	37797.31
650.36	37654.54
650.51	38117.96
650.65	37968.17
650.80	38618.84
650.94	38515.86
651.09	37979.87
651.23	37989.24
651.38	38087.54
651.52	37738.80
651.67	37818.38
651.81	37570.28
651.96	37862.85
652.10	37706.03
652.25	37158.34
652.39	37694.33
652.54	37415.80
652.68	37830.08
652.83	37689.65
652.97	37972.85
653.12	37738.80
653.26	37563.26
653.41	38022.00
653.55	37050.68
653.70	37027.28
653.84	37357.29
653.99	37720.07
654.13	37521.13
654.27	37233.24
654.42	37221.54
654.56	36957.06
654.71	37200.47
654.85	37647.52
655.00	36952.38
655.14	37633.47
655.29	36608.32
655.43	36905.57
655.57	36861.10
655.72	37216.86
655.86	36629.38
656.01	36741.73
656.15	36858.76
656.30	36762.79
656.44	36809.61
656.58	36933.65
656.73	36685.56
656.87	36985.15
657.01	36795.56
657.16	36973.44
657.30	36505.34
657.45	36378.95
657.59	36247.88
657.73	36435.12
657.88	36870.46
658.02	36500.65
658.16	36741.73
658.31	36730.03
658.45	36486.61
658.60	36180.00
658.74	36498.31
658.88	36402.35
659.03	36460.87
659.17	36481.93
659.31	36065.31
659.46	36423.42
659.60	36568.53
659.74	36453.84
659.89	35962.33
660.03	35786.79
660.17	35938.93
660.32	35826.58
660.46	36088.72
660.60	36460.87
660.74	36261.92
660.89	35913.18
661.03	35817.22
661.17	35550.40
661.32	35426.35
661.46	35201.66
661.60	35515.29
661.74	35667.42
661.89	35304.64
662.03	35627.63
662.17	35515.29
662.31	35175.91
662.46	35543.38
662.60	35690.83
662.74	35140.80
662.88	34871.64
663.03	34948.88
663.17	34665.67
663.31	34930.16
663.45	34944.20
663.60	34885.68
663.74	34459.71
663.88	34820.15
664.02	34291.19
664.17	34895.05
664.31	34466.73
664.45	34405.88
664.59	34487.79
664.73	34576.73
664.88	35129.10
665.02	34237.36
665.16	34614.18
665.30	34703.12
665.44	34139.05
665.59	33965.85
665.73	34298.21
665.87	34117.99
666.01	33928.41
666.15	33670.95
666.29	33944.79
666.44	33977.56
666.58	33689.67
666.72	33422.85
666.86	34150.76
667.00	33806.70
667.14	33457.96
667.28	33247.31
667.43	33607.75
667.57	33511.79
667.71	33631.16
667.85	33411.15
667.99	33223.90
668.13	33343.27
668.27	33408.81
668.41	33507.11
668.56	33039.00
668.70	33577.33
668.84	33195.82
668.98	32706.65
669.12	32910.27
669.26	32856.44
669.40	32327.48
669.54	32657.49
669.68	32746.44
669.82	32280.67
669.96	32706.65
670.10	32577.92
670.25	32634.09
670.39	32123.85
670.53	31934.27
670.67	32402.38
670.81	32503.02
670.95	32065.34
671.09	32027.89
671.23	32357.91
671.37	32250.24
671.51	32252.58
671.65	32067.68
671.79	31875.76
671.93	31749.37
672.07	31894.48
672.21	31831.29
672.35	31676.81
672.49	31772.77
672.63	31765.75
672.77	31274.24
672.91	31505.95
673.05	31398.29
673.19	31482.55
673.33	31424.03
673.47	31012.10
673.61	31187.64
673.75	30794.43
673.89	30960.61
674.03	30855.28
674.17	30499.52
674.31	30529.95
674.45	30728.89
674.59	30913.80
674.73	30869.33
674.87	30778.04
675.01	30398.88
675.15	30539.31
675.29	30541.65
675.43	30352.07
675.56	30251.42
675.70	30087.59
675.84	29963.54
675.98	29336.27
676.12	29944.81
676.26	30066.52
676.40	29422.87
676.54	29993.97
676.68	30026.73
676.82	29523.52
676.96	29497.77
677.10	29631.18
677.23	30024.39
677.37	29392.45
677.51	29039.03
677.65	28776.89
677.79	28465.60
677.93	28470.28
678.07	28568.58
678.21	28465.60
678.34	27978.76
678.48	28325.16
678.62	28088.77
678.76	27892.16
678.90	28041.96
679.04	27819.61
679.18	27920.25
679.31	27417.04
679.45	27896.85
679.59	27543.42
679.73	27262.56
679.87	27494.27
680.00	27433.42
680.14	27281.28
680.28	27168.94
680.42	27281.28
680.56	27442.78
680.70	27318.73
680.83	27091.70
680.97	27089.36
681.11	26958.29
681.25	26338.05
681.39	26541.68
681.52	26705.51
681.66	26693.81
681.80	26445.71
681.94	26434.01
682.07	26359.11
682.21	26492.52
682.35	25970.58
682.49	25989.31
682.62	25944.84
682.76	25455.67
682.90	25947.18
683.04	25699.08
683.17	25383.11
683.31	25188.85
683.45	25626.53
683.59	25436.94
683.72	25352.68
683.86	24996.92
684.00	25170.12
684.13	25130.33
684.27	25039.05
684.41	24996.92
684.55	24694.99
684.68	24762.87
684.82	24687.97
684.96	24814.36
685.09	24486.68
685.23	24191.78
685.37	24276.04
685.50	24212.84
685.64	24446.90
685.78	23988.15
685.91	24163.69
686.05	23852.40
686.19	23775.16
686.32	23800.91
686.46	23325.78
686.60	23178.33
686.73	23398.34
686.87	23454.51
687.01	22817.88
687.14	23058.96
687.28	22874.06
687.42	22670.43
687.55	22649.36
687.69	23175.98
687.82	22773.41
687.96	22965.34
688.10	22735.96
688.23	22792.14
688.37	22647.02
688.50	22132.11
688.64	22153.17
688.78	22405.95
688.91	22242.11
689.05	22148.49
689.18	22132.11
689.32	22031.46
689.46	21532.93
689.59	21724.85
689.73	21975.29
689.86	21694.43
690.00	21486.12
690.13	21570.38
690.27	21411.22
690.41	21446.33
690.54	20886.94
690.68	20805.02
690.81	21420.58
690.95	20929.07
691.08	20926.73
691.22	20929.07
691.35	20788.64
691.49	20858.85
691.62	20566.29
691.76	20301.81
691.89	20191.80
692.03	20332.23
692.16	20397.77
692.30	20182.44
692.43	20283.08
692.57	19786.89
692.70	20205.84
692.84	19946.05
692.97	19552.84
693.11	19494.32
693.24	19627.73
693.38	19328.14
693.51	19358.57
693.65	19805.61
693.78	19337.51
693.92	19431.13
694.05	19365.59
694.19	19091.75
694.32	19002.81
694.45	18958.34
694.59	18836.63
694.72	18628.32
694.86	18850.67
694.99	18661.09
695.13	18480.87
695.26	18293.63
695.39	18242.14
695.53	18452.78
695.66	18235.11
695.80	18345.12
695.93	17958.93
696.07	18087.66
696.20	17956.59
696.33	18050.21
696.47	17963.61
696.60	17673.39
696.73	17341.03
696.87	17310.60
697.00	17596.15
697.14	17294.22
697.27	17305.92
697.40	17577.42
697.54	16985.27
697.67	17214.64
697.80	17224.00
697.94	16851.86
698.07	16823.77
698.21	16620.14
698.34	16840.15
698.47	16746.53
698.61	16306.51
698.74	16397.79
698.87	16524.18
699.01	16315.87
699.14	16194.17
699.27	16255.02
699.40	16023.31
699.54	15978.84
699.67	15946.07
699.80	16051.39
699.94	15639.46
700.07	15892.24
700.20	15777.55
700.34	15719.04
700.47	15702.65
700.60	15950.75
700.73	15587.97
700.87	15431.15
701.00	15393.70
701.13	15382.00
701.26	15119.86
701.40	15316.47
701.53	14995.81
701.66	14822.61
701.79	14993.47
701.93	15077.73
702.06	15040.28
702.19	14836.66
702.32	14771.12
702.46	14380.25
702.59	14614.30
702.72	14527.71
702.85	14546.43
702.99	14380.25
703.12	14621.33
703.25	14293.65
703.38	14368.55
703.51	14094.71
703.65	14080.66
703.78	14015.13
703.91	13881.72
704.04	13898.10
704.17	13762.35
704.31	13806.82
704.44	13561.06
704.57	13769.37
704.70	13881.72
704.83	13650.00
704.96	13486.17
705.10	13720.22
705.23	13605.53
>>>>>End Processed Spectral Data<<<<<
