SpectraSuite Data File
++++++++++++++++++++++++++++++++++++
Date: Fri Oct 25 11:25:05 EDT 2013
User: price-jones
Dark Spectrum Present: No
Reference Spectrum Present: No
Number of Sampled Component Spectra: 1
Spectrometers: USB2+H05261
Integration Time (usec): 100000 (USB2+H05261)
Spectra Averaged: 1 (USB2+H05261)
Boxcar Smoothing: 0 (USB2+H05261)
Correct for Electrical Dark: No (USB2+H05261)
Strobe/Lamp Enabled: No (USB2+H05261)
Correct for Detector Non-linearity: No (USB2+H05261)
Correct for Stray Light: No (USB2+H05261)
Number of Pixels in Processed Spectrum: 2048
>>>>>Begin Processed Spectral Data<<<<<
365.73	266.82
365.92	266.82
366.12	266.82
366.32	147.45
366.52	81.92
366.72	177.88
366.91	86.60
367.11	156.82
367.31	23.41
367.51	149.79
367.70	177.88
367.90	98.30
368.10	100.64
368.30	142.77
368.49	154.48
368.69	119.37
368.89	154.48
369.09	119.37
369.28	187.24
369.48	170.86
369.68	205.97
369.87	231.71
370.07	145.11
370.27	241.08
370.47	297.25
370.66	643.65
370.86	624.92
371.06	699.82
371.25	702.16
371.45	559.39
371.65	725.57
371.84	723.23
372.04	713.86
372.24	704.50
372.44	725.57
372.63	763.01
372.83	751.31
373.03	741.95
373.22	727.91
373.42	793.44
373.62	800.46
373.81	772.38
374.01	774.72
374.21	755.99
374.40	784.08
374.60	795.78
374.79	784.08
374.99	772.38
375.19	784.08
375.38	863.66
375.58	851.96
375.78	882.38
375.97	919.83
376.17	959.62
376.37	863.66
376.56	828.55
376.76	891.74
376.95	819.19
377.15	943.24
377.35	894.08
377.54	929.19
377.74	884.72
377.93	933.87
378.13	866.00
378.33	943.24
378.52	922.17
378.72	999.41
378.91	875.36
379.11	933.87
379.31	959.62
379.50	943.24
379.70	994.73
379.89	917.49
380.09	1020.47
380.28	922.17
380.48	1006.43
380.68	903.45
380.87	1064.94
381.07	898.77
381.26	1001.75
381.46	1074.31
381.65	1006.43
381.85	1025.15
382.04	1036.86
382.24	1109.41
382.43	1062.60
382.63	1086.01
382.83	1086.01
383.02	1128.14
383.22	1121.12
383.41	1146.86
383.61	1139.84
383.80	1088.35
384.00	1104.73
384.19	1123.46
384.39	1228.78
384.58	1137.50
384.78	1160.91
384.97	1062.60
385.17	1151.54
385.36	1144.52
385.56	1193.67
385.75	1188.99
385.95	1088.35
386.14	1198.35
386.34	1240.48
386.53	1249.85
386.72	1299.00
386.92	1273.25
387.11	1224.10
387.31	1210.06
387.50	1233.46
387.70	1245.16
387.89	1266.23
388.09	1214.74
388.28	1224.10
388.48	1270.91
388.67	1308.36
388.86	1249.85
389.06	1324.74
389.25	1310.70
389.45	1315.38
389.64	1282.61
389.84	1228.78
390.03	1341.13
390.22	1406.66
390.42	1341.13
390.61	1345.81
390.81	1320.06
391.00	1334.11
391.19	1437.09
391.39	1493.26
391.58	1364.53
391.78	1437.09
391.97	1476.88
392.16	1413.68
392.36	1556.46
392.55	1479.22
392.75	1577.52
392.94	1526.03
393.13	1493.26
393.33	1509.65
393.52	1469.86
393.71	1563.48
393.91	1586.88
394.10	1614.97
394.29	1528.37
394.49	1549.43
394.68	1673.48
394.88	1647.74
395.07	1680.50
395.26	1652.42
395.46	1610.29
395.65	1689.87
395.84	1715.61
396.04	1764.76
396.23	1694.55
396.42	1724.97
396.62	1724.97
396.81	1717.95
397.00	1940.30
397.19	1647.74
397.39	1715.61
397.58	1853.70
397.77	1720.29
397.97	1853.70
398.16	1865.41
398.35	1921.58
398.55	1842.00
398.74	1863.07
398.93	1952.01
399.12	1811.57
399.32	1856.04
399.51	1926.26
399.70	1987.11
399.90	1966.05
400.09	1996.48
400.28	2047.97
400.47	2012.86
400.67	2080.74
400.86	2029.24
401.05	2040.95
401.24	1980.09
401.44	2172.02
401.63	2111.16
401.82	2214.15
402.01	2174.36
402.21	2129.89
402.40	2275.00
402.59	2232.87
402.78	2186.06
402.97	2132.23
403.17	2293.72
403.36	2303.09
403.55	2338.20
403.74	2195.42
403.93	2317.13
404.13	2352.24
404.32	2415.43
404.51	2303.09
404.70	2300.75
404.89	2251.60
405.09	2530.12
405.28	2523.10
405.47	2434.16
405.66	2445.86
405.85	2502.03
406.05	2499.69
406.24	2532.46
406.43	2527.78
406.62	2642.46
406.81	2609.70
407.00	2583.95
407.20	2548.84
407.39	2574.59
407.58	2780.56
407.77	2726.72
407.96	2754.81
408.15	2754.81
408.34	2736.09
408.54	2832.05
408.73	2871.84
408.92	2799.28
409.11	2686.94
409.30	3000.57
409.49	2937.37
409.68	2932.69
409.87	2827.37
410.07	2951.42
410.26	2991.20
410.45	3056.74
410.64	3070.78
410.83	2979.50
411.02	3094.19
411.21	3089.51
411.40	3218.24
411.59	3290.79
411.78	3246.32
411.98	3208.87
412.17	3272.07
412.36	3215.90
412.55	3316.54
412.74	3445.27
412.93	3253.34
413.12	3311.86
413.31	3545.91
413.50	3466.33
413.69	3440.59
413.88	3492.08
414.07	3637.19
414.26	3569.32
414.45	3630.17
414.64	3620.81
414.83	3714.43
415.02	3850.18
415.22	3693.37
415.41	3817.41
415.60	3693.37
415.79	3728.47
415.98	3838.48
416.17	3885.29
416.36	3995.29
416.55	3953.16
416.74	4011.68
416.93	4093.60
417.12	4095.94
417.31	4102.96
417.50	4081.89
417.69	4290.20
417.88	4201.26
418.07	4344.03
418.26	4355.74
418.45	4301.90
418.64	4496.17
418.83	4348.72
419.02	4411.91
419.21	4451.70
419.39	4472.76
419.58	4447.02
419.77	4311.27
419.96	4503.19
420.15	4727.88
420.34	4526.60
420.53	4631.92
420.72	4660.01
420.91	4662.35
421.10	4671.71
421.29	4774.69
421.48	4667.03
421.67	4741.93
421.86	4788.74
422.05	4681.07
422.24	4709.16
422.43	4840.23
422.61	4910.44
422.80	4990.02
422.99	5015.77
423.18	4990.02
423.37	5064.92
423.56	4961.94
423.75	4938.53
423.94	4870.65
424.13	4491.49
424.32	4683.41
424.50	4821.50
424.69	5055.56
424.88	4971.30
425.07	4957.25
425.26	4947.89
425.45	4830.87
425.64	4961.94
425.83	4943.21
426.01	4999.38
426.20	4990.02
426.39	5064.92
426.58	4915.12
426.77	4924.49
426.96	5048.54
427.15	5153.86
427.33	5233.44
427.52	5226.42
427.71	5268.55
427.90	5104.71
428.09	5242.80
428.28	5458.13
428.46	5294.29
428.65	5341.10
428.84	5526.00
429.03	5479.19
429.22	5282.59
429.40	5596.22
429.59	5549.41
429.78	5317.70
429.97	5205.35
430.16	5526.00
430.34	5666.44
430.53	5631.33
430.72	5582.18
430.91	5514.30
431.10	5628.99
431.28	5738.99
431.47	5624.31
431.66	5820.91
431.85	5760.06
432.03	5778.78
432.22	6036.24
432.41	5954.32
432.60	6085.39
432.79	5863.04
432.97	5984.75
433.16	5977.73
433.35	5982.41
433.54	5996.45
433.72	6094.76
433.91	5933.26
434.10	6143.91
434.28	6017.52
434.47	6125.18
434.66	6328.81
434.85	6167.31
435.03	6160.29
435.22	6305.40
435.41	6338.17
435.59	6321.79
435.78	6342.85
435.97	6347.53
436.16	6382.64
436.34	6436.47
436.53	6380.30
436.72	6722.02
436.90	6553.50
437.09	6546.48
437.28	6354.55
437.46	6623.72
437.65	6682.23
437.84	6651.80
438.02	6623.72
438.21	6822.66
438.40	6663.51
438.58	6939.69
438.77	7019.27
438.96	6923.30
439.14	7096.50
439.33	7133.95
439.52	7176.08
439.70	7155.02
439.89	7351.62
440.08	7391.41
440.26	7243.96
440.45	7332.90
440.63	7557.59
440.82	7559.93
441.01	7304.81
441.19	7386.73
441.38	7721.43
441.57	7573.97
441.75	7651.21
441.94	8032.72
442.12	7953.14
442.31	8081.87
442.50	8063.15
442.68	7948.46
442.87	8060.80
443.05	8053.78
443.24	8229.32
443.43	8194.22
443.61	8294.86
443.80	8280.82
443.98	7955.48
444.17	7719.09
444.35	8201.24
444.54	8423.59
444.73	8262.09
444.91	8180.17
445.10	8432.95
445.28	8187.19
445.47	8166.13
445.65	8313.58
445.84	8367.42
446.02	8498.49
446.21	8196.56
446.39	8231.66
446.58	8442.31
446.77	8409.54
446.95	8353.37
447.14	8463.38
447.32	8416.57
447.51	8241.03
447.69	8393.16
447.88	8458.70
448.06	8489.12
448.25	8538.27
448.43	8493.80
448.62	8498.49
448.80	8594.45
448.99	8601.47
449.17	8620.19
449.36	8416.57
449.54	8744.24
449.73	8987.66
449.91	8987.66
450.10	8903.40
450.28	8985.32
450.46	9004.04
450.65	8966.59
450.83	8961.91
451.02	8926.80
451.20	9158.52
451.39	9060.21
451.57	9083.62
451.76	9008.72
451.94	9233.41
452.13	9177.24
452.31	9312.99
452.49	9027.45
452.68	9188.94
452.86	9284.91
453.05	9481.51
453.23	9561.09
453.42	9242.78
453.60	9364.48
453.78	9490.87
453.97	9509.60
454.15	9554.07
454.34	9434.70
454.52	9535.34
454.70	9401.93
454.89	9783.44
455.07	9944.94
455.26	9745.99
455.44	9923.87
455.62	9870.04
455.81	9710.88
455.99	9963.66
456.17	9884.08
456.36	10090.05
456.54	10108.77
456.73	10235.16
456.91	10373.25
457.09	10310.06
457.28	10471.56
457.46	10068.98
457.64	10422.41
457.83	10497.30
458.01	10532.41
458.19	10516.03
458.38	10441.13
458.56	10586.24
458.74	10530.07
458.93	10635.39
459.11	10532.41
459.29	10572.20
459.48	10768.80
459.66	10509.01
459.84	10808.59
460.03	11049.67
460.21	10895.19
460.39	10810.93
460.57	10876.47
460.76	10942.00
460.94	11232.23
461.12	11169.04
461.31	11101.16
461.49	11084.78
461.67	11133.93
461.85	11335.21
462.04	11239.25
462.22	11695.66
462.40	11566.93
462.59	11431.18
462.77	11382.03
462.95	11658.21
463.13	11667.57
463.32	11775.24
463.50	11761.19
463.68	11784.60
463.86	11740.13
464.05	11932.05
464.23	11721.40
464.41	11674.59
464.59	11550.54
464.78	12037.38
464.96	11992.90
465.14	11791.62
465.32	11999.93
465.50	12126.32
465.69	12287.81
465.87	11810.34
466.05	12121.63
466.23	11976.52
466.41	12299.52
466.60	12568.68
466.78	12224.62
466.96	12238.66
467.14	12170.79
467.32	12311.22
467.51	12404.84
467.69	12166.10
467.87	12358.03
468.05	12372.07
468.23	12475.06
468.41	12624.85
468.60	12559.31
468.78	12683.36
468.96	12439.95
469.14	12758.26
469.32	12755.92
469.50	12540.59
469.69	12994.65
469.87	12954.87
470.05	12758.26
470.23	13081.25
470.41	13114.02
470.59	13177.22
470.77	13212.32
470.95	13013.38
471.14	13537.66
471.32	12999.34
471.50	13514.25
471.68	13422.97
471.86	13476.80
472.04	13678.09
472.22	13926.19
472.40	13776.39
472.58	13781.07
472.77	14122.79
472.95	14125.13
473.13	14441.11
473.31	14223.44
473.49	14176.62
473.67	14066.62
473.85	14307.69
474.03	14588.56
474.21	14553.45
474.39	14633.03
474.57	14494.94
474.75	15002.83
474.93	14932.62
475.12	14824.95
475.30	15154.97
475.48	14951.34
475.66	15047.30
475.84	15061.35
476.02	15234.55
476.20	15398.38
476.38	15398.38
476.56	15880.53
476.74	15995.22
476.92	15585.63
477.10	15611.37
477.28	16126.29
477.46	16315.87
477.64	16266.72
477.82	16568.65
478.00	16776.96
478.18	16664.61
478.36	16781.64
478.54	17027.40
478.72	17022.72
478.90	17235.70
479.08	17504.87
479.26	17582.10
479.44	17664.02
479.62	17879.35
479.80	18026.81
479.98	18047.87
480.16	18471.51
480.34	18022.12
480.52	18640.03
480.70	18574.49
480.88	18429.38
481.06	18810.89
481.24	18920.89
481.41	19110.47
481.59	19180.69
481.77	19601.99
481.95	19580.92
482.13	19646.46
482.31	19534.11
482.49	20325.21
482.67	19915.62
482.85	20123.93
483.03	20779.28
483.21	20503.09
483.39	20650.55
483.57	20800.34
483.74	20919.71
483.92	21209.93
484.10	21003.97
484.28	21418.24
484.46	21680.38
484.64	22242.11
484.82	21954.22
485.00	22174.24
485.18	22794.48
485.35	23056.62
485.53	22714.90
485.71	22885.76
485.89	23152.58
486.07	23321.10
486.25	23386.63
486.43	23573.88
486.61	23679.20
486.78	23627.71
486.96	24194.12
487.14	24416.47
487.32	24285.40
487.50	24748.82
487.68	24809.68
487.85	25017.99
488.03	25502.48
488.21	25783.34
488.39	25509.50
488.57	26078.25
488.75	26309.96
488.92	26178.89
489.10	26209.32
489.28	26911.48
489.46	27019.14
489.64	26859.99
489.81	27510.66
489.99	27440.44
490.17	27950.68
490.35	27941.32
490.53	27943.66
490.70	28100.47
490.88	28135.58
491.06	28521.77
491.24	28673.90
491.41	28767.52
491.59	29146.69
491.77	29532.88
491.95	29046.05
492.13	29855.87
492.30	29841.83
492.48	29956.52
492.66	30223.34
492.84	30190.57
493.01	30693.79
493.19	30546.33
493.37	30899.75
493.54	31225.09
493.72	31630.00
493.90	31398.29
494.08	31346.79
494.25	31768.09
494.43	31608.93
494.61	32217.47
494.79	32463.23
494.96	32776.86
495.14	32538.13
495.32	33427.53
495.49	32959.42
495.67	33509.45
495.85	33359.66
496.02	33589.03
496.20	34029.05
496.38	33689.67
496.55	33860.53
496.73	34628.23
496.91	34778.02
497.09	34759.30
497.26	34892.71
497.44	34476.09
497.62	35054.20
497.79	35454.44
497.97	35262.51
498.14	35204.00
498.32	36231.49
498.50	35597.21
498.67	36034.89
498.85	36163.62
499.03	36495.97
499.20	36608.32
499.38	36767.48
499.56	36996.85
499.73	37111.53
499.91	37308.14
500.08	37633.47
500.26	37343.25
500.44	37897.95
500.61	37493.04
500.79	37869.87
500.97	38274.78
501.14	38426.92
501.32	38593.09
501.49	38349.68
501.67	38625.86
501.84	38447.98
502.02	38307.55
502.20	38820.13
502.37	38775.66
502.55	39009.71
502.72	39367.81
502.90	39133.76
503.07	39250.78
503.25	39765.70
503.43	39543.35
503.60	39660.38
503.78	40222.11
503.95	40025.50
504.13	40484.25
504.30	40294.66
504.48	40385.94
504.65	40678.51
504.83	41029.59
505.01	40884.48
505.18	41069.38
505.36	41432.16
505.53	41394.71
505.71	41345.56
505.88	41333.86
506.06	41287.05
506.23	41874.52
506.41	41731.75
506.58	41921.34
506.76	42293.48
506.93	42375.40
507.11	42373.06
507.28	42337.95
507.46	42780.31
507.63	43133.73
507.81	43143.09
507.98	42810.74
508.16	43391.19
508.33	43227.35
508.50	43323.32
508.68	43271.82
508.85	43983.35
509.03	43459.07
509.20	43606.52
509.38	44435.07
509.55	44399.96
509.73	44376.56
509.90	44690.19
510.08	44278.25
510.25	44474.86
510.42	44399.96
510.60	44924.24
510.77	45244.90
510.95	45219.15
511.12	44861.05
511.30	44957.01
511.47	45242.56
511.64	45343.20
511.82	45551.51
511.99	45586.61
512.17	45841.73
512.34	45745.77
512.51	46609.43
512.69	46387.08
512.86	46522.83
513.04	46167.07
513.21	46043.02
513.38	46820.08
513.56	46735.82
513.73	46555.60
513.90	46979.23
514.08	46918.38
514.25	47049.45
514.43	47224.99
514.60	47110.30
514.77	47215.63
514.95	47339.68
515.12	47384.15
515.29	47606.50
515.47	47882.68
515.64	48231.42
515.81	47646.29
515.99	48130.78
516.16	48301.64
516.33	48191.63
516.51	48392.92
516.68	48055.88
516.85	48339.08
517.03	48821.23
517.20	48975.71
517.37	48575.48
517.54	48818.89
517.72	48795.49
517.89	49055.29
518.06	49226.15
518.24	49329.13
518.41	49085.72
518.58	49008.48
518.75	49141.89
518.93	49235.51
519.10	49120.82
519.27	49535.10
519.45	49586.59
519.62	49860.43
519.79	49839.37
519.96	49923.63
520.14	50131.93
520.31	50021.93
520.48	50412.80
520.65	50103.85
520.83	50564.93
521.00	50728.77
521.17	50562.59
521.34	50295.77
521.52	50787.28
521.69	50614.08
521.86	50707.71
522.03	50813.03
522.20	51208.58
522.38	51178.15
522.55	51056.45
522.72	51063.47
522.89	50923.04
523.07	51587.75
523.24	51367.74
523.41	51697.75
523.58	51512.85
523.75	52055.85
523.92	51608.81
524.10	51700.09
524.27	51749.24
524.44	52067.56
524.61	51690.73
524.78	51709.46
524.96	52147.14
525.13	52226.71
525.30	52329.70
525.47	52493.54
525.64	52339.06
525.81	52259.48
525.98	52603.54
526.16	52474.81
526.33	52669.08
526.50	52683.12
526.67	52697.16
526.84	52748.65
527.01	52662.05
527.18	52704.18
527.36	52575.45
527.53	53139.52
527.70	53406.34
527.87	52971.00
528.04	52828.23
528.21	53308.04
528.38	53193.36
528.55	53490.60
528.72	53057.60
528.89	53277.61
529.07	53146.54
529.24	53233.14
529.41	53560.82
529.58	53642.74
529.75	53612.31
529.92	53722.32
530.09	53705.93
530.26	53818.28
530.43	53851.05
530.60	53523.37
530.77	53848.71
530.94	54167.02
531.11	54005.52
531.28	54049.99
531.46	54218.51
531.63	54262.98
531.80	54293.41
531.97	54316.81
532.14	54330.86
532.31	54171.70
532.48	54323.83
532.65	54508.74
532.82	54546.18
532.99	54518.10
533.16	54363.62
533.33	54506.40
533.50	54574.27
533.67	54635.13
533.84	54614.06
534.01	54775.56
534.18	54745.13
534.35	54784.92
534.52	54901.95
534.69	54925.35
534.86	55126.64
535.03	54871.52
535.20	54997.91
535.37	55208.56
535.54	55084.51
535.71	55231.96
535.88	55304.52
536.05	55592.40
536.22	55510.49
536.38	55416.86
536.55	55561.98
536.72	55360.69
536.89	55325.58
537.06	55482.40
537.23	55868.59
537.40	55351.33
537.57	55611.13
537.74	55861.57
537.91	55756.24
538.08	55922.42
538.25	55564.32
538.42	55547.93
538.59	56086.26
538.75	55554.96
538.92	55924.76
539.09	56135.41
539.26	56046.47
539.43	56037.11
539.60	56250.09
539.77	56184.56
539.94	56097.96
540.11	56378.82
540.28	56236.05
540.44	56458.40
540.61	56343.72
540.78	56259.46
540.95	56339.04
541.12	56179.88
541.29	56329.67
541.46	56378.82
541.62	56734.59
541.79	56577.77
541.96	56240.73
542.13	56526.28
542.30	56530.96
542.47	56903.10
542.63	57073.96
542.80	56945.23
542.97	57034.17
543.14	56961.62
543.31	57066.94
543.48	57127.80
543.64	57378.23
543.81	57315.04
543.98	57371.21
544.15	57139.50
544.32	57394.62
544.48	57677.82
544.65	57158.22
544.82	57364.19
544.99	57188.65
545.16	57521.01
545.32	57202.69
545.49	57584.20
545.66	57511.64
545.83	57504.62
546.00	57602.92
546.16	57544.41
546.33	57446.11
546.50	57471.85
546.67	57504.62
546.83	57499.94
547.00	57712.93
547.17	57556.11
547.34	57808.89
547.50	57998.48
547.67	58017.20
547.84	57949.32
548.00	58108.48
548.17	57914.22
548.34	57872.09
548.51	58138.91
548.67	58028.90
548.84	58049.97
549.01	58073.37
549.18	58106.14
549.34	58178.70
549.51	57993.79
549.68	58019.54
549.84	58384.66
550.01	58370.62
550.18	57991.45
550.34	58127.20
550.51	58225.51
550.68	58571.91
550.84	57879.11
551.01	58475.94
551.18	58358.92
551.34	58396.37
551.51	58485.31
551.68	58319.13
551.84	58426.79
552.01	58492.33
552.18	58246.57
552.34	58485.31
552.51	58684.25
552.68	58323.81
552.84	58658.51
553.01	58815.32
553.18	58497.01
553.34	58969.80
553.51	58754.47
553.67	58691.27
553.84	58871.49
554.01	58798.94
554.17	58988.52
554.34	58693.61
554.51	58791.92
554.67	59119.59
554.84	58843.41
555.00	58894.90
555.17	58939.37
555.33	58925.33
555.50	58766.17
555.67	58707.66
555.83	58948.73
556.00	59004.91
556.16	59337.26
556.33	58951.07
556.50	59077.46
556.66	59227.26
556.83	59100.87
556.99	59295.13
557.16	59351.30
557.32	59484.72
557.49	59601.74
557.65	59334.92
557.82	59346.62
557.98	59353.65
558.15	59255.34
558.32	59297.47
558.48	59395.77
558.65	59304.49
558.81	59545.57
558.98	59475.35
559.14	59545.57
559.31	59529.19
559.47	59341.94
559.64	59552.59
559.80	59737.49
559.97	59805.37
560.13	59643.87
560.30	59489.40
560.46	59784.30
560.63	59678.98
560.79	59627.49
560.96	59760.90
561.12	59737.49
561.29	59526.84
561.45	59522.16
561.61	59767.92
561.78	59796.01
561.94	59620.47
562.11	59948.14
562.27	60009.00
562.44	59788.98
562.60	59955.16
562.77	60001.97
562.93	59632.17
563.10	59917.71
563.26	59772.60
563.42	60154.11
563.59	59920.05
563.75	59978.57
563.92	59821.75
564.08	59994.95
564.24	60041.76
564.41	59983.25
564.57	60006.65
564.74	59891.97
564.90	59994.95
565.07	59973.89
565.23	59891.97
565.39	60111.98
565.56	59997.29
565.72	59971.55
565.88	60142.41
566.05	60102.62
566.21	59994.95
566.38	60296.88
566.54	60271.14
566.70	60292.20
566.87	60172.83
567.03	59955.16
567.19	60245.39
567.36	60193.90
567.52	60161.13
567.68	60350.71
567.85	60210.28
568.01	60313.26
568.17	60102.62
568.34	60364.76
568.50	60296.88
568.66	60133.04
568.83	60364.76
568.99	60233.69
569.15	60411.57
569.32	60301.56
569.48	60245.39
569.64	60336.67
569.81	60397.52
569.97	60310.92
570.13	60210.28
570.30	60306.24
570.46	60371.78
570.62	60423.27
570.78	60526.25
570.95	60399.86
571.11	60608.17
571.27	60444.33
571.43	60456.04
571.60	60336.67
571.76	60622.22
571.92	60402.21
572.09	60437.31
572.25	60423.27
572.41	60392.84
572.57	60399.86
572.74	60633.92
572.90	60610.51
573.06	60516.89
573.22	60491.15
573.38	60561.36
573.55	60678.39
573.71	60699.45
573.87	60617.53
574.03	60313.26
574.20	60678.39
574.36	60566.04
574.52	60690.09
574.68	60610.51
574.84	60701.79
575.01	60425.61
575.17	60598.81
575.33	60554.34
575.49	60722.86
575.65	60622.22
575.82	60802.44
575.98	60893.72
576.14	60741.58
576.30	60725.20
576.46	60580.09
576.62	60736.90
576.79	60505.19
576.95	60603.49
577.11	60573.06
577.27	60779.03
577.43	60767.33
577.59	60575.40
577.75	60605.83
577.92	60580.09
578.08	60729.88
578.24	60858.61
578.40	60842.23
578.56	60914.78
578.72	60786.05
578.88	60966.27
579.04	61153.52
579.21	60706.47
579.37	60720.52
579.53	60811.80
579.69	60594.13
579.85	60797.76
580.01	60814.14
580.17	60605.83
580.33	60818.82
580.49	60940.53
580.65	60961.59
580.82	60884.36
580.98	60711.16
581.14	60552.00
581.30	60980.32
581.46	60793.07
581.62	60884.36
581.78	60797.76
581.94	60945.21
582.10	60858.61
582.26	60779.03
582.42	60842.23
582.58	60809.46
582.74	60779.03
582.90	60645.62
583.06	60917.12
583.22	60626.90
583.38	60818.82
583.54	60886.70
583.70	60896.06
583.86	60879.67
584.02	60842.23
584.18	61031.81
584.34	60776.69
584.50	60732.22
584.66	60753.29
584.82	60650.30
584.98	61104.37
585.14	60830.52
585.30	60685.41
585.46	60933.51
585.62	61036.49
585.78	60935.85
585.94	60952.23
586.10	60889.04
586.26	60959.25
586.42	61034.15
586.58	61006.06
586.74	60832.86
586.90	60891.38
587.06	60949.89
587.22	61055.21
587.38	61036.49
587.54	61057.56
587.70	61216.71
587.86	60886.70
588.02	60851.59
588.18	61022.45
588.34	60842.23
588.49	60832.86
588.65	60793.07
588.81	61113.73
588.97	61214.37
589.13	61113.73
589.29	61041.17
589.45	61024.79
589.61	61186.28
589.77	61352.46
589.93	61324.38
590.08	61310.33
590.24	61319.70
590.40	61520.98
590.56	61277.57
590.72	61656.73
590.88	61338.42
591.04	61174.58
591.20	61300.97
591.35	61258.84
591.51	61581.84
591.67	61595.88
591.83	61446.08
591.99	61188.63
592.15	61403.95
592.31	61293.95
592.46	61432.04
592.62	61340.76
592.78	61176.92
592.94	61453.11
593.10	61322.04
593.26	61551.41
593.41	61190.97
593.57	61429.70
593.73	61293.95
593.89	61621.62
594.05	61481.19
594.20	61319.70
594.36	61450.77
594.52	61502.26
594.68	61235.44
594.84	61216.71
594.99	61612.26
595.15	61375.87
595.31	61598.22
595.47	61258.84
595.62	61443.74
595.78	61237.78
595.94	61240.12
596.10	61546.73
596.25	61668.44
596.41	61518.64
596.57	61380.55
596.73	61511.62
596.88	61207.35
597.04	61640.35
597.20	61745.67
597.36	61549.07
597.51	61642.69
597.67	61366.51
597.83	61310.33
597.99	61675.46
598.14	61635.67
598.30	61572.47
598.46	61612.26
598.61	61635.67
598.77	61532.68
598.93	61434.38
599.09	61532.68
599.24	62059.30
599.40	61740.99
599.56	61769.08
599.71	61778.44
599.87	61759.72
600.03	61605.24
600.18	61652.05
600.34	61525.66
600.50	61565.45
600.65	61640.35
600.81	61642.69
600.97	61649.71
601.12	61691.84
601.28	61794.82
601.44	61481.19
601.59	61645.03
601.75	61614.60
601.91	61881.42
602.06	61792.48
602.22	61813.55
602.37	61801.85
602.53	61806.53
602.69	61558.43
602.84	61623.96
603.00	61787.80
603.16	61808.87
603.31	61748.01
603.47	61757.38
603.62	61588.86
603.78	61703.54
603.94	61682.48
604.09	61647.37
604.25	61691.84
604.40	61558.43
604.56	61743.33
604.71	61846.32
604.87	61738.65
605.03	61645.03
605.18	61586.52
605.34	61806.53
605.49	61567.79
605.65	61663.75
605.80	61813.55
605.96	61977.39
606.12	61731.63
606.27	61783.12
606.43	61436.72
606.58	61673.12
606.74	61537.36
606.89	61586.52
607.05	61778.44
607.20	61740.99
607.36	61516.30
607.51	61558.43
607.67	61530.34
607.82	61659.07
607.98	61581.84
608.13	61609.92
608.29	61630.99
608.44	61609.92
608.60	61506.94
608.75	61567.79
608.91	61516.30
609.06	61336.08
609.22	61542.05
609.37	61380.55
609.53	61609.92
609.68	61422.68
609.84	61471.83
609.99	61427.36
610.15	61530.34
610.30	61471.83
610.46	61586.52
610.61	61574.81
610.76	61586.52
610.92	61668.44
611.07	61504.60
611.23	61258.84
611.38	61609.92
611.54	61310.33
611.69	61401.61
611.84	61415.66
612.00	61385.23
612.15	61415.66
612.31	61436.72
612.46	61455.45
612.62	61436.72
612.77	61277.57
612.92	61488.21
613.08	61268.20
613.23	61338.42
613.39	61141.81
613.54	61366.51
613.69	61420.34
613.85	61120.75
614.00	61408.64
614.15	61403.95
614.31	61221.39
614.46	61680.14
614.62	61254.16
614.77	61448.42
614.92	61350.12
615.08	61214.37
615.23	61223.73
615.38	61441.40
615.54	61233.10
615.69	61169.90
615.84	61263.52
616.00	61315.01
616.15	61165.22
616.30	61261.18
616.46	61141.81
616.61	61284.59
616.76	61251.82
616.92	61183.94
617.07	61284.59
617.22	60973.30
617.37	61146.50
617.53	61329.06
617.68	61324.38
617.83	61247.14
617.99	61216.71
618.14	61146.50
618.29	60980.32
618.45	61069.26
618.60	61008.40
618.75	61015.43
618.90	60898.40
619.06	61015.43
619.21	60963.93
619.36	61230.75
619.51	61111.39
619.67	60949.89
619.82	60977.98
619.97	61001.38
620.12	60992.02
620.28	60802.44
620.43	60816.48
620.58	60956.91
620.73	60807.12
620.89	61073.94
621.04	61020.11
621.19	60900.74
621.34	60764.99
621.49	60807.12
621.65	60935.85
621.80	60949.89
621.95	60842.23
622.10	60973.30
622.25	60720.52
622.41	60856.27
622.56	60907.76
622.71	60783.71
622.86	60753.29
623.01	60685.41
623.16	60783.71
623.32	60877.33
623.47	60795.42
623.62	60786.05
623.77	60631.58
623.92	60818.82
624.07	60622.22
624.23	60692.43
624.38	60846.91
624.53	60619.88
624.68	60523.91
624.83	60573.06
624.98	60704.13
625.13	60505.19
625.29	60863.29
625.44	60495.83
625.59	60542.64
625.74	60488.80
625.89	60226.66
626.04	60140.07
626.19	60252.41
626.34	60516.89
626.49	60280.50
626.65	60317.95
626.80	60287.52
626.95	60058.15
627.10	59973.89
627.25	60261.77
627.40	60226.66
627.55	60221.98
627.70	60397.52
627.85	60303.90
628.00	60086.23
628.15	60404.55
628.30	60102.62
628.45	60161.13
628.60	59985.59
628.76	60198.58
628.91	60381.14
629.06	60168.15
629.21	60245.39
629.36	60016.02
629.51	59990.27
629.66	60144.75
629.81	59924.74
629.96	59714.09
630.11	59917.71
630.26	60229.01
630.41	60044.10
630.56	59936.44
630.71	60156.45
630.86	59894.31
631.01	59889.63
631.16	59945.80
631.31	59842.82
631.46	59788.98
631.61	59873.24
631.76	59840.48
631.91	60011.34
632.06	60168.15
632.21	59913.03
632.36	59936.44
632.51	59426.20
632.66	59856.86
632.81	59606.42
632.96	59831.11
633.10	59870.90
633.25	59737.49
633.40	59877.93
633.55	59744.51
633.70	59660.26
633.85	59662.60
634.00	59545.57
634.15	59634.51
634.30	59496.42
634.45	59725.79
634.60	59821.75
634.75	59796.01
634.90	59444.93
635.05	59576.00
635.19	59693.02
635.34	59543.23
635.49	59664.94
635.64	59688.34
635.79	59533.87
635.94	59664.94
636.09	59641.53
636.24	59627.49
636.39	59353.65
636.53	59540.89
636.68	59377.05
636.83	59538.55
636.98	59779.62
637.13	59196.83
637.28	59400.46
637.43	59454.29
637.57	59444.93
637.72	59206.19
637.87	59384.07
638.02	59201.51
638.17	59271.73
638.32	59304.49
638.46	59327.90
638.61	59363.01
638.76	59255.34
638.91	59332.58
639.06	58997.88
639.20	59187.47
639.35	59143.00
639.50	59084.48
639.65	59135.98
639.80	59220.23
639.94	59025.97
640.09	58878.52
640.24	59210.87
640.39	58920.65
640.54	58876.18
640.68	59105.55
640.83	59002.56
640.98	59002.56
641.13	58915.96
641.27	59468.33
641.42	59016.61
641.57	58822.34
641.72	58915.96
641.86	58836.39
642.01	58745.11
642.16	58740.42
642.31	58770.85
642.45	59014.27
642.60	58915.96
642.75	59166.40
642.90	58876.18
643.04	58838.73
643.19	58691.27
643.34	58775.53
643.48	58859.79
643.63	58873.84
643.78	58670.21
643.93	58749.79
644.07	58932.35
644.22	58658.51
644.37	58553.18
644.51	58529.78
644.66	58588.29
644.81	58604.67
644.95	58546.16
645.10	58480.63
645.25	58379.98
645.39	58529.78
645.54	58599.99
645.69	58475.94
645.83	58513.39
645.98	58166.99
646.13	58588.29
646.27	58468.92
646.42	58415.09
646.57	58508.71
646.71	58293.38
646.86	58543.82
647.00	58525.10
647.15	58314.45
647.30	58199.76
647.44	58234.87
647.59	58379.98
647.74	58408.07
647.88	58344.87
648.03	58274.66
648.17	58440.84
648.32	58202.10
648.47	58321.47
648.61	58195.08
648.76	58234.87
648.90	58216.14
649.05	58253.59
649.20	58508.71
649.34	58260.62
649.49	57958.69
649.63	58426.79
649.78	58377.64
649.92	58110.82
650.07	58347.21
650.21	58031.24
650.36	58307.43
650.51	58248.91
650.65	58326.15
650.80	58010.18
650.94	58162.31
651.09	57839.32
651.23	57743.36
651.38	57890.81
651.52	57759.74
651.67	57851.02
651.81	58075.71
651.96	57996.13
652.10	57935.28
652.25	57757.40
652.39	57979.75
652.54	57640.37
652.68	57733.99
652.83	57558.45
652.97	57595.90
653.12	57652.08
653.26	57769.10
653.41	57743.36
653.55	57869.75
653.70	57654.42
653.84	57687.18
653.99	57607.61
654.13	57446.11
654.27	57350.15
654.42	57413.34
654.56	57378.23
654.71	57673.14
654.85	57645.05
655.00	57675.48
655.14	57478.88
655.29	57336.10
655.43	57448.45
655.57	57254.18
655.72	57296.31
655.86	57535.05
656.01	57579.52
656.15	57389.94
656.30	57586.54
656.44	57443.77
656.58	57539.73
656.73	57354.83
656.87	57432.07
657.01	57111.41
657.16	57544.41
657.30	57190.99
657.45	57003.75
657.59	57223.76
657.73	57020.13
657.88	57097.37
658.02	57045.88
658.16	57080.98
658.31	57059.92
658.45	57102.05
658.60	57134.82
658.74	57162.90
658.88	57200.35
659.03	56809.48
659.17	56835.23
659.31	56804.80
659.46	56966.30
659.60	57041.20
659.74	56837.57
659.89	56697.14
660.03	56601.18
660.17	57282.27
660.32	56676.07
660.46	56683.09
660.60	56633.94
660.74	56523.94
660.89	56903.10
661.03	56460.74
661.17	56233.71
661.32	55891.99
661.46	56591.81
661.60	56697.14
661.74	56156.47
661.89	56332.01
662.03	56238.39
662.17	56207.97
662.31	56156.47
662.46	56425.64
662.60	56170.52
662.74	56341.38
662.88	55803.05
663.03	55964.55
663.17	56119.02
663.31	55997.32
663.45	55943.48
663.60	55664.96
663.74	55358.35
663.88	55510.49
664.02	55702.41
664.17	55653.26
664.31	55398.14
664.45	55463.67
664.59	55482.40
664.73	55683.69
664.88	55454.31
665.02	55224.94
665.16	55337.29
665.30	55437.93
665.44	55428.57
665.59	55405.16
665.73	55358.35
665.87	55093.87
666.01	55313.88
666.15	55114.94
666.29	54838.75
666.44	55269.41
666.58	54906.63
666.72	54801.30
666.86	54885.56
667.00	54894.92
667.14	54649.17
667.28	54724.07
667.43	54653.85
667.57	54508.74
667.71	54482.99
667.85	54321.49
667.99	54658.53
668.13	54492.35
668.27	54443.20
668.41	54274.68
668.56	54157.66
668.70	54141.27
668.84	54054.67
668.98	54017.22
669.12	54347.24
669.26	54246.60
669.40	53965.73
669.54	54131.91
669.68	54000.84
669.82	53787.85
669.96	54143.61
670.10	54033.61
670.25	53942.33
670.39	53663.80
670.53	53565.50
670.67	53579.54
670.81	53818.28
670.95	53467.20
671.09	53357.19
671.23	53364.21
671.37	53343.15
671.51	53441.45
671.65	53216.76
671.79	53202.72
671.93	53085.69
672.07	53176.97
672.21	52872.70
672.35	52837.59
672.49	52477.15
672.63	52512.26
672.77	52704.18
672.91	52479.49
673.05	51936.49
673.19	52514.60
673.33	52509.92
673.47	52294.59
673.61	52325.02
673.75	52355.44
673.89	51849.89
674.03	52360.12
674.17	51789.03
674.31	51657.96
674.45	51110.28
674.59	51519.87
674.73	51978.62
674.87	51672.01
675.01	51505.83
675.15	51360.72
675.29	51112.62
675.43	51550.30
675.56	51026.02
675.70	50960.48
675.84	51004.95
675.98	49907.24
676.12	50672.60
676.26	50953.46
676.40	50396.42
676.54	50534.51
676.68	50651.53
676.82	49935.33
676.96	50543.87
677.10	49806.60
677.23	49909.58
677.37	49698.94
677.51	50073.42
677.65	48914.86
677.79	48718.25
677.93	48802.51
678.07	49130.19
678.21	48720.59
678.34	48725.27
678.48	49066.99
678.62	48987.41
678.76	48619.95
678.90	48512.28
679.04	48332.06
679.18	48615.27
679.31	47931.83
679.45	47882.68
679.59	48105.03
679.73	47739.91
679.87	47412.23
680.00	47264.78
680.14	46890.29
680.28	47180.52
680.42	46918.38
680.56	46752.20
680.70	46319.20
680.83	46618.79
680.97	46424.53
681.11	46831.78
681.25	46396.44
681.39	46288.77
681.52	45937.69
681.66	45975.14
681.80	45975.14
681.94	45865.14
682.07	45471.93
682.21	45378.31
682.35	45492.99
682.49	45223.83
682.62	45673.21
682.76	45322.13
682.90	44896.16
683.04	44446.77
683.17	44711.25
683.31	43929.51
683.45	44425.71
683.59	44203.36
683.72	43882.70
683.86	43873.34
684.00	43959.94
684.13	44175.27
684.27	43892.07
684.41	43997.39
684.55	43536.30
684.68	43480.13
684.82	43250.76
684.96	43047.13
685.09	42824.78
685.23	42389.44
685.37	42394.12
685.50	42220.92
685.64	42274.76
685.78	42436.25
685.91	42040.70
686.05	41834.74
686.19	41460.25
686.32	41799.63
686.46	41050.66
686.60	40882.14
686.73	40591.91
686.87	40612.98
687.01	40847.03
687.14	40739.36
687.28	39962.31
687.42	40067.63
687.55	40084.01
687.69	40105.08
687.82	39819.53
687.96	39632.29
688.10	39751.66
688.23	39566.76
688.37	39208.65
688.50	38789.70
688.64	38934.81
688.78	38684.37
688.91	38096.90
689.05	38511.17
689.18	38263.08
689.32	37673.26
689.46	37841.78
689.59	37872.21
689.73	38085.20
689.86	37518.79
690.00	37184.09
690.13	37090.47
690.27	37766.88
690.41	37291.76
690.54	37008.55
690.68	36725.35
690.81	36535.76
690.95	36680.88
691.08	35992.76
691.22	36100.42
691.35	35604.23
691.49	36070.00
691.62	36266.60
691.76	35622.95
691.89	35648.70
692.03	35503.59
692.16	35054.20
692.30	35150.17
692.43	35459.12
692.57	34623.54
692.70	34653.97
692.84	34721.85
692.97	34455.03
693.11	33893.30
693.24	34227.99
693.38	33668.61
693.51	33600.73
693.65	33600.73
693.78	33263.69
693.92	33493.07
694.05	33404.13
694.19	32933.68
694.32	33193.48
694.45	32914.95
694.59	32701.96
694.72	32355.57
694.86	32212.79
694.99	32121.51
695.13	31393.61
695.26	31498.93
695.39	31484.89
695.53	31826.60
695.66	31803.20
695.80	31321.05
695.93	31103.38
696.07	30518.25
696.20	30546.33
696.33	30740.60
696.47	30691.44
696.60	30724.21
696.73	30508.88
696.87	30169.51
697.00	30213.98
697.14	30000.99
697.27	29841.83
697.40	29570.33
697.54	29326.91
697.67	29820.77
697.80	29305.85
697.94	29013.28
698.07	28952.43
698.21	28613.05
698.34	29172.44
698.47	28673.90
698.61	28149.62
698.74	28432.83
698.87	28507.72
699.01	28222.18
699.14	28112.17
699.27	27828.97
699.40	28053.66
699.54	28039.62
699.67	27637.05
699.80	27075.32
699.94	27325.75
700.07	27288.31
700.20	26981.70
700.34	26628.27
700.47	26167.19
700.60	26118.04
700.73	26256.13
700.87	26059.52
701.00	25802.07
701.13	25666.31
701.26	25862.92
701.40	26113.36
701.53	25642.91
701.66	25806.75
701.79	25160.76
701.93	25205.23
702.06	24802.66
702.19	24896.28
702.32	25015.65
702.46	24657.54
702.59	24449.24
702.72	24446.90
702.85	24664.57
702.99	24381.36
703.12	24109.86
703.25	23800.91
703.38	23721.33
703.51	23543.45
703.65	23590.26
703.78	23639.41
703.91	23075.34
704.04	23260.24
704.17	23744.73
704.31	23136.20
704.44	22939.59
704.57	22480.85
704.70	22253.81
704.83	22583.83
704.96	22431.69
705.10	22202.32
705.23	22221.05
>>>>>End Processed Spectral Data<<<<<
