SpectraSuite Data File
++++++++++++++++++++++++++++++++++++
Date: Fri Oct 25 11:23:49 EDT 2013
User: price-jones
Dark Spectrum Present: No
Reference Spectrum Present: No
Number of Sampled Component Spectra: 1
Spectrometers: USB2+H05261
Integration Time (usec): 100000 (USB2+H05261)
Spectra Averaged: 1 (USB2+H05261)
Boxcar Smoothing: 0 (USB2+H05261)
Correct for Electrical Dark: No (USB2+H05261)
Strobe/Lamp Enabled: No (USB2+H05261)
Correct for Detector Non-linearity: No (USB2+H05261)
Correct for Stray Light: No (USB2+H05261)
Number of Pixels in Processed Spectrum: 2048
>>>>>Begin Processed Spectral Data<<<<<
365.73	320.65
365.92	320.65
366.12	320.65
366.32	79.58
366.52	72.56
366.72	152.13
366.91	74.90
367.11	138.09
367.31	128.73
367.51	135.75
367.70	135.75
367.90	152.13
368.10	175.54
368.30	86.60
368.49	128.73
368.69	180.22
368.89	117.03
369.09	140.43
369.28	159.16
369.48	173.20
369.68	194.26
369.87	205.97
370.07	229.37
370.27	198.95
370.47	315.97
370.66	510.24
370.86	613.22
371.06	685.78
371.25	688.12
371.45	631.94
371.65	748.97
371.84	669.39
372.04	723.23
372.24	678.76
372.44	660.03
372.63	676.41
372.83	791.10
373.03	748.97
373.22	781.74
373.42	805.14
373.62	805.14
373.81	746.63
374.01	788.76
374.21	833.23
374.40	788.76
374.60	784.08
374.79	805.14
374.99	739.61
375.19	882.38
375.38	891.74
375.58	854.30
375.78	870.68
375.97	835.57
376.17	809.83
376.37	858.98
376.56	837.91
376.76	837.91
376.95	877.70
377.15	954.94
377.35	884.72
377.54	901.11
377.74	908.13
377.93	931.53
378.13	954.94
378.33	957.28
378.52	875.36
378.72	940.90
378.91	931.53
379.11	891.74
379.31	987.71
379.50	915.15
379.70	968.98
379.89	938.55
380.09	971.32
380.28	961.96
380.48	1006.43
380.68	985.37
380.87	938.55
381.07	1055.58
381.26	1090.69
381.46	1064.94
381.65	1057.92
381.85	1013.45
382.04	1032.18
382.24	957.28
382.43	999.41
382.63	1015.79
382.83	1151.54
383.02	1135.16
383.22	1123.46
383.41	1086.01
383.61	1067.28
383.80	1114.10
384.00	1029.84
384.19	1116.44
384.39	1062.60
384.58	1151.54
384.78	1170.27
384.97	1160.91
385.17	1102.39
385.36	1135.16
385.56	1228.78
385.75	1181.97
385.95	1158.57
386.14	1245.16
386.34	1179.63
386.53	1184.31
386.72	1153.88
386.92	1196.01
387.11	1186.65
387.31	1207.72
387.50	1289.64
387.70	1142.18
387.89	1284.95
388.09	1193.67
388.28	1327.08
388.48	1327.08
388.67	1247.51
388.86	1259.21
389.06	1409.00
389.25	1336.45
389.45	1373.89
389.64	1357.51
389.84	1394.96
390.03	1338.79
390.22	1291.98
390.42	1308.36
390.61	1383.26
390.81	1296.66
391.00	1359.85
391.19	1479.22
391.39	1413.68
391.58	1392.62
391.78	1394.96
391.97	1528.37
392.16	1437.09
392.36	1540.07
392.55	1504.96
392.75	1568.16
392.94	1549.43
393.13	1493.26
393.33	1556.46
393.52	1554.12
393.71	1605.61
393.91	1624.33
394.10	1570.50
394.29	1558.80
394.49	1626.67
394.68	1675.82
394.88	1586.88
395.07	1675.82
395.26	1701.57
395.46	1689.87
395.65	1734.34
395.84	1767.10
396.04	1764.76
396.23	1713.27
396.42	1760.08
396.62	1825.62
396.81	1806.89
397.00	1774.13
397.19	1703.91
397.39	1804.55
397.58	2005.84
397.77	1792.85
397.97	1921.58
398.16	1914.56
398.35	1860.73
398.55	1874.77
398.74	1809.23
398.93	2022.22
399.12	1902.86
399.32	1867.75
399.51	1898.17
399.70	1975.41
399.90	2043.29
400.09	2069.03
400.28	2127.55
400.47	2012.86
400.67	1980.09
400.86	2150.95
401.05	2080.74
401.24	2019.88
401.44	2150.95
401.63	2153.29
401.82	2162.66
402.01	2118.18
402.21	2193.08
402.40	2169.68
402.59	2293.72
402.78	2211.81
402.97	2263.30
403.17	2232.87
403.36	2324.15
403.55	2300.75
403.74	2394.37
403.93	2420.11
404.13	2328.83
404.32	2415.43
404.51	2422.45
404.70	2368.62
404.89	2370.96
405.09	2452.88
405.28	2504.37
405.47	2457.56
405.66	2485.65
405.85	2448.20
406.05	2502.03
406.24	2518.42
406.43	2621.40
406.62	2649.49
406.81	2719.70
407.00	2574.59
407.20	2565.23
407.39	2661.19
407.58	2719.70
407.77	2808.64
407.96	2651.83
408.15	2708.00
408.34	2747.79
408.54	2738.43
408.73	2960.78
408.92	2892.90
409.11	2904.60
409.30	2881.20
409.49	2937.37
409.68	2967.80
409.87	2862.48
410.07	2977.16
410.26	3101.21
410.45	2918.65
410.64	3082.49
410.83	3014.61
411.02	3040.36
411.21	3185.47
411.40	3094.19
411.59	3220.58
411.78	3232.28
411.98	3143.34
412.17	3290.79
412.36	3309.52
412.55	3288.45
412.74	3480.38
412.93	3307.18
413.12	3382.07
413.31	3534.21
413.50	3386.76
413.69	3461.65
413.88	3620.81
414.07	3566.98
414.26	3581.02
414.45	3843.16
414.64	3817.41
414.83	3758.90
415.02	3721.45
415.22	3929.76
415.41	3918.06
415.60	3726.13
415.79	4016.36
415.98	3995.29
416.17	4060.83
416.36	3960.19
416.55	3927.42
416.74	4037.42
416.93	4102.96
417.12	4259.78
417.31	4241.05
417.50	4187.22
417.69	4234.03
417.88	4243.39
418.07	4152.11
418.26	4358.08
418.45	4255.09
418.64	4528.94
418.83	4369.78
419.02	4402.55
419.21	4311.27
419.39	4664.69
419.58	4638.94
419.77	4603.83
419.96	4683.41
420.15	4779.37
420.34	4524.26
420.53	4676.39
420.72	4613.20
420.91	4784.06
421.10	4690.43
421.29	4770.01
421.48	4713.84
421.67	4896.40
421.86	4889.38
422.05	4767.67
422.24	4667.03
422.43	4744.27
422.61	4936.19
422.80	4924.49
422.99	4957.25
423.18	4971.30
423.37	5191.31
423.56	5050.88
423.75	4978.32
423.94	4812.14
424.13	4699.80
424.32	4781.71
424.50	5013.43
424.69	5025.13
424.88	5081.30
425.07	5013.43
425.26	4910.44
425.45	5125.77
425.64	5071.94
425.83	5025.13
426.01	5174.92
426.20	5125.77
426.39	5163.22
426.58	5088.32
426.77	5109.39
426.96	5165.56
427.15	5163.22
427.33	5249.82
427.52	5242.80
427.71	5291.95
427.90	5242.80
428.09	5425.36
428.28	5364.51
428.46	5481.53
428.65	5378.55
428.84	5617.29
429.03	5640.69
429.22	5366.85
429.40	5633.67
429.59	5509.62
429.78	5327.06
429.97	5287.27
430.16	5568.13
430.34	5713.25
430.53	5628.99
430.72	5582.18
430.91	5465.15
431.10	5694.52
431.28	5706.23
431.47	5610.26
431.66	6024.54
431.85	5720.27
432.03	5858.36
432.22	5975.39
432.41	5977.73
432.60	5949.64
432.79	5991.77
432.97	5980.07
433.16	6033.90
433.35	6010.50
433.54	5977.73
433.72	6071.35
433.91	6214.12
434.10	6040.92
434.28	6244.55
434.47	6207.10
434.66	6340.51
434.85	6291.36
435.03	6270.30
435.22	6394.34
435.41	6443.49
435.59	6560.52
435.78	6520.73
435.97	6436.47
436.16	6478.60
436.34	6459.88
436.53	6546.48
436.72	6759.47
436.90	6513.71
437.09	6572.22
437.28	6413.07
437.46	6558.18
437.65	6647.12
437.84	6876.49
438.02	6719.68
438.21	6825.00
438.40	6633.08
438.58	7059.06
438.77	6993.52
438.96	7012.24
439.14	7140.97
439.33	7241.62
439.52	7206.51
439.70	7335.24
439.89	7136.29
440.08	7279.07
440.26	7470.99
440.45	7337.58
440.63	7489.71
440.82	7864.20
441.01	7583.34
441.19	7679.30
441.38	7861.86
441.57	7784.62
441.75	7775.26
441.94	7943.78
442.12	8018.68
442.31	8175.49
442.50	8100.59
442.68	8098.25
442.87	8035.06
443.05	8086.55
443.24	7967.18
443.43	8121.66
443.61	8173.15
443.80	8451.67
443.98	8049.10
444.17	7775.26
444.35	8379.12
444.54	8456.36
444.73	8442.31
444.91	8461.04
445.10	8400.18
445.28	8379.12
445.47	8154.43
445.65	8531.25
445.84	8606.15
446.02	8538.27
446.21	8557.00
446.39	8407.20
446.58	8439.97
446.77	8564.02
446.95	8250.39
447.14	8369.76
447.32	8662.32
447.51	8634.24
447.69	8524.23
447.88	8683.39
448.06	8629.56
448.25	8643.60
448.43	8692.75
448.62	8599.13
448.80	8568.70
448.99	8664.66
449.17	8706.79
449.36	8674.03
449.54	8821.48
449.73	9085.96
449.91	8950.21
450.10	8978.30
450.28	9085.96
450.46	8926.80
450.65	9118.73
450.83	9076.60
451.02	8882.33
451.20	9207.67
451.39	9193.62
451.57	8940.85
451.76	9083.62
451.94	9118.73
452.13	9479.17
452.31	9266.18
452.49	9380.87
452.68	9380.87
452.86	9729.61
453.05	9570.45
453.23	9551.73
453.42	9397.25
453.60	9441.72
453.78	9518.96
453.97	9535.34
454.15	9654.71
454.34	9729.61
454.52	9830.25
454.70	9891.10
454.89	9961.32
455.07	9767.06
455.26	10127.50
455.44	9935.57
455.62	9975.36
455.81	9809.19
455.99	10134.52
456.17	10104.09
456.36	10115.80
456.54	10073.67
456.73	10211.76
456.91	10506.66
457.09	10314.74
457.28	10675.18
457.46	10471.56
457.64	10436.45
457.83	10281.97
458.01	10293.68
458.19	10782.85
458.38	10527.73
458.56	10850.72
458.74	10803.91
458.93	10644.76
459.11	10705.61
459.29	10705.61
459.48	10871.79
459.66	11049.67
459.84	11108.18
460.03	11183.08
460.21	10991.16
460.39	11309.47
460.57	11187.76
460.76	11098.82
460.94	11227.55
461.12	11133.93
461.31	11480.33
461.49	11265.00
461.67	10963.07
461.85	11314.15
462.04	11389.05
462.22	11686.29
462.40	11627.78
462.59	11599.70
462.77	11543.52
462.95	11676.93
463.13	11566.93
463.32	11847.79
463.50	11838.43
463.68	11754.17
463.86	11878.22
464.05	11602.04
464.23	11779.92
464.41	11976.52
464.59	11981.20
464.78	11903.96
464.96	11810.34
465.14	12004.61
465.32	12077.16
465.50	12093.55
465.69	12285.47
465.87	12226.96
466.05	12053.76
466.23	12376.75
466.41	12498.46
466.60	12652.94
466.78	12056.10
466.96	12411.86
467.14	12409.52
467.32	12423.56
467.51	12365.05
467.69	12299.52
467.87	12465.69
468.05	12638.89
468.23	12325.26
468.41	12533.57
468.60	12980.61
468.78	12868.27
468.96	12697.41
469.14	12734.85
469.32	13027.42
469.50	12727.83
469.69	13099.98
469.87	13202.96
470.05	13125.72
470.23	13221.69
470.41	13172.54
470.59	13364.46
470.77	13397.23
470.95	13067.21
471.14	13720.22
471.32	13310.63
471.50	13589.15
471.68	13699.16
471.86	13617.24
472.04	13778.73
472.22	14031.51
472.40	14146.20
472.58	13846.61
472.77	14277.27
472.95	14286.63
473.13	14686.86
473.31	14185.99
473.49	14099.39
473.67	14169.60
473.85	14352.16
474.03	14757.08
474.21	14707.93
474.39	14780.48
474.57	14747.72
474.75	14857.72
474.93	15166.67
475.12	15293.06
475.30	15236.89
475.48	14850.70
475.66	15309.44
475.84	15164.33
476.02	15445.20
476.20	15559.88
476.38	15730.74
476.56	15932.03
476.74	15974.16
476.92	15999.90
477.10	15768.19
477.28	16264.38
477.46	16346.30
477.64	16409.50
477.82	16589.72
478.00	16943.14
478.18	16870.58
478.36	16957.18
478.54	17298.90
478.72	17441.67
478.90	17465.08
479.08	18017.44
479.26	17848.93
479.44	17982.34
479.62	18001.06
479.80	18071.28
479.98	18115.75
480.16	18569.81
480.34	18317.03
480.52	18515.98
480.70	18633.00
480.88	18623.64
481.06	18974.72
481.24	18822.59
481.41	19316.44
481.59	19503.68
481.77	19641.78
481.95	19859.45
482.13	19988.18
482.31	19840.72
482.49	20369.68
482.67	20205.84
482.85	20325.21
483.03	20718.42
483.21	21102.27
483.39	21223.98
483.57	20809.70
483.74	20844.81
483.92	21486.12
484.10	21392.50
484.28	21638.25
484.46	21942.52
484.64	22300.62
484.82	22181.26
485.00	22604.89
485.18	22658.73
485.35	22955.97
485.53	23152.58
485.71	22881.08
485.89	23428.76
486.07	23585.58
486.25	23506.00
486.43	23644.09
486.61	24137.94
486.78	24049.00
486.96	24467.96
487.14	24421.15
487.32	24739.46
487.50	24917.34
487.68	25212.25
487.85	25329.28
488.03	25764.62
488.21	26073.57
488.39	25951.86
488.57	26356.77
488.75	26831.90
488.92	26408.26
489.10	26904.46
489.28	27360.86
489.46	27470.87
489.64	27227.45
489.81	27850.03
489.99	27669.81
490.17	28016.21
490.35	28318.14
490.53	28456.23
490.70	28418.78
490.88	28334.53
491.06	29099.88
491.24	29015.62
491.41	29415.85
491.59	29305.85
491.77	29369.04
491.95	29998.65
492.13	30094.61
492.30	30031.41
492.48	30300.58
492.66	30405.90
492.84	30651.66
493.01	30565.06
493.19	30459.73
493.37	31126.78
493.54	31206.36
493.72	32098.11
493.90	31295.30
494.08	32180.03
494.25	32418.76
494.43	32072.36
494.61	32350.88
494.79	32559.19
494.96	32992.19
495.14	32701.96
495.32	33165.39
495.49	33282.42
495.67	33390.08
495.85	33652.22
496.02	33874.57
496.20	34323.96
496.38	33947.13
496.55	34452.69
496.73	35136.12
496.91	35058.88
497.09	35292.94
497.26	35255.49
497.44	35215.70
497.62	35454.44
497.79	36013.82
497.97	35501.25
498.14	35934.24
498.32	35810.20
498.50	36631.72
498.67	37043.66
498.85	36353.20
499.03	37041.32
499.20	37067.06
499.38	37282.39
499.56	37282.39
499.73	37467.30
499.91	37247.29
500.08	38054.77
500.26	37848.80
500.44	37897.95
500.61	38316.91
500.79	37979.87
500.97	38476.07
501.14	38787.36
501.32	38738.21
501.49	39049.50
501.67	38565.01
501.84	39349.09
502.02	38855.23
502.20	39068.22
502.37	39601.86
502.55	39323.34
502.72	39964.65
502.90	39824.22
503.07	39931.88
503.25	39821.87
503.43	39955.29
503.60	40341.47
503.78	40177.64
503.95	40783.83
504.13	41123.21
504.30	40627.02
504.48	40802.56
504.65	40940.65
504.83	41383.01
505.01	41277.69
505.18	41127.89
505.36	41715.37
505.53	41406.42
505.71	41605.36
505.88	42239.65
506.06	41729.41
506.23	42206.88
506.41	42263.05
506.58	42403.49
506.76	42424.55
506.93	42796.70
507.11	42007.94
507.28	42415.19
507.46	42768.61
507.63	42918.40
507.81	43089.26
507.98	43157.14
508.16	42895.00
508.33	43367.79
508.50	43435.66
508.68	44273.57
508.85	43786.74
509.03	43955.26
509.20	44177.61
509.38	44690.19
509.55	44561.46
509.73	44788.49
509.90	44891.48
510.08	44896.16
510.25	44910.20
510.42	44907.86
510.60	45352.56
510.77	45687.26
510.95	45691.94
511.12	45492.99
511.30	45464.91
511.47	45787.90
511.64	45794.92
511.82	45764.49
511.99	45902.59
512.17	46424.53
512.34	46534.53
512.51	46581.34
512.69	46799.01
512.86	46436.23
513.04	46988.60
513.21	46925.40
513.38	46459.63
513.56	47154.77
513.73	46873.91
513.90	47028.38
514.08	47456.70
514.25	47264.78
514.43	48055.88
514.60	48025.45
514.77	47702.46
514.95	47936.51
515.12	47597.13
515.29	48051.20
515.47	47824.17
515.64	48175.25
515.81	48114.39
515.99	48444.41
516.16	49036.56
516.33	48601.22
516.51	49050.61
516.68	48786.13
516.85	48516.96
517.03	49102.10
517.20	49083.37
517.37	49453.18
517.54	49237.85
517.72	49279.98
517.89	49385.30
518.06	49324.45
518.24	49509.35
518.41	49404.03
518.58	49720.00
518.75	49720.00
518.93	49932.99
519.10	50169.38
519.27	49991.50
519.45	50405.78
519.62	50375.35
519.79	49918.95
519.96	50220.87
520.14	50394.07
520.31	50255.98
520.48	50574.30
520.65	50710.05
520.83	50906.65
521.00	50934.74
521.17	50541.53
521.34	50756.86
521.52	51009.64
521.69	50871.54
521.86	51358.38
522.03	51377.10
522.20	51613.49
522.38	51634.56
522.55	51306.88
522.72	51201.56
522.89	51454.34
523.07	52011.38
523.24	51538.60
523.41	51625.20
523.58	51887.34
523.75	51990.32
523.92	52086.28
524.10	52013.73
524.27	52317.99
524.44	51922.44
524.61	52446.72
524.78	52215.01
524.96	52385.87
525.13	52470.13
525.30	52432.68
525.47	52587.16
525.64	52523.96
525.81	52858.66
525.98	52891.43
526.16	52460.77
526.33	52818.87
526.50	53158.25
526.67	53233.14
526.84	53130.16
527.01	52898.45
527.18	52954.62
527.36	53081.01
527.53	53301.02
527.70	53411.02
527.87	53474.22
528.04	53649.76
528.21	53616.99
528.38	53263.57
528.55	53609.97
528.72	53404.00
528.89	53879.13
529.07	53647.42
529.24	53558.48
529.41	54092.12
529.58	53741.04
529.75	53827.64
529.92	53984.46
530.09	54089.78
530.26	53860.41
530.43	54553.21
530.60	53909.56
530.77	54031.27
530.94	54351.92
531.11	54349.58
531.28	54113.19
531.46	54471.29
531.63	54597.68
531.80	54387.03
531.97	54630.44
532.14	54515.76
532.31	54618.74
532.48	54768.54
532.65	54740.45
532.82	54754.49
532.99	54972.16
533.16	55014.29
533.33	54951.10
533.50	55157.06
533.67	54939.39
533.84	54892.58
534.01	55084.51
534.18	54955.78
534.35	55379.42
534.52	55201.53
534.69	55599.43
534.86	55639.22
535.03	55348.99
535.20	55552.62
535.37	55618.15
535.54	55531.55
535.71	55561.98
535.88	55655.60
536.05	55552.62
536.22	55723.47
536.38	56278.18
536.55	55812.41
536.72	55639.22
536.89	55444.95
537.06	55573.68
537.23	56013.70
537.40	55845.18
537.57	55781.99
537.74	55955.19
537.91	56240.73
538.08	55941.14
538.25	55899.01
538.42	56058.17
538.59	56168.18
538.75	56149.45
538.92	56189.24
539.09	56491.17
539.26	56299.25
539.43	56186.90
539.60	56479.47
539.77	56399.89
539.94	56528.62
540.11	56603.52
540.28	56460.74
540.44	56643.30
540.61	56486.49
540.78	56411.59
540.95	56542.66
541.12	56561.39
541.29	56633.94
541.46	56818.84
541.62	56779.06
541.79	56877.36
541.96	56404.57
542.13	56924.17
542.30	56825.87
542.47	57003.75
542.63	56942.89
542.80	57097.37
542.97	57289.29
543.14	57476.54
543.31	57312.70
543.48	57324.40
543.64	57394.62
543.81	57586.54
543.98	57518.67
544.15	57492.92
544.32	57441.43
544.48	57787.83
544.65	57560.79
544.82	57635.69
544.99	57455.47
545.16	57750.38
545.32	57591.22
545.49	57757.40
545.66	57961.03
545.83	57684.84
546.00	57652.08
546.16	57750.38
546.33	57673.14
546.50	57691.86
546.67	58003.16
546.83	57471.85
547.00	57893.15
547.17	57806.55
547.34	57921.24
547.50	58092.10
547.67	58295.72
547.84	58110.82
548.00	58258.27
548.17	58323.81
548.34	58209.12
548.51	58384.66
548.67	58363.60
548.84	58255.93
549.01	58396.37
549.18	58333.17
549.34	58387.00
549.51	58267.64
549.68	58562.54
549.84	58382.32
550.01	58511.05
550.18	58487.65
550.34	58621.06
550.51	58487.65
550.68	58646.80
550.84	58082.73
551.01	58691.27
551.18	58632.76
551.34	58567.23
551.51	58599.99
551.68	58724.04
551.84	58616.38
552.01	58773.19
552.18	59082.14
552.34	58401.05
552.51	58855.11
552.68	58766.17
552.84	58990.86
553.01	59014.27
553.18	59098.53
553.34	59030.65
553.51	58993.20
553.67	59126.61
553.84	59185.13
554.01	59150.02
554.17	58969.80
554.34	59330.24
554.51	59070.44
554.67	59194.49
554.84	59154.70
555.00	59084.48
555.17	58974.48
555.33	59154.70
555.50	59091.51
555.67	58981.50
555.83	58810.64
556.00	59203.85
556.16	59583.02
556.33	59458.97
556.50	59175.76
556.66	59421.52
556.83	59433.22
556.99	59491.74
557.16	59454.29
557.32	59517.48
557.49	59739.83
557.65	59409.82
557.82	59709.41
557.98	59650.89
558.15	59580.68
558.32	59707.07
558.48	59697.70
558.65	59590.04
558.81	59606.42
558.98	59667.28
559.14	59887.29
559.31	59901.33
559.47	59931.76
559.64	59814.73
559.80	59854.52
559.97	59929.42
560.13	59765.58
560.30	59721.11
560.46	59877.93
560.63	59788.98
560.79	59976.23
560.96	60107.30
561.12	60090.91
561.29	59863.88
561.45	60020.70
561.61	59924.74
561.78	60016.02
561.94	59997.29
562.11	60032.40
562.27	60048.78
562.44	60168.15
562.60	60151.77
562.77	60097.94
562.93	59917.71
563.10	60193.90
563.26	60116.66
563.42	60376.46
563.59	60151.77
563.75	60177.51
563.92	60210.28
564.08	60172.83
564.24	60046.44
564.41	60273.48
564.57	60158.79
564.74	60301.56
564.90	60261.77
565.07	60268.79
565.23	60427.95
565.39	60231.35
565.56	60198.58
565.72	60310.92
565.88	60322.63
566.05	60102.62
566.21	60362.42
566.38	60416.25
566.54	60465.40
566.70	60491.15
566.87	60647.96
567.03	60294.54
567.19	60477.10
567.36	60500.51
567.52	60526.25
567.68	60760.31
567.85	60360.08
568.01	60559.02
568.17	60315.61
568.34	60495.83
568.50	60570.72
568.66	60453.70
568.83	60755.63
568.99	60404.55
569.15	60559.02
569.32	60456.04
569.48	60552.00
569.64	60849.25
569.81	60659.66
569.97	60432.63
570.13	60509.87
570.30	60432.63
570.46	60528.59
570.62	60624.56
570.78	60722.86
570.95	60760.31
571.11	60919.46
571.27	60570.72
571.43	60743.92
571.60	60956.91
571.76	60687.75
571.92	60764.99
572.09	60891.38
572.25	60722.86
572.41	60940.53
572.57	60701.79
572.74	61043.51
572.90	60687.75
573.06	60903.08
573.22	60788.39
573.38	60711.16
573.55	60779.03
573.71	60992.02
573.87	60907.76
574.03	60725.20
574.20	60837.54
574.36	60804.78
574.52	60863.29
574.68	60903.08
574.84	61092.66
575.01	60874.99
575.17	60760.31
575.33	60928.83
575.49	60687.75
575.65	60975.64
575.82	60903.08
575.98	61022.45
576.14	60912.44
576.30	60966.27
576.46	60783.71
576.62	60790.73
576.79	60882.02
576.95	60669.03
577.11	60945.21
577.27	60973.30
577.43	61022.45
577.59	60844.57
577.75	60977.98
577.92	60781.37
578.08	60924.14
578.24	60884.36
578.40	61160.54
578.56	60942.87
578.72	61029.47
578.88	61226.07
579.04	61212.03
579.21	61048.19
579.37	61144.16
579.53	61148.84
579.69	60905.42
579.85	60956.91
580.01	60865.63
580.17	60928.83
580.33	61034.15
580.49	61097.34
580.65	61092.66
580.82	60830.52
580.98	60818.82
581.14	60959.25
581.30	61092.66
581.46	61125.43
581.62	61158.20
581.78	60931.17
581.94	61022.45
582.10	61078.62
582.26	61322.04
582.42	60982.66
582.58	60921.80
582.74	60959.25
582.90	61073.94
583.06	60989.68
583.22	60921.80
583.38	60994.36
583.54	61209.69
583.70	61029.47
583.86	61179.26
584.02	60877.33
584.18	61247.14
584.34	61181.60
584.50	61162.88
584.66	61137.13
584.82	61078.62
584.98	61436.72
585.14	61244.80
585.30	60945.21
585.46	61146.50
585.62	61181.60
585.78	61317.35
585.94	60992.02
586.10	61448.42
586.26	61137.13
586.42	61305.65
586.58	61174.58
586.74	61338.42
586.90	61102.03
587.06	61022.45
587.22	61357.14
587.38	61193.31
587.54	61209.69
587.70	61462.47
587.86	61137.13
588.02	61109.05
588.18	61284.59
588.34	61167.56
588.49	61338.42
588.65	61132.45
588.81	61406.30
588.97	61193.31
589.13	61064.58
589.29	61228.41
589.45	61450.77
589.61	61403.95
589.77	61579.49
589.93	61467.15
590.08	61291.61
590.24	61235.44
590.40	61645.03
590.56	61560.77
590.72	61535.02
590.88	61291.61
591.04	61399.27
591.20	61680.14
591.35	61694.18
591.51	61769.08
591.67	61691.84
591.83	61570.13
591.99	61443.74
592.15	61396.93
592.31	61560.77
592.46	61558.43
592.62	61556.09
592.78	61766.74
592.94	61614.60
593.10	61532.68
593.26	61586.52
593.41	61584.18
593.57	61427.36
593.73	61659.07
593.89	61900.15
594.05	61542.05
594.20	61687.16
594.36	61691.84
594.52	61542.05
594.68	61497.58
594.84	61513.96
594.99	61621.62
595.15	61598.22
595.31	61612.26
595.47	61347.78
595.62	61565.45
595.78	61565.45
595.94	61640.35
596.10	61797.16
596.25	61722.27
596.41	61820.57
596.57	61724.61
596.73	61652.05
596.88	61684.82
597.04	61778.44
597.20	61979.73
597.36	61698.86
597.51	61867.38
597.67	61740.99
597.83	61656.73
597.99	61666.09
598.14	61827.59
598.30	61872.06
598.46	61876.74
598.61	61951.64
598.77	61598.22
598.93	61883.76
599.09	61757.38
599.24	62003.13
599.40	61834.61
599.56	61872.06
599.71	61904.83
599.87	61923.55
600.03	61848.66
600.18	61670.78
600.34	61621.62
600.50	61846.32
600.65	61797.16
600.81	61958.66
600.97	61769.08
601.12	61785.46
601.28	61771.42
601.44	61764.40
601.59	61783.12
601.75	61738.65
601.91	62117.82
602.06	62063.99
602.22	61946.96
602.37	61900.15
602.53	61733.97
602.69	61890.79
602.84	61848.66
603.00	61895.47
603.16	61843.98
603.31	61946.96
603.47	62166.97
603.62	61900.15
603.78	61975.05
603.94	61769.08
604.09	61815.89
604.25	61921.21
604.40	61897.81
604.56	61804.19
604.71	61897.81
604.87	61890.79
605.03	61935.26
605.18	61958.66
605.34	61834.61
605.49	61689.50
605.65	61951.64
605.80	61745.67
605.96	61853.34
606.12	61918.87
606.27	61937.60
606.43	62000.79
606.58	62017.17
606.74	61694.18
606.89	61712.91
607.05	61911.85
607.20	61843.98
607.36	61691.84
607.51	61792.48
607.67	61628.65
607.82	61719.93
607.98	61647.37
608.13	61921.21
608.29	61801.85
608.44	61755.03
608.60	61759.72
608.75	61668.44
608.91	61748.01
609.06	61513.96
609.22	61787.80
609.37	61682.48
609.53	61876.74
609.68	61743.33
609.84	61612.26
609.99	61748.01
610.15	61811.21
610.30	61897.81
610.46	61843.98
610.61	61553.75
610.76	61656.73
610.92	61712.91
611.07	61654.39
611.23	61563.11
611.38	61703.54
611.54	61647.37
611.69	61843.98
611.84	61867.38
612.00	61808.87
612.15	61537.36
612.31	61621.62
612.46	61766.74
612.62	61759.72
612.77	61504.60
612.92	61804.19
613.08	61591.20
613.23	61462.47
613.39	61366.51
613.54	61352.46
613.69	61623.96
613.85	61558.43
614.00	61705.88
614.15	61668.44
614.31	61446.08
614.46	61539.71
614.62	61502.26
614.77	61570.13
614.92	61745.67
615.08	61300.97
615.23	61539.71
615.38	61450.77
615.54	61499.92
615.69	61558.43
615.84	61427.36
616.00	61443.74
616.15	61649.71
616.30	61504.60
616.46	61333.74
616.61	61291.61
616.76	61462.47
616.92	61357.14
617.07	61460.13
617.22	61155.86
617.37	61315.01
617.53	61581.84
617.68	61581.84
617.83	61219.05
617.99	61216.71
618.14	61394.59
618.29	61392.25
618.45	61097.34
618.60	61123.09
618.75	61375.87
618.90	61261.18
619.06	61284.59
619.21	61359.48
619.36	61331.40
619.51	61291.61
619.67	61169.90
619.82	61221.39
619.97	61289.27
620.12	61155.86
620.28	60931.17
620.43	61092.66
620.58	61130.11
620.73	61132.45
620.89	61092.66
621.04	61284.59
621.19	61207.35
621.34	60956.91
621.49	60788.39
621.65	61073.94
621.80	61216.71
621.95	61064.58
622.10	61080.96
622.25	61017.77
622.41	61031.81
622.56	61038.83
622.71	61113.73
622.86	60853.93
623.01	60736.90
623.16	60666.69
623.32	61123.09
623.47	61020.11
623.62	61006.06
623.77	60760.31
623.92	60898.40
624.07	60772.01
624.23	60945.21
624.38	60867.97
624.53	60779.03
624.68	60762.65
624.83	60905.42
624.98	60783.71
625.13	60926.49
625.29	60935.85
625.44	60500.51
625.59	60687.75
625.74	60903.08
625.89	60519.23
626.04	60374.12
626.19	60580.09
626.34	60722.86
626.49	60425.61
626.65	60561.36
626.80	60547.32
626.95	60521.57
627.10	60441.99
627.25	60542.64
627.40	60350.71
627.55	60331.99
627.70	60629.24
627.85	60334.33
628.00	60523.91
628.15	60622.22
628.30	60542.64
628.45	60404.55
628.60	60341.35
628.76	60353.05
628.91	60559.02
629.06	60348.37
629.21	60444.33
629.36	60610.51
629.51	60327.31
629.66	60294.54
629.81	60310.92
629.96	60074.53
630.11	60088.57
630.26	60381.14
630.41	60303.90
630.56	60245.39
630.71	60357.74
630.86	60268.79
631.01	60121.34
631.16	60182.19
631.31	60004.31
631.46	59957.50
631.61	60282.84
631.76	60313.26
631.91	60154.11
632.06	60177.51
632.21	60016.02
632.36	59828.77
632.51	59821.75
632.66	60097.94
632.81	59842.82
632.96	59941.12
633.10	59936.44
633.25	59941.12
633.40	60011.34
633.55	60184.54
633.70	59983.25
633.85	59924.74
634.00	59917.71
634.15	59861.54
634.30	59831.11
634.45	59753.88
634.60	60289.86
634.75	60062.83
634.90	59742.17
635.05	59641.53
635.19	59709.41
635.34	60090.91
635.49	59833.46
635.64	59805.37
635.79	59831.11
635.94	59868.56
636.09	59805.37
636.24	59573.66
636.39	59615.79
636.53	59847.50
636.68	59693.02
636.83	59730.47
636.98	59781.96
637.13	59433.22
637.28	59597.06
637.43	59791.33
637.57	59533.87
637.72	59428.54
637.87	59690.68
638.02	59515.14
638.17	59529.19
638.32	59641.53
638.46	59519.82
638.61	59585.36
638.76	59245.98
638.91	59393.43
639.06	59405.14
639.20	59206.19
639.35	59320.88
639.50	59093.85
639.65	59276.41
639.80	59264.70
639.94	59231.94
640.09	59421.52
640.24	59330.24
640.39	59011.93
640.54	59400.46
640.68	59245.98
640.83	59281.09
640.98	59334.92
641.13	59164.06
641.27	59489.40
641.42	59150.02
641.57	58805.96
641.72	59072.78
641.86	59075.12
642.01	58808.30
642.16	58951.07
642.31	58918.31
642.45	59309.18
642.60	58969.80
642.75	59189.81
642.90	59208.53
643.04	59075.12
643.19	58890.22
643.34	58960.44
643.48	58981.50
643.63	58951.07
643.78	58974.48
643.93	58794.26
644.07	58930.01
644.22	58717.02
644.37	58827.02
644.51	58597.65
644.66	59056.40
644.81	58852.77
644.95	58787.24
645.10	58927.67
645.25	58754.47
645.39	58513.39
645.54	58937.03
645.69	58808.30
645.83	58562.54
645.98	58602.33
646.13	58674.89
646.27	58663.19
646.42	58810.64
646.57	58560.20
646.71	58700.64
646.86	58740.42
647.00	58749.79
647.15	58698.30
647.30	58719.36
647.44	58478.28
647.59	58686.59
647.74	58768.51
647.88	58553.18
648.03	58681.91
648.17	58597.65
648.32	58356.58
648.47	58433.81
648.61	58532.12
648.76	58300.40
648.90	58464.24
649.05	58279.34
649.20	58447.86
649.34	58480.63
649.49	58319.13
649.63	58480.63
649.78	58539.14
649.92	58372.96
650.07	58342.53
650.21	58281.68
650.36	58337.85
650.51	58581.27
650.65	58370.62
650.80	58204.44
650.94	58054.65
651.09	58195.08
651.23	57918.90
651.38	58234.87
651.52	58089.76
651.67	58115.50
651.81	57986.77
651.96	57916.56
652.10	58120.18
652.25	57977.41
652.39	58000.82
652.54	57844.00
652.68	57748.04
652.83	57909.53
652.97	57874.43
653.12	57998.48
653.26	57921.24
653.41	57935.28
653.55	57855.70
653.70	57642.71
653.84	57932.94
653.99	57902.51
654.13	57731.65
654.27	57820.59
654.42	57848.68
654.56	58019.54
654.71	57897.83
654.85	58056.99
655.00	58007.84
655.14	57822.93
655.29	57647.39
655.43	57357.17
655.57	57860.38
655.72	57621.65
655.86	57755.06
656.01	57645.05
656.15	57471.85
656.30	57733.99
656.44	57773.78
656.58	57759.74
656.73	57605.26
656.87	57654.42
657.01	57521.01
657.16	57762.08
657.30	57275.25
657.45	57378.23
657.59	57467.17
657.73	57373.55
657.88	57364.19
658.02	57448.45
658.16	57343.12
658.31	57375.89
658.45	57237.80
658.60	57195.67
658.74	57315.04
658.88	57195.67
659.03	57233.12
659.17	57095.03
659.31	57130.14
659.46	57106.73
659.60	57151.20
659.74	57038.86
659.89	56982.68
660.03	56889.06
660.17	57195.67
660.32	56900.76
660.46	56846.93
660.60	56903.10
660.74	56739.27
660.89	57085.67
661.03	56769.69
661.17	56626.92
661.32	56409.25
661.46	56547.34
661.60	56727.56
661.74	56481.81
661.89	56633.94
662.03	56612.88
662.17	56416.27
662.31	56275.84
662.46	56685.43
662.60	56378.82
662.74	56329.67
662.88	56341.38
663.03	56191.58
663.17	56465.42
663.31	55924.76
663.45	56055.83
663.60	56011.36
663.74	55870.93
663.88	55894.33
664.02	55870.93
664.17	56027.74
664.31	55711.77
664.45	55824.12
664.59	55845.18
664.73	55508.14
664.88	55803.05
665.02	55536.23
665.16	55566.66
665.30	55723.47
665.44	55269.41
665.59	55337.29
665.73	55515.17
665.87	55444.95
666.01	55405.16
666.15	55655.60
666.29	55426.23
666.44	55800.71
666.58	55215.58
666.72	54990.89
666.86	55030.68
667.00	54960.46
667.14	54623.42
667.28	54827.05
667.43	54827.05
667.57	54873.86
667.71	54707.68
667.85	54653.85
667.99	54890.24
668.13	54740.45
668.27	54590.66
668.41	54763.85
668.56	54335.54
668.70	54347.24
668.84	54351.92
668.98	54354.26
669.12	54501.71
669.26	54607.04
669.40	54286.39
669.54	54396.39
669.68	54007.86
669.82	54115.53
669.96	54445.54
670.10	54199.79
670.25	54494.69
670.39	53996.16
670.53	54078.08
670.67	53616.99
670.81	54262.98
670.95	53825.30
671.09	53743.38
671.23	53567.84
671.37	53771.47
671.51	53396.98
671.65	53600.61
671.79	53514.01
671.93	53542.10
672.07	53413.37
672.21	53113.78
672.35	52917.17
672.49	53015.47
672.63	52994.41
672.77	52919.51
672.91	53062.29
673.05	52872.70
673.19	52912.49
673.33	52388.21
673.47	52521.62
673.61	52928.87
673.75	52303.95
673.89	52528.64
674.03	52329.70
674.17	52589.50
674.31	51789.03
674.45	52170.54
674.59	51840.53
674.73	52009.04
674.87	52217.35
675.01	51604.13
675.15	51578.39
675.29	51405.19
675.43	51777.33
675.56	51433.27
675.70	51255.39
675.84	51395.82
675.98	50017.25
676.12	51192.20
676.26	51480.08
676.40	50960.48
676.54	50976.87
676.68	50710.05
676.82	50204.49
676.96	50171.72
677.10	50213.85
677.23	50248.96
677.37	50241.94
677.51	50047.68
677.65	49581.91
677.79	49132.53
677.93	49312.75
678.07	49198.06
678.21	49001.46
678.34	49153.59
678.48	48968.69
678.62	48926.56
678.76	48722.93
678.90	48474.84
679.04	48519.31
679.18	48769.74
679.31	47859.27
679.45	48119.07
679.59	48350.79
679.73	48315.68
679.87	47718.84
680.00	47601.82
680.14	47487.13
680.28	47428.62
680.42	47313.93
680.56	46766.24
680.70	47063.49
680.83	46878.59
680.97	46923.06
681.11	47267.12
681.25	46986.25
681.39	46719.43
681.52	46618.79
681.66	46223.24
681.80	46497.08
681.94	46251.33
682.07	46424.53
682.21	45518.74
682.35	45890.88
682.49	45282.34
682.62	45687.26
682.76	45518.74
682.90	45242.56
683.04	45212.13
683.17	45254.26
683.31	44835.30
683.45	44910.20
683.59	44655.08
683.72	44341.45
683.86	44657.42
684.00	44524.01
684.13	44149.53
684.27	43709.50
684.41	44025.48
684.55	43945.90
684.68	43597.16
684.82	43501.20
684.96	43086.92
685.09	43037.77
685.23	43274.16
685.37	42726.48
685.50	42618.81
685.64	42588.39
685.78	42862.23
685.91	42789.67
686.05	42052.41
686.19	41614.72
686.32	41167.68
686.46	41315.14
686.60	41102.15
686.73	40912.56
686.87	40746.39
687.01	41333.86
687.14	40919.59
687.28	40547.44
687.42	40645.74
687.55	40392.97
687.69	40566.16
687.82	40217.43
687.96	39871.03
688.10	39461.43
688.23	40135.51
688.37	39700.17
688.50	39274.19
688.64	39358.45
688.78	38995.67
688.91	38934.81
689.05	39021.41
689.18	38909.07
689.32	38340.32
689.46	37464.96
689.59	37799.65
689.73	37970.51
689.86	37596.03
690.00	37277.71
690.13	38005.62
690.27	37530.49
690.41	37926.04
690.54	37013.23
690.68	36690.24
690.81	37088.13
690.95	36620.02
691.08	36837.69
691.22	36247.88
691.35	36268.94
691.49	36133.19
691.62	36306.39
691.76	35700.19
691.89	35878.07
692.03	35817.22
692.16	35512.95
692.30	35316.34
692.43	35597.21
692.57	35229.74
692.70	34876.32
692.84	35056.54
692.97	34646.95
693.11	34597.80
693.24	34031.39
693.38	34543.97
693.51	33848.83
693.65	34174.16
693.78	33830.10
693.92	34038.41
694.05	33816.06
694.19	32947.72
694.32	33207.52
694.45	32931.34
694.59	32966.45
694.72	32779.20
694.86	32423.44
694.99	32137.90
695.13	32182.37
695.26	32292.37
695.39	31847.67
695.53	32009.17
695.66	31882.78
695.80	31489.57
695.93	31283.60
696.07	31117.42
696.20	30822.51
696.33	30724.21
696.47	30974.65
696.60	30480.80
696.73	30511.22
696.87	30885.71
697.00	30274.83
697.14	30499.52
697.27	30178.87
697.40	30125.04
697.54	29837.15
697.67	29635.86
697.80	29467.34
697.94	29593.73
698.07	29331.59
698.21	28804.97
698.34	29017.96
698.47	28783.91
698.61	28514.75
698.74	28811.99
698.87	28629.43
699.01	28130.90
699.14	28219.84
699.27	28173.03
699.40	28299.42
699.54	28100.47
699.67	27957.70
699.80	27924.93
699.94	27498.95
700.07	27704.92
700.20	27264.90
700.34	27103.40
700.47	27173.62
700.60	26567.42
700.73	26419.97
700.87	26520.61
701.00	26118.04
701.13	25972.92
701.26	26448.05
701.40	26253.79
701.53	26302.94
701.66	26057.18
701.79	25750.57
701.93	25418.22
702.06	24819.04
702.19	25366.73
702.32	25188.85
702.46	24915.00
702.59	24584.99
702.72	24531.15
702.85	24898.62
702.99	24926.71
703.12	24428.17
703.25	24261.99
703.38	23704.95
703.51	23960.06
703.65	23690.90
703.78	23491.96
703.91	23023.85
704.04	23498.98
704.17	23896.87
704.31	23372.59
704.44	22890.44
704.57	23105.77
704.70	22511.27
704.83	22855.33
704.96	22331.05
705.10	22134.45
705.23	22679.79
>>>>>End Processed Spectral Data<<<<<
