SpectraSuite Data File
++++++++++++++++++++++++++++++++++++
Date: Fri Oct 25 11:34:30 EDT 2013
User: price-jones
Dark Spectrum Present: No
Reference Spectrum Present: No
Number of Sampled Component Spectra: 1
Spectrometers: USB2+H05261
Integration Time (usec): 100000 (USB2+H05261)
Spectra Averaged: 1 (USB2+H05261)
Boxcar Smoothing: 0 (USB2+H05261)
Correct for Electrical Dark: No (USB2+H05261)
Strobe/Lamp Enabled: No (USB2+H05261)
Correct for Detector Non-linearity: No (USB2+H05261)
Correct for Stray Light: No (USB2+H05261)
Number of Pixels in Processed Spectrum: 2048
>>>>>Begin Processed Spectral Data<<<<<
365.73	294.91
365.92	294.91
366.12	294.91
366.32	154.48
366.52	212.99
366.72	166.18
366.91	191.92
367.11	241.08
367.31	147.45
367.51	243.42
367.70	161.50
367.90	180.22
368.10	149.79
368.30	208.31
368.49	198.95
368.69	212.99
368.89	173.20
369.09	173.20
369.28	236.39
369.48	215.33
369.68	196.60
369.87	280.86
370.07	231.71
370.27	344.06
370.47	318.31
370.66	543.00
370.86	543.00
371.06	514.92
371.25	514.92
371.45	477.47
371.65	627.26
371.84	512.58
372.04	613.22
372.24	510.24
372.44	538.32
372.63	589.82
372.83	648.33
373.03	685.78
373.22	514.92
373.42	606.20
373.62	601.52
373.81	660.03
374.01	671.73
374.21	653.01
374.40	589.82
374.60	571.09
374.79	599.18
374.99	608.54
375.19	676.41
375.38	655.35
375.58	617.90
375.78	739.61
375.97	664.71
376.17	662.37
376.37	772.38
376.56	617.90
376.76	667.05
376.95	627.26
377.15	641.31
377.35	709.18
377.54	725.57
377.74	627.26
377.93	720.88
378.13	650.67
378.33	697.48
378.52	660.03
378.72	706.84
378.91	781.74
379.11	702.16
379.31	657.69
379.50	681.10
379.70	755.99
379.89	755.99
380.09	690.46
380.28	732.59
380.48	781.74
380.68	711.52
380.87	753.65
381.07	748.97
381.26	765.36
381.46	861.32
381.65	699.82
381.85	718.54
382.04	741.95
382.24	767.70
382.43	746.63
382.63	741.95
382.83	737.27
383.02	805.14
383.22	842.59
383.41	681.10
383.61	791.10
383.80	770.04
384.00	664.71
384.19	896.43
384.39	800.46
384.58	837.91
384.78	793.44
384.97	791.10
385.17	894.08
385.36	730.25
385.56	812.17
385.75	730.25
385.95	882.38
386.14	849.61
386.34	800.46
386.53	823.87
386.72	868.34
386.92	908.13
387.11	844.93
387.31	842.59
387.50	861.32
387.70	924.51
387.89	812.17
388.09	851.96
388.28	889.40
388.48	894.08
388.67	910.47
388.86	933.87
389.06	828.55
389.25	861.32
389.45	964.30
389.64	866.00
389.84	966.64
390.03	959.62
390.22	936.21
390.42	926.85
390.61	947.92
390.81	903.45
391.00	896.43
391.19	1011.11
391.39	954.94
391.58	1022.81
391.78	905.79
391.97	952.60
392.16	966.64
392.36	1022.81
392.55	1046.22
392.75	1027.50
392.94	1097.71
393.13	1025.15
393.33	1039.20
393.52	1022.81
393.71	1121.12
393.91	1123.46
394.10	1022.81
394.29	1086.01
394.49	994.73
394.68	1118.78
394.88	1076.65
395.07	1207.72
395.26	1170.27
395.46	1142.18
395.65	1156.22
395.84	1132.82
396.04	1104.73
396.23	1181.97
396.42	1160.91
396.62	1125.80
396.81	1156.22
397.00	1132.82
397.19	1118.78
397.39	1163.25
397.58	1170.27
397.77	1170.27
397.97	1282.61
398.16	1249.85
398.35	1210.06
398.55	1224.10
398.74	1174.95
398.93	1327.08
399.12	1224.10
399.32	1254.53
399.51	1310.70
399.70	1315.38
399.90	1331.76
400.09	1350.49
400.28	1327.08
400.47	1284.95
400.67	1469.86
400.86	1287.29
401.05	1261.55
401.24	1387.94
401.44	1441.77
401.63	1502.62
401.82	1495.60
402.01	1301.34
402.21	1472.20
402.40	1476.88
402.59	1369.21
402.78	1446.45
402.97	1371.55
403.17	1523.69
403.36	1502.62
403.55	1404.32
403.74	1558.80
403.93	1526.03
404.13	1483.90
404.32	1516.67
404.51	1481.56
404.70	1584.54
404.89	1542.41
405.09	1673.48
405.28	1605.61
405.47	1544.75
405.66	1549.43
405.85	1605.61
406.05	1689.87
406.24	1626.67
406.43	1654.76
406.62	1757.74
406.81	1776.47
407.00	1722.63
407.20	1645.40
407.39	1687.53
407.58	1727.32
407.77	1750.72
407.96	1717.95
408.15	1748.38
408.34	1849.02
408.54	1839.66
408.73	1764.76
408.92	1893.49
409.11	1963.71
409.30	1895.83
409.49	1837.32
409.68	2010.52
409.87	1820.94
410.07	1930.94
410.26	1989.46
410.45	2054.99
410.64	1989.46
410.83	2005.84
411.02	2022.22
411.21	2139.25
411.40	2066.69
411.59	2092.44
411.78	2139.25
411.98	2162.66
412.17	2153.29
412.36	2200.10
412.55	2165.00
412.74	2139.25
412.93	2209.47
413.12	2162.66
413.31	2431.82
413.50	2375.64
413.69	2272.66
413.88	2396.71
414.07	2401.39
414.26	2431.82
414.45	2380.32
414.64	2424.80
414.83	2422.45
415.02	2392.03
415.22	2562.89
415.41	2551.18
415.60	2506.71
415.79	2546.50
415.98	2546.50
416.17	2668.21
416.36	2665.87
416.55	2757.15
416.74	2656.51
416.93	2677.57
417.12	2719.70
417.31	2754.81
417.50	2745.45
417.69	2923.33
417.88	2761.83
418.07	2818.00
418.26	2839.07
418.45	2918.65
418.64	2939.71
418.83	2960.78
419.02	2916.31
419.21	2942.05
419.39	3075.46
419.58	2871.84
419.77	2862.48
419.96	3059.08
420.15	3075.46
420.34	3021.63
420.53	3084.83
420.72	3042.70
420.91	3080.14
421.10	3124.62
421.29	3122.27
421.48	3192.49
421.67	3117.59
421.86	3276.75
422.05	3171.43
422.24	3122.27
422.43	3269.73
422.61	3274.41
422.80	3293.13
422.99	3178.45
423.18	3300.16
423.37	3337.60
423.56	3211.22
423.75	3164.40
423.94	3173.77
424.13	3049.72
424.32	3112.91
424.50	3255.69
424.69	3412.50
424.88	3428.88
425.07	3330.58
425.26	3211.22
425.45	3272.07
425.64	3185.47
425.83	3330.58
426.01	3267.39
426.20	3290.79
426.39	3435.91
426.58	3309.52
426.77	3316.54
426.96	3433.57
427.15	3337.60
427.33	3494.42
427.52	3552.93
427.71	3410.16
427.90	3534.21
428.09	3559.95
428.28	3419.52
428.46	3468.67
428.65	3510.80
428.84	3625.49
429.03	3714.43
429.22	3583.36
429.40	3548.25
429.59	3571.66
429.78	3501.44
429.97	3426.54
430.16	3709.75
430.34	3733.15
430.53	3667.62
430.72	3810.39
430.91	3859.54
431.10	3674.64
431.28	3751.88
431.47	3925.08
431.66	3749.54
431.85	3934.44
432.03	3854.86
432.22	3911.04
432.41	3953.16
432.60	3978.91
432.79	3941.46
432.97	3784.65
433.16	3932.10
433.35	3957.85
433.54	4002.32
433.72	4053.81
433.91	3957.85
434.10	4161.47
434.28	4128.70
434.47	4086.58
434.66	4084.23
434.85	4145.09
435.03	4056.15
435.22	4051.47
435.41	4252.75
435.59	4313.61
435.78	4278.50
435.97	4430.63
436.16	4245.73
436.34	4355.74
436.53	4318.29
436.72	4514.89
436.90	4280.84
437.09	4554.68
437.28	4184.88
437.46	4315.95
437.65	4308.93
437.84	4416.59
438.02	4451.70
438.21	4423.61
438.40	4484.47
438.58	4512.55
438.77	4592.13
438.96	4491.49
439.14	4706.82
439.33	4664.69
439.52	4585.11
439.70	4669.37
439.89	4915.12
440.08	4854.27
440.26	4856.61
440.45	4840.23
440.63	5118.75
440.82	4868.31
441.01	4936.19
441.19	4971.30
441.38	4954.91
441.57	5118.75
441.75	4954.91
441.94	5125.77
442.12	5064.92
442.31	5212.37
442.50	5296.63
442.68	5174.92
442.87	5221.74
443.05	5373.87
443.24	5310.68
443.43	5177.26
443.61	5277.91
443.80	5500.26
443.98	5165.56
444.17	5261.52
444.35	5364.51
444.54	5341.10
444.73	5317.70
444.91	5465.15
445.10	5598.56
445.28	5486.22
445.47	5376.21
445.65	5315.36
445.84	5423.02
446.02	5434.72
446.21	5462.81
446.39	5500.26
446.58	5659.42
446.77	5430.04
446.95	5383.23
447.14	5584.52
447.32	5628.99
447.51	5348.12
447.69	5352.81
447.88	5628.99
448.06	5645.37
448.25	5521.32
448.43	5551.75
448.62	5692.18
448.80	5645.37
448.99	5645.37
449.17	5757.72
449.36	5603.24
449.54	5664.10
449.73	5717.93
449.91	5755.38
450.10	5769.42
450.28	6015.18
450.46	5881.77
450.65	5816.23
450.83	5827.93
451.02	5916.87
451.20	5912.19
451.39	5935.60
451.57	5811.55
451.76	5902.83
451.94	5900.49
452.13	6052.63
452.31	5991.77
452.49	5804.53
452.68	6008.16
452.86	5916.87
453.05	6090.07
453.23	6008.16
453.42	6040.92
453.60	5874.74
453.78	6216.46
453.97	5982.41
454.15	6057.31
454.34	6141.57
454.52	6420.09
454.70	6314.77
454.89	6354.55
455.07	6326.47
455.26	6420.09
455.44	6408.39
455.62	6368.60
455.81	6328.81
455.99	6516.05
456.17	6565.20
456.36	6499.67
456.54	6731.38
456.73	6686.91
456.91	6684.57
457.09	6675.21
457.28	6766.49
457.46	6654.14
457.64	6743.08
457.83	6761.81
458.01	6602.65
458.19	6724.36
458.38	6871.81
458.56	6855.43
458.74	6944.37
458.93	6825.00
459.11	6965.43
459.29	6895.22
459.48	6956.07
459.66	7138.63
459.84	7075.44
460.03	7204.17
460.21	7110.55
460.39	7185.44
460.57	7110.55
460.76	7265.02
460.94	7250.98
461.12	7164.38
461.31	7187.79
461.49	7126.93
461.67	6979.48
461.85	7321.20
462.04	7463.97
462.22	7665.25
462.40	7499.08
462.59	7365.67
462.77	7433.54
462.95	7431.20
463.13	7353.96
463.32	7410.14
463.50	7412.48
463.68	7501.42
463.86	7721.43
464.05	7524.82
464.23	7559.93
464.41	7522.48
464.59	7531.84
464.78	7744.83
464.96	7620.78
465.14	7351.62
465.32	7676.96
465.50	7770.58
465.69	7953.14
465.87	7875.90
466.05	7861.86
466.23	7894.63
466.41	7911.01
466.60	7981.23
466.78	7691.00
466.96	7742.49
467.14	7882.92
467.32	7812.71
467.51	8105.28
467.69	7955.48
467.87	8016.33
468.05	7826.75
468.23	7981.23
468.41	7932.08
468.60	8142.72
468.78	8212.94
468.96	8126.34
469.14	8234.00
469.32	8322.94
469.50	8105.28
469.69	8257.41
469.87	8344.01
470.05	8362.73
470.23	8332.31
470.41	8301.88
470.59	8531.25
470.77	8248.05
470.95	8442.31
471.14	8716.16
471.32	8348.69
471.50	8594.45
471.68	8564.02
471.86	8542.96
472.04	8966.59
472.22	8912.76
472.40	8718.50
472.58	8769.99
472.77	9071.92
472.95	9067.24
473.13	9263.84
473.31	9064.89
473.49	9029.79
473.67	8812.12
473.85	9167.88
474.03	9320.01
474.21	9235.75
474.39	9455.76
474.57	9240.44
474.75	9467.47
474.93	9563.43
475.12	9643.01
475.30	9528.32
475.48	9657.05
475.66	9680.46
475.84	9551.73
476.02	9743.65
476.20	9853.66
476.38	9963.66
476.56	10097.07
476.74	9982.38
476.92	9809.19
477.10	10120.48
477.28	10270.27
477.46	10143.88
477.64	10307.72
477.82	10431.77
478.00	10766.46
478.18	10597.95
478.36	10349.85
478.54	10930.30
478.72	11105.84
478.90	10977.11
479.08	11082.44
479.26	11176.06
479.44	11227.55
479.62	11190.10
479.80	11403.09
479.98	11459.26
480.16	11800.98
480.34	11599.70
480.52	11815.02
480.70	11707.36
480.88	11756.51
481.06	11946.09
481.24	12049.08
481.41	12187.17
481.59	12077.16
481.77	12145.04
481.95	12112.27
482.13	12470.37
482.31	12306.54
482.49	12774.64
482.67	12769.96
482.85	12858.90
483.03	12755.92
483.21	13001.68
483.39	12989.97
483.57	13048.49
483.74	13509.57
483.92	13266.16
484.10	13493.19
484.28	13607.87
484.46	13720.22
484.64	13991.72
484.82	13743.63
485.00	14120.45
485.18	14197.69
485.35	14398.98
485.53	14244.50
485.71	14523.02
485.89	14497.28
486.07	14717.29
486.25	14743.03
486.43	14881.13
486.61	15056.67
486.78	15056.67
486.96	15286.04
487.14	15281.36
487.32	15199.44
487.50	15281.36
487.68	15667.55
487.85	15871.17
488.03	16095.86
488.21	16081.82
488.39	16315.87
488.57	16294.81
488.75	16617.80
488.92	16521.84
489.10	16608.44
489.28	16652.91
489.46	16978.25
489.64	16851.86
489.81	17305.92
489.99	17336.35
490.17	17317.62
490.35	17408.90
490.53	17418.27
490.70	17834.88
490.88	17811.48
491.06	17963.61
491.24	18150.85
491.41	18293.63
491.59	18122.77
491.77	18129.79
491.95	18340.44
492.13	18562.79
492.30	18972.38
492.48	18600.24
492.66	18876.42
492.84	18944.30
493.01	19248.57
493.19	19358.57
493.37	19555.18
493.54	19386.66
493.72	19920.30
493.90	19807.95
494.08	19878.17
494.25	20006.90
494.43	20205.84
494.61	20198.82
494.79	20105.20
494.96	20210.53
495.14	20322.87
495.32	20606.08
495.49	20594.37
495.67	20531.18
495.85	20877.58
496.02	21064.82
496.20	21451.01
496.38	21228.66
496.55	21656.98
496.73	21832.52
496.91	21568.04
497.09	21928.48
497.26	21935.50
497.44	22024.44
497.62	22181.26
497.79	22508.93
497.97	22197.64
498.14	22656.39
498.32	22932.57
498.50	23112.79
498.67	22726.60
498.85	22719.58
499.03	22838.95
499.20	23026.19
499.38	22937.25
499.56	23103.43
499.73	23239.18
499.91	23367.91
500.08	23777.50
500.26	23410.04
500.44	23688.56
500.61	23693.24
500.79	23651.11
500.97	24137.94
501.14	24041.98
501.32	24004.53
501.49	24182.42
501.67	24039.64
501.84	24105.18
502.02	24383.70
502.20	24507.75
502.37	24687.97
502.55	24673.93
502.72	24762.87
502.90	24842.45
503.07	24364.98
503.25	24781.59
503.43	24931.39
503.60	25064.80
503.78	25219.27
503.95	25076.50
504.13	25603.12
504.30	25549.29
504.48	25647.59
504.65	25621.84
504.83	25989.31
505.01	25998.67
505.18	25579.71
505.36	26108.68
505.53	25954.20
505.71	26125.06
505.88	26267.83
506.06	26015.05
506.23	26246.77
506.41	26120.38
506.58	26551.04
506.76	26618.91
506.93	26656.36
507.11	26752.32
507.28	26604.87
507.46	27016.80
507.63	27112.77
507.81	27143.19
507.98	27143.19
508.16	27197.02
508.33	27447.46
508.50	27201.71
508.68	27576.19
508.85	27709.60
509.03	27426.40
509.20	27456.82
509.38	27838.33
509.55	27938.97
509.73	28226.86
509.90	28496.02
510.08	28203.46
510.25	28116.86
510.42	28259.63
510.60	28369.63
510.77	28500.70
510.95	29134.99
511.12	28503.04
511.30	28610.71
511.47	29020.30
511.64	28936.04
511.82	28797.95
511.99	28987.53
512.17	29191.16
512.34	28907.96
512.51	29092.86
512.69	29469.69
512.86	29436.92
513.04	29493.09
513.21	29626.50
513.38	29443.94
513.56	29727.14
513.73	29640.54
513.90	29598.41
514.08	29858.21
514.25	30169.51
514.43	30036.09
514.60	29776.30
514.77	30359.09
514.95	30778.04
515.12	30277.17
515.29	30146.10
515.47	30345.05
515.64	30738.26
515.81	30288.87
515.99	30593.14
516.16	30902.09
516.33	30705.49
516.51	30869.33
516.68	31117.42
516.85	31054.23
517.03	31129.12
517.20	31246.15
517.37	31147.85
517.54	31377.22
517.72	31630.00
517.89	31110.40
518.06	31154.87
518.24	31379.56
518.41	31615.96
518.58	31765.75
518.75	31658.09
518.93	31999.80
519.10	31665.11
519.27	32070.02
519.45	32060.66
519.62	32147.26
519.79	31974.06
519.96	31910.86
520.14	32259.60
520.31	32348.54
520.48	32528.77
520.65	32496.00
520.83	32374.29
521.00	32561.53
521.17	32919.63
521.34	32957.08
521.52	32872.82
521.69	33193.48
521.86	33266.03
522.03	33369.02
522.20	33338.59
522.38	33418.17
522.55	33535.20
522.72	33462.64
522.89	33420.51
523.07	34040.75
523.24	33624.14
523.41	33724.78
523.58	33584.35
523.75	34066.50
523.92	33663.93
524.10	34054.79
524.27	34061.82
524.44	33998.62
524.61	34155.44
524.78	33874.57
524.96	34356.72
525.13	34642.27
525.30	34607.16
525.47	34705.46
525.64	34125.01
525.81	35166.55
525.98	34740.57
526.16	34548.65
526.33	34569.71
526.50	34888.03
526.67	35292.94
526.84	34916.11
527.01	34845.90
527.18	34668.02
527.36	34983.99
527.53	34869.30
527.70	35592.53
527.87	35770.41
528.04	35136.12
528.21	35370.18
528.38	35428.69
528.55	35772.75
528.72	35868.71
528.89	36060.63
529.07	35438.05
529.24	35601.89
529.41	35819.56
529.58	35786.79
529.75	35697.85
529.92	35791.47
530.09	35999.78
530.26	35639.34
530.43	36077.02
530.60	36109.78
530.77	35931.90
530.94	36301.71
531.11	35957.65
531.28	36400.01
531.46	36624.70
531.63	36573.21
531.80	36203.41
531.97	36561.51
532.14	36320.43
532.31	36659.81
532.48	36996.85
532.65	36900.89
532.82	36952.38
532.99	37043.66
533.16	36622.36
533.33	36851.73
533.50	36966.42
533.67	37361.97
533.84	36849.39
534.01	36875.14
534.18	36730.03
534.35	37303.46
534.52	37078.77
534.69	37577.30
534.86	37301.12
535.03	37266.01
535.20	37502.40
535.37	37743.48
535.54	37982.21
535.71	37429.85
535.88	38094.56
536.05	37464.96
536.22	38232.65
536.38	37668.58
536.55	37715.39
536.72	37825.40
536.89	37867.53
537.06	37886.25
537.23	38279.46
537.40	38382.45
537.57	37689.65
537.74	37755.18
537.91	38459.68
538.08	38391.81
538.25	38419.89
538.42	38431.60
538.59	38426.92
538.75	38223.29
538.92	38677.35
539.09	38693.74
539.26	38972.26
539.43	38305.21
539.60	38733.53
539.77	38892.68
539.94	38766.29
540.11	39023.75
540.28	39117.37
540.44	38895.02
540.61	38967.58
540.78	39023.75
540.95	38733.53
541.12	39260.15
541.29	38944.17
541.46	39260.15
541.62	39112.69
541.79	38953.54
541.96	39093.97
542.13	39140.78
542.30	39344.41
542.47	39257.81
542.63	39477.82
542.80	39494.20
542.97	39693.15
543.14	39995.07
543.31	39803.15
543.48	39856.98
543.64	40282.96
543.81	40247.85
543.98	40025.50
544.15	40030.18
544.32	40549.78
544.48	40048.91
544.65	39887.41
544.82	40505.31
544.99	40343.81
545.16	40069.97
545.32	40533.40
545.49	40720.64
545.66	41057.68
545.83	41205.13
546.00	40725.32
546.16	40460.84
546.33	40395.31
546.50	40367.22
546.67	40900.86
546.83	40437.44
547.00	40428.07
547.17	41003.85
547.34	40414.03
547.50	41200.45
547.67	41324.50
547.84	41125.55
548.00	41031.93
548.17	41450.89
548.34	41383.01
548.51	41184.07
548.67	41450.89
548.84	41102.15
549.01	41523.44
549.18	41537.49
549.34	41429.82
549.51	41949.42
549.68	41748.14
549.84	41352.58
550.01	41703.67
550.18	41799.63
550.34	41450.89
550.51	42366.04
550.68	41979.85
550.84	41401.74
551.01	42045.38
551.18	41727.07
551.34	41275.35
551.51	41830.05
551.68	41696.64
551.84	41874.52
552.01	41612.38
552.18	41825.37
552.34	42143.69
552.51	42190.50
552.68	41874.52
552.84	42403.49
553.01	41834.74
553.18	42445.62
553.34	42396.46
553.51	42227.95
553.67	41998.57
553.84	42300.50
554.01	42326.25
554.17	42293.48
554.34	42635.20
554.51	42344.97
554.67	43082.24
554.84	42735.84
555.00	42714.78
555.17	42628.18
555.33	42660.94
555.50	42904.36
555.67	42890.32
555.83	42581.37
556.00	43000.32
556.16	43400.55
556.33	43299.91
556.50	43124.37
556.66	42679.67
556.83	42792.01
556.99	43079.90
557.16	42995.64
557.32	43124.37
557.49	43379.49
557.65	43002.66
557.82	43103.31
557.98	43388.85
558.15	43388.85
558.32	43019.05
558.48	43285.87
558.65	43433.32
558.81	43253.10
558.98	43227.35
559.14	42990.96
559.31	43456.73
559.47	43402.89
559.64	43622.90
559.80	43482.47
559.97	43826.53
560.13	43206.29
560.30	43515.24
560.46	43817.17
560.63	43604.18
560.79	43522.26
560.96	43529.28
561.12	43702.48
561.29	43868.66
561.45	43798.44
561.61	43786.74
561.78	43810.15
561.94	43592.48
562.11	43569.07
562.27	43910.79
562.44	43791.42
562.60	44006.75
562.77	44020.80
562.93	43803.13
563.10	43992.71
563.26	43882.70
563.42	44105.06
563.59	43924.83
563.75	44055.90
563.92	43803.13
564.08	43917.81
564.24	44093.35
564.41	43929.51
564.57	44123.78
564.74	44376.56
564.90	43896.75
565.07	43835.89
565.23	44189.31
565.39	44184.63
565.56	44198.68
565.72	44203.36
565.88	44072.29
566.05	44224.42
566.21	44362.51
566.38	44355.49
566.54	44198.68
566.70	44273.57
566.87	44371.88
567.03	44128.46
567.19	44231.44
567.36	44168.25
567.52	44135.48
567.68	44687.85
567.85	44186.97
568.01	44484.22
568.17	44453.79
568.34	44329.75
568.50	44811.90
568.66	44287.62
568.83	44493.58
568.99	44364.85
569.15	44250.17
569.32	44357.83
569.48	44451.45
569.64	44631.68
569.81	44514.65
569.97	44435.07
570.13	44505.29
570.30	44268.89
570.46	44570.82
570.62	44795.51
570.78	44811.90
570.95	44275.91
571.11	45230.85
571.27	44737.00
571.43	44804.88
571.60	44512.31
571.76	44055.90
571.92	44601.25
572.09	44325.07
572.25	44818.92
572.41	45050.63
572.57	44978.07
572.74	45116.17
572.90	44701.89
573.06	44996.80
573.22	45191.06
573.38	44868.07
573.55	45345.54
573.71	45256.60
573.87	44753.38
574.03	44957.01
574.20	44512.31
574.36	44912.54
574.52	45006.16
574.68	45034.25
574.84	45305.75
575.01	44804.88
575.17	45364.26
575.33	45235.53
575.49	45017.86
575.65	45006.16
575.82	45263.62
575.98	44699.55
576.14	45406.39
576.30	45366.60
576.46	45193.40
576.62	45155.96
576.79	44793.17
576.95	44577.84
577.11	45038.93
577.27	45015.52
577.43	45022.54
577.59	44694.87
577.75	44769.77
577.92	44992.12
578.08	44928.92
578.24	45003.82
578.40	45436.82
578.56	45212.13
578.72	44896.16
578.88	45088.08
579.04	44884.45
579.21	45256.60
579.37	44996.80
579.53	45268.30
579.69	44788.49
579.85	45109.14
580.01	44914.88
580.17	45099.78
580.33	45514.06
580.49	45268.30
580.65	44952.33
580.82	44870.41
580.98	44851.69
581.14	45029.57
581.30	45338.52
581.46	45127.87
581.62	45001.48
581.78	44809.56
581.94	45563.21
582.10	45015.52
582.26	45357.24
582.42	45162.98
582.58	45392.35
582.74	45141.91
582.90	45172.34
583.06	45570.23
583.22	45170.00
583.38	45261.28
583.54	45228.51
583.70	45338.52
583.86	45282.34
584.02	45345.54
584.18	45794.92
584.34	45343.20
584.50	45427.46
584.66	45516.40
584.82	45656.83
584.98	45867.48
585.14	45628.74
585.30	44865.73
585.46	45488.31
585.62	45090.42
585.78	45226.17
585.94	45202.77
586.10	45420.44
586.26	45354.90
586.42	45324.47
586.58	45766.84
586.74	45240.21
586.90	45141.91
587.06	45514.06
587.22	45418.10
587.38	45179.36
587.54	45455.54
587.70	45790.24
587.86	45516.40
588.02	45127.87
588.18	45633.42
588.34	45492.99
588.49	46000.89
588.65	45177.02
588.81	45483.63
588.97	45855.78
589.13	45134.89
589.29	45394.69
589.45	45659.17
589.61	45598.32
589.77	45411.07
589.93	45759.81
590.08	45434.48
590.24	46087.49
590.40	45963.44
590.56	46017.27
590.72	45951.74
590.88	45787.90
591.04	45670.87
591.20	45710.66
591.35	45588.95
591.51	46333.24
591.67	45778.54
591.83	46066.42
591.99	45879.18
592.15	45727.05
592.31	45462.57
592.46	45741.09
592.62	45900.25
592.78	45911.95
592.94	46059.40
593.10	45911.95
593.26	45752.79
593.41	46300.48
593.57	45860.46
593.73	46110.89
593.89	46169.41
594.05	46033.66
594.20	45979.82
594.36	46312.18
594.52	46300.48
594.68	45804.28
594.84	46021.95
594.99	46412.82
595.15	46188.13
595.31	45979.82
595.47	46040.68
595.62	46234.94
595.78	45745.77
595.94	46059.40
596.10	46342.61
596.25	46305.16
596.41	46328.56
596.57	45500.01
596.73	46267.71
596.88	46096.85
597.04	46270.05
597.20	46579.00
597.36	46066.42
597.51	46146.00
597.67	46080.47
597.83	46068.76
597.99	46543.89
598.14	46127.28
598.30	45925.99
598.46	45813.65
598.61	46358.99
598.77	46328.56
598.93	46218.56
599.09	46253.67
599.24	46375.37
599.40	45895.56
599.56	46333.24
599.71	46316.86
599.87	46658.58
600.03	46784.97
600.18	46417.50
600.34	46555.60
600.50	46609.43
600.65	46230.26
600.81	46494.74
600.97	46382.40
601.12	46724.11
601.28	46483.04
601.44	46412.82
601.59	46295.80
601.75	46169.41
601.91	46518.15
602.06	46663.26
602.22	46506.44
602.37	46635.17
602.53	46382.40
602.69	46218.56
602.84	46375.37
603.00	46405.80
603.16	46277.07
603.31	46202.18
603.47	46490.06
603.62	46471.34
603.78	46370.69
603.94	46237.28
604.09	46382.40
604.25	46459.63
604.40	46375.37
604.56	46270.05
604.71	46553.26
604.87	46260.69
605.03	46124.94
605.18	46529.85
605.34	46024.29
605.49	46209.20
605.65	45972.80
605.80	46234.94
605.96	46211.54
606.12	46256.01
606.27	46323.88
606.43	46216.22
606.58	46642.20
606.74	46185.79
606.89	46373.03
607.05	46579.00
607.20	46389.42
607.36	46019.61
607.51	46092.17
607.67	45928.33
607.82	46211.54
607.98	46024.29
608.13	46089.83
608.29	46059.40
608.44	46295.80
608.60	45612.36
608.75	46335.59
608.91	46232.60
609.06	45689.60
609.22	45975.14
609.37	45448.52
609.53	46033.66
609.68	46167.07
609.84	45930.67
609.99	45893.22
610.15	46279.41
610.30	45766.84
610.46	45727.05
610.61	46014.93
610.76	45797.26
610.92	45668.53
611.07	45909.61
611.23	45670.87
611.38	46120.26
611.54	45914.29
611.69	45916.63
611.84	46176.43
612.00	45956.42
612.15	45661.51
612.31	45633.42
612.46	45708.32
612.62	45574.91
612.77	45427.46
612.92	46113.23
613.08	45879.18
613.23	45626.40
613.39	45656.83
613.54	45485.97
613.69	45787.90
613.85	45411.07
614.00	45820.67
614.15	45572.57
614.31	45577.25
614.46	45359.58
614.62	45251.92
614.77	45940.04
614.92	45687.26
615.08	45579.59
615.23	45902.59
615.38	45591.30
615.54	45507.04
615.69	45900.25
615.84	45556.19
616.00	45696.62
616.15	45521.08
616.30	45441.50
616.46	45359.58
616.61	45340.86
616.76	45675.55
616.92	45394.69
617.07	45418.10
617.22	45340.86
617.37	45345.54
617.53	45186.38
617.68	45258.94
617.83	45380.65
617.99	45591.30
618.14	45743.43
618.29	45111.49
618.45	44914.88
618.60	44687.85
618.75	44973.39
618.90	44809.56
619.06	45151.27
619.21	44823.60
619.36	45200.43
619.51	45090.42
619.67	44884.45
619.82	44818.92
619.97	45097.44
620.12	44811.90
620.28	44790.83
620.43	45172.34
620.58	44954.67
620.73	45092.76
620.89	45162.98
621.04	45139.57
621.19	45127.87
621.34	44858.71
621.49	44655.08
621.65	44624.65
621.80	45059.99
621.95	44507.63
622.10	44837.64
622.25	44825.94
622.41	44446.77
622.56	44622.31
622.71	44811.90
622.86	44542.74
623.01	44788.49
623.16	44786.15
623.32	44201.02
623.47	44645.72
623.62	44624.65
623.77	44788.49
623.92	44692.53
624.07	44442.09
624.23	44612.95
624.38	44582.52
624.53	44608.27
624.68	44254.85
624.83	44044.20
624.98	44098.03
625.13	44098.03
625.29	44264.21
625.44	44465.50
625.59	43995.05
625.74	43913.13
625.89	44149.53
626.04	43892.07
626.19	44086.33
626.34	43761.00
626.49	43632.27
626.65	44093.35
626.80	44229.10
626.95	43599.50
627.10	43655.67
627.25	43833.55
627.40	44123.78
627.55	43636.95
627.70	43880.36
627.85	44044.20
628.00	44107.40
628.15	43798.44
628.30	43454.39
628.45	43419.28
628.60	43435.66
628.76	43447.36
628.91	43716.53
629.06	43683.76
629.21	43669.72
629.36	43126.71
629.51	43498.86
629.66	43889.73
629.81	43529.28
629.96	43253.10
630.11	43236.72
630.26	42948.83
630.41	43522.26
630.56	43302.25
630.71	43309.27
630.86	43643.97
631.01	42878.61
631.16	43065.86
631.31	43131.39
631.46	43110.33
631.61	43643.97
631.76	43278.85
631.91	43271.82
632.06	43709.50
632.21	43578.43
632.36	43407.58
632.51	42801.38
632.66	43271.82
632.81	42920.74
632.96	42981.60
633.10	43143.09
633.25	43660.35
633.40	43051.81
633.55	42740.52
633.70	42913.72
633.85	42726.48
634.00	42532.22
634.15	42550.94
634.30	43213.31
634.45	42429.23
634.60	42497.11
634.75	42932.45
634.90	42504.13
635.05	42843.51
635.19	42796.70
635.34	42944.15
635.49	42373.06
635.64	42934.79
635.79	43089.26
635.94	42288.80
636.09	42707.76
636.24	42773.29
636.39	42707.76
636.53	42298.16
636.68	42213.90
636.83	42169.43
636.98	42291.14
637.13	41790.27
637.28	42082.83
637.43	42174.11
637.57	42141.35
637.72	41982.19
637.87	42216.24
638.02	42174.11
638.17	42230.29
638.32	42082.83
638.46	41596.00
638.61	41940.06
638.76	41811.33
638.91	42007.94
639.06	41610.04
639.20	41867.50
639.35	41811.33
639.50	42064.11
639.65	41691.96
639.80	41830.05
639.94	41778.56
640.09	42368.38
640.24	41970.49
640.39	41635.79
640.54	41553.87
640.68	41544.51
640.83	41926.02
640.98	41750.48
641.13	41151.30
641.27	42003.25
641.42	41759.84
641.57	41633.45
641.72	41722.39
641.86	41661.54
642.01	41064.70
642.16	41144.28
642.31	41212.15
642.45	41598.34
642.60	40924.27
642.75	41270.67
642.90	41717.71
643.04	40950.01
643.19	41226.20
643.34	41109.17
643.48	40891.50
643.63	41008.53
643.78	41120.87
643.93	41296.41
644.07	41612.38
644.22	40933.63
644.37	41322.16
644.51	41198.11
644.66	41045.97
644.81	40917.25
644.95	40893.84
645.10	40886.82
645.25	40472.54
645.39	40409.35
645.54	40793.20
645.69	40477.22
645.83	40238.49
645.98	40561.48
646.13	40334.45
646.27	40699.58
646.42	40154.23
646.57	40858.73
646.71	41045.97
646.86	40739.36
647.00	40435.10
647.15	40940.65
647.30	40430.41
647.44	40416.37
647.59	40128.48
647.74	40755.75
647.88	40287.64
648.03	40676.17
648.17	40830.65
648.32	40886.82
648.47	40758.09
648.61	40444.46
648.76	40329.77
648.90	40140.19
649.05	40350.84
649.20	40304.02
649.34	40327.43
649.49	40334.45
649.63	40732.34
649.78	40362.54
649.92	40690.21
650.07	40367.22
650.21	40423.39
650.36	40748.73
650.51	40034.86
650.65	40194.02
650.80	40781.49
650.94	40589.57
651.09	40273.60
651.23	39871.03
651.38	39543.35
651.52	39622.93
651.67	39709.53
651.81	40301.68
651.96	39824.22
652.10	39896.77
652.25	39821.87
652.39	39934.22
652.54	39985.71
652.68	39468.45
652.83	39700.17
652.97	40140.19
653.12	39461.43
653.26	40055.93
653.41	39601.86
653.55	39372.49
653.70	39704.85
653.84	39807.83
653.99	39468.45
654.13	40058.27
654.27	39529.31
654.42	39634.63
654.56	39108.01
654.71	39548.03
654.85	39632.29
655.00	39531.65
655.14	39276.53
655.29	39393.56
655.43	39571.44
655.57	39119.71
655.72	39218.02
655.86	39168.87
656.01	38768.63
656.15	39131.42
656.30	39037.80
656.44	39133.76
656.58	39140.78
656.73	39189.93
656.87	38824.81
657.01	39138.44
657.16	39210.99
657.30	39180.57
657.45	39232.06
657.59	38904.38
657.73	38579.05
657.88	39044.82
658.02	39236.74
658.16	39021.41
658.31	39005.03
658.45	38660.97
658.60	38667.99
658.74	38871.62
658.88	38548.62
659.03	38450.32
659.17	38314.57
659.31	38242.01
659.46	38611.82
659.60	38352.02
659.74	38412.87
659.89	38349.68
660.03	38106.26
660.17	38286.48
660.32	38469.04
660.46	38307.55
660.60	37605.39
660.74	38024.34
660.89	38087.54
661.03	37507.08
661.17	38040.73
661.32	37556.24
661.46	38319.25
661.60	38017.32
661.74	37642.84
661.89	37792.63
662.03	37862.85
662.17	37432.19
662.31	37301.12
662.46	37586.66
662.60	37504.74
662.74	36966.42
662.88	37184.09
663.03	36954.72
663.17	36891.52
663.31	36697.26
663.45	37127.92
663.60	37291.76
663.74	37371.33
663.88	37296.44
664.02	36648.11
664.17	37198.13
664.31	37127.92
664.45	36907.91
664.59	36388.31
664.73	36816.63
664.88	36704.28
665.02	36336.82
665.16	36477.25
665.30	36659.81
665.44	36339.16
665.59	36077.02
665.73	36093.40
665.87	35601.89
666.01	36308.73
666.15	36348.52
666.29	36449.16
666.44	36495.97
666.58	35728.28
666.72	35672.10
666.86	35791.47
667.00	35948.29
667.14	35789.13
667.28	35917.86
667.43	35824.24
667.57	36128.51
667.71	35828.92
667.85	35833.60
667.99	35718.92
668.13	34927.81
668.27	35065.91
668.41	35229.74
668.56	34873.98
668.70	35154.85
668.84	34747.59
668.98	34897.39
669.12	34958.24
669.26	34787.38
669.40	34843.56
669.54	34665.67
669.68	35101.01
669.82	34506.52
669.96	34319.28
670.10	34415.24
670.25	34448.00
670.39	34167.14
670.53	34415.24
670.67	34356.72
670.81	34361.40
670.95	34169.48
671.09	34197.57
671.23	34092.24
671.37	34284.17
671.51	34132.03
671.65	33439.23
671.79	33617.11
671.93	34218.63
672.07	33893.30
672.21	33649.88
672.35	33160.71
672.49	33488.38
672.63	33605.41
672.77	33184.12
672.91	33579.67
673.05	33060.07
673.19	33015.60
673.33	32685.58
673.47	32870.48
673.61	32828.35
673.75	32519.40
673.89	32570.90
674.03	32205.77
674.17	32339.18
674.31	32280.67
674.45	32210.45
674.59	32154.28
674.73	32205.77
674.87	31695.53
675.01	32041.93
675.15	31819.58
675.29	31740.00
675.43	31901.50
675.56	31882.78
675.70	32180.03
675.84	31660.43
675.98	30871.67
676.12	31393.61
676.26	31447.44
676.40	31131.47
676.54	31222.75
676.68	31346.79
676.82	30911.46
676.96	31154.87
677.10	30815.49
677.23	30724.21
677.37	30892.73
677.51	30663.36
677.65	30536.97
677.79	30553.35
677.93	30307.60
678.07	30433.99
678.21	30251.42
678.34	30230.36
678.48	29879.28
678.62	29759.91
678.76	29769.27
678.90	29792.68
679.04	29542.24
679.18	29638.20
679.31	29532.88
679.45	29511.81
679.59	28739.44
679.73	29046.05
679.87	28793.27
680.00	29120.95
680.14	28575.60
680.28	28732.42
680.42	28706.67
680.56	28662.20
680.70	28376.66
680.83	28620.07
680.97	28547.51
681.11	28397.72
681.25	27871.10
681.39	27866.42
681.52	28086.43
681.66	27618.32
681.80	27356.18
681.94	27185.32
682.07	27358.52
682.21	27325.75
682.35	27117.45
682.49	27468.53
682.62	27344.48
682.76	27517.68
682.90	26991.06
683.04	27136.17
683.17	26651.68
683.31	26478.48
683.45	26401.24
683.59	26319.32
683.72	26314.64
683.86	26412.95
684.00	26295.92
684.13	26066.55
684.27	26155.49
684.41	26005.69
684.55	26085.27
684.68	25640.57
684.82	25706.10
684.96	25340.98
685.09	25565.67
685.23	25352.68
685.37	25502.48
685.50	25678.02
685.64	25474.39
685.78	25010.96
685.91	24790.95
686.05	24451.58
686.19	24482.00
686.32	24388.38
686.46	24367.32
686.60	24119.22
686.73	24259.65
686.87	24201.14
687.01	24290.08
687.14	24379.02
687.28	24156.67
687.42	23740.05
687.55	23667.50
687.69	23803.25
687.82	23578.56
687.96	23665.16
688.10	23616.01
688.23	23676.86
688.37	24049.00
688.50	23805.59
688.64	23386.63
688.78	23278.97
688.91	23339.82
689.05	23274.29
689.18	22843.63
689.32	22504.25
689.46	22401.27
689.59	22738.30
689.73	22869.37
689.86	22735.96
690.00	22375.52
690.13	22848.31
690.27	22075.93
690.41	22288.92
690.54	21963.59
690.68	22057.21
690.81	21986.99
690.95	21467.39
691.08	21488.46
691.22	21568.04
691.35	21296.53
691.49	21392.50
691.62	21291.85
691.76	20924.39
691.89	20945.45
692.03	20554.58
692.16	20945.45
692.30	20830.77
692.43	20634.16
692.57	20779.28
692.70	20493.73
692.84	20652.89
692.97	20545.22
693.11	20360.32
693.24	20180.10
693.38	19702.63
693.51	19838.38
693.65	19829.02
693.78	19765.82
693.92	19807.95
694.05	19660.50
694.19	19719.01
694.32	19314.10
694.45	19770.51
694.59	19857.10
694.72	19463.90
694.86	19410.06
694.99	19185.37
695.13	19241.54
695.26	18771.10
695.39	18801.52
695.53	18356.82
695.66	18946.64
695.80	18478.53
695.93	18539.38
696.07	18445.76
696.20	18141.49
696.33	17923.82
696.47	17813.82
696.60	17935.53
696.73	17827.86
696.87	17830.20
697.00	17778.71
697.14	17682.75
697.27	17668.70
697.40	17706.15
697.54	17661.68
697.67	17362.09
697.80	17263.79
697.94	17252.09
698.07	17198.26
698.21	17319.96
698.34	17006.33
698.47	17006.33
698.61	16711.42
698.74	16629.51
698.87	16683.34
699.01	16451.63
699.14	16510.14
699.27	16355.66
699.40	16030.33
699.54	16393.11
699.67	16252.68
699.80	16428.22
699.94	16257.36
700.07	16135.65
700.20	15967.13
700.34	16006.92
700.47	16070.12
700.60	15782.23
700.73	15840.75
700.87	15510.73
701.00	15330.51
701.13	15517.75
701.26	15316.47
701.40	15154.97
701.53	15267.31
701.66	15166.67
701.79	15059.01
701.93	14977.09
702.06	14738.35
702.19	15023.90
702.32	14906.87
702.46	14939.64
702.59	14836.66
702.72	14534.73
702.85	14668.14
702.99	14679.84
703.12	14413.02
703.25	14389.61
703.38	14237.48
703.51	13940.23
703.65	14090.02
703.78	14029.17
703.91	13839.59
704.04	13781.07
704.17	13811.50
704.31	13596.17
704.44	13729.58
704.57	13823.20
704.70	13324.67
704.83	13369.14
704.96	13327.01
705.10	13256.79
705.23	13378.50
>>>>>End Processed Spectral Data<<<<<
