SpectraSuite Data File
++++++++++++++++++++++++++++++++++++
Date: Fri Oct 25 11:23:04 EDT 2013
User: price-jones
Dark Spectrum Present: No
Reference Spectrum Present: No
Number of Sampled Component Spectra: 1
Spectrometers: USB2+H05261
Integration Time (usec): 100000 (USB2+H05261)
Spectra Averaged: 1 (USB2+H05261)
Boxcar Smoothing: 0 (USB2+H05261)
Correct for Electrical Dark: No (USB2+H05261)
Strobe/Lamp Enabled: No (USB2+H05261)
Correct for Detector Non-linearity: No (USB2+H05261)
Correct for Stray Light: No (USB2+H05261)
Number of Pixels in Processed Spectrum: 2048
>>>>>Begin Processed Spectral Data<<<<<
365.73	191.92
365.92	191.92
366.12	191.92
366.32	131.07
366.52	126.39
366.72	105.32
366.91	133.41
367.11	161.50
367.31	119.37
367.51	135.75
367.70	126.39
367.90	173.20
368.10	142.77
368.30	79.58
368.49	159.16
368.69	135.75
368.89	77.24
369.09	93.62
369.28	114.69
369.48	184.90
369.68	145.11
369.87	220.01
370.07	175.54
370.27	201.29
370.47	358.10
370.66	688.12
370.86	634.29
371.06	688.12
371.25	655.35
371.45	676.41
371.65	601.52
371.84	648.33
372.04	704.50
372.24	702.16
372.44	777.06
372.63	833.23
372.83	798.12
373.03	730.25
373.22	767.70
373.42	744.29
373.62	755.99
373.81	812.17
374.01	739.61
374.21	786.42
374.40	835.57
374.60	802.80
374.79	887.06
374.99	753.65
375.19	847.27
375.38	779.40
375.58	814.51
375.78	861.32
375.97	868.34
376.17	863.66
376.37	917.49
376.56	929.19
376.76	835.57
376.95	875.36
377.15	983.02
377.35	849.61
377.54	908.13
377.74	917.49
377.93	814.51
378.13	931.53
378.33	936.21
378.52	861.32
378.72	990.05
378.91	915.15
379.11	896.43
379.31	926.85
379.50	983.02
379.70	1041.54
379.89	903.45
380.09	945.58
380.28	959.62
380.48	922.17
380.68	933.87
380.87	968.98
381.07	1060.26
381.26	1020.47
381.46	936.21
381.65	1050.90
381.85	1025.15
382.04	990.05
382.24	1067.28
382.43	1071.97
382.63	1067.28
382.83	1116.44
383.02	1064.94
383.22	1116.44
383.41	1060.26
383.61	1142.18
383.80	1151.54
384.00	1179.63
384.19	1266.23
384.39	1170.27
384.58	1196.01
384.78	1137.50
384.97	1160.91
385.17	1109.41
385.36	1174.95
385.56	1212.40
385.75	1163.25
385.95	1224.10
386.14	1158.57
386.34	1167.93
386.53	1233.46
386.72	1170.27
386.92	1233.46
387.11	1299.00
387.31	1238.14
387.50	1196.01
387.70	1224.10
387.89	1275.59
388.09	1310.70
388.28	1268.57
388.48	1322.40
388.67	1334.11
388.86	1313.04
389.06	1411.34
389.25	1329.42
389.45	1313.04
389.64	1416.02
389.84	1378.58
390.03	1430.07
390.22	1460.49
390.42	1404.32
390.61	1348.15
390.81	1273.25
391.00	1460.49
391.19	1462.83
391.39	1385.60
391.58	1514.33
391.78	1409.00
391.97	1444.11
392.16	1500.28
392.36	1519.01
392.55	1547.09
392.75	1528.37
392.94	1514.33
393.13	1549.43
393.33	1535.39
393.52	1626.67
393.71	1535.39
393.91	1607.95
394.10	1488.58
394.29	1722.63
394.49	1605.61
394.68	1584.54
394.88	1563.48
395.07	1652.42
395.26	1558.80
395.46	1776.47
395.65	1713.27
395.84	1668.80
396.04	1757.74
396.23	1792.85
396.42	1788.17
396.62	1797.53
396.81	1778.81
397.00	1811.57
397.19	1739.02
397.39	1898.17
397.58	1839.66
397.77	1781.15
397.97	1919.24
398.16	1858.39
398.35	1842.00
398.55	1975.41
398.74	1968.39
398.93	1991.80
399.12	1839.66
399.32	1902.86
399.51	1933.28
399.70	2050.31
399.90	1900.52
400.09	2001.16
400.28	2087.76
400.47	2012.86
400.67	2104.14
400.86	2111.16
401.05	2176.70
401.24	2022.22
401.44	2129.89
401.63	2108.82
401.82	2310.11
402.01	2188.40
402.21	2101.80
402.40	2139.25
402.59	2139.25
402.78	2249.25
402.97	2246.91
403.17	2363.94
403.36	2282.02
403.55	2310.11
403.74	2408.41
403.93	2345.22
404.13	2326.49
404.32	2382.67
404.51	2436.50
404.70	2434.16
404.89	2506.71
405.09	2457.56
405.28	2480.97
405.47	2518.42
405.66	2502.03
405.85	2675.23
406.05	2588.63
406.24	2630.76
406.43	2590.97
406.62	2715.02
406.81	2705.66
407.00	2619.06
407.20	2558.21
407.39	2630.76
407.58	2757.15
407.77	2775.88
407.96	2778.22
408.15	2679.91
408.34	2682.25
408.54	2850.77
408.73	2832.05
408.92	2923.33
409.11	2916.31
409.30	2876.52
409.49	2871.84
409.68	2944.39
409.87	2928.01
410.07	3075.46
410.26	3040.36
410.45	3084.83
410.64	2977.16
410.83	3012.27
411.02	3066.10
411.21	3138.66
411.40	3276.75
411.59	3201.85
411.78	3260.37
411.98	3169.09
412.17	3412.50
412.36	3393.78
412.55	3281.43
412.74	3522.51
412.93	3447.61
413.12	3337.60
413.31	3578.68
413.50	3463.99
413.69	3468.67
413.88	3630.17
414.07	3613.79
414.26	3506.12
414.45	3595.06
414.64	3744.86
414.83	3674.64
415.02	3798.69
415.22	3824.44
415.41	3885.29
415.60	3911.04
415.79	4081.89
415.98	4189.56
416.17	4021.04
416.36	4042.11
416.55	3934.44
416.74	4170.83
416.93	3978.91
417.12	4023.38
417.31	4243.39
417.50	4203.60
417.69	4250.41
417.88	4287.86
418.07	4234.03
418.26	4318.29
418.45	4437.66
418.64	4528.94
418.83	4498.51
419.02	4496.17
419.21	4627.24
419.39	4447.02
419.58	4514.89
419.77	4423.61
419.96	4589.79
420.15	4793.42
420.34	4650.64
420.53	4652.98
420.72	4770.01
420.91	4809.80
421.10	4800.44
421.29	4770.01
421.48	4795.76
421.67	4873.00
421.86	4777.03
422.05	4730.22
422.24	4816.82
422.43	4873.00
422.61	4922.15
422.80	4999.38
422.99	4851.93
423.18	5104.71
423.37	5090.67
423.56	4854.27
423.75	4889.38
423.94	4826.18
424.13	4608.51
424.32	4868.31
424.50	4898.74
424.69	5153.86
424.88	5146.84
425.07	5071.94
425.26	4938.53
425.45	5074.28
425.64	4894.06
425.83	4961.94
426.01	5071.94
426.20	5041.51
426.39	5076.62
426.58	5121.09
426.77	5153.86
426.96	5011.09
427.15	5090.67
427.33	5334.08
427.52	5242.80
427.71	5441.75
427.90	5167.90
428.09	5247.48
428.28	5544.73
428.46	5437.06
428.65	5193.65
428.84	5605.58
429.03	5678.14
429.22	5341.10
429.40	5291.95
429.59	5535.37
429.78	5504.94
429.97	5296.63
430.16	5530.69
430.34	5565.79
430.53	5736.65
430.72	5731.97
430.91	5734.31
431.10	5600.90
431.28	5778.78
431.47	6010.50
431.66	6043.26
431.85	5844.32
432.03	6003.47
432.22	6033.90
432.41	6012.84
432.60	5930.92
432.79	6106.46
432.97	5959.00
433.16	6022.20
433.35	6118.16
433.54	6097.10
433.72	6382.64
433.91	6216.46
434.10	5959.00
434.28	6047.94
434.47	6188.38
434.66	6265.61
434.85	6553.50
435.03	6420.09
435.22	6296.04
435.41	6722.02
435.59	6239.87
435.78	6541.80
435.97	6436.47
436.16	6328.81
436.34	6539.46
436.53	6487.96
436.72	6665.85
436.90	6686.91
437.09	6637.76
437.28	6504.35
437.46	6715.00
437.65	6733.72
437.84	6759.47
438.02	6754.79
438.21	6897.56
438.40	6766.49
438.58	7026.29
438.77	7000.54
438.96	7126.93
439.14	7166.72
439.33	7152.68
439.52	7201.83
439.70	7206.51
439.89	7433.54
440.08	7344.60
440.26	7391.41
440.45	7391.41
440.63	7557.59
440.82	7744.83
441.01	7660.57
441.19	7777.60
441.38	7747.17
441.57	7829.09
441.75	7882.92
441.94	7925.05
442.12	7943.78
442.31	8297.20
442.50	8196.56
442.68	8102.93
442.87	8142.72
443.05	8147.40
443.24	8496.14
443.43	8081.87
443.61	8159.11
443.80	8500.83
443.98	8084.21
444.17	7995.27
444.35	8290.18
444.54	8493.80
444.73	8308.90
444.91	8201.24
445.10	8376.78
445.28	8266.77
445.47	8468.06
445.65	8280.82
445.84	8461.04
446.02	8514.87
446.21	8479.76
446.39	8582.74
446.58	8772.33
446.77	8552.32
446.95	8329.97
447.14	8542.96
447.32	8610.83
447.51	8699.77
447.69	8617.85
447.88	8507.85
448.06	8561.68
448.25	8627.21
448.43	8788.71
448.62	8620.19
448.80	8629.56
448.99	8798.07
449.17	8784.03
449.36	8807.44
449.54	8952.55
449.73	8877.65
449.91	9254.48
450.10	8931.48
450.28	9334.06
450.46	9273.20
450.65	9083.62
450.83	9259.16
451.02	9001.70
451.20	9296.61
451.39	9252.14
451.57	9408.95
451.76	9139.79
451.94	9497.89
452.13	9441.72
452.31	9509.60
452.49	9181.92
452.68	9366.82
452.86	9327.03
453.05	9329.38
453.23	9523.64
453.42	9441.72
453.60	9298.95
453.78	9804.50
453.97	9390.23
454.15	9591.52
454.34	9509.60
454.52	9682.80
454.70	9776.42
454.89	9877.06
455.07	9682.80
455.26	9977.70
455.44	9987.07
455.62	9949.62
455.81	9895.78
455.99	10024.51
456.17	10090.05
456.36	10260.91
456.54	10127.50
456.73	10314.74
456.91	10729.02
457.09	10441.13
457.28	10693.91
457.46	10576.88
457.64	10731.36
457.83	10473.90
458.01	10616.67
458.19	10860.09
458.38	10693.91
458.56	10771.15
458.74	10923.28
458.93	10766.46
459.11	10869.45
459.29	10780.51
459.48	10848.38
459.66	11059.03
459.84	10937.32
460.03	11040.31
460.21	11042.65
460.39	11147.97
460.57	11110.52
460.76	11323.51
460.94	11222.87
461.12	11154.99
461.31	11290.74
461.49	11253.30
461.67	11190.10
461.85	11510.75
462.04	11274.36
462.22	11580.97
462.40	11845.45
462.59	11674.59
462.77	11454.58
462.95	11918.01
463.13	11683.95
463.32	11662.89
463.50	11779.92
463.68	11896.94
463.86	11955.46
464.05	11674.59
464.23	11634.80
464.41	12013.97
464.59	11934.39
464.78	12315.90
464.96	12135.68
465.14	12035.03
465.32	12210.57
465.50	12278.45
465.69	12278.45
465.87	12496.12
466.05	12329.94
466.23	12442.29
466.41	12287.81
466.60	12430.59
466.78	12257.39
466.96	12322.92
467.14	12489.10
467.32	12559.31
467.51	12929.12
467.69	12147.38
467.87	12603.78
468.05	12793.37
468.23	12470.37
468.41	12650.60
468.60	12655.28
468.78	13025.08
468.96	12791.03
469.14	12933.80
469.32	13310.63
469.50	12854.22
469.69	13083.59
469.87	13263.82
470.05	13296.58
470.23	13254.45
470.41	13465.10
470.59	13373.82
470.77	13174.88
470.95	13500.21
471.14	13652.34
471.32	13327.01
471.50	13647.66
471.68	13603.19
471.86	13823.20
472.04	13703.84
472.22	14111.09
472.40	13825.54
472.58	13778.73
472.77	14230.46
472.95	14249.18
473.13	14675.16
473.31	14298.33
473.49	14263.22
473.67	14108.75
473.85	14083.00
474.03	14743.03
474.21	14693.88
474.39	14939.64
474.57	14888.15
474.75	15091.77
474.93	14939.64
475.12	14970.07
475.30	15241.57
475.48	15075.39
475.66	15520.09
475.84	15276.68
476.02	15683.93
476.20	15548.18
476.38	15950.75
476.56	16046.71
476.74	16042.03
476.92	16023.31
477.10	16060.76
477.28	16421.20
477.46	16437.58
477.64	16301.83
477.82	16444.60
478.00	16910.37
478.18	17160.81
478.36	17090.59
478.54	17315.28
478.72	17556.36
478.90	17549.34
479.08	17729.56
479.26	17844.24
479.44	17839.56
479.62	18015.10
479.80	18298.31
479.98	18141.49
480.16	18909.19
480.34	18534.70
480.52	18710.24
480.70	18925.57
480.88	18546.40
481.06	18768.76
481.24	18878.76
481.41	19150.26
481.59	19325.80
481.77	19700.29
481.95	19817.32
482.13	19719.01
482.31	19960.09
482.49	20521.82
482.67	20367.34
482.85	20554.58
483.03	21144.40
483.21	20999.29
483.39	20975.88
483.57	21050.78
483.74	21535.27
483.92	21708.47
484.10	21614.85
484.28	21886.35
484.46	22427.01
484.64	22714.90
484.82	22171.89
485.00	22586.17
485.18	22862.35
485.35	23023.85
485.53	22754.69
485.71	23103.43
485.89	23527.06
486.07	23758.78
486.25	23660.48
486.43	23763.46
486.61	24182.42
486.78	24355.61
486.96	24863.51
487.14	24727.76
487.32	25149.06
487.50	25228.63
487.68	24931.39
487.85	25455.67
488.03	25846.54
488.21	26178.89
488.39	26293.58
488.57	26127.40
488.75	26443.37
488.92	26728.92
489.10	27077.66
489.28	26948.93
489.46	27386.61
489.64	27089.36
489.81	28318.14
489.99	27821.95
490.17	27960.04
490.35	28458.57
490.53	28308.78
490.70	29090.52
490.88	28697.31
491.06	29242.65
491.24	28954.77
491.41	29123.29
491.59	29441.60
491.77	29776.30
491.95	30092.27
492.13	30010.35
492.30	30265.47
492.48	30277.17
492.66	30274.83
492.84	30588.46
493.01	30939.54
493.19	30934.86
493.37	31278.92
493.54	31538.72
493.72	31922.57
493.90	31571.49
494.08	31957.67
494.25	32198.75
494.43	31952.99
494.61	32863.46
494.79	32561.53
494.96	32732.39
495.14	33315.19
495.32	33240.29
495.49	33289.44
495.67	33577.33
495.85	34017.35
496.02	34244.38
496.20	34160.12
496.38	34473.75
496.55	34356.72
496.73	35124.42
496.91	34829.51
497.09	35236.77
497.26	35482.52
497.44	35381.88
497.62	35496.56
497.79	36325.11
497.97	35847.64
498.14	36554.49
498.32	36608.32
498.50	36678.54
498.67	36928.97
498.85	36678.54
499.03	36877.48
499.20	37163.03
499.38	37380.70
499.56	37387.72
499.73	37518.79
499.91	37598.37
500.08	37846.46
500.26	37876.89
500.44	38314.57
500.61	38052.43
500.79	38101.58
500.97	38555.64
501.14	38848.21
501.32	38717.14
501.49	38913.75
501.67	39239.08
501.84	39239.08
502.02	39271.85
502.20	39203.97
502.37	39636.97
502.55	39548.03
502.72	39810.17
502.90	40006.78
503.07	39981.03
503.25	40655.11
503.43	40346.15
503.60	40776.81
503.78	40872.78
503.95	40371.90
504.13	40545.10
504.30	41053.00
504.48	40877.46
504.65	40935.97
504.83	41404.08
505.01	41780.90
505.18	41453.23
505.36	42012.62
505.53	41022.57
505.71	41713.03
505.88	42108.58
506.06	41628.77
506.23	41993.89
506.41	42279.44
506.58	42817.76
506.76	42843.51
506.93	43014.37
507.11	42602.43
507.28	42909.04
507.46	43047.13
507.63	43337.36
507.81	43613.54
507.98	43606.52
508.16	43604.18
508.33	43629.93
508.50	43955.26
508.68	44074.63
508.85	44486.56
509.03	44706.57
509.20	44500.61
509.38	44643.38
509.55	44811.90
509.73	44896.16
509.90	45406.39
510.08	44889.13
510.25	45198.09
510.42	45420.44
510.60	45530.44
510.77	45762.15
510.95	46071.10
511.12	45778.54
511.30	45464.91
511.47	45542.14
511.64	46127.28
511.82	46557.94
511.99	45895.56
512.17	46494.74
512.34	46031.32
512.51	46672.62
512.69	46431.55
512.86	46419.84
513.04	47028.38
513.21	46674.96
513.38	46944.12
513.56	47082.22
513.73	47051.79
513.90	47606.50
514.08	47351.38
514.25	47908.43
514.43	47896.72
514.60	47913.11
514.77	47880.34
514.95	48177.59
515.12	47700.12
515.29	47622.88
515.47	48051.20
515.64	48498.24
515.81	48243.12
515.99	48949.96
516.16	48612.93
516.33	48619.95
516.51	48893.79
516.68	48809.53
516.85	48837.62
517.03	49031.88
517.20	49179.34
517.37	49165.29
517.54	49319.77
517.72	49219.13
517.89	49371.26
518.06	49521.05
518.24	49682.55
518.41	49354.88
518.58	49755.11
518.75	49750.43
518.93	50052.36
519.10	49595.95
519.27	50347.26
519.45	49982.14
519.62	50134.28
519.79	50384.71
519.96	50288.75
520.14	50279.39
520.31	50351.94
520.48	50848.14
520.65	50410.46
520.83	51049.42
521.00	51023.68
521.17	50852.82
521.34	51016.66
521.52	51042.40
521.69	51309.22
521.86	51498.81
522.03	51526.89
522.20	51648.60
522.38	51510.51
522.55	51877.97
522.72	51587.75
522.89	51714.14
523.07	52116.71
523.24	52018.41
523.41	52257.14
523.58	51594.77
523.75	52219.69
523.92	52039.47
524.10	52456.09
524.27	52156.50
524.44	52093.30
524.61	52268.84
524.78	52179.90
524.96	52734.61
525.13	52694.82
525.30	53073.99
525.47	52933.56
525.64	52699.50
525.81	52858.66
525.98	53179.31
526.16	52879.72
526.33	53052.92
526.50	53331.45
526.67	52999.09
526.84	53141.86
527.01	53059.94
527.18	53113.78
527.36	53202.72
527.53	53333.79
527.70	53832.32
527.87	53724.66
528.04	53490.60
528.21	53584.22
528.38	53537.41
528.55	53666.14
528.72	53457.84
528.89	53741.04
529.07	54040.63
529.24	53607.63
529.41	54134.25
529.58	54071.06
529.75	53680.19
529.92	53932.96
530.09	54314.47
530.26	54508.74
530.43	54433.84
530.60	54270.00
530.77	54155.32
530.94	54337.88
531.11	54286.39
531.28	54113.19
531.46	54754.49
531.63	54721.72
531.80	54607.04
531.97	54646.83
532.14	54679.60
532.31	54707.68
532.48	54930.03
532.65	55302.18
532.82	54852.80
532.99	55112.59
533.16	55035.36
533.33	54969.82
533.50	55107.91
533.67	55171.11
533.84	54974.50
534.01	55072.81
534.18	55143.02
534.35	55585.38
534.52	55344.31
534.69	55400.48
534.86	55313.88
535.03	55344.31
535.20	55564.32
535.37	55800.71
535.54	55632.19
535.71	55196.85
535.88	55636.87
536.05	55561.98
536.22	55737.52
536.38	55978.59
536.55	55964.55
536.72	56034.77
536.89	55473.04
537.06	56121.37
537.23	55863.91
537.40	56151.79
537.57	56086.26
537.74	56217.33
537.91	56346.06
538.08	56491.17
538.25	56013.70
538.42	56161.15
538.59	56374.14
538.75	56055.83
538.92	56402.23
539.09	56570.75
539.26	56409.25
539.43	56332.01
539.60	56411.59
539.77	56257.12
539.94	56542.66
540.11	56741.61
540.28	56678.41
540.44	56570.75
540.61	56662.03
540.78	56507.55
540.95	56823.53
541.12	56910.13
541.29	56556.70
541.46	56732.25
541.62	56954.60
541.79	56856.29
541.96	56655.01
542.13	56711.18
542.30	56959.28
542.47	56884.38
542.63	57104.39
542.80	57151.20
542.97	57205.03
543.14	57443.77
543.31	57537.39
543.48	57329.08
543.64	57635.69
543.81	57345.47
543.98	57537.39
544.15	57633.35
544.32	57785.49
544.48	57839.32
544.65	57691.86
544.82	57584.20
544.99	57343.12
545.16	57701.23
545.32	57642.71
545.49	57684.84
545.66	58108.48
545.83	58052.31
546.00	57844.00
546.16	57991.45
546.33	57970.39
546.50	57783.15
546.67	58103.80
546.83	57869.75
547.00	58047.63
547.17	57968.05
547.34	57794.85
547.50	58099.12
547.67	58237.21
547.84	58197.42
548.00	58328.49
548.17	58445.52
548.34	58354.24
548.51	58569.57
548.67	58560.20
548.84	58298.06
549.01	58379.98
549.18	58461.90
549.34	58644.46
549.51	58590.63
549.68	58803.62
549.84	58438.50
550.01	58539.14
550.18	58302.74
550.34	58379.98
550.51	58717.02
550.68	58536.80
550.84	58452.54
551.01	58866.81
551.18	58728.72
551.34	58841.07
551.51	58948.73
551.68	58820.00
551.84	58805.96
552.01	58745.11
552.18	58969.80
552.34	58803.62
552.51	59023.63
552.68	58801.28
552.84	59217.89
553.01	58974.48
553.18	59040.01
553.34	59234.28
553.51	59103.21
553.67	59032.99
553.84	59449.61
554.01	59271.73
554.17	59269.39
554.34	59262.36
554.51	59316.20
554.67	59255.34
554.84	59231.94
555.00	59290.45
555.17	59309.18
555.33	59480.03
555.50	59044.69
555.67	59000.22
555.83	59374.71
556.00	59447.27
556.16	59583.02
556.33	59540.89
556.50	59508.12
556.66	59519.82
556.83	59465.99
556.99	59671.96
557.16	59772.60
557.32	59824.09
557.49	59849.84
557.65	59475.35
557.82	59510.46
557.98	59648.55
558.15	59611.10
558.32	59599.40
558.48	59470.67
558.65	59765.58
558.81	59774.94
558.98	59803.03
559.14	59877.93
559.31	59943.46
559.47	60076.87
559.64	60006.65
559.80	59863.88
559.97	60177.51
560.13	59898.99
560.30	59983.25
560.46	60060.49
560.63	60046.44
560.79	59798.35
560.96	60027.72
561.12	60236.03
561.29	60317.95
561.45	60069.85
561.61	59866.22
561.78	59941.12
561.94	59922.40
562.11	60177.51
562.27	60090.91
562.44	60271.14
562.60	60320.29
562.77	60102.62
562.93	59913.03
563.10	60069.85
563.26	60020.70
563.42	60523.91
563.59	60156.45
563.75	60231.35
563.92	59999.63
564.08	60130.70
564.24	60322.63
564.41	60238.37
564.57	60519.23
564.74	60385.82
564.90	60554.34
565.07	60367.10
565.23	60479.44
565.39	60383.48
565.56	60519.23
565.72	60250.07
565.88	60477.10
566.05	60369.44
566.21	60280.50
566.38	60601.15
566.54	60346.03
566.70	60652.64
566.87	60584.77
567.03	60313.26
567.19	60575.40
567.36	60626.90
567.52	60608.17
567.68	60755.63
567.85	60729.88
568.01	60636.26
568.17	60596.47
568.34	60596.47
568.50	60406.89
568.66	60392.84
568.83	60629.24
568.99	60743.92
569.15	60563.70
569.32	60596.47
569.48	60650.30
569.64	60767.33
569.81	60757.97
569.97	60519.23
570.13	60584.77
570.30	60418.59
570.46	60800.10
570.62	60889.04
570.78	60603.49
570.95	60734.56
571.11	60898.40
571.27	60587.11
571.43	60690.09
571.60	61237.78
571.76	60788.39
571.92	60921.80
572.09	60994.36
572.25	60821.16
572.41	60786.05
572.57	60905.42
572.74	61043.51
572.90	60851.59
573.06	61073.94
573.22	60711.16
573.38	60903.08
573.55	60746.26
573.71	60952.23
573.87	61001.38
574.03	60603.49
574.20	60992.02
574.36	60818.82
574.52	60940.53
574.68	60729.88
574.84	61029.47
575.01	61233.10
575.17	61048.19
575.33	60982.66
575.49	60818.82
575.65	61155.86
575.82	61029.47
575.98	61116.07
576.14	61340.76
576.30	60949.89
576.46	61015.43
576.62	60858.61
576.79	60860.95
576.95	60884.36
577.11	60975.64
577.27	61202.67
577.43	61029.47
577.59	60877.33
577.75	60954.57
577.92	60821.16
578.08	60999.04
578.24	61006.06
578.40	61102.03
578.56	61162.88
578.72	61104.37
578.88	61155.86
579.04	61202.67
579.21	60928.83
579.37	61270.54
579.53	61401.61
579.69	60839.89
579.85	61151.18
580.01	61102.03
580.17	60973.30
580.33	61045.85
580.49	61237.78
580.65	61216.71
580.82	61130.11
580.98	60973.30
581.14	61001.38
581.30	61352.46
581.46	61001.38
581.62	61207.35
581.78	61120.75
581.94	60994.36
582.10	61099.68
582.26	61202.67
582.42	61052.87
582.58	61235.44
582.74	61087.98
582.90	61148.84
583.06	61113.73
583.22	61015.43
583.38	61322.04
583.54	61219.05
583.70	61312.67
583.86	61172.24
584.02	61132.45
584.18	61160.54
584.34	61401.61
584.50	61066.92
584.66	60891.38
584.82	60874.99
584.98	61478.85
585.14	61242.46
585.30	61099.68
585.46	61174.58
585.62	61076.28
585.78	61408.64
585.94	61151.18
586.10	61305.65
586.26	61221.39
586.42	61380.55
586.58	61319.70
586.74	61347.78
586.90	61350.12
587.06	61153.52
587.22	61436.72
587.38	61240.12
587.54	61235.44
587.70	61488.21
587.86	61359.48
588.02	61240.12
588.18	61506.94
588.34	61315.01
588.49	61179.26
588.65	61216.71
588.81	61284.59
588.97	61497.58
589.13	61265.86
589.29	61350.12
589.45	61563.11
589.61	61324.38
589.77	61748.01
589.93	61418.00
590.08	61755.03
590.24	61357.14
590.40	61719.93
590.56	61616.94
590.72	61666.09
590.88	61546.73
591.04	61558.43
591.20	61745.67
591.35	61628.65
591.51	61801.85
591.67	61663.75
591.83	61661.41
591.99	61427.36
592.15	61565.45
592.31	61572.47
592.46	61696.52
592.62	61659.07
592.78	61691.84
592.94	61797.16
593.10	61649.71
593.26	61759.72
593.41	61619.28
593.57	61893.13
593.73	61729.29
593.89	61984.41
594.05	61879.08
594.20	61553.75
594.36	61759.72
594.52	61621.62
594.68	61666.09
594.84	61474.17
594.99	61843.98
595.15	61666.09
595.31	61907.17
595.47	61645.03
595.62	61738.65
595.78	61621.62
595.94	61717.59
596.10	61965.68
596.25	61769.08
596.41	61769.08
596.57	61820.57
596.73	61843.98
596.88	61745.67
597.04	61811.21
597.20	61867.38
597.36	61759.72
597.51	61843.98
597.67	61719.93
597.83	61872.06
597.99	61879.08
598.14	61783.12
598.30	62031.22
598.46	61879.08
598.61	61972.70
598.77	61818.23
598.93	61790.14
599.09	61780.78
599.24	62040.58
599.40	62049.94
599.56	61958.66
599.71	62082.71
599.87	62082.71
600.03	62108.46
600.18	61853.34
600.34	61743.33
600.50	61790.14
600.65	61965.68
600.81	61977.39
600.97	62056.96
601.12	61946.96
601.28	61813.55
601.44	61921.21
601.59	62071.01
601.75	61961.00
601.91	62255.91
602.06	62169.31
602.22	62010.15
602.37	61923.55
602.53	61895.47
602.69	62017.17
602.84	61944.62
603.00	61883.76
603.16	61986.75
603.31	61951.64
603.47	62108.46
603.62	61921.21
603.78	62195.06
603.94	62026.54
604.09	62003.13
604.25	61928.23
604.40	61965.68
604.56	61893.13
604.71	62129.52
604.87	61867.38
605.03	61946.96
605.18	61822.91
605.34	62028.88
605.49	61783.12
605.65	62047.60
605.80	61996.11
605.96	62117.82
606.12	62145.90
606.27	62080.37
606.43	61811.21
606.58	62026.54
606.74	61930.58
606.89	61916.53
607.05	62066.33
607.20	62101.43
607.36	61694.18
607.51	61879.08
607.67	61745.67
607.82	61893.13
607.98	61874.40
608.13	61930.58
608.29	61799.50
608.44	61722.27
608.60	61925.89
608.75	61766.74
608.91	61663.75
609.06	61652.05
609.22	61843.98
609.37	61638.01
609.53	61937.60
609.68	61879.08
609.84	61937.60
609.99	61722.27
610.15	61975.05
610.30	61897.81
610.46	61867.38
610.61	61972.70
610.76	61764.40
610.92	61694.18
611.07	61593.54
611.23	61626.31
611.38	61897.81
611.54	61825.25
611.69	61843.98
611.84	61769.08
612.00	61778.44
612.15	61586.52
612.31	61736.31
612.46	61520.98
612.62	61577.15
612.77	61654.39
612.92	61647.37
613.08	61626.31
613.23	61748.01
613.39	61483.53
613.54	61726.95
613.69	61806.53
613.85	61481.19
614.00	61609.92
614.15	61733.97
614.31	61453.11
614.46	61645.03
614.62	61726.95
614.77	61696.52
614.92	61654.39
615.08	61626.31
615.23	61518.64
615.38	61736.31
615.54	61719.93
615.69	61408.64
615.84	61492.89
616.00	61544.39
616.15	61504.60
616.30	61642.69
616.46	61406.30
616.61	61530.34
616.76	61584.18
616.92	61396.93
617.07	61443.74
617.22	61352.46
617.37	61361.82
617.53	61649.71
617.68	61544.39
617.83	61532.68
617.99	61354.80
618.14	61560.77
618.29	61347.78
618.45	61197.99
618.60	61478.85
618.75	61340.76
618.90	61345.44
619.06	61535.02
619.21	61373.53
619.36	61382.89
619.51	61488.21
619.67	61193.31
619.82	61169.90
619.97	61432.04
620.12	61130.11
620.28	61249.48
620.43	61148.84
620.58	61352.46
620.73	61029.47
620.89	61230.75
621.04	61329.06
621.19	61354.80
621.34	61261.18
621.49	61137.13
621.65	61120.75
621.80	61460.13
621.95	61127.77
622.10	61249.48
622.25	60992.02
622.41	61174.58
622.56	61048.19
622.71	61176.92
622.86	60985.00
623.01	60849.25
623.16	60940.53
623.32	60860.95
623.47	61242.46
623.62	60992.02
623.77	60947.55
623.92	61071.60
624.07	61043.51
624.23	61102.03
624.38	61071.60
624.53	61034.15
624.68	60844.57
624.83	60980.32
624.98	60811.80
625.13	60643.28
625.29	60989.68
625.44	60968.61
625.59	60903.08
625.74	60842.23
625.89	60647.96
626.04	60493.49
626.19	60573.06
626.34	60624.56
626.49	60608.17
626.65	60449.02
626.80	60736.90
626.95	60671.37
627.10	60568.38
627.25	60470.08
627.40	60559.02
627.55	60643.28
627.70	60718.18
627.85	60650.30
628.00	60343.69
628.15	60479.44
628.30	60364.76
628.45	60385.82
628.60	60439.65
628.76	60449.02
628.91	60570.72
629.06	60392.84
629.21	60467.74
629.36	60437.31
629.51	60378.80
629.66	60350.71
629.81	60404.55
629.96	60168.15
630.11	60240.71
630.26	60608.17
630.41	60243.05
630.56	60271.14
630.71	60142.41
630.86	60310.92
631.01	60121.34
631.16	60418.59
631.31	60095.60
631.46	59913.03
631.61	60285.18
631.76	60268.79
631.91	60182.19
632.06	60303.90
632.21	60278.16
632.36	60121.34
632.51	59917.71
632.66	60023.04
632.81	60137.72
632.96	60198.58
633.10	60182.19
633.25	60130.70
633.40	60144.75
633.55	60032.40
633.70	60058.15
633.85	60076.87
634.00	60102.62
634.15	59821.75
634.30	59852.18
634.45	59770.26
634.60	60126.02
634.75	60128.36
634.90	59817.07
635.05	59964.52
635.19	59866.22
635.34	59884.95
635.49	59826.43
635.64	60093.25
635.79	59924.74
635.94	59950.48
636.09	59910.69
636.24	59573.66
636.39	59707.07
636.53	60130.70
636.68	59723.45
636.83	59791.33
636.98	60067.51
637.13	59601.74
637.28	59730.47
637.43	59648.55
637.57	59660.26
637.72	59480.03
637.87	59559.61
638.02	59620.47
638.17	59746.86
638.32	59606.42
638.46	59543.23
638.61	59538.55
638.76	59168.74
638.91	59585.36
639.06	59524.50
639.20	59292.79
639.35	59505.78
639.50	59384.07
639.65	59449.61
639.80	59398.12
639.94	59519.82
640.09	59327.90
640.24	59152.36
640.39	59309.18
640.54	59245.98
640.68	59274.07
640.83	59475.35
640.98	59430.88
641.13	59264.70
641.27	59515.14
641.42	59014.27
641.57	59002.56
641.72	59119.59
641.86	58899.58
642.01	58932.35
642.16	59114.91
642.31	59159.38
642.45	59449.61
642.60	59028.31
642.75	59320.88
642.90	59278.75
643.04	59253.00
643.19	59100.87
643.34	59290.45
643.48	59091.51
643.63	59035.33
643.78	59061.08
643.93	59004.91
644.07	59199.17
644.22	59082.14
644.37	58937.03
644.51	58960.44
644.66	58955.75
644.81	58859.79
644.95	58803.62
645.10	58939.37
645.25	58904.26
645.39	58815.32
645.54	58908.94
645.69	58728.72
645.83	58670.21
645.98	58702.98
646.13	58717.02
646.27	58969.80
646.42	58543.82
646.57	58597.65
646.71	58684.25
646.86	58822.34
647.00	58731.06
647.15	58805.96
647.30	58787.24
647.44	58529.78
647.59	58759.15
647.74	59009.59
647.88	58508.71
648.03	58808.30
648.17	58672.55
648.32	58705.32
648.47	58588.29
648.61	58651.48
648.76	58546.16
648.90	58618.72
649.05	58464.24
649.20	58695.95
649.34	58623.40
649.49	58656.17
649.63	58635.10
649.78	58710.00
649.92	58714.68
650.07	58759.15
650.21	58389.34
650.36	58396.37
650.51	58351.90
650.65	58599.99
650.80	58553.18
650.94	58122.52
651.09	58110.82
651.23	57963.37
651.38	58412.75
651.52	58155.29
651.67	58115.50
651.81	58171.67
651.96	57844.00
652.10	58300.40
652.25	58136.57
652.39	58178.70
652.54	57984.43
652.68	57741.02
652.83	57937.62
652.97	58199.76
653.12	57944.64
653.26	58075.71
653.41	58068.69
653.55	58007.84
653.70	58272.32
653.84	57989.11
653.99	57989.11
654.13	57979.75
654.27	57663.78
654.42	57914.22
654.56	57876.77
654.71	57804.21
654.85	57996.13
655.00	57944.64
655.14	57808.89
655.29	57811.23
655.43	57673.14
655.57	57642.71
655.72	57593.56
655.86	58014.86
656.01	57743.36
656.15	57640.37
656.30	57659.10
656.44	57827.62
656.58	57958.69
656.73	57886.13
656.87	57497.60
657.01	57820.59
657.16	57722.29
657.30	57605.26
657.45	57581.86
657.59	57591.22
657.73	57488.24
657.88	57422.70
658.02	57427.38
658.16	57237.80
658.31	57286.95
658.45	57382.91
658.60	57270.57
658.74	57315.04
658.88	57298.65
659.03	57303.34
659.17	57329.08
659.31	57097.37
659.46	57055.24
659.60	57085.67
659.74	57153.54
659.89	57130.14
660.03	56891.40
660.17	57209.71
660.32	57038.86
660.46	56956.94
660.60	57062.26
660.74	56921.83
660.89	57001.41
661.03	56835.23
661.17	56858.63
661.32	56753.31
661.46	56846.93
661.60	56741.61
661.74	56814.16
661.89	56783.74
662.03	56453.72
662.17	56427.98
662.31	56697.14
662.46	56898.42
662.60	56750.97
662.74	56261.80
662.88	56205.62
663.03	56264.14
663.17	56334.35
663.31	56275.84
663.45	56259.46
663.60	55880.29
663.74	55976.25
663.88	56020.72
664.02	55896.67
664.17	55906.04
664.31	55899.01
664.45	55737.52
664.59	55896.67
664.73	56018.38
664.88	55831.14
665.02	55629.85
665.16	55765.60
665.30	55447.29
665.44	55753.90
665.59	55693.05
665.73	55601.77
665.87	55554.96
666.01	55540.91
666.15	55545.59
666.29	55480.06
666.44	55655.60
666.58	55323.24
666.72	55098.55
666.86	55234.30
667.00	55250.69
667.14	54494.69
667.28	55103.23
667.43	55009.61
667.57	55004.93
667.71	54915.99
667.85	54960.46
667.99	55065.78
668.13	54761.51
668.27	54646.83
668.41	54972.16
668.56	54658.53
668.70	54803.64
668.84	54562.57
668.98	54763.85
669.12	54527.46
669.26	54569.59
669.40	54370.64
669.54	54698.32
669.68	54316.81
669.82	54365.96
669.96	54501.71
670.10	54181.06
670.25	54351.92
670.39	54368.30
670.53	54258.30
670.67	53956.37
670.81	54405.75
670.95	54141.27
671.09	53982.12
671.23	53741.04
671.37	53951.69
671.51	53855.73
671.65	54199.79
671.79	53855.73
671.93	53462.52
672.07	53661.46
672.21	53340.81
672.35	53146.54
672.49	53303.36
672.63	52772.06
672.77	53104.41
672.91	53134.84
673.05	53024.84
673.19	52786.10
673.33	52891.43
673.47	52570.77
673.61	52825.89
673.75	52938.24
673.89	52495.88
674.03	52442.04
674.17	52460.77
674.31	51896.70
674.45	52215.01
674.59	52083.94
674.73	52259.48
674.87	52062.88
675.01	52116.71
675.15	51908.40
675.29	51662.64
675.43	52137.77
675.56	51793.71
675.70	51374.76
675.84	51239.01
675.98	50213.85
676.12	51543.28
676.26	51459.02
676.40	51484.76
676.54	51124.32
676.68	50651.53
676.82	50213.85
676.96	50691.32
677.10	50525.14
677.23	50164.70
677.37	50316.84
677.51	50417.48
677.65	50092.15
677.79	49399.35
677.93	49483.61
678.07	49579.57
678.21	49333.81
678.34	49205.08
678.48	49474.24
678.62	49027.20
678.76	48690.16
678.90	48907.83
679.04	48854.00
679.18	48846.98
679.31	48727.61
679.45	48236.10
679.59	48233.76
679.73	48484.20
679.87	48016.09
680.00	47538.62
680.14	47643.94
680.28	47592.45
680.42	47791.40
680.56	47342.02
680.70	47007.32
680.83	47124.35
680.97	47419.25
681.11	47196.90
681.25	47264.78
681.39	46553.26
681.52	47098.60
681.66	46511.13
681.80	46309.84
681.94	46586.02
682.07	46461.97
682.21	45986.85
682.35	45745.77
682.49	45649.81
682.62	45605.34
682.76	46082.81
682.90	45539.80
683.04	45310.43
683.17	45429.80
683.31	45102.12
683.45	44917.22
683.59	44507.63
683.72	44528.69
683.86	44481.88
684.00	44238.47
684.13	44847.00
684.27	43761.00
684.41	43784.40
684.55	44102.71
684.68	44055.90
684.82	43473.11
684.96	43110.33
685.09	43681.42
685.23	42927.77
685.37	42930.11
685.50	42857.55
685.64	42639.88
685.78	42487.74
685.91	42677.33
686.05	42038.36
686.19	41556.21
686.32	41844.10
686.46	41436.84
686.60	41301.09
686.73	41378.33
686.87	41214.49
687.01	41460.25
687.14	41045.97
687.28	40844.69
687.42	40832.99
687.55	40430.41
687.69	40535.74
687.82	40524.04
687.96	39995.07
688.10	39864.00
688.23	40179.98
688.37	39629.95
688.50	39335.04
688.64	39199.29
688.78	39152.48
688.91	38920.77
689.05	38897.36
689.18	39040.14
689.32	38455.00
689.46	38012.64
689.59	37787.95
689.73	38192.86
689.86	37792.63
690.00	38141.37
690.13	38197.54
690.27	37703.69
690.41	37729.44
690.54	37319.84
690.68	37024.93
690.81	37088.13
690.95	36837.69
691.08	36891.52
691.22	36671.51
691.35	36739.39
691.49	36510.02
691.62	36493.63
691.76	36369.58
691.89	35449.75
692.03	35653.38
692.16	35566.78
692.30	35358.47
692.43	35365.49
692.57	35456.78
692.70	34911.43
692.84	34906.75
692.97	34768.66
693.11	34890.37
693.24	34391.83
693.38	34396.51
693.51	34075.86
693.65	34089.90
693.78	33675.63
693.92	33895.64
694.05	33565.62
694.19	33507.11
694.32	33640.52
694.45	32966.45
694.59	33303.48
694.72	33109.22
694.86	32774.52
694.99	32905.59
695.13	32219.81
695.26	32456.21
695.39	31480.21
695.53	31793.84
695.66	32196.41
695.80	31627.66
695.93	31683.83
696.07	31393.61
696.20	30822.51
696.33	31044.87
696.47	31225.09
696.60	31124.44
696.73	30490.16
696.87	30874.01
697.00	30115.67
697.14	30637.61
697.27	30253.76
697.40	30169.51
697.54	30197.59
697.67	29851.19
697.80	30038.44
697.94	29362.02
698.07	29420.53
698.21	28910.30
698.34	29032.00
698.47	28648.16
698.61	28449.21
698.74	29008.60
698.87	28959.45
699.01	28407.08
699.14	28166.01
699.27	28540.49
699.40	28098.13
699.54	28163.67
699.67	27931.95
699.80	27859.40
699.94	27634.71
700.07	28027.92
700.20	27300.01
700.34	27211.07
700.47	26803.82
700.60	26607.21
700.73	26859.99
700.87	26225.70
701.00	26036.12
701.13	26143.78
701.26	26242.09
701.40	26462.10
701.53	26057.18
701.66	26335.71
701.79	25769.30
701.93	25432.26
702.06	25252.04
702.19	24702.01
702.32	25235.66
702.46	24964.15
702.59	24837.76
702.72	24589.67
702.85	24891.60
702.99	24772.23
703.12	24566.26
703.25	24077.09
703.38	24231.57
703.51	24027.94
703.65	23789.20
703.78	23491.96
703.91	23445.15
704.04	23793.89
704.17	23491.96
704.31	23309.40
704.44	23374.93
704.57	23007.47
704.70	22993.42
704.83	22480.85
704.96	22586.17
705.10	22111.04
705.23	22214.02
>>>>>End Processed Spectral Data<<<<<
