SpectraSuite Data File
++++++++++++++++++++++++++++++++++++
Date: Fri Oct 25 11:26:42 EDT 2013
User: price-jones
Dark Spectrum Present: No
Reference Spectrum Present: No
Number of Sampled Component Spectra: 1
Spectrometers: USB2+H05261
Integration Time (usec): 100000 (USB2+H05261)
Spectra Averaged: 1 (USB2+H05261)
Boxcar Smoothing: 0 (USB2+H05261)
Correct for Electrical Dark: No (USB2+H05261)
Strobe/Lamp Enabled: No (USB2+H05261)
Correct for Detector Non-linearity: No (USB2+H05261)
Correct for Stray Light: No (USB2+H05261)
Number of Pixels in Processed Spectrum: 2048
>>>>>Begin Processed Spectral Data<<<<<
365.73	189.58
365.92	189.58
366.12	189.58
366.32	210.65
366.52	98.30
366.72	152.13
366.91	173.20
367.11	128.73
367.31	147.45
367.51	175.54
367.70	107.66
367.90	105.32
368.10	81.92
368.30	177.88
368.49	194.26
368.69	138.09
368.89	180.22
369.09	182.56
369.28	147.45
369.48	205.97
369.68	182.56
369.87	180.22
370.07	245.76
370.27	182.56
370.47	351.08
370.66	601.52
370.86	634.29
371.06	624.92
371.25	704.50
371.45	674.07
371.65	737.27
371.84	713.86
372.04	674.07
372.24	777.06
372.44	669.39
372.63	713.86
372.83	821.53
373.03	809.83
373.22	688.12
373.42	774.72
373.62	732.59
373.81	793.44
374.01	849.61
374.21	910.47
374.40	795.78
374.60	753.65
374.79	791.10
374.99	875.36
375.19	814.51
375.38	866.00
375.58	830.89
375.78	802.80
375.97	898.77
376.17	903.45
376.37	903.45
376.56	882.38
376.76	945.58
376.95	851.96
377.15	903.45
377.35	882.38
377.54	938.55
377.74	964.30
377.93	896.43
378.13	1013.45
378.33	985.37
378.52	968.98
378.72	929.19
378.91	957.28
379.11	940.90
379.31	938.55
379.50	919.83
379.70	999.41
379.89	980.68
380.09	954.94
380.28	940.90
380.48	992.39
380.68	1001.75
380.87	978.34
381.07	985.37
381.26	959.62
381.46	1029.84
381.65	980.68
381.85	1102.39
382.04	999.41
382.24	1027.50
382.43	1053.24
382.63	994.73
382.83	1111.75
383.02	1153.88
383.22	1100.05
383.41	1081.33
383.61	1078.99
383.80	1167.93
384.00	1090.69
384.19	1116.44
384.39	1100.05
384.58	1156.22
384.78	1214.74
384.97	1160.91
385.17	1191.33
385.36	1142.18
385.56	1109.41
385.75	1165.59
385.95	1193.67
386.14	1233.46
386.34	1226.44
386.53	1226.44
386.72	1261.55
386.92	1277.93
387.11	1289.64
387.31	1219.42
387.50	1245.16
387.70	1245.16
387.89	1308.36
388.09	1308.36
388.28	1247.51
388.48	1301.34
388.67	1401.98
388.86	1259.21
389.06	1327.08
389.25	1409.00
389.45	1406.66
389.64	1322.40
389.84	1371.55
390.03	1511.99
390.22	1439.43
390.42	1359.85
390.61	1448.79
390.81	1448.79
391.00	1411.34
391.19	1446.45
391.39	1416.02
391.58	1462.83
391.78	1558.80
391.97	1551.78
392.16	1582.20
392.36	1621.99
392.55	1547.09
392.75	1549.43
392.94	1504.96
393.13	1514.33
393.33	1586.88
393.52	1640.72
393.71	1593.90
393.91	1647.74
394.10	1621.99
394.29	1612.63
394.49	1696.89
394.68	1607.95
394.88	1673.48
395.07	1715.61
395.26	1741.36
395.46	1621.99
395.65	1694.55
395.84	1746.04
396.04	1860.73
396.23	1802.21
396.42	1818.60
396.62	1853.70
396.81	1834.98
397.00	1802.21
397.19	1816.26
397.39	1839.66
397.58	1954.35
397.77	1809.23
397.97	1893.49
398.16	1975.41
398.35	1956.69
398.55	1895.83
398.74	1923.92
398.93	2033.93
399.12	2008.18
399.32	1888.81
399.51	1902.86
399.70	2043.29
399.90	2031.58
400.09	2031.58
400.28	2050.31
400.47	2064.35
400.67	2078.40
400.86	2090.10
401.05	2120.53
401.24	2108.82
401.44	2139.25
401.63	2183.72
401.82	2141.59
402.01	2132.23
402.21	2275.00
402.40	2083.08
402.59	2094.78
402.78	2214.15
402.97	2312.45
403.17	2293.72
403.36	2237.55
403.55	2267.98
403.74	2462.24
403.93	2291.38
404.13	2359.26
404.32	2399.05
404.51	2352.24
404.70	2551.18
404.89	2359.26
405.09	2476.29
405.28	2534.80
405.47	2509.05
405.66	2595.65
405.85	2537.14
406.05	2509.05
406.24	2696.30
406.43	2600.34
406.62	2661.19
406.81	2787.58
407.00	2628.42
407.20	2700.98
407.39	2686.94
407.58	2782.90
407.77	2752.47
407.96	2726.72
408.15	2729.06
408.34	2642.46
408.54	2792.26
408.73	2825.03
408.92	2747.79
409.11	2939.71
409.30	2951.42
409.49	2848.43
409.68	2892.90
409.87	2972.48
410.07	3070.78
410.26	3059.08
410.45	3040.36
410.64	3141.00
410.83	3157.38
411.02	3115.25
411.21	3190.15
411.40	3190.15
411.59	3246.32
411.78	3192.49
411.98	3185.47
412.17	3361.01
412.36	3391.44
412.55	3314.20
412.74	3433.57
412.93	3440.59
413.12	3363.35
413.31	3599.74
413.50	3630.17
413.69	3524.85
413.88	3595.06
414.07	3494.42
414.26	3667.62
414.45	3733.15
414.64	3728.47
414.83	3756.56
415.02	3784.65
415.22	3775.28
415.41	3906.35
415.60	3857.20
415.79	4009.34
415.98	4121.68
416.17	4035.08
416.36	3894.65
416.55	4107.64
416.74	4053.81
416.93	4149.77
417.12	4100.62
417.31	4074.87
417.50	4138.07
417.69	4355.74
417.88	4243.39
418.07	4334.67
418.26	4287.86
418.45	4393.19
418.64	4552.34
418.83	4395.53
419.02	4554.68
419.21	4533.62
419.39	4683.41
419.58	4472.76
419.77	4322.97
419.96	4519.57
420.15	4702.14
420.34	4587.45
420.53	4578.09
420.72	4765.33
420.91	4758.31
421.10	4973.64
421.29	4896.40
421.48	4823.84
421.67	4755.97
421.86	4865.97
422.05	4901.08
422.24	4858.95
422.43	5090.67
422.61	4905.76
422.80	4990.02
422.99	5027.47
423.18	5114.07
423.37	5071.94
423.56	5076.62
423.75	4959.60
423.94	4894.06
424.13	4542.98
424.32	4875.34
424.50	4959.60
424.69	5273.23
424.88	5167.90
425.07	5022.79
425.26	4968.96
425.45	5156.20
425.64	4975.98
425.83	5015.77
426.01	5179.61
426.20	5139.82
426.39	5032.15
426.58	5235.78
426.77	5060.24
426.96	5308.34
427.15	5067.26
427.33	5310.68
427.52	5247.48
427.71	5195.99
427.90	5261.52
428.09	5329.40
428.28	5446.43
428.46	5392.59
428.65	5514.30
428.84	5586.86
429.03	5816.23
429.22	5397.28
429.40	5516.64
429.59	5504.94
429.78	5535.37
429.97	5380.89
430.16	5460.47
430.34	5582.18
430.53	5804.53
430.72	5799.85
430.91	5802.19
431.10	5657.07
431.28	5741.33
431.47	5987.09
431.66	5933.26
431.85	5820.91
432.03	5916.87
432.22	6094.76
432.41	5881.77
432.60	5947.30
432.79	6033.90
432.97	6008.16
433.16	6043.26
433.35	6038.58
433.54	6181.35
433.72	6064.33
433.91	6108.80
434.10	6115.82
434.28	6260.93
434.47	6258.59
434.66	6120.50
434.85	6286.68
435.03	6417.75
435.22	6382.64
435.41	6651.80
435.59	6502.01
435.78	6525.41
435.97	6595.63
436.16	6715.00
436.34	6487.96
436.53	6558.18
436.72	6782.87
436.90	6572.22
437.09	6668.19
437.28	6560.52
437.46	6796.92
437.65	6656.48
437.84	6700.95
438.02	6956.07
438.21	6883.52
438.40	6892.88
438.58	7145.66
438.77	7082.46
438.96	6967.77
439.14	6995.86
439.33	7286.09
439.52	7424.18
439.70	7421.84
439.89	7328.22
440.08	7398.43
440.26	7475.67
440.45	7442.90
440.63	7676.96
440.82	7801.01
441.01	7595.04
441.19	7768.24
441.38	7644.19
441.57	7662.91
441.75	7747.17
441.94	8056.12
442.12	8016.33
442.31	8128.68
442.50	8060.80
442.68	8070.17
442.87	8154.43
443.05	8032.72
443.24	8159.11
443.43	8182.51
443.61	8262.09
443.80	8444.65
443.98	8102.93
444.17	7915.69
444.35	8245.71
444.54	8545.30
444.73	8463.38
444.91	8285.50
445.10	8329.97
445.28	8435.29
445.47	8475.08
445.65	8390.82
445.84	8465.72
446.02	8575.72
446.21	8458.70
446.39	8430.61
446.58	8652.96
446.77	8451.67
446.95	8425.93
447.14	8589.77
447.32	8652.96
447.51	8308.90
447.69	8631.90
447.88	8587.43
448.06	8645.94
448.25	8634.24
448.43	8692.75
448.62	8746.58
448.80	8552.32
448.99	8802.75
449.17	8851.91
449.36	8784.03
449.54	8931.48
449.73	9078.94
449.91	9102.34
450.10	9025.11
450.28	9217.03
450.46	9380.87
450.65	9064.89
450.83	9205.33
451.02	9263.84
451.20	9270.86
451.39	9364.48
451.57	9259.16
451.76	9092.98
451.94	9198.31
452.13	9380.87
452.31	9474.49
452.49	9100.00
452.68	9329.38
452.86	9287.25
453.05	9586.83
453.23	9514.28
453.42	9329.38
453.60	9404.27
453.78	9617.26
453.97	9472.15
454.15	9411.29
454.34	9530.66
454.52	9579.81
454.70	9544.70
454.89	9879.40
455.07	10120.48
455.26	9654.71
455.44	10068.98
455.62	9968.34
455.81	10057.28
455.99	10202.40
456.17	9963.66
456.36	10197.71
456.54	10333.47
456.73	10396.66
456.91	10597.95
457.09	10506.66
457.28	10560.50
457.46	10581.56
457.64	10377.94
457.83	10527.73
458.01	10356.87
458.19	10857.75
458.38	10640.08
458.56	10696.25
458.74	10785.19
458.93	10710.29
459.11	10808.59
459.29	10984.13
459.48	11136.27
459.66	10895.19
459.84	11012.22
460.03	11108.18
460.21	11091.80
460.39	11176.06
460.57	10967.75
460.76	11133.93
460.94	11534.16
461.12	11257.98
461.31	11389.05
461.49	11152.65
461.67	11353.94
461.85	11665.23
462.04	11414.79
462.22	11583.31
462.40	11800.98
462.59	11461.60
462.77	11524.80
462.95	11646.51
463.13	11651.19
463.32	11660.55
463.50	11899.28
463.68	11831.41
463.86	11812.68
464.05	11742.47
464.23	11985.88
464.41	11838.43
464.59	11702.68
464.78	12283.13
464.96	12287.81
465.14	11934.39
465.32	12133.34
465.50	12262.07
465.69	12067.80
465.87	12280.79
466.05	12250.36
466.23	12203.55
466.41	12264.41
466.60	12465.69
466.78	12423.56
466.96	12336.96
467.14	12336.96
467.32	12409.52
467.51	12716.13
467.69	12278.45
467.87	12540.59
468.05	12702.09
468.23	12582.72
468.41	12823.80
468.60	12549.95
468.78	12987.63
468.96	12573.36
469.14	12889.33
469.32	13212.32
469.50	12886.99
469.69	13071.89
469.87	12917.42
470.05	13191.26
470.23	13270.84
470.41	13378.50
470.59	13387.86
470.77	13130.41
470.95	13308.29
471.14	13881.72
471.32	13156.15
471.50	13589.15
471.68	13738.94
471.86	13851.29
472.04	14022.15
472.22	14012.79
472.40	13977.68
472.58	14052.58
472.77	14459.83
472.95	14445.79
473.13	14705.59
473.31	14342.80
473.49	14317.06
473.67	14200.03
473.85	14506.64
474.03	14796.87
474.21	14909.21
474.39	14988.79
474.57	14949.00
474.75	15012.20
474.93	15218.16
475.12	15136.24
475.30	15356.25
475.48	14981.77
475.66	15321.15
475.84	15126.88
476.02	15550.52
476.20	15440.51
476.38	15789.25
476.56	16273.74
476.74	16308.85
476.92	15957.77
477.10	15590.31
477.28	16114.59
477.46	16425.88
477.64	16594.40
477.82	16788.66
478.00	17188.89
478.18	16938.46
478.36	17146.76
478.54	17261.45
478.72	17263.79
478.90	17783.39
479.08	17703.81
479.26	17869.99
479.44	17757.64
479.62	18010.42
479.80	18143.83
479.98	18190.64
480.16	18761.73
480.34	18251.50
480.52	18778.12
480.70	18829.61
480.88	18616.62
481.06	18988.77
481.24	19007.49
481.41	19051.96
481.59	19522.41
481.77	19543.47
481.95	19850.08
482.13	19920.30
482.31	19690.93
482.49	20388.41
482.67	20531.18
482.85	20613.10
483.03	20854.17
483.21	20800.34
483.39	21032.05
483.57	21090.57
483.74	21406.54
483.92	21869.97
484.10	21331.64
484.28	22003.38
484.46	21902.73
484.64	22546.38
484.82	21799.75
485.00	22370.84
485.18	22892.78
485.35	23065.98
485.53	23438.12
485.71	23185.35
485.89	23634.73
486.07	23398.34
486.25	23363.23
486.43	23843.04
486.61	24081.77
486.78	24472.64
486.96	24458.60
487.14	24629.46
487.32	25067.14
487.50	25102.25
487.68	25156.08
487.85	25383.11
488.03	25607.80
488.21	26148.46
488.39	25783.34
488.57	26361.45
488.75	26450.39
488.92	26852.97
489.10	27042.55
489.28	26934.88
489.46	27234.47
489.64	27175.96
489.81	27644.07
489.99	27990.47
490.17	27718.96
490.35	28498.36
490.53	28704.33
490.70	28606.03
490.88	28659.86
491.06	29184.14
491.24	29188.82
491.41	29378.40
491.59	29530.54
491.77	29462.66
491.95	30022.05
492.13	29991.62
492.30	30181.21
492.48	30534.63
492.66	30616.55
492.84	30417.60
493.01	30661.02
493.19	30646.97
493.37	31248.49
493.54	31550.42
493.72	31571.49
493.90	31913.20
494.08	31936.61
494.25	32273.65
494.43	32264.28
494.61	32638.77
494.79	33207.52
494.96	32580.26
495.14	33067.09
495.32	33455.62
495.49	33722.44
495.67	33376.04
495.85	33809.04
496.02	34167.14
496.20	34225.65
496.38	34621.20
496.55	34314.59
496.73	34983.99
496.91	34789.72
497.09	34991.01
497.26	34951.22
497.44	35419.33
497.62	35824.24
497.79	36058.29
497.97	35906.16
498.14	36074.68
498.32	36275.96
498.50	36327.45
498.67	36706.62
498.85	36807.26
499.03	36671.51
499.20	36999.19
499.38	36882.16
499.56	36992.17
499.73	37511.77
499.91	37757.52
500.08	38153.07
500.26	37610.07
500.44	38033.71
500.61	38146.05
500.79	37919.02
500.97	38595.43
501.14	38756.93
501.32	38932.47
501.49	39110.35
501.67	39000.35
501.84	38813.10
502.02	39370.15
502.20	39412.28
502.37	39367.81
502.55	39246.10
502.72	39522.29
502.90	40226.79
503.07	40009.12
503.25	39749.32
503.43	39665.06
503.60	40776.81
503.78	40250.19
503.95	40212.74
504.13	41146.62
504.30	40800.22
504.48	41055.34
504.65	41104.49
504.83	41378.33
505.01	41436.84
505.18	41504.72
505.36	41970.49
505.53	41567.91
505.71	41869.84
505.88	41771.54
506.06	41846.44
506.23	42120.28
506.41	42377.74
506.58	42742.86
506.76	42377.74
506.93	43250.76
507.11	42703.07
507.28	42431.57
507.46	42855.21
507.63	43213.31
507.81	43702.48
507.98	43145.44
508.16	43276.51
508.33	43826.53
508.50	44112.08
508.68	44126.12
508.85	44261.87
509.03	44250.17
509.20	44149.53
509.38	44446.77
509.55	44676.15
509.73	44825.94
509.90	44891.48
510.08	44856.37
510.25	44999.14
510.42	45120.85
510.60	45443.84
510.77	45572.57
510.95	45567.89
511.12	45092.76
511.30	45509.38
511.47	45759.81
511.64	45748.11
511.82	46117.92
511.99	45958.76
512.17	46220.90
512.34	46155.36
512.51	46504.10
512.69	46848.16
512.86	46361.33
513.04	47309.25
513.21	46988.60
513.38	47213.29
513.56	46827.10
513.73	46955.83
513.90	47327.97
514.08	46780.29
514.25	47512.88
514.43	47810.12
514.60	47646.29
514.77	47461.38
514.95	48098.01
515.12	48002.05
515.29	47746.93
515.47	48470.15
515.64	48636.33
515.81	48397.60
515.99	48303.98
516.16	48374.19
516.33	48531.01
516.51	49045.93
516.68	48659.74
516.85	48926.56
517.03	49167.63
517.20	49179.34
517.37	49226.15
517.54	49214.44
517.72	49357.22
517.89	49338.49
518.06	49581.91
518.24	49790.22
518.41	49556.16
518.58	49406.37
518.75	49497.65
518.93	50185.77
519.10	49935.33
519.27	49909.58
519.45	49900.22
519.62	50244.28
519.79	50255.98
519.96	50314.50
520.14	50314.50
520.31	50646.85
520.48	50611.74
520.65	50405.78
520.83	50806.01
521.00	50908.99
521.17	50864.52
521.34	50770.90
521.52	51075.17
521.69	50698.34
521.86	51400.50
522.03	51229.65
522.20	51627.54
522.38	51777.33
522.55	51681.37
522.72	51313.90
522.89	51950.53
523.07	51915.42
523.24	51774.99
523.41	51990.32
523.58	51929.47
523.75	52147.14
523.92	52147.14
524.10	52339.06
524.27	52322.68
524.44	52285.23
524.61	52247.78
524.78	52423.32
524.96	52442.04
525.13	52645.67
525.30	52823.55
525.47	52498.22
525.64	52793.12
525.81	52509.92
525.98	52846.96
526.16	52736.95
526.33	52896.11
526.50	53310.38
526.67	53113.78
526.84	53179.31
527.01	52992.07
527.18	53235.48
527.36	53340.81
527.53	53233.14
527.70	53609.97
527.87	53663.80
528.04	53399.32
528.21	53593.59
528.38	53872.11
528.55	53574.86
528.72	53605.29
528.89	53563.16
529.07	53572.52
529.24	53546.78
529.41	53914.24
529.58	54026.59
529.75	53944.67
529.92	53869.77
530.09	54190.42
530.26	54078.08
530.43	54234.89
530.60	54068.72
530.77	54092.12
530.94	54120.21
531.11	54047.65
531.28	54349.58
531.46	54251.28
531.63	54560.23
531.80	54667.89
531.97	54415.11
532.14	54550.87
532.31	54728.75
532.48	54546.18
532.65	55018.97
532.82	54836.41
532.99	55007.27
533.16	54705.34
533.33	54890.24
533.50	55105.57
533.67	55047.06
533.84	54803.64
534.01	55042.38
534.18	54974.50
534.35	55573.68
534.52	55311.54
534.69	55517.51
534.86	55454.31
535.03	55119.62
535.20	55395.80
535.37	55517.51
535.54	55311.54
535.71	55451.97
535.88	55770.28
536.05	55618.15
536.22	55786.67
536.38	56004.34
536.55	56186.90
536.72	55807.73
536.89	55716.45
537.06	55903.70
537.23	55929.44
537.40	55716.45
537.57	55927.10
537.74	55987.95
537.91	56212.65
538.08	56198.60
538.25	55985.61
538.42	56119.02
538.59	56413.93
538.75	55950.51
538.92	56317.97
539.09	56320.31
539.26	56074.55
539.43	56498.19
539.60	56465.42
539.77	56378.82
539.94	56708.84
540.11	56647.99
540.28	56584.79
540.44	56537.98
540.61	56554.36
540.78	56647.99
540.95	56636.28
541.12	56610.54
541.29	56633.94
541.46	56711.18
541.62	56774.37
541.79	56870.34
541.96	56701.82
542.13	56821.19
542.30	57066.94
542.47	57165.24
542.63	56975.66
542.80	57052.90
542.97	57448.45
543.14	57530.37
543.31	57483.56
543.48	57544.41
543.64	57509.30
543.81	57631.01
543.98	57371.21
544.15	57574.84
544.32	57556.11
544.48	57684.84
544.65	57441.43
544.82	57776.12
544.99	57364.19
545.16	57778.46
545.32	57628.67
545.49	57729.31
545.66	57991.45
545.83	57808.89
546.00	57799.53
546.16	57909.53
546.33	57705.91
546.50	57708.25
546.67	57879.11
546.83	57605.26
547.00	57804.21
547.17	57832.30
547.34	57944.64
547.50	58110.82
547.67	58396.37
547.84	58195.08
548.00	58279.34
548.17	58459.56
548.34	58377.64
548.51	58241.89
548.67	58302.74
548.84	58272.32
549.01	58344.87
549.18	58461.90
549.34	58553.18
549.51	58564.88
549.68	58532.12
549.84	58567.23
550.01	58534.46
550.18	58597.65
550.34	58426.79
550.51	58684.25
550.68	58677.23
550.84	58344.87
551.01	58880.86
551.18	58536.80
551.34	58504.03
551.51	58735.74
551.68	58876.18
551.84	58773.19
552.01	58459.56
552.18	58894.90
552.34	58763.83
552.51	58913.62
552.68	58721.70
552.84	58892.56
553.01	59138.32
553.18	58953.41
553.34	59119.59
553.51	58831.71
553.67	59021.29
553.84	59084.48
554.01	59260.02
554.17	59100.87
554.34	59185.13
554.51	59187.47
554.67	59363.01
554.84	59070.44
555.00	59309.18
555.17	59054.06
555.33	59423.86
555.50	58911.28
555.67	59054.06
555.83	59175.76
556.00	59309.18
556.16	59571.32
556.33	59545.57
556.50	59374.71
556.66	59559.61
556.83	59288.11
556.99	59458.97
557.16	59407.48
557.32	59721.11
557.49	59845.16
557.65	59468.33
557.82	59662.60
557.98	59391.09
558.15	59597.06
558.32	59716.43
558.48	59625.15
558.65	59770.26
558.81	59646.21
558.98	59714.09
559.14	59517.48
559.31	59971.55
559.47	59910.69
559.64	59994.95
559.80	59819.41
559.97	60020.70
560.13	59798.35
560.30	59906.01
560.46	60032.40
560.63	59971.55
560.79	59819.41
560.96	60065.17
561.12	59948.14
561.29	59889.63
561.45	59924.74
561.61	60018.36
561.78	59894.31
561.94	59796.01
562.11	60009.00
562.27	60044.10
562.44	60111.98
562.60	60186.88
562.77	60086.23
562.93	60065.17
563.10	60140.07
563.26	60149.43
563.42	60406.89
563.59	60088.57
563.75	60025.38
563.92	60273.48
564.08	60128.36
564.24	60519.23
564.41	60266.45
564.57	60425.61
564.74	60404.55
564.90	60453.70
565.07	60453.70
565.23	60350.71
565.39	60133.04
565.56	60313.26
565.72	60111.98
565.88	60451.36
566.05	60048.78
566.21	60156.45
566.38	60465.40
566.54	60388.16
566.70	60573.06
566.87	60547.32
567.03	60395.18
567.19	60589.45
567.36	60540.30
567.52	60446.68
567.68	60755.63
567.85	60676.05
568.01	60481.78
568.17	60406.89
568.34	60725.20
568.50	60547.32
568.66	60498.17
568.83	60673.71
568.99	60512.21
569.15	60741.58
569.32	60699.45
569.48	60589.45
569.64	60615.19
569.81	60615.19
569.97	60631.58
570.13	60631.58
570.30	60608.17
570.46	60533.28
570.62	60622.22
570.78	60732.22
570.95	60587.11
571.11	60741.58
571.27	60640.94
571.43	60732.22
571.60	60811.80
571.76	60867.97
571.92	60676.05
572.09	60849.25
572.25	60767.33
572.41	60626.90
572.57	60605.83
572.74	60903.08
572.90	60645.62
573.06	60704.13
573.22	60837.54
573.38	60807.12
573.55	60732.22
573.71	61127.77
573.87	61052.87
574.03	60748.60
574.20	60973.30
574.36	60816.48
574.52	60781.37
574.68	60718.18
574.84	60891.38
575.01	60734.56
575.17	60940.53
575.33	60807.12
575.49	60718.18
575.65	60718.18
575.82	60980.32
575.98	60921.80
576.14	61048.19
576.30	60919.46
576.46	61017.77
576.62	60926.49
576.79	60877.33
576.95	60683.07
577.11	60963.93
577.27	60762.65
577.43	61104.37
577.59	61092.66
577.75	61052.87
577.92	60816.48
578.08	60982.66
578.24	61118.41
578.40	61254.16
578.56	61137.13
578.72	60942.87
578.88	61050.53
579.04	61176.92
579.21	60989.68
579.37	60994.36
579.53	61174.58
579.69	60952.23
579.85	60790.73
580.01	60968.61
580.17	60903.08
580.33	61041.17
580.49	61078.62
580.65	61052.87
580.82	61055.21
580.98	60891.38
581.14	61013.08
581.30	61258.84
581.46	61031.81
581.62	61099.68
581.78	61027.13
581.94	61205.01
582.10	61029.47
582.26	60973.30
582.42	61130.11
582.58	61036.49
582.74	60961.59
582.90	61104.37
583.06	61186.28
583.22	60999.04
583.38	61045.85
583.54	60992.02
583.70	61193.31
583.86	61237.78
584.02	61017.77
584.18	61109.05
584.34	61223.73
584.50	61134.79
584.66	61120.75
584.82	61141.81
584.98	61305.65
585.14	61275.22
585.30	61029.47
585.46	61212.03
585.62	61258.84
585.78	61380.55
585.94	60987.34
586.10	61336.08
586.26	61160.54
586.42	61244.80
586.58	61441.40
586.74	61258.84
586.90	61134.79
587.06	60996.70
587.22	61420.34
587.38	61144.16
587.54	61307.99
587.70	61247.14
587.86	61221.39
588.02	61202.67
588.18	61221.39
588.34	61289.27
588.49	61066.92
588.65	61193.31
588.81	61123.09
588.97	61450.77
589.13	61394.59
589.29	61478.85
589.45	61441.40
589.61	61467.15
589.77	61673.12
589.93	61577.15
590.08	61432.04
590.24	61516.30
590.40	61621.62
590.56	61722.27
590.72	61621.62
590.88	61315.01
591.04	61530.34
591.20	61691.84
591.35	61418.00
591.51	61853.34
591.67	61710.56
591.83	61682.48
591.99	61511.62
592.15	61343.10
592.31	61516.30
592.46	61591.20
592.62	61584.18
592.78	61586.52
592.94	61752.69
593.10	61619.28
593.26	61698.86
593.41	61439.06
593.57	61661.41
593.73	61495.24
593.89	61895.47
594.05	61759.72
594.20	61638.01
594.36	61822.91
594.52	61825.25
594.68	61588.86
594.84	61443.74
594.99	61668.44
595.15	61780.78
595.31	61616.94
595.47	61733.97
595.62	61560.77
595.78	61626.31
595.94	61726.95
596.10	61843.98
596.25	61726.95
596.41	61684.82
596.57	61738.65
596.73	61829.93
596.88	61799.50
597.04	61790.14
597.20	61787.80
597.36	61773.76
597.51	61890.79
597.67	61769.08
597.83	61577.15
597.99	61787.80
598.14	61740.99
598.30	61773.76
598.46	61825.25
598.61	62000.79
598.77	61719.93
598.93	61883.76
599.09	61783.12
599.24	62061.64
599.40	62092.07
599.56	61883.76
599.71	61792.48
599.87	62101.43
600.03	62007.81
600.18	61820.57
600.34	61883.76
600.50	62059.30
600.65	61829.93
600.81	62040.58
600.97	62003.13
601.12	61989.09
601.28	61946.96
601.44	61846.32
601.59	62110.80
601.75	61661.41
601.91	61996.11
602.06	61799.50
602.22	62092.07
602.37	62031.22
602.53	61759.72
602.69	61834.61
602.84	61717.59
603.00	61780.78
603.16	62042.92
603.31	61881.42
603.47	62035.90
603.62	61698.86
603.78	62063.99
603.94	61705.88
604.09	61944.62
604.25	61855.68
604.40	61869.72
604.56	61942.28
604.71	62061.64
604.87	61893.13
605.03	61914.19
605.18	61883.76
605.34	62028.88
605.49	61642.69
605.65	62019.52
605.80	61897.81
605.96	62127.18
606.12	62038.24
606.27	62061.64
606.43	61808.87
606.58	62141.22
606.74	61846.32
606.89	61881.42
607.05	61961.00
607.20	61928.23
607.36	61776.10
607.51	61888.45
607.67	61497.58
607.82	61918.87
607.98	61820.57
608.13	61858.02
608.29	61832.27
608.44	61736.31
608.60	61675.46
608.75	61633.33
608.91	61719.93
609.06	61591.20
609.22	62031.22
609.37	61865.04
609.53	61876.74
609.68	61724.61
609.84	61743.33
609.99	61787.80
610.15	61811.21
610.30	61630.99
610.46	61736.31
610.61	62028.88
610.76	61745.67
610.92	61605.24
611.07	61689.50
611.23	61549.07
611.38	61827.59
611.54	61874.40
611.69	61691.84
611.84	61799.50
612.00	61818.23
612.15	61733.97
612.31	61759.72
612.46	61670.78
612.62	61556.09
612.77	61586.52
612.92	61717.59
613.08	61865.04
613.23	61790.14
613.39	61654.39
613.54	61427.36
613.69	61422.68
613.85	61581.84
614.00	61785.46
614.15	61834.61
614.31	61642.69
614.46	61513.96
614.62	61600.56
614.77	61584.18
614.92	61598.22
615.08	61455.45
615.23	61549.07
615.38	61680.14
615.54	61462.47
615.69	61485.87
615.84	61584.18
616.00	61600.56
616.15	61439.06
616.30	61448.42
616.46	61228.41
616.61	61333.74
616.76	61469.49
616.92	61497.58
617.07	61403.95
617.22	61481.19
617.37	61289.27
617.53	61537.36
617.68	61333.74
617.83	61504.60
617.99	61469.49
618.14	61347.78
618.29	61666.09
618.45	61254.16
618.60	61263.52
618.75	61148.84
618.90	61148.84
619.06	61289.27
619.21	61307.99
619.36	61436.72
619.51	61041.17
619.67	61090.32
619.82	61109.05
619.97	61333.74
620.12	61158.20
620.28	61169.90
620.43	61102.03
620.58	61169.90
620.73	61123.09
620.89	61254.16
621.04	61270.54
621.19	60973.30
621.34	61190.97
621.49	61083.30
621.65	61118.41
621.80	61315.01
621.95	60898.40
622.10	61127.77
622.25	61045.85
622.41	60961.59
622.56	60940.53
622.71	61111.39
622.86	61062.24
623.01	60741.58
623.16	61167.56
623.32	61022.45
623.47	61120.75
623.62	60956.91
623.77	60919.46
623.92	61193.31
624.07	60963.93
624.23	60853.93
624.38	60832.86
624.53	60889.04
624.68	60863.29
624.83	61001.38
624.98	60996.70
625.13	60591.79
625.29	60825.84
625.44	60811.80
625.59	60676.05
625.74	60690.09
625.89	60662.00
626.04	60729.88
626.19	60701.79
626.34	60711.16
626.49	60605.83
626.65	60582.43
626.80	60640.94
626.95	60526.25
627.10	60449.02
627.25	60484.12
627.40	60491.15
627.55	60566.04
627.70	60423.27
627.85	60420.93
628.00	60500.51
628.15	60519.23
628.30	60416.25
628.45	60250.07
628.60	60315.61
628.76	60439.65
628.91	60568.38
629.06	60329.65
629.21	60474.76
629.36	60444.33
629.51	60299.22
629.66	60346.03
629.81	60069.85
629.96	60367.10
630.11	60278.16
630.26	60219.64
630.41	60404.55
630.56	60306.24
630.71	60140.07
630.86	60292.20
631.01	60198.58
631.16	60175.17
631.31	60229.01
631.46	59957.50
631.61	60161.13
631.76	60130.70
631.91	60275.82
632.06	60406.89
632.21	60093.25
632.36	60086.23
632.51	59770.26
632.66	59938.78
632.81	60004.31
632.96	60299.22
633.10	60013.68
633.25	60079.21
633.40	60177.51
633.55	60102.62
633.70	59784.30
633.85	59994.95
634.00	59831.11
634.15	59868.56
634.30	59725.79
634.45	59861.54
634.60	59779.62
634.75	59718.77
634.90	59765.58
635.05	59763.24
635.19	60039.42
635.34	59913.03
635.49	59817.07
635.64	59723.45
635.79	59608.76
635.94	59618.13
636.09	59716.43
636.24	59601.74
636.39	59660.26
636.53	59861.54
636.68	59791.33
636.83	60004.31
636.98	59788.98
637.13	59681.32
637.28	59505.78
637.43	59681.32
637.57	59821.75
637.72	59496.42
637.87	59788.98
638.02	59405.14
638.17	59613.44
638.32	59320.88
638.46	59215.55
638.61	59571.32
638.76	59758.56
638.91	59269.39
639.06	59505.78
639.20	59346.62
639.35	59199.17
639.50	59348.96
639.65	59407.48
639.80	59292.79
639.94	59341.94
640.09	59372.37
640.24	59393.43
640.39	59330.24
640.54	59274.07
640.68	59131.29
640.83	59491.74
640.98	59187.47
641.13	59194.49
641.27	59473.01
641.42	59327.90
641.57	59100.87
641.72	59318.54
641.86	59110.23
642.01	58993.20
642.16	58901.92
642.31	58941.71
642.45	59203.85
642.60	58908.94
642.75	59311.52
642.90	59056.40
643.04	59161.72
643.19	58920.65
643.34	58752.13
643.48	58965.12
643.63	58880.86
643.78	58932.35
643.93	58906.60
644.07	59021.29
644.22	58742.77
644.37	58541.48
644.51	58838.73
644.66	58922.99
644.81	58808.30
644.95	58745.11
645.10	58951.07
645.25	58742.77
645.39	58700.64
645.54	59011.93
645.69	59056.40
645.83	58831.71
645.98	58761.49
646.13	58724.04
646.27	58707.66
646.42	58705.32
646.57	58864.47
646.71	58546.16
646.86	58859.79
647.00	58801.28
647.15	58513.39
647.30	58719.36
647.44	58733.40
647.59	58539.14
647.74	58944.05
647.88	58431.47
648.03	58740.42
648.17	58754.47
648.32	58358.92
648.47	58522.76
648.61	58251.25
648.76	58679.57
648.90	58358.92
649.05	58459.56
649.20	58450.20
649.34	58497.01
649.49	58614.04
649.63	58581.27
649.78	58426.79
649.92	58536.80
650.07	58499.35
650.21	58237.21
650.36	58539.14
650.51	58213.80
650.65	58555.52
650.80	58401.05
650.94	58164.65
651.09	57923.58
651.23	58017.20
651.38	58295.72
651.52	58007.84
651.67	57902.51
651.81	58094.44
651.96	58155.29
652.10	58122.52
652.25	58019.54
652.39	57925.92
652.54	58136.57
652.68	57806.55
652.83	57832.30
652.97	57984.43
653.12	57954.00
653.26	58021.88
653.41	58061.67
653.55	57741.02
653.70	58061.67
653.84	58019.54
653.99	57719.95
654.13	57815.91
654.27	57776.12
654.42	57745.70
654.56	57827.62
654.71	57914.22
654.85	58094.44
655.00	57867.40
655.14	57691.86
655.29	57832.30
655.43	57897.83
655.57	57752.72
655.72	57635.69
655.86	57673.14
656.01	57654.42
656.15	57577.18
656.30	57616.97
656.44	57836.98
656.58	57542.07
656.73	57621.65
656.87	57717.61
657.01	57474.20
657.16	57621.65
657.30	57326.74
657.45	57497.60
657.59	57350.15
657.73	57240.14
657.88	57441.43
658.02	57577.18
658.16	57298.65
658.31	57179.29
658.45	57202.69
658.60	57193.33
658.74	57516.32
658.88	57244.82
659.03	57036.51
659.17	57043.54
659.31	57102.05
659.46	57188.65
659.60	57088.01
659.74	56982.68
659.89	57167.58
660.03	56942.89
660.17	57116.09
660.32	57045.88
660.46	57071.62
660.60	56982.68
660.74	56999.07
660.89	57109.07
661.03	56722.88
661.17	56612.88
661.32	56329.67
661.46	56734.59
661.60	56535.64
661.74	56535.64
661.89	56575.43
662.03	56470.11
662.17	56327.33
662.31	56385.85
662.46	56528.62
662.60	56502.87
662.74	56095.62
662.88	56191.58
663.03	56261.80
663.17	56442.02
663.31	56186.90
663.45	56097.96
663.60	56046.47
663.74	55920.08
663.88	55931.78
664.02	56032.42
664.17	55941.14
664.31	55770.28
664.45	55866.25
664.59	55714.11
664.73	55887.31
664.88	55543.25
665.02	55248.35
665.16	55767.94
665.30	55416.86
665.44	55594.74
665.59	55508.14
665.73	55580.70
665.87	55292.82
666.01	55496.44
666.15	55739.86
666.29	55449.63
666.44	55655.60
666.58	55164.09
666.72	55030.68
666.86	54906.63
667.00	55157.06
667.14	54962.80
667.28	54925.35
667.43	54972.16
667.57	54866.84
667.71	54932.37
667.85	55030.68
667.99	55075.15
668.13	54789.60
668.27	54443.20
668.41	54791.94
668.56	54396.39
668.70	54328.52
668.84	54330.86
668.98	54272.34
669.12	54047.65
669.26	54450.22
669.40	54632.78
669.54	54511.08
669.68	54328.52
669.82	54155.32
669.96	54354.26
670.10	54028.93
670.25	54368.30
670.39	54291.07
670.53	53893.18
670.67	54164.68
670.81	54094.46
670.95	53869.77
671.09	53815.94
671.23	53404.00
671.37	53766.79
671.51	53799.55
671.65	53764.45
671.79	53544.44
671.93	53303.36
672.07	53462.52
672.21	53581.88
672.35	53401.66
672.49	52870.36
672.63	52994.41
672.77	52844.62
672.91	52994.41
673.05	52591.84
673.19	52837.59
673.33	52390.55
673.47	52428.00
673.61	52652.69
673.75	52348.42
673.89	52430.34
674.03	52147.14
674.17	51772.65
674.31	52083.94
674.45	52016.07
674.59	52009.04
674.73	52074.58
674.87	51529.23
675.01	51784.35
675.15	51597.11
675.29	51636.90
675.43	51681.37
675.56	51723.50
675.70	51353.69
675.84	51325.61
675.98	50267.69
676.12	51351.35
676.26	51189.86
676.40	50906.65
676.54	50864.52
676.68	51007.29
676.82	50314.50
676.96	50534.51
677.10	50557.91
677.23	50363.65
677.37	50412.80
677.51	50162.36
677.65	49427.43
677.79	49186.36
677.93	49310.41
678.07	49256.57
678.21	49312.75
678.34	49062.31
678.48	49420.41
678.62	49034.22
678.76	48879.75
678.90	48701.87
679.04	48603.56
679.18	48844.64
679.31	48203.33
679.45	47945.87
679.59	48577.82
679.73	48149.50
679.87	47957.58
680.00	47192.22
680.14	47571.39
680.28	47629.90
680.42	47217.97
680.56	47461.38
680.70	47178.18
680.83	47267.12
680.97	46827.10
681.11	47105.62
681.25	46899.65
681.39	46674.96
681.52	46686.67
681.66	46461.97
681.80	46092.17
681.94	45888.54
682.07	45911.95
682.21	45439.16
682.35	45705.98
682.49	45820.67
682.62	45535.12
682.76	45294.05
682.90	45837.05
683.04	45343.20
683.17	44849.35
683.31	44498.26
683.45	44732.32
683.59	44404.64
683.72	44465.50
683.86	44416.35
684.00	44481.88
684.13	44170.59
684.27	43723.55
684.41	43997.39
684.55	43814.83
684.68	43931.86
684.82	43522.26
684.96	42817.76
685.09	43274.16
685.23	42703.07
685.37	42646.90
685.50	42763.93
685.64	42691.37
685.78	42590.73
685.91	42171.77
686.05	41968.15
686.19	41251.94
686.32	41848.78
686.46	41261.30
686.60	41125.55
686.73	41298.75
686.87	40975.76
687.01	40985.12
687.14	40938.31
687.28	40493.61
687.42	40514.67
687.55	40369.56
687.69	40905.54
687.82	40453.82
687.96	39765.70
688.10	39810.17
688.23	39796.13
688.37	39789.11
688.50	39358.45
688.64	38866.94
688.78	38637.56
688.91	38866.94
689.05	39201.63
689.18	38574.37
689.32	37666.24
689.46	37858.17
689.59	37785.61
689.73	38485.43
689.86	37876.89
690.00	37256.65
690.13	37460.27
690.27	37591.34
690.41	37731.78
690.54	36947.70
690.68	37490.70
690.81	37153.66
690.95	36950.04
691.08	36170.64
691.22	36203.41
691.35	35955.31
691.49	36285.33
691.62	36114.47
691.76	35833.60
691.89	35793.81
692.03	35849.99
692.16	35552.74
692.30	35086.97
692.43	35335.07
692.57	34635.25
692.70	34864.62
692.84	34609.50
692.97	34735.89
693.11	34363.75
693.24	34696.10
693.38	33972.88
693.51	34043.09
693.65	33474.34
693.78	33322.21
693.92	34026.71
694.05	33436.89
694.19	33514.13
694.32	33329.23
694.45	33589.03
694.59	33010.92
694.72	32821.33
694.86	32704.31
694.99	32353.23
695.13	32011.51
695.26	31948.31
695.39	31995.12
695.53	31653.40
695.66	32184.71
695.80	31175.94
695.93	31524.68
696.07	30689.10
696.20	30759.32
696.33	30782.73
696.47	31070.61
696.60	30649.32
696.73	30457.39
696.87	30448.03
697.00	30398.88
697.14	30761.66
697.27	30323.98
697.40	30141.42
697.54	30125.04
697.67	29687.36
697.80	29233.29
697.94	29504.79
698.07	29266.06
698.21	29247.33
698.34	29287.12
698.47	28643.48
698.61	28847.10
698.74	28823.70
698.87	28985.19
699.01	28252.61
699.14	28191.75
699.27	28240.90
699.40	28432.83
699.54	28196.43
699.67	27847.69
699.80	27695.56
699.94	27644.07
700.07	27197.02
700.20	27145.53
700.34	27016.80
700.47	26757.00
700.60	26445.71
700.73	26431.67
700.87	26139.10
701.00	26185.91
701.13	26223.36
701.26	26302.94
701.40	26539.33
701.53	25710.78
701.66	25631.21
701.79	25294.17
701.93	25149.06
702.06	25179.48
702.19	25188.85
702.32	25572.69
702.46	25266.08
702.59	25041.39
702.72	24751.17
702.85	24603.71
702.99	24907.98
703.12	24458.60
703.25	23929.64
703.38	23880.49
703.51	23817.29
703.65	23711.97
703.78	23173.64
703.91	23374.93
704.04	23316.42
704.17	23175.98
704.31	23246.20
704.44	23000.44
704.57	22806.18
704.70	22712.56
704.83	22679.79
704.96	22541.70
705.10	22583.83
705.23	22403.61
>>>>>End Processed Spectral Data<<<<<
