SpectraSuite Data File
++++++++++++++++++++++++++++++++++++
Date: Fri Oct 25 10:44:45 EDT 2013
User: price-jones
Dark Spectrum Present: No
Reference Spectrum Present: No
Number of Sampled Component Spectra: 1
Spectrometers: USB2+H05261
Integration Time (usec): 100000 (USB2+H05261)
Spectra Averaged: 1 (USB2+H05261)
Boxcar Smoothing: 0 (USB2+H05261)
Correct for Electrical Dark: No (USB2+H05261)
Strobe/Lamp Enabled: No (USB2+H05261)
Correct for Detector Non-linearity: No (USB2+H05261)
Correct for Stray Light: No (USB2+H05261)
Number of Pixels in Processed Spectrum: 2048
>>>>>Begin Processed Spectral Data<<<<<
365.73	161.50
365.92	161.50
366.12	161.50
366.32	72.56
366.52	44.47
366.72	91.28
366.91	0.00
367.11	28.09
367.31	72.56
367.51	30.43
367.70	0.00
367.90	0.00
368.10	112.35
368.30	49.15
368.49	18.72
368.69	9.36
368.89	58.51
369.09	0.00
369.28	58.51
369.48	0.00
369.68	81.92
369.87	91.28
370.07	63.19
370.27	110.01
370.47	227.03
370.66	304.27
370.86	463.43
371.06	440.02
371.25	400.23
371.45	383.85
371.65	379.17
371.84	477.47
372.04	381.51
372.24	454.06
372.44	475.13
372.63	475.13
372.83	517.26
373.03	566.41
373.22	496.19
373.42	507.90
373.62	440.02
373.81	505.56
374.01	503.22
374.21	599.18
374.40	503.22
374.60	554.71
374.79	543.00
374.99	599.18
375.19	585.13
375.38	554.71
375.58	505.56
375.78	540.66
375.97	543.00
376.17	636.63
376.37	538.32
376.56	606.20
376.76	620.24
376.95	554.71
377.15	540.66
377.35	641.31
377.54	578.11
377.74	634.29
377.93	664.71
378.13	636.63
378.33	655.35
378.52	587.47
378.72	643.65
378.91	603.86
379.11	582.79
379.31	587.47
379.50	617.90
379.70	580.45
379.89	692.80
380.09	594.50
380.28	713.86
380.48	610.88
380.68	681.10
380.87	671.73
381.07	695.14
381.26	734.93
381.46	634.29
381.65	561.73
381.85	645.99
382.04	610.88
382.24	650.67
382.43	702.16
382.63	690.46
382.83	664.71
383.02	730.25
383.22	709.18
383.41	718.54
383.61	699.82
383.80	713.86
384.00	636.63
384.19	753.65
384.39	713.86
384.58	777.06
384.78	791.10
384.97	788.76
385.17	765.36
385.36	739.61
385.56	718.54
385.75	692.80
385.95	711.52
386.14	809.83
386.34	739.61
386.53	784.08
386.72	763.01
386.92	823.87
387.11	786.42
387.31	795.78
387.50	772.38
387.70	695.14
387.89	774.72
388.09	795.78
388.28	744.29
388.48	791.10
388.67	823.87
388.86	908.13
389.06	798.12
389.25	922.17
389.45	931.53
389.64	954.94
389.84	1001.75
390.03	947.92
390.22	915.15
390.42	870.68
390.61	936.21
390.81	985.37
391.00	861.32
391.19	952.60
391.39	999.41
391.58	978.34
391.78	870.68
391.97	985.37
392.16	990.05
392.36	1025.15
392.55	971.32
392.75	961.96
392.94	926.85
393.13	1015.79
393.33	992.39
393.52	936.21
393.71	1029.84
393.91	987.71
394.10	1034.52
394.29	1020.47
394.49	1083.67
394.68	1102.39
394.88	1256.87
395.07	1048.56
395.26	1160.91
395.46	1163.25
395.65	1137.50
395.84	1144.52
396.04	1135.16
396.23	1100.05
396.42	1137.50
396.62	1205.38
396.81	1088.35
397.00	1163.25
397.19	1280.27
397.39	1310.70
397.58	1221.76
397.77	1284.95
397.97	1186.65
398.16	1259.21
398.35	1301.34
398.55	1394.96
398.74	1294.32
398.93	1345.81
399.12	1392.62
399.32	1256.87
399.51	1322.40
399.70	1380.92
399.90	1446.45
400.09	1425.39
400.28	1561.14
400.47	1439.43
400.67	1561.14
400.86	1483.90
401.05	1446.45
401.24	1519.01
401.44	1540.07
401.63	1577.52
401.82	1448.79
402.01	1479.22
402.21	1533.05
402.40	1547.09
402.59	1579.86
402.78	1526.03
402.97	1621.99
403.17	1664.12
403.36	1514.33
403.55	1554.12
403.74	1626.67
403.93	1591.56
404.13	1724.97
404.32	1743.70
404.51	1790.51
404.70	1724.97
404.89	1724.97
405.09	1818.60
405.28	1907.54
405.47	1753.06
405.66	1748.38
405.85	1827.96
406.05	1760.08
406.24	1769.44
406.43	1804.55
406.62	1839.66
406.81	1919.24
407.00	1818.60
407.20	1762.42
407.39	1834.98
407.58	1923.92
407.77	2017.54
407.96	1919.24
408.15	2038.61
408.34	1898.17
408.54	2066.69
408.73	2001.16
408.92	2038.61
409.11	2099.46
409.30	2010.52
409.49	2139.25
409.68	2019.88
409.87	2139.25
410.07	2132.23
410.26	2153.29
410.45	2146.27
410.64	2172.02
410.83	2218.83
411.02	2190.74
411.21	2225.85
411.40	2267.98
411.59	2225.85
411.78	2359.26
411.98	2331.17
412.17	2363.94
412.36	2338.20
412.55	2443.52
412.74	2408.41
412.93	2413.09
413.12	2443.52
413.31	2640.12
413.50	2520.76
413.69	2581.61
413.88	2679.91
414.07	2651.83
414.26	2588.63
414.45	2672.89
414.64	2677.57
414.83	2700.98
415.02	2752.47
415.22	2771.19
415.41	2775.88
415.60	2897.58
415.79	2806.30
415.98	2967.80
416.17	2932.69
416.36	2864.82
416.55	2928.01
416.74	2977.16
416.93	2970.14
417.12	3000.57
417.31	3148.02
417.50	3056.74
417.69	3185.47
417.88	3119.93
418.07	3115.25
418.26	3115.25
418.45	3112.91
418.64	3276.75
418.83	3318.88
419.02	3169.09
419.21	3297.81
419.39	3260.37
419.58	3180.79
419.77	3276.75
419.96	3410.16
420.15	3229.94
420.34	3211.22
420.53	3435.91
420.72	3412.50
420.91	3456.97
421.10	3407.82
421.29	3447.61
421.48	3365.69
421.67	3555.27
421.86	3522.51
422.05	3449.95
422.24	3351.65
422.43	3564.64
422.61	3515.48
422.80	3447.61
422.99	3452.29
423.18	3625.49
423.37	3716.77
423.56	3676.98
423.75	3609.11
423.94	3674.64
424.13	3459.31
424.32	3485.06
424.50	3585.70
424.69	3723.79
424.88	3754.22
425.07	3461.65
425.26	3529.53
425.45	3609.11
425.64	3604.42
425.83	3613.79
426.01	3801.03
426.20	3756.56
426.39	3674.64
426.58	3733.15
426.77	3578.68
426.96	3639.53
427.15	3672.30
427.33	3705.07
427.52	3749.54
427.71	3747.20
427.90	3716.77
428.09	4046.79
428.28	3843.16
428.46	3861.88
428.65	3831.46
428.84	3794.01
429.03	3899.33
429.22	3761.24
429.40	3688.68
429.59	3899.33
429.78	3604.42
429.97	3604.42
430.16	3763.58
430.34	3850.18
430.53	4023.38
430.72	3936.78
430.91	3901.67
431.10	3974.23
431.28	4119.34
431.47	4086.58
431.66	4273.82
431.85	4198.92
432.03	4198.92
432.22	4201.26
432.41	4241.05
432.60	4456.38
432.79	4362.76
432.97	4210.62
433.16	4329.99
433.35	4285.52
433.54	4243.39
433.72	4388.50
433.91	4294.88
434.10	4524.26
434.28	4521.92
434.47	4498.51
434.66	4381.48
434.85	4500.85
435.03	4601.49
435.22	4491.49
435.41	4624.90
435.59	4470.42
435.78	4631.92
435.97	4571.07
436.16	4554.68
436.34	4521.92
436.53	4739.58
436.72	4725.54
436.90	4683.41
437.09	4664.69
437.28	4606.17
437.46	4709.16
437.65	4734.90
437.84	4578.09
438.02	4807.46
438.21	4798.10
438.40	4777.03
438.58	4926.83
438.77	5006.41
438.96	4910.44
439.14	5203.01
439.33	5256.84
439.52	5107.05
439.70	5032.15
439.89	5132.79
440.08	5139.82
440.26	5130.45
440.45	5195.99
440.63	5345.78
440.82	5371.53
441.01	5334.08
441.19	5411.32
441.38	5469.83
441.57	5568.13
441.75	5537.71
441.94	5689.84
442.12	5640.69
442.31	5830.27
442.50	5816.23
442.68	5877.09
442.87	5853.68
443.05	5802.19
443.24	5895.81
443.43	5785.80
443.61	5797.51
443.80	5916.87
443.98	5832.62
444.17	5895.81
444.35	6085.39
444.54	5959.00
444.73	5994.11
444.91	5980.07
445.10	5902.83
445.28	6005.81
445.47	5867.72
445.65	5872.40
445.84	5970.71
446.02	6022.20
446.21	5980.07
446.39	5942.62
446.58	6059.65
446.77	6106.46
446.95	6019.86
447.14	6111.14
447.32	6326.47
447.51	6080.71
447.69	6050.28
447.88	6078.37
448.06	6258.59
448.25	6211.78
448.43	6101.78
448.62	6052.63
448.80	6115.82
448.99	6272.64
449.17	6239.87
449.36	6066.67
449.54	6321.79
449.73	6459.88
449.91	6221.14
450.10	6368.60
450.28	6555.84
450.46	6665.85
450.65	6590.95
450.83	6775.85
451.02	6429.45
451.20	6619.04
451.39	6553.50
451.57	6471.58
451.76	6494.99
451.94	6733.72
452.13	6630.74
452.31	6719.68
452.49	6438.81
452.68	6649.46
452.86	6506.69
453.05	6623.72
453.23	6775.85
453.42	6649.46
453.60	6738.40
453.78	6740.74
453.97	6799.26
454.15	6672.87
454.34	6691.59
454.52	6878.83
454.70	6874.15
454.89	6874.15
455.07	6794.58
455.26	6942.03
455.44	7101.19
455.62	6981.82
455.81	7091.82
455.99	7152.68
456.17	7117.57
456.36	6993.52
456.54	7241.62
456.73	7353.96
456.91	7433.54
457.09	7307.15
457.28	7576.31
457.46	7307.15
457.64	7456.95
457.83	7370.35
458.01	7375.03
458.19	7676.96
458.38	7400.77
458.56	7499.08
458.74	7541.21
458.93	7510.78
459.11	7623.12
459.29	7492.05
459.48	7688.66
459.66	7566.95
459.84	7660.57
460.03	7850.16
460.21	7831.43
460.39	7770.58
460.57	7747.17
460.76	7999.95
460.94	7833.77
461.12	7943.78
461.31	8021.02
461.49	8081.87
461.67	7896.97
461.85	8135.70
462.04	7953.14
462.22	8140.38
462.40	8124.00
462.59	7957.82
462.77	8243.37
462.95	8238.69
463.13	8107.62
463.32	7988.25
463.50	8400.18
463.68	8121.66
463.86	8191.88
464.05	8236.35
464.23	8278.47
464.41	8374.44
464.59	8173.15
464.78	8379.12
464.96	8215.28
465.14	8133.36
465.32	8479.76
465.50	8489.12
465.69	8432.95
465.87	8493.80
466.05	8458.70
466.23	8315.92
466.41	8552.32
466.60	8554.66
466.78	8327.63
466.96	8571.04
467.14	8594.45
467.32	8568.70
467.51	8528.91
467.69	8540.61
467.87	8821.48
468.05	8936.17
468.23	8475.08
468.41	8606.15
468.60	8674.03
468.78	8821.48
468.96	8678.71
469.14	8896.38
469.32	9158.52
469.50	8690.41
469.69	8734.88
469.87	8816.80
470.05	9050.85
470.23	8947.87
470.41	8954.89
470.59	9137.45
470.77	8945.53
470.95	9219.37
471.14	9392.57
471.32	9207.67
471.50	9249.80
471.68	9240.44
471.86	9378.53
472.04	9453.42
472.22	9743.65
472.40	9390.23
472.58	9390.23
472.77	9664.07
472.95	9935.57
473.13	9977.70
473.31	9736.63
473.49	9689.82
473.67	9741.31
473.85	9837.27
474.03	10012.81
474.21	10040.90
474.39	10193.03
474.57	10239.84
474.75	10104.09
474.93	10331.12
475.12	10188.35
475.30	10338.15
475.48	10473.90
475.66	10319.42
475.84	10501.98
476.02	10551.14
476.20	10501.98
476.38	10726.68
476.56	10937.32
476.74	10993.50
476.92	11098.82
477.10	11037.97
477.28	11136.27
477.46	11307.13
477.64	10974.77
477.82	11332.87
478.00	11475.65
478.18	11377.34
478.36	11674.59
478.54	11721.40
478.72	11625.44
478.90	11831.41
479.08	11988.22
479.26	12147.38
479.44	12283.13
479.62	12383.77
479.80	12191.85
479.98	12266.75
480.16	12638.89
480.34	12341.64
480.52	12542.93
480.70	12521.87
480.88	12390.80
481.06	12571.02
481.24	12779.32
481.41	12950.18
481.59	13062.53
481.77	13343.39
481.95	13092.96
482.13	13397.23
482.31	13530.64
482.49	13493.19
482.67	13710.86
482.85	13764.69
483.03	13734.26
483.21	14300.67
483.39	14146.20
483.57	14246.84
483.74	14403.66
483.92	14218.75
484.10	14216.41
484.28	14656.43
484.46	14841.34
484.64	15147.95
484.82	14782.82
485.00	14827.29
485.18	15304.76
485.35	15264.97
485.53	15246.25
485.71	15220.50
485.89	15594.99
486.07	15318.81
486.25	15723.72
486.43	15606.69
486.61	15653.50
486.78	16107.57
486.96	16053.73
487.14	16332.26
487.32	16278.43
487.50	16669.30
487.68	16893.99
487.85	17373.80
488.03	17207.62
488.21	17076.55
488.39	17092.93
488.57	17563.38
488.75	17612.53
488.92	17848.93
489.10	17942.55
489.28	18005.74
489.46	18054.89
489.64	17987.02
489.81	18740.67
489.99	18558.11
490.17	18609.60
490.35	18860.04
490.53	18810.89
490.70	18871.74
490.88	19138.56
491.06	19447.51
491.24	19307.08
491.41	19215.80
491.59	19662.84
491.77	19510.71
491.95	19578.58
492.13	20152.01
492.30	19915.62
492.48	19976.47
492.66	20159.03
492.84	20037.33
493.01	20657.57
493.19	20664.59
493.37	20886.94
493.54	20556.93
493.72	21046.10
493.90	20915.03
494.08	21219.30
494.25	21591.44
494.43	21434.63
494.61	21563.36
494.79	21507.18
494.96	21413.56
495.14	21734.21
495.32	22134.45
495.49	22085.30
495.67	22066.57
495.85	22258.49
496.02	22625.96
496.20	22735.96
496.38	22773.41
496.55	23190.03
496.73	23552.81
496.91	22998.10
497.09	22892.78
497.26	23323.44
497.44	23463.87
497.62	23353.87
497.79	23964.75
497.97	23370.25
498.14	23758.78
498.32	23889.85
498.50	24006.87
498.67	24091.13
498.85	24159.01
499.03	24119.22
499.20	24545.20
499.38	24453.92
499.56	24723.08
499.73	24404.77
499.91	24849.47
500.08	24730.10
500.26	24868.19
500.44	25001.60
500.61	24643.50
500.79	25298.85
500.97	24858.83
501.14	25572.69
501.32	25434.60
501.49	25577.37
501.67	25448.64
501.84	25465.03
502.02	25479.07
502.20	26054.84
502.37	25979.95
502.55	26125.06
502.72	26099.31
502.90	26473.80
503.07	25846.54
503.25	26375.50
503.43	26300.60
503.60	26457.42
503.78	26155.49
503.95	26382.52
504.13	26616.57
504.30	26382.52
504.48	26862.33
504.65	27178.30
504.83	27620.66
505.01	27285.97
505.18	27587.89
505.36	27372.57
505.53	27543.42
505.71	27360.86
505.88	27543.42
506.06	27498.95
506.23	27861.74
506.41	27501.29
506.58	27934.29
506.76	27934.29
506.93	27901.53
507.11	28238.56
507.28	28095.79
507.46	27894.50
507.63	28198.77
507.81	28212.82
507.98	28133.24
508.16	28350.91
508.33	28657.52
508.50	28790.93
508.68	28634.11
508.85	28877.53
509.03	29362.02
509.20	29163.08
509.38	29060.09
509.55	29249.67
509.73	29230.95
509.90	29411.17
510.08	29305.85
510.25	29589.05
510.42	29656.93
510.60	29869.92
510.77	29832.47
510.95	30270.15
511.12	29961.20
511.30	30078.22
511.47	30312.28
511.64	30366.11
511.82	30026.73
511.99	30171.85
512.17	30604.84
512.34	30326.32
512.51	30384.83
512.69	31023.80
512.86	30789.75
513.04	31098.70
513.21	30771.02
513.38	31164.23
513.56	31000.40
513.73	30738.26
513.90	31248.49
514.08	31000.40
514.25	31290.62
514.43	31419.35
514.60	31381.90
514.77	31276.58
514.95	31847.67
515.12	31686.17
515.29	31695.53
515.47	31915.54
515.64	31931.93
515.81	31545.74
515.99	31789.16
516.16	31833.63
516.33	31754.05
516.51	32112.15
516.68	31665.11
516.85	31999.80
517.03	31971.72
517.20	31960.02
517.37	32205.77
517.54	32622.39
517.72	32257.26
517.89	31765.75
518.06	32446.85
518.24	32591.96
518.41	32746.44
518.58	32341.52
518.75	32716.01
518.93	33118.58
519.10	32552.17
519.27	32713.67
519.45	32758.14
519.62	32952.40
519.79	33200.50
519.96	33310.50
520.14	33631.16
520.31	33240.29
520.48	33661.58
520.65	33387.74
520.83	33806.70
521.00	34087.56
521.17	33862.87
521.34	34190.55
521.52	34038.41
521.69	34345.02
521.86	34277.15
522.03	34291.19
522.20	34560.35
522.38	34497.16
522.55	34333.32
522.72	34370.77
522.89	34464.39
523.07	34859.94
523.24	34499.50
523.41	34904.41
523.58	34932.50
523.75	35173.57
523.92	35196.98
524.10	35412.31
524.27	35112.72
524.44	34890.37
524.61	35510.61
524.78	35559.76
524.96	35342.09
525.13	35187.61
525.30	35515.29
525.47	35955.31
525.64	35793.81
525.81	35723.60
525.98	35367.84
526.16	35482.52
526.33	35335.07
526.50	35901.48
526.67	35571.46
526.84	35489.54
527.01	35580.82
527.18	35562.10
527.36	36016.16
527.53	36416.40
527.70	36620.02
527.87	36275.96
528.04	36210.43
528.21	36374.27
528.38	36503.00
528.55	36809.61
528.72	36514.70
528.89	36608.32
529.07	36524.06
529.24	36758.11
529.41	36692.58
529.58	36596.62
529.75	36570.87
529.92	37050.68
530.09	36900.89
530.26	37188.77
530.43	37024.93
530.60	36914.93
530.77	37074.09
530.94	37605.39
531.11	37319.84
531.28	37020.25
531.46	37661.56
531.63	37762.20
531.80	37160.69
531.97	37469.64
532.14	37378.36
532.31	37308.14
532.48	37425.17
532.65	38082.86
532.82	37591.34
532.99	37794.97
533.16	37109.19
533.33	38068.81
533.50	37823.06
533.67	38321.59
533.84	37827.74
534.01	38129.67
534.18	37944.76
534.35	38188.18
534.52	37883.91
534.69	38539.26
534.86	38026.68
535.03	38424.57
535.20	39016.73
535.37	38700.76
535.54	39091.63
535.71	38892.68
535.88	38487.77
536.05	38899.70
536.22	38923.11
536.38	39091.63
536.55	38658.63
536.72	38754.59
536.89	38899.70
537.06	38609.48
537.23	38873.96
537.40	38918.43
537.57	38918.43
537.74	39171.21
537.91	39510.58
538.08	39643.99
538.25	38476.07
538.42	39227.38
538.59	39351.43
538.75	38773.31
538.92	39299.94
539.09	39468.45
539.26	39054.18
539.43	39194.61
539.60	39594.84
539.77	39367.81
539.94	39229.72
540.11	39040.14
540.28	39562.08
540.44	39908.47
540.61	39704.85
540.78	39311.64
540.95	39526.97
541.12	39431.01
541.29	39826.56
541.46	39934.22
541.62	39803.15
541.79	39974.01
541.96	39613.57
542.13	39412.28
542.30	39643.99
542.47	39882.73
542.63	40210.40
542.80	40360.20
542.97	40624.68
543.14	40568.51
543.31	40528.72
543.48	40828.30
543.64	41226.20
543.81	40891.50
543.98	41006.19
544.15	40727.66
544.32	41251.94
544.48	41254.28
544.65	40727.66
544.82	41104.49
544.99	40753.41
545.16	41429.82
545.32	41167.68
545.49	41090.44
545.66	41579.62
545.83	41249.60
546.00	41273.01
546.16	41453.23
546.33	41495.36
546.50	41165.34
546.67	41345.56
546.83	41151.30
547.00	41247.26
547.17	41350.24
547.34	41294.07
547.50	41198.11
547.67	41846.44
547.84	41689.62
548.00	41834.74
548.17	41949.42
548.34	41539.83
548.51	42007.94
548.67	42043.04
548.84	41570.25
549.01	41549.19
549.18	41460.25
549.34	41851.12
549.51	41598.34
549.68	41904.95
549.84	42054.75
550.01	42319.23
550.18	42351.99
550.34	41804.31
550.51	41818.35
550.68	42087.51
550.84	41734.09
551.01	42141.35
551.18	42071.13
551.34	41986.87
551.51	42213.90
551.68	42508.81
551.84	42623.50
552.01	42274.76
552.18	42267.73
552.34	42202.20
552.51	41979.85
552.68	42422.21
552.84	42796.70
553.01	42967.55
553.18	42581.37
553.34	42988.62
553.51	42630.52
553.67	42569.66
553.84	42508.81
554.01	42642.22
554.17	42979.26
554.34	42850.53
554.51	42801.38
554.67	42953.51
554.84	42780.31
555.00	42930.11
555.17	43168.84
555.33	43267.14
555.50	43058.84
555.67	42674.99
555.83	42878.61
556.00	43063.52
556.16	43463.75
556.33	43023.73
556.50	43203.95
556.66	43047.13
556.83	42703.07
556.99	43255.44
557.16	43791.42
557.32	43367.79
557.49	43388.85
557.65	43337.36
557.82	43557.37
557.98	43707.16
558.15	43466.09
558.32	43346.72
558.48	43395.87
558.65	43536.30
558.81	43117.35
558.98	43409.92
559.14	43482.47
559.31	43203.95
559.47	43643.97
559.64	43648.65
559.80	43545.67
559.97	43409.92
560.13	43335.02
560.30	43576.09
560.46	43498.86
560.63	43337.36
560.79	43885.04
560.96	44037.18
561.12	43526.94
561.29	43529.28
561.45	43791.42
561.61	43344.38
561.78	43632.27
561.94	43819.51
562.11	43887.39
562.27	43936.54
562.44	44058.24
562.60	43789.08
562.77	44116.76
562.93	44165.91
563.10	43885.04
563.26	43477.79
563.42	43971.64
563.59	43323.32
563.75	43838.23
563.92	43723.55
564.08	44018.46
564.24	44156.55
564.41	43985.69
564.57	43419.28
564.74	43952.92
564.90	44091.01
565.07	44191.65
565.23	44046.54
565.39	44053.56
565.56	44025.48
565.72	44229.10
565.88	44383.58
566.05	44074.63
566.21	44399.96
566.38	44238.47
566.54	44006.75
566.70	44566.14
566.87	44570.82
567.03	44488.90
567.19	44587.21
567.36	44245.49
567.52	44383.58
567.68	44046.54
567.85	44083.99
568.01	44189.31
568.17	43981.01
568.34	44315.70
568.50	44587.21
568.66	43959.94
568.83	44093.35
568.99	43978.67
569.15	44236.12
569.32	44076.97
569.48	43906.11
569.64	44619.97
569.81	44217.40
569.97	44306.34
570.13	44215.06
570.30	44144.84
570.46	44189.31
570.62	44196.34
570.78	44210.38
570.95	44074.63
571.11	44299.32
571.27	44533.37
571.43	44208.04
571.60	44266.55
571.76	44275.91
571.92	44135.48
572.09	44362.51
572.25	44416.35
572.41	44154.21
572.57	44514.65
572.74	44491.24
572.90	44526.35
573.06	44648.06
573.22	44577.84
573.38	44432.73
573.55	44250.17
573.71	44516.99
573.87	44470.18
574.03	44676.15
574.20	44814.24
574.36	44493.58
574.52	44467.84
574.68	44678.49
574.84	44807.22
575.01	44287.62
575.17	44634.02
575.33	44004.41
575.49	44259.53
575.65	44339.11
575.82	44783.81
575.98	44266.55
576.14	44905.52
576.30	44968.71
576.46	44500.61
576.62	44383.58
576.79	44423.37
576.95	44470.18
577.11	44500.61
577.27	44416.35
577.43	44603.59
577.59	44502.95
577.75	44575.50
577.92	44004.41
578.08	44264.21
578.24	44311.02
578.40	44465.50
578.56	44514.65
578.72	44795.51
578.88	44746.36
579.04	44531.03
579.21	44493.58
579.37	44727.64
579.53	44987.44
579.69	44704.23
579.85	44435.07
580.01	44907.86
580.17	44786.15
580.33	44985.10
580.49	44371.88
580.65	44886.79
580.82	44851.69
580.98	44519.33
581.14	44486.56
581.30	45034.25
581.46	44622.31
581.62	45008.50
581.78	44706.57
581.94	44250.17
582.10	44416.35
582.26	44449.11
582.42	44919.56
582.58	44362.51
582.74	44678.49
582.90	45172.34
583.06	44968.71
583.22	44863.39
583.38	45350.22
583.54	44643.38
583.70	44828.28
583.86	44872.75
584.02	44772.11
584.18	44669.12
584.34	44364.85
584.50	44374.22
584.66	44570.82
584.82	44374.22
584.98	44844.66
585.14	44825.94
585.30	44603.59
585.46	44987.44
585.62	44629.34
585.78	44949.99
585.94	44425.71
586.10	44720.62
586.26	44692.53
586.42	45268.30
586.58	44945.31
586.74	44947.65
586.90	44804.88
587.06	44788.49
587.22	44421.03
587.38	44322.72
587.54	44727.64
587.70	44673.81
587.86	44872.75
588.02	44744.02
588.18	45256.60
588.34	45020.20
588.49	44362.51
588.65	44355.49
588.81	44540.39
588.97	44772.11
589.13	44201.02
589.29	44669.12
589.45	44821.26
589.61	44430.39
589.77	44818.92
589.93	44680.83
590.08	44839.98
590.24	44669.12
590.40	44968.71
590.56	45181.70
590.72	45186.38
590.88	44816.58
591.04	44959.35
591.20	45326.81
591.35	45298.73
591.51	45380.65
591.67	45315.11
591.83	45202.77
591.99	44610.61
592.15	45048.29
592.31	44767.43
592.46	45141.91
592.62	44975.73
592.78	45312.77
592.94	45057.65
593.10	44985.10
593.26	45160.64
593.41	44907.86
593.57	44755.72
593.73	44617.63
593.89	45448.52
594.05	45090.42
594.20	44889.13
594.36	44877.43
594.52	44863.39
594.68	45013.18
594.84	44500.61
594.99	45111.49
595.15	44847.00
595.31	45282.34
595.47	44596.57
595.62	44982.76
595.78	45017.86
595.94	44966.37
596.10	44947.65
596.25	45404.05
596.41	45092.76
596.57	45095.10
596.73	44818.92
596.88	44861.05
597.04	44907.86
597.20	45162.98
597.36	45296.39
597.51	45490.65
597.67	45382.99
597.83	45256.60
597.99	45160.64
598.14	45062.33
598.30	44582.52
598.46	44666.78
598.61	45015.52
598.77	44617.63
598.93	44729.98
599.09	45146.59
599.24	45336.18
599.40	45237.87
599.56	45006.16
599.71	45139.57
599.87	45134.89
600.03	45483.63
600.18	45177.02
600.34	45230.85
600.50	44868.07
600.65	44931.26
600.81	45687.26
600.97	45394.69
601.12	45001.48
601.28	45549.17
601.44	45724.71
601.59	44669.12
601.75	44542.74
601.91	45319.79
602.06	44671.46
602.22	45324.47
602.37	44772.11
602.53	44961.69
602.69	45347.88
602.84	44999.14
603.00	44795.51
603.16	45132.55
603.31	44863.39
603.47	45249.58
603.62	45385.33
603.78	45319.79
603.94	45296.39
604.09	45418.10
604.25	45485.97
604.40	44769.77
604.56	45078.72
604.71	45074.04
604.87	44905.52
605.03	44568.48
605.18	44800.19
605.34	44898.50
605.49	44966.37
605.65	45104.46
605.80	44807.22
605.96	44907.86
606.12	45106.80
606.27	45219.15
606.43	44451.45
606.58	45125.53
606.74	44788.49
606.89	44804.88
607.05	45336.18
607.20	45031.91
607.36	44807.22
607.51	44369.54
607.67	44673.81
607.82	44783.81
607.98	45162.98
608.13	44493.58
608.29	45055.31
608.44	44945.31
608.60	44458.48
608.75	44318.04
608.91	44631.68
609.06	44907.86
609.22	44935.95
609.37	44666.78
609.53	44414.01
609.68	45212.13
609.84	44350.81
609.99	44404.64
610.15	44285.28
610.30	44641.04
610.46	44238.47
610.61	44739.34
610.76	44783.81
610.92	44376.56
611.07	44617.63
611.23	44528.69
611.38	44280.60
611.54	44634.02
611.69	44414.01
611.84	44390.60
612.00	44779.13
612.15	43922.49
612.31	44320.38
612.46	44208.04
612.62	44451.45
612.77	44189.31
612.92	44100.37
613.08	44285.28
613.23	44453.79
613.39	44402.30
613.54	43910.79
613.69	44140.16
613.85	44250.17
614.00	44184.63
614.15	44603.59
614.31	44390.60
614.46	44446.77
614.62	43952.92
614.77	43845.26
614.92	43861.64
615.08	44170.59
615.23	43599.50
615.38	43995.05
615.54	43538.65
615.69	43868.66
615.84	43555.03
616.00	44098.03
616.15	43885.04
616.30	44507.63
616.46	43423.96
616.61	43489.49
616.76	43796.10
616.92	42904.36
617.07	43292.89
617.22	43405.23
617.37	43110.33
617.53	43945.90
617.68	43501.20
617.83	43929.51
617.99	43686.10
618.14	43360.76
618.29	43505.88
618.45	43044.79
618.60	42763.93
618.75	43658.01
618.90	43215.65
619.06	43798.44
619.21	43494.18
619.36	43840.57
619.51	43536.30
619.67	43438.00
619.82	43613.54
619.97	43882.70
620.12	43409.92
620.28	42923.08
620.43	43007.34
620.58	43262.46
620.73	43447.36
620.89	43082.24
621.04	43323.32
621.19	42871.59
621.34	43070.54
621.49	43283.53
621.65	43297.57
621.80	43065.86
621.95	42646.90
622.10	43000.32
622.25	43000.32
622.41	42447.96
622.56	42990.96
622.71	42546.26
622.86	42583.71
623.01	42770.95
623.16	42902.02
623.32	42672.65
623.47	43005.00
623.62	42827.12
623.77	42274.76
623.92	42586.05
624.07	42602.43
624.23	42382.42
624.38	42122.62
624.53	42199.86
624.68	42600.09
624.83	42443.27
624.98	42223.26
625.13	42382.42
625.29	42618.81
625.44	42279.44
625.59	42066.45
625.74	41752.82
625.89	41766.86
626.04	42094.53
626.19	42230.29
626.34	42234.97
626.49	42607.11
626.65	42323.91
626.80	42340.29
626.95	42679.67
627.10	42202.20
627.25	42143.69
627.40	41783.24
627.55	41352.58
627.70	41635.79
627.85	41556.21
628.00	41715.37
628.15	41413.44
628.30	41645.15
628.45	41853.46
628.60	41649.83
628.76	42087.51
628.91	41879.21
629.06	41310.46
629.21	41546.85
629.36	41153.64
629.51	41507.06
629.66	41668.56
629.81	41120.87
629.96	41701.32
630.11	41825.37
630.26	42153.05
630.41	41642.81
630.56	41862.82
630.71	41708.35
630.86	41191.09
631.01	41254.28
631.16	41357.27
631.31	41041.29
631.46	40935.97
631.61	41020.23
631.76	41111.51
631.91	40982.78
632.06	41060.02
632.21	41420.46
632.36	41560.89
632.51	40968.74
632.66	41324.50
632.81	40680.85
632.96	41308.11
633.10	40601.27
633.25	40982.78
633.40	40945.33
633.55	41219.17
633.70	40587.23
633.85	40568.51
634.00	40730.00
634.15	40751.07
634.30	40882.14
634.45	40875.12
634.60	40741.71
634.75	40325.09
634.90	40507.65
635.05	40769.79
635.19	40921.93
635.34	40346.15
635.49	40528.72
635.64	40233.81
635.79	40659.79
635.94	40236.15
636.09	40280.62
636.24	40512.33
636.39	40222.11
636.53	40245.51
636.68	40144.87
636.83	40416.37
636.98	40222.11
637.13	40030.18
637.28	40208.06
637.43	40559.14
637.57	40425.73
637.72	40170.61
637.87	40353.18
638.02	40210.40
638.17	40374.24
638.32	40285.30
638.46	39770.38
638.61	40062.95
638.76	39927.20
638.91	39929.54
639.06	40119.12
639.20	39826.56
639.35	40020.82
639.50	40009.12
639.65	40128.48
639.80	39901.45
639.94	39793.79
640.09	39735.27
640.24	39501.22
640.39	39416.96
640.54	39461.43
640.68	39730.59
640.83	39454.41
640.98	39648.68
641.13	39557.39
641.27	40002.10
641.42	39728.25
641.57	39494.20
641.72	39545.69
641.86	39449.73
642.01	39445.05
642.16	39332.70
642.31	39414.62
642.45	39906.13
642.60	39058.86
642.75	39283.55
642.90	39026.09
643.04	39187.59
643.19	39337.38
643.34	39625.27
643.48	39091.63
643.63	38822.47
643.78	38792.04
643.93	38714.80
644.07	39037.80
644.22	38780.34
644.37	38719.48
644.51	38932.47
644.66	38976.94
644.81	39105.67
644.95	38927.79
645.10	39210.99
645.25	39159.50
645.39	39035.45
645.54	38972.26
645.69	38436.28
645.83	38895.02
645.98	38621.18
646.13	38934.81
646.27	39145.46
646.42	38703.10
646.57	39047.16
646.71	38864.60
646.86	38653.95
647.00	38841.19
647.15	38679.69
647.30	38447.98
647.44	38139.03
647.59	38534.58
647.74	38946.51
647.88	38712.46
648.03	38909.07
648.17	38174.14
648.32	38352.02
648.47	38227.97
648.61	38220.95
648.76	38370.74
648.90	38359.04
649.05	38101.58
649.20	38169.46
649.34	38293.50
649.49	37736.46
649.63	38337.98
649.78	38279.46
649.92	38326.27
650.07	38389.47
650.21	38218.61
650.36	37682.62
650.51	37895.61
650.65	38319.25
650.80	38565.01
650.94	38061.79
651.09	37986.89
651.23	37888.59
651.38	38305.21
651.52	37493.04
651.67	37469.64
651.81	37593.68
651.96	37724.75
652.10	37687.31
652.25	37684.97
652.39	37867.53
652.54	37691.99
652.68	38078.18
652.83	37502.40
652.97	37972.85
653.12	37809.01
653.26	37743.48
653.41	37874.55
653.55	37268.35
653.70	37083.45
653.84	37200.47
653.99	37095.15
654.13	37476.66
654.27	37329.20
654.42	37251.97
654.56	37235.58
654.71	37549.21
654.85	37635.81
655.00	37441.55
655.14	36858.76
655.29	37228.56
655.43	37095.15
655.57	36877.48
655.72	36594.28
655.86	36730.03
656.01	36510.02
656.15	36383.63
656.30	36947.70
656.44	36737.05
656.58	36715.98
656.73	36573.21
656.87	36828.33
657.01	36474.91
657.16	36964.08
657.30	36437.46
657.45	36154.26
657.59	36701.94
657.73	35861.69
657.88	36730.03
658.02	36861.10
658.16	36774.50
658.31	36631.72
658.45	36573.21
658.60	36261.92
658.74	36591.94
658.88	36645.77
659.03	36121.49
659.17	36357.88
659.31	35906.16
659.46	36285.33
659.60	36079.36
659.74	36074.68
659.89	36165.96
660.03	35868.71
660.17	36006.80
660.32	35908.50
660.46	36266.60
660.60	35845.30
660.74	36294.69
660.89	35864.03
661.03	35758.70
661.17	35269.53
661.32	35655.72
661.46	35297.62
661.60	35456.78
661.74	35562.10
661.89	35770.41
662.03	35718.92
662.17	35189.95
662.31	35084.63
662.46	35674.45
662.60	35330.39
662.74	35489.54
662.88	34993.35
663.03	34813.13
663.17	35042.50
663.31	35283.58
663.45	35248.47
663.60	34864.62
663.74	34703.12
663.88	34913.77
664.02	34625.89
664.17	34822.49
664.31	34185.86
664.45	34494.82
664.59	34597.80
664.73	34162.46
664.88	34625.89
665.02	34134.37
665.16	34408.22
665.30	33769.25
665.44	34438.64
665.59	34696.10
665.73	34143.74
665.87	34263.10
666.01	34120.33
666.15	34089.90
666.29	34045.43
666.44	34176.50
666.58	33682.65
666.72	33640.52
666.86	34036.07
667.00	33905.00
667.14	33727.12
667.28	33490.73
667.43	33708.40
667.57	33670.95
667.71	33390.08
667.85	33642.86
667.99	33689.67
668.13	33497.75
668.27	32966.45
668.41	33076.45
668.56	32811.97
668.70	33521.15
668.84	33448.60
668.98	32818.99
669.12	32222.16
669.26	32818.99
669.40	32685.58
669.54	32957.08
669.68	32826.01
669.82	32512.38
669.96	32182.37
670.10	32603.66
670.25	32549.83
670.39	32018.53
670.53	32531.11
670.67	31988.10
670.81	32620.05
670.95	32414.08
671.09	32428.12
671.23	32484.30
671.37	32311.10
671.51	32182.37
671.65	32102.79
671.79	32081.72
671.93	31974.06
672.07	32198.75
672.21	31997.46
672.35	32191.73
672.49	31974.06
672.63	31552.76
672.77	31545.74
672.91	31321.05
673.05	31182.96
673.19	31257.85
673.33	31274.24
673.47	31098.70
673.61	31197.00
673.75	31103.38
673.89	30728.89
674.03	30785.07
674.17	30443.35
674.31	30742.94
674.45	31000.40
674.59	30745.28
674.73	30824.86
674.87	30417.60
675.01	30375.47
675.15	30955.93
675.29	30595.48
675.43	30253.76
675.56	30190.57
675.70	30059.50
675.84	30202.27
675.98	29118.60
676.12	30110.99
676.26	29820.77
676.40	29790.34
676.54	29888.64
676.68	29799.70
676.82	29144.35
676.96	29462.66
677.10	29881.62
677.23	29277.76
677.37	29516.50
677.51	28879.87
677.65	29195.84
677.79	28645.82
677.93	28849.44
678.07	28809.65
678.21	28041.96
678.34	28472.62
678.48	28559.22
678.62	28084.09
678.76	27665.13
678.90	27852.38
679.04	28266.65
679.18	27974.08
679.31	27625.34
679.45	27733.01
679.59	27115.11
679.73	27264.90
679.87	27328.10
680.00	27475.55
680.14	27658.11
680.28	27351.50
680.42	27370.22
680.56	27182.98
680.70	27208.73
680.83	27307.03
680.97	27335.12
681.11	27304.69
681.25	26363.79
681.39	26579.12
681.52	26586.15
681.66	26707.85
681.80	26672.74
681.94	26331.03
682.07	26555.72
682.21	26457.42
682.35	26167.19
682.49	26038.46
682.62	26242.09
682.76	25816.11
682.90	25729.51
683.04	25649.93
683.17	25619.50
683.31	25413.54
683.45	25619.50
683.59	25397.15
683.72	25291.83
683.86	24865.85
684.00	25139.69
684.13	25034.37
684.27	25085.86
684.41	24830.74
684.55	24772.23
684.68	24613.07
684.82	24666.91
684.96	24563.92
685.09	24517.11
685.23	24610.73
685.37	24205.82
685.50	24273.70
685.64	24044.32
685.78	24074.75
685.91	24119.22
686.05	23711.97
686.19	23943.68
686.32	23878.15
686.46	23360.89
686.60	23115.13
686.73	23105.77
686.87	22920.87
687.01	23201.73
687.14	22757.03
687.28	23016.83
687.42	23077.68
687.55	22668.09
687.69	22775.75
687.82	22654.05
687.96	22663.41
688.10	22939.59
688.23	22644.68
688.37	22417.65
688.50	22171.89
688.64	22328.71
688.78	22295.94
688.91	21891.03
689.05	22305.31
689.18	22075.93
689.32	21509.52
689.46	21905.07
689.59	21579.74
689.73	21867.63
689.86	21640.59
690.00	21738.90
690.13	21408.88
690.27	21376.11
690.41	21125.68
690.54	20711.40
690.68	21123.33
690.81	20833.11
690.95	20702.04
691.08	20819.07
691.22	20903.32
691.35	20685.65
691.49	21020.35
691.62	21125.68
691.76	20657.57
691.89	20652.89
692.03	20414.15
692.16	19983.49
692.30	20030.30
692.43	20184.78
692.57	19817.32
692.70	19962.43
692.84	19957.75
692.97	19630.07
693.11	19665.18
693.24	19274.31
693.38	19449.85
693.51	19445.17
693.65	19431.13
693.78	19604.33
693.92	19641.78
694.05	19508.37
694.19	19229.84
694.32	19241.54
694.45	18497.25
694.59	18874.08
694.72	18925.57
694.86	18864.72
694.99	18813.23
695.13	18623.64
695.26	18597.90
695.39	18239.79
695.53	18513.64
695.66	18382.57
695.80	18443.42
695.93	18258.52
696.07	18050.21
696.20	17937.87
696.33	18057.23
696.47	18026.81
696.60	17612.53
696.73	17631.26
696.87	17598.49
697.00	17355.07
697.14	17537.63
697.27	17357.41
697.40	17556.36
697.54	17280.18
697.67	17118.68
697.80	17186.55
697.94	17011.01
698.07	16741.85
698.21	16872.92
698.34	16493.76
698.47	16549.93
698.61	16336.94
698.74	16573.33
698.87	16332.26
699.01	16051.39
699.14	16217.57
699.27	16170.76
699.40	16163.74
699.54	15913.30
699.67	15936.71
699.80	16107.57
699.94	15941.39
700.07	15803.30
700.20	15868.83
700.34	15592.65
700.47	15815.00
700.60	15920.32
700.73	15672.23
700.87	15538.82
701.00	15428.81
701.13	15489.67
701.26	15286.04
701.40	15103.48
701.53	15030.92
701.66	15279.02
701.79	14836.66
701.93	15161.99
702.06	14958.36
702.19	14918.57
702.32	14703.25
702.46	14759.42
702.59	14623.67
702.72	14593.24
702.85	14443.45
702.99	14604.94
703.12	14438.76
703.25	14242.16
703.38	14085.34
703.51	14146.20
703.65	14132.15
703.78	13944.91
703.91	13965.98
704.04	13879.38
704.17	14162.58
704.31	13778.73
704.44	13591.49
704.57	13745.97
704.70	13628.94
704.83	13514.25
704.96	13851.29
705.10	13631.28
705.23	13451.06
>>>>>End Processed Spectral Data<<<<<
