SpectraSuite Data File
++++++++++++++++++++++++++++++++++++
Date: Fri Oct 25 11:23:35 EDT 2013
User: price-jones
Dark Spectrum Present: No
Reference Spectrum Present: No
Number of Sampled Component Spectra: 1
Spectrometers: USB2+H05261
Integration Time (usec): 100000 (USB2+H05261)
Spectra Averaged: 1 (USB2+H05261)
Boxcar Smoothing: 0 (USB2+H05261)
Correct for Electrical Dark: No (USB2+H05261)
Strobe/Lamp Enabled: No (USB2+H05261)
Correct for Detector Non-linearity: No (USB2+H05261)
Correct for Stray Light: No (USB2+H05261)
Number of Pixels in Processed Spectrum: 2048
>>>>>Begin Processed Spectral Data<<<<<
365.73	285.55
365.92	285.55
366.12	285.55
366.32	149.79
366.52	86.60
366.72	100.64
366.91	37.45
367.11	117.03
367.31	88.94
367.51	126.39
367.70	93.62
367.90	180.22
368.10	81.92
368.30	77.24
368.49	119.37
368.69	135.75
368.89	86.60
369.09	128.73
369.28	72.56
369.48	156.82
369.68	124.05
369.87	280.86
370.07	184.90
370.27	222.35
370.47	346.40
370.66	582.79
370.86	599.18
371.06	594.50
371.25	669.39
371.45	638.97
371.65	683.44
371.84	636.63
372.04	671.73
372.24	770.04
372.44	643.65
372.63	692.80
372.83	699.82
373.03	779.40
373.22	702.16
373.42	772.38
373.62	770.04
373.81	805.14
374.01	828.55
374.21	849.61
374.40	800.46
374.60	784.08
374.79	840.25
374.99	835.57
375.19	765.36
375.38	880.04
375.58	880.04
375.78	812.17
375.97	814.51
376.17	910.47
376.37	861.32
376.56	863.66
376.76	858.98
376.95	844.93
377.15	894.08
377.35	896.43
377.54	875.36
377.74	908.13
377.93	936.21
378.13	875.36
378.33	903.45
378.52	945.58
378.72	943.24
378.91	940.90
379.11	880.04
379.31	947.92
379.50	929.19
379.70	952.60
379.89	1036.86
380.09	964.30
380.28	940.90
380.48	1062.60
380.68	952.60
380.87	945.58
381.07	954.94
381.26	1025.15
381.46	1057.92
381.65	938.55
381.85	1053.24
382.04	1071.97
382.24	1088.35
382.43	1100.05
382.63	1008.77
382.83	999.41
383.02	1043.88
383.22	1048.56
383.41	1004.09
383.61	1053.24
383.80	1083.67
384.00	1093.03
384.19	1137.50
384.39	1137.50
384.58	1137.50
384.78	1142.18
384.97	1027.50
385.17	1097.71
385.36	1069.62
385.56	1081.33
385.75	1100.05
385.95	1226.44
386.14	1221.76
386.34	1224.10
386.53	1090.69
386.72	1231.12
386.92	1280.27
387.11	1357.51
387.31	1275.59
387.50	1254.53
387.70	1203.04
387.89	1301.34
388.09	1231.12
388.28	1350.49
388.48	1315.38
388.67	1336.45
388.86	1308.36
389.06	1252.19
389.25	1320.06
389.45	1334.11
389.64	1425.39
389.84	1446.45
390.03	1320.06
390.22	1420.71
390.42	1301.34
390.61	1383.26
390.81	1371.55
391.00	1437.09
391.19	1392.62
391.39	1455.81
391.58	1483.90
391.78	1385.60
391.97	1481.56
392.16	1579.86
392.36	1568.16
392.55	1605.61
392.75	1521.35
392.94	1526.03
393.13	1547.09
393.33	1563.48
393.52	1535.39
393.71	1542.41
393.91	1537.73
394.10	1509.65
394.29	1523.69
394.49	1572.84
394.68	1654.76
394.88	1636.03
395.07	1582.20
395.26	1713.27
395.46	1593.90
395.65	1736.68
395.84	1619.65
396.04	1753.06
396.23	1842.00
396.42	1685.19
396.62	1767.10
396.81	1783.49
397.00	1811.57
397.19	1734.34
397.39	1757.74
397.58	1818.60
397.77	1795.19
397.97	1863.07
398.16	1839.66
398.35	1926.26
398.55	1872.43
398.74	1863.07
398.93	1919.24
399.12	1856.04
399.32	1963.71
399.51	1952.01
399.70	2050.31
399.90	1980.09
400.09	2052.65
400.28	2097.12
400.47	2071.37
400.67	2127.55
400.86	2010.52
401.05	2190.74
401.24	2127.55
401.44	2050.31
401.63	2043.29
401.82	2174.36
402.01	2050.31
402.21	2104.14
402.40	2286.70
402.59	2139.25
402.78	2204.78
402.97	2214.15
403.17	2289.04
403.36	2204.78
403.55	2370.96
403.74	2305.43
403.93	2230.53
404.13	2368.62
404.32	2347.56
404.51	2293.72
404.70	2429.48
404.89	2469.27
405.09	2504.37
405.28	2478.63
405.47	2499.69
405.66	2431.82
405.85	2490.33
406.05	2534.80
406.24	2415.43
406.43	2546.50
406.62	2677.57
406.81	2642.46
407.00	2499.69
407.20	2581.61
407.39	2593.31
407.58	2607.36
407.77	2717.36
407.96	2761.83
408.15	2747.79
408.34	2696.30
408.54	2665.87
408.73	2789.92
408.92	2729.06
409.11	2885.88
409.30	2876.52
409.49	2956.10
409.68	2972.48
409.87	2897.58
410.07	3056.74
410.26	3038.02
410.45	2953.76
410.64	3054.40
410.83	3089.51
411.02	3059.08
411.21	3155.04
411.40	3061.42
411.59	3330.58
411.78	3173.77
411.98	3187.81
412.17	3239.30
412.36	3351.65
412.55	3286.11
412.74	3358.67
412.93	3279.09
413.12	3288.45
413.31	3595.06
413.50	3475.70
413.69	3447.61
413.88	3632.51
414.07	3548.25
414.26	3599.74
414.45	3761.24
414.64	3592.72
414.83	3763.58
415.02	3749.54
415.22	3920.40
415.41	3880.61
415.60	3693.37
415.79	3871.25
415.98	3838.48
416.17	3946.14
416.36	3920.40
416.55	3889.97
416.74	4149.77
416.93	4093.60
417.12	4060.83
417.31	4194.24
417.50	4241.05
417.69	4119.34
417.88	4234.03
418.07	4224.67
418.26	4212.96
418.45	4432.97
418.64	4493.83
418.83	4458.72
419.02	4451.70
419.21	4627.24
419.39	4320.63
419.58	4414.25
419.77	4458.72
419.96	4657.67
420.15	4561.70
420.34	4566.39
420.53	4676.39
420.72	4674.05
420.91	4716.18
421.10	4798.10
421.29	4915.12
421.48	4739.58
421.67	4814.48
421.86	4805.12
422.05	4751.29
422.24	4779.37
422.43	4830.87
422.61	4898.74
422.80	4891.72
422.99	4905.76
423.18	5008.75
423.37	4931.51
423.56	4964.28
423.75	4936.19
423.94	4788.74
424.13	4681.07
424.32	4720.86
424.50	5006.41
424.69	5203.01
424.88	4985.34
425.07	4858.95
425.26	4865.97
425.45	5011.09
425.64	5029.81
425.83	4968.96
426.01	5139.82
426.20	4915.12
426.39	5088.32
426.58	5034.49
426.77	5130.45
426.96	5132.79
427.15	5097.69
427.33	5376.21
427.52	5165.56
427.71	5315.36
427.90	5242.80
428.09	5331.74
428.28	5390.25
428.46	5387.91
428.65	5296.63
428.84	5427.70
429.03	5481.53
429.22	5380.89
429.40	5481.53
429.59	5561.11
429.78	5130.45
429.97	5348.12
430.16	5535.37
430.34	5699.20
430.53	5593.88
430.72	5657.07
430.91	5603.24
431.10	5493.24
431.28	5724.95
431.47	5792.83
431.66	5933.26
431.85	5753.04
432.03	5944.96
432.22	5893.47
432.41	5844.32
432.60	5895.81
432.79	5935.60
432.97	5933.26
433.16	6036.24
433.35	5959.00
433.54	6005.81
433.72	6221.14
433.91	5921.56
434.10	6176.67
434.28	6106.46
434.47	6197.74
434.66	6078.37
434.85	6366.26
435.03	6347.53
435.22	6289.02
435.41	6569.88
435.59	6279.66
435.78	6640.10
435.97	6384.98
436.16	6349.87
436.34	6375.62
436.53	6492.65
436.72	6715.00
436.90	6333.49
437.09	6647.12
437.28	6455.20
437.46	6623.72
437.65	6621.38
437.84	6787.55
438.02	6731.38
438.21	6691.59
438.40	6567.54
438.58	6949.05
438.77	6995.86
438.96	6916.28
439.14	7019.27
439.33	7112.89
439.52	7157.36
439.70	7253.32
439.89	7463.97
440.08	7480.35
440.26	7260.34
440.45	7328.22
440.63	7459.29
440.82	7583.34
441.01	7396.09
441.19	7531.84
441.38	7676.96
441.57	7700.36
441.75	7847.82
441.94	7997.61
442.12	7683.98
442.31	8063.15
442.50	8079.53
442.68	7978.89
442.87	8147.40
443.05	8234.00
443.24	8285.50
443.43	8308.90
443.61	8166.13
443.80	8547.64
443.98	8091.23
444.17	7962.50
444.35	8147.40
444.54	8318.26
444.73	8362.73
444.91	8133.36
445.10	8336.99
445.28	8283.16
445.47	8229.32
445.65	8393.16
445.84	8493.80
446.02	8463.38
446.21	8411.89
446.39	8533.59
446.58	8617.85
446.77	8407.20
446.95	8234.00
447.14	8500.83
447.32	8542.96
447.51	8505.51
447.69	8547.64
447.88	8463.38
448.06	8610.83
448.25	8280.82
448.43	8648.28
448.62	8388.48
448.80	8655.30
448.99	8727.86
449.17	8877.65
449.36	8725.52
449.54	8901.06
449.73	9015.74
449.91	8894.04
450.10	8997.02
450.28	9123.41
450.46	9060.21
450.65	8903.40
450.83	8973.61
451.02	8992.34
451.20	9200.65
451.39	9320.01
451.57	9193.62
451.76	9015.74
451.94	9198.31
452.13	9310.65
452.31	9242.78
452.49	9240.44
452.68	9479.17
452.86	9266.18
453.05	9350.44
453.23	9806.84
453.42	9366.82
453.60	9294.27
453.78	9647.69
453.97	9500.23
454.15	9509.60
454.34	9572.79
454.52	9809.19
454.70	9703.86
454.89	9699.18
455.07	9764.72
455.26	10019.83
455.44	9757.69
455.62	9830.25
455.81	10045.58
455.99	9900.47
456.17	10015.15
456.36	10087.71
456.54	10298.36
456.73	10420.06
456.91	10387.30
457.09	10651.78
457.28	10693.91
457.46	10562.84
457.64	10434.11
457.83	10518.37
458.01	10347.51
458.19	10740.72
458.38	10665.82
458.56	10555.82
458.74	10759.44
458.93	10761.78
459.11	10949.03
459.29	10785.19
459.48	10766.46
459.66	10827.32
459.84	10693.91
460.03	10984.13
460.21	10911.58
460.39	11014.56
460.57	10862.43
460.76	11016.90
460.94	11089.46
461.12	11220.53
461.31	11143.29
461.49	11211.17
461.67	11192.44
461.85	11531.82
462.04	11405.43
462.22	11721.40
462.40	11627.78
462.59	11667.57
462.77	11534.16
462.95	11719.06
463.13	11454.58
463.32	11758.85
463.50	12044.40
463.68	11896.94
463.86	11913.33
464.05	11637.14
464.23	11712.04
464.41	12070.14
464.59	11637.14
464.78	12311.22
464.96	11810.34
465.14	11871.20
465.32	12053.76
465.50	12123.98
465.69	11943.75
465.87	12123.98
466.05	12210.57
466.23	12353.35
466.41	12273.77
466.60	12517.18
466.78	12049.08
466.96	12308.88
467.14	12285.47
467.32	12435.27
467.51	12627.19
467.69	12175.47
467.87	12695.07
468.05	12746.56
468.23	12360.37
468.41	12528.89
468.60	12479.74
468.78	12826.14
468.96	12564.00
469.14	12898.69
469.32	12989.97
469.50	12816.77
469.69	12973.59
469.87	13004.02
470.05	13174.88
470.23	13111.68
470.41	13015.72
470.59	13446.38
470.77	13252.11
470.95	13479.15
471.14	13661.71
471.32	13205.30
471.50	13327.01
471.68	13451.06
471.86	13469.78
472.04	13724.90
472.22	13902.78
472.40	13673.41
472.58	13949.59
472.77	14036.19
472.95	14204.71
473.13	14544.09
473.31	14022.15
473.49	14314.72
473.67	14178.97
473.85	14537.07
474.03	14768.78
474.21	14656.43
474.39	14787.50
474.57	14857.72
474.75	15105.82
474.93	15033.26
475.12	14724.31
475.30	15213.48
475.48	15187.74
475.66	15096.46
475.84	15171.35
476.02	15255.61
476.20	15349.23
476.38	15859.47
476.56	16194.17
476.74	16184.80
476.92	15906.28
477.10	16081.82
477.28	15906.28
477.46	16453.97
477.64	16255.02
477.82	16549.93
478.00	17020.38
478.18	16695.04
478.36	17064.85
478.54	16786.32
478.72	17177.19
478.90	17275.49
479.08	17453.37
479.26	17858.29
479.44	17586.79
479.62	17752.96
479.80	18017.44
479.98	18415.34
480.16	18455.12
480.34	18174.26
480.52	18600.24
480.70	18618.96
480.88	18071.28
481.06	18609.60
481.24	18988.77
481.41	18743.01
481.59	19779.87
481.77	19548.15
481.95	19782.21
482.13	20084.14
482.31	19859.45
482.49	20350.96
482.67	19866.47
482.85	20613.10
483.03	20411.81
483.21	20905.66
483.39	20837.79
483.57	20861.19
483.74	21174.83
483.92	21570.38
484.10	21132.70
484.28	21635.91
484.46	21766.98
484.64	22508.93
484.82	21986.99
485.00	22155.51
485.18	23101.09
485.35	23014.49
485.53	22843.63
485.71	22787.46
485.89	23662.82
486.07	23295.35
486.25	23620.69
486.43	23623.03
486.61	23506.00
486.78	24159.01
486.96	24212.84
487.14	24524.13
487.32	24535.84
487.50	24896.28
487.68	24886.92
487.85	25394.81
488.03	25862.92
488.21	26017.40
488.39	25907.39
488.57	26221.02
488.75	26396.56
488.92	26099.31
489.10	26822.54
489.28	26946.59
489.46	27005.10
489.64	27098.72
489.81	27564.49
489.99	27679.18
490.17	27971.74
490.35	28130.90
490.53	28051.32
490.70	28400.06
490.88	28222.18
491.06	28886.89
491.24	28989.88
491.41	29366.70
491.59	29282.44
491.77	29481.39
491.95	29834.81
492.13	30108.65
492.30	29879.28
492.48	30003.33
492.66	29984.60
492.84	30291.21
493.01	30869.33
493.19	30494.84
493.37	31246.15
493.54	31047.21
493.72	31901.50
493.90	31534.04
494.08	31924.91
494.25	32044.27
494.43	32091.09
494.61	32339.18
494.79	32533.45
494.96	32835.38
495.14	32783.88
495.32	33476.68
495.49	33331.57
495.67	33268.37
495.85	33696.69
496.02	34153.10
496.20	33890.96
496.38	34094.58
496.55	34258.42
496.73	34960.58
496.91	34735.89
497.09	34574.39
497.26	35358.47
497.44	34756.96
497.62	35239.11
497.79	35864.03
497.97	35695.51
498.14	35931.90
498.32	36154.26
498.50	36264.26
498.67	36875.14
498.85	36575.55
499.03	36254.90
499.20	36552.15
499.38	36664.49
499.56	37254.31
499.73	37139.62
499.91	37464.96
500.08	37425.17
500.26	37926.04
500.44	37841.78
500.61	38457.34
500.79	37762.20
500.97	38401.17
501.14	38569.69
501.32	38522.88
501.49	38513.52
501.67	38501.81
501.84	38785.02
502.02	38892.68
502.20	39065.88
502.37	39243.76
502.55	39288.23
502.72	39548.03
502.90	39718.89
503.07	39524.63
503.25	39718.89
503.43	39868.69
503.60	40268.92
503.78	40893.84
503.95	40697.24
504.13	40369.56
504.30	41024.91
504.48	40566.16
504.65	40814.26
504.83	41113.85
505.01	41200.45
505.18	41181.73
505.36	41701.32
505.53	41055.34
505.71	41921.34
505.88	41778.56
506.06	41902.61
506.23	41916.65
506.41	42010.28
506.58	42103.90
506.76	42160.07
506.93	42768.61
507.11	42433.91
507.28	42426.89
507.46	42946.49
507.63	42768.61
507.81	43278.85
507.98	42876.27
508.16	43246.08
508.33	43440.34
508.50	43716.53
508.68	43779.72
508.85	43859.30
509.03	43838.23
509.20	44734.66
509.38	44339.11
509.55	44594.23
509.73	44734.66
509.90	44502.95
510.08	44774.45
510.25	44451.45
510.42	44797.85
510.60	45139.57
510.77	45392.35
510.95	45340.86
511.12	45067.02
511.30	45364.26
511.47	45504.70
511.64	45502.35
511.82	46054.72
511.99	45911.95
512.17	45907.27
512.34	46518.15
512.51	46452.61
512.69	46471.34
512.86	46368.35
513.04	46763.90
513.21	46571.98
513.38	47054.13
513.56	46965.19
513.73	46789.65
513.90	47014.34
514.08	46909.02
514.25	47473.09
514.43	47655.65
514.60	47669.69
514.77	47744.59
514.95	47990.34
515.12	47613.52
515.29	47400.53
515.47	48062.90
515.64	48079.28
515.81	47852.25
515.99	48526.33
516.16	48729.95
516.33	48549.73
516.51	48645.69
516.68	48549.73
516.85	48360.15
517.03	48774.42
517.20	48842.30
517.37	49223.81
517.54	48727.61
517.72	49174.66
517.89	49404.03
518.06	49682.55
518.24	49193.38
518.41	49368.92
518.58	49549.14
518.75	49682.55
518.93	49607.65
519.10	49326.79
519.27	49708.30
519.45	49834.69
519.62	50092.15
519.79	50059.38
519.96	49958.73
520.14	49780.85
520.31	50143.64
520.48	50452.59
520.65	50370.67
520.83	50656.21
521.00	50724.09
521.17	50653.87
521.34	50890.27
521.52	50946.44
521.69	50883.25
521.86	51208.58
522.03	51208.58
522.20	51405.19
522.38	51554.98
522.55	51433.27
522.72	51433.27
522.89	51442.63
523.07	51817.12
523.24	51702.43
523.41	51629.88
523.58	51634.56
523.75	52041.81
523.92	51952.87
524.10	52053.51
524.27	52285.23
524.44	52327.36
524.61	52184.58
524.78	52231.40
524.96	52222.03
525.13	52151.82
525.30	52676.10
525.47	52823.55
525.64	52320.34
525.81	52720.57
525.98	52898.45
526.16	52814.19
526.33	52807.17
526.50	53284.64
526.67	52896.11
526.84	52942.92
527.01	53034.20
527.18	53188.67
527.36	53066.97
527.53	53106.76
527.70	53450.81
527.87	53420.39
528.04	52945.26
528.21	53525.71
528.38	53425.07
528.55	53469.54
528.72	53535.07
528.89	53581.88
529.07	53062.29
529.24	53565.50
529.41	53661.46
529.58	53492.94
529.75	53811.26
529.92	53956.37
530.09	53727.00
530.26	54000.84
530.43	54049.99
530.60	53858.07
530.77	54073.40
530.94	54080.42
531.11	54260.64
531.28	54115.53
531.46	54244.26
531.63	54560.23
531.80	54085.10
531.97	54412.77
532.14	54312.13
532.31	54522.78
532.48	54710.02
532.65	54630.44
532.82	54798.96
532.99	54471.29
533.16	54609.38
533.33	54965.14
533.50	55044.72
533.67	55047.06
533.84	54864.50
534.01	55079.83
534.18	54911.31
534.35	55255.37
534.52	55173.45
534.69	55271.75
534.86	55426.23
535.03	55131.32
535.20	55276.43
535.37	55356.01
535.54	55276.43
535.71	55248.35
535.88	55409.84
536.05	55564.32
536.22	55557.30
536.38	55613.47
536.55	55669.64
536.72	55426.23
536.89	55662.62
537.06	55777.31
537.23	55861.57
537.40	55547.93
537.57	55756.24
537.74	55695.39
537.91	56140.09
538.08	56004.34
538.25	56041.79
538.42	55936.46
538.59	56264.14
538.75	55863.91
538.92	56030.08
539.09	56214.99
539.26	56289.88
539.43	56090.94
539.60	56236.05
539.77	56289.88
539.94	56418.61
540.11	56474.79
540.28	56350.74
540.44	56552.02
540.61	56500.53
540.78	56587.13
540.95	56523.94
541.12	56640.96
541.29	56435.00
541.46	56530.96
541.62	56589.47
541.79	56727.56
541.96	56381.16
542.13	56671.39
542.30	56807.14
542.47	57111.41
542.63	56839.91
542.80	56774.37
542.97	57258.87
543.14	57160.56
543.31	57237.80
543.48	57333.76
543.64	57441.43
543.81	57247.16
543.98	57279.93
544.15	57366.53
544.32	57586.54
544.48	57607.61
544.65	57453.13
544.82	57556.11
544.99	57415.68
545.16	57623.99
545.32	57186.31
545.49	57605.26
545.66	57872.09
545.83	57647.39
546.00	57757.40
546.16	57682.50
546.33	57619.31
546.50	57551.43
546.67	57829.96
546.83	57556.11
547.00	57876.77
547.17	57698.89
547.34	57733.99
547.50	57853.36
547.67	58248.91
547.84	58075.71
548.00	58012.52
548.17	58213.80
548.34	58183.38
548.51	58197.42
548.67	58309.77
548.84	58134.23
549.01	57942.30
549.18	57972.73
549.34	58438.50
549.51	58230.19
549.68	58571.91
549.84	58309.77
550.01	58560.20
550.18	58110.82
550.34	58742.77
550.51	58454.88
550.68	58520.41
550.84	58316.79
551.01	58684.25
551.18	58571.91
551.34	58546.16
551.51	58630.42
551.68	58681.91
551.84	58628.08
552.01	58499.35
552.18	58740.42
552.34	58611.70
552.51	58789.58
552.68	58569.57
552.84	58808.30
553.01	59105.55
553.18	58951.07
553.34	58770.85
553.51	58651.48
553.67	58859.79
553.84	58990.86
554.01	58990.86
554.17	59016.61
554.34	59025.97
554.51	59037.67
554.67	59192.15
554.84	59227.26
555.00	58911.28
555.17	59058.74
555.33	59182.79
555.50	59175.76
555.67	59016.61
555.83	59119.59
556.00	59135.98
556.16	59440.24
556.33	59274.07
556.50	59276.41
556.66	59236.62
556.83	59346.62
556.99	59604.08
557.16	59573.66
557.32	59339.60
557.49	59604.08
557.65	59309.18
557.82	59613.44
557.98	59372.37
558.15	59557.27
558.32	59643.87
558.48	59440.24
558.65	59561.95
558.81	59545.57
558.98	59489.40
559.14	59716.43
559.31	59554.93
559.47	59753.88
559.64	59906.01
559.80	59742.17
559.97	59683.66
560.13	59728.13
560.30	59744.51
560.46	59664.94
560.63	59777.28
560.79	59934.10
560.96	59723.45
561.12	60004.31
561.29	59891.97
561.45	59950.48
561.61	59774.94
561.78	59756.22
561.94	59800.69
562.11	59828.77
562.27	60039.42
562.44	59999.63
562.60	60067.51
562.77	60076.87
562.93	59695.36
563.10	60072.19
563.26	60069.85
563.42	60079.21
563.59	60081.55
563.75	60245.39
563.92	59983.25
564.08	60219.64
564.24	60233.69
564.41	60285.18
564.57	60119.00
564.74	60102.62
564.90	60247.73
565.07	60058.15
565.23	60170.49
565.39	60039.42
565.56	60229.01
565.72	60097.94
565.88	60156.45
566.05	60111.98
566.21	60252.41
566.38	60292.20
566.54	60158.79
566.70	60411.57
566.87	60470.08
567.03	60362.42
567.19	60425.61
567.36	60292.20
567.52	60299.22
567.68	60704.13
567.85	60470.08
568.01	60411.57
568.17	60425.61
568.34	60523.91
568.50	60423.27
568.66	60474.76
568.83	60484.12
568.99	60285.18
569.15	60465.40
569.32	60594.13
569.48	60559.02
569.64	60495.83
569.81	60374.12
569.97	60292.20
570.13	60552.00
570.30	60221.98
570.46	60512.21
570.62	60514.55
570.78	60533.28
570.95	60472.42
571.11	60673.71
571.27	60589.45
571.43	60596.47
571.60	60793.07
571.76	60741.58
571.92	60828.18
572.09	60664.35
572.25	60587.11
572.41	60587.11
572.57	60680.73
572.74	60877.33
572.90	60753.29
573.06	60591.79
573.22	60818.82
573.38	60547.32
573.55	60573.06
573.71	61137.13
573.87	60818.82
574.03	60573.06
574.20	60676.05
574.36	60741.58
574.52	60839.89
574.68	60704.13
574.84	61050.53
575.01	60664.35
575.17	60814.14
575.33	60523.91
575.49	60580.09
575.65	60905.42
575.82	60994.36
575.98	60867.97
576.14	61127.77
576.30	60835.20
576.46	60683.07
576.62	60825.84
576.79	60842.23
576.95	60704.13
577.11	60729.88
577.27	60835.20
577.43	60867.97
577.59	60528.59
577.75	60769.67
577.92	60685.41
578.08	60823.50
578.24	60783.71
578.40	60994.36
578.56	61048.19
578.72	60870.31
578.88	60945.21
579.04	61022.45
579.21	60919.46
579.37	61041.17
579.53	60977.98
579.69	60933.51
579.85	60807.12
580.01	61057.56
580.17	60687.75
580.33	61134.79
580.49	60992.02
580.65	60865.63
580.82	60963.93
580.98	60839.89
581.14	60839.89
581.30	61015.43
581.46	60811.80
581.62	61092.66
581.78	60701.79
581.94	60938.19
582.10	60912.44
582.26	60931.17
582.42	60928.83
582.58	60809.46
582.74	60926.49
582.90	60999.04
583.06	60783.71
583.22	60935.85
583.38	60952.23
583.54	61036.49
583.70	61148.84
583.86	61013.08
584.02	60938.19
584.18	61162.88
584.34	60877.33
584.50	61176.92
584.66	60956.91
584.82	60757.97
584.98	61249.48
585.14	61102.03
585.30	61001.38
585.46	60886.70
585.62	61052.87
585.78	61223.73
585.94	60954.57
586.10	61212.03
586.26	61165.22
586.42	61043.51
586.58	61045.85
586.74	60926.49
586.90	60867.97
587.06	60891.38
587.22	61226.07
587.38	61078.62
587.54	61235.44
587.70	61347.78
587.86	61092.66
588.02	60874.99
588.18	61282.25
588.34	61162.88
588.49	61092.66
588.65	61080.96
588.81	61200.33
588.97	61319.70
589.13	61366.51
589.29	61277.57
589.45	61286.93
589.61	61284.59
589.77	61406.30
589.93	61336.08
590.08	61368.85
590.24	61375.87
590.40	61450.77
590.56	61574.81
590.72	61317.35
590.88	61200.33
591.04	61375.87
591.20	61694.18
591.35	61434.38
591.51	61633.33
591.67	61441.40
591.83	61537.36
591.99	61539.71
592.15	61303.31
592.31	61347.78
592.46	61415.66
592.62	61488.21
592.78	61434.38
592.94	61539.71
593.10	61553.75
593.26	61731.63
593.41	61544.39
593.57	61623.96
593.73	61523.32
593.89	61722.27
594.05	61614.60
594.20	61523.32
594.36	61600.56
594.52	61535.02
594.68	61441.40
594.84	61375.87
594.99	61607.58
595.15	61499.92
595.31	61691.84
595.47	61485.87
595.62	61558.43
595.78	61446.08
595.94	61537.36
596.10	61708.22
596.25	61696.52
596.41	61633.33
596.57	61612.26
596.73	61757.38
596.88	61745.67
597.04	61654.39
597.20	61785.46
597.36	61771.42
597.51	61752.69
597.67	61661.41
597.83	61570.13
597.99	61628.65
598.14	61577.15
598.30	61865.04
598.46	61630.99
598.61	61946.96
598.77	61623.96
598.93	61694.18
599.09	61998.45
599.24	61989.09
599.40	61895.47
599.56	61881.42
599.71	61853.34
599.87	61825.25
600.03	61834.61
600.18	61724.61
600.34	61605.24
600.50	61829.93
600.65	61635.67
600.81	61785.46
600.97	61907.17
601.12	61729.29
601.28	61911.85
601.44	61621.62
601.59	61792.48
601.75	61696.52
601.91	62108.46
602.06	61806.53
602.22	62000.79
602.37	61773.76
602.53	61705.88
602.69	61696.52
602.84	61750.35
603.00	61808.87
603.16	61916.53
603.31	61794.82
603.47	61879.08
603.62	61902.49
603.78	62031.22
603.94	61858.02
604.09	61872.06
604.25	61708.22
604.40	61773.76
604.56	61705.88
604.71	61783.12
604.87	61846.32
605.03	61668.44
605.18	61623.96
605.34	61963.34
605.49	61663.75
605.65	61694.18
605.80	61942.28
605.96	61820.57
606.12	61853.34
606.27	61822.91
606.43	61783.12
606.58	61759.72
606.74	61829.93
606.89	61860.36
607.05	61663.75
607.20	61820.57
607.36	61783.12
607.51	61574.81
607.67	61558.43
607.82	61694.18
607.98	61553.75
608.13	61839.29
608.29	61750.35
608.44	61628.65
608.60	61630.99
608.75	61855.68
608.91	61682.48
609.06	61591.20
609.22	61811.21
609.37	61612.26
609.53	61689.50
609.68	61563.11
609.84	61635.67
609.99	61593.54
610.15	61717.59
610.30	61715.25
610.46	61549.07
610.61	61630.99
610.76	61607.58
610.92	61471.83
611.07	61619.28
611.23	61612.26
611.38	61804.19
611.54	61633.33
611.69	61663.75
611.84	61628.65
612.00	61677.80
612.15	61623.96
612.31	61794.82
612.46	61481.19
612.62	61567.79
612.77	61481.19
612.92	61516.30
613.08	61558.43
613.23	61546.73
613.39	61518.64
613.54	61352.46
613.69	61474.17
613.85	61478.85
614.00	61621.62
614.15	61598.22
614.31	61460.13
614.46	61460.13
614.62	61483.53
614.77	61366.51
614.92	61565.45
615.08	61464.81
615.23	61443.74
615.38	61471.83
615.54	61441.40
615.69	61394.59
615.84	61364.17
616.00	61446.08
616.15	61439.06
616.30	61649.71
616.46	61385.23
616.61	61240.12
616.76	61588.86
616.92	61247.14
617.07	61282.25
617.22	61104.37
617.37	61277.57
617.53	61474.17
617.68	61516.30
617.83	61167.56
617.99	61392.25
618.14	61511.62
618.29	61272.88
618.45	61137.13
618.60	61160.54
618.75	61134.79
618.90	61237.78
619.06	61331.40
619.21	61373.53
619.36	61382.89
619.51	61176.92
619.67	61153.52
619.82	61193.31
619.97	61186.28
620.12	60963.93
620.28	60968.61
620.43	61092.66
620.58	61085.64
620.73	60973.30
620.89	60886.70
621.04	61165.22
621.19	61029.47
621.34	61034.15
621.49	61113.73
621.65	60807.12
621.80	61134.79
621.95	61059.90
622.10	61069.26
622.25	60961.59
622.41	60910.10
622.56	60816.48
622.71	60912.44
622.86	60879.67
623.01	60793.07
623.16	60903.08
623.32	60814.14
623.47	60872.65
623.62	60961.59
623.77	60746.26
623.92	60860.95
624.07	61008.40
624.23	60921.80
624.38	60790.73
624.53	60748.60
624.68	60514.55
624.83	60856.27
624.98	60804.78
625.13	60502.85
625.29	60750.94
625.44	60839.89
625.59	60615.19
625.74	60544.98
625.89	60460.72
626.04	60622.22
626.19	60463.06
626.34	60467.74
626.49	60530.93
626.65	60418.59
626.80	60509.87
626.95	60416.25
627.10	60247.73
627.25	60470.08
627.40	60467.74
627.55	60411.57
627.70	60346.03
627.85	60427.95
628.00	60404.55
628.15	60369.44
628.30	60296.88
628.45	60355.39
628.60	60151.77
628.76	60544.98
628.91	60418.59
629.06	60439.65
629.21	60266.45
629.36	60147.09
629.51	60301.56
629.66	60158.79
629.81	60020.70
629.96	60067.51
630.11	59943.46
630.26	60161.13
630.41	60217.30
630.56	60329.65
630.71	60254.75
630.86	59849.84
631.01	60168.15
631.16	60083.89
631.31	60025.38
631.46	59966.87
631.61	59882.61
631.76	60247.73
631.91	60144.75
632.06	60079.21
632.21	60076.87
632.36	59779.62
632.51	59587.70
632.66	60018.36
632.81	59803.03
632.96	60041.76
633.10	60020.70
633.25	60025.38
633.40	59915.37
633.55	59920.05
633.70	59898.99
633.85	59791.33
634.00	59709.41
634.15	59805.37
634.30	59702.38
634.45	59882.61
634.60	59840.48
634.75	59894.31
634.90	59634.51
635.05	59788.98
635.19	59847.50
635.34	59866.22
635.49	59681.32
635.64	59714.09
635.79	59611.10
635.94	59742.17
636.09	59758.56
636.24	59496.42
636.39	59613.44
636.53	59606.42
636.68	59587.70
636.83	59660.26
636.98	59709.41
637.13	59559.61
637.28	59671.96
637.43	59367.69
637.57	59473.01
637.72	59444.93
637.87	59463.65
638.02	59634.51
638.17	59566.63
638.32	59416.84
638.46	59248.32
638.61	59178.10
638.76	59414.50
638.91	59311.52
639.06	59351.30
639.20	59320.88
639.35	59231.94
639.50	58901.92
639.65	59278.75
639.80	59217.89
639.94	59262.36
640.09	59241.30
640.24	59260.02
640.39	59372.37
640.54	59135.98
640.68	59180.45
640.83	59227.26
640.98	59042.35
641.13	59201.51
641.27	59257.68
641.42	59051.72
641.57	59025.97
641.72	58979.16
641.86	59121.93
642.01	58890.22
642.16	58862.13
642.31	59084.48
642.45	59058.74
642.60	58983.84
642.75	59065.76
642.90	59107.89
643.04	58948.73
643.19	58801.28
643.34	58899.58
643.48	58810.64
643.63	58864.47
643.78	58841.07
643.93	58724.04
644.07	58908.94
644.22	58871.49
644.37	58637.44
644.51	58607.01
644.66	58614.04
644.81	58726.38
644.95	59021.29
645.10	58857.45
645.25	58738.08
645.39	58614.04
645.54	58642.12
645.69	58665.53
645.83	58564.88
645.98	58415.09
646.13	58677.23
646.27	58756.81
646.42	58597.65
646.57	58637.44
646.71	58569.57
646.86	58820.00
647.00	58663.19
647.15	58288.70
647.30	58621.06
647.44	58230.19
647.59	58621.06
647.74	58649.14
647.88	58438.50
648.03	58433.81
648.17	58768.51
648.32	58279.34
648.47	58660.85
648.61	58389.34
648.76	58534.46
648.90	58307.43
649.05	58192.74
649.20	58431.47
649.34	58382.32
649.49	58220.83
649.63	58464.24
649.78	58354.24
649.92	58234.87
650.07	58585.95
650.21	58253.59
650.36	58501.69
650.51	57998.48
650.65	58382.32
650.80	58188.06
650.94	57984.43
651.09	57998.48
651.23	57879.11
651.38	57968.05
651.52	57982.09
651.67	57790.17
651.81	58206.78
651.96	57897.83
652.10	58178.70
652.25	57956.35
652.39	57794.85
652.54	57801.87
652.68	57661.44
652.83	57801.87
652.97	57853.36
653.12	57755.06
653.26	57762.08
653.41	58120.18
653.55	57858.04
653.70	58075.71
653.84	57954.00
653.99	57764.42
654.13	57677.82
654.27	57659.10
654.42	57715.27
654.56	57696.55
654.71	57682.50
654.85	57741.02
655.00	58120.18
655.14	57607.61
655.29	57609.95
655.43	57485.90
655.57	57588.88
655.72	57474.20
655.86	57638.03
656.01	57785.49
656.15	57495.26
656.30	57703.57
656.44	57642.71
656.58	57600.58
656.73	57516.32
656.87	57532.71
657.01	57544.41
657.16	57633.35
657.30	57247.16
657.45	57450.79
657.59	57214.40
657.73	57148.86
657.88	57298.65
658.02	57202.69
658.16	57251.84
658.31	56994.39
658.45	57127.80
658.60	57172.27
658.74	57216.74
658.88	57195.67
659.03	57045.88
659.17	56952.26
659.31	56945.23
659.46	56994.39
659.60	57008.43
659.74	57020.13
659.89	57027.15
660.03	56748.63
660.17	57059.92
660.32	56956.94
660.46	56793.10
660.60	56556.70
660.74	56797.78
660.89	56811.82
661.03	56750.97
661.17	56479.47
661.32	56463.08
661.46	56528.62
661.60	56673.73
661.74	56736.93
661.89	56505.21
662.03	56322.65
662.17	56261.80
662.31	56317.97
662.46	56509.89
662.60	56413.93
662.74	56179.88
662.88	55882.63
663.03	56582.45
663.17	56264.14
663.31	56067.53
663.45	56193.92
663.60	55943.48
663.74	55674.32
663.88	55789.01
664.02	55697.73
664.17	56205.62
664.31	55622.83
664.45	55552.62
664.59	55554.96
664.73	55646.24
664.88	55611.13
665.02	55299.84
665.16	55213.24
665.30	55536.23
665.44	55435.59
665.59	55381.76
665.73	55449.63
665.87	55243.66
666.01	55304.52
666.15	54955.78
666.29	55208.56
666.44	55421.55
666.58	55089.19
666.72	55093.87
666.86	54967.48
667.00	54901.95
667.14	54677.25
667.28	54876.20
667.43	54852.80
667.57	54679.60
667.71	54937.05
667.85	54560.23
667.99	54536.82
668.13	54518.10
668.27	54541.50
668.41	54593.00
668.56	54644.49
668.70	54677.25
668.84	54185.74
668.98	54307.45
669.12	54534.48
669.26	54504.06
669.40	54330.86
669.54	54497.03
669.68	54138.93
669.82	53893.18
669.96	54333.20
670.10	54131.91
670.25	54291.07
670.39	54239.57
670.53	53766.79
670.67	53677.85
670.81	54232.55
670.95	53815.94
671.09	53701.25
671.23	53745.72
671.37	53748.06
671.51	53514.01
671.65	53544.44
671.79	53439.11
671.93	53270.59
672.07	53687.21
672.21	53153.57
672.35	52954.62
672.49	52982.71
672.63	52809.51
672.77	53036.54
672.91	52727.59
673.05	52598.86
673.19	52598.86
673.33	52289.91
673.47	52732.27
673.61	52591.84
673.75	52364.81
673.89	52430.34
674.03	52198.63
674.17	52088.62
674.31	51955.21
674.45	51859.25
674.59	52074.58
674.73	52175.22
674.87	51704.77
675.01	51737.54
675.15	51611.15
675.29	51760.95
675.43	52067.56
675.56	51470.72
675.70	51084.53
675.84	51496.47
675.98	50380.03
676.12	51093.89
676.26	51377.10
676.40	50724.09
676.54	50761.54
676.68	50733.45
676.82	50078.10
676.96	50679.62
677.10	49916.61
677.23	49729.36
677.37	49982.14
677.51	50108.53
677.65	49977.46
677.79	49223.81
677.93	49301.04
678.07	49013.16
678.21	49052.95
678.34	49354.88
678.48	49034.22
678.62	48809.53
678.76	48729.95
678.90	48521.65
679.04	48406.96
679.18	48788.47
679.31	48208.01
679.45	48119.07
679.59	48224.40
679.73	48175.25
679.87	47756.29
680.00	47297.55
680.14	47599.47
680.28	47578.41
680.42	47241.37
680.56	47105.62
680.70	47023.70
680.83	46630.49
680.97	46906.68
681.11	47145.41
681.25	46871.57
681.39	46763.90
681.52	46101.53
681.66	46464.32
681.80	46398.78
681.94	45675.55
682.07	45993.87
682.21	45254.26
682.35	45497.67
682.49	45518.74
682.62	45818.33
682.76	45177.02
682.90	45301.07
683.04	45425.12
683.17	45141.91
683.31	44835.30
683.45	44437.41
683.59	44149.53
683.72	44198.68
683.86	44318.04
684.00	44306.34
684.13	44535.71
684.27	43835.89
684.41	44086.33
684.55	43601.84
684.68	43452.05
684.82	43487.15
684.96	43007.34
685.09	43182.88
685.23	42447.96
685.37	42590.73
685.50	42768.61
685.64	42986.28
685.78	42445.62
685.91	42478.38
686.05	41682.60
686.19	41539.83
686.32	41661.54
686.46	41137.26
686.60	40907.88
686.73	41177.04
686.87	40790.86
687.01	41432.16
687.14	40622.34
687.28	40418.71
687.42	40547.44
687.55	40297.00
687.69	40697.24
687.82	39936.56
687.96	39587.82
688.10	39569.10
688.23	40154.23
688.37	39213.34
688.50	38836.51
688.64	39545.69
688.78	39246.10
688.91	38850.55
689.05	38880.98
689.18	38731.18
689.32	37736.46
689.46	37713.05
689.59	38099.24
689.73	37481.34
689.86	37776.25
690.00	37261.33
690.13	37846.46
690.27	37645.18
690.41	37706.03
690.54	37364.31
690.68	36418.74
690.81	36865.78
690.95	36704.28
691.08	36652.79
691.22	36100.42
691.35	35967.01
691.49	36580.23
691.62	36400.01
691.76	35768.07
691.89	35611.25
692.03	35653.38
692.16	35328.05
692.30	35211.02
692.43	35318.68
692.57	35061.22
692.70	34480.77
692.84	34616.52
692.97	34782.70
693.11	34562.69
693.24	34677.38
693.38	34007.98
693.51	34089.90
693.65	33504.77
693.78	33727.12
693.92	33750.52
694.05	33507.11
694.19	33563.28
694.32	33308.16
694.45	33029.64
694.59	32982.83
694.72	32671.54
694.86	32671.54
694.99	32247.90
695.13	32589.62
695.26	31871.07
695.39	31449.78
695.53	31700.22
695.66	31857.03
695.80	31840.65
695.93	31702.56
696.07	31117.42
696.20	30469.09
696.33	30754.64
696.47	30794.43
696.60	30733.57
696.73	30663.36
696.87	30565.06
697.00	30237.38
697.14	30064.18
697.27	30061.84
697.40	30045.46
697.54	29717.78
697.67	29731.83
697.80	29380.74
697.94	29493.09
698.07	28975.83
698.21	28872.85
698.34	29305.85
698.47	28559.22
698.61	28430.49
698.74	28299.42
698.87	28517.09
699.01	28161.33
699.14	28009.19
699.27	28198.77
699.40	28191.75
699.54	28053.66
699.67	27807.90
699.80	27658.11
699.94	27623.00
700.07	27318.73
700.20	27206.39
700.34	27026.17
700.47	26576.78
700.60	26174.21
700.73	26361.45
700.87	26195.28
701.00	25886.32
701.13	25654.61
701.26	25977.61
701.40	26352.09
701.53	26412.95
701.66	25769.30
701.79	25582.06
701.93	24903.30
702.06	24971.18
702.19	24975.86
702.32	25078.84
702.46	25132.67
702.59	24355.61
702.72	24409.45
702.85	24631.80
702.99	25043.73
703.12	24154.33
703.25	24121.56
703.38	23613.66
703.51	23709.63
703.65	23339.82
703.78	23335.14
703.91	23269.61
704.04	23293.01
704.17	23246.20
704.31	23278.97
704.44	23250.88
704.57	23183.01
704.70	23154.92
704.83	22766.39
704.96	22221.05
705.10	22462.12
705.23	21881.67
>>>>>End Processed Spectral Data<<<<<
