SpectraSuite Data File
++++++++++++++++++++++++++++++++++++
Date: Fri Oct 25 11:23:56 EDT 2013
User: price-jones
Dark Spectrum Present: No
Reference Spectrum Present: No
Number of Sampled Component Spectra: 1
Spectrometers: USB2+H05261
Integration Time (usec): 100000 (USB2+H05261)
Spectra Averaged: 1 (USB2+H05261)
Boxcar Smoothing: 0 (USB2+H05261)
Correct for Electrical Dark: No (USB2+H05261)
Strobe/Lamp Enabled: No (USB2+H05261)
Correct for Detector Non-linearity: No (USB2+H05261)
Correct for Stray Light: No (USB2+H05261)
Number of Pixels in Processed Spectrum: 2048
>>>>>Begin Processed Spectral Data<<<<<
365.73	205.97
365.92	205.97
366.12	205.97
366.32	154.48
366.52	140.43
366.72	124.05
366.91	81.92
367.11	114.69
367.31	212.99
367.51	131.07
367.70	142.77
367.90	56.17
368.10	86.60
368.30	105.32
368.49	84.26
368.69	166.18
368.89	154.48
369.09	124.05
369.28	154.48
369.48	194.26
369.68	222.35
369.87	182.56
370.07	189.58
370.27	241.08
370.47	259.80
370.66	608.54
370.86	650.67
371.06	671.73
371.25	706.84
371.45	674.07
371.65	748.97
371.84	615.56
372.04	763.01
372.24	699.82
372.44	730.25
372.63	709.18
372.83	788.76
373.03	699.82
373.22	692.80
373.42	854.30
373.62	681.10
373.81	854.30
374.01	683.44
374.21	887.06
374.40	837.91
374.60	805.14
374.79	903.45
374.99	856.64
375.19	821.53
375.38	891.74
375.58	847.27
375.78	875.36
375.97	929.19
376.17	929.19
376.37	882.38
376.56	887.06
376.76	788.76
376.95	786.42
377.15	858.98
377.35	814.51
377.54	896.43
377.74	891.74
377.93	903.45
378.13	912.81
378.33	919.83
378.52	901.11
378.72	905.79
378.91	884.72
379.11	936.21
379.31	997.07
379.50	933.87
379.70	976.00
379.89	1025.15
380.09	943.24
380.28	957.28
380.48	917.49
380.68	917.49
380.87	933.87
381.07	940.90
381.26	1043.88
381.46	1011.11
381.65	1086.01
381.85	1043.88
382.04	1109.41
382.24	1053.24
382.43	1048.56
382.63	1090.69
382.83	1018.13
383.02	1151.54
383.22	1114.10
383.41	1036.86
383.61	1179.63
383.80	1102.39
384.00	1046.22
384.19	1163.25
384.39	1167.93
384.58	1100.05
384.78	1139.84
384.97	1156.22
385.17	1088.35
385.36	1123.46
385.56	1167.93
385.75	1097.71
385.95	1156.22
386.14	1205.38
386.34	1226.44
386.53	1172.61
386.72	1247.51
386.92	1198.35
387.11	1284.95
387.31	1245.16
387.50	1170.27
387.70	1301.34
387.89	1249.85
388.09	1299.00
388.28	1266.23
388.48	1217.08
388.67	1308.36
388.86	1313.04
389.06	1334.11
389.25	1310.70
389.45	1280.27
389.64	1327.08
389.84	1399.64
390.03	1327.08
390.22	1341.13
390.42	1399.64
390.61	1397.30
390.81	1336.45
391.00	1460.49
391.19	1497.94
391.39	1533.05
391.58	1427.73
391.78	1448.79
391.97	1441.77
392.16	1465.18
392.36	1549.43
392.55	1542.41
392.75	1535.39
392.94	1528.37
393.13	1514.33
393.33	1589.22
393.52	1469.86
393.71	1593.90
393.91	1549.43
394.10	1591.56
394.29	1537.73
394.49	1511.99
394.68	1666.46
394.88	1734.34
395.07	1647.74
395.26	1713.27
395.46	1598.59
395.65	1811.57
395.84	1713.27
396.04	1820.94
396.23	1811.57
396.42	1722.63
396.62	1781.15
396.81	1858.39
397.00	1760.08
397.19	1762.42
397.39	1804.55
397.58	1853.70
397.77	1912.22
397.97	1827.96
398.16	1813.92
398.35	1872.43
398.55	1839.66
398.74	1935.62
398.93	1994.14
399.12	1893.49
399.32	1825.62
399.51	2064.35
399.70	1970.73
399.90	1984.77
400.09	1989.46
400.28	2132.23
400.47	2104.14
400.67	2024.56
400.86	2059.67
401.05	2052.65
401.24	2078.40
401.44	2094.78
401.63	2160.31
401.82	2111.16
402.01	2291.38
402.21	2181.38
402.40	2211.81
402.59	2237.55
402.78	2221.17
402.97	2174.36
403.17	2326.49
403.36	2277.34
403.55	2319.47
403.74	2349.90
403.93	2249.25
404.13	2356.92
404.32	2373.30
404.51	2333.51
404.70	2394.37
404.89	2420.11
405.09	2492.67
405.28	2492.67
405.47	2527.78
405.66	2534.80
405.85	2600.34
406.05	2387.35
406.24	2466.92
406.43	2565.23
406.62	2565.23
406.81	2722.04
407.00	2677.57
407.20	2637.78
407.39	2609.70
407.58	2843.75
407.77	2705.66
407.96	2717.36
408.15	2773.53
408.34	2729.06
408.54	2860.13
408.73	2759.49
408.92	2874.18
409.11	2832.05
409.30	2876.52
409.49	2984.18
409.68	2876.52
409.87	2876.52
410.07	3028.65
410.26	3035.67
410.45	2993.55
410.64	3023.97
410.83	2998.23
411.02	3019.29
411.21	3204.19
411.40	3136.32
411.59	3197.17
411.78	3176.11
411.98	3176.11
412.17	3295.47
412.36	3192.49
412.55	3260.37
412.74	3496.76
412.93	3375.05
413.12	3262.71
413.31	3552.93
413.50	3445.27
413.69	3485.06
413.88	3630.17
414.07	3604.42
414.26	3627.83
414.45	3693.37
414.64	3571.66
414.83	3712.09
415.02	3824.44
415.22	3941.46
415.41	3826.78
415.60	3831.46
415.79	3801.03
415.98	3983.59
416.17	3976.57
416.36	4030.40
416.55	3941.46
416.74	4128.70
416.93	4058.49
417.12	3953.16
417.31	4304.25
417.50	4358.08
417.69	4175.52
417.88	4252.75
418.07	4304.25
418.26	4238.71
418.45	4318.29
418.64	4465.74
418.83	4339.35
419.02	4489.15
419.21	4440.00
419.39	4528.94
419.58	4507.87
419.77	4559.36
419.96	4528.94
420.15	4613.20
420.34	4571.07
420.53	4489.15
420.72	4765.33
420.91	4770.01
421.10	4692.77
421.29	4828.53
421.48	4770.01
421.67	4809.80
421.86	4795.76
422.05	4798.10
422.24	4786.40
422.43	4929.17
422.61	4844.91
422.80	5008.75
422.99	4959.60
423.18	4964.28
423.37	5050.88
423.56	4950.23
423.75	5006.41
423.94	4856.61
424.13	4638.94
424.32	4826.18
424.50	5020.45
424.69	5090.67
424.88	5135.14
425.07	4889.38
425.26	4865.97
425.45	5022.79
425.64	4880.02
425.83	4994.70
426.01	5102.37
426.20	4912.78
426.39	4973.64
426.58	4990.02
426.77	5130.45
426.96	5188.97
427.15	5156.20
427.33	5114.07
427.52	5102.37
427.71	5373.87
427.90	5277.91
428.09	5210.03
428.28	5338.76
428.46	5394.93
428.65	5334.08
428.84	5462.81
429.03	5631.33
429.22	5420.68
429.40	5423.02
429.59	5593.88
429.78	5294.29
429.97	5394.93
430.16	5451.11
430.34	5633.67
430.53	5657.07
430.72	5757.72
430.91	5678.14
431.10	5614.95
431.28	5832.62
431.47	5720.27
431.66	5710.91
431.85	5783.46
432.03	5982.41
432.22	5834.96
432.41	6022.20
432.60	5877.09
432.79	5970.71
432.97	6078.37
433.16	5895.81
433.35	5926.24
433.54	6216.46
433.72	5991.77
433.91	6195.40
434.10	6017.52
434.28	6104.12
434.47	6274.98
434.66	6239.87
434.85	6253.91
435.03	6399.02
435.22	6394.34
435.41	6406.05
435.59	6424.77
435.78	6368.60
435.97	6263.27
436.16	6429.45
436.34	6438.81
436.53	6523.07
436.72	6604.99
436.90	6516.05
437.09	6633.08
437.28	6583.93
437.46	6626.06
437.65	6626.06
437.84	6759.47
438.02	6642.44
438.21	6813.30
438.40	6808.62
438.58	6881.18
438.77	7180.76
438.96	6944.37
439.14	6960.75
439.33	7171.40
439.52	7061.40
439.70	7222.89
439.89	7499.08
440.08	7527.16
440.26	7475.67
440.45	7368.01
440.63	7447.58
440.82	7756.54
441.01	7595.04
441.19	7576.31
441.38	7609.08
441.57	7714.41
441.75	7742.49
441.94	7971.86
442.12	7943.78
442.31	8072.51
442.50	8119.32
442.68	7819.73
442.87	8189.53
443.05	8084.21
443.24	8404.86
443.43	8241.03
443.61	8138.04
443.80	8463.38
443.98	7885.26
444.17	7758.88
444.35	8205.92
444.54	8430.61
444.73	8472.74
444.91	8259.75
445.10	8325.29
445.28	8404.86
445.47	8290.18
445.65	8470.40
445.84	8547.64
446.02	8542.96
446.21	8491.46
446.39	8397.84
446.58	8449.33
446.77	8582.74
446.95	8425.93
447.14	8446.99
447.32	8645.94
447.51	8547.64
447.69	8470.40
447.88	8561.68
448.06	8437.63
448.25	8564.02
448.43	8882.33
448.62	8461.04
448.80	8627.21
448.99	8634.24
449.17	8690.41
449.36	8758.28
449.54	8812.12
449.73	9067.24
449.91	8971.27
450.10	9022.77
450.28	9034.47
450.46	9226.39
450.65	9137.45
450.83	9043.83
451.02	8943.19
451.20	9160.86
451.39	9280.22
451.57	9247.46
451.76	9013.40
451.94	9022.77
452.13	9334.06
452.31	9364.48
452.49	9394.91
452.68	9275.54
452.86	9226.39
453.05	9305.97
453.23	9549.39
453.42	9317.67
453.60	9418.32
453.78	9549.39
453.97	9294.27
454.15	9570.45
454.34	9518.96
454.52	9755.35
454.70	9699.18
454.89	9701.52
455.07	9619.60
455.26	9853.66
455.44	10010.47
455.62	10188.35
455.81	9811.53
455.99	10143.88
456.17	9895.78
456.36	10113.45
456.54	10209.42
456.73	10228.14
456.91	10354.53
457.09	10511.35
457.28	10729.02
457.46	10122.82
457.64	10342.83
457.83	10583.90
458.01	10244.52
458.19	10600.29
458.38	10487.94
458.56	10637.73
458.74	10626.03
458.93	10757.10
459.11	10705.61
459.29	10651.78
459.48	10827.32
459.66	10745.40
459.84	10555.82
460.03	11157.33
460.21	10853.06
460.39	10766.46
460.57	11030.94
460.76	10991.16
460.94	11454.58
461.12	11283.72
461.31	11063.71
461.49	10923.28
461.67	11089.46
461.85	11382.03
462.04	11370.32
462.22	11721.40
462.40	11719.06
462.59	11782.26
462.77	11367.98
462.95	11482.67
463.13	11630.12
463.32	11726.08
463.50	11723.74
463.68	11859.49
463.86	11777.58
464.05	11566.93
464.23	11550.54
464.41	11613.74
464.59	11756.51
464.78	12123.98
464.96	12063.12
465.14	11908.65
465.32	12138.02
465.50	12018.65
465.69	12088.87
465.87	12182.49
466.05	12002.27
466.23	12236.32
466.41	12135.68
466.60	12428.24
466.78	12341.64
466.96	12255.04
467.14	12081.85
467.32	12514.84
467.51	12395.48
467.69	12341.64
467.87	12437.61
468.05	12468.03
468.23	12222.28
468.41	12662.30
468.60	12521.87
468.78	12828.48
468.96	12629.53
469.14	12734.85
469.32	13048.49
469.50	12538.25
469.69	12943.16
469.87	13151.47
470.05	13025.08
470.23	13095.30
470.41	13209.98
470.59	13502.55
470.77	13240.41
470.95	13336.37
471.14	13570.43
471.32	13432.33
471.50	13352.76
471.68	13647.66
471.86	13537.66
472.04	13769.37
472.22	13989.38
472.40	13827.88
472.58	13731.92
472.77	13853.63
472.95	14305.35
473.13	14551.11
473.31	13902.78
473.49	14068.96
473.67	14005.77
473.85	14469.19
474.03	14539.41
474.21	14572.18
474.39	14731.33
474.57	14766.44
474.75	14885.81
474.93	15222.84
475.12	14991.13
475.30	15119.86
475.48	15133.90
475.66	15377.32
475.84	15257.95
476.02	15454.56
476.20	15339.87
476.38	15613.71
476.56	15861.81
476.74	16027.99
476.92	15754.15
477.10	16042.03
477.28	16269.06
477.46	16248.00
477.64	16159.06
477.82	16402.47
478.00	16723.13
478.18	16917.39
478.36	16613.12
478.54	17116.34
478.72	17401.88
478.90	17221.66
479.08	17614.87
479.26	17895.74
479.44	17846.58
479.62	17685.09
479.80	18071.28
479.98	18150.85
480.16	18707.90
480.34	18207.03
480.52	18443.42
480.70	18541.72
480.88	18689.18
481.06	18988.77
481.24	18965.36
481.41	19248.57
481.59	19307.08
481.77	19552.84
481.95	19826.68
482.13	19749.44
482.31	19719.01
482.49	20250.32
482.67	20404.79
482.85	20381.38
483.03	20631.82
483.21	20943.11
483.39	20994.61
483.57	21064.82
483.74	21172.49
483.92	21205.25
484.10	21076.52
484.28	21907.41
484.46	22001.04
484.64	22504.25
484.82	21972.95
485.00	22321.69
485.18	22780.43
485.35	22885.76
485.53	22764.05
485.71	22988.74
485.89	23700.26
486.07	23112.79
486.25	23440.47
486.43	23660.48
486.61	23901.55
486.78	24133.26
486.96	23955.38
487.14	24594.35
487.32	24884.58
487.50	24758.19
487.68	25165.44
487.85	25427.58
488.03	25891.01
488.21	25745.89
488.39	25649.93
488.57	26078.25
488.75	26209.32
488.92	26576.78
489.10	26951.27
489.28	27037.87
489.46	27316.39
489.64	27302.35
489.81	27880.46
489.99	27566.83
490.17	27658.11
490.35	28093.45
490.53	28350.91
490.70	28493.68
490.88	28629.43
491.06	28643.48
491.24	28943.06
491.41	29153.71
491.59	29282.44
491.77	29261.38
491.95	29509.47
492.13	29453.30
492.30	30415.26
492.48	30136.74
492.66	29832.47
492.84	30466.75
493.01	30675.06
493.19	30642.29
493.37	31054.23
493.54	31318.71
493.72	31260.20
493.90	31564.46
494.08	31674.47
494.25	31990.44
494.43	31742.35
494.61	32334.50
494.79	32486.64
494.96	32393.01
495.14	32545.15
495.32	33535.20
495.49	33312.84
495.67	33209.86
495.85	33462.64
496.02	33954.15
496.20	34235.02
496.38	34092.24
496.55	34429.28
496.73	34817.81
496.91	34724.19
497.09	34792.06
497.26	34998.03
497.44	34574.39
497.62	35246.13
497.79	35817.22
497.97	35716.58
498.14	36034.89
498.32	36245.54
498.50	36652.79
498.67	36823.65
498.85	36627.04
499.03	36774.50
499.20	36870.46
499.38	37048.34
499.56	37312.82
499.73	37013.23
499.91	37251.97
500.08	37682.62
500.26	37509.43
500.44	37570.28
500.61	37523.47
500.79	37998.60
500.97	38267.76
501.14	38588.41
501.32	39105.67
501.49	38541.60
501.67	38824.81
501.84	39283.55
502.02	39323.34
502.20	39243.76
502.37	38998.01
502.55	39318.66
502.72	39606.55
502.90	39611.23
503.07	39414.62
503.25	40297.00
503.43	39922.52
503.60	40158.91
503.78	40109.76
503.95	40360.20
504.13	40737.02
504.30	40966.40
504.48	40762.77
504.65	40486.59
504.83	41326.84
505.01	41439.18
505.18	41146.62
505.36	41799.63
505.53	41322.16
505.71	41937.72
505.88	41813.67
506.06	41464.93
506.23	41755.16
506.41	41722.39
506.58	42213.90
506.76	42422.21
506.93	42270.08
507.11	42646.90
507.28	42986.28
507.46	42834.14
507.63	42677.33
507.81	43182.88
507.98	43049.47
508.16	43505.88
508.33	43421.62
508.50	43524.60
508.68	43934.20
508.85	44189.31
509.03	43842.92
509.20	44470.18
509.38	44294.64
509.55	44282.94
509.73	44416.35
509.90	45010.84
510.08	44409.32
510.25	44795.51
510.42	44636.36
510.60	44844.66
510.77	45200.43
510.95	45170.00
511.12	45329.16
511.30	45329.16
511.47	45647.47
511.64	45684.92
511.82	45830.03
511.99	45654.49
512.17	46050.04
512.34	45827.69
512.51	46410.48
512.69	46721.77
512.86	46272.39
513.04	46621.13
513.21	46351.97
513.38	47185.20
513.56	46766.24
513.73	46941.78
513.90	46997.96
514.08	47077.54
514.25	47468.40
514.43	47505.85
514.60	47592.45
514.77	47386.49
514.95	47856.93
515.12	47812.46
515.29	47473.09
515.47	47927.15
515.64	48226.74
515.81	47646.29
515.99	48210.35
516.16	48575.48
516.33	48463.13
516.51	49095.08
516.68	48671.44
516.85	48273.55
517.03	48608.25
517.20	49083.37
517.37	48435.05
517.54	49151.25
517.72	49123.16
517.89	48893.79
518.06	49289.34
518.24	49523.40
518.41	49139.55
518.58	49343.17
518.75	49502.33
518.93	49724.68
519.10	49537.44
519.27	49724.68
519.45	49724.68
519.62	49853.41
519.79	50115.55
519.96	50131.93
520.14	50251.30
520.31	50246.62
520.48	50335.56
520.65	50478.33
520.83	50536.85
521.00	50553.23
521.17	50607.06
521.34	50885.59
521.52	51049.42
521.69	50960.48
521.86	51117.30
522.03	51569.02
522.20	51409.87
522.38	51627.54
522.55	51526.89
522.72	51461.36
522.89	51409.87
523.07	51751.59
523.24	51679.03
523.41	51880.31
523.58	51363.06
523.75	51821.80
523.92	51971.60
524.10	52350.76
524.27	51990.32
524.44	52250.12
524.61	51875.63
524.78	52189.27
524.96	51845.21
525.13	52762.70
525.30	52629.29
525.47	52364.81
525.64	52289.91
525.81	52662.05
525.98	52648.01
526.16	52542.69
526.33	52603.54
526.50	53214.42
526.67	52853.98
526.84	53076.33
527.01	52868.02
527.18	52966.32
527.36	52861.00
527.53	52963.98
527.70	53375.92
527.87	53371.24
528.04	53088.03
528.21	53659.12
528.38	53511.67
528.55	53595.93
528.72	53698.91
528.89	53525.71
529.07	53862.75
529.24	53553.80
529.41	53577.20
529.58	53523.37
529.75	53570.18
529.92	54071.06
530.09	53895.52
530.26	53848.71
530.43	53893.18
530.60	53773.81
530.77	53965.73
530.94	54251.28
531.11	54096.80
531.28	54148.29
531.46	54155.32
531.63	54501.71
531.80	54450.22
531.97	54450.22
532.14	54665.55
532.31	54550.87
532.48	54644.49
532.65	54850.45
532.82	54756.83
532.99	54965.14
533.16	54513.42
533.33	54686.62
533.50	54941.74
533.67	54930.03
533.84	54731.09
534.01	55016.63
534.18	54911.31
534.35	55201.53
534.52	54934.71
534.69	55236.64
534.86	55346.65
535.03	55306.86
535.20	55206.22
535.37	55386.44
535.54	55636.87
535.71	55627.51
535.88	55512.83
536.05	55437.93
536.22	55372.39
536.38	55671.98
536.55	55749.22
536.72	55716.45
536.89	55927.10
537.06	55606.45
537.23	55884.97
537.40	55739.86
537.57	55938.80
537.74	55669.64
537.91	56048.81
538.08	55796.03
538.25	55952.85
538.42	55852.20
538.59	56023.06
538.75	56147.11
538.92	56317.97
539.09	56413.93
539.26	56210.31
539.43	56086.26
539.60	56397.55
539.77	56320.31
539.94	56732.25
540.11	56317.97
540.28	56315.63
540.44	56608.20
540.61	56460.74
540.78	56554.36
540.95	56191.58
541.12	56467.76
541.29	56238.39
541.46	56736.93
541.62	56605.86
541.79	56647.99
541.96	56442.02
542.13	56594.15
542.30	56704.16
542.47	56741.61
542.63	56765.01
542.80	57024.81
542.97	56968.64
543.14	57310.36
543.31	57235.46
543.48	57083.33
543.64	57427.38
543.81	57509.30
543.98	57418.02
544.15	57574.84
544.32	57460.15
544.48	57738.68
544.65	57415.68
544.82	57450.79
544.99	57411.00
545.16	57485.90
545.32	57595.90
545.49	57649.74
545.66	57701.23
545.83	57698.89
546.00	57705.91
546.16	57748.04
546.33	57565.48
546.50	57518.67
546.67	57712.93
546.83	57530.37
547.00	57719.95
547.17	57776.12
547.34	57888.47
547.50	57846.34
547.67	58279.34
547.84	58007.84
548.00	58035.92
548.17	58335.51
548.34	58277.00
548.51	58309.77
548.67	58356.58
548.84	58527.44
549.01	58178.70
549.18	58159.97
549.34	58232.53
549.51	58152.95
549.68	58632.76
549.84	58272.32
550.01	58363.60
550.18	58415.09
550.34	58536.80
550.51	58520.41
550.68	58419.77
550.84	58220.83
551.01	58611.70
551.18	58731.06
551.34	58585.95
551.51	58761.49
551.68	58841.07
551.84	58468.92
552.01	58307.43
552.18	58843.41
552.34	58630.42
552.51	58890.22
552.68	58553.18
552.84	58616.38
553.01	58876.18
553.18	58721.70
553.34	58859.79
553.51	58937.03
553.67	58646.80
553.84	59030.65
554.01	59058.74
554.17	59091.51
554.34	59154.70
554.51	59061.08
554.67	59330.24
554.84	59021.29
555.00	58920.65
555.17	58997.88
555.33	59150.02
555.50	58864.47
555.67	59002.56
555.83	59260.02
556.00	59203.85
556.16	59344.28
556.33	59348.96
556.50	59224.92
556.66	59550.25
556.83	59075.12
556.99	59372.37
557.16	59615.79
557.32	59489.40
557.49	59812.39
557.65	59189.81
557.82	59491.74
557.98	59515.14
558.15	59414.50
558.32	59475.35
558.48	59395.77
558.65	59536.21
558.81	59505.78
558.98	59608.76
559.14	59601.74
559.31	59671.96
559.47	59779.62
559.64	59732.81
559.80	59702.38
559.97	59952.82
560.13	59568.97
560.30	59994.95
560.46	60039.42
560.63	59746.86
560.79	59840.48
560.96	59870.90
561.12	59798.35
561.29	59835.80
561.45	59901.33
561.61	59760.90
561.78	59856.86
561.94	59992.61
562.11	59840.48
562.27	59948.14
562.44	60041.76
562.60	60238.37
562.77	59938.78
562.93	59788.98
563.10	60030.06
563.26	59781.96
563.42	60245.39
563.59	60048.78
563.75	60133.04
563.92	59847.50
564.08	60137.72
564.24	60257.09
564.41	60264.11
564.57	60151.77
564.74	60109.64
564.90	60156.45
565.07	60303.90
565.23	60186.88
565.39	60046.44
565.56	60322.63
565.72	60093.25
565.88	60320.29
566.05	60114.32
566.21	60207.94
566.38	60317.95
566.54	60179.85
566.70	60343.69
566.87	60392.84
567.03	60154.11
567.19	60467.74
567.36	60432.63
567.52	60301.56
567.68	60577.75
567.85	60383.48
568.01	60362.42
568.17	60327.31
568.34	60701.79
568.50	60488.80
568.66	60268.79
568.83	60392.84
568.99	60292.20
569.15	60547.32
569.32	60477.10
569.48	60479.44
569.64	60589.45
569.81	60542.64
569.97	60374.12
570.13	60556.68
570.30	60521.57
570.46	60664.35
570.62	60547.32
570.78	60451.36
570.95	60451.36
571.11	60650.30
571.27	60582.43
571.43	60610.51
571.60	60601.15
571.76	60444.33
571.92	60423.27
572.09	60706.47
572.25	60544.98
572.41	60610.51
572.57	60839.89
572.74	60872.65
572.90	60774.35
573.06	60615.19
573.22	60521.57
573.38	60680.73
573.55	60542.64
573.71	60818.82
573.87	60800.10
574.03	60673.71
574.20	60809.46
574.36	60638.60
574.52	60917.12
574.68	60846.91
574.84	60687.75
575.01	60804.78
575.17	60601.15
575.33	60671.37
575.49	60580.09
575.65	60779.03
575.82	60814.14
575.98	61080.96
576.14	60980.32
576.30	60926.49
576.46	60687.75
576.62	60725.20
576.79	60673.71
576.95	60664.35
577.11	60755.63
577.27	60907.76
577.43	61013.08
577.59	60591.79
577.75	60762.65
577.92	60973.30
578.08	60748.60
578.24	60818.82
578.40	60886.70
578.56	60846.91
578.72	60741.58
578.88	61010.74
579.04	61113.73
579.21	61106.71
579.37	61113.73
579.53	61116.07
579.69	60587.11
579.85	60804.78
580.01	60816.48
580.17	60697.11
580.33	60884.36
580.49	60949.89
580.65	60889.04
580.82	60757.97
580.98	60870.31
581.14	60809.46
581.30	60924.14
581.46	61015.43
581.62	61050.53
581.78	60970.96
581.94	61095.00
582.10	60889.04
582.26	61062.24
582.42	60917.12
582.58	61017.77
582.74	61022.45
582.90	60872.65
583.06	60928.83
583.22	60860.95
583.38	60952.23
583.54	60966.27
583.70	61043.51
583.86	61090.32
584.02	60910.10
584.18	61029.47
584.34	61146.50
584.50	60882.02
584.66	60970.96
584.82	61029.47
584.98	61165.22
585.14	60987.34
585.30	60935.85
585.46	61017.77
585.62	61024.79
585.78	61300.97
585.94	60996.70
586.10	61062.24
586.26	61183.94
586.42	60994.36
586.58	61380.55
586.74	61216.71
586.90	60975.64
587.06	60926.49
587.22	61333.74
587.38	61233.10
587.54	61165.22
587.70	61310.33
587.86	61052.87
588.02	61031.81
588.18	61151.18
588.34	60889.04
588.49	60999.04
588.65	61179.26
588.81	61020.11
588.97	60910.10
589.13	61258.84
589.29	61202.67
589.45	61307.99
589.61	61284.59
589.77	61410.98
589.93	61275.22
590.08	61425.02
590.24	61350.12
590.40	61476.51
590.56	61368.85
590.72	61499.92
590.88	61401.61
591.04	61307.99
591.20	61584.18
591.35	61556.09
591.51	61565.45
591.67	61354.80
591.83	61511.62
591.99	61214.37
592.15	61558.43
592.31	61492.89
592.46	61345.44
592.62	61392.25
592.78	61406.30
592.94	61532.68
593.10	61448.42
593.26	61530.34
593.41	61495.24
593.57	61556.09
593.73	61682.48
593.89	61733.97
594.05	61488.21
594.20	61565.45
594.36	61705.88
594.52	61481.19
594.68	61364.17
594.84	61432.04
594.99	61605.24
595.15	61338.42
595.31	61607.58
595.47	61399.27
595.62	61474.17
595.78	61591.20
595.94	61755.03
596.10	61886.10
596.25	61558.43
596.41	61848.66
596.57	61607.58
596.73	61853.34
596.88	61523.32
597.04	61715.25
597.20	61832.27
597.36	61607.58
597.51	61925.89
597.67	61635.67
597.83	61593.54
597.99	61663.75
598.14	61630.99
598.30	61832.27
598.46	61853.34
598.61	61790.14
598.77	61799.50
598.93	61607.58
599.09	61815.89
599.24	62042.92
599.40	61717.59
599.56	61717.59
599.71	61619.28
599.87	61825.25
600.03	61736.31
600.18	61691.84
600.34	61558.43
600.50	62059.30
600.65	61715.25
600.81	61818.23
600.97	61942.28
601.12	61797.16
601.28	61675.46
601.44	61759.72
601.59	61815.89
601.75	61778.44
601.91	62087.39
602.06	61825.25
602.22	61956.32
602.37	61895.47
602.53	61740.99
602.69	61872.06
602.84	61715.25
603.00	61764.40
603.16	61738.65
603.31	61851.00
603.47	61748.01
603.62	61696.52
603.78	61902.49
603.94	61551.41
604.09	61780.78
604.25	61834.61
604.40	61719.93
604.56	61928.23
604.71	61916.53
604.87	61808.87
605.03	61832.27
605.18	61944.62
605.34	61848.66
605.49	61614.60
605.65	61911.85
605.80	61916.53
605.96	61918.87
606.12	61916.53
606.27	61827.59
606.43	61801.85
606.58	61818.23
606.74	61670.78
606.89	61808.87
607.05	61897.81
607.20	61942.28
607.36	61748.01
607.51	61726.95
607.67	61406.30
607.82	61696.52
607.98	61696.52
608.13	61684.82
608.29	61822.91
608.44	61520.98
608.60	61560.77
608.75	61853.34
608.91	61532.68
609.06	61605.24
609.22	61673.12
609.37	61474.17
609.53	61654.39
609.68	61680.14
609.84	61691.84
609.99	61647.37
610.15	61839.29
610.30	61710.56
610.46	61516.30
610.61	61630.99
610.76	61506.94
610.92	61497.58
611.07	61443.74
611.23	61373.53
611.38	61740.99
611.54	61675.46
611.69	61614.60
611.84	61661.41
612.00	61427.36
612.15	61546.73
612.31	61553.75
612.46	61460.13
612.62	61588.86
612.77	61586.52
612.92	61598.22
613.08	61652.05
613.23	61663.75
613.39	61420.34
613.54	61282.25
613.69	61609.92
613.85	61385.23
614.00	61560.77
614.15	61778.44
614.31	61403.95
614.46	61652.05
614.62	61371.19
614.77	61420.34
614.92	61563.11
615.08	61462.47
615.23	61242.46
615.38	61427.36
615.54	61315.01
615.69	61567.79
615.84	61371.19
616.00	61382.89
616.15	61326.72
616.30	61415.66
616.46	61352.46
616.61	61375.87
616.76	61488.21
616.92	61331.40
617.07	61298.63
617.22	61197.99
617.37	61315.01
617.53	61418.00
617.68	61528.00
617.83	61265.86
617.99	61305.65
618.14	61375.87
618.29	61319.70
618.45	61188.63
618.60	61263.52
618.75	61010.74
618.90	61209.69
619.06	61200.33
619.21	61336.08
619.36	61214.37
619.51	61436.72
619.67	60977.98
619.82	61155.86
619.97	61162.88
620.12	61059.90
620.28	61268.20
620.43	61090.32
620.58	60992.02
620.73	61029.47
620.89	60980.32
621.04	61305.65
621.19	60879.67
621.34	60959.25
621.49	60814.14
621.65	60839.89
621.80	61003.72
621.95	60807.12
622.10	61015.43
622.25	60870.31
622.41	60816.48
622.56	60877.33
622.71	61017.77
622.86	60853.93
623.01	60704.13
623.16	60846.91
623.32	60624.56
623.47	61050.53
623.62	60870.31
623.77	60811.80
623.92	61045.85
624.07	60797.76
624.23	60999.04
624.38	60912.44
624.53	60772.01
624.68	60734.56
624.83	60788.39
624.98	60921.80
625.13	60596.47
625.29	60757.97
625.44	60736.90
625.59	60624.56
625.74	60736.90
625.89	60640.94
626.04	60425.61
626.19	60374.12
626.34	60303.90
626.49	60491.15
626.65	60439.65
626.80	60608.17
626.95	60563.70
627.10	60214.96
627.25	60528.59
627.40	60423.27
627.55	60542.64
627.70	60329.65
627.85	60245.39
628.00	60236.03
628.15	60224.32
628.30	60271.14
628.45	60395.18
628.60	60196.24
628.76	60193.90
628.91	60383.48
629.06	60280.50
629.21	60381.14
629.36	60308.58
629.51	60388.16
629.66	60266.45
629.81	60116.66
629.96	60060.49
630.11	60229.01
630.26	60100.28
630.41	60392.84
630.56	60023.04
630.71	60229.01
630.86	60053.47
631.01	59952.82
631.16	60200.92
631.31	60104.96
631.46	59772.60
631.61	59997.29
631.76	59950.48
631.91	60226.66
632.06	60107.30
632.21	60004.31
632.36	60009.00
632.51	59683.66
632.66	60093.25
632.81	59819.41
632.96	60032.40
633.10	59994.95
633.25	60065.17
633.40	60030.06
633.55	59957.50
633.70	59924.74
633.85	59849.84
634.00	59704.73
634.15	59639.19
634.30	59671.96
634.45	59622.81
634.60	59887.29
634.75	59730.47
634.90	59798.35
635.05	59760.90
635.19	59901.33
635.34	59920.05
635.49	59723.45
635.64	59669.62
635.79	59742.17
635.94	59861.54
636.09	59772.60
636.24	59737.49
636.39	59618.13
636.53	59814.73
636.68	59564.29
636.83	59660.26
636.98	59779.62
637.13	59477.69
637.28	59353.65
637.43	59496.42
637.57	59475.35
637.72	59409.82
637.87	59531.53
638.02	59522.16
638.17	59568.97
638.32	59468.33
638.46	59281.09
638.61	59264.70
638.76	59512.80
638.91	59426.20
639.06	59224.92
639.20	59203.85
639.35	59227.26
639.50	59210.87
639.65	59245.98
639.80	59276.41
639.94	59327.90
640.09	59213.21
640.24	59145.34
640.39	59238.96
640.54	58951.07
640.68	59274.07
640.83	59309.18
640.98	59011.93
641.13	59082.14
641.27	59180.45
641.42	58908.94
641.57	59112.57
641.72	59117.25
641.86	59007.25
642.01	58920.65
642.16	58925.33
642.31	58925.33
642.45	59234.28
642.60	58834.05
642.75	59199.17
642.90	59110.23
643.04	59121.93
643.19	58897.24
643.34	58787.24
643.48	59166.40
643.63	59063.42
643.78	59035.33
643.93	59138.32
644.07	58796.60
644.22	58934.69
644.37	58628.08
644.51	58700.64
644.66	58805.96
644.81	58934.69
644.95	58679.57
645.10	58667.87
645.25	58623.40
645.39	58646.80
645.54	58567.23
645.69	58410.41
645.83	58595.31
645.98	58548.50
646.13	58585.95
646.27	58768.51
646.42	58567.23
646.57	58522.76
646.71	58464.24
646.86	58841.07
647.00	58614.04
647.15	58571.91
647.30	58550.84
647.44	58405.73
647.59	58677.23
647.74	58660.85
647.88	58461.90
648.03	58712.34
648.17	58431.47
648.32	58431.47
648.47	58436.16
648.61	58475.94
648.76	58487.65
648.90	58216.14
649.05	58171.67
649.20	58574.25
649.34	58309.77
649.49	58354.24
649.63	58480.63
649.78	58585.95
649.92	58377.64
650.07	58466.58
650.21	58174.02
650.36	58363.60
650.51	58291.04
650.65	58450.20
650.80	58358.92
650.94	58164.65
651.09	57914.22
651.23	57748.04
651.38	58138.91
651.52	58000.82
651.67	57829.96
651.81	57986.77
651.96	58061.67
652.10	57848.68
652.25	57680.16
652.39	57986.77
652.54	57834.64
652.68	57478.88
652.83	57743.36
652.97	57687.18
653.12	57654.42
653.26	57860.38
653.41	58108.48
653.55	57918.90
653.70	57876.77
653.84	57813.57
653.99	57855.70
654.13	57694.21
654.27	57724.63
654.42	57586.54
654.56	57401.64
654.71	57743.36
654.85	57846.34
655.00	57886.13
655.14	57614.63
655.29	57525.69
655.43	57755.06
655.57	57654.42
655.72	57638.03
655.86	57551.43
656.01	57488.24
656.15	57258.87
656.30	57460.15
656.44	57808.89
656.58	57757.40
656.73	57488.24
656.87	57609.95
657.01	57556.11
657.16	57659.10
657.30	57387.60
657.45	57286.95
657.59	57422.70
657.73	57263.55
657.88	57305.68
658.02	57230.78
658.16	57113.75
658.31	57029.49
658.45	57188.65
658.60	57090.35
658.74	57153.54
658.88	57160.56
659.03	56992.04
659.17	57013.11
659.31	57102.05
659.46	57242.48
659.60	56949.92
659.74	56947.57
659.89	57036.51
660.03	56940.55
660.17	57221.42
660.32	56769.69
660.46	56884.38
660.60	56561.39
660.74	56860.97
660.89	56942.89
661.03	56591.81
661.17	56514.58
661.32	56406.91
661.46	56750.97
661.60	56622.24
661.74	56678.41
661.89	56315.63
662.03	56282.86
662.17	56296.91
662.31	56509.89
662.46	56516.92
662.60	56271.16
662.74	56413.93
662.88	56203.28
663.03	56168.18
663.17	56002.00
663.31	56126.05
663.45	55985.61
663.60	55915.40
663.74	55707.09
663.88	55828.80
664.02	55622.83
664.17	55870.93
664.31	55615.81
664.45	55765.60
664.59	55552.62
664.73	55618.15
664.88	55728.16
665.02	55398.14
665.16	55604.11
665.30	55583.04
665.44	55515.17
665.59	55337.29
665.73	55365.37
665.87	55208.56
666.01	55419.20
666.15	55391.12
666.29	55154.72
666.44	55374.73
666.58	55119.62
666.72	54930.03
666.86	55035.36
667.00	54955.78
667.14	54887.90
667.28	54644.49
667.43	54726.41
667.57	54628.10
667.71	54733.43
667.85	54635.13
667.99	54684.28
668.13	54611.72
668.27	54515.76
668.41	54862.16
668.56	54244.26
668.70	54719.38
668.84	54171.70
668.98	54387.03
669.12	54024.25
669.26	54593.00
669.40	54663.21
669.54	54384.69
669.68	54010.20
669.82	54040.63
669.96	54021.90
670.10	54356.60
670.25	54234.89
670.39	54422.14
670.53	54190.42
670.67	53712.95
670.81	54010.20
670.95	53886.15
671.09	53731.68
671.23	53600.61
671.37	53352.51
671.51	53607.63
671.65	53703.59
671.79	53546.78
671.93	53324.43
672.07	53294.00
672.21	53380.60
672.35	53137.18
672.49	52828.23
672.63	52863.34
672.77	52856.32
672.91	52851.64
673.05	52617.58
673.19	52914.83
673.33	52409.28
673.47	52252.46
673.61	52734.61
673.75	52580.13
673.89	52193.95
674.03	52294.59
674.17	52465.45
674.31	51976.28
674.45	51569.02
674.59	51901.38
674.73	52072.24
674.87	52002.02
675.01	51606.47
675.15	51402.85
675.29	51435.61
675.43	51473.06
675.56	51363.06
675.70	50894.95
675.84	50857.50
675.98	49916.61
676.12	50944.10
676.26	51019.00
676.40	50913.67
676.54	50845.80
676.68	50806.01
676.82	50080.44
676.96	50424.50
677.10	50028.95
677.23	50206.83
677.37	49907.24
677.51	50155.34
677.65	49546.80
677.79	48514.62
677.93	48935.92
678.07	49205.08
678.21	48753.36
678.34	49050.61
678.48	49116.14
678.62	48884.43
678.76	48701.87
678.90	48755.70
679.04	48278.23
679.18	48858.68
679.31	47995.03
679.45	48163.54
679.59	48285.25
679.73	48121.41
679.87	47866.30
680.00	47496.49
680.14	47641.60
680.28	47475.43
680.42	47271.80
680.56	46784.97
680.70	46639.86
680.83	46824.76
680.97	47075.19
681.11	46962.85
681.25	46490.06
681.39	46328.56
681.52	46237.28
681.66	46403.46
681.80	46071.10
681.94	45970.46
682.07	45965.78
682.21	45301.07
682.35	45879.18
682.49	45406.39
682.62	45691.94
682.76	45256.60
682.90	45385.33
683.04	45134.89
683.17	44765.09
683.31	44390.60
683.45	44556.78
683.59	44086.33
683.72	44664.44
683.86	43971.64
684.00	44041.86
684.13	44039.52
684.27	44039.52
684.41	43756.32
684.55	44076.97
684.68	43868.66
684.82	43210.97
684.96	43330.34
685.09	42824.78
685.23	42705.41
685.37	43021.39
685.50	42447.96
685.64	42473.70
685.78	42621.16
685.91	42099.22
686.05	42368.38
686.19	41427.48
686.32	41656.85
686.46	41200.45
686.60	41102.15
686.73	40730.00
686.87	40837.67
687.01	41375.99
687.14	40975.76
687.28	40116.78
687.42	40816.60
687.55	40346.15
687.69	40687.87
687.82	40320.41
687.96	39983.37
688.10	39218.02
688.23	40018.48
688.37	39414.62
688.50	39346.75
688.64	39321.00
688.78	38934.81
688.91	38998.01
689.05	38621.18
689.18	38492.45
689.32	38335.63
689.46	37738.80
689.59	37764.54
689.73	37647.52
689.86	37783.27
690.00	37383.04
690.13	37539.85
690.27	37319.84
690.41	37715.39
690.54	37394.74
690.68	36605.98
690.81	36772.16
690.95	36446.82
691.08	36610.66
691.22	36535.76
691.35	36481.93
691.49	36034.89
691.62	35936.59
691.76	35945.95
691.89	35786.79
692.03	35475.50
692.16	35543.38
692.30	35608.91
692.43	35316.34
692.57	34536.94
692.70	35051.86
692.84	34796.74
692.97	34958.24
693.11	34256.08
693.24	34490.13
693.38	33989.26
693.51	33846.49
693.65	33752.87
693.78	33642.86
693.92	33642.86
694.05	33408.81
694.19	33310.50
694.32	33401.79
694.45	33102.20
694.59	32826.01
694.72	32767.50
694.86	32313.44
694.99	32044.27
695.13	31950.65
695.26	32210.45
695.39	31585.53
695.53	31885.12
695.66	31630.00
695.80	31255.51
695.93	31543.40
696.07	30930.18
696.20	30686.76
696.33	30742.94
696.47	31084.65
696.60	30504.20
696.73	30689.10
696.87	30258.45
697.00	29890.98
697.14	30143.76
697.27	30291.21
697.40	30075.88
697.54	29816.08
697.67	29479.05
697.80	29638.20
697.94	29422.87
698.07	29069.45
698.21	29027.32
698.34	28936.04
698.47	28856.46
698.61	28334.53
698.74	28615.39
698.87	28428.15
699.01	28123.88
699.14	28524.11
699.27	28334.53
699.40	28053.66
699.54	28034.94
699.67	27894.50
699.80	27480.23
699.94	27491.93
700.07	27721.30
700.20	27321.07
700.34	26614.23
700.47	26429.33
700.60	26572.10
700.73	26782.75
700.87	26043.14
701.00	25696.74
701.13	26338.05
701.26	26080.59
701.40	26132.08
701.53	25703.76
701.66	25668.66
701.79	25376.09
701.93	25137.35
702.06	24926.71
702.19	25156.08
702.32	25184.16
702.46	24561.58
702.59	24889.26
702.72	24699.67
702.85	24402.43
702.99	24276.04
703.12	24341.57
703.25	23861.76
703.38	24081.77
703.51	23917.93
703.65	23754.10
703.78	23255.56
703.91	23185.35
704.04	23199.39
704.17	23559.83
704.31	23300.03
704.44	22937.25
704.57	22834.27
704.70	22665.75
704.83	23058.96
704.96	22356.80
705.10	22038.48
705.23	22347.44
>>>>>End Processed Spectral Data<<<<<
