SpectraSuite Data File
++++++++++++++++++++++++++++++++++++
Date: Fri Oct 25 11:23:57 EDT 2013
User: price-jones
Dark Spectrum Present: No
Reference Spectrum Present: No
Number of Sampled Component Spectra: 1
Spectrometers: USB2+H05261
Integration Time (usec): 100000 (USB2+H05261)
Spectra Averaged: 1 (USB2+H05261)
Boxcar Smoothing: 0 (USB2+H05261)
Correct for Electrical Dark: No (USB2+H05261)
Strobe/Lamp Enabled: No (USB2+H05261)
Correct for Detector Non-linearity: No (USB2+H05261)
Correct for Stray Light: No (USB2+H05261)
Number of Pixels in Processed Spectrum: 2048
>>>>>Begin Processed Spectral Data<<<<<
365.73	297.25
365.92	297.25
366.12	297.25
366.32	142.77
366.52	166.18
366.72	142.77
366.91	177.88
367.11	86.60
367.31	100.64
367.51	56.17
367.70	51.49
367.90	147.45
368.10	187.24
368.30	131.07
368.49	119.37
368.69	131.07
368.89	117.03
369.09	140.43
369.28	154.48
369.48	175.54
369.68	159.16
369.87	177.88
370.07	196.60
370.27	205.97
370.47	290.23
370.66	573.43
370.86	578.11
371.06	711.52
371.25	660.03
371.45	669.39
371.65	713.86
371.84	594.50
372.04	657.69
372.24	746.63
372.44	676.41
372.63	727.91
372.83	655.35
373.03	711.52
373.22	812.17
373.42	765.36
373.62	751.31
373.81	791.10
374.01	922.17
374.21	856.64
374.40	788.76
374.60	800.46
374.79	788.76
374.99	833.23
375.19	849.61
375.38	945.58
375.58	837.91
375.78	833.23
375.97	901.11
376.17	903.45
376.37	826.21
376.56	882.38
376.76	835.57
376.95	837.91
377.15	915.15
377.35	873.02
377.54	875.36
377.74	849.61
377.93	851.96
378.13	976.00
378.33	961.96
378.52	915.15
378.72	866.00
378.91	894.08
379.11	999.41
379.31	917.49
379.50	898.77
379.70	952.60
379.89	926.85
380.09	889.40
380.28	1006.43
380.48	959.62
380.68	952.60
380.87	973.66
381.07	910.47
381.26	952.60
381.46	980.68
381.65	1128.14
381.85	1067.28
382.04	1006.43
382.24	1050.90
382.43	1107.07
382.63	983.02
382.83	1032.18
383.02	1135.16
383.22	1149.20
383.41	1095.37
383.61	1158.57
383.80	1156.22
384.00	1069.62
384.19	1053.24
384.39	1170.27
384.58	1165.59
384.78	1078.99
384.97	1207.72
385.17	1081.33
385.36	1137.50
385.56	1128.14
385.75	1179.63
385.95	1245.16
386.14	1289.64
386.34	1167.93
386.53	1226.44
386.72	1203.04
386.92	1266.23
387.11	1156.22
387.31	1205.38
387.50	1277.93
387.70	1231.12
387.89	1167.93
388.09	1275.59
388.28	1270.91
388.48	1273.25
388.67	1341.13
388.86	1348.15
389.06	1359.85
389.25	1348.15
389.45	1418.36
389.64	1350.49
389.84	1369.21
390.03	1296.66
390.22	1394.96
390.42	1376.24
390.61	1418.36
390.81	1364.53
391.00	1418.36
391.19	1509.65
391.39	1434.75
391.58	1385.60
391.78	1357.51
391.97	1455.81
392.16	1490.92
392.36	1507.30
392.55	1542.41
392.75	1493.26
392.94	1523.69
393.13	1476.88
393.33	1579.86
393.52	1593.90
393.71	1593.90
393.91	1598.59
394.10	1547.09
394.29	1612.63
394.49	1579.86
394.68	1582.20
394.88	1575.18
395.07	1654.76
395.26	1633.69
395.46	1717.95
395.65	1788.17
395.84	1806.89
396.04	1682.85
396.23	1722.63
396.42	1685.19
396.62	1795.19
396.81	1764.76
397.00	1769.44
397.19	1795.19
397.39	1790.51
397.58	1797.53
397.77	1706.25
397.97	1874.77
398.16	1760.08
398.35	1888.81
398.55	1909.88
398.74	1956.69
398.93	1898.17
399.12	1907.54
399.32	1963.71
399.51	1933.28
399.70	1973.07
399.90	2012.86
400.09	2113.50
400.28	2090.10
400.47	2010.52
400.67	2106.48
400.86	2080.74
401.05	2160.31
401.24	2108.82
401.44	1998.82
401.63	2157.97
401.82	2155.63
402.01	2108.82
402.21	2200.10
402.40	2141.59
402.59	2225.85
402.78	2146.27
402.97	2132.23
403.17	2270.32
403.36	2417.77
403.55	2291.38
403.74	2445.86
403.93	2377.98
404.13	2361.60
404.32	2303.09
404.51	2246.91
404.70	2429.48
404.89	2317.13
405.09	2539.48
405.28	2457.56
405.47	2417.77
405.66	2539.48
405.85	2438.84
406.05	2473.95
406.24	2541.82
406.43	2574.59
406.62	2661.19
406.81	2581.61
407.00	2565.23
407.20	2553.52
407.39	2455.22
407.58	2616.72
407.77	2698.64
407.96	2761.83
408.15	2705.66
408.34	2616.72
408.54	2874.18
408.73	2869.50
408.92	2822.69
409.11	2850.77
409.30	2876.52
409.49	2911.63
409.68	2871.84
409.87	2906.95
410.07	3061.42
410.26	3052.06
410.45	3042.70
410.64	2988.86
410.83	3166.74
411.02	3110.57
411.21	3096.53
411.40	3138.66
411.59	3251.00
411.78	3152.70
411.98	3283.77
412.17	3241.64
412.36	3330.58
412.55	3318.88
412.74	3426.54
412.93	3382.07
413.12	3398.46
413.31	3513.14
413.50	3527.19
413.69	3524.85
413.88	3641.87
414.07	3590.38
414.26	3557.61
414.45	3719.11
414.64	3599.74
414.83	3716.77
415.02	3796.35
415.22	3817.41
415.41	3953.16
415.60	3967.21
415.79	3864.22
415.98	4018.70
416.17	3997.64
416.36	3868.91
416.55	3988.27
416.74	4058.49
416.93	4067.85
417.12	4002.32
417.31	4269.14
417.50	4184.88
417.69	4308.93
417.88	4236.37
418.07	4341.69
418.26	4395.53
418.45	4229.35
418.64	4547.66
418.83	4468.08
419.02	4470.42
419.21	4535.96
419.39	4451.70
419.58	4510.21
419.77	4561.70
419.96	4535.96
420.15	4573.41
420.34	4542.98
420.53	4531.28
420.72	4830.87
420.91	4582.77
421.10	4681.07
421.29	4901.08
421.48	4748.95
421.67	4709.16
421.86	4821.50
422.05	4788.74
422.24	4931.51
422.43	4842.57
422.61	4903.42
422.80	5034.49
422.99	4931.51
423.18	4889.38
423.37	5036.83
423.56	5090.67
423.75	4863.63
423.94	4917.47
424.13	4671.71
424.32	4844.91
424.50	5074.28
424.69	5205.35
424.88	5100.03
425.07	4950.23
425.26	4983.00
425.45	5057.90
425.64	4882.36
425.83	4957.25
426.01	5156.20
426.20	5128.11
426.39	4964.28
426.58	5085.98
426.77	5064.92
426.96	5125.77
427.15	5142.16
427.33	5174.92
427.52	5193.65
427.71	5207.69
427.90	5280.25
428.09	5315.36
428.28	5291.95
428.46	5310.68
428.65	5406.64
428.84	5556.43
429.03	5514.30
429.22	5432.38
429.40	5474.51
429.59	5511.96
429.78	5289.61
429.97	5109.39
430.16	5462.81
430.34	5636.01
430.53	5687.50
430.72	5940.28
430.91	5441.75
431.10	5521.32
431.28	5769.42
431.47	5671.12
431.66	5802.19
431.85	5813.89
432.03	5963.68
432.22	6073.69
432.41	5902.83
432.60	5870.06
432.79	5970.71
432.97	6108.80
433.16	5966.03
433.35	6071.35
433.54	6045.60
433.72	6218.80
433.91	6129.86
434.10	6207.10
434.28	6085.39
434.47	6164.97
434.66	6361.58
434.85	6382.64
435.03	6377.96
435.22	6244.55
435.41	6499.67
435.59	6476.26
435.78	6483.28
435.97	6513.71
436.16	6298.38
436.34	6286.68
436.53	6520.73
436.72	6553.50
436.90	6457.54
437.09	6719.68
437.28	6539.46
437.46	6825.00
437.65	6722.02
437.84	6750.10
438.02	6757.13
438.21	6820.32
438.40	6623.72
438.58	6963.09
438.77	7063.74
438.96	6892.88
439.14	6988.84
439.33	7220.55
439.52	7145.66
439.70	7082.46
439.89	7346.94
440.08	7302.47
440.26	7342.26
440.45	7316.51
440.63	7534.18
440.82	7550.57
441.01	7389.07
441.19	7604.40
441.38	7606.74
441.57	7658.23
441.75	7850.16
441.94	7957.82
442.12	8030.38
442.31	7812.71
442.50	8124.00
442.68	7997.61
442.87	8044.42
443.05	8098.25
443.24	8442.31
443.43	8236.35
443.61	8102.93
443.80	8491.46
443.98	8013.99
444.17	7796.32
444.35	8091.23
444.54	8430.61
444.73	8327.63
444.91	8470.40
445.10	8351.03
445.28	8416.57
445.47	8430.61
445.65	8348.69
445.84	8510.19
446.02	8514.87
446.21	8456.36
446.39	8358.05
446.58	8496.14
446.77	8374.44
446.95	8348.69
447.14	8610.83
447.32	8477.42
447.51	8507.85
447.69	8484.44
447.88	8493.80
448.06	8587.43
448.25	8463.38
448.43	8667.00
448.62	8631.90
448.80	8454.02
448.99	8767.65
449.17	8767.65
449.36	8622.53
449.54	8961.91
449.73	9249.80
449.91	9097.66
450.10	9006.38
450.28	9100.00
450.46	8858.93
450.65	9153.84
450.83	9184.26
451.02	9001.70
451.20	9179.58
451.39	9219.37
451.57	8966.59
451.76	9022.77
451.94	9254.48
452.13	9277.88
452.31	9280.22
452.49	9025.11
452.68	9392.57
452.86	9401.93
453.05	9413.63
453.23	9540.02
453.42	9392.57
453.60	9376.19
453.78	9540.02
453.97	9228.73
454.15	9699.18
454.34	9497.89
454.52	9830.25
454.70	9621.94
454.89	9837.27
455.07	9863.02
455.26	9827.91
455.44	10073.67
455.62	10054.94
455.81	10127.50
455.99	10029.20
456.17	10160.27
456.36	9900.47
456.54	10129.84
456.73	10221.12
456.91	10576.88
457.09	10558.16
457.28	10438.79
457.46	10441.13
457.64	10654.12
457.83	10726.68
458.01	10520.71
458.19	10883.49
458.38	10619.01
458.56	10548.79
458.74	10696.25
458.93	10516.03
459.11	10871.79
459.29	10822.64
459.48	10878.81
459.66	10822.64
459.84	10895.19
460.03	11084.78
460.21	11183.08
460.39	10974.77
460.57	10853.06
460.76	11054.35
460.94	11265.00
461.12	11157.33
461.31	11159.67
461.49	11082.44
461.67	11187.76
461.85	11482.67
462.04	11358.62
462.22	11501.39
462.40	11796.30
462.59	11496.71
462.77	11548.20
462.95	11609.06
463.13	11590.33
463.32	11571.61
463.50	11700.34
463.68	11819.71
463.86	12112.27
464.05	11716.72
464.23	11786.94
464.41	11686.29
464.59	11559.91
464.78	12072.48
464.96	11932.05
465.14	11833.75
465.32	12079.50
465.50	12203.55
465.69	11971.84
465.87	11957.80
466.05	12133.34
466.23	12283.13
466.41	12355.69
466.60	12388.46
466.78	12395.48
466.96	12226.96
467.14	12376.75
467.32	12425.90
467.51	12456.33
467.69	12402.50
467.87	12580.38
468.05	12631.87
468.23	12566.34
468.41	12271.43
468.60	12456.33
468.78	13020.40
468.96	12681.02
469.14	12795.71
469.32	13090.62
469.50	12613.15
469.69	12896.35
469.87	13102.32
470.05	13118.70
470.23	13322.33
470.41	13195.94
470.59	13303.60
470.77	13404.25
470.95	13268.50
471.14	13816.18
471.32	13221.69
471.50	13547.02
471.68	13720.22
471.86	13715.54
472.04	13902.78
472.22	13954.27
472.40	13771.71
472.58	13877.04
472.77	14047.90
472.95	14080.66
473.13	14581.54
473.31	14155.56
473.49	14064.28
473.67	13991.72
473.85	14249.18
474.03	14590.90
474.21	14480.89
474.39	14757.08
474.57	14949.00
474.75	14731.33
474.93	15059.01
475.12	14827.29
475.30	15293.06
475.48	14897.51
475.66	15143.27
475.84	15178.37
476.02	15510.73
476.20	15204.12
476.38	15613.71
476.56	16198.85
476.74	16039.69
476.92	15840.75
477.10	15791.59
477.28	16145.02
477.46	16159.06
477.64	16355.66
477.82	16655.25
478.00	16898.67
478.18	16821.43
478.36	17114.00
478.54	17247.41
478.72	17172.51
478.90	17352.73
479.08	17823.18
479.26	17535.29
479.44	17750.62
479.62	17980.00
479.80	18408.31
479.98	18113.41
480.16	18761.73
480.34	18167.24
480.52	18583.85
480.70	18696.20
480.88	18436.40
481.06	18820.25
481.24	18750.03
481.41	19147.92
481.59	19417.08
481.77	19618.37
481.95	19632.41
482.13	19611.35
482.31	19826.68
482.49	20477.35
482.67	20224.57
482.85	20720.76
483.03	20915.03
483.21	20776.94
483.39	20826.09
483.57	20774.60
483.74	21259.09
483.92	21685.06
484.10	21380.79
484.28	21741.24
484.46	21788.05
484.64	22473.82
484.82	22190.62
485.00	22235.09
485.18	22874.06
485.35	22927.89
485.53	22698.52
485.71	23061.30
485.89	23704.95
486.07	23150.24
486.25	23271.95
486.43	23667.50
486.61	23894.53
486.78	24037.30
486.96	24379.02
487.14	24535.84
487.32	24732.44
487.50	25109.27
487.68	25191.19
487.85	25736.53
488.03	25628.87
488.21	25507.16
488.39	26015.05
488.57	26242.09
488.75	26331.03
488.92	26426.99
489.10	26757.00
489.28	26885.73
489.46	27307.03
489.64	27070.64
489.81	27716.62
489.99	27491.93
490.17	27695.56
490.35	28510.07
490.53	28048.98
490.70	28456.23
490.88	28332.18
491.06	28716.03
491.24	28905.62
491.41	29127.97
491.59	29252.02
491.77	29165.42
491.95	29621.82
492.13	29640.54
492.30	30017.37
492.48	30143.76
492.66	29963.54
492.84	30415.26
493.01	30707.83
493.19	30913.80
493.37	31180.62
493.54	31227.43
493.72	31768.09
493.90	31599.57
494.08	31971.72
494.25	31964.70
494.43	32517.06
494.61	32430.46
494.79	32531.11
494.96	32627.07
495.14	32716.01
495.32	33095.18
495.49	33406.47
495.67	33319.87
495.85	33944.79
496.02	33944.79
496.20	34190.55
496.38	33989.26
496.55	34286.51
496.73	35133.78
496.91	34281.83
497.09	35206.34
497.26	34911.43
497.44	35414.65
497.62	35321.02
497.79	35751.68
497.97	35573.80
498.14	36084.04
498.32	35896.80
498.50	36095.74
498.67	36690.24
498.85	36685.56
499.03	37275.37
499.20	36837.69
499.38	37090.47
499.56	37151.32
499.73	37359.63
499.91	37642.84
500.08	37387.72
500.26	37427.51
500.44	37919.02
500.61	37839.44
500.79	37853.48
500.97	38223.29
501.14	38897.36
501.32	38569.69
501.49	38405.85
501.67	38438.62
501.84	39260.15
502.02	38948.85
502.20	39412.28
502.37	39613.57
502.55	39356.11
502.72	39367.81
502.90	39629.95
503.07	39391.22
503.25	40016.14
503.43	39845.28
503.60	40383.60
503.78	40495.95
503.95	40301.68
504.13	40793.20
504.30	40526.38
504.48	40428.07
504.65	40935.97
504.83	40900.86
505.01	41574.94
505.18	41174.70
505.36	41668.56
505.53	41558.55
505.71	42146.03
505.88	41874.52
506.06	41443.87
506.23	42162.41
506.41	42263.05
506.58	42312.20
506.76	42117.94
506.93	42667.97
507.11	42476.04
507.28	42274.76
507.46	42377.74
507.63	42700.73
507.81	43332.68
507.98	42916.06
508.16	43290.55
508.33	43562.05
508.50	43395.87
508.68	43695.46
508.85	44442.09
509.03	43690.78
509.20	44006.75
509.38	44582.52
509.55	44573.16
509.73	44917.22
509.90	44657.42
510.08	44769.77
510.25	44945.31
510.42	44868.07
510.60	45104.46
510.77	45647.47
510.95	45450.86
511.12	45067.02
511.30	45549.17
511.47	45921.31
511.64	45619.38
511.82	46284.09
511.99	45808.96
512.17	45792.58
512.34	45617.04
512.51	46426.87
512.69	46454.95
512.86	46742.84
513.04	46890.29
513.21	46845.82
513.38	46712.41
513.56	46939.44
513.73	46799.01
513.90	47084.56
514.08	46953.49
514.25	47445.00
514.43	47800.76
514.60	47288.18
514.77	47950.56
514.95	47751.61
515.12	47901.40
515.29	47714.16
515.47	48074.60
515.64	48130.78
515.81	47627.56
515.99	48154.18
516.16	48842.30
516.33	48488.88
516.51	49118.48
516.68	48561.44
516.85	48624.63
517.03	48879.75
517.20	48879.75
517.37	48692.50
517.54	49088.06
517.72	48889.11
517.89	49048.27
518.06	49389.98
518.24	49408.71
518.41	49532.76
518.58	49593.61
518.75	49195.72
518.93	49652.12
519.10	49759.79
519.27	49897.88
519.45	49677.87
519.62	49991.50
519.79	50078.10
519.96	50225.56
520.14	50314.50
520.31	50628.13
520.48	50504.08
520.65	50368.33
520.83	50738.13
521.00	50829.41
521.17	50733.45
521.34	50803.67
521.52	50532.17
521.69	50976.87
521.86	51040.06
522.03	51271.78
522.20	51615.83
522.38	51550.30
522.55	51601.79
522.72	51377.10
522.89	51246.03
523.07	51831.16
523.24	51557.32
523.41	51508.17
523.58	51512.85
523.75	52027.77
523.92	51950.53
524.10	52453.75
524.27	52348.42
524.44	52126.07
524.61	52210.33
524.78	52142.45
524.96	52292.25
525.13	52500.56
525.30	52472.47
525.47	52502.90
525.64	52797.80
525.81	52610.56
525.98	52985.05
526.16	52727.59
526.33	52821.21
526.50	52889.09
526.67	52828.23
526.84	53195.70
527.01	52734.61
527.18	53020.16
527.36	53083.35
527.53	53443.79
527.70	53275.27
527.87	53357.19
528.04	53413.37
528.21	53406.34
528.38	53514.01
528.55	53453.15
528.72	53317.40
528.89	53565.50
529.07	53621.67
529.24	53099.73
529.41	53811.26
529.58	53757.42
529.75	53734.02
529.92	53874.45
530.09	54066.38
530.26	54059.35
530.43	53918.92
530.60	53834.66
530.77	54005.52
530.94	53961.05
531.11	54330.86
531.28	54244.26
531.46	54426.82
531.63	54607.04
531.80	54424.48
531.97	54571.93
532.14	54440.86
532.31	54810.67
532.48	54710.02
532.65	54653.85
532.82	54536.82
532.99	54534.48
533.16	54740.45
533.33	54997.91
533.50	55196.85
533.67	54714.70
533.84	54850.45
534.01	54866.84
534.18	55004.93
534.35	55400.48
534.52	55187.49
534.69	55444.95
534.86	55199.19
535.03	55206.22
535.20	55159.41
535.37	55569.00
535.54	55585.38
535.71	55421.55
535.88	55423.89
536.05	55547.93
536.22	55725.81
536.38	55817.10
536.55	55416.86
536.72	55569.00
536.89	55613.47
537.06	55657.94
537.23	55835.82
537.40	55536.23
537.57	55791.35
537.74	55929.44
537.91	56053.49
538.08	55994.98
538.25	55693.05
538.42	55824.12
538.59	56177.54
538.75	56165.84
538.92	55938.80
539.09	56280.52
539.26	56310.95
539.43	55973.91
539.60	56280.52
539.77	56460.74
539.94	56439.68
540.11	56479.47
540.28	56662.03
540.44	56287.54
540.61	56561.39
540.78	56498.19
540.95	56446.70
541.12	56554.36
541.29	56631.60
541.46	56715.86
541.62	56720.54
541.79	56704.16
541.96	56547.34
542.13	56484.15
542.30	56753.31
542.47	56961.62
542.63	57120.77
542.80	56900.76
542.97	56926.51
543.14	57389.94
543.31	57329.08
543.48	57338.44
543.64	57373.55
543.81	57425.04
543.98	57277.59
544.15	57403.98
544.32	57588.88
544.48	57640.37
544.65	57326.74
544.82	57439.09
544.99	57567.82
545.16	57588.88
545.32	57427.38
545.49	57689.52
545.66	57956.35
545.83	57659.10
546.00	57841.66
546.16	58066.35
546.33	57558.45
546.50	57528.03
546.67	57888.47
546.83	57621.65
547.00	57914.22
547.17	57998.48
547.34	57829.96
547.50	57869.75
547.67	58323.81
547.84	57989.11
548.00	58108.48
548.17	58443.18
548.34	58277.00
548.51	58216.14
548.67	58328.49
548.84	58101.46
549.01	58031.24
549.18	58204.44
549.34	58295.72
549.51	58269.98
549.68	58475.94
549.84	58504.03
550.01	58555.52
550.18	58286.36
550.34	58337.85
550.51	58651.48
550.68	58660.85
550.84	58408.07
551.01	58707.66
551.18	58611.70
551.34	58651.48
551.51	58649.14
551.68	58532.12
551.84	58651.48
552.01	58637.44
552.18	58810.64
552.34	58705.32
552.51	58658.51
552.68	58656.17
552.84	58862.13
553.01	58967.46
553.18	58866.81
553.34	58983.84
553.51	58728.72
553.67	58869.15
553.84	59135.98
554.01	58843.41
554.17	59192.15
554.34	59040.01
554.51	58951.07
554.67	59147.68
554.84	58922.99
555.00	59049.38
555.17	59072.78
555.33	59250.66
555.50	59000.22
555.67	59196.83
555.83	58969.80
556.00	59271.73
556.16	59458.97
556.33	59292.79
556.50	59395.77
556.66	59465.99
556.83	59217.89
556.99	59489.40
557.16	59753.88
557.32	59477.69
557.49	59599.40
557.65	59494.08
557.82	59676.64
557.98	59419.18
558.15	59632.17
558.32	59489.40
558.48	59540.89
558.65	59629.83
558.81	59613.44
558.98	59615.79
559.14	59739.83
559.31	59568.97
559.47	59601.74
559.64	59917.71
559.80	59725.79
559.97	59828.77
560.13	59639.19
560.30	59852.18
560.46	59711.75
560.63	59922.40
560.79	59798.35
560.96	59927.08
561.12	59964.52
561.29	59945.80
561.45	59838.14
561.61	59667.28
561.78	59835.80
561.94	59891.97
562.11	59898.99
562.27	59861.54
562.44	59978.57
562.60	60123.68
562.77	60191.56
562.93	59718.77
563.10	60016.02
563.26	60114.32
563.42	60280.50
563.59	60135.38
563.75	60004.31
563.92	60067.51
564.08	60109.64
564.24	60198.58
564.41	60369.44
564.57	60135.38
564.74	60182.19
564.90	60205.60
565.07	60374.12
565.23	60301.56
565.39	60135.38
565.56	60275.82
565.72	60144.75
565.88	60149.43
566.05	60299.22
566.21	60179.85
566.38	60236.03
566.54	60301.56
566.70	60268.79
566.87	60411.57
567.03	60341.35
567.19	60416.25
567.36	60341.35
567.52	60219.64
567.68	60636.26
567.85	60453.70
568.01	60559.02
568.17	60521.57
568.34	60453.70
568.50	60395.18
568.66	60301.56
568.83	60594.13
568.99	60516.89
569.15	60317.95
569.32	60589.45
569.48	60425.61
569.64	60708.82
569.81	60512.21
569.97	60463.06
570.13	60638.60
570.30	60425.61
570.46	60563.70
570.62	60624.56
570.78	60505.19
570.95	60477.10
571.11	60687.75
571.27	60547.32
571.43	60594.13
571.60	60673.71
571.76	60430.29
571.92	60802.44
572.09	60631.58
572.25	60640.94
572.41	60584.77
572.57	60514.55
572.74	60949.89
572.90	60905.42
573.06	60697.11
573.22	60617.53
573.38	60865.63
573.55	60657.32
573.71	60898.40
573.87	60830.52
574.03	60470.08
574.20	60816.48
574.36	60809.46
574.52	60727.54
574.68	60942.87
574.84	60755.63
575.01	60872.65
575.17	60542.64
575.33	60882.02
575.49	60832.86
575.65	60961.59
575.82	60858.61
575.98	60877.33
576.14	61073.94
576.30	60877.33
576.46	60931.17
576.62	60760.31
576.79	60966.27
576.95	60619.88
577.11	60755.63
577.27	60945.21
577.43	60870.31
577.59	61020.11
577.75	60647.96
577.92	60736.90
578.08	60912.44
578.24	60947.55
578.40	61123.09
578.56	60926.49
578.72	60856.27
578.88	60956.91
579.04	61132.45
579.21	60903.08
579.37	60933.51
579.53	61027.13
579.69	60767.33
579.85	60800.10
580.01	60736.90
580.17	60795.42
580.33	61216.71
580.49	61062.24
580.65	61158.20
580.82	60917.12
580.98	60980.32
581.14	61064.58
581.30	61038.83
581.46	60774.35
581.62	60945.21
581.78	61092.66
581.94	60985.00
582.10	61120.75
582.26	61111.39
582.42	61001.38
582.58	61125.43
582.74	60963.93
582.90	60968.61
583.06	61102.03
583.22	60825.84
583.38	61027.13
583.54	61071.60
583.70	61160.54
583.86	61116.07
584.02	60989.68
584.18	61132.45
584.34	60966.27
584.50	61038.83
584.66	60924.14
584.82	60987.34
584.98	60985.00
585.14	61134.79
585.30	60947.55
585.46	61050.53
585.62	60999.04
585.78	61127.77
585.94	61048.19
586.10	60928.83
586.26	60994.36
586.42	61153.52
586.58	61038.83
586.74	60977.98
586.90	60933.51
587.06	61162.88
587.22	61064.58
587.38	61104.37
587.54	61167.56
587.70	61453.11
587.86	61286.93
588.02	61048.19
588.18	61172.24
588.34	61141.81
588.49	61092.66
588.65	61144.16
588.81	61113.73
588.97	61291.61
589.13	61277.57
589.29	61432.04
589.45	61410.98
589.61	61338.42
589.77	61469.49
589.93	61237.78
590.08	61448.42
590.24	61326.72
590.40	61394.59
590.56	61586.52
590.72	61528.00
590.88	61607.58
591.04	61464.81
591.20	61415.66
591.35	61516.30
591.51	61743.33
591.67	61366.51
591.83	61516.30
591.99	61464.81
592.15	61282.25
592.31	61455.45
592.46	61506.94
592.62	61570.13
592.78	61392.25
592.94	61581.84
593.10	61446.08
593.26	61532.68
593.41	61574.81
593.57	61595.88
593.73	61558.43
593.89	61811.21
594.05	61808.87
594.20	61558.43
594.36	61598.22
594.52	61530.34
594.68	61375.87
594.84	61296.29
594.99	61584.18
595.15	61343.10
595.31	61593.54
595.47	61464.81
595.62	61495.24
595.78	61425.02
595.94	61640.35
596.10	61750.35
596.25	61691.84
596.41	61696.52
596.57	61654.39
596.73	61715.25
596.88	61743.33
597.04	61717.59
597.20	61733.97
597.36	61818.23
597.51	61865.04
597.67	61418.00
597.83	61602.90
597.99	61544.39
598.14	61719.93
598.30	61792.48
598.46	61773.76
598.61	61900.15
598.77	61792.48
598.93	61867.38
599.09	61813.55
599.24	61874.40
599.40	61972.70
599.56	61752.69
599.71	61806.53
599.87	61778.44
600.03	61773.76
600.18	61689.50
600.34	61577.15
600.50	61731.63
600.65	61858.02
600.81	61752.69
600.97	61895.47
601.12	61846.32
601.28	61855.68
601.44	61825.25
601.59	61773.76
601.75	61813.55
601.91	61883.76
602.06	61911.85
602.22	61813.55
602.37	61698.86
602.53	61661.41
602.69	61722.27
602.84	61677.80
603.00	61855.68
603.16	62007.81
603.31	61862.70
603.47	61881.42
603.62	61808.87
603.78	61895.47
603.94	61792.48
604.09	61902.49
604.25	61909.51
604.40	61687.16
604.56	61921.21
604.71	61876.74
604.87	61640.35
605.03	61846.32
605.18	61794.82
605.34	61914.19
605.49	61691.84
605.65	61956.32
605.80	61820.57
605.96	61874.40
606.12	62010.15
606.27	61874.40
606.43	61633.33
606.58	61965.68
606.74	61858.02
606.89	61726.95
607.05	61963.34
607.20	61968.02
607.36	61766.74
607.51	61729.29
607.67	61539.71
607.82	61616.94
607.98	61818.23
608.13	61839.29
608.29	61808.87
608.44	61797.16
608.60	61780.78
608.75	61729.29
608.91	61663.75
609.06	61448.42
609.22	61846.32
609.37	61488.21
609.53	61682.48
609.68	61773.76
609.84	61673.12
609.99	61726.95
610.15	61801.85
610.30	61778.44
610.46	61570.13
610.61	61675.46
610.76	61598.22
610.92	61504.60
611.07	61750.35
611.23	61528.00
611.38	61612.26
611.54	61567.79
611.69	61703.54
611.84	61691.84
612.00	61513.96
612.15	61602.90
612.31	61609.92
612.46	61511.62
612.62	61581.84
612.77	61490.55
612.92	61696.52
613.08	61427.36
613.23	61581.84
613.39	61322.04
613.54	61572.47
613.69	61572.47
613.85	61506.94
614.00	61593.54
614.15	61462.47
614.31	61574.81
614.46	61460.13
614.62	61490.55
614.77	61329.06
614.92	61476.51
615.08	61387.57
615.23	61326.72
615.38	61647.37
615.54	61364.17
615.69	61345.44
615.84	61441.40
616.00	61553.75
616.15	61272.88
616.30	61516.30
616.46	61258.84
616.61	61158.20
616.76	61462.47
616.92	61237.78
617.07	61284.59
617.22	61228.41
617.37	61333.74
617.53	61542.05
617.68	61537.36
617.83	61359.48
617.99	61286.93
618.14	61410.98
618.29	61422.68
618.45	61256.50
618.60	61298.63
618.75	61195.65
618.90	61193.31
619.06	61291.61
619.21	61130.11
619.36	61425.02
619.51	61338.42
619.67	60884.36
619.82	61062.24
619.97	61347.78
620.12	61010.74
620.28	60966.27
620.43	61052.87
620.58	61036.49
620.73	60891.38
620.89	61113.73
621.04	61179.26
621.19	61076.28
621.34	61106.71
621.49	60795.42
621.65	61090.32
621.80	61064.58
621.95	60917.12
622.10	60980.32
622.25	60903.08
622.41	60961.59
622.56	60959.25
622.71	60982.66
622.86	60802.44
623.01	60725.20
623.16	60786.05
623.32	60963.93
623.47	60999.04
623.62	60783.71
623.77	60764.99
623.92	60968.61
624.07	61034.15
624.23	60973.30
624.38	60903.08
624.53	60608.17
624.68	60729.88
624.83	60713.50
624.98	60575.40
625.13	60530.93
625.29	60821.16
625.44	60797.76
625.59	60687.75
625.74	60608.17
625.89	60542.64
626.04	60514.55
626.19	60605.83
626.34	60544.98
626.49	60346.03
626.65	60317.95
626.80	60612.85
626.95	60544.98
627.10	60463.06
627.25	60219.64
627.40	60353.05
627.55	60367.10
627.70	60317.95
627.85	60484.12
628.00	60243.05
628.15	60552.00
628.30	60315.61
628.45	60420.93
628.60	60378.80
628.76	60381.14
628.91	60629.24
629.06	60477.10
629.21	60470.08
629.36	60301.56
629.51	60385.82
629.66	60130.70
629.81	60025.38
629.96	60041.76
630.11	60296.88
630.26	60339.01
630.41	60320.29
630.56	60212.62
630.71	60343.69
630.86	60137.72
631.01	60001.97
631.16	60107.30
631.31	60065.17
631.46	59882.61
631.61	59934.10
631.76	60060.49
631.91	60079.21
632.06	60268.79
632.21	60001.97
632.36	59877.93
632.51	59824.09
632.66	60018.36
632.81	59695.36
632.96	60130.70
633.10	59959.84
633.25	59997.29
633.40	60053.47
633.55	59838.14
633.70	59880.27
633.85	59852.18
634.00	59725.79
634.15	59746.86
634.30	59608.76
634.45	59828.77
634.60	60037.08
634.75	59854.52
634.90	59543.23
635.05	59721.11
635.19	59664.94
635.34	59803.03
635.49	59594.72
635.64	59739.83
635.79	59831.11
635.94	59812.39
636.09	59732.81
636.24	59629.83
636.39	59571.32
636.53	59803.03
636.68	59480.03
636.83	59744.51
636.98	59662.60
637.13	59458.97
637.28	59421.52
637.43	59512.80
637.57	59564.29
637.72	59533.87
637.87	59470.67
638.02	59543.23
638.17	59597.06
638.32	59482.37
638.46	59281.09
638.61	59515.14
638.76	59323.22
638.91	59276.41
639.06	59206.19
639.20	59187.47
639.35	59203.85
639.50	59236.62
639.65	59157.04
639.80	59334.92
639.94	58997.88
640.09	59063.42
640.24	59297.47
640.39	59320.88
640.54	59150.02
640.68	59166.40
640.83	59215.55
640.98	59135.98
641.13	59208.53
641.27	59402.80
641.42	59100.87
641.57	58997.88
641.72	59032.99
641.86	59128.95
642.01	58796.60
642.16	58948.73
642.31	58981.50
642.45	59182.79
642.60	58997.88
642.75	59229.60
642.90	59114.91
643.04	59051.72
643.19	58927.67
643.34	58930.01
643.48	59222.58
643.63	59025.97
643.78	59161.72
643.93	58969.80
644.07	58953.41
644.22	58578.93
644.37	58532.12
644.51	58754.47
644.66	58883.20
644.81	58721.70
644.95	58777.87
645.10	58726.38
645.25	58848.09
645.39	58674.89
645.54	58679.57
645.69	58667.87
645.83	58855.11
645.98	58511.05
646.13	58918.31
646.27	58803.62
646.42	58726.38
646.57	58571.91
646.71	58614.04
646.86	58705.32
647.00	58684.25
647.15	58621.06
647.30	58557.86
647.44	58653.82
647.59	58548.50
647.74	58700.64
647.88	58635.10
648.03	58621.06
648.17	58562.54
648.32	58394.03
648.47	58578.93
648.61	58459.56
648.76	58445.52
648.90	58333.17
649.05	58436.16
649.20	58323.81
649.34	58356.58
649.49	58597.65
649.63	58272.32
649.78	58616.38
649.92	58305.09
650.07	58321.47
650.21	58024.22
650.36	58260.62
650.51	58398.71
650.65	58330.83
650.80	58211.46
650.94	58370.62
651.09	58087.42
651.23	57822.93
651.38	58143.59
651.52	57839.32
651.67	57780.81
651.81	58019.54
651.96	57930.60
652.10	57951.66
652.25	57930.60
652.39	57741.02
652.54	58028.90
652.68	57860.38
652.83	57825.28
652.97	57911.88
653.12	57918.90
653.26	58096.78
653.41	58028.90
653.55	57900.17
653.70	57787.83
653.84	57766.76
653.99	57785.49
654.13	57804.21
654.27	57881.45
654.42	57553.77
654.56	57745.70
654.71	57769.10
654.85	57748.04
655.00	57925.92
655.14	57860.38
655.29	57623.99
655.43	57731.65
655.57	57717.61
655.72	57687.18
655.86	57506.96
656.01	57530.37
656.15	57385.25
656.30	57631.01
656.44	57621.65
656.58	57584.20
656.73	57712.93
656.87	57506.96
657.01	57396.96
657.16	57556.11
657.30	57162.90
657.45	57523.35
657.59	57249.50
657.73	57247.16
657.88	57233.12
658.02	57476.54
658.16	57333.76
658.31	56963.96
658.45	57481.22
658.60	57422.70
658.74	57343.12
658.88	57296.31
659.03	57221.42
659.17	56921.83
659.31	57382.91
659.46	57017.79
659.60	57062.26
659.74	57286.95
659.89	56914.81
660.03	56753.31
660.17	56996.73
660.32	56818.84
660.46	56900.76
660.60	56610.54
660.74	56823.53
660.89	57151.20
661.03	56629.26
661.17	56542.66
661.32	56612.88
661.46	56601.18
661.60	56622.24
661.74	56528.62
661.89	56474.79
662.03	56460.74
662.17	56357.76
662.31	56264.14
662.46	56484.15
662.60	56278.18
662.74	56275.84
662.88	56142.43
663.03	56196.26
663.17	56292.22
663.31	56238.39
663.45	56156.47
663.60	55950.51
663.74	55796.03
663.88	55707.09
664.02	55704.75
664.17	55861.57
664.31	55824.12
664.45	55744.54
664.59	55966.89
664.73	55896.67
664.88	55657.94
665.02	55243.66
665.16	55451.97
665.30	55695.39
665.44	55569.00
665.59	55253.03
665.73	55363.03
665.87	55192.17
666.01	55477.72
666.15	55557.30
666.29	55360.69
666.44	55077.49
666.58	55063.44
666.72	55112.59
666.86	54880.88
667.00	54993.23
667.14	54569.59
667.28	54920.67
667.43	54897.27
667.57	55004.93
667.71	54677.25
667.85	54632.78
667.99	54658.53
668.13	54707.68
668.27	54611.72
668.41	54593.00
668.56	54450.22
668.70	54298.09
668.84	54312.13
668.98	54454.90
669.12	54382.35
669.26	54459.58
669.40	54396.39
669.54	54295.75
669.68	54286.39
669.82	53996.16
669.96	54152.97
670.10	54117.87
670.25	54227.87
670.39	54188.08
670.53	54096.80
670.67	53876.79
670.81	54583.63
670.95	53811.26
671.09	53570.18
671.23	53422.73
671.37	53731.68
671.51	53574.86
671.65	53434.43
671.79	53492.94
671.93	53373.58
672.07	53354.85
672.21	53279.96
672.35	52914.83
672.49	52779.08
672.63	52758.02
672.77	52931.22
672.91	52755.68
673.05	52830.57
673.19	52587.16
673.33	52357.78
673.47	52453.75
673.61	52669.08
673.75	52638.65
673.89	52409.28
674.03	52460.77
674.17	52243.10
674.31	51840.53
674.45	51807.76
674.59	51824.14
674.73	51838.18
674.87	51817.12
675.01	51927.13
675.15	51487.10
675.29	51697.75
675.43	51618.17
675.56	51447.32
675.70	51381.78
675.84	51079.85
675.98	50267.69
676.12	51103.26
676.26	50993.25
676.40	51086.87
676.54	50815.37
676.68	50759.20
676.82	50171.72
676.96	50398.76
677.10	50424.50
677.23	50010.23
677.37	50000.86
677.51	49942.35
677.65	49635.74
677.79	48956.99
677.93	49102.10
678.07	49223.81
678.21	48900.81
678.34	49043.59
678.48	49172.31
678.62	48797.83
678.76	48935.92
678.90	48718.25
679.04	48051.20
679.18	48664.42
679.31	47959.92
679.45	48198.65
679.59	48512.28
679.73	48168.22
679.87	47508.19
680.00	47330.31
680.14	47590.11
680.28	47728.20
680.42	47253.08
680.56	46770.93
680.70	46822.42
680.83	46576.66
680.97	47100.94
681.11	47290.52
681.25	46609.43
681.39	46518.15
681.52	46309.84
681.66	46660.92
681.80	46036.00
681.94	45869.82
682.07	46094.51
682.21	45516.40
682.35	45385.33
682.49	45329.16
682.62	45549.17
682.76	45727.05
682.90	45549.17
683.04	44847.00
683.17	45216.81
683.31	44762.75
683.45	44498.26
683.59	44577.84
683.72	43971.64
683.86	44046.54
684.00	44144.84
684.13	44355.49
684.27	44119.10
684.41	43941.22
684.55	43833.55
684.68	43597.16
684.82	43463.75
684.96	43229.69
685.09	43136.07
685.23	42923.08
685.37	42892.66
685.50	42796.70
685.64	42492.43
685.78	42808.40
685.91	42490.09
686.05	42344.97
686.19	41654.51
686.32	41851.12
686.46	41448.55
686.60	41045.97
686.73	40807.24
686.87	41062.36
687.01	41055.34
687.14	40636.38
687.28	40423.39
687.42	40634.04
687.55	40325.09
687.69	40561.48
687.82	40093.38
687.96	39618.25
688.10	39597.18
688.23	39723.57
688.37	39218.02
688.50	39548.03
688.64	39044.82
688.78	39065.88
688.91	38382.45
689.05	38529.90
689.18	38927.79
689.32	37549.21
689.46	37783.27
689.59	37691.99
689.73	37827.74
689.86	37642.84
690.00	37441.55
690.13	38085.20
690.27	37708.37
690.41	37827.74
690.54	37263.67
690.68	36786.20
690.81	36458.52
690.95	36477.25
691.08	36533.42
691.22	36629.38
691.35	36161.28
691.49	36739.39
691.62	36603.64
691.76	35878.07
691.89	35835.94
692.03	35480.18
692.16	35644.02
692.30	35395.92
692.43	35484.86
692.57	34763.98
692.70	34675.04
692.84	34855.26
692.97	34604.82
693.11	34572.05
693.24	34417.58
693.38	34286.51
693.51	33748.18
693.65	33771.59
693.78	33324.55
693.92	33926.07
694.05	33549.24
694.19	33343.27
694.32	33029.64
694.45	33046.02
694.59	32823.67
694.72	32788.56
694.86	32596.64
694.99	32350.88
695.13	31969.38
695.26	31871.07
695.39	31871.07
695.53	31955.33
695.66	31955.33
695.80	31463.82
695.93	31124.44
696.07	30644.63
696.20	30452.71
696.33	31065.93
696.47	30890.39
696.60	31115.08
696.73	30710.17
696.87	30649.32
697.00	30534.63
697.14	30419.94
697.27	30038.44
697.40	30057.16
697.54	29872.26
697.67	29619.48
697.80	29460.32
697.94	29195.84
698.07	29230.95
698.21	29015.62
698.34	28994.56
698.47	28514.75
698.61	28489.00
698.74	28465.60
698.87	28596.67
699.01	28238.56
699.14	28095.79
699.27	28107.49
699.40	28252.61
699.54	28217.50
699.67	27840.67
699.80	27850.03
699.94	27644.07
700.07	27496.61
700.20	27138.51
700.34	26909.14
700.47	26794.45
700.60	26494.86
700.73	26192.94
700.87	26167.19
701.00	25848.88
701.13	26111.02
701.26	26094.63
701.40	25790.36
701.53	26096.97
701.66	25479.07
701.79	25376.09
701.93	25270.76
702.06	24933.73
702.19	24816.70
702.32	25130.33
702.46	25127.99
702.59	24421.15
702.72	24606.05
702.85	24732.44
702.99	24519.45
703.12	24175.39
703.25	24119.22
703.38	23590.26
703.51	23850.06
703.65	23283.65
703.78	23688.56
703.91	23089.38
704.04	23410.04
704.17	23484.94
704.31	23454.51
704.44	23058.96
704.57	22778.09
704.70	22963.00
704.83	22661.07
704.96	22560.42
705.10	22150.83
705.23	22022.10
>>>>>End Processed Spectral Data<<<<<
