SpectraSuite Data File
++++++++++++++++++++++++++++++++++++
Date: Fri Oct 25 11:25:02 EDT 2013
User: price-jones
Dark Spectrum Present: No
Reference Spectrum Present: No
Number of Sampled Component Spectra: 1
Spectrometers: USB2+H05261
Integration Time (usec): 100000 (USB2+H05261)
Spectra Averaged: 1 (USB2+H05261)
Boxcar Smoothing: 0 (USB2+H05261)
Correct for Electrical Dark: No (USB2+H05261)
Strobe/Lamp Enabled: No (USB2+H05261)
Correct for Detector Non-linearity: No (USB2+H05261)
Correct for Stray Light: No (USB2+H05261)
Number of Pixels in Processed Spectrum: 2048
>>>>>Begin Processed Spectral Data<<<<<
365.73	278.52
365.92	278.52
366.12	278.52
366.32	224.69
366.52	152.13
366.72	187.24
366.91	149.79
367.11	177.88
367.31	110.01
367.51	227.03
367.70	147.45
367.90	152.13
368.10	147.45
368.30	138.09
368.49	166.18
368.69	173.20
368.89	208.31
369.09	203.63
369.28	201.29
369.48	119.37
369.68	168.52
369.87	159.16
370.07	156.82
370.27	255.12
370.47	365.12
370.66	608.54
370.86	580.45
371.06	688.12
371.25	655.35
371.45	601.52
371.65	683.44
371.84	732.59
372.04	631.94
372.24	741.95
372.44	732.59
372.63	734.93
372.83	716.20
373.03	725.57
373.22	758.33
373.42	653.01
373.62	753.65
373.81	828.55
374.01	875.36
374.21	842.59
374.40	833.23
374.60	901.11
374.79	802.80
374.99	816.85
375.19	814.51
375.38	837.91
375.58	835.57
375.78	915.15
375.97	917.49
376.17	898.77
376.37	833.23
376.56	908.13
376.76	940.90
376.95	847.27
377.15	840.25
377.35	908.13
377.54	945.58
377.74	987.71
377.93	954.94
378.13	882.38
378.33	950.26
378.52	844.93
378.72	891.74
378.91	898.77
379.11	976.00
379.31	987.71
379.50	990.05
379.70	1006.43
379.89	976.00
380.09	938.55
380.28	954.94
380.48	992.39
380.68	1011.11
380.87	985.37
381.07	1034.52
381.26	1069.62
381.46	987.71
381.65	1015.79
381.85	1041.54
382.04	1053.24
382.24	1015.79
382.43	1107.07
382.63	1032.18
382.83	1060.26
383.02	1146.86
383.22	1123.46
383.41	1095.37
383.61	1057.92
383.80	1170.27
384.00	1135.16
384.19	1071.97
384.39	1102.39
384.58	1149.20
384.78	1172.61
384.97	1109.41
385.17	1078.99
385.36	1193.67
385.56	1167.93
385.75	1139.84
385.95	1226.44
386.14	1245.16
386.34	1144.52
386.53	1217.08
386.72	1252.19
386.92	1186.65
387.11	1299.00
387.31	1282.61
387.50	1198.35
387.70	1322.40
387.89	1210.06
388.09	1242.82
388.28	1252.19
388.48	1200.69
388.67	1317.72
388.86	1334.11
389.06	1350.49
389.25	1336.45
389.45	1345.81
389.64	1284.95
389.84	1291.98
390.03	1397.30
390.22	1474.54
390.42	1348.15
390.61	1371.55
390.81	1327.08
391.00	1444.11
391.19	1352.83
391.39	1486.24
391.58	1455.81
391.78	1455.81
391.97	1507.30
392.16	1462.83
392.36	1523.69
392.55	1523.69
392.75	1554.12
392.94	1476.88
393.13	1444.11
393.33	1467.52
393.52	1671.14
393.71	1558.80
393.91	1579.86
394.10	1582.20
394.29	1652.42
394.49	1633.69
394.68	1661.78
394.88	1624.33
395.07	1650.08
395.26	1624.33
395.46	1565.82
395.65	1722.63
395.84	1612.63
396.04	1783.49
396.23	1760.08
396.42	1778.81
396.62	1664.12
396.81	1732.00
397.00	1757.74
397.19	1823.28
397.39	1685.19
397.58	1813.92
397.77	1781.15
397.97	1769.44
398.16	1865.41
398.35	1921.58
398.55	1849.02
398.74	1898.17
398.93	1907.54
399.12	1944.99
399.32	2064.35
399.51	1970.73
399.70	1961.37
399.90	2012.86
400.09	2024.56
400.28	2118.18
400.47	2024.56
400.67	2108.82
400.86	2022.22
401.05	2050.31
401.24	2033.93
401.44	2120.53
401.63	2172.02
401.82	2106.48
402.01	2043.29
402.21	2090.10
402.40	2221.17
402.59	2239.89
402.78	2256.28
402.97	2277.34
403.17	2253.94
403.36	2167.34
403.55	2176.70
403.74	2385.01
403.93	2363.94
404.13	2452.88
404.32	2319.47
404.51	2466.92
404.70	2455.22
404.89	2399.05
405.09	2525.44
405.28	2495.01
405.47	2382.67
405.66	2483.31
405.85	2520.76
406.05	2527.78
406.24	2593.31
406.43	2595.65
406.62	2551.18
406.81	2665.87
407.00	2555.86
407.20	2644.81
407.39	2579.27
407.58	2670.55
407.77	2693.96
407.96	2628.42
408.15	2750.13
408.34	2745.45
408.54	2754.81
408.73	2794.60
408.92	2686.94
409.11	2768.85
409.30	2890.56
409.49	2848.43
409.68	2822.69
409.87	2977.16
410.07	2881.20
410.26	2986.52
410.45	2944.39
410.64	3077.80
410.83	3023.97
411.02	3047.38
411.21	3201.85
411.40	3150.36
411.59	3232.28
411.78	3201.85
411.98	3208.87
412.17	3344.63
412.36	3342.28
412.55	3304.84
412.74	3290.79
412.93	3407.82
413.12	3307.18
413.31	3578.68
413.50	3566.98
413.69	3513.14
413.88	3574.00
414.07	3597.40
414.26	3655.92
414.45	3674.64
414.64	3691.02
414.83	3784.65
415.02	3777.62
415.22	3747.20
415.41	3922.74
415.60	3838.48
415.79	3796.35
415.98	3929.76
416.17	3896.99
416.36	4049.13
416.55	3992.95
416.74	4014.02
416.93	3969.55
417.12	4056.15
417.31	4072.53
417.50	4266.80
417.69	4393.19
417.88	4280.84
418.07	4173.18
418.26	4245.73
418.45	4304.25
418.64	4465.74
418.83	4404.89
419.02	4442.34
419.21	4402.55
419.39	4468.08
419.58	4423.61
419.77	4440.00
419.96	4390.84
420.15	4542.98
420.34	4512.55
420.53	4648.30
420.72	4774.69
420.91	4709.16
421.10	4816.82
421.29	4784.06
421.48	4566.39
421.67	4774.69
421.86	4772.35
422.05	4889.38
422.24	4777.03
422.43	4812.14
422.61	4784.06
422.80	4865.97
422.99	4891.72
423.18	4828.53
423.37	5083.64
423.56	4987.68
423.75	4990.02
423.94	4952.57
424.13	4718.52
424.32	4734.90
424.50	4915.12
424.69	5057.90
424.88	5097.69
425.07	4910.44
425.26	4748.95
425.45	4938.53
425.64	4887.04
425.83	5085.98
426.01	5090.67
426.20	5125.77
426.39	4983.00
426.58	4973.64
426.77	5067.26
426.96	5165.56
427.15	5067.26
427.33	5163.22
427.52	5203.01
427.71	5224.08
427.90	5298.97
428.09	5282.59
428.28	5303.65
428.46	5289.61
428.65	5282.59
428.84	5526.00
429.03	5397.28
429.22	5502.60
429.40	5497.92
429.59	5551.75
429.78	5179.61
429.97	5191.31
430.16	5575.16
430.34	5664.10
430.53	5556.43
430.72	5727.29
430.91	5717.93
431.10	5774.10
431.28	5738.99
431.47	5696.86
431.66	5839.64
431.85	5701.54
432.03	6010.50
432.22	5947.30
432.41	5722.61
432.60	5909.85
432.79	5804.53
432.97	5909.85
433.16	6141.57
433.35	5818.57
433.54	6122.84
433.72	6200.08
433.91	6106.46
434.10	6244.55
434.28	6012.84
434.47	6155.61
434.66	6216.46
434.85	6232.85
435.03	6253.91
435.22	6209.44
435.41	6614.35
435.59	6270.30
435.78	6361.58
435.97	6445.84
436.16	6544.14
436.34	6530.09
436.53	6413.07
436.72	6534.78
436.90	6363.92
437.09	6553.50
437.28	6319.45
437.46	6642.44
437.65	6471.58
437.84	6684.57
438.02	6754.79
438.21	6766.49
438.40	6733.72
438.58	6916.28
438.77	6869.47
438.96	6946.71
439.14	7056.72
439.33	7190.13
439.52	7316.51
439.70	7007.56
439.89	7335.24
440.08	7300.13
440.26	7400.77
440.45	7410.14
440.63	7342.26
440.82	7513.12
441.01	7452.27
441.19	7557.59
441.38	7803.35
441.57	7723.77
441.75	7604.40
441.94	7789.30
442.12	7908.67
442.31	7824.41
442.50	8011.65
442.68	7808.03
442.87	7960.16
443.05	8140.38
443.24	8049.10
443.43	8056.12
443.61	8084.21
443.80	8386.14
443.98	7903.99
444.17	7819.73
444.35	8243.37
444.54	8411.89
444.73	8180.17
444.91	8124.00
445.10	8299.54
445.28	8226.98
445.47	8294.86
445.65	8271.45
445.84	8489.12
446.02	8517.21
446.21	8308.90
446.39	8390.82
446.58	8449.33
446.77	8542.96
446.95	8196.56
447.14	8470.40
447.32	8505.51
447.51	8379.12
447.69	8444.65
447.88	8521.89
448.06	8273.79
448.25	8489.12
448.43	8564.02
448.62	8622.53
448.80	8395.50
448.99	8585.08
449.17	8765.31
449.36	8589.77
449.54	8812.12
449.73	9071.92
449.91	9006.38
450.10	8868.29
450.28	9004.04
450.46	9046.17
450.65	9020.42
450.83	8957.23
451.02	8973.61
451.20	9081.28
451.39	8994.68
451.57	9149.15
451.76	9022.77
451.94	9418.32
452.13	9284.91
452.31	9254.48
452.49	9205.33
452.68	9256.82
452.86	9366.82
453.05	9320.01
453.23	9652.37
453.42	9430.02
453.60	9378.53
453.78	9467.47
453.97	9301.29
454.15	9614.92
454.34	9542.36
454.52	9626.62
454.70	9654.71
454.89	9633.64
455.07	9902.81
455.26	9790.46
455.44	9930.89
455.62	9956.64
455.81	9797.48
455.99	10012.81
456.17	9844.29
456.36	10134.52
456.54	9886.42
456.73	10171.97
456.91	10354.53
457.09	10485.60
457.28	10485.60
457.46	10141.54
457.64	10562.84
457.83	10551.14
458.01	10335.81
458.19	10602.63
458.38	10544.11
458.56	10560.50
458.74	10616.67
458.93	10619.01
459.11	10677.52
459.29	10824.98
459.48	10717.31
459.66	10768.80
459.84	11133.93
460.03	11073.07
460.21	11000.52
460.39	10956.05
460.57	10974.77
460.76	10932.64
460.94	11218.19
461.12	11143.29
461.31	11272.02
461.49	11108.18
461.67	11016.90
461.85	11363.30
462.04	11398.41
462.22	11693.32
462.40	11550.54
462.59	11459.26
462.77	11370.32
462.95	11676.93
463.13	11485.01
463.32	11524.80
463.50	11552.88
463.68	11470.97
463.86	11716.72
464.05	11695.66
464.23	11625.44
464.41	11988.22
464.59	11784.60
464.78	12114.61
464.96	11981.20
465.14	11728.42
465.32	12051.42
465.50	12086.53
465.69	12149.72
465.87	11847.79
466.05	12133.34
466.23	12280.79
466.41	12479.74
466.60	12297.17
466.78	11918.01
466.96	12182.49
467.14	12018.65
467.32	12348.67
467.51	12461.01
467.69	11992.90
467.87	12395.48
468.05	12561.66
468.23	12280.79
468.41	12444.63
468.60	12542.93
468.78	12791.03
468.96	12524.21
469.14	12683.36
469.32	13282.54
469.50	12444.63
469.69	12755.92
469.87	13111.68
470.05	12982.95
470.23	13254.45
470.41	13097.64
470.59	13149.13
470.77	13078.91
470.95	13493.19
471.14	13355.10
471.32	13015.72
471.50	13565.74
471.68	13371.48
471.86	13462.76
472.04	13785.76
472.22	13851.29
472.40	13549.36
472.58	13722.56
472.77	13771.71
472.95	13921.51
473.13	14480.89
473.31	13745.97
473.49	14115.77
473.67	14059.60
473.85	13958.96
474.03	14548.77
474.21	14537.07
474.39	14604.94
474.57	14750.06
474.75	14511.32
474.93	15213.48
475.12	14967.73
475.30	14960.70
475.48	14827.29
475.66	15030.92
475.84	15180.71
476.02	15386.68
476.20	15314.13
476.38	15594.99
476.56	16023.31
476.74	16177.78
476.92	15723.72
477.10	15953.09
477.28	15934.37
477.46	16212.89
477.64	16276.09
477.82	16531.20
478.00	16847.18
478.18	16521.84
478.36	16737.17
478.54	17219.32
478.72	17034.42
478.90	17502.53
479.08	17479.12
479.26	17703.81
479.44	17664.02
479.62	17764.67
479.80	17996.38
479.98	18024.47
480.16	18508.96
480.34	18527.68
480.52	18345.12
480.70	18501.93
480.88	18403.63
481.06	18354.48
481.24	18445.76
481.41	19084.73
481.59	19384.32
481.77	19730.72
481.95	19482.62
482.13	19506.02
482.31	19810.29
482.49	20044.35
482.67	20013.92
482.85	20215.21
483.03	20247.97
483.21	20570.97
483.39	20680.97
483.57	20989.92
483.74	21102.27
483.92	21205.25
484.10	21142.06
484.28	21610.17
484.46	21947.20
484.64	21898.05
484.82	21944.86
485.00	22317.01
485.18	22551.06
485.35	22916.19
485.53	22750.01
485.71	22789.80
485.89	23208.75
486.07	23349.18
486.25	23405.36
486.43	23772.82
486.61	23964.75
486.78	23941.34
486.96	24219.86
487.14	24786.27
487.32	24795.64
487.50	24739.46
487.68	24975.86
487.85	25228.63
488.03	25633.55
488.21	25762.28
488.39	25570.35
488.57	25778.66
488.75	26089.95
488.92	26347.41
489.10	26492.52
489.28	26464.44
489.46	27229.79
489.64	26703.17
489.81	27536.40
489.99	27608.96
490.17	27770.46
490.35	28065.36
490.53	27807.90
490.70	28287.71
490.88	27995.15
491.06	28507.72
491.24	28671.56
491.41	29113.92
491.59	29343.30
491.77	29095.20
491.95	29446.28
492.13	29479.05
492.30	29865.24
492.48	30221.00
492.66	29764.59
492.84	30352.07
493.01	30766.34
493.19	30342.70
493.37	30740.60
493.54	31136.15
493.72	31559.78
493.90	31468.50
494.08	31409.99
494.25	31887.46
494.43	31761.07
494.61	32135.56
494.79	32493.66
494.96	32486.64
495.14	32582.60
495.32	33048.36
495.49	33062.41
495.67	33151.35
495.85	33350.29
496.02	33919.04
496.20	34024.37
496.38	34038.41
496.55	33951.81
496.73	34792.06
496.91	34803.77
497.09	34494.82
497.26	34518.22
497.44	35049.52
497.62	35489.54
497.79	35484.86
497.97	35225.06
498.14	35737.64
498.32	36327.45
498.50	35842.96
498.67	36383.63
498.85	36034.89
499.03	36624.70
499.20	36292.35
499.38	36723.01
499.56	37078.77
499.73	37177.07
499.91	37230.90
500.08	37518.79
500.26	37024.93
500.44	37074.09
500.61	37621.77
500.79	37975.19
500.97	37816.04
501.14	38593.09
501.32	38066.47
501.49	38529.90
501.67	38665.65
501.84	38993.32
502.02	38466.70
502.20	39201.63
502.37	39236.74
502.55	39339.72
502.72	38895.02
502.90	39636.97
503.07	39449.73
503.25	39496.54
503.43	39442.71
503.60	40086.36
503.78	40233.81
503.95	40212.74
504.13	40327.43
504.30	40589.57
504.48	41071.72
504.65	40509.99
504.83	40737.02
505.01	41324.50
505.18	41254.28
505.36	41457.91
505.53	41064.70
505.71	41654.51
505.88	41588.98
506.06	41677.92
506.23	41638.13
506.41	41558.55
506.58	42230.29
506.76	41869.84
506.93	42450.30
507.11	42274.76
507.28	42291.14
507.46	42492.43
507.63	42569.66
507.81	42810.74
507.98	42895.00
508.16	42953.51
508.33	43475.45
508.50	43512.90
508.68	43215.65
508.85	43810.15
509.03	43646.31
509.20	43943.56
509.38	44512.31
509.55	44430.39
509.73	44112.08
509.90	44580.18
510.08	44247.83
510.25	44566.14
510.42	44411.67
510.60	45092.76
510.77	45263.62
510.95	45364.26
511.12	45085.74
511.30	45263.62
511.47	45034.25
511.64	45397.03
511.82	45830.03
511.99	45317.45
512.17	45918.97
512.34	45633.42
512.51	45933.01
512.69	46384.74
512.86	46553.26
513.04	46377.72
513.21	46351.97
513.38	46824.76
513.56	46822.42
513.73	46653.90
513.90	46665.60
514.08	46939.44
514.25	46913.70
514.43	47686.07
514.60	47210.95
514.77	47498.83
514.95	47620.54
515.12	47510.53
515.29	47421.59
515.47	48233.76
515.64	47775.02
515.81	47707.14
515.99	48444.41
516.16	48671.44
516.33	48128.44
516.51	48353.13
516.68	48247.80
516.85	48219.72
517.03	48905.49
517.20	48875.07
517.37	48271.21
517.54	48818.89
517.72	48744.00
517.89	48947.62
518.06	49123.16
518.24	49034.22
518.41	49179.34
518.58	49226.15
518.75	49146.57
518.93	49502.33
519.10	49572.55
519.27	49415.73
519.45	49471.90
519.62	49764.47
519.79	49579.57
519.96	49911.92
520.14	49844.05
520.31	49832.35
520.48	50230.24
520.65	50328.54
520.83	50426.84
521.00	50295.77
521.17	50454.93
521.34	50609.40
521.52	50768.56
521.69	50454.93
521.86	51241.35
522.03	51009.64
522.20	51274.12
522.38	51370.08
522.55	51386.46
522.72	51381.78
522.89	51306.88
523.07	51421.57
523.24	51545.62
523.41	51662.64
523.58	51255.39
523.75	51786.69
523.92	51604.13
524.10	51995.00
524.27	51779.67
524.44	51999.68
524.61	52112.03
524.78	52114.37
524.96	52065.22
525.13	52158.84
525.30	52266.50
525.47	52327.36
525.64	52203.31
525.81	52648.01
525.98	52903.13
526.16	52722.91
526.33	52402.25
526.50	52746.31
526.67	52811.85
526.84	52554.39
527.01	52865.68
527.18	52872.70
527.36	52868.02
527.53	52877.38
527.70	53249.53
527.87	53057.60
528.04	53298.68
528.21	53148.88
528.38	53153.57
528.55	53120.80
528.72	53247.19
528.89	53399.32
529.07	53125.48
529.24	53226.12
529.41	53551.46
529.58	53687.21
529.75	53530.39
529.92	53689.55
530.09	53771.47
530.26	53745.72
530.43	53743.38
530.60	53769.13
530.77	53970.41
530.94	53851.05
531.11	53834.66
531.28	54117.87
531.46	53909.56
531.63	54342.56
531.80	54328.52
531.97	54316.81
532.14	54225.53
532.31	54508.74
532.48	54529.80
532.65	54705.34
532.82	54375.33
532.99	54499.37
533.16	54574.27
533.33	54803.64
533.50	54948.76
533.67	54801.30
533.84	54457.24
534.01	54813.01
534.18	54981.52
534.35	55089.19
534.52	54993.23
534.69	55072.81
534.86	55117.28
535.03	54972.16
535.20	54986.21
535.37	55264.73
535.54	55166.43
535.71	55203.88
535.88	55356.01
536.05	55318.56
536.22	55423.89
536.38	55508.14
536.55	55435.59
536.72	55571.34
536.89	55344.31
537.06	55664.96
537.23	55536.23
537.40	55430.91
537.57	55386.44
537.74	55664.96
537.91	55737.52
538.08	55817.10
538.25	55664.96
538.42	55870.93
538.59	56079.24
538.75	55800.71
538.92	56264.14
539.09	56156.47
539.26	56083.92
539.43	55910.72
539.60	56189.24
539.77	56252.44
539.94	56411.59
540.11	56289.88
540.28	56378.82
540.44	56655.01
540.61	56470.11
540.78	56093.28
540.95	56498.19
541.12	56406.91
541.29	56324.99
541.46	56545.00
541.62	56420.95
541.79	56409.25
541.96	56320.31
542.13	56509.89
542.30	56662.03
542.47	56610.54
542.63	56631.60
542.80	56882.04
542.97	57006.09
543.14	56987.36
543.31	56994.39
543.48	57226.10
543.64	57333.76
543.81	57272.91
543.98	57181.63
544.15	57364.19
544.32	57181.63
544.48	57441.43
544.65	57270.57
544.82	57298.65
544.99	57146.52
545.16	57270.57
545.32	57425.04
545.49	57495.26
545.66	57577.18
545.83	57883.79
546.00	57687.18
546.16	57483.56
546.33	57612.29
546.50	57113.75
546.67	57818.25
546.83	57223.76
547.00	57670.80
547.17	57535.05
547.34	57574.84
547.50	57977.41
547.67	58033.58
547.84	57687.18
548.00	58052.31
548.17	58248.91
548.34	57972.73
548.51	58206.78
548.67	58188.06
548.84	57895.49
549.01	57923.58
549.18	58375.30
549.34	58246.57
549.51	58164.65
549.68	58347.21
549.84	58213.80
550.01	58522.76
550.18	58000.82
550.34	58471.26
550.51	58323.81
550.68	58475.94
550.84	58035.92
551.01	58478.28
551.18	58466.58
551.34	58548.50
551.51	58342.53
551.68	58665.53
551.84	58377.64
552.01	58333.17
552.18	58698.30
552.34	58253.59
552.51	58581.27
552.68	58166.99
552.84	58597.65
553.01	59040.01
553.18	58574.25
553.34	58820.00
553.51	58567.23
553.67	58646.80
553.84	58658.51
554.01	59124.27
554.17	59105.55
554.34	58906.60
554.51	59063.42
554.67	58948.73
554.84	59061.08
555.00	58976.82
555.17	58915.96
555.33	58876.18
555.50	58738.08
555.67	59058.74
555.83	58995.54
556.00	59091.51
556.16	59320.88
556.33	59140.66
556.50	59323.22
556.66	58976.82
556.83	59105.55
556.99	59260.02
557.16	59409.82
557.32	59489.40
557.49	59529.19
557.65	59147.68
557.82	59508.12
557.98	59458.97
558.15	59192.15
558.32	59674.30
558.48	59372.37
558.65	59545.57
558.81	59442.59
558.98	59583.02
559.14	59615.79
559.31	59515.14
559.47	59454.29
559.64	59695.36
559.80	59554.93
559.97	59697.70
560.13	59543.23
560.30	59571.32
560.46	59662.60
560.63	59620.47
560.79	59732.81
560.96	59718.77
561.12	59751.54
561.29	59749.20
561.45	59718.77
561.61	59714.09
561.78	59643.87
561.94	59693.02
562.11	59725.79
562.27	59859.20
562.44	59884.95
562.60	60037.08
562.77	59817.07
562.93	59807.71
563.10	60114.32
563.26	59800.69
563.42	59943.46
563.59	59852.18
563.75	59690.68
563.92	59983.25
564.08	59810.05
564.24	59898.99
564.41	60149.43
564.57	60013.68
564.74	59903.67
564.90	60128.36
565.07	60018.36
565.23	60135.38
565.39	59901.33
565.56	60037.08
565.72	60161.13
565.88	60186.88
566.05	59927.08
566.21	60119.00
566.38	60196.24
566.54	60229.01
566.70	60250.07
566.87	60259.43
567.03	60119.00
567.19	60205.60
567.36	60257.09
567.52	60350.71
567.68	60259.43
567.85	60310.92
568.01	60282.84
568.17	60240.71
568.34	60350.71
568.50	60107.30
568.66	60327.31
568.83	60308.58
568.99	60198.58
569.15	60280.50
569.32	60058.15
569.48	60261.77
569.64	60413.91
569.81	60374.12
569.97	60350.71
570.13	60556.68
570.30	60467.74
570.46	60378.80
570.62	60451.36
570.78	60441.99
570.95	60453.70
571.11	60544.98
571.27	60346.03
571.43	60388.16
571.60	60598.81
571.76	60397.52
571.92	60594.13
572.09	60390.50
572.25	60516.89
572.41	60591.79
572.57	60547.32
572.74	60687.75
572.90	60418.59
573.06	60523.91
573.22	60669.03
573.38	60591.79
573.55	60589.45
573.71	60814.14
573.87	60664.35
574.03	60561.36
574.20	60622.22
574.36	60425.61
574.52	60629.24
574.68	60453.70
574.84	60750.94
575.01	60818.82
575.17	60631.58
575.33	60629.24
575.49	60470.08
575.65	60699.45
575.82	60692.43
575.98	60685.41
576.14	60832.86
576.30	60458.38
576.46	60596.47
576.62	60739.24
576.79	60727.54
576.95	60636.26
577.11	60757.97
577.27	60832.86
577.43	60856.27
577.59	60711.16
577.75	60573.06
577.92	60697.11
578.08	60783.71
578.24	60905.42
578.40	60928.83
578.56	60816.48
578.72	60694.77
578.88	60870.31
579.04	61066.92
579.21	60720.52
579.37	60683.07
579.53	60945.21
579.69	60556.68
579.85	60615.19
580.01	60580.09
580.17	60650.30
580.33	60685.41
580.49	60905.42
580.65	61071.60
580.82	60636.26
580.98	60809.46
581.14	60757.97
581.30	61127.77
581.46	60882.02
581.62	60870.31
581.78	60807.12
581.94	60896.06
582.10	60772.01
582.26	60729.88
582.42	60954.57
582.58	60853.93
582.74	60790.73
582.90	60816.48
583.06	60814.14
583.22	60699.45
583.38	60910.10
583.54	60898.40
583.70	60940.53
583.86	60804.78
584.02	60800.10
584.18	60996.70
584.34	60863.29
584.50	60940.53
584.66	60828.18
584.82	60900.74
584.98	61052.87
585.14	61073.94
585.30	60818.82
585.46	61024.79
585.62	60846.91
585.78	60975.64
585.94	60870.31
586.10	60877.33
586.26	60973.30
586.42	61118.41
586.58	61027.13
586.74	61155.86
586.90	60907.76
587.06	61045.85
587.22	61158.20
587.38	61120.75
587.54	60975.64
587.70	61127.77
587.86	60912.44
588.02	61001.38
588.18	61165.22
588.34	60903.08
588.49	60977.98
588.65	60949.89
588.81	61104.37
588.97	61069.26
589.13	60863.29
589.29	61043.51
589.45	61104.37
589.61	61165.22
589.77	61441.40
589.93	61244.80
590.08	61256.50
590.24	61226.07
590.40	61263.52
590.56	61242.46
590.72	61343.10
590.88	61165.22
591.04	61549.07
591.20	61448.42
591.35	61223.73
591.51	61591.20
591.67	61422.68
591.83	61366.51
591.99	61345.44
592.15	61130.11
592.31	61303.31
592.46	61326.72
592.62	61251.82
592.78	61193.31
592.94	61478.85
593.10	61418.00
593.26	61352.46
593.41	61385.23
593.57	61282.25
593.73	61394.59
593.89	61492.89
594.05	61396.93
594.20	61378.21
594.36	61563.11
594.52	61240.12
594.68	61254.16
594.84	61352.46
594.99	61476.51
595.15	61286.93
595.31	61530.34
595.47	61279.91
595.62	61352.46
595.78	61565.45
595.94	61406.30
596.10	61551.41
596.25	61638.01
596.41	61502.26
596.57	61338.42
596.73	61633.33
596.88	61542.05
597.04	61588.86
597.20	61403.95
597.36	61673.12
597.51	61776.10
597.67	61469.49
597.83	61413.32
597.99	61567.79
598.14	61652.05
598.30	61586.52
598.46	61509.28
598.61	61623.96
598.77	61619.28
598.93	61687.16
599.09	61733.97
599.24	61911.85
599.40	61708.22
599.56	61612.26
599.71	61827.59
599.87	61675.46
600.03	61684.82
600.18	61822.91
600.34	61623.96
600.50	61813.55
600.65	61691.84
600.81	61869.72
600.97	61628.65
601.12	61764.40
601.28	61481.19
601.44	61544.39
601.59	61567.79
601.75	61485.87
601.91	61783.12
602.06	61836.95
602.22	61806.53
602.37	61731.63
602.53	61649.71
602.69	61581.84
602.84	61616.94
603.00	61579.49
603.16	61769.08
603.31	61785.46
603.47	61827.59
603.62	61839.29
603.78	61696.52
603.94	61792.48
604.09	61797.16
604.25	61893.13
604.40	61539.71
604.56	61818.23
604.71	61815.89
604.87	61647.37
605.03	61712.91
605.18	61635.67
605.34	61661.41
605.49	61605.24
605.65	61773.76
605.80	61630.99
605.96	61785.46
606.12	61834.61
606.27	61865.04
606.43	61591.20
606.58	61820.57
606.74	61703.54
606.89	61523.32
607.05	61560.77
607.20	61724.61
607.36	61640.35
607.51	61729.29
607.67	61418.00
607.82	61544.39
607.98	61565.45
608.13	61736.31
608.29	61546.73
608.44	61570.13
608.60	61427.36
608.75	61535.02
608.91	61436.72
609.06	61387.57
609.22	61867.38
609.37	61497.58
609.53	61607.58
609.68	61570.13
609.84	61418.00
609.99	61520.98
610.15	61546.73
610.30	61715.25
610.46	61513.96
610.61	61567.79
610.76	61626.31
610.92	61537.36
611.07	61305.65
611.23	61476.51
611.38	61563.11
611.54	61745.67
611.69	61511.62
611.84	61602.90
612.00	61413.32
612.15	61443.74
612.31	61350.12
612.46	61371.19
612.62	61443.74
612.77	61347.78
612.92	61586.52
613.08	61378.21
613.23	61481.19
613.39	61457.79
613.54	61160.54
613.69	61434.38
613.85	61324.38
614.00	61453.11
614.15	61553.75
614.31	61312.67
614.46	61275.22
614.62	61172.24
614.77	61382.89
614.92	61151.18
615.08	61284.59
615.23	61212.03
615.38	61394.59
615.54	61312.67
615.69	61251.82
615.84	61406.30
616.00	61476.51
616.15	61380.55
616.30	61415.66
616.46	61268.20
616.61	61078.62
616.76	61457.79
616.92	61064.58
617.07	61244.80
617.22	61120.75
617.37	60954.57
617.53	61429.70
617.68	61277.57
617.83	61118.41
617.99	61123.09
618.14	61181.60
618.29	61265.86
618.45	60867.97
618.60	60954.57
618.75	60912.44
618.90	60966.27
619.06	60935.85
619.21	60996.70
619.36	61179.26
619.51	61036.49
619.67	60921.80
619.82	61017.77
619.97	60992.02
620.12	60996.70
620.28	60921.80
620.43	61080.96
620.58	60874.99
620.73	60734.56
620.89	60872.65
621.04	61183.94
621.19	60851.59
621.34	60947.55
621.49	60910.10
621.65	60919.46
621.80	60985.00
621.95	60647.96
622.10	60851.59
622.25	60987.34
622.41	60767.33
622.56	60598.81
622.71	60781.37
622.86	60837.54
623.01	60563.70
623.16	60678.39
623.32	60980.32
623.47	60896.06
623.62	60711.16
623.77	60786.05
623.92	60900.74
624.07	60837.54
624.23	60790.73
624.38	60624.56
624.53	60552.00
624.68	60486.46
624.83	60741.58
624.98	60839.89
625.13	60331.99
625.29	60706.47
625.44	60477.10
625.59	60643.28
625.74	60449.02
625.89	60388.16
626.04	60254.75
626.19	60437.31
626.34	60425.61
626.49	60207.94
626.65	60224.32
626.80	60317.95
626.95	60219.64
627.10	60320.29
627.25	60413.91
627.40	60301.56
627.55	60320.29
627.70	60320.29
627.85	60165.81
628.00	60207.94
628.15	60254.75
628.30	60315.61
628.45	60229.01
628.60	60100.28
628.76	60130.70
628.91	60336.67
629.06	60018.36
629.21	60236.03
629.36	60322.63
629.51	60067.51
629.66	60165.81
629.81	59784.30
629.96	59990.27
630.11	60018.36
630.26	60135.38
630.41	60191.56
630.56	60107.30
630.71	60023.04
630.86	59884.95
631.01	59831.11
631.16	59906.01
631.31	59798.35
631.46	59763.24
631.61	59833.46
631.76	59873.24
631.91	60009.00
632.06	59917.71
632.21	59966.87
632.36	59779.62
632.51	59510.46
632.66	59835.80
632.81	59728.13
632.96	59831.11
633.10	59842.82
633.25	59702.38
633.40	59931.76
633.55	59840.48
633.70	59583.02
633.85	59634.51
634.00	59594.72
634.15	59571.32
634.30	59646.21
634.45	59580.68
634.60	59807.71
634.75	59686.00
634.90	59470.67
635.05	59515.14
635.19	59702.38
635.34	59510.46
635.49	59657.91
635.64	59697.70
635.79	59320.88
635.94	59676.64
636.09	59601.74
636.24	59531.53
636.39	59568.97
636.53	59592.38
636.68	59559.61
636.83	59543.23
636.98	59538.55
637.13	59168.74
637.28	59475.35
637.43	59458.97
637.57	59388.75
637.72	59309.18
637.87	59262.36
638.02	59325.56
638.17	59421.52
638.32	59206.19
638.46	59128.95
638.61	59533.87
638.76	59255.34
638.91	59124.27
639.06	58866.81
639.20	59124.27
639.35	59049.38
639.50	59032.99
639.65	59248.32
639.80	59173.42
639.94	59040.01
640.09	59196.83
640.24	59220.23
640.39	59100.87
640.54	59222.58
640.68	59367.69
640.83	58990.86
640.98	59044.69
641.13	58841.07
641.27	59154.70
641.42	58974.48
641.57	59119.59
641.72	59068.10
641.86	58815.32
642.01	58827.02
642.16	58857.45
642.31	58724.04
642.45	58930.01
642.60	58972.14
642.75	59058.74
642.90	59030.65
643.04	58920.65
643.19	58665.53
643.34	58679.57
643.48	58731.06
643.63	58698.30
643.78	58827.02
643.93	58974.48
644.07	58749.79
644.22	58621.06
644.37	58440.84
644.51	58674.89
644.66	58557.86
644.81	58653.82
644.95	58635.10
645.10	58653.82
645.25	58780.21
645.39	58405.73
645.54	58585.95
645.69	58581.27
645.83	58635.10
645.98	58461.90
646.13	58431.47
646.27	58599.99
646.42	58372.96
646.57	58539.14
646.71	58508.71
646.86	58527.44
647.00	58562.54
647.15	58492.33
647.30	58405.73
647.44	58241.89
647.59	58314.45
647.74	58281.68
647.88	58323.81
648.03	58480.63
648.17	58473.60
648.32	58188.06
648.47	58316.79
648.61	58387.00
648.76	58417.43
648.90	58183.38
649.05	58506.37
649.20	58340.19
649.34	58265.30
649.49	58387.00
649.63	58174.02
649.78	58267.64
649.92	58277.00
650.07	58216.14
650.21	58026.56
650.36	58136.57
650.51	57930.60
650.65	58326.15
650.80	58312.11
650.94	57965.71
651.09	57867.40
651.23	57497.60
651.38	57937.62
651.52	57682.50
651.67	57820.59
651.81	57946.98
651.96	57820.59
652.10	57694.21
652.25	57722.29
652.39	57825.28
652.54	57474.20
652.68	57448.45
652.83	57719.95
652.97	57581.86
653.12	57638.03
653.26	57851.02
653.41	57794.85
653.55	57815.91
653.70	57708.25
653.84	57946.98
653.99	57436.75
654.13	57696.55
654.27	57701.23
654.42	57303.34
654.56	57546.75
654.71	57490.58
654.85	57689.52
655.00	57855.70
655.14	57471.85
655.29	57289.29
655.43	57387.60
655.57	57385.25
655.72	57279.93
655.86	57607.61
656.01	57605.26
656.15	57403.98
656.30	57563.14
656.44	57626.33
656.58	57535.05
656.73	57415.68
656.87	57368.87
657.01	57478.88
657.16	57371.21
657.30	57141.84
657.45	57214.40
657.59	57413.34
657.73	56839.91
657.88	57097.37
658.02	57305.68
658.16	57176.95
658.31	57116.09
658.45	57272.91
658.60	57038.86
658.74	56945.23
658.88	57080.98
659.03	56795.44
659.17	56814.16
659.31	56858.63
659.46	56952.26
659.60	56830.55
659.74	56912.47
659.89	56666.71
660.03	56739.27
660.17	56734.59
660.32	56507.55
660.46	56823.53
660.60	56706.50
660.74	56774.37
660.89	56856.29
661.03	56385.85
661.17	56446.70
661.32	56416.27
661.46	56465.42
661.60	56360.10
661.74	56289.88
661.89	56179.88
662.03	56172.86
662.17	56329.67
662.31	56217.33
662.46	56425.64
662.60	56151.79
662.74	55880.29
662.88	55971.57
663.03	55917.74
663.17	55828.80
663.31	55742.20
663.45	56041.79
663.60	55671.98
663.74	55721.13
663.88	55697.73
664.02	55859.23
664.17	55985.61
664.31	55271.75
664.45	55491.76
664.59	55648.58
664.73	55529.21
664.88	55433.25
665.02	55164.09
665.16	55421.55
665.30	55278.77
665.44	55393.46
665.59	55199.19
665.73	55297.50
665.87	55054.08
666.01	55416.86
666.15	54962.80
666.29	55412.18
666.44	55178.13
666.58	54838.75
666.72	54784.92
666.86	54728.75
667.00	54710.02
667.14	54649.17
667.28	54820.03
667.43	54747.47
667.57	54859.82
667.71	54344.90
667.85	54618.74
667.99	54485.33
668.13	54571.93
668.27	54384.69
668.41	54426.82
668.56	54183.40
668.70	54183.40
668.84	53811.26
668.98	54094.46
669.12	54000.84
669.26	54417.46
669.40	54349.58
669.54	54117.87
669.68	54286.39
669.82	54115.53
669.96	54038.29
670.10	54066.38
670.25	54038.29
670.39	53916.58
670.53	53787.85
670.67	53626.35
670.81	53961.05
670.95	53710.61
671.09	53511.67
671.23	53048.24
671.37	53368.90
671.51	53621.67
671.65	53350.17
671.79	53158.25
671.93	53244.85
672.07	53221.44
672.21	53031.86
672.35	52907.81
672.49	52650.35
672.63	52694.82
672.77	52718.23
672.91	52612.90
673.05	52673.76
673.19	52428.00
673.33	52673.76
673.47	52219.69
673.61	52413.96
673.75	52191.61
673.89	52112.03
674.03	51868.61
674.17	51971.60
674.31	51805.42
674.45	51732.86
674.59	51842.87
674.73	51660.30
674.87	51419.23
675.01	51173.47
675.15	51400.50
675.29	51512.85
675.43	51459.02
675.56	51009.64
675.70	50747.50
675.84	50960.48
675.98	49902.56
676.12	51021.34
676.26	51173.47
676.40	50679.62
676.54	50953.46
676.68	50274.71
676.82	49837.03
676.96	50136.62
677.10	50113.21
677.23	49846.39
677.37	49911.92
677.51	49530.42
677.65	49778.51
677.79	48996.77
677.93	49181.68
678.07	48905.49
678.21	48938.26
678.34	49076.35
678.48	49191.04
678.62	48828.26
678.76	48428.02
678.90	48509.94
679.04	48491.22
679.18	48406.96
679.31	48060.56
679.45	47784.38
679.59	47995.03
679.73	48208.01
679.87	47772.67
680.00	47196.90
680.14	47110.30
680.28	47180.52
680.42	47093.92
680.56	46574.32
680.70	46700.71
680.83	46557.94
680.97	46693.69
681.11	46873.91
681.25	46576.66
681.39	46232.60
681.52	46789.65
681.66	46138.98
681.80	45808.96
681.94	45071.70
682.07	45666.19
682.21	45158.30
682.35	45439.16
682.49	45476.61
682.62	44872.75
682.76	45186.38
682.90	44992.12
683.04	45024.89
683.17	44739.34
683.31	44238.47
683.45	44212.72
683.59	44037.18
683.72	44065.27
683.86	43662.69
684.00	43800.79
684.13	44095.69
684.27	43271.82
684.41	43538.65
684.55	43655.67
684.68	43718.87
684.82	42866.91
684.96	42873.93
685.09	42976.92
685.23	42464.34
685.37	42581.37
685.50	42639.88
685.64	42637.54
685.78	42211.56
685.91	42029.00
686.05	41968.15
686.19	41626.43
686.32	41450.89
686.46	40896.18
686.60	40889.16
686.73	40481.91
686.87	41198.11
687.01	40837.67
687.14	40369.56
687.28	40299.34
687.42	40531.06
687.55	40081.67
687.69	39929.54
687.82	39707.19
687.96	39175.89
688.10	39508.24
688.23	39318.66
688.37	39431.01
688.50	38813.10
688.64	38682.03
688.78	38761.61
688.91	38155.41
689.05	38785.02
689.18	38436.28
689.32	37816.04
689.46	37450.91
689.59	37542.19
689.73	37661.56
689.86	37179.41
690.00	37223.88
690.13	37415.80
690.27	37544.53
690.41	37317.50
690.54	36833.01
690.68	36842.37
690.81	36521.72
690.95	36156.60
691.08	36404.69
691.22	35950.63
691.35	36032.55
691.49	36268.94
691.62	35754.02
691.76	35438.05
691.89	35814.88
692.03	35456.78
692.16	35143.14
692.30	35007.39
692.43	34965.26
692.57	34916.11
692.70	34408.22
692.84	34565.03
692.97	34738.23
693.11	34616.52
693.24	34260.76
693.38	33741.16
693.51	33415.83
693.65	33799.68
693.78	33303.48
693.92	33710.74
694.05	33497.75
694.19	33053.05
694.32	32720.69
694.45	32800.27
694.59	32615.37
694.72	32542.81
694.86	32198.75
694.99	32189.39
695.13	31805.54
695.26	31543.40
695.39	31761.07
695.53	31908.52
695.66	31765.75
695.80	31580.85
695.93	31171.25
696.07	30838.90
696.20	30649.32
696.33	30902.09
696.47	30749.96
696.60	30675.06
696.73	30429.30
696.87	29956.52
697.00	30024.39
697.14	30242.06
697.27	30059.50
697.40	29795.02
697.54	29549.26
697.67	29532.88
697.80	29266.06
697.94	29167.76
698.07	28826.04
698.21	28556.88
698.34	28889.23
698.47	28692.63
698.61	28079.41
698.74	28549.85
698.87	28701.99
699.01	27915.57
699.14	27714.28
699.27	27948.34
699.40	28063.02
699.54	28009.19
699.67	27562.15
699.80	27377.25
699.94	27407.67
700.07	27438.10
700.20	26998.08
700.34	26710.19
700.47	26527.63
700.60	26160.17
700.73	26178.89
700.87	25853.56
701.00	26022.08
701.13	25626.53
701.26	25965.90
701.40	26031.44
701.53	25900.37
701.66	25755.26
701.79	25532.90
701.93	25378.43
702.06	24802.66
702.19	24947.77
702.32	24973.52
702.46	24720.74
702.59	24217.52
702.72	24467.96
702.85	24535.84
702.99	24547.54
703.12	24503.07
703.25	23641.75
703.38	23613.66
703.51	23468.55
703.65	23304.71
703.78	23330.46
703.91	23173.64
704.04	23351.52
704.17	23316.42
704.31	23058.96
704.44	23030.87
704.57	22731.28
704.70	22668.09
704.83	22511.27
704.96	22429.35
705.10	22272.54
705.23	22082.95
>>>>>End Processed Spectral Data<<<<<
