SpectraSuite Data File
++++++++++++++++++++++++++++++++++++
Date: Fri Oct 25 11:25:07 EDT 2013
User: price-jones
Dark Spectrum Present: No
Reference Spectrum Present: No
Number of Sampled Component Spectra: 1
Spectrometers: USB2+H05261
Integration Time (usec): 100000 (USB2+H05261)
Spectra Averaged: 1 (USB2+H05261)
Boxcar Smoothing: 0 (USB2+H05261)
Correct for Electrical Dark: No (USB2+H05261)
Strobe/Lamp Enabled: No (USB2+H05261)
Correct for Detector Non-linearity: No (USB2+H05261)
Correct for Stray Light: No (USB2+H05261)
Number of Pixels in Processed Spectrum: 2048
>>>>>Begin Processed Spectral Data<<<<<
365.73	238.73
365.92	238.73
366.12	238.73
366.32	189.58
366.52	201.29
366.72	154.48
366.91	102.98
367.11	98.30
367.31	156.82
367.51	112.35
367.70	16.38
367.90	149.79
368.10	175.54
368.30	154.48
368.49	37.45
368.69	154.48
368.89	128.73
369.09	159.16
369.28	245.76
369.48	236.39
369.68	220.01
369.87	175.54
370.07	203.63
370.27	205.97
370.47	365.12
370.66	615.56
370.86	568.75
371.06	678.76
371.25	751.31
371.45	674.07
371.65	734.93
371.84	770.04
372.04	699.82
372.24	765.36
372.44	676.41
372.63	737.27
372.83	690.46
373.03	786.42
373.22	812.17
373.42	746.63
373.62	760.67
373.81	819.19
374.01	882.38
374.21	772.38
374.40	770.04
374.60	812.17
374.79	866.00
374.99	763.01
375.19	805.14
375.38	821.53
375.58	807.48
375.78	840.25
375.97	917.49
376.17	837.91
376.37	894.08
376.56	905.79
376.76	866.00
376.95	858.98
377.15	929.19
377.35	964.30
377.54	814.51
377.74	877.70
377.93	851.96
378.13	929.19
378.33	994.73
378.52	936.21
378.72	926.85
378.91	964.30
379.11	957.28
379.31	880.04
379.50	957.28
379.70	1043.88
379.89	917.49
380.09	945.58
380.28	896.43
380.48	952.60
380.68	1025.15
380.87	1029.84
381.07	961.96
381.26	1008.77
381.46	950.26
381.65	1039.20
381.85	1064.94
382.04	873.02
382.24	966.64
382.43	1025.15
382.63	1053.24
382.83	1177.29
383.02	1090.69
383.22	1095.37
383.41	1086.01
383.61	1125.80
383.80	1107.07
384.00	1057.92
384.19	1102.39
384.39	1071.97
384.58	1100.05
384.78	1231.12
384.97	1123.46
385.17	1123.46
385.36	1181.97
385.56	1088.35
385.75	1123.46
385.95	1193.67
386.14	1188.99
386.34	1181.97
386.53	1240.48
386.72	1174.95
386.92	1193.67
387.11	1254.53
387.31	1221.76
387.50	1299.00
387.70	1268.57
387.89	1231.12
388.09	1254.53
388.28	1224.10
388.48	1352.83
388.67	1259.21
388.86	1357.51
389.06	1306.02
389.25	1296.66
389.45	1378.58
389.64	1259.21
389.84	1352.83
390.03	1369.21
390.22	1469.86
390.42	1390.28
390.61	1418.36
390.81	1348.15
391.00	1460.49
391.19	1453.47
391.39	1406.66
391.58	1446.45
391.78	1420.71
391.97	1465.18
392.16	1481.56
392.36	1453.47
392.55	1542.41
392.75	1542.41
392.94	1467.52
393.13	1584.54
393.33	1437.09
393.52	1528.37
393.71	1530.71
393.91	1605.61
394.10	1621.99
394.29	1561.14
394.49	1593.90
394.68	1638.38
394.88	1530.71
395.07	1633.69
395.26	1633.69
395.46	1736.68
395.65	1675.82
395.84	1689.87
396.04	1816.26
396.23	1785.83
396.42	1732.00
396.62	1743.70
396.81	1720.29
397.00	1764.76
397.19	1727.32
397.39	1764.76
397.58	1867.75
397.77	1746.04
397.97	1753.06
398.16	1771.79
398.35	1837.32
398.55	1907.54
398.74	1844.34
398.93	1956.69
399.12	1813.92
399.32	1919.24
399.51	1963.71
399.70	2019.88
399.90	1961.37
400.09	2033.93
400.28	1937.96
400.47	2015.20
400.67	2052.65
400.86	2066.69
401.05	2165.00
401.24	2057.33
401.44	2139.25
401.63	2157.97
401.82	2122.87
402.01	2223.51
402.21	2113.50
402.40	2193.08
402.59	2200.10
402.78	2134.57
402.97	2223.51
403.17	2293.72
403.36	2265.64
403.55	2307.77
403.74	2239.89
403.93	2399.05
404.13	2342.88
404.32	2328.83
404.51	2310.11
404.70	2443.52
404.89	2352.24
405.09	2450.54
405.28	2434.16
405.47	2476.29
405.66	2495.01
405.85	2495.01
406.05	2497.35
406.24	2504.37
406.43	2480.97
406.62	2635.44
406.81	2675.23
407.00	2518.42
407.20	2626.08
407.39	2509.05
407.58	2684.59
407.77	2651.83
407.96	2661.19
408.15	2792.26
408.34	2743.11
408.54	2747.79
408.73	2696.30
408.92	2766.51
409.11	2869.50
409.30	2773.53
409.49	2860.13
409.68	3009.93
409.87	2932.69
410.07	3035.67
410.26	2977.16
410.45	3049.72
410.64	3035.67
410.83	3054.40
411.02	3089.51
411.21	3169.09
411.40	3115.25
411.59	3197.17
411.78	3101.21
411.98	3197.17
412.17	3239.30
412.36	3396.12
412.55	3260.37
412.74	3426.54
412.93	3393.78
413.12	3405.48
413.31	3585.70
413.50	3517.83
413.69	3630.17
413.88	3604.42
414.07	3655.92
414.26	3662.94
414.45	3534.21
414.64	3625.49
414.83	3789.33
415.02	3740.18
415.22	3833.80
415.41	3847.84
415.60	3770.60
415.79	3777.62
415.98	3866.56
416.17	3988.27
416.36	3904.01
416.55	4074.87
416.74	3992.95
416.93	4049.13
417.12	4039.76
417.31	4252.75
417.50	4126.36
417.69	4299.56
417.88	4266.80
418.07	4133.39
418.26	4304.25
418.45	4304.25
418.64	4416.59
418.83	4362.76
419.02	4301.90
419.21	4498.51
419.39	4402.55
419.58	4472.76
419.77	4332.33
419.96	4571.07
420.15	4369.78
420.34	4500.85
420.53	4451.70
420.72	4697.46
420.91	4720.86
421.10	4706.82
421.29	4786.40
421.48	4589.79
421.67	4748.95
421.86	4720.86
422.05	4711.50
422.24	4758.31
422.43	4786.40
422.61	4978.32
422.80	4910.44
422.99	4821.50
423.18	4844.91
423.37	5015.77
423.56	4847.25
423.75	4915.12
423.94	4741.93
424.13	4690.43
424.32	4706.82
424.50	4947.89
424.69	5001.72
424.88	4947.89
425.07	4870.65
425.26	5050.88
425.45	4903.42
425.64	4889.38
425.83	4938.53
426.01	4950.23
426.20	4952.57
426.39	5146.84
426.58	4978.32
426.77	5022.79
426.96	5001.72
427.15	5053.22
427.33	5256.84
427.52	5107.05
427.71	5254.50
427.90	5139.82
428.09	5165.56
428.28	5310.68
428.46	5404.30
428.65	5404.30
428.84	5416.00
429.03	5467.49
429.22	5275.57
429.40	5420.68
429.59	5614.95
429.78	5170.24
429.97	5259.18
430.16	5437.06
430.34	5572.82
430.53	5692.18
430.72	5504.94
430.91	5575.16
431.10	5584.52
431.28	5729.63
431.47	5834.96
431.66	5713.25
431.85	5638.35
432.03	5966.03
432.22	5907.51
432.41	5973.05
432.60	5963.68
432.79	5928.58
432.97	6047.94
433.16	6029.22
433.35	6005.81
433.54	6087.73
433.72	5959.00
433.91	6005.81
434.10	6099.44
434.28	5987.09
434.47	6310.08
434.66	6235.19
434.85	6420.09
435.03	6328.81
435.22	6349.87
435.41	6441.15
435.59	6256.25
435.78	6417.75
435.97	6436.47
436.16	6394.34
436.34	6314.77
436.53	6504.35
436.72	6707.98
436.90	6424.77
437.09	6450.52
437.28	6541.80
437.46	6541.80
437.65	6548.82
437.84	6609.67
438.02	6836.70
438.21	6628.40
438.40	6710.32
438.58	6888.20
438.77	6956.07
438.96	6658.82
439.14	7131.61
439.33	7157.36
439.52	7176.08
439.70	7199.49
439.89	7080.12
440.08	7337.58
440.26	7155.02
440.45	7386.73
440.63	7262.68
440.82	7487.37
441.01	7581.00
441.19	7761.22
441.38	7756.54
441.57	7571.63
441.75	7817.39
441.94	7868.88
442.12	7941.44
442.31	7946.12
442.50	7978.89
442.68	7847.82
442.87	7889.95
443.05	8028.04
443.24	8016.33
443.43	8243.37
443.61	8147.40
443.80	8332.31
443.98	8074.85
444.17	8035.06
444.35	8292.52
444.54	8236.35
444.73	8145.06
444.91	8191.88
445.10	8224.64
445.28	8379.12
445.47	8212.94
445.65	8329.97
445.84	8250.39
446.02	8416.57
446.21	8308.90
446.39	8423.59
446.58	8367.42
446.77	8512.53
446.95	8208.26
447.14	8355.71
447.32	8489.12
447.51	8500.83
447.69	8418.91
447.88	8397.84
448.06	8404.86
448.25	8379.12
448.43	8589.77
448.62	8465.72
448.80	8421.25
448.99	8730.20
449.17	8720.84
449.36	8439.97
449.54	9078.94
449.73	8870.63
449.91	8964.25
450.10	8952.55
450.28	9025.11
450.46	8971.27
450.65	8849.57
450.83	9011.06
451.02	9020.42
451.20	9320.01
451.39	9263.84
451.57	8985.32
451.76	9055.53
451.94	9280.22
452.13	9249.80
452.31	9151.49
452.49	9125.75
452.68	9245.12
452.86	9046.17
453.05	9423.00
453.23	9245.12
453.42	9507.26
453.60	9387.89
453.78	9647.69
453.97	9404.27
454.15	9324.69
454.34	9352.78
454.52	9460.45
454.70	9453.42
454.89	9535.34
455.07	9724.93
455.26	9813.87
455.44	9973.02
455.62	9694.50
455.81	9827.91
455.99	9914.51
456.17	9827.91
456.36	9848.97
456.54	10127.50
456.73	10101.75
456.91	10523.05
457.09	10281.97
457.28	10499.64
457.46	10457.51
457.64	10520.71
457.83	10420.06
458.01	10352.19
458.19	10651.78
458.38	10525.39
458.56	10682.20
458.74	10684.55
458.93	10757.10
459.11	10401.34
459.29	10630.71
459.48	10670.50
459.66	10860.09
459.84	10710.29
460.03	10848.38
460.21	10988.82
460.39	10998.18
460.57	10846.04
460.76	10736.04
460.94	10984.13
461.12	11131.59
461.31	11192.44
461.49	10927.96
461.67	11023.92
461.85	11227.55
462.04	11386.71
462.22	11810.34
462.40	11733.11
462.59	11463.94
462.77	11459.26
462.95	11403.09
463.13	11363.30
463.32	11463.94
463.50	11623.10
463.68	11707.36
463.86	11712.04
464.05	11435.86
464.23	11576.29
464.41	11779.92
464.59	11604.38
464.78	11969.50
464.96	11712.04
465.14	11709.70
465.32	11978.86
465.50	11882.90
465.69	11889.92
465.87	11892.26
466.05	12032.69
466.23	12175.47
466.41	12037.38
466.60	12374.41
466.78	11995.25
466.96	11957.80
467.14	12301.86
467.32	12238.66
467.51	12475.06
467.69	12128.66
467.87	12470.37
468.05	12816.77
468.23	12449.31
468.41	12631.87
468.60	12564.00
468.78	12657.62
468.96	12353.35
469.14	12821.45
469.32	12755.92
469.50	12697.41
469.69	12959.55
469.87	12863.58
470.05	13191.26
470.23	13121.04
470.41	13128.06
470.59	13205.30
470.77	13128.06
470.95	13013.38
471.14	13584.47
471.32	13170.19
471.50	13355.10
471.68	13612.56
471.86	13476.80
472.04	13556.38
472.22	14008.11
472.40	13589.15
472.58	13614.90
472.77	14141.52
472.95	14010.45
473.13	14595.58
473.31	14106.41
473.49	14167.26
473.67	14129.81
473.85	14324.08
474.03	14340.46
474.21	14750.06
474.39	14494.94
474.57	14609.62
474.75	14691.54
474.93	14843.68
475.12	14698.56
475.30	15154.97
475.48	14974.75
475.66	14958.36
475.84	15126.88
476.02	15419.45
476.20	15044.96
476.38	15545.84
476.56	16051.39
476.74	15756.49
476.92	15761.17
477.10	15768.19
477.28	15864.15
477.46	15896.92
477.64	16187.14
477.82	16243.32
478.00	16578.01
478.18	16681.00
478.36	16671.64
478.54	17102.29
478.72	17144.42
478.90	17266.13
479.08	17483.80
479.26	17481.46
479.44	17460.40
479.62	17919.14
479.80	17900.42
479.98	18129.79
480.16	18396.61
480.34	18527.68
480.52	18712.58
480.70	18476.19
480.88	18356.82
481.06	18693.86
481.24	18698.54
481.41	18820.25
481.59	19283.67
481.77	19632.41
481.95	19655.82
482.13	19655.82
482.31	19396.02
482.49	20203.50
482.67	20182.44
482.85	20187.12
483.03	20280.74
483.21	20421.17
483.39	20711.40
483.57	20727.78
483.74	21198.23
483.92	21282.49
484.10	21102.27
484.28	21535.27
484.46	22118.06
484.64	21895.71
484.82	22148.49
485.00	22228.07
485.18	22483.19
485.35	23211.09
485.53	22654.05
485.71	22787.46
485.89	23414.72
486.07	23056.62
486.25	23206.41
486.43	23538.77
486.61	23896.87
486.78	23927.30
486.96	23964.75
487.14	24524.13
487.32	24388.38
487.50	24856.49
487.68	24865.85
487.85	24971.18
488.03	25249.70
488.21	25743.55
488.39	25944.84
488.57	25902.71
488.75	26120.38
488.92	25900.37
489.10	26593.17
489.28	26714.87
489.46	26918.50
489.64	26665.72
489.81	27491.93
489.99	27772.80
490.17	27623.00
490.35	27772.80
490.53	28147.28
490.70	28313.46
490.88	28098.13
491.06	28566.24
491.24	28418.78
491.41	28910.30
491.59	28795.61
491.77	29401.81
491.95	29570.33
492.13	30052.48
492.30	29689.70
492.48	29439.26
492.66	30232.70
492.84	29855.87
493.01	30850.60
493.19	30543.99
493.37	30202.27
493.54	30909.11
493.72	31377.22
493.90	31363.18
494.08	31515.31
494.25	31601.91
494.43	31707.24
494.61	32486.64
494.79	32343.86
494.96	32287.69
495.14	32802.61
495.32	33170.07
495.49	32814.31
495.67	33010.92
495.85	33418.17
496.02	33734.14
496.20	33743.50
496.38	34050.11
496.55	34000.96
496.73	34829.51
496.91	34335.66
497.09	34761.64
497.26	34567.37
497.44	34782.70
497.62	34951.22
497.79	35817.22
497.97	35262.51
498.14	35796.15
498.32	35819.56
498.50	35775.09
498.67	36598.96
498.85	36507.68
499.03	36886.84
499.20	36503.00
499.38	36542.78
499.56	36917.27
499.73	36947.70
499.91	36987.49
500.08	37677.94
500.26	36891.52
500.44	37610.07
500.61	37933.06
500.79	37577.30
500.97	37708.37
501.14	38230.31
501.32	38347.34
501.49	37930.72
501.67	38202.22
501.84	38958.22
502.02	38391.81
502.20	38405.85
502.37	39012.05
502.55	39056.52
502.72	39161.84
502.90	39276.53
503.07	39473.13
503.25	39536.33
503.43	39152.48
503.60	40032.52
503.78	40084.01
503.95	40034.86
504.13	40062.95
504.30	40517.01
504.48	40425.73
504.65	40147.21
504.83	40961.72
505.01	40945.33
505.18	40814.26
505.36	41574.94
505.53	40694.89
505.71	41481.31
505.88	41340.88
506.06	41425.14
506.23	41741.11
506.41	41734.09
506.58	42036.02
506.76	41996.23
506.93	42263.05
507.11	42026.66
507.28	42218.58
507.46	42646.90
507.63	42354.33
507.81	43435.66
507.98	42953.51
508.16	42824.78
508.33	43229.69
508.50	43423.96
508.68	43487.15
508.85	43288.21
509.03	43519.92
509.20	43924.83
509.38	44350.81
509.55	44247.83
509.73	44140.16
509.90	44481.88
510.08	44229.10
510.25	44402.30
510.42	44371.88
510.60	44563.80
510.77	45043.61
510.95	45230.85
511.12	44980.42
511.30	44828.28
511.47	45399.37
511.64	45221.49
511.82	45282.34
511.99	45261.28
512.17	45701.30
512.34	45457.88
512.51	46244.30
512.69	46021.95
512.86	45930.67
513.04	46344.95
513.21	46291.12
513.38	46429.21
513.56	46375.37
513.73	46401.12
513.90	46543.89
514.08	46429.21
514.25	47166.48
514.43	47442.66
514.60	47484.79
514.77	46782.63
514.95	47377.12
515.12	47360.74
515.29	47515.22
515.47	47803.10
515.64	47779.70
515.81	47510.53
515.99	48100.35
516.16	47915.45
516.33	48208.01
516.51	48594.20
516.68	48521.65
516.85	48072.26
517.03	48619.95
517.20	48821.23
517.37	48339.08
517.54	48734.63
517.72	48577.82
517.89	48589.52
518.06	48708.89
518.24	48800.17
518.41	49057.63
518.58	49322.11
518.75	48910.17
518.93	49118.48
519.10	49184.02
519.27	49495.31
519.45	49528.08
519.62	49586.59
519.79	49624.04
519.96	49837.03
520.14	49869.79
520.31	49738.72
520.48	50344.92
520.65	49923.63
520.83	50363.65
521.00	50471.31
521.17	50274.71
521.34	50588.34
521.52	50508.76
521.69	50656.21
521.86	50944.10
522.03	50908.99
522.20	51007.29
522.38	51407.53
522.55	50845.80
522.72	51040.06
522.89	51061.13
523.07	51587.75
523.24	51334.97
523.41	51309.22
523.58	51365.40
523.75	51838.18
523.92	51679.03
524.10	52067.56
524.27	52112.03
524.44	51721.16
524.61	51915.42
524.78	52013.73
524.96	52058.20
525.13	52198.63
525.30	52090.96
525.47	52390.55
525.64	52325.02
525.81	52250.12
525.98	52549.71
526.16	52570.77
526.33	52456.09
526.50	52669.08
526.67	52652.69
526.84	52692.48
527.01	52856.32
527.18	52870.36
527.36	52715.89
527.53	53041.22
527.70	53118.46
527.87	53291.66
528.04	52699.50
528.21	52966.32
528.38	52896.11
528.55	53296.34
528.72	53055.26
528.89	53219.10
529.07	53193.36
529.24	53263.57
529.41	53549.12
529.58	53607.63
529.75	53460.18
529.92	53797.21
530.09	53689.55
530.26	53642.74
530.43	53879.13
530.60	53488.26
530.77	53773.81
530.94	54101.48
531.11	53684.87
531.28	53958.71
531.46	53799.55
531.63	54265.32
531.80	54010.20
531.97	54115.53
532.14	54218.51
532.31	54349.58
532.48	54408.09
532.65	54380.01
532.82	54312.13
532.99	54604.70
533.16	54209.15
533.33	54672.57
533.50	54883.22
533.67	54770.88
533.84	54536.82
534.01	54295.75
534.18	54805.98
534.35	55166.43
534.52	54866.84
534.69	55051.74
534.86	55014.29
535.03	54930.03
535.20	55119.62
535.37	55136.00
535.54	55196.85
535.71	54946.42
535.88	55196.85
536.05	55320.90
536.22	55117.28
536.38	55489.42
536.55	55236.64
536.72	55295.16
536.89	55236.64
537.06	55327.92
537.23	55463.67
537.40	55217.92
537.57	55557.30
537.74	55494.10
537.91	55697.73
538.08	55889.65
538.25	55578.36
538.42	55669.64
538.59	55976.25
538.75	55739.86
538.92	55487.08
539.09	56193.92
539.26	55894.33
539.43	56051.15
539.60	55985.61
539.77	56200.94
539.94	56254.78
540.11	56161.15
540.28	56123.71
540.44	56128.39
540.61	56207.97
540.78	56193.92
540.95	56210.31
541.12	56339.04
541.29	56416.27
541.46	56378.82
541.62	56423.29
541.79	56446.70
541.96	56097.96
542.13	56343.72
542.30	56341.38
542.47	56760.33
542.63	56603.52
542.80	56825.87
542.97	56835.23
543.14	56989.70
543.31	57083.33
543.48	56921.83
543.64	57268.23
543.81	57282.27
543.98	57186.31
544.15	57242.48
544.32	57223.76
544.48	57542.07
544.65	57219.08
544.82	57160.56
544.99	57317.38
545.16	57476.54
545.32	57359.51
545.49	57628.67
545.66	57530.37
545.83	57247.16
546.00	57815.91
546.16	57654.42
546.33	57261.21
546.50	57340.78
546.67	57628.67
546.83	57373.55
547.00	57556.11
547.17	57560.79
547.34	57518.67
547.50	57954.00
547.67	57820.59
547.84	57834.64
548.00	58019.54
548.17	57921.24
548.34	57996.13
548.51	58042.95
548.67	58061.67
548.84	57722.29
549.01	57731.65
549.18	57839.32
549.34	58293.38
549.51	58234.87
549.68	58251.25
549.84	58162.31
550.01	58368.28
550.18	58190.40
550.34	58398.71
550.51	58314.45
550.68	58337.85
550.84	58012.52
551.01	58291.04
551.18	58117.84
551.34	58302.74
551.51	58478.28
551.68	58522.76
551.84	58480.63
552.01	58464.24
552.18	58412.75
552.34	58370.62
552.51	58539.14
552.68	58354.24
552.84	58581.27
553.01	58808.30
553.18	58672.55
553.34	58920.65
553.51	58550.84
553.67	58714.68
553.84	58787.24
554.01	58838.73
554.17	58843.41
554.34	58930.01
554.51	58768.51
554.67	58911.28
554.84	58777.87
555.00	59004.91
555.17	58878.52
555.33	58911.28
555.50	58796.60
555.67	59124.27
555.83	58693.61
556.00	58754.47
556.16	59210.87
556.33	59016.61
556.50	59056.40
556.66	59121.93
556.83	58702.98
556.99	59325.56
557.16	59227.26
557.32	59463.65
557.49	59430.88
557.65	59203.85
557.82	59126.61
557.98	59210.87
558.15	59426.20
558.32	59267.05
558.48	59421.52
558.65	59437.90
558.81	59372.37
558.98	59353.65
559.14	59489.40
559.31	59529.19
559.47	59594.72
559.64	59487.06
559.80	59505.78
559.97	59522.16
560.13	59512.80
560.30	59470.67
560.46	59643.87
560.63	59688.34
560.79	59721.11
560.96	59805.37
561.12	59772.60
561.29	59639.19
561.45	59774.94
561.61	59655.57
561.78	59597.06
561.94	59583.02
562.11	59552.59
562.27	59531.53
562.44	59725.79
562.60	59891.97
562.77	59793.67
562.93	59746.86
563.10	59955.16
563.26	59683.66
563.42	59948.14
563.59	59901.33
563.75	59681.32
563.92	59814.73
564.08	59936.44
564.24	60257.09
564.41	60041.76
564.57	59870.90
564.74	60018.36
564.90	59915.37
565.07	60069.85
565.23	59957.50
565.39	59964.52
565.56	59966.87
565.72	59784.30
565.88	60081.55
566.05	60350.71
566.21	59983.25
566.38	60044.10
566.54	60074.53
566.70	60331.99
566.87	60252.41
567.03	60039.42
567.19	60116.66
567.36	60254.75
567.52	60051.12
567.68	60530.93
567.85	60200.92
568.01	60341.35
568.17	60205.60
568.34	60329.65
568.50	60149.43
568.66	60317.95
568.83	60479.44
568.99	60168.15
569.15	60310.92
569.32	60346.03
569.48	60243.05
569.64	60378.80
569.81	60329.65
569.97	60336.67
570.13	60369.44
570.30	60299.22
570.46	60353.05
570.62	60264.11
570.78	60280.50
570.95	60437.31
571.11	60495.83
571.27	60231.35
571.43	60184.54
571.60	60556.68
571.76	60207.94
571.92	60502.85
572.09	60313.26
572.25	60456.04
572.41	60458.38
572.57	60390.50
572.74	60584.77
572.90	60544.98
573.06	60463.06
573.22	60654.98
573.38	60615.19
573.55	60392.84
573.71	60647.96
573.87	60725.20
574.03	60409.23
574.20	60420.93
574.36	60652.64
574.52	60732.22
574.68	60734.56
574.84	60598.81
575.01	60500.51
575.17	60636.26
575.33	60544.98
575.49	60343.69
575.65	60472.42
575.82	60701.79
575.98	60734.56
576.14	60757.97
576.30	60772.01
576.46	60633.92
576.62	60547.32
576.79	60760.31
576.95	60423.27
577.11	60495.83
577.27	60622.22
577.43	60729.88
577.59	60617.53
577.75	60563.70
577.92	60598.81
578.08	60699.45
578.24	60640.94
578.40	60767.33
578.56	60809.46
578.72	60617.53
578.88	60837.54
579.04	60924.14
579.21	60734.56
579.37	60662.00
579.53	61008.40
579.69	60624.56
579.85	60669.03
580.01	60596.47
580.17	60729.88
580.33	60879.67
580.49	60872.65
580.65	60837.54
580.82	60788.39
580.98	60685.41
581.14	60486.46
581.30	61041.17
581.46	60760.31
581.62	60755.63
581.78	60722.86
581.94	60800.10
582.10	60872.65
582.26	60715.84
582.42	60666.69
582.58	60867.97
582.74	60807.12
582.90	60839.89
583.06	60842.23
583.22	60750.94
583.38	60837.54
583.54	60837.54
583.70	60896.06
583.86	60779.03
584.02	60692.43
584.18	60926.49
584.34	60835.20
584.50	60928.83
584.66	60647.96
584.82	60598.81
584.98	60977.98
585.14	60992.02
585.30	60669.03
585.46	60846.91
585.62	60874.99
585.78	60818.82
585.94	60640.94
586.10	60961.59
586.26	60720.52
586.42	60996.70
586.58	60877.33
586.74	60975.64
586.90	60905.42
587.06	60715.84
587.22	61043.51
587.38	61066.92
587.54	61146.50
587.70	61144.16
587.86	61027.13
588.02	60757.97
588.18	60933.51
588.34	61134.79
588.49	60919.46
588.65	60643.28
588.81	61013.08
588.97	61078.62
589.13	60935.85
589.29	61066.92
589.45	61073.94
589.61	61043.51
589.77	61350.12
589.93	61265.86
590.08	61071.60
590.24	61228.41
590.40	61193.31
590.56	61368.85
590.72	61261.18
590.88	61031.81
591.04	61034.15
591.20	61551.41
591.35	61338.42
591.51	61525.66
591.67	61530.34
591.83	61338.42
591.99	61401.61
592.15	61270.54
592.31	61413.32
592.46	61193.31
592.62	61172.24
592.78	61307.99
592.94	61394.59
593.10	61195.65
593.26	61420.34
593.41	61219.05
593.57	61031.81
593.73	61322.04
593.89	61535.02
594.05	61429.70
594.20	61310.33
594.36	61530.34
594.52	61361.82
594.68	61235.44
594.84	61155.86
594.99	61422.68
595.15	61312.67
595.31	61331.40
595.47	61270.54
595.62	61300.97
595.78	61263.52
595.94	61389.91
596.10	61455.45
596.25	61441.40
596.41	61509.28
596.57	61471.83
596.73	61504.60
596.88	61343.10
597.04	61605.24
597.20	61478.85
597.36	61352.46
597.51	61591.20
597.67	61336.08
597.83	61247.14
597.99	61439.06
598.14	61455.45
598.30	61581.84
598.46	61581.84
598.61	61558.43
598.77	61600.56
598.93	61368.85
599.09	61586.52
599.24	61731.63
599.40	61661.41
599.56	61478.85
599.71	61574.81
599.87	61712.91
600.03	61504.60
600.18	61677.80
600.34	61614.60
600.50	61614.60
600.65	61647.37
600.81	61668.44
600.97	61553.75
601.12	61558.43
601.28	61640.35
601.44	61649.71
601.59	61614.60
601.75	61478.85
601.91	61705.88
602.06	61579.49
602.22	61970.36
602.37	61731.63
602.53	61621.62
602.69	61502.26
602.84	61478.85
603.00	61687.16
603.16	61684.82
603.31	61766.74
603.47	61649.71
603.62	61450.77
603.78	61668.44
603.94	61722.27
604.09	61801.85
604.25	61565.45
604.40	61619.28
604.56	61822.91
604.71	61883.76
604.87	61504.60
605.03	61722.27
605.18	61513.96
605.34	61647.37
605.49	61439.06
605.65	61942.28
605.80	61703.54
605.96	61630.99
606.12	61560.77
606.27	61853.34
606.43	61586.52
606.58	61811.21
606.74	61275.22
606.89	61607.58
607.05	61848.66
607.20	61675.46
607.36	61525.66
607.51	61525.66
607.67	61558.43
607.82	61595.88
607.98	61659.07
608.13	61593.54
608.29	61476.51
608.44	61336.08
608.60	61490.55
608.75	61518.64
608.91	61457.79
609.06	61336.08
609.22	61743.33
609.37	61478.85
609.53	61485.87
609.68	61429.70
609.84	61345.44
609.99	61645.03
610.15	61614.60
610.30	61549.07
610.46	61249.48
610.61	61511.62
610.76	61413.32
610.92	61289.27
611.07	61413.32
611.23	61340.76
611.38	61410.98
611.54	61474.17
611.69	61432.04
611.84	61403.95
612.00	61343.10
612.15	61394.59
612.31	61478.85
612.46	61249.48
612.62	61418.00
612.77	61502.26
612.92	61453.11
613.08	61371.19
613.23	61324.38
613.39	61446.08
613.54	61020.11
613.69	61319.70
613.85	61172.24
614.00	61560.77
614.15	61375.87
614.31	61111.39
614.46	61270.54
614.62	61256.50
614.77	61378.21
614.92	61228.41
615.08	61261.18
615.23	61373.53
615.38	61261.18
615.54	61373.53
615.69	61118.41
615.84	61279.91
616.00	61324.38
616.15	61193.31
616.30	61399.27
616.46	61195.65
616.61	61038.83
616.76	61275.22
616.92	61153.52
617.07	61066.92
617.22	61073.94
617.37	61137.13
617.53	61188.63
617.68	61249.48
617.83	61097.34
617.99	61087.98
618.14	61085.64
618.29	61099.68
618.45	60982.66
618.60	60992.02
618.75	60687.75
618.90	60900.74
619.06	61078.62
619.21	61113.73
619.36	61223.73
619.51	61095.00
619.67	60961.59
619.82	61059.90
619.97	61052.87
620.12	60741.58
620.28	60783.71
620.43	60907.76
620.58	60912.44
620.73	60814.14
620.89	60987.34
621.04	61008.40
621.19	60863.29
621.34	60774.35
621.49	60720.52
621.65	60825.84
621.80	61233.10
621.95	60739.24
622.10	60917.12
622.25	60582.43
622.41	60659.66
622.56	60842.23
622.71	60608.17
622.86	60596.47
623.01	60601.15
623.16	60654.98
623.32	60509.87
623.47	61062.24
623.62	60645.62
623.77	60734.56
623.92	60779.03
624.07	60823.50
624.23	60601.15
624.38	60488.80
624.53	60636.26
624.68	60310.92
624.83	60441.99
624.98	60596.47
625.13	60624.56
625.29	60430.29
625.44	60566.04
625.59	60516.89
625.74	60540.30
625.89	60299.22
626.04	60383.48
626.19	60449.02
626.34	60308.58
626.49	60172.83
626.65	60133.04
626.80	60336.67
626.95	60329.65
627.10	60107.30
627.25	60236.03
627.40	60207.94
627.55	60301.56
627.70	60224.32
627.85	60170.49
628.00	60420.93
628.15	60285.18
628.30	60161.13
628.45	60200.92
628.60	60100.28
628.76	60243.05
628.91	60381.14
629.06	59976.23
629.21	60250.07
629.36	60257.09
629.51	60163.47
629.66	59971.55
629.81	60072.19
629.96	59711.75
630.11	60006.65
630.26	60116.66
630.41	59969.21
630.56	59934.10
630.71	60088.57
630.86	59920.05
631.01	60130.70
631.16	60147.09
631.31	59852.18
631.46	59587.70
631.61	59882.61
631.76	59898.99
631.91	60044.10
632.06	59969.21
632.21	59683.66
632.36	59625.15
632.51	59393.43
632.66	59774.94
632.81	59568.97
632.96	59777.28
633.10	59728.13
633.25	59810.05
633.40	59791.33
633.55	59737.49
633.70	59760.90
633.85	59597.06
634.00	59627.49
634.15	59632.17
634.30	59597.06
634.45	59480.03
634.60	59772.60
634.75	59531.53
634.90	59267.05
635.05	59784.30
635.19	59627.49
635.34	59688.34
635.49	59664.94
635.64	59632.17
635.79	59519.82
635.94	59583.02
636.09	59580.68
636.24	59320.88
636.39	59243.64
636.53	59702.38
636.68	59409.82
636.83	59398.12
636.98	59901.33
637.13	59297.47
637.28	59374.71
637.43	59391.09
637.57	59290.45
637.72	59157.04
637.87	59437.90
638.02	59187.47
638.17	59473.01
638.32	59075.12
638.46	59290.45
638.61	59267.05
638.76	59054.06
638.91	59056.40
639.06	59107.89
639.20	59042.35
639.35	58965.12
639.50	58918.31
639.65	59000.22
639.80	59210.87
639.94	59098.53
640.09	58990.86
640.24	59009.59
640.39	59035.33
640.54	58817.66
640.68	59140.66
640.83	58925.33
640.98	58845.75
641.13	58852.77
641.27	59206.19
641.42	58930.01
641.57	58876.18
641.72	58831.71
641.86	58838.73
642.01	58539.14
642.16	59025.97
642.31	58864.47
642.45	58997.88
642.60	58688.93
642.75	58859.79
642.90	58784.90
643.04	58794.26
643.19	58693.61
643.34	58812.98
643.48	58967.46
643.63	58850.43
643.78	58850.43
643.93	58784.90
644.07	58515.73
644.22	58843.41
644.37	58319.13
644.51	58611.70
644.66	58560.20
644.81	58841.07
644.95	58607.01
645.10	58450.20
645.25	58625.74
645.39	58417.43
645.54	58305.09
645.69	58473.60
645.83	58405.73
645.98	58459.56
646.13	58475.94
646.27	58398.71
646.42	58365.94
646.57	58464.24
646.71	58482.97
646.86	58546.16
647.00	58522.76
647.15	58267.64
647.30	58246.57
647.44	58340.19
647.59	58244.23
647.74	58335.51
647.88	58487.65
648.03	58623.40
648.17	58489.99
648.32	58195.08
648.47	58419.77
648.61	58375.30
648.76	58108.48
648.90	58234.87
649.05	58216.14
649.20	58089.76
649.34	58176.36
649.49	58251.25
649.63	58382.32
649.78	58298.06
649.92	58028.90
650.07	58157.63
650.21	58068.69
650.36	57996.13
650.51	57942.30
650.65	58110.82
650.80	58038.26
650.94	57776.12
651.09	57815.91
651.23	57853.36
651.38	57708.25
651.52	57815.91
651.67	57731.65
651.81	57666.12
651.96	57712.93
652.10	57893.15
652.25	57818.25
652.39	57530.37
652.54	57659.10
652.68	57502.28
652.83	57668.46
652.97	57656.76
653.12	57605.26
653.26	57425.04
653.41	57813.57
653.55	57785.49
653.70	57680.16
653.84	57825.28
653.99	57682.50
654.13	57757.40
654.27	57628.67
654.42	57359.51
654.56	57453.13
654.71	57490.58
654.85	57535.05
655.00	57549.09
655.14	57464.83
655.29	57584.20
655.43	57275.25
655.57	57506.96
655.72	57460.15
655.86	57654.42
656.01	57420.36
656.15	57310.36
656.30	57530.37
656.44	57635.69
656.58	57385.25
656.73	57286.95
656.87	57333.76
657.01	57193.33
657.16	57263.55
657.30	57155.88
657.45	56903.10
657.59	56856.29
657.73	56982.68
657.88	56828.21
658.02	57144.18
658.16	57036.51
658.31	56994.39
658.45	56942.89
658.60	56849.27
658.74	57130.14
658.88	56954.60
659.03	56849.27
659.17	56804.80
659.31	56650.33
659.46	56781.40
659.60	56893.74
659.74	56919.49
659.89	56821.19
660.03	56720.54
660.17	56788.42
660.32	56797.78
660.46	56868.00
660.60	56603.52
660.74	56963.96
660.89	56832.89
661.03	56617.56
661.17	56346.06
661.32	56226.69
661.46	56474.79
661.60	56495.85
661.74	56053.49
661.89	56128.39
662.03	55917.74
662.17	56280.52
662.31	56268.82
662.46	56456.06
662.60	56149.45
662.74	56470.11
662.88	55894.33
663.03	55943.48
663.17	55709.43
663.31	55920.08
663.45	55760.92
663.60	55599.43
663.74	55451.97
663.88	55725.81
664.02	55648.58
664.17	55807.73
664.31	55313.88
664.45	55545.59
664.59	55700.07
664.73	55344.31
664.88	55487.08
665.02	55037.70
665.16	55597.09
665.30	55309.20
665.44	55377.08
665.59	55246.00
665.73	55423.89
665.87	55215.58
666.01	55353.67
666.15	55210.90
666.29	55201.53
666.44	55524.53
666.58	54803.64
666.72	54670.23
666.86	54651.51
667.00	55063.44
667.14	54487.67
667.28	54557.89
667.43	54450.22
667.57	54871.52
667.71	54511.08
667.85	54295.75
667.99	54529.80
668.13	54515.76
668.27	53900.20
668.41	53949.35
668.56	54178.72
668.70	54174.04
668.84	53961.05
668.98	54054.67
669.12	54031.27
669.26	54356.60
669.40	54220.85
669.54	54211.49
669.68	53932.96
669.82	53785.51
669.96	53769.13
670.10	54061.69
670.25	54094.46
670.39	53841.68
670.53	53741.04
670.67	53579.54
670.81	53846.36
670.95	53886.15
671.09	53518.69
671.23	53132.50
671.37	53127.82
671.51	53258.89
671.65	53338.47
671.79	53221.44
671.93	53347.83
672.07	53282.30
672.21	52729.93
672.35	52982.71
672.49	52451.41
672.63	52767.38
672.77	52573.11
672.91	52697.16
673.05	52409.28
673.19	52449.06
673.33	52329.70
673.47	52299.27
673.61	52594.18
673.75	52395.23
673.89	51791.37
674.03	51711.80
674.17	51700.09
674.31	51852.23
674.45	51634.56
674.59	51782.01
674.73	51599.45
674.87	51414.55
675.01	51533.92
675.15	51508.17
675.29	51405.19
675.43	51363.06
675.56	51117.30
675.70	51281.14
675.84	50855.16
675.98	49799.58
676.12	51171.13
676.26	50843.46
676.40	50735.79
676.54	50600.04
676.68	50749.84
676.82	50045.33
676.96	50384.71
677.10	50059.38
677.23	50035.97
677.37	50080.44
677.51	49703.62
677.65	49256.57
677.79	48664.42
677.93	48610.59
678.07	48783.79
678.21	48753.36
678.34	48746.34
678.48	48671.44
678.62	48528.67
678.76	48694.85
678.90	48378.87
679.04	48355.47
679.18	48666.76
679.31	47786.72
679.45	47863.96
679.59	47709.48
679.73	47569.05
679.87	47587.77
680.00	47583.09
680.14	47168.82
680.28	46902.00
680.42	47126.69
680.56	47075.19
680.70	46625.81
680.83	46319.20
680.97	46597.73
681.11	46583.68
681.25	46300.48
681.39	46167.07
681.52	46405.80
681.66	45743.43
681.80	45867.48
681.94	45937.69
682.07	45595.98
682.21	45230.85
682.35	45137.23
682.49	45038.93
682.62	44886.79
682.76	45120.85
682.90	45052.97
683.04	44837.64
683.17	44334.43
683.31	43854.62
683.45	44650.40
683.59	44100.37
683.72	43746.95
683.86	43508.22
684.00	44451.45
684.13	44058.24
684.27	43744.61
684.41	43887.39
684.55	43564.39
684.68	43316.29
684.82	43309.27
684.96	42515.83
685.09	42726.48
685.23	42113.26
685.37	42471.36
685.50	41944.74
685.64	42564.98
685.78	42328.59
685.91	42024.32
686.05	41574.94
686.19	41202.79
686.32	41165.34
686.46	41148.96
686.60	40982.78
686.73	40355.52
686.87	41013.21
687.01	41022.57
687.14	40528.72
687.28	40423.39
687.42	40140.19
687.55	39903.79
687.69	40102.74
687.82	39524.63
687.96	39782.09
688.10	39714.21
688.23	39608.89
688.37	39435.69
688.50	38761.61
688.64	39068.22
688.78	38682.03
688.91	38567.35
689.05	38494.79
689.18	38560.33
689.32	37710.71
689.46	37418.14
689.59	38029.02
689.73	37488.36
689.86	37191.11
690.00	36975.78
690.13	37490.70
690.27	37195.79
690.41	37385.38
690.54	36723.01
690.68	36704.28
690.81	36472.57
690.95	36535.76
691.08	36294.69
691.22	35765.73
691.35	35971.69
691.49	36444.48
691.62	36048.93
691.76	35629.98
691.89	35431.03
692.03	35192.30
692.16	35166.55
692.30	35250.81
692.43	34897.39
692.57	34630.57
692.70	34548.65
692.84	34515.88
692.97	34171.82
693.11	34169.48
693.24	34298.21
693.38	33799.68
693.51	33645.20
693.65	33443.91
693.78	33230.93
693.92	33205.18
694.05	33607.75
694.19	32741.75
694.32	32929.00
694.45	32402.38
694.59	32591.96
694.72	32697.28
694.86	32322.80
694.99	32147.26
695.13	31831.29
695.26	31718.94
695.39	31358.50
695.53	31367.86
695.66	31824.26
695.80	31644.04
695.93	31150.19
696.07	30665.70
696.20	30630.59
696.33	30326.32
696.47	30384.83
696.60	30607.19
696.73	30213.98
696.87	30183.55
697.00	29937.79
697.14	30527.61
697.27	29832.47
697.40	29738.85
697.54	29390.11
697.67	29539.90
697.80	29301.17
697.94	29336.27
698.07	28933.70
698.21	28863.49
698.34	29010.94
698.47	28315.80
698.61	28088.77
698.74	28393.04
698.87	28685.61
699.01	28496.02
699.14	28119.20
699.27	28177.71
699.40	27896.85
699.54	27835.99
699.67	27328.10
699.80	27707.26
699.94	27318.73
700.07	27234.47
700.20	26705.51
700.34	26546.36
700.47	26513.59
700.60	26546.36
700.73	26352.09
700.87	25837.17
701.00	25930.80
701.13	25678.02
701.26	25802.07
701.40	26101.65
701.53	25741.21
701.66	25436.94
701.79	25249.70
701.93	25008.62
702.06	24933.73
702.19	25022.67
702.32	25109.27
702.46	24570.94
702.59	24430.51
702.72	24100.50
702.85	24407.11
702.99	23990.49
703.12	24283.06
703.25	23786.86
703.38	23751.76
703.51	23522.38
703.65	23197.05
703.78	23143.22
703.91	23304.71
704.04	23201.73
704.17	23339.82
704.31	22972.36
704.44	22892.78
704.57	22803.84
704.70	22438.72
704.83	22405.95
704.96	22047.85
705.10	22015.08
705.23	22120.40
>>>>>End Processed Spectral Data<<<<<
