SpectraSuite Data File
++++++++++++++++++++++++++++++++++++
Date: Fri Oct 25 10:44:17 EDT 2013
User: price-jones
Dark Spectrum Present: No
Reference Spectrum Present: No
Number of Sampled Component Spectra: 1
Spectrometers: USB2+H05261
Integration Time (usec): 100000 (USB2+H05261)
Spectra Averaged: 1 (USB2+H05261)
Boxcar Smoothing: 0 (USB2+H05261)
Correct for Electrical Dark: No (USB2+H05261)
Strobe/Lamp Enabled: No (USB2+H05261)
Correct for Detector Non-linearity: No (USB2+H05261)
Correct for Stray Light: No (USB2+H05261)
Number of Pixels in Processed Spectrum: 2048
>>>>>Begin Processed Spectral Data<<<<<
365.73	149.79
365.92	149.79
366.12	149.79
366.32	51.49
366.52	0.00
366.72	67.88
366.91	14.04
367.11	0.00
367.31	0.00
367.51	42.13
367.70	37.45
367.90	0.00
368.10	16.38
368.30	46.81
368.49	4.68
368.69	72.56
368.89	91.28
369.09	0.00
369.28	98.30
369.48	67.88
369.68	37.45
369.87	100.64
370.07	121.71
370.27	107.66
370.47	126.39
370.66	402.57
370.86	409.59
371.06	505.56
371.25	470.45
371.45	360.44
371.65	395.55
371.84	440.02
372.04	428.32
372.24	482.15
372.44	561.73
372.63	503.22
372.83	521.94
373.03	472.79
373.22	491.51
373.42	521.94
373.62	571.09
373.81	554.71
374.01	603.86
374.21	496.19
374.40	538.32
374.60	606.20
374.79	517.26
374.99	571.09
375.19	582.79
375.38	596.84
375.58	608.54
375.78	667.05
375.97	573.43
376.17	622.58
376.37	638.97
376.56	568.75
376.76	568.75
376.95	660.03
377.15	643.65
377.35	655.35
377.54	669.39
377.74	746.63
377.93	662.37
378.13	678.76
378.33	624.92
378.52	617.90
378.72	702.16
378.91	674.07
379.11	601.52
379.31	624.92
379.50	653.01
379.70	723.23
379.89	716.20
380.09	723.23
380.28	662.37
380.48	727.91
380.68	627.26
380.87	685.78
381.07	713.86
381.26	781.74
381.46	795.78
381.65	692.80
381.85	685.78
382.04	711.52
382.24	781.74
382.43	678.76
382.63	748.97
382.83	720.88
383.02	653.01
383.22	704.50
383.41	734.93
383.61	784.08
383.80	791.10
384.00	755.99
384.19	805.14
384.39	814.51
384.58	788.76
384.78	837.91
384.97	805.14
385.17	739.61
385.36	842.59
385.56	802.80
385.75	849.61
385.95	819.19
386.14	889.40
386.34	772.38
386.53	753.65
386.72	823.87
386.92	873.02
387.11	807.48
387.31	828.55
387.50	802.80
387.70	858.98
387.89	875.36
388.09	851.96
388.28	884.72
388.48	849.61
388.67	973.66
388.86	901.11
389.06	931.53
389.25	1062.60
389.45	1011.11
389.64	1020.47
389.84	987.71
390.03	1025.15
390.22	1032.18
390.42	1064.94
390.61	1057.92
390.81	1083.67
391.00	1039.20
391.19	1102.39
391.39	985.37
391.58	1057.92
391.78	1146.86
391.97	1114.10
392.16	1128.14
392.36	1174.95
392.55	1071.97
392.75	1057.92
392.94	1083.67
393.13	940.90
393.33	1006.43
393.52	1041.54
393.71	1067.28
393.91	1114.10
394.10	1158.57
394.29	1177.29
394.49	1207.72
394.68	1210.06
394.88	1256.87
395.07	1343.47
395.26	1289.64
395.46	1249.85
395.65	1245.16
395.84	1270.91
396.04	1348.15
396.23	1203.04
396.42	1088.35
396.62	1116.44
396.81	1172.61
397.00	1205.38
397.19	1226.44
397.39	1387.94
397.58	1383.26
397.77	1357.51
397.97	1425.39
398.16	1418.36
398.35	1406.66
398.55	1488.58
398.74	1371.55
398.93	1535.39
399.12	1554.12
399.32	1521.35
399.51	1423.05
399.70	1626.67
399.90	1554.12
400.09	1561.14
400.28	1647.74
400.47	1579.86
400.67	1530.71
400.86	1577.52
401.05	1734.34
401.24	1687.53
401.44	1713.27
401.63	1774.13
401.82	1755.40
402.01	1633.69
402.21	1736.68
402.40	1743.70
402.59	1736.68
402.78	1675.82
402.97	1799.87
403.17	1790.51
403.36	1760.08
403.55	1884.13
403.74	1867.75
403.93	1790.51
404.13	1930.94
404.32	1919.24
404.51	1884.13
404.70	1942.64
404.89	1769.44
405.09	2024.56
405.28	1954.35
405.47	1963.71
405.66	1928.60
405.85	1980.09
406.05	2008.18
406.24	1994.14
406.43	1994.14
406.62	2012.86
406.81	2141.59
407.00	2038.61
407.20	2015.20
407.39	2092.44
407.58	2057.33
407.77	2239.89
407.96	2211.81
408.15	2279.68
408.34	2188.40
408.54	2347.56
408.73	2284.36
408.92	2256.28
409.11	2434.16
409.30	2296.07
409.49	2319.47
409.68	2272.66
409.87	2296.07
410.07	2363.94
410.26	2349.90
410.45	2406.07
410.64	2443.52
410.83	2473.95
411.02	2492.67
411.21	2553.52
411.40	2609.70
411.59	2651.83
411.78	2602.68
411.98	2654.17
412.17	2710.34
412.36	2698.64
412.55	2740.77
412.74	2665.87
412.93	2750.13
413.12	2663.53
413.31	2932.69
413.50	2740.77
413.69	2895.24
413.88	2895.24
414.07	2951.42
414.26	2895.24
414.45	2874.18
414.64	2937.37
414.83	3035.67
415.02	3059.08
415.22	3087.17
415.41	3115.25
415.60	3155.04
415.79	3150.36
415.98	3171.43
416.17	3241.64
416.36	3199.51
416.55	3297.81
416.74	3351.65
416.93	3169.09
417.12	3297.81
417.31	3382.07
417.50	3358.67
417.69	3398.46
417.88	3356.33
418.07	3400.80
418.26	3473.36
418.45	3562.30
418.64	3581.02
418.83	3655.92
419.02	3637.19
419.21	3559.95
419.39	3543.57
419.58	3538.89
419.77	3606.77
419.96	3679.32
420.15	3566.98
420.34	3590.38
420.53	3742.52
420.72	3822.09
420.91	3838.48
421.10	3920.40
421.29	3845.50
421.48	3831.46
421.67	3786.99
421.86	3712.09
422.05	3908.69
422.24	3808.05
422.43	3786.99
422.61	3819.75
422.80	3875.93
422.99	3904.01
423.18	3892.31
423.37	3981.25
423.56	4044.45
423.75	3911.04
423.94	3925.08
424.13	3847.84
424.32	3873.59
424.50	4004.66
424.69	4011.68
424.88	3974.23
425.07	3868.91
425.26	3871.25
425.45	3810.39
425.64	3976.57
425.83	3936.78
426.01	4037.42
426.20	4018.70
426.39	3992.95
426.58	3892.31
426.77	3948.48
426.96	4238.71
427.15	3995.29
427.33	4035.08
427.52	4065.51
427.71	4138.07
427.90	4021.04
428.09	4093.60
428.28	4231.69
428.46	4046.79
428.65	4140.41
428.84	4189.56
429.03	4313.61
429.22	4187.22
429.40	4297.22
429.59	4210.62
429.78	4018.70
429.97	3875.93
430.16	3967.21
430.34	4128.70
430.53	4196.58
430.72	4283.18
430.91	4189.56
431.10	4365.10
431.28	4669.37
431.47	4566.39
431.66	4692.77
431.85	4435.32
432.03	4664.69
432.22	4652.98
432.41	4643.62
432.60	4592.13
432.79	4571.07
432.97	4865.97
433.16	4828.53
433.35	4713.84
433.54	4669.37
433.72	4837.89
433.91	4739.58
434.10	4774.69
434.28	4746.61
434.47	4912.78
434.66	4865.97
434.85	4980.66
435.03	4938.53
435.22	4896.40
435.41	5130.45
435.59	5135.14
435.78	5116.41
435.97	5146.84
436.16	5102.37
436.34	5205.35
436.53	5118.75
436.72	5203.01
436.90	5081.30
437.09	5252.16
437.28	5088.32
437.46	5289.61
437.65	5245.14
437.84	5207.69
438.02	5259.18
438.21	5151.52
438.40	5160.88
438.58	5411.32
438.77	5315.36
438.96	5507.28
439.14	5612.60
439.33	5596.22
439.52	5685.16
439.70	5701.54
439.89	5657.07
440.08	5762.40
440.26	5682.82
440.45	5755.38
440.63	5863.04
440.82	5877.09
441.01	6029.22
441.19	6029.22
441.38	6080.71
441.57	6183.70
441.75	6195.40
441.94	6148.59
442.12	6242.21
442.31	6186.04
442.50	6352.21
442.68	6209.44
442.87	6415.41
443.05	6195.40
443.24	6408.39
443.43	6492.65
443.61	6450.52
443.80	6633.08
443.98	6253.91
444.17	6230.51
444.35	6413.07
444.54	6558.18
444.73	6478.60
444.91	6406.05
445.10	6406.05
445.28	6445.84
445.47	6370.94
445.65	6403.71
445.84	6532.44
446.02	6665.85
446.21	6677.55
446.39	6574.56
446.58	6637.76
446.77	6715.00
446.95	6675.21
447.14	6768.83
447.32	6731.38
447.51	6670.53
447.69	6506.69
447.88	6675.21
448.06	6787.55
448.25	6794.58
448.43	6637.76
448.62	6808.62
448.80	6782.87
448.99	6810.96
449.17	6743.08
449.36	6649.46
449.54	6820.32
449.73	6960.75
449.91	7169.06
450.10	7140.97
450.28	7304.81
450.46	7236.94
450.65	7194.81
450.83	7227.57
451.02	7028.63
451.20	7300.13
451.39	7267.36
451.57	7335.24
451.76	7089.48
451.94	7171.40
452.13	7405.46
452.31	7162.04
452.49	7112.89
452.68	7307.15
452.86	7276.73
453.05	7192.47
453.23	7335.24
453.42	7379.71
453.60	7529.50
453.78	7445.24
453.97	7316.51
454.15	7283.75
454.34	7438.22
454.52	7613.76
454.70	7639.51
454.89	7660.57
455.07	7293.11
455.26	7747.17
455.44	7864.20
455.62	7705.04
455.81	7742.49
455.99	7796.32
456.17	7679.30
456.36	7962.50
456.54	7988.25
456.73	8018.68
456.91	8243.37
457.09	8299.54
457.28	8217.62
457.46	7981.23
457.64	8173.15
457.83	8344.01
458.01	7943.78
458.19	8224.64
458.38	8107.62
458.56	8152.09
458.74	8196.56
458.93	8297.20
459.11	8484.44
459.29	8491.46
459.48	8477.42
459.66	8189.53
459.84	8182.51
460.03	8620.19
460.21	8486.78
460.39	8568.70
460.57	8386.14
460.76	8608.49
460.94	8730.20
461.12	8697.43
461.31	8585.08
461.49	8645.94
461.67	8603.81
461.85	9022.77
462.04	8755.94
462.22	8917.44
462.40	9008.72
462.59	8912.76
462.77	8894.04
462.95	8917.44
463.13	9046.17
463.32	8809.78
463.50	9078.94
463.68	8945.53
463.86	9217.03
464.05	8781.69
464.23	8929.14
464.41	9172.56
464.59	8917.44
464.78	9369.16
464.96	9008.72
465.14	9083.62
465.32	9214.69
465.50	9364.48
465.69	9404.27
465.87	9116.39
466.05	9172.56
466.23	9104.68
466.41	9263.84
466.60	9322.35
466.78	9142.13
466.96	9186.60
467.14	9247.46
467.32	9322.35
467.51	9647.69
467.69	9266.18
467.87	9511.94
468.05	9596.20
468.23	9572.79
468.41	9650.03
468.60	9479.17
468.78	9685.14
468.96	9645.35
469.14	9668.75
469.32	9652.37
469.50	9523.64
469.69	9659.39
469.87	9741.31
470.05	9973.02
470.23	9909.83
470.41	9895.78
470.59	9994.09
470.77	9856.00
470.95	9848.97
471.14	10033.88
471.32	9823.23
471.50	10197.71
471.68	10279.63
471.86	10249.21
472.04	10244.52
472.22	10527.73
472.40	10209.42
472.58	10520.71
472.77	10532.41
472.95	10555.82
473.13	10857.75
473.31	10562.84
473.49	10448.15
473.67	10810.93
473.85	10682.20
474.03	11180.74
474.21	11063.71
474.39	10979.45
474.57	11096.48
474.75	11133.93
474.93	11108.18
475.12	11190.10
475.30	11375.00
475.48	11047.33
475.66	11353.94
475.84	11260.32
476.02	11398.41
476.20	11414.79
476.38	11702.68
476.56	11957.80
476.74	11850.13
476.92	11674.59
477.10	11754.17
477.28	12170.79
477.46	12131.00
477.64	12149.72
477.82	12407.18
478.00	12650.60
478.18	12603.78
478.36	12400.16
478.54	12762.94
478.72	12751.24
478.90	13078.91
479.08	13109.34
479.26	13303.60
479.44	13317.65
479.62	13413.61
479.80	13287.22
479.98	13486.17
480.16	13741.29
480.34	13572.77
480.52	13710.86
480.70	13785.76
480.88	13645.32
481.06	13778.73
481.24	14127.47
481.41	14363.87
481.59	14434.08
481.77	14806.23
481.95	14719.63
482.13	14600.26
482.31	14611.96
482.49	14934.96
482.67	15012.20
482.85	15033.26
483.03	15339.87
483.21	15204.12
483.39	15487.32
483.57	15133.90
483.74	15658.18
483.92	15805.64
484.10	15360.94
484.28	16058.42
484.46	16002.24
484.64	16276.09
484.82	15927.35
485.00	16142.67
485.18	16465.67
485.35	16563.97
485.53	16184.80
485.71	16224.59
485.89	16453.97
486.07	16400.13
486.25	16528.86
486.43	16978.25
486.61	17252.09
486.78	17404.22
486.96	17289.54
487.14	17994.04
487.32	17818.50
487.50	17949.57
487.68	18148.51
487.85	18274.90
488.03	18607.26
488.21	18822.59
488.39	18789.82
488.57	18754.71
488.75	18988.77
488.92	19147.92
489.10	19534.11
489.28	19496.66
489.46	19845.40
489.64	19775.19
489.81	20294.79
489.99	20107.54
490.17	20357.98
490.35	20477.35
490.53	20505.43
490.70	20486.71
490.88	20657.57
491.06	20765.23
491.24	20987.58
491.41	20704.38
491.59	20594.37
491.77	20800.34
491.95	21081.21
492.13	21577.40
492.30	21713.15
492.48	21792.73
492.66	22071.25
492.84	21790.39
493.01	21884.01
493.19	22183.60
493.37	22068.91
493.54	22595.53
493.72	22799.16
493.90	22537.02
494.08	22754.69
494.25	23342.16
494.43	23220.45
494.61	23393.65
494.79	23639.41
494.96	23700.26
495.14	23288.33
495.32	23763.46
495.49	23641.75
495.67	23791.55
495.85	24142.63
496.02	24386.04
496.20	24290.08
496.38	24467.96
496.55	24353.27
496.73	24943.09
496.91	24856.49
497.09	25123.31
497.26	25593.76
497.44	25172.46
497.62	25277.79
497.79	25422.90
497.97	25200.55
498.14	25371.41
498.32	25675.68
498.50	25741.21
498.67	26211.66
498.85	26103.99
499.03	26436.35
499.20	26169.53
499.38	26274.85
499.56	26548.70
499.73	26251.45
499.91	26820.20
500.08	26731.26
500.26	26197.62
500.44	26595.51
500.61	26855.31
500.79	26834.24
500.97	27058.93
501.14	27363.20
501.32	27199.37
501.49	27353.84
501.67	27660.45
501.84	27800.88
502.02	27735.35
502.20	27751.73
502.37	28058.34
502.55	27728.33
502.72	27903.87
502.90	28161.33
503.07	28276.01
503.25	28479.64
503.43	28025.57
503.60	28432.83
503.78	28236.22
503.95	28437.51
504.13	28514.75
504.30	28573.26
504.48	28811.99
504.65	29092.86
504.83	29406.49
505.01	29434.58
505.18	29216.91
505.36	29429.90
505.53	29535.22
505.71	30319.30
505.88	29628.84
506.06	29825.45
506.23	30316.96
506.41	29476.71
506.58	29837.15
506.76	30162.48
506.93	30218.66
507.11	30010.35
507.28	29867.58
507.46	30146.10
507.63	29930.77
507.81	30263.13
507.98	30235.04
508.16	30527.61
508.33	30565.06
508.50	30483.14
508.68	30845.92
508.85	31417.01
509.03	31302.32
509.20	30796.77
509.38	31349.14
509.55	31166.57
509.73	31566.81
509.90	31257.85
510.08	31442.76
510.25	31421.69
510.42	31854.69
510.60	31885.12
510.77	31873.42
510.95	32240.88
511.12	32306.41
511.30	32196.41
511.47	32280.67
511.64	32540.47
511.82	32261.94
511.99	32278.33
512.17	32425.78
512.34	32147.26
512.51	32425.78
512.69	33277.74
512.86	32783.88
513.04	33394.76
513.21	32907.93
513.38	33160.71
513.56	32823.67
513.73	32699.62
513.90	33228.59
514.08	33015.60
514.25	33088.15
514.43	33390.08
514.60	33493.07
514.77	33888.62
514.95	33628.82
515.12	33820.74
515.29	33790.31
515.47	33823.08
515.64	34206.93
515.81	33965.85
515.99	33844.15
516.16	34185.86
516.33	33748.18
516.51	33631.16
516.68	33362.00
516.85	33542.22
517.03	33713.08
517.20	34003.30
517.37	34478.43
517.54	34515.88
517.72	34801.43
517.89	34394.17
518.06	33947.13
518.24	34424.60
518.41	34347.36
518.58	34749.93
518.75	34675.04
518.93	34794.40
519.10	35005.05
519.27	35171.23
519.45	34892.71
519.62	35337.41
519.79	35463.80
519.96	35363.15
520.14	35793.81
520.31	35110.38
520.48	35339.75
520.65	35379.54
520.83	36191.70
521.00	36041.91
521.17	36004.46
521.34	36025.53
521.52	36341.50
521.69	36198.73
521.86	36446.82
522.03	36495.97
522.20	36575.55
522.38	36610.66
522.55	36383.63
522.72	36964.08
522.89	36678.54
523.07	36332.14
523.24	36945.36
523.41	37062.38
523.58	37167.71
523.75	37525.81
523.92	37560.92
524.10	37572.62
524.27	37544.53
524.44	37184.09
524.61	37703.69
524.78	37827.74
524.96	37631.13
525.13	37928.38
525.30	37787.95
525.47	38106.26
525.64	38089.88
525.81	38012.64
525.98	37696.67
526.16	37706.03
526.33	37233.24
526.50	37413.46
526.67	37502.40
526.84	37832.42
527.01	37652.20
527.18	38007.96
527.36	38345.00
527.53	38136.69
527.70	39262.49
527.87	38251.38
528.04	38410.53
528.21	38815.44
528.38	39030.77
528.55	38948.85
528.72	38808.42
528.89	38728.84
529.07	39072.90
529.24	38768.63
529.41	38848.21
529.58	38855.23
529.75	38920.77
529.92	38857.57
530.09	39108.01
530.26	39330.36
530.43	39356.11
530.60	39206.31
530.77	39746.98
530.94	39922.52
531.11	39033.11
531.28	40058.27
531.46	39983.37
531.63	40224.45
531.80	39852.30
531.97	39613.57
532.14	39489.52
532.31	39264.83
532.48	40137.85
532.65	39920.18
532.82	40037.20
532.99	40004.44
533.16	40088.70
533.33	40231.47
533.50	40289.98
533.67	40245.51
533.84	40458.50
534.01	40224.45
534.18	40341.47
534.35	40215.08
534.52	40418.71
534.69	40589.57
534.86	40713.62
535.03	40346.15
535.20	40837.67
535.37	40971.08
535.54	41024.91
535.71	40966.40
535.88	40919.59
536.05	41043.63
536.22	41010.87
536.38	41158.32
536.55	41015.55
536.72	40938.31
536.89	40928.95
537.06	41092.79
537.23	41027.25
537.40	41230.88
537.57	41425.14
537.74	41387.69
537.91	41544.51
538.08	41762.18
538.25	40985.12
538.42	41511.74
538.59	41303.43
538.75	40868.09
538.92	41387.69
539.09	41240.24
539.26	41792.61
539.43	41453.23
539.60	41394.71
539.77	41698.98
539.94	42073.47
540.11	41223.86
540.28	41888.57
540.44	42036.02
540.61	41574.94
540.78	41696.64
540.95	41598.34
541.12	41413.44
541.29	41830.05
541.46	41958.78
541.62	42295.82
541.79	41911.97
541.96	41883.89
542.13	42017.30
542.30	42291.14
542.47	42286.46
542.63	42143.69
542.80	42092.19
542.97	42740.52
543.14	42817.76
543.31	42920.74
543.48	43217.99
543.64	42913.72
543.81	43442.68
543.98	42988.62
544.15	42866.91
544.32	43126.71
544.48	43147.78
544.65	43138.41
544.82	43140.75
544.99	43126.71
545.16	43143.09
545.32	43070.54
545.49	43613.54
545.66	43545.67
545.83	43482.47
546.00	43515.24
546.16	43243.74
546.33	43854.62
546.50	43007.34
546.67	43384.17
546.83	43220.33
547.00	43601.84
547.17	43386.51
547.34	43395.87
547.50	43725.89
547.67	43746.95
547.84	43714.19
548.00	44137.82
548.17	43882.70
548.34	43770.36
548.51	44231.44
548.67	43983.35
548.84	44018.46
549.01	44023.14
549.18	43866.32
549.34	43821.85
549.51	44247.83
549.68	44121.44
549.84	44362.51
550.01	44156.55
550.18	44280.60
550.34	44149.53
550.51	44294.64
550.68	44032.50
550.84	44072.29
551.01	44348.47
551.18	44149.53
551.34	44580.18
551.51	44222.08
551.68	44516.99
551.84	44505.29
552.01	44308.68
552.18	44638.70
552.34	44264.21
552.51	44226.76
552.68	44577.84
552.84	44802.53
553.01	44996.80
553.18	44788.49
553.34	44645.72
553.51	44285.28
553.67	44699.55
553.84	45240.21
554.01	44957.01
554.17	45123.19
554.34	45237.87
554.51	45226.17
554.67	45450.86
554.84	45308.09
555.00	45177.02
555.17	44900.84
555.33	44870.41
555.50	44531.03
555.67	45099.78
555.83	45132.55
556.00	44619.97
556.16	45240.21
556.33	45111.49
556.50	44942.97
556.66	45134.89
556.83	44935.95
556.99	44975.73
557.16	45184.04
557.32	45471.93
557.49	45514.06
557.65	45064.67
557.82	45361.92
557.98	45228.51
558.15	45162.98
558.32	45216.81
558.48	44924.24
558.65	45244.90
558.81	45050.63
558.98	44999.14
559.14	45223.83
559.31	45633.42
559.47	45350.22
559.64	45397.03
559.80	45172.34
559.97	45890.88
560.13	45354.90
560.30	45422.78
560.46	45394.69
560.63	45485.97
560.79	45663.85
560.96	45603.00
561.12	45549.17
561.29	45832.37
561.45	45221.49
561.61	45698.96
561.78	45769.18
561.94	45177.02
562.11	45801.94
562.27	45467.25
562.44	45481.29
562.60	45993.87
562.77	46036.00
562.93	45567.89
563.10	46146.00
563.26	45537.46
563.42	45968.12
563.59	45549.17
563.75	45853.44
563.92	45904.93
564.08	45696.62
564.24	45989.19
564.41	46176.43
564.57	45579.59
564.74	46043.02
564.90	46232.60
565.07	45764.49
565.23	46007.91
565.39	45656.83
565.56	46169.41
565.72	45268.30
565.88	45631.08
566.05	45537.46
566.21	46059.40
566.38	45701.30
566.54	45773.86
566.70	45736.41
566.87	46429.21
567.03	46096.85
567.19	46265.37
567.36	46024.29
567.52	45942.38
567.68	46106.21
567.85	45904.93
568.01	45918.97
568.17	45717.68
568.34	46298.14
568.50	45855.78
568.66	45792.58
568.83	46073.45
568.99	45837.05
569.15	46096.85
569.32	45923.65
569.48	45680.24
569.64	45984.51
569.81	46295.80
569.97	46220.90
570.13	45813.65
570.30	45965.78
570.46	46087.49
570.62	45830.03
570.78	46026.63
570.95	46103.87
571.11	46136.64
571.27	45710.66
571.43	46206.86
571.60	46216.22
571.76	46445.59
571.92	46291.12
572.09	46195.15
572.25	45982.16
572.41	45769.18
572.57	46440.91
572.74	46328.56
572.90	46293.46
573.06	46113.23
573.22	45673.21
573.38	46099.19
573.55	45963.44
573.71	46209.20
573.87	46253.67
574.03	45862.80
574.20	46323.88
574.36	46192.81
574.52	46120.26
574.68	46164.73
574.84	46337.93
575.01	45741.09
575.17	45937.69
575.33	46003.23
575.49	46312.18
575.65	46567.30
575.82	46590.70
575.98	46110.89
576.14	46408.14
576.30	46185.79
576.46	46337.93
576.62	46246.65
576.79	45682.58
576.95	46232.60
577.11	46115.58
577.27	46326.22
577.43	46436.23
577.59	46354.31
577.75	46309.84
577.92	46148.34
578.08	46089.83
578.24	46160.05
578.40	45743.43
578.56	45713.00
578.72	46759.22
578.88	46431.55
579.04	46096.85
579.21	46162.39
579.37	46354.31
579.53	46319.20
579.69	46256.01
579.85	46316.86
580.01	46267.71
580.17	46073.45
580.33	46431.55
580.49	46398.78
580.65	46464.32
580.82	46337.93
580.98	46068.76
581.14	46251.33
581.30	46632.83
581.46	46763.90
581.62	46246.65
581.78	46438.57
581.94	46684.33
582.10	46534.53
582.26	46129.62
582.42	46445.59
582.58	46597.73
582.74	46550.91
582.90	46515.81
583.06	46459.63
583.22	46373.03
583.38	46719.43
583.54	46628.15
583.70	46557.94
583.86	46438.57
584.02	45914.29
584.18	46541.55
584.34	46604.75
584.50	46373.03
584.66	46045.36
584.82	46263.03
584.98	46176.43
585.14	46838.80
585.30	46391.76
585.46	46637.51
585.62	46146.00
585.78	46340.27
585.94	46204.52
586.10	46494.74
586.26	46204.52
586.42	46623.47
586.58	46614.11
586.74	46471.34
586.90	46291.12
587.06	46307.50
587.22	46520.49
587.38	46227.92
587.54	46625.81
587.70	46415.16
587.86	46092.17
588.02	46817.74
588.18	46571.98
588.34	46241.96
588.49	45858.12
588.65	45736.41
588.81	45687.26
588.97	46532.19
589.13	45921.31
589.29	46246.65
589.45	46080.47
589.61	46148.34
589.77	46199.83
589.93	46394.10
590.08	46579.00
590.24	46443.25
590.40	46487.72
590.56	46756.88
590.72	46588.36
590.88	46679.64
591.04	46927.74
591.20	46752.20
591.35	46916.04
591.51	46892.63
591.67	46176.43
591.83	46241.96
591.99	46153.02
592.15	46609.43
592.31	46347.29
592.46	46307.50
592.62	46621.13
592.78	46920.72
592.94	46686.67
593.10	46644.54
593.26	46478.36
593.41	46328.56
593.57	46639.86
593.73	46476.02
593.89	46780.29
594.05	46309.84
594.20	46452.61
594.36	46773.27
594.52	46663.26
594.68	46440.91
594.84	46129.62
594.99	46960.51
595.15	45949.40
595.31	46810.71
595.47	46314.52
595.62	46883.27
595.78	46796.67
595.94	46644.54
596.10	46820.08
596.25	46965.19
596.41	46504.10
596.57	46485.38
596.73	46677.30
596.88	46419.84
597.04	46312.18
597.20	46752.20
597.36	46614.11
597.51	47000.30
597.67	46801.35
597.83	46721.77
597.99	46693.69
598.14	47009.66
598.30	46738.16
598.46	46469.00
598.61	46829.44
598.77	46541.55
598.93	46330.90
599.09	46703.05
599.24	47154.77
599.40	47227.33
599.56	47019.02
599.71	46607.09
599.87	46328.56
600.03	46684.33
600.18	46862.21
600.34	46595.38
600.50	46239.62
600.65	46766.24
600.81	47178.18
600.97	46740.50
601.12	46979.23
601.28	46820.08
601.44	46808.37
601.59	46515.81
601.75	46099.19
601.91	46714.75
602.06	46103.87
602.22	46752.20
602.37	46506.44
602.53	46389.42
602.69	46618.79
602.84	46543.89
603.00	46326.22
603.16	46108.55
603.31	46309.84
603.47	46567.30
603.62	46548.57
603.78	46550.91
603.94	46770.93
604.09	46897.31
604.25	46735.82
604.40	46646.88
604.56	46506.44
604.71	46850.50
604.87	46073.45
605.03	46141.32
605.18	46291.12
605.34	46450.27
605.49	46131.96
605.65	46674.96
605.80	46366.01
605.96	46429.21
606.12	46511.13
606.27	47173.50
606.43	46536.87
606.58	46426.87
606.74	46244.30
606.89	46256.01
607.05	46363.67
607.20	46417.50
607.36	46520.49
607.51	46504.10
607.67	46274.73
607.82	46368.35
607.98	46368.35
608.13	46431.55
608.29	46281.75
608.44	46127.28
608.60	45797.26
608.75	45827.69
608.91	45687.26
609.06	46092.17
609.22	46623.47
609.37	46085.15
609.53	46319.20
609.68	46089.83
609.84	45876.84
609.99	45965.78
610.15	45537.46
610.30	45991.53
610.46	45834.71
610.61	45542.14
610.76	45986.85
610.92	45783.22
611.07	46050.04
611.23	46057.06
611.38	45951.74
611.54	45743.43
611.69	45844.07
611.84	45708.32
612.00	45542.14
612.15	45397.03
612.31	45624.06
612.46	45404.05
612.62	45350.22
612.77	46141.32
612.92	46265.37
613.08	45511.72
613.23	45607.68
613.39	45654.49
613.54	45373.63
613.69	45907.27
613.85	45408.73
614.00	45125.53
614.15	45827.69
614.31	45188.72
614.46	45815.99
614.62	45841.73
614.77	45109.14
614.92	45448.52
615.08	45088.08
615.23	45390.01
615.38	45399.37
615.54	45102.12
615.69	45015.52
615.84	45029.57
616.00	45031.91
616.15	45195.74
616.30	45291.71
616.46	45347.88
616.61	44898.50
616.76	45235.53
616.92	44484.22
617.07	44603.59
617.22	44811.90
617.37	44554.44
617.53	45064.67
617.68	45287.03
617.83	45181.70
617.99	44957.01
618.14	45331.50
618.29	44825.94
618.45	44374.22
618.60	45038.93
618.75	44495.92
618.90	44608.27
619.06	45331.50
619.21	45045.95
619.36	44774.45
619.51	44947.65
619.67	44474.86
619.82	44793.17
619.97	44671.46
620.12	44891.48
620.28	43997.39
620.43	44233.78
620.58	44416.35
620.73	44479.54
620.89	44428.05
621.04	44509.97
621.19	44631.68
621.34	44547.42
621.49	43924.83
621.65	44348.47
621.80	44315.70
621.95	44591.89
622.10	44296.98
622.25	44027.82
622.41	43555.03
622.56	44369.54
622.71	44437.41
622.86	44516.99
623.01	44081.65
623.16	43910.79
623.32	44013.77
623.47	43976.33
623.62	43744.61
623.77	43798.44
623.92	44378.90
624.07	43826.53
624.23	43789.08
624.38	43377.15
624.53	43550.35
624.68	43559.71
624.83	43438.00
624.98	43358.42
625.13	43260.12
625.29	43763.34
625.44	43395.87
625.59	43098.62
625.74	43299.91
625.89	43353.74
626.04	43613.54
626.19	43536.30
626.34	43704.82
626.49	43555.03
626.65	43646.31
626.80	43761.00
626.95	43482.47
627.10	43201.61
627.25	43157.14
627.40	43037.77
627.55	42944.15
627.70	42609.45
627.85	42768.61
628.00	42876.27
628.15	42827.12
628.30	42693.71
628.45	43035.43
628.60	43030.75
628.76	42958.19
628.91	43168.84
629.06	42658.60
629.21	42705.41
629.36	42707.76
629.51	42707.76
629.66	42497.11
629.81	42466.68
629.96	42539.24
630.11	42653.92
630.26	42948.83
630.41	42820.10
630.56	41944.74
630.71	42309.86
630.86	42319.23
631.01	42239.65
631.16	42410.51
631.31	42541.58
631.46	42054.75
631.61	42375.40
631.76	42630.52
631.91	42548.60
632.06	42569.66
632.21	42513.49
632.36	42417.53
632.51	42178.79
632.66	41914.31
632.81	41736.43
632.96	42012.62
633.10	42036.02
633.25	42000.91
633.40	42036.02
633.55	42593.07
633.70	41816.01
633.85	41610.04
634.00	41982.19
634.15	42146.03
634.30	41993.89
634.45	42066.45
634.60	41848.78
634.75	42209.22
634.90	41673.24
635.05	41806.65
635.19	41186.41
635.34	42263.05
635.49	41731.75
635.64	41528.13
635.79	42014.96
635.94	41467.27
636.09	41034.27
636.24	41532.81
636.39	41265.99
636.53	41670.90
636.68	41041.29
636.83	41193.43
636.98	41530.47
637.13	41553.87
637.28	41368.97
637.43	41963.46
637.57	41649.83
637.72	41383.01
637.87	41460.25
638.02	41191.09
638.17	41193.43
638.32	41663.88
638.46	41394.71
638.61	41045.97
638.76	41198.11
638.91	40718.30
639.06	41399.40
639.20	41130.23
639.35	41530.47
639.50	41170.02
639.65	41214.49
639.80	41020.23
639.94	40959.38
640.09	41249.60
640.24	40722.98
640.39	40257.21
640.54	40451.48
640.68	41064.70
640.83	40982.78
640.98	40732.34
641.13	40692.55
641.27	40865.75
641.42	40481.91
641.57	40718.30
641.72	40339.13
641.86	40332.11
642.01	40098.06
642.16	40320.41
642.31	40119.12
642.45	40521.69
642.60	40339.13
642.75	40301.68
642.90	40163.59
643.04	39929.54
643.19	40325.09
643.34	40343.81
643.48	40098.06
643.63	40175.30
643.78	39431.01
643.93	40320.41
644.07	40116.78
644.22	39985.71
644.37	40004.44
644.51	39971.67
644.66	40072.31
644.81	40201.04
644.95	40175.30
645.10	40245.51
645.25	40299.34
645.39	40306.37
645.54	40126.14
645.69	39938.90
645.83	39929.54
645.98	40362.54
646.13	39873.37
646.27	39674.42
646.42	39445.05
646.57	39796.13
646.71	39529.31
646.86	40182.32
647.00	40009.12
647.15	39693.15
647.30	39707.19
647.44	39538.67
647.59	39618.25
647.74	38981.62
647.88	39180.57
648.03	39620.59
648.17	39426.32
648.32	39335.04
648.47	39367.81
648.61	39229.72
648.76	39620.59
648.90	39126.74
649.05	39393.56
649.20	39241.42
649.34	39136.10
649.49	38621.18
649.63	38955.88
649.78	39344.41
649.92	38895.02
650.07	39274.19
650.21	38733.53
650.36	39185.25
650.51	39140.78
650.65	39129.08
650.80	39157.16
650.94	39718.89
651.09	39274.19
651.23	39168.87
651.38	39152.48
651.52	39225.04
651.67	38440.96
651.81	38660.97
651.96	38609.48
652.10	38902.04
652.25	38387.13
652.39	38864.60
652.54	39037.80
652.68	38953.54
652.83	38902.04
652.97	38986.30
653.12	38483.09
653.26	38242.01
653.41	38546.28
653.55	38300.53
653.70	38546.28
653.84	38904.38
653.99	38256.06
654.13	38136.69
654.27	38312.23
654.42	37991.58
654.56	37944.76
654.71	38057.11
654.85	38567.35
655.00	38323.93
655.14	37956.47
655.29	37897.95
655.43	38007.96
655.57	37879.23
655.72	37600.71
655.86	37088.13
656.01	37141.96
656.15	37523.47
656.30	37165.37
656.44	37755.18
656.58	37525.81
656.73	37919.02
656.87	37373.67
657.01	37560.92
657.16	37652.20
657.30	37546.87
657.45	37361.97
657.59	37422.83
657.73	37266.01
657.88	37694.33
658.02	37998.60
658.16	38185.84
658.31	38150.73
658.45	37357.29
658.60	37596.03
658.74	37113.87
658.88	37659.22
659.03	37170.05
659.17	37413.46
659.31	37167.71
659.46	37123.24
659.60	36844.71
659.74	37144.30
659.89	37071.75
660.03	36811.95
660.17	37184.09
660.32	37031.96
660.46	36720.66
660.60	36966.42
660.74	37022.59
660.89	36730.03
661.03	36385.97
661.17	36699.60
661.32	36245.54
661.46	36690.24
661.60	36966.42
661.74	36669.17
661.89	36788.54
662.03	36243.20
662.17	36037.23
662.31	35936.59
662.46	36875.14
662.60	36210.43
662.74	36451.50
662.88	35955.31
663.03	35716.58
663.17	35943.61
663.31	35548.06
663.45	36058.29
663.60	36156.60
663.74	35601.89
663.88	35943.61
664.02	35644.02
664.17	35962.33
664.31	35674.45
664.45	35805.52
664.59	35442.73
664.73	35529.33
664.88	35651.04
665.02	35187.61
665.16	35175.91
665.30	35196.98
665.44	35220.38
665.59	34866.96
665.73	35166.55
665.87	34885.68
666.01	35075.27
666.15	35255.49
666.29	34895.05
666.44	35033.14
666.58	34820.15
666.72	34710.14
666.86	34955.90
667.00	34569.71
667.14	34675.04
667.28	34464.39
667.43	34106.29
667.57	34338.00
667.71	34553.33
667.85	34574.39
667.99	34197.57
668.13	34244.38
668.27	34314.59
668.41	34471.41
668.56	33883.94
668.70	33916.70
668.84	33769.25
668.98	33724.78
669.12	33853.51
669.26	33717.76
669.40	33291.78
669.54	33525.83
669.68	33441.57
669.82	33287.10
669.96	33525.83
670.10	33132.62
670.25	33528.17
670.39	33113.90
670.53	33160.71
670.67	33036.66
670.81	33256.67
670.95	33230.93
671.09	32779.20
671.23	32622.39
671.37	33036.66
671.51	32954.74
671.65	32849.42
671.79	32891.55
671.93	32460.89
672.07	32723.03
672.21	32631.75
672.35	32744.09
672.49	32439.82
672.63	32968.79
672.77	32371.95
672.91	32446.85
673.05	32385.99
673.19	32299.39
673.33	32133.21
673.47	32053.64
673.61	31454.46
673.75	31510.63
673.89	31529.36
674.03	31267.22
674.17	31585.53
674.31	31393.61
674.45	31477.86
674.59	31543.40
674.73	31658.09
674.87	31250.83
675.01	31197.00
675.15	31349.14
675.29	31175.94
675.43	31227.43
675.56	30911.46
675.70	31126.78
675.84	30398.88
675.98	30015.03
676.12	30654.00
676.26	30532.29
676.40	30405.90
676.54	30855.28
676.68	30555.69
676.82	30122.69
676.96	30429.30
677.10	30206.95
677.23	30005.67
677.37	29710.76
677.51	29509.47
677.65	29607.78
677.79	29252.02
677.93	29235.63
678.07	29200.52
678.21	28954.77
678.34	28498.36
678.48	28203.46
678.62	28765.18
678.76	28833.06
678.90	28266.65
679.04	28261.97
679.18	28603.69
679.31	28348.57
679.45	28400.06
679.59	27950.68
679.73	28201.11
679.87	27878.12
680.00	28156.64
680.14	27871.10
680.28	28016.21
680.42	28006.85
680.56	27915.57
680.70	27943.66
680.83	27751.73
680.97	27391.29
681.11	27854.72
681.25	27686.20
681.39	27349.16
681.52	27475.55
681.66	27131.49
681.80	27012.12
681.94	26796.79
682.07	26962.97
682.21	26787.43
682.35	26677.43
682.49	26920.84
682.62	26625.93
682.76	26471.46
682.90	26815.52
683.04	26394.22
683.17	26113.36
683.31	25991.65
683.45	25951.86
683.59	26237.41
683.72	25811.43
683.86	25638.23
684.00	25755.26
684.13	25912.07
684.27	25404.17
684.41	25160.76
684.55	25277.79
684.68	25277.79
684.82	25411.20
684.96	25235.66
685.09	25015.65
685.23	24807.34
685.37	24854.15
685.50	24561.58
685.64	24652.86
685.78	24116.88
685.91	24577.97
686.05	24304.12
686.19	24009.22
686.32	24163.69
686.46	23852.40
686.60	23730.69
686.73	23435.78
686.87	23807.93
687.01	23178.33
687.14	23082.36
687.28	22955.97
687.42	23262.58
687.55	23608.98
687.69	23356.21
687.82	23000.44
687.96	23054.28
688.10	22937.25
688.23	23082.36
688.37	22558.08
688.50	22473.82
688.64	22867.03
688.78	22471.48
688.91	22349.78
689.05	22326.37
689.18	22511.27
689.32	21907.41
689.46	22155.51
689.59	22293.60
689.73	22040.82
689.86	22354.46
690.00	21832.52
690.13	22190.62
690.27	21724.85
690.41	21539.95
690.54	21532.93
690.68	21507.18
690.81	21247.38
690.95	21397.18
691.08	21106.95
691.22	21511.86
691.35	21383.13
691.49	21186.53
691.62	21102.27
691.76	20926.73
691.89	21046.10
692.03	20798.00
692.16	20690.34
692.30	20477.35
692.43	20507.77
692.57	20407.13
692.70	20308.83
692.84	20266.70
692.97	19913.28
693.11	19929.66
693.24	20025.62
693.38	19763.48
693.51	19630.07
693.65	19915.62
693.78	19988.18
693.92	19660.50
694.05	19676.88
694.19	19545.81
694.32	19328.14
694.45	19089.41
694.59	19171.33
694.72	18815.57
694.86	19082.39
694.99	19073.03
695.13	19058.98
695.26	18918.55
695.39	18429.38
695.53	19061.32
695.66	18827.27
695.80	18813.23
695.93	18647.05
696.07	18682.16
696.20	18586.19
696.33	18225.75
696.47	18265.54
696.60	18059.57
696.73	17905.10
696.87	17727.22
697.00	18022.12
697.14	18066.60
697.27	17816.16
697.40	17720.20
697.54	17722.54
697.67	17448.69
697.80	17371.46
697.94	17528.27
698.07	17231.02
698.21	17418.27
698.34	17209.96
698.47	16793.34
698.61	16849.52
698.74	16737.17
698.87	16608.44
699.01	16470.35
699.14	16702.06
699.27	16603.76
699.40	16676.32
699.54	16409.50
699.67	16187.14
699.80	16294.81
699.94	16152.04
700.07	16233.96
700.20	16098.20
700.34	16002.24
700.47	15995.22
700.60	16353.32
700.73	16152.04
700.87	15800.96
701.00	15602.01
701.13	15761.17
701.26	15503.71
701.40	15520.09
701.53	15669.89
701.66	15084.75
701.79	15482.64
701.93	15356.25
702.06	15021.56
702.19	14883.47
702.32	14970.07
702.46	14899.85
702.59	15056.67
702.72	14855.38
702.85	15000.49
702.99	14616.65
703.12	14539.41
703.25	14494.94
703.38	14333.44
703.51	14487.92
703.65	14429.40
703.78	14494.94
703.91	14113.43
704.04	14270.25
704.17	14108.75
704.31	13930.87
704.44	13928.53
704.57	13930.87
704.70	14015.13
704.83	13710.86
704.96	13989.38
705.10	13980.02
705.23	13673.41
>>>>>End Processed Spectral Data<<<<<
