SpectraSuite Data File
++++++++++++++++++++++++++++++++++++
Date: Fri Oct 25 10:44:52 EDT 2013
User: price-jones
Dark Spectrum Present: No
Reference Spectrum Present: No
Number of Sampled Component Spectra: 1
Spectrometers: USB2+H05261
Integration Time (usec): 100000 (USB2+H05261)
Spectra Averaged: 1 (USB2+H05261)
Boxcar Smoothing: 0 (USB2+H05261)
Correct for Electrical Dark: No (USB2+H05261)
Strobe/Lamp Enabled: No (USB2+H05261)
Correct for Detector Non-linearity: No (USB2+H05261)
Correct for Stray Light: No (USB2+H05261)
Number of Pixels in Processed Spectrum: 2048
>>>>>Begin Processed Spectral Data<<<<<
365.73	88.94
365.92	88.94
366.12	88.94
366.32	84.26
366.52	0.00
366.72	74.90
366.91	28.09
367.11	0.00
367.31	60.85
367.51	28.09
367.70	60.85
367.90	107.66
368.10	0.00
368.30	114.69
368.49	56.17
368.69	72.56
368.89	32.77
369.09	74.90
369.28	44.47
369.48	42.13
369.68	49.15
369.87	114.69
370.07	95.96
370.27	51.49
370.47	229.37
370.66	379.17
370.86	409.59
371.06	358.10
371.25	442.36
371.45	421.30
371.65	451.72
371.84	393.21
372.04	358.10
372.24	428.32
372.44	482.15
372.63	428.32
372.83	491.51
373.03	517.26
373.22	498.53
373.42	477.47
373.62	449.38
373.81	472.79
374.01	519.60
374.21	496.19
374.40	578.11
374.60	519.60
374.79	575.77
374.99	526.62
375.19	557.05
375.38	615.56
375.58	578.11
375.78	608.54
375.97	503.22
376.17	615.56
376.37	528.96
376.56	505.56
376.76	566.41
376.95	695.14
377.15	571.09
377.35	568.75
377.54	561.73
377.74	650.67
377.93	578.11
378.13	697.48
378.33	606.20
378.52	636.63
378.72	627.26
378.91	681.10
379.11	613.22
379.31	603.86
379.50	617.90
379.70	690.46
379.89	531.30
380.09	660.03
380.28	573.43
380.48	655.35
380.68	622.58
380.87	636.63
381.07	634.29
381.26	704.50
381.46	702.16
381.65	592.16
381.85	645.99
382.04	648.33
382.24	725.57
382.43	660.03
382.63	568.75
382.83	587.47
383.02	777.06
383.22	751.31
383.41	685.78
383.61	678.76
383.80	674.07
384.00	791.10
384.19	755.99
384.39	784.08
384.58	777.06
384.78	779.40
384.97	690.46
385.17	657.69
385.36	702.16
385.56	791.10
385.75	758.33
385.95	770.04
386.14	755.99
386.34	814.51
386.53	741.95
386.72	737.27
386.92	699.82
387.11	748.97
387.31	837.91
387.50	781.74
387.70	870.68
387.89	851.96
388.09	779.40
388.28	781.74
388.48	814.51
388.67	868.34
388.86	779.40
389.06	779.40
389.25	954.94
389.45	861.32
389.64	863.66
389.84	1036.86
390.03	952.60
390.22	976.00
390.42	922.17
390.61	985.37
390.81	908.13
391.00	983.02
391.19	971.32
391.39	915.15
391.58	1064.94
391.78	978.34
391.97	985.37
392.16	980.68
392.36	1008.77
392.55	926.85
392.75	936.21
392.94	936.21
393.13	926.85
393.33	858.98
393.52	961.96
393.71	1121.12
393.91	985.37
394.10	999.41
394.29	1097.71
394.49	1107.07
394.68	1057.92
394.88	1128.14
395.07	1135.16
395.26	1128.14
395.46	1107.07
395.65	1121.12
395.84	1130.48
396.04	1188.99
396.23	1071.97
396.42	1074.31
396.62	1132.82
396.81	1114.10
397.00	1102.39
397.19	1165.59
397.39	1200.69
397.58	1219.42
397.77	1233.46
397.97	1289.64
398.16	1313.04
398.35	1280.27
398.55	1343.47
398.74	1338.79
398.93	1364.53
399.12	1338.79
399.32	1352.83
399.51	1376.24
399.70	1462.83
399.90	1430.07
400.09	1341.13
400.28	1446.45
400.47	1441.77
400.67	1451.13
400.86	1336.45
401.05	1446.45
401.24	1516.67
401.44	1516.67
401.63	1444.11
401.82	1481.56
402.01	1413.68
402.21	1577.52
402.40	1551.78
402.59	1528.37
402.78	1493.26
402.97	1586.88
403.17	1629.01
403.36	1598.59
403.55	1610.29
403.74	1645.40
403.93	1748.38
404.13	1682.85
404.32	1654.76
404.51	1664.12
404.70	1776.47
404.89	1727.32
405.09	1856.04
405.28	1692.21
405.47	1727.32
405.66	1701.57
405.85	1729.66
406.05	1753.06
406.24	1799.87
406.43	1879.45
406.62	1748.38
406.81	1909.88
407.00	1762.42
407.20	1748.38
407.39	1715.61
407.58	1956.69
407.77	1884.13
407.96	1956.69
408.15	1982.43
408.34	1891.15
408.54	2064.35
408.73	2069.03
408.92	2050.31
409.11	2104.14
409.30	2193.08
409.49	2129.89
409.68	2162.66
409.87	2087.76
410.07	2106.48
410.26	2073.71
410.45	2115.84
410.64	2183.72
410.83	2249.25
411.02	2277.34
411.21	2363.94
411.40	2246.91
411.59	2214.15
411.78	2331.17
411.98	2251.60
412.17	2345.22
412.36	2387.35
412.55	2424.80
412.74	2431.82
412.93	2387.35
413.12	2328.83
413.31	2558.21
413.50	2572.25
413.69	2436.50
413.88	2696.30
414.07	2705.66
414.26	2614.38
414.45	2637.78
414.64	2637.78
414.83	2630.76
415.02	2675.23
415.22	2654.17
415.41	2822.69
415.60	2588.63
415.79	2818.00
415.98	2988.86
416.17	2918.65
416.36	2789.92
416.55	2928.01
416.74	2925.67
416.93	2757.15
417.12	2932.69
417.31	3012.27
417.50	3012.27
417.69	3026.31
417.88	2995.89
418.07	3098.87
418.26	3136.32
418.45	2984.18
418.64	3164.40
418.83	3290.79
419.02	3304.84
419.21	3260.37
419.39	3248.66
419.58	3131.64
419.77	3220.58
419.96	3241.64
420.15	3304.84
420.34	3232.28
420.53	3330.58
420.72	3393.78
420.91	3384.41
421.10	3346.97
421.29	3489.74
421.48	3456.97
421.67	3445.27
421.86	3463.99
422.05	3412.50
422.24	3466.33
422.43	3403.14
422.61	3442.93
422.80	3417.18
422.99	3492.08
423.18	3543.57
423.37	3555.27
423.56	3597.40
423.75	3637.19
423.94	3459.31
424.13	3318.88
424.32	3543.57
424.50	3756.56
424.69	3506.12
424.88	3676.98
425.07	3667.62
425.26	3433.57
425.45	3599.74
425.64	3562.30
425.83	3669.96
426.01	3702.73
426.20	3576.34
426.39	3742.52
426.58	3550.59
426.77	3644.21
426.96	3597.40
427.15	3705.07
427.33	3712.09
427.52	3684.00
427.71	3695.71
427.90	3648.90
428.09	3740.18
428.28	3857.20
428.46	3779.97
428.65	3824.44
428.84	3896.99
429.03	3901.67
429.22	3733.15
429.40	3857.20
429.59	3822.09
429.78	3693.37
429.97	3606.77
430.16	3735.50
430.34	3674.64
430.53	3812.73
430.72	4011.68
430.91	3967.21
431.10	3887.63
431.28	4095.94
431.47	4163.81
431.66	4194.24
431.85	4227.01
432.03	4009.34
432.22	4163.81
432.41	4124.02
432.60	4219.99
432.79	4346.37
432.97	4227.01
433.16	4346.37
433.35	4229.35
433.54	4290.20
433.72	4381.48
433.91	4269.14
434.10	4325.31
434.28	4245.73
434.47	4437.66
434.66	4533.62
434.85	4362.76
435.03	4491.49
435.22	4416.59
435.41	4748.95
435.59	4397.87
435.78	4716.18
435.97	4655.33
436.16	4472.76
436.34	4608.51
436.53	4744.27
436.72	4734.90
436.90	4652.98
437.09	4681.07
437.28	4732.56
437.46	4851.93
437.65	4671.71
437.84	4805.12
438.02	4800.44
438.21	4582.77
438.40	4695.11
438.58	4873.00
438.77	4940.87
438.96	4791.08
439.14	5004.07
439.33	5029.81
439.52	5057.90
439.70	4959.60
439.89	5043.85
440.08	5350.46
440.26	5371.53
440.45	5284.93
440.63	5296.63
440.82	5423.02
441.01	5465.15
441.19	5298.97
441.38	5600.90
441.57	5600.90
441.75	5582.18
441.94	5666.44
442.12	5699.20
442.31	5727.29
442.50	5706.23
442.68	5715.59
442.87	5790.49
443.05	5760.06
443.24	5748.36
443.43	5813.89
443.61	5837.30
443.80	5912.19
443.98	5652.39
444.17	5727.29
444.35	5783.46
444.54	5879.43
444.73	5827.93
444.91	5809.21
445.10	5959.00
445.28	5940.28
445.47	5778.78
445.65	5790.49
445.84	5888.79
446.02	5937.94
446.21	5905.17
446.39	5933.26
446.58	5921.56
446.77	6183.70
446.95	6174.33
447.14	5898.15
447.32	5905.17
447.51	6139.23
447.69	5984.75
447.88	6099.44
448.06	5994.11
448.25	6005.81
448.43	6150.93
448.62	6101.78
448.80	6059.65
448.99	6417.75
449.17	6150.93
449.36	6265.61
449.54	6225.82
449.73	6490.31
449.91	6373.28
450.10	6356.90
450.28	6436.47
450.46	6342.85
450.65	6487.96
450.83	6497.33
451.02	6424.77
451.20	6523.07
451.39	6576.91
451.57	6431.79
451.76	6483.28
451.94	6466.90
452.13	6310.08
452.31	6602.65
452.49	6499.67
452.68	6504.35
452.86	6389.66
453.05	6572.22
453.23	6757.13
453.42	6541.80
453.60	6628.40
453.78	6572.22
453.97	6555.84
454.15	6691.59
454.34	6626.06
454.52	6640.10
454.70	6867.13
454.89	6679.89
455.07	6672.87
455.26	6874.15
455.44	7002.88
455.62	6895.22
455.81	7080.12
455.99	7026.29
456.17	6986.50
456.36	7159.70
456.54	7194.81
456.73	7194.81
456.91	7208.85
457.09	7117.57
457.28	7501.42
457.46	7227.57
457.64	7302.47
457.83	7382.05
458.01	7335.24
458.19	7431.20
458.38	7377.37
458.56	7531.84
458.74	7403.11
458.93	7466.31
459.11	7375.03
459.29	7485.03
459.48	7529.50
459.66	7478.01
459.84	7644.19
460.03	7772.92
460.21	7658.23
460.39	7801.01
460.57	7662.91
460.76	7662.91
460.94	7840.79
461.12	7719.09
461.31	7903.99
461.49	7735.47
461.67	7793.98
461.85	7983.57
462.04	7962.50
462.22	7981.23
462.40	8102.93
462.59	8149.75
462.77	8037.40
462.95	8063.15
463.13	8098.25
463.32	8128.68
463.50	8053.78
463.68	8322.94
463.86	8215.28
464.05	8149.75
464.23	8126.34
464.41	8329.97
464.59	8191.88
464.78	8231.66
464.96	8339.33
465.14	8196.56
465.32	8311.24
465.50	8383.80
465.69	8528.91
465.87	8414.23
466.05	8334.65
466.23	8400.18
466.41	8451.67
466.60	8454.02
466.78	8243.37
466.96	8564.02
467.14	8517.21
467.32	8484.44
467.51	8557.00
467.69	8615.51
467.87	8578.06
468.05	8652.96
468.23	8582.74
468.41	8500.83
468.60	8718.50
468.78	8908.08
468.96	8730.20
469.14	8943.19
469.32	8809.78
469.50	8800.41
469.69	8987.66
469.87	9144.47
470.05	9001.70
470.23	8879.99
470.41	9139.79
470.59	9170.22
470.77	8936.17
470.95	9249.80
471.14	9369.16
471.32	8980.64
471.50	9514.28
471.68	9289.59
471.86	9256.82
472.04	9383.21
472.22	9474.49
472.40	9415.98
472.58	9514.28
472.77	9453.42
472.95	9561.09
473.13	10022.17
473.31	9586.83
473.49	9312.99
473.67	9956.64
473.85	9565.77
474.03	10012.81
474.21	9874.72
474.39	10066.64
474.57	9872.38
474.75	10094.73
474.93	10099.41
475.12	10012.81
475.30	10333.47
475.48	10015.15
475.66	10389.64
475.84	10370.91
476.02	10527.73
476.20	10310.06
476.38	10724.33
476.56	10785.19
476.74	10869.45
476.92	10628.37
477.10	10567.52
477.28	11098.82
477.46	11049.67
477.64	11187.76
477.82	11311.81
478.00	11597.35
478.18	11435.86
478.36	11566.93
478.54	11489.69
478.72	11529.48
478.90	11955.46
479.08	11822.05
479.26	11894.60
479.44	12112.27
479.62	12011.63
479.80	12077.16
479.98	12269.09
480.16	12615.49
480.34	12449.31
480.52	12662.30
480.70	12491.44
480.88	12290.15
481.06	12723.15
481.24	12601.44
481.41	12725.49
481.59	12957.21
481.77	12961.89
481.95	13060.19
482.13	13209.98
482.31	13385.52
482.49	13757.67
482.67	13813.84
482.85	13558.72
483.03	13657.03
483.21	13923.85
483.39	14136.84
483.57	14120.45
483.74	14307.69
483.92	14237.48
484.10	14218.75
484.28	14988.79
484.46	14743.03
484.64	14941.98
484.82	14422.38
485.00	14998.15
485.18	15157.31
485.35	15138.58
485.53	14984.11
485.71	15080.07
485.89	15529.45
486.07	15527.11
486.25	15566.90
486.43	15513.07
486.61	15648.82
486.78	15758.83
486.96	16294.81
487.14	16453.97
487.32	16128.63
487.50	16383.75
487.68	16753.55
487.85	16716.11
488.03	16856.54
488.21	17322.30
488.39	17067.19
488.57	17350.39
488.75	17322.30
488.92	17474.44
489.10	18111.07
489.28	17888.71
489.46	18045.53
489.64	17900.42
489.81	18478.53
489.99	18684.50
490.17	18565.13
490.35	18801.52
490.53	18775.78
490.70	18995.79
490.88	18974.72
491.06	19335.17
491.24	18764.07
491.41	19138.56
491.59	19309.42
491.77	19168.99
491.95	19529.43
492.13	19866.47
492.30	19777.53
492.48	19922.64
492.66	20170.74
492.84	20112.22
493.01	20386.07
493.19	20266.70
493.37	20507.77
493.54	20577.99
493.72	20870.56
493.90	20648.21
494.08	21048.44
494.25	21172.49
494.43	21362.07
494.61	21748.26
494.79	21518.89
494.96	21488.46
495.14	21617.19
495.32	21781.03
495.49	21785.71
495.67	21640.59
495.85	22085.30
496.02	22551.06
496.20	22515.95
496.38	22824.90
496.55	22782.77
496.73	23218.11
496.91	22567.45
497.09	23164.28
497.26	23201.73
497.44	23164.28
497.62	23080.02
497.79	23468.55
497.97	23438.12
498.14	23405.36
498.32	23716.65
498.50	23733.03
498.67	23941.34
498.85	23955.38
499.03	24154.33
499.20	24247.95
499.38	24301.78
499.56	24851.81
499.73	24758.19
499.91	24779.25
500.08	24709.04
500.26	24395.40
500.44	24587.33
500.61	24945.43
500.79	24884.58
500.97	25060.12
501.14	25713.13
501.32	25216.93
501.49	25064.80
501.67	25116.29
501.84	25191.19
502.02	25649.93
502.20	25748.23
502.37	25628.87
502.55	25963.56
502.72	25975.27
502.90	25841.85
503.07	26160.17
503.25	26106.34
503.43	26375.50
503.60	26265.49
503.78	26614.23
503.95	26167.19
504.13	26588.49
504.30	26434.01
504.48	26665.72
504.65	26962.97
504.83	26899.78
505.01	26930.20
505.18	27110.43
505.36	27466.19
505.53	27433.42
505.71	27941.32
505.88	27103.40
506.06	27133.83
506.23	27587.89
506.41	27449.80
506.58	27906.21
506.76	27611.30
506.93	27990.47
507.11	27840.67
507.28	27936.63
507.46	27791.52
507.63	27896.85
507.81	27768.12
507.98	28327.50
508.16	28353.25
508.33	28048.98
508.50	28685.61
508.68	28694.97
508.85	28893.91
509.03	29078.82
509.20	29230.95
509.38	28912.64
509.55	29015.62
509.73	29209.89
509.90	29078.82
510.08	29193.50
510.25	29163.08
510.42	29490.75
510.60	29516.50
510.77	29570.33
510.95	29792.68
511.12	29706.08
511.30	29795.02
511.47	30305.26
511.64	30405.90
511.82	30293.55
511.99	30253.76
512.17	30607.19
512.34	30125.04
512.51	30576.76
512.69	30721.87
512.86	30553.35
513.04	31199.34
513.21	30787.41
513.38	30789.75
513.56	30944.22
513.73	30394.20
513.90	31108.06
514.08	31164.23
514.25	31040.18
514.43	31129.12
514.60	30675.06
514.77	31007.42
514.95	31468.50
515.12	31690.85
515.29	31342.11
515.47	31761.07
515.64	31707.24
515.81	31835.97
515.99	31358.50
516.16	31962.36
516.33	31566.81
516.51	32149.60
516.68	31718.94
516.85	31796.18
517.03	31777.45
517.20	32126.19
517.37	32252.58
517.54	32353.23
517.72	32575.58
517.89	32142.58
518.06	32210.45
518.24	32465.57
518.41	32435.14
518.58	32332.16
518.75	32421.10
518.93	32893.89
519.10	33057.73
519.27	33331.57
519.45	32716.01
519.62	33443.91
519.79	33109.22
519.96	33256.67
520.14	33455.62
520.31	33109.22
520.48	33312.84
520.65	33476.68
520.83	34082.88
521.00	33846.49
521.17	34101.61
521.34	33748.18
521.52	33944.79
521.69	33984.58
521.86	34157.78
522.03	34017.35
522.20	34288.85
522.38	34333.32
522.55	34347.36
522.72	34356.72
522.89	34302.89
523.07	34506.52
523.24	34099.26
523.41	34368.43
523.58	34693.76
523.75	35173.57
523.92	34623.54
524.10	34885.68
524.27	35068.25
524.44	34775.68
524.61	35253.15
524.78	35330.39
524.96	35566.78
525.13	35316.34
525.30	35290.60
525.47	36133.19
525.64	35379.54
525.81	35871.05
525.98	35803.17
526.16	35515.29
526.33	35489.54
526.50	35847.64
526.67	35243.79
526.84	35618.27
527.01	35405.28
527.18	35672.10
527.36	35445.07
527.53	36226.81
527.70	36697.26
527.87	36458.52
528.04	36474.91
528.21	36163.62
528.38	36570.87
528.55	36725.35
528.72	36847.05
528.89	36568.53
529.07	36641.09
529.24	36390.65
529.41	36767.48
529.58	36715.98
529.75	36685.56
529.92	36943.02
530.09	36842.37
530.26	37017.91
530.43	36877.48
530.60	36905.57
530.77	36811.95
530.94	37132.60
531.11	37303.46
531.28	37333.89
531.46	37350.27
531.63	37642.84
531.80	36989.83
531.97	37139.62
532.14	37488.36
532.31	37156.00
532.48	37102.17
532.65	37605.39
532.82	37645.18
532.99	37879.23
533.16	37408.78
533.33	37895.61
533.50	37745.82
533.67	37558.58
533.84	37581.98
534.01	37745.82
534.18	37839.44
534.35	37876.89
534.52	38103.92
534.69	37923.70
534.86	38286.48
535.03	38295.85
535.20	38485.43
535.37	38703.10
535.54	38651.61
535.71	38391.81
535.88	38206.90
536.05	38759.27
536.22	38506.49
536.38	38515.86
536.55	38572.03
536.72	38939.49
536.89	38419.89
537.06	38307.55
537.23	38778.00
537.40	38880.98
537.57	38759.27
537.74	38672.67
537.91	39363.13
538.08	39117.37
538.25	38866.94
538.42	38789.70
538.59	39306.96
538.75	39210.99
538.92	39070.56
539.09	39192.27
539.26	39321.00
539.43	39688.46
539.60	39196.95
539.77	39494.20
539.94	39580.80
540.11	39288.23
540.28	39505.90
540.44	39517.60
540.61	39438.03
540.78	39770.38
540.95	39604.20
541.12	39688.46
541.29	39438.03
541.46	39580.80
541.62	39667.40
541.79	40079.33
541.96	39709.53
542.13	39763.36
542.30	40018.48
542.47	39882.73
542.63	40093.38
542.80	40528.72
542.97	40519.35
543.14	40622.34
543.31	40570.85
543.48	40484.25
543.64	40910.22
543.81	40648.08
543.98	41006.19
544.15	40687.87
544.32	41223.86
544.48	41099.81
544.65	41029.59
544.82	41193.43
544.99	40996.82
545.16	41111.51
545.32	41045.97
545.49	41380.67
545.66	41469.61
545.83	41177.04
546.00	41397.06
546.16	41170.02
546.33	40823.62
546.50	41118.53
546.67	41038.95
546.83	40484.25
547.00	41205.13
547.17	41057.68
547.34	41315.14
547.50	41134.92
547.67	41317.48
547.84	41549.19
548.00	41455.57
548.17	41710.69
548.34	42099.22
548.51	41673.24
548.67	42043.04
548.84	42134.32
549.01	41724.73
549.18	41673.24
549.34	41617.07
549.51	41954.10
549.68	42146.03
549.84	41846.44
550.01	42230.29
550.18	41811.33
550.34	42244.33
550.51	42244.33
550.68	41844.10
550.84	41663.88
551.01	42319.23
551.18	41949.42
551.34	42171.77
551.51	42241.99
551.68	42148.37
551.84	42164.75
552.01	42204.54
552.18	42054.75
552.34	42286.46
552.51	42490.09
552.68	42295.82
552.84	42731.16
553.01	42426.89
553.18	42728.82
553.34	42628.18
553.51	42197.52
553.67	42689.03
553.84	42801.38
554.01	42696.05
554.17	42756.91
554.34	42529.87
554.51	42974.58
554.67	42946.49
554.84	42969.90
555.00	42759.25
555.17	42944.15
555.33	42766.27
555.50	42518.17
555.67	42501.79
555.83	42756.91
556.00	42955.85
556.16	43391.19
556.33	43213.31
556.50	42852.87
556.66	43173.52
556.83	43005.00
556.99	43299.91
557.16	43337.36
557.32	43529.28
557.49	43508.22
557.65	43138.41
557.82	43196.93
557.98	43033.09
558.15	43475.45
558.32	43281.19
558.48	43192.25
558.65	43000.32
558.81	43110.33
558.98	43028.41
559.14	43213.31
559.31	43143.09
559.47	43566.73
559.64	43395.87
559.80	43723.55
559.97	43889.73
560.13	43129.05
560.30	43555.03
560.46	43873.34
560.63	43335.02
560.79	43840.57
560.96	43992.71
561.12	43604.18
561.29	43704.82
561.45	43618.22
561.61	43592.48
561.78	44245.49
561.94	43929.51
562.11	43856.96
562.27	43477.79
562.44	43643.97
562.60	44133.14
562.77	43576.09
562.93	43665.03
563.10	43533.96
563.26	43447.36
563.42	43674.40
563.59	43449.70
563.75	43728.23
563.92	44046.54
564.08	43978.67
564.24	44135.48
564.41	43611.20
564.57	44004.41
564.74	43697.80
564.90	43978.67
565.07	43988.03
565.23	44470.18
565.39	43915.47
565.56	44184.63
565.72	43807.81
565.88	44046.54
566.05	43927.17
566.21	43913.13
566.38	44119.10
566.54	44027.82
566.70	44151.87
566.87	44491.24
567.03	43856.96
567.19	44526.35
567.36	44334.43
567.52	43889.73
567.68	44311.02
567.85	44107.40
568.01	44053.56
568.17	43934.20
568.34	44334.43
568.50	44210.38
568.66	43648.65
568.83	44444.43
568.99	44004.41
569.15	43632.27
569.32	43812.49
569.48	44095.69
569.64	44032.50
569.81	44325.07
569.97	44151.87
570.13	44362.51
570.30	43793.76
570.46	43819.51
570.62	43683.76
570.78	43945.90
570.95	44676.15
571.11	44488.90
571.27	44154.21
571.43	43997.39
571.60	43971.64
571.76	44137.82
571.92	44463.16
572.09	44177.61
572.25	44741.68
572.41	44238.47
572.57	44493.58
572.74	44760.40
572.90	44488.90
573.06	44601.25
573.22	44205.70
573.38	44605.93
573.55	44355.49
573.71	44378.90
573.87	44231.44
574.03	44083.99
574.20	44406.98
574.36	44563.80
574.52	44552.10
574.68	44332.09
574.84	44409.32
575.01	44605.93
575.17	44706.57
575.33	44449.11
575.49	44500.61
575.65	44414.01
575.82	44673.81
575.98	44360.17
576.14	44877.43
576.30	44531.03
576.46	44243.15
576.62	44378.90
576.79	44748.70
576.95	44201.02
577.11	44566.14
577.27	44339.11
577.43	44439.75
577.59	44044.20
577.75	44437.41
577.92	43922.49
578.08	44151.87
578.24	44467.84
578.40	44048.88
578.56	44374.22
578.72	44545.08
578.88	44552.10
579.04	44753.38
579.21	44451.45
579.37	44683.17
579.53	44582.52
579.69	44275.91
579.85	44587.21
580.01	44446.77
580.17	44715.93
580.33	44818.92
580.49	44629.34
580.65	44406.98
580.82	44346.13
580.98	44065.27
581.14	44313.36
581.30	44521.67
581.46	44809.56
581.62	44758.06
581.78	44306.34
581.94	45219.15
582.10	44577.84
582.26	44849.35
582.42	44594.23
582.58	44849.35
582.74	44411.67
582.90	44760.40
583.06	44987.44
583.22	45120.85
583.38	44811.90
583.54	45015.52
583.70	44779.13
583.86	44687.85
584.02	44236.12
584.18	44516.99
584.34	44861.05
584.50	44254.85
584.66	44776.79
584.82	44325.07
584.98	45013.18
585.14	45083.40
585.30	44533.37
585.46	44498.26
585.62	44821.26
585.78	44664.44
585.94	44643.38
586.10	44519.33
586.26	44350.81
586.42	44744.02
586.58	45378.31
586.74	44875.09
586.90	44322.72
587.06	44336.77
587.22	44844.66
587.38	44243.15
587.54	44533.37
587.70	44673.81
587.86	44982.76
588.02	44612.95
588.18	45713.00
588.34	44624.65
588.49	44725.30
588.65	44196.34
588.81	44467.84
588.97	44673.81
589.13	44336.77
589.29	44694.87
589.45	45031.91
589.61	44837.64
589.77	44582.52
589.93	44783.81
590.08	44980.42
590.24	45146.59
590.40	45120.85
590.56	45291.71
590.72	45244.90
590.88	44500.61
591.04	44835.30
591.20	45460.23
591.35	45099.78
591.51	45291.71
591.67	45228.51
591.83	44849.35
591.99	44765.09
592.15	44732.32
592.31	44739.34
592.46	45158.30
592.62	44659.76
592.78	45120.85
592.94	44662.10
593.10	44882.11
593.26	45034.25
593.41	44854.03
593.57	44926.58
593.73	44746.36
593.89	45179.36
594.05	44919.56
594.20	44905.52
594.36	45282.34
594.52	44842.32
594.68	44744.02
594.84	45153.62
594.99	44987.44
595.15	45071.70
595.31	44931.26
595.47	44516.99
595.62	45200.43
595.78	44877.43
595.94	45347.88
596.10	45560.87
596.25	45500.01
596.41	45219.15
596.57	45137.23
596.73	45233.19
596.88	44421.03
597.04	45038.93
597.20	44992.12
597.36	45226.17
597.51	45448.52
597.67	45095.10
597.83	45205.11
597.99	45170.00
598.14	45170.00
598.30	45205.11
598.46	45350.22
598.61	44868.07
598.77	44744.02
598.93	45411.07
599.09	44994.46
599.24	45846.41
599.40	45359.58
599.56	45364.26
599.71	45069.36
599.87	45263.62
600.03	45457.88
600.18	44851.69
600.34	45448.52
600.50	45090.42
600.65	44938.29
600.81	45382.99
600.97	45492.99
601.12	45020.20
601.28	45083.40
601.44	44540.39
601.59	44772.11
601.75	44737.00
601.91	44751.04
602.06	44919.56
602.22	45043.61
602.37	44973.39
602.53	45359.58
602.69	45584.27
602.84	44879.77
603.00	44772.11
603.16	45287.03
603.31	44835.30
603.47	45027.23
603.62	45329.16
603.78	45074.04
603.94	44947.65
604.09	45088.08
604.25	45504.70
604.40	45141.91
604.56	45270.64
604.71	45443.84
604.87	44706.57
605.03	44847.00
605.18	44732.32
605.34	44701.89
605.49	44978.07
605.65	45027.23
605.80	44968.71
605.96	45104.46
606.12	44966.37
606.27	44854.03
606.43	44809.56
606.58	45074.04
606.74	44486.56
606.89	44392.94
607.05	45118.51
607.20	44816.58
607.36	44968.71
607.51	45083.40
607.67	44942.97
607.82	44875.09
607.98	44832.96
608.13	45106.80
608.29	44587.21
608.44	44491.24
608.60	44140.16
608.75	44631.68
608.91	44470.18
609.06	44601.25
609.22	44744.02
609.37	44596.57
609.53	44818.92
609.68	44636.36
609.84	44289.96
609.99	44608.27
610.15	44292.30
610.30	44847.00
610.46	44406.98
610.61	44416.35
610.76	44240.81
610.92	44470.18
611.07	44655.08
611.23	44767.43
611.38	44357.83
611.54	44435.07
611.69	44713.59
611.84	44285.28
612.00	44027.82
612.15	44236.12
612.31	44252.51
612.46	44189.31
612.62	43934.20
612.77	44708.91
612.92	44863.39
613.08	44304.00
613.23	44130.80
613.39	44254.85
613.54	43871.00
613.69	44582.52
613.85	44165.91
614.00	44261.87
614.15	44577.84
614.31	44311.02
614.46	44524.01
614.62	44385.92
614.77	43730.57
614.92	43824.19
615.08	44362.51
615.23	43503.54
615.38	43817.17
615.54	43620.56
615.69	44142.50
615.84	43489.49
616.00	43714.19
616.15	43999.73
616.30	43529.28
616.46	43845.26
616.61	43468.43
616.76	43739.93
616.92	43281.19
617.07	43482.47
617.22	43501.20
617.37	42784.99
617.53	43873.34
617.68	43892.07
617.83	43452.05
617.99	43739.93
618.14	43374.81
618.29	43838.23
618.45	43405.23
618.60	43562.05
618.75	43175.86
618.90	43208.63
619.06	43480.13
619.21	43367.79
619.36	43360.76
619.51	43517.58
619.67	43154.80
619.82	43861.64
619.97	43566.73
620.12	43096.28
620.28	42944.15
620.43	43117.35
620.58	43065.86
620.73	43140.75
620.89	42890.32
621.04	43000.32
621.19	42841.17
621.34	42965.21
621.49	42906.70
621.65	43122.03
621.80	43274.16
621.95	42724.14
622.10	42946.49
622.25	42913.72
622.41	42604.77
622.56	42569.66
622.71	42890.32
622.86	42623.50
623.01	43009.68
623.16	42564.98
623.32	42951.17
623.47	43012.02
623.62	42721.80
623.77	42539.24
623.92	42696.05
624.07	42548.60
624.23	42384.76
624.38	42824.78
624.53	42572.00
624.68	42686.69
624.83	42511.15
624.98	42450.30
625.13	42342.63
625.29	42745.20
625.44	42244.33
625.59	41757.50
625.74	41888.57
625.89	41883.89
626.04	41677.92
626.19	42246.67
626.34	42499.45
626.49	42293.48
626.65	42567.32
626.80	42504.13
626.95	42150.71
627.10	41759.84
627.25	41645.15
627.40	41670.90
627.55	41696.64
627.70	41214.49
627.85	41720.05
628.00	41631.11
628.15	41804.31
628.30	41284.71
628.45	41706.01
628.60	41645.15
628.76	42052.41
628.91	41930.70
629.06	41626.43
629.21	41294.07
629.36	41464.93
629.51	41701.32
629.66	41511.74
629.81	41244.92
629.96	41673.24
630.11	41495.36
630.26	41420.46
630.41	41823.03
630.56	41586.64
630.71	41493.02
630.86	41490.68
631.01	41305.77
631.16	41464.93
631.31	40907.88
631.46	40526.38
631.61	40821.28
631.76	41408.76
631.91	41165.34
632.06	41570.25
632.21	41670.90
632.36	41462.59
632.51	40402.33
632.66	41067.04
632.81	40755.75
632.96	41247.26
633.10	40999.16
633.25	41144.28
633.40	40758.09
633.55	41483.66
633.70	41209.81
633.85	40694.89
634.00	40610.64
634.15	40840.01
634.30	40657.45
634.45	41013.21
634.60	40769.79
634.75	40346.15
634.90	40615.32
635.05	40538.08
635.19	40601.27
635.34	41158.32
635.49	40432.75
635.64	40636.38
635.79	39859.32
635.94	40315.73
636.09	40832.99
636.24	40058.27
636.39	40245.51
636.53	40091.04
636.68	40020.82
636.83	40648.08
636.98	40076.99
637.13	39761.02
637.28	40069.97
637.43	40350.84
637.57	40556.80
637.72	40102.74
637.87	39992.73
638.02	40121.46
638.17	40446.80
638.32	39770.38
638.46	40266.58
638.61	39922.52
638.76	40088.70
638.91	40325.09
639.06	39744.64
639.20	40161.25
639.35	40147.21
639.50	39833.58
639.65	40067.63
639.80	40011.46
639.94	39931.88
640.09	39391.22
640.24	39716.55
640.39	39215.68
640.54	39639.31
640.68	39484.84
640.83	39267.17
640.98	39374.83
641.13	39232.06
641.27	39634.63
641.42	39557.39
641.57	39105.67
641.72	39386.54
641.86	39384.19
642.01	39072.90
642.16	39285.89
642.31	39138.44
642.45	39452.07
642.60	39168.87
642.75	39377.17
642.90	38789.70
643.04	39079.92
643.19	39000.35
643.34	39047.16
643.48	38983.96
643.63	38932.47
643.78	38895.02
643.93	38953.54
644.07	38866.94
644.22	38888.00
644.37	38927.79
644.51	38745.23
644.66	39082.27
644.81	38932.47
644.95	39042.48
645.10	39302.28
645.25	38965.24
645.39	38635.22
645.54	39026.09
645.69	38888.00
645.83	38932.47
645.98	38733.53
646.13	38897.36
646.27	38822.47
646.42	38492.45
646.57	38597.77
646.71	38366.06
646.86	38576.71
647.00	38967.58
647.15	38948.85
647.30	38749.91
647.44	38600.12
647.59	38663.31
647.74	38504.15
647.88	38485.43
648.03	38157.75
648.17	38735.87
648.32	38667.99
648.47	38576.71
648.61	38073.49
648.76	38611.82
648.90	38572.03
649.05	37928.38
649.20	38356.70
649.34	38003.28
649.49	37947.11
649.63	38047.75
649.78	37759.86
649.92	37844.12
650.07	38457.34
650.21	37949.45
650.36	37933.06
650.51	37975.19
650.65	38223.29
650.80	38333.29
650.94	38227.97
651.09	38157.75
651.23	38136.69
651.38	38204.56
651.52	37699.01
651.67	37858.17
651.81	37771.57
651.96	37401.76
652.10	37460.27
652.25	37722.41
652.39	37893.27
652.54	37713.05
652.68	37525.81
652.83	37242.60
652.97	38085.20
653.12	37743.48
653.26	37488.36
653.41	37493.04
653.55	37188.77
653.70	37572.62
653.84	37825.40
653.99	37368.99
654.13	36807.26
654.27	37420.48
654.42	37071.75
654.56	36987.49
654.71	37010.89
654.85	37546.87
655.00	37282.39
655.14	37462.61
655.29	36673.85
655.43	36921.95
655.57	36935.99
655.72	36849.39
655.86	36732.37
656.01	36783.86
656.15	36676.19
656.30	36816.63
656.44	36605.98
656.58	36683.22
656.73	37015.57
656.87	36982.80
657.01	36755.77
657.16	36617.68
657.30	36517.04
657.45	36613.00
657.59	36591.94
657.73	36570.87
657.88	36912.59
658.02	36608.32
658.16	36563.85
658.31	36741.73
658.45	36615.34
658.60	35938.93
658.74	36226.81
658.88	36851.73
659.03	36189.36
659.17	36245.54
659.31	36315.75
659.46	36301.71
659.60	36360.22
659.74	36362.56
659.89	36004.46
660.03	36203.41
660.17	35955.31
660.32	35674.45
660.46	36098.08
660.60	36041.91
660.74	36112.13
660.89	36161.28
661.03	35569.12
661.17	35732.96
661.32	35508.27
661.46	35208.68
661.60	35526.99
661.74	35274.21
661.89	35452.09
662.03	35634.66
662.17	35580.82
662.31	35569.12
662.46	35606.57
662.60	35449.75
662.74	35358.47
662.88	34906.75
663.03	35218.04
663.17	34782.70
663.31	34824.83
663.45	34759.30
663.60	35037.82
663.74	35054.20
663.88	34548.65
664.02	34895.05
664.17	34904.41
664.31	35178.25
664.45	34768.66
664.59	34845.90
664.73	34157.78
664.88	34733.55
665.02	34352.04
665.16	34487.79
665.30	34539.29
665.44	34064.16
665.59	34436.30
665.73	33890.96
665.87	34143.74
666.01	34338.00
666.15	33764.57
666.29	34125.01
666.44	34132.03
666.58	33963.51
666.72	33689.67
666.86	33589.03
667.00	34398.85
667.14	33879.25
667.28	33722.44
667.43	33521.15
667.57	33942.45
667.71	33022.62
667.85	33647.54
667.99	33174.75
668.13	33120.92
668.27	33359.66
668.41	33298.80
668.56	33312.84
668.70	33757.55
668.84	32900.91
668.98	32432.80
669.12	32957.08
669.26	32606.00
669.40	32559.19
669.54	32914.95
669.68	32613.02
669.82	32818.99
669.96	32362.59
670.10	32428.12
670.25	32411.74
670.39	32514.72
670.53	32147.26
670.67	32156.62
670.81	32168.32
670.95	32535.79
671.09	32315.78
671.23	32481.95
671.37	32283.01
671.51	32472.59
671.65	32287.69
671.79	31585.53
671.93	31728.30
672.07	32325.14
672.21	32011.51
672.35	31803.20
672.49	31777.45
672.63	31803.20
672.77	31363.18
672.91	31704.90
673.05	31189.98
673.19	31569.15
673.33	31164.23
673.47	31424.03
673.61	30969.97
673.75	30632.93
673.89	30682.08
674.03	30885.71
674.17	30998.06
674.31	30735.92
674.45	30668.04
674.59	30586.12
674.73	30852.94
674.87	30492.50
675.01	30724.21
675.15	30574.42
675.29	30717.19
675.43	30565.06
675.56	30354.41
675.70	30506.54
675.84	30389.52
675.98	29418.19
676.12	30054.82
676.26	29926.09
676.40	29797.36
676.54	29577.35
676.68	29661.61
676.82	29064.77
676.96	29652.25
677.10	29502.45
677.23	29322.23
677.37	29252.02
677.51	28884.55
677.65	28919.66
677.79	28496.02
677.93	28524.11
678.07	28716.03
678.21	28641.14
678.34	28107.49
678.48	28449.21
678.62	28039.62
678.76	27962.38
678.90	28004.51
679.04	27866.42
679.18	28294.74
679.31	27854.72
679.45	27520.02
679.59	27480.23
679.73	27438.10
679.87	27222.77
680.00	27285.97
680.14	27393.63
680.28	27470.87
680.42	27363.20
680.56	27288.31
680.70	27225.11
680.83	27262.56
680.97	26775.73
681.11	27101.06
681.25	26883.39
681.39	26888.07
681.52	26068.89
681.66	26579.12
681.80	26962.97
681.94	26434.01
682.07	26401.24
682.21	26298.26
682.35	26321.66
682.49	26291.24
682.62	26466.78
682.76	26134.42
682.90	26005.69
683.04	25612.48
683.17	25633.55
683.31	25385.45
683.45	25429.92
683.59	25247.36
683.72	25254.38
683.86	25006.28
684.00	25378.43
684.13	25221.61
684.27	25151.40
684.41	24851.81
684.55	24456.26
684.68	24711.38
684.82	24772.23
684.96	24748.82
685.09	24594.35
685.23	24269.01
685.37	24116.88
685.50	24151.99
685.64	24196.46
685.78	24102.84
685.91	23737.71
686.05	23742.39
686.19	23679.20
686.32	23597.28
686.46	23161.94
686.60	23201.73
686.73	23192.37
686.87	23021.51
687.01	23136.20
687.14	22951.29
687.28	22930.23
687.42	23082.36
687.55	22836.61
687.69	22932.57
687.82	22829.59
687.96	23211.09
688.10	22450.42
688.23	22614.26
688.37	22326.37
688.50	22143.81
688.64	22064.23
688.78	22230.41
688.91	22218.71
689.05	22068.91
689.18	22377.86
689.32	22012.74
689.46	21930.82
689.59	22008.06
689.73	22001.04
689.86	21645.27
690.00	21668.68
690.13	21694.43
690.27	21600.80
690.41	21486.12
690.54	21137.38
690.68	20709.06
690.81	21018.01
690.95	20795.66
691.08	20599.05
691.22	21139.72
691.35	20648.21
691.49	20865.88
691.62	20985.24
691.76	20498.41
691.89	20500.75
692.03	20460.96
692.16	20379.04
692.30	20463.30
692.43	19822.00
692.57	19674.54
692.70	19740.08
692.84	20116.90
692.97	19646.46
693.11	19662.84
693.24	19676.88
693.38	19690.93
693.51	19515.39
693.65	19491.98
693.78	19676.88
693.92	19538.79
694.05	19288.35
694.19	18970.04
694.32	19014.51
694.45	18787.48
694.59	18724.29
694.72	18625.98
694.86	18738.33
694.99	18735.99
695.13	18860.04
695.26	18450.44
695.39	18181.28
695.53	18593.22
695.66	18326.39
695.80	18651.73
695.93	18429.38
696.07	17813.82
696.20	18125.11
696.33	17813.82
696.47	17755.30
696.60	17860.63
696.73	17844.24
696.87	17635.94
697.00	17561.04
697.14	17357.41
697.27	17572.74
697.40	17099.95
697.54	17149.11
697.67	17193.58
697.80	17174.85
697.94	17216.98
698.07	16800.37
698.21	16858.88
698.34	16835.47
698.47	16608.44
698.61	16608.44
698.74	16671.64
698.87	16407.16
699.01	16159.06
699.14	16308.85
699.27	16004.58
699.40	16145.02
699.54	15950.75
699.67	16056.08
699.80	15679.25
699.94	15864.15
700.07	15847.77
700.20	15637.12
700.34	15826.70
700.47	15702.65
700.60	15889.90
700.73	15836.06
700.87	15796.28
701.00	15456.90
701.13	15538.82
701.26	15068.37
701.40	15414.77
701.53	14941.98
701.66	15140.93
701.79	14878.79
701.93	15295.40
702.06	14553.45
702.19	14796.87
702.32	14932.62
702.46	14452.81
702.59	14532.39
702.72	14609.62
702.85	14771.12
702.99	14597.92
703.12	14389.61
703.25	14267.91
703.38	14122.79
703.51	13954.27
703.65	14221.10
703.78	14195.35
703.91	14204.71
704.04	14164.92
704.17	13994.06
704.31	13870.01
704.44	13668.73
704.57	13755.33
704.70	13689.79
704.83	13757.67
704.96	13408.93
705.10	13729.58
705.23	13495.53
>>>>>End Processed Spectral Data<<<<<
