SpectraSuite Data File
++++++++++++++++++++++++++++++++++++
Date: Fri Oct 25 10:47:40 EDT 2013
User: price-jones
Dark Spectrum Present: No
Reference Spectrum Present: No
Number of Sampled Component Spectra: 1
Spectrometers: USB2+H05261
Integration Time (usec): 100000 (USB2+H05261)
Spectra Averaged: 1 (USB2+H05261)
Boxcar Smoothing: 0 (USB2+H05261)
Correct for Electrical Dark: No (USB2+H05261)
Strobe/Lamp Enabled: No (USB2+H05261)
Correct for Detector Non-linearity: No (USB2+H05261)
Correct for Stray Light: No (USB2+H05261)
Number of Pixels in Processed Spectrum: 2048
>>>>>Begin Processed Spectral Data<<<<<
365.73	119.37
365.92	119.37
366.12	119.37
366.32	65.54
366.52	30.43
366.72	110.01
366.91	23.41
367.11	86.60
367.31	28.09
367.51	35.11
367.70	53.83
367.90	37.45
368.10	42.13
368.30	58.51
368.49	65.54
368.69	35.11
368.89	81.92
369.09	42.13
369.28	175.54
369.48	56.17
369.68	67.88
369.87	72.56
370.07	95.96
370.27	112.35
370.47	196.60
370.66	337.04
370.86	402.57
371.06	351.08
371.25	433.00
371.45	379.17
371.65	528.96
371.84	435.34
372.04	449.38
372.24	486.83
372.44	463.43
372.63	496.19
372.83	538.32
373.03	519.60
373.22	540.66
373.42	433.00
373.62	540.66
373.81	568.75
374.01	524.28
374.21	543.00
374.40	533.64
374.60	510.24
374.79	517.26
374.99	601.52
375.19	510.24
375.38	514.92
375.58	479.81
375.78	610.88
375.97	653.01
376.17	571.09
376.37	517.26
376.56	631.94
376.76	608.54
376.95	571.09
377.15	573.43
377.35	566.41
377.54	613.22
377.74	507.90
377.93	645.99
378.13	627.26
378.33	603.86
378.52	589.82
378.72	662.37
378.91	648.33
379.11	571.09
379.31	648.33
379.50	554.71
379.70	709.18
379.89	758.33
380.09	608.54
380.28	678.76
380.48	641.31
380.68	695.14
380.87	596.84
381.07	669.39
381.26	690.46
381.46	631.94
381.65	713.86
381.85	699.82
382.04	718.54
382.24	720.88
382.43	692.80
382.63	725.57
382.83	674.07
383.02	709.18
383.22	685.78
383.41	723.23
383.61	662.37
383.80	777.06
384.00	746.63
384.19	706.84
384.39	821.53
384.58	720.88
384.78	739.61
384.97	826.21
385.17	833.23
385.36	683.44
385.56	748.97
385.75	816.85
385.95	847.27
386.14	800.46
386.34	791.10
386.53	821.53
386.72	709.18
386.92	877.70
387.11	819.19
387.31	823.87
387.50	826.21
387.70	732.59
387.89	791.10
388.09	833.23
388.28	858.98
388.48	863.66
388.67	842.59
388.86	926.85
389.06	849.61
389.25	851.96
389.45	882.38
389.64	940.90
389.84	940.90
390.03	854.30
390.22	919.83
390.42	966.64
390.61	1046.22
390.81	976.00
391.00	940.90
391.19	961.96
391.39	1039.20
391.58	1034.52
391.78	1006.43
391.97	959.62
392.16	985.37
392.36	973.66
392.55	966.64
392.75	1006.43
392.94	952.60
393.13	954.94
393.33	877.70
393.52	1090.69
393.71	961.96
393.91	990.05
394.10	1013.45
394.29	1083.67
394.49	1071.97
394.68	1043.88
394.88	1114.10
395.07	1156.22
395.26	1093.03
395.46	1142.18
395.65	1203.04
395.84	1186.65
396.04	1240.48
396.23	1135.16
396.42	1193.67
396.62	1111.75
396.81	1130.48
397.00	1198.35
397.19	1144.52
397.39	1343.47
397.58	1249.85
397.77	1252.19
397.97	1263.89
398.16	1369.21
398.35	1245.16
398.55	1226.44
398.74	1252.19
398.93	1394.96
399.12	1371.55
399.32	1261.55
399.51	1341.13
399.70	1350.49
399.90	1401.98
400.09	1362.19
400.28	1411.34
400.47	1397.30
400.67	1373.89
400.86	1547.09
401.05	1406.66
401.24	1523.69
401.44	1579.86
401.63	1537.73
401.82	1511.99
402.01	1476.88
402.21	1556.46
402.40	1509.65
402.59	1586.88
402.78	1565.82
402.97	1570.50
403.17	1603.27
403.36	1654.76
403.55	1654.76
403.74	1596.25
403.93	1657.10
404.13	1624.33
404.32	1621.99
404.51	1689.87
404.70	1743.70
404.89	1650.08
405.09	1692.21
405.28	1806.89
405.47	1849.02
405.66	1895.83
405.85	1783.49
406.05	1767.10
406.24	1741.36
406.43	1806.89
406.62	1863.07
406.81	1874.77
407.00	1837.32
407.20	1790.51
407.39	1846.68
407.58	1940.30
407.77	1940.30
407.96	2069.03
408.15	2069.03
408.34	1952.01
408.54	1989.46
408.73	2022.22
408.92	2024.56
409.11	2064.35
409.30	2040.95
409.49	2083.08
409.68	2050.31
409.87	2071.37
410.07	2129.89
410.26	2244.57
410.45	2104.14
410.64	2190.74
410.83	2167.34
411.02	2165.00
411.21	2282.02
411.40	2251.60
411.59	2328.83
411.78	2359.26
411.98	2277.34
412.17	2314.79
412.36	2429.48
412.55	2366.28
412.74	2464.58
412.93	2415.43
413.12	2436.50
413.31	2630.76
413.50	2602.68
413.69	2490.33
413.88	2626.08
414.07	2780.56
414.26	2675.23
414.45	2663.53
414.64	2497.35
414.83	2677.57
415.02	2616.72
415.22	2785.24
415.41	2822.69
415.60	2806.30
415.79	2766.51
415.98	2867.16
416.17	3056.74
416.36	2916.31
416.55	3035.67
416.74	2911.63
416.93	2925.67
417.12	2988.86
417.31	3042.70
417.50	2906.95
417.69	3143.34
417.88	3091.85
418.07	3023.97
418.26	3143.34
418.45	3148.02
418.64	3262.71
418.83	3211.22
419.02	3103.55
419.21	3243.98
419.39	3213.56
419.58	3215.90
419.77	3159.72
419.96	3323.56
420.15	3449.95
420.34	3204.19
420.53	3356.33
420.72	3428.88
420.91	3269.73
421.10	3337.60
421.29	3461.65
421.48	3555.27
421.67	3358.67
421.86	3316.54
422.05	3330.58
422.24	3398.46
422.43	3482.72
422.61	3386.76
422.80	3578.68
422.99	3531.87
423.18	3609.11
423.37	3616.13
423.56	3588.04
423.75	3480.38
423.94	3480.38
424.13	3389.10
424.32	3400.80
424.50	3555.27
424.69	3616.13
424.88	3632.51
425.07	3599.74
425.26	3475.70
425.45	3506.12
425.64	3574.00
425.83	3618.47
426.01	3686.34
426.20	3779.97
426.39	3637.19
426.58	3592.72
426.77	3679.32
426.96	3541.23
427.15	3637.19
427.33	3667.62
427.52	3688.68
427.71	3772.94
427.90	3742.52
428.09	3740.18
428.28	3918.06
428.46	3679.32
428.65	3747.20
428.84	3908.69
429.03	3904.01
429.22	3747.20
429.40	3932.10
429.59	3791.67
429.78	3770.60
429.97	3592.72
430.16	3772.94
430.34	3728.47
430.53	3929.76
430.72	3948.48
430.91	3805.71
431.10	3953.16
431.28	4257.43
431.47	4086.58
431.66	4189.56
431.85	4102.96
432.03	4255.09
432.22	4229.35
432.41	4231.69
432.60	4320.63
432.79	4182.54
432.97	4327.65
433.16	4358.08
433.35	4329.99
433.54	4297.22
433.72	4344.03
433.91	4318.29
434.10	4432.97
434.28	4257.43
434.47	4470.42
434.66	4414.25
434.85	4578.09
435.03	4486.81
435.22	4486.81
435.41	4613.20
435.59	4521.92
435.78	4624.90
435.97	4737.24
436.16	4559.36
436.34	4599.15
436.53	4620.22
436.72	4882.36
436.90	4592.13
437.09	4802.78
437.28	4627.24
437.46	4688.09
437.65	4784.06
437.84	4784.06
438.02	4662.35
438.21	4767.67
438.40	4875.34
438.58	4910.44
438.77	4887.04
438.96	5025.13
439.14	5036.83
439.33	4992.36
439.52	5231.10
439.70	5259.18
439.89	5193.65
440.08	5256.84
440.26	5245.14
440.45	5259.18
440.63	5167.90
440.82	5430.04
441.01	5348.12
441.19	5469.83
441.38	5371.53
441.57	5561.11
441.75	5488.56
441.94	5762.40
442.12	5565.79
442.31	5731.97
442.50	5734.31
442.68	5685.16
442.87	5870.06
443.05	5645.37
443.24	5813.89
443.43	5860.70
443.61	5949.64
443.80	5837.30
443.98	5771.76
444.17	5612.60
444.35	5865.38
444.54	5930.92
444.73	5966.03
444.91	5837.30
445.10	5781.12
445.28	5797.51
445.47	5827.93
445.65	5841.98
445.84	5879.43
446.02	5795.17
446.21	5989.43
446.39	5963.68
446.58	6216.46
446.77	5935.60
446.95	5905.17
447.14	5940.28
447.32	6153.27
447.51	6115.82
447.69	5956.66
447.88	6059.65
448.06	6024.54
448.25	6099.44
448.43	6033.90
448.62	6120.50
448.80	6078.37
448.99	6171.99
449.17	6127.52
449.36	6174.33
449.54	6401.37
449.73	6314.77
449.91	6363.92
450.10	6544.14
450.28	6284.34
450.46	6544.14
450.65	6452.86
450.83	6476.26
451.02	6562.86
451.20	6476.26
451.39	6466.90
451.57	6499.67
451.76	6565.20
451.94	6438.81
452.13	6448.18
452.31	6693.93
452.49	6567.54
452.68	6633.08
452.86	6520.73
453.05	6590.95
453.23	6719.68
453.42	6693.93
453.60	6579.25
453.78	6803.94
453.97	6586.27
454.15	6583.93
454.34	6464.56
454.52	6752.45
454.70	6764.15
454.89	6635.42
455.07	6874.15
455.26	6808.62
455.44	6986.50
455.62	6967.77
455.81	6984.16
455.99	7016.93
456.17	6883.52
456.36	7108.21
456.54	7288.43
456.73	7391.41
456.91	7487.37
457.09	7368.01
457.28	7583.34
457.46	7344.60
457.64	7548.23
457.83	7314.17
458.01	7300.13
458.19	7461.63
458.38	7400.77
458.56	7604.40
458.74	7515.46
458.93	7442.90
459.11	7506.10
459.29	7576.31
459.48	7515.46
459.66	7569.29
459.84	7644.19
460.03	7796.32
460.21	7480.35
460.39	7543.55
460.57	7786.96
460.76	7714.41
460.94	7693.34
461.12	7845.48
461.31	7922.71
461.49	7742.49
461.67	7763.56
461.85	8077.19
462.04	7913.35
462.22	8489.12
462.40	8217.62
462.59	7978.89
462.77	8140.38
462.95	8255.07
463.13	8173.15
463.32	7934.42
463.50	8145.06
463.68	8241.03
463.86	8163.79
464.05	8219.96
464.23	8248.05
464.41	8388.48
464.59	8212.94
464.78	8262.09
464.96	8187.19
465.14	8393.16
465.32	8404.86
465.50	8388.48
465.69	8437.63
465.87	8554.66
466.05	8461.04
466.23	8360.39
466.41	8451.67
466.60	8685.73
466.78	8486.78
466.96	8538.27
467.14	8353.37
467.32	8468.06
467.51	8753.60
467.69	8465.72
467.87	8762.97
468.05	8592.11
468.23	8716.16
468.41	8638.92
468.60	8592.11
468.78	8908.08
468.96	8528.91
469.14	8594.45
469.32	8919.78
469.50	8807.44
469.69	8760.63
469.87	9008.72
470.05	9029.79
470.23	8947.87
470.41	9107.02
470.59	9076.60
470.77	9074.26
470.95	9076.60
471.14	9420.66
471.32	9053.19
471.50	9320.01
471.68	9430.02
471.86	9350.44
472.04	9378.53
472.22	9502.58
472.40	9123.41
472.58	9298.95
472.77	9547.05
472.95	9643.01
473.13	9872.38
473.31	9593.86
473.49	9879.40
473.67	9720.24
473.85	9888.76
474.03	10024.51
474.21	9963.66
474.39	10047.92
474.57	10150.90
474.75	10195.37
474.93	10200.05
475.12	10284.31
475.30	10373.25
475.48	10193.03
475.66	10296.02
475.84	10361.55
476.02	10427.09
476.20	10380.28
476.38	10757.10
476.56	10925.62
476.74	10759.44
476.92	10930.30
477.10	10843.70
477.28	11246.27
477.46	11002.86
477.64	11360.96
477.82	11297.77
478.00	11569.27
478.18	11194.78
478.36	11468.62
478.54	11396.07
478.72	11564.59
478.90	11932.05
479.08	11889.92
479.26	11939.07
479.44	12018.65
479.62	11901.62
479.80	12028.01
479.98	12210.57
480.16	12624.85
480.34	12416.54
480.52	12587.40
480.70	12573.36
480.88	12266.75
481.06	12634.21
481.24	12615.49
481.41	12999.34
481.59	13156.15
481.77	13284.88
481.95	13322.33
482.13	13626.60
482.31	13486.17
482.49	13624.26
482.67	13748.31
482.85	14120.45
483.03	14024.49
483.21	14057.26
483.39	13970.66
483.57	14178.97
483.74	14679.84
483.92	14469.19
484.10	14228.12
484.28	14743.03
484.46	14817.93
484.64	14979.43
484.82	14640.05
485.00	15103.48
485.18	15154.97
485.35	15089.43
485.53	15049.64
485.71	14967.73
485.89	15634.78
486.07	15084.75
486.25	15428.81
486.43	15658.18
486.61	15903.94
486.78	16098.20
486.96	16175.44
487.14	16472.69
487.32	16215.23
487.50	16589.72
487.68	16498.44
487.85	16924.41
488.03	16978.25
488.21	17378.48
488.39	17205.28
488.57	17488.48
488.75	17624.23
488.92	17685.09
489.10	17888.71
489.28	17752.96
489.46	17703.81
489.64	18141.49
489.81	18579.17
489.99	18473.85
490.17	18548.75
490.35	18752.37
490.53	18743.01
490.70	18827.27
490.88	18808.54
491.06	19386.66
491.24	19243.88
491.41	19377.30
491.59	19225.16
491.77	19735.40
491.95	19524.75
492.13	19669.86
492.30	19946.05
492.48	20168.40
492.66	19946.05
492.84	20198.82
493.01	20470.33
493.19	20264.36
493.37	20772.25
493.54	20816.72
493.72	20631.82
493.90	20933.75
494.08	21099.93
494.25	21324.62
494.43	21261.43
494.61	21701.45
494.79	21628.89
494.96	21656.98
495.14	21549.31
495.32	21839.54
495.49	22132.11
495.67	22054.87
495.85	22242.11
496.02	22497.23
496.20	22314.67
496.38	22799.16
496.55	22731.28
496.73	23253.22
496.91	22871.72
497.09	23082.36
497.26	23206.41
497.44	23271.95
497.62	23269.61
497.79	23913.25
497.97	23433.44
498.14	23686.22
498.32	23367.91
498.50	23796.23
498.67	24102.84
498.85	24095.82
499.03	24386.04
499.20	24430.51
499.38	24577.97
499.56	24673.93
499.73	24355.61
499.91	24474.98
500.08	24809.68
500.26	24683.29
500.44	24842.45
500.61	25113.95
500.79	24994.58
500.97	24952.45
501.14	25553.97
501.32	25556.31
501.49	24980.54
501.67	25439.28
501.84	25560.99
502.02	25734.19
502.20	25675.68
502.37	26017.40
502.55	25663.97
502.72	25944.84
502.90	25998.67
503.07	26064.21
503.25	26169.53
503.43	26630.62
503.60	26295.92
503.78	26555.72
503.95	26452.73
504.13	26300.60
504.30	26668.06
504.48	26759.34
504.65	27276.60
504.83	26965.31
505.01	27531.72
505.18	27051.91
505.36	27454.48
505.53	27473.21
505.71	27505.98
505.88	27648.75
506.06	27480.23
506.23	27843.01
506.41	27770.46
506.58	27475.55
506.76	27693.22
506.93	27995.15
507.11	27999.83
507.28	27983.44
507.46	28056.00
507.63	28198.77
507.81	28535.81
507.98	27974.08
508.16	28491.34
508.33	28540.49
508.50	28561.56
508.68	28992.22
508.85	29343.30
509.03	28690.29
509.20	28748.80
509.38	29127.97
509.55	29383.09
509.73	29429.90
509.90	29369.04
510.08	29289.46
510.25	29289.46
510.42	29392.45
510.60	29947.15
510.77	29584.37
510.95	30005.67
511.12	29818.42
511.30	29825.45
511.47	30473.78
511.64	30710.17
511.82	30499.52
511.99	30274.83
512.17	30492.50
512.34	30052.48
512.51	30338.02
512.69	30806.13
512.86	30663.36
513.04	30871.67
513.21	30998.06
513.38	30476.12
513.56	30789.75
513.73	30539.31
513.90	31243.81
514.08	30955.93
514.25	31037.84
514.43	31503.61
514.60	31248.49
514.77	31173.60
514.95	31592.55
515.12	31442.76
515.29	31821.92
515.47	31777.45
515.64	31971.72
515.81	31686.17
515.99	31693.19
516.16	31854.69
516.33	31997.46
516.51	31920.23
516.68	31842.99
516.85	31838.31
517.03	31728.30
517.20	32332.16
517.37	32156.62
517.54	32507.70
517.72	31971.72
517.89	32264.28
518.06	32151.94
518.24	32135.56
518.41	32479.61
518.58	32524.08
518.75	32547.49
518.93	33230.93
519.10	32765.16
519.27	33614.77
519.45	32889.21
519.62	33181.77
519.79	33165.39
519.96	33642.86
520.14	33574.98
520.31	33687.33
520.48	33684.99
520.65	33724.78
520.83	33984.58
521.00	34143.74
521.17	33727.12
521.34	33949.47
521.52	34101.61
521.69	34162.46
521.86	34359.06
522.03	34015.01
522.20	34536.94
522.38	34141.39
522.55	34300.55
522.72	34602.48
522.89	34438.64
523.07	34492.47
523.24	34377.79
523.41	34653.97
523.58	34892.71
523.75	35227.40
523.92	35271.87
524.10	35122.08
524.27	35302.30
524.44	35316.34
524.61	34918.45
524.78	35409.96
524.96	35374.86
525.13	35283.58
525.30	35828.92
525.47	35580.82
525.64	35468.48
525.81	35646.36
525.98	36081.70
526.16	35646.36
526.33	35391.24
526.50	35943.61
526.67	35475.50
526.84	35934.24
527.01	35700.19
527.18	35852.33
527.36	36130.85
527.53	35952.97
527.70	36706.62
527.87	36680.88
528.04	35983.40
528.21	36163.62
528.38	36247.88
528.55	36718.32
528.72	36856.42
528.89	37317.50
529.07	36779.18
529.24	36715.98
529.41	36627.04
529.58	36615.34
529.75	36715.98
529.92	36964.08
530.09	37256.65
530.26	37123.24
530.43	37294.10
530.60	36905.57
530.77	37071.75
530.94	37233.24
531.11	37462.61
531.28	37125.58
531.46	37357.29
531.63	37544.53
531.80	37357.29
531.97	37406.44
532.14	37823.06
532.31	37207.50
532.48	37823.06
532.65	37902.64
532.82	37624.11
532.99	37799.65
533.16	37928.38
533.33	37689.65
533.50	38230.31
533.67	38005.62
533.84	37935.40
534.01	38148.39
534.18	38012.64
534.35	38272.44
534.52	38490.11
534.69	38632.88
534.86	38539.26
535.03	38279.46
535.20	38934.81
535.37	39002.69
535.54	38967.58
535.71	38480.75
535.88	38513.52
536.05	38665.65
536.22	39079.92
536.38	38850.55
536.55	38614.16
536.72	38822.47
536.89	38703.10
537.06	38803.74
537.23	38756.93
537.40	39042.48
537.57	39096.31
537.74	38817.78
537.91	39299.94
538.08	39145.46
538.25	38983.96
538.42	39601.86
538.59	39386.54
538.75	39028.43
538.92	39285.89
539.09	39423.98
539.26	39470.79
539.43	39473.13
539.60	39519.95
539.77	39524.63
539.94	39943.58
540.11	39473.13
540.28	39419.30
540.44	39526.97
540.61	39915.50
540.78	39962.31
540.95	39793.79
541.12	39777.40
541.29	40158.91
541.46	39751.66
541.62	40130.83
541.79	40484.25
541.96	40025.50
542.13	39842.94
542.30	40247.85
542.47	40247.85
542.63	40247.85
542.80	40313.39
542.97	40891.50
543.14	40774.47
543.31	40690.21
543.48	40765.11
543.64	41275.35
543.81	41139.60
543.98	40964.06
544.15	40718.30
544.32	40856.39
544.48	41043.63
544.65	41043.63
544.82	41015.55
544.99	40566.16
545.16	40896.18
545.32	41170.02
545.49	41371.31
545.66	41415.78
545.83	40769.79
546.00	41624.09
546.16	41099.81
546.33	41502.38
546.50	40776.81
546.67	41244.92
546.83	41097.47
547.00	40868.09
547.17	41329.18
547.34	41394.71
547.50	41474.29
547.67	41872.18
547.84	41612.38
548.00	41729.41
548.17	41773.88
548.34	41876.86
548.51	41970.49
548.67	41954.10
548.84	42307.52
549.01	41979.85
549.18	41633.45
549.34	42113.26
549.51	42026.66
549.68	42300.50
549.84	41942.40
550.01	42347.31
550.18	42213.90
550.34	41935.38
550.51	42241.99
550.68	42024.32
550.84	41734.09
551.01	42373.06
551.18	42321.57
551.34	42426.89
551.51	42473.70
551.68	42462.00
551.84	42820.10
552.01	41874.52
552.18	42548.60
552.34	42220.92
552.51	42895.00
552.68	42335.61
552.84	42696.05
553.01	43182.88
553.18	42792.01
553.34	42810.74
553.51	42050.06
553.67	42883.30
553.84	43257.78
554.01	43033.09
554.17	43028.41
554.34	43140.75
554.51	43084.58
554.67	43182.88
554.84	42916.06
555.00	43049.47
555.17	42773.29
555.33	43229.69
555.50	42897.34
555.67	43196.93
555.83	42955.85
556.00	43229.69
556.16	43407.58
556.33	43227.35
556.50	43285.87
556.66	43569.07
556.83	43248.42
556.99	43501.20
557.16	43629.93
557.32	43622.90
557.49	43674.40
557.65	43005.00
557.82	43168.84
557.98	43175.86
558.15	43629.93
558.32	43309.27
558.48	43494.18
558.65	43442.68
558.81	43365.45
558.98	43398.21
559.14	43239.06
559.31	43487.15
559.47	43189.91
559.64	43751.63
559.80	43903.77
559.97	44194.00
560.13	43456.73
560.30	43608.86
560.46	43674.40
560.63	43725.89
560.79	43477.79
560.96	44179.95
561.12	44013.77
561.29	43650.99
561.45	43695.46
561.61	44065.27
561.78	44058.24
561.94	43309.27
562.11	43405.23
562.27	43370.13
562.44	43988.03
562.60	44020.80
562.77	44257.19
562.93	44044.20
563.10	44311.02
563.26	43571.41
563.42	43973.98
563.59	43840.57
563.75	44149.53
563.92	43763.34
564.08	44105.06
564.24	44163.57
564.41	44208.04
564.57	44563.80
564.74	44261.87
564.90	44556.78
565.07	44538.05
565.23	44170.59
565.39	44325.07
565.56	44292.30
565.72	44020.80
565.88	44430.39
566.05	44233.78
566.21	44416.35
566.38	44194.00
566.54	44105.06
566.70	44231.44
566.87	44343.79
567.03	43964.62
567.19	44254.85
567.36	44299.32
567.52	44306.34
567.68	44500.61
567.85	44182.29
568.01	44402.30
568.17	44016.11
568.34	44914.88
568.50	44725.30
568.66	44411.67
568.83	44598.91
568.99	44367.20
569.15	44250.17
569.32	44493.58
569.48	43901.43
569.64	44727.64
569.81	44619.97
569.97	44711.25
570.13	44727.64
570.30	44259.53
570.46	44325.07
570.62	44210.38
570.78	44404.64
570.95	44516.99
571.11	44825.94
571.27	44458.48
571.43	44603.59
571.60	44882.11
571.76	44519.33
571.92	44481.88
572.09	44708.91
572.25	44554.44
572.41	44318.04
572.57	44809.56
572.74	45055.31
572.90	44978.07
573.06	44524.01
573.22	45095.10
573.38	45013.18
573.55	44580.18
573.71	45181.70
573.87	44762.75
574.03	44774.45
574.20	44559.12
574.36	44353.15
574.52	44835.30
574.68	44751.04
574.84	44591.89
575.01	44690.19
575.17	44488.90
575.33	44561.46
575.49	44814.24
575.65	45069.36
575.82	45081.06
575.98	44561.46
576.14	44641.04
576.30	44643.38
576.46	44645.72
576.62	44512.31
576.79	44889.13
576.95	44502.95
577.11	44516.99
577.27	44734.66
577.43	44589.55
577.59	44306.34
577.75	44685.51
577.92	44854.03
578.08	44584.86
578.24	44769.77
578.40	44421.03
578.56	44687.85
578.72	44973.39
578.88	45085.74
579.04	44837.64
579.21	44516.99
579.37	44910.20
579.53	44816.58
579.69	44563.80
579.85	44435.07
580.01	44886.79
580.17	44758.06
580.33	45392.35
580.49	44800.19
580.65	45132.55
580.82	44643.38
580.98	44830.62
581.14	44779.13
581.30	45109.14
581.46	44652.74
581.62	44605.93
581.78	44875.09
581.94	45476.61
582.10	45172.34
582.26	45043.61
582.42	45263.62
582.58	44912.54
582.74	44662.10
582.90	44797.85
583.06	45315.11
583.22	45095.10
583.38	45081.06
583.54	44971.05
583.70	44783.81
583.86	44722.96
584.02	44535.71
584.18	44912.54
584.34	44847.00
584.50	45191.06
584.66	44671.46
584.82	44582.52
584.98	45282.34
585.14	44978.07
585.30	45144.25
585.46	44634.02
585.62	44458.48
585.78	44875.09
585.94	44395.28
586.10	45212.13
586.26	45137.23
586.42	45141.91
586.58	45296.39
586.74	44849.35
586.90	44868.07
587.06	45165.32
587.22	44996.80
587.38	44863.39
587.54	45167.66
587.70	45027.23
587.86	45352.56
588.02	44854.03
588.18	45022.54
588.34	45038.93
588.49	44992.12
588.65	44395.28
588.81	44163.57
588.97	44549.76
589.13	44619.97
589.29	44982.76
589.45	44811.90
589.61	44762.75
589.77	45057.65
589.93	45392.35
590.08	44935.95
590.24	45057.65
590.40	45048.29
590.56	45434.48
590.72	45237.87
590.88	44898.50
591.04	45270.64
591.20	45471.93
591.35	45413.41
591.51	45518.74
591.67	45282.34
591.83	44966.37
591.99	45031.91
592.15	45188.72
592.31	45338.52
592.46	45090.42
592.62	45235.53
592.78	44973.39
592.94	45067.02
593.10	44835.30
593.26	45029.57
593.41	45034.25
593.57	45223.83
593.73	45303.41
593.89	44985.10
594.05	45701.30
594.20	45099.78
594.36	45663.85
594.52	45352.56
594.68	44744.02
594.84	45209.79
594.99	45689.60
595.15	44912.54
595.31	45317.45
595.47	45071.70
595.62	45397.03
595.78	45361.92
595.94	45874.50
596.10	45504.70
596.25	45343.20
596.41	45467.25
596.57	45258.94
596.73	45460.23
596.88	44713.59
597.04	45354.90
597.20	45523.42
597.36	44945.31
597.51	45659.17
597.67	45656.83
597.83	45125.53
597.99	45841.73
598.14	45024.89
598.30	45263.62
598.46	45109.14
598.61	45354.90
598.77	44928.92
598.93	44982.76
599.09	45310.43
599.24	45830.03
599.40	45764.49
599.56	45350.22
599.71	45492.99
599.87	45200.43
600.03	45319.79
600.18	45116.17
600.34	45209.79
600.50	45104.46
600.65	44921.90
600.81	45727.05
600.97	45177.02
601.12	45956.42
601.28	45132.55
601.44	45329.16
601.59	45397.03
601.75	44968.71
601.91	45099.78
602.06	45198.09
602.22	45064.67
602.37	45345.54
602.53	45235.53
602.69	45404.05
602.84	45057.65
603.00	45146.59
603.16	45530.44
603.31	45233.19
603.47	44765.09
603.62	45118.51
603.78	45815.99
603.94	45500.01
604.09	45397.03
604.25	45322.13
604.40	45310.43
604.56	45277.66
604.71	45567.89
604.87	45268.30
605.03	45504.70
605.18	44992.12
605.34	45055.31
605.49	45038.93
605.65	45045.95
605.80	45572.57
605.96	45221.49
606.12	45521.08
606.27	45471.93
606.43	45181.70
606.58	45338.52
606.74	45350.22
606.89	44987.44
607.05	45354.90
607.20	45464.91
607.36	45731.73
607.51	45539.80
607.67	45186.38
607.82	44947.65
607.98	45338.52
608.13	45230.85
608.29	45003.82
608.44	45038.93
608.60	44804.88
608.75	44821.26
608.91	44423.37
609.06	44879.77
609.22	45308.09
609.37	44898.50
609.53	44774.45
609.68	45123.19
609.84	45137.23
609.99	44994.46
610.15	45125.53
610.30	44346.13
610.46	44257.19
610.61	44491.24
610.76	44889.13
610.92	44842.32
611.07	44563.80
611.23	44519.33
611.38	44844.66
611.54	44622.31
611.69	44851.69
611.84	44603.59
612.00	44568.48
612.15	44507.63
612.31	44612.95
612.46	44474.86
612.62	44884.45
612.77	43798.44
612.92	44807.22
613.08	44446.77
613.23	44711.25
613.39	44622.31
613.54	44081.65
613.69	44348.47
613.85	44416.35
614.00	44786.15
614.15	44687.85
614.31	44247.83
614.46	44545.08
614.62	44198.68
614.77	44306.34
614.92	44186.97
615.08	44573.16
615.23	44376.56
615.38	44137.82
615.54	44243.15
615.69	44039.52
615.84	44177.61
616.00	44037.18
616.15	44109.74
616.30	44294.64
616.46	44219.74
616.61	43887.39
616.76	43828.87
616.92	43636.95
617.07	43945.90
617.22	43730.57
617.37	43988.03
617.53	44442.09
617.68	44086.33
617.83	44093.35
617.99	44032.50
618.14	43950.58
618.29	44013.77
618.45	43442.68
618.60	43365.45
618.75	43929.51
618.90	43873.34
619.06	43882.70
619.21	43981.01
619.36	43856.96
619.51	43526.94
619.67	43688.44
619.82	44046.54
619.97	44051.22
620.12	43480.13
620.28	43543.33
620.43	43262.46
620.58	43526.94
620.73	43543.33
620.89	43470.77
621.04	43449.70
621.19	43494.18
621.34	43552.69
621.49	43611.20
621.65	43323.32
621.80	43367.79
621.95	43112.67
622.10	43093.94
622.25	43201.61
622.41	43002.66
622.56	43138.41
622.71	43349.06
622.86	43159.48
623.01	43250.76
623.16	43164.16
623.32	43110.33
623.47	43236.72
623.62	43175.86
623.77	42995.64
623.92	43629.93
624.07	42726.48
624.23	42796.70
624.38	42742.86
624.53	42932.45
624.68	43079.90
624.83	42941.81
624.98	42656.26
625.13	42541.58
625.29	42829.46
625.44	42703.07
625.59	42288.80
625.74	42244.33
625.89	42480.72
626.04	41944.74
626.19	42412.85
626.34	42904.36
626.49	42670.31
626.65	42532.22
626.80	42728.82
626.95	42373.06
627.10	42106.24
627.25	42176.45
627.40	42337.95
627.55	42026.66
627.70	42005.59
627.85	42068.79
628.00	42450.30
628.15	42478.38
628.30	41970.49
628.45	42422.21
628.60	42057.09
628.76	42499.45
628.91	42005.59
629.06	42064.11
629.21	41518.76
629.36	41558.55
629.51	41708.35
629.66	41787.92
629.81	41626.43
629.96	41689.62
630.11	41806.65
630.26	42478.38
630.41	42139.00
630.56	41476.63
630.71	42057.09
630.86	41940.06
631.01	41897.93
631.16	41965.81
631.31	41326.84
631.46	41006.19
631.61	41329.18
631.76	41441.53
631.91	41432.16
632.06	41544.51
632.21	41558.55
632.36	41984.53
632.51	41315.14
632.66	41633.45
632.81	41455.57
632.96	41471.95
633.10	41062.36
633.25	41081.08
633.40	41235.56
633.55	41228.54
633.70	41390.03
633.85	40919.59
634.00	41085.76
634.15	41141.94
634.30	40861.07
634.45	40629.36
634.60	41336.20
634.75	41167.68
634.90	40924.27
635.05	40959.38
635.19	41099.81
635.34	41375.99
635.49	41270.67
635.64	40779.15
635.79	40603.61
635.94	40751.07
636.09	40903.20
636.24	40847.03
636.39	40722.98
636.53	40776.81
636.68	40336.79
636.83	40210.40
636.98	40275.94
637.13	40175.30
637.28	40453.82
637.43	40715.96
637.57	40477.22
637.72	40708.94
637.87	40650.42
638.02	40425.73
638.17	40587.23
638.32	40229.13
638.46	40753.41
638.61	39756.34
638.76	40095.72
638.91	40088.70
639.06	39793.79
639.20	40343.81
639.35	40608.29
639.50	39906.13
639.65	40456.16
639.80	40481.91
639.94	40313.39
640.09	40404.67
640.24	40140.19
640.39	39812.51
640.54	39894.43
640.68	39751.66
640.83	39875.71
640.98	39662.72
641.13	39756.34
641.27	40268.92
641.42	39613.57
641.57	40144.87
641.72	39812.51
641.86	39098.65
642.01	39409.94
642.16	40208.06
642.31	39681.44
642.45	39615.91
642.60	39290.57
642.75	39185.25
642.90	39702.51
643.04	39536.33
643.19	39463.77
643.34	39756.34
643.48	39519.95
643.63	39438.03
643.78	39580.80
643.93	39072.90
644.07	39250.78
644.22	39337.38
644.37	38871.62
644.51	39255.46
644.66	39545.69
644.81	39206.31
644.95	39058.86
645.10	39599.52
645.25	39295.25
645.39	39339.72
645.54	39571.44
645.69	39522.29
645.83	39194.61
645.98	38796.72
646.13	39215.68
646.27	39014.39
646.42	39000.35
646.57	39267.17
646.71	39091.63
646.86	38930.13
647.00	39342.06
647.15	38899.70
647.30	38890.34
647.44	38740.55
647.59	38569.69
647.74	38597.77
647.88	38754.59
648.03	38480.75
648.17	38590.75
648.32	38326.27
648.47	38742.89
648.61	38557.99
648.76	38799.06
648.90	38593.09
649.05	38382.45
649.20	38675.01
649.34	38916.09
649.49	38202.22
649.63	38667.99
649.78	38780.34
649.92	38211.59
650.07	38569.69
650.21	37867.53
650.36	38403.51
650.51	38569.69
650.65	38873.96
650.80	38724.16
650.94	38778.00
651.09	38574.37
651.23	38712.46
651.38	38127.33
651.52	38169.46
651.67	38129.67
651.81	38267.76
651.96	37830.08
652.10	37869.87
652.25	38047.75
652.39	38052.43
652.54	37785.61
652.68	38167.12
652.83	38354.36
652.97	38384.79
653.12	38103.92
653.26	37933.06
653.41	37528.15
653.55	37546.87
653.70	37862.85
653.84	38146.05
653.99	37766.88
654.13	37975.19
654.27	37610.07
654.42	37574.96
654.56	37455.59
654.71	37825.40
654.85	37591.34
655.00	37631.13
655.14	37596.03
655.29	37680.28
655.43	37095.15
655.57	37207.50
655.72	37319.84
655.86	37144.30
656.01	37167.71
656.15	36938.33
656.30	37181.75
656.44	37001.53
656.58	37010.89
656.73	36903.23
656.87	37254.31
657.01	36868.12
657.16	36940.68
657.30	36886.84
657.45	36795.56
657.59	36882.16
657.73	37003.87
657.88	37294.10
658.02	36917.27
658.16	37029.62
658.31	37216.86
658.45	36732.37
658.60	36734.71
658.74	36975.78
658.88	36905.57
659.03	36580.23
659.17	36290.01
659.31	36474.91
659.46	36648.11
659.60	36608.32
659.74	36533.42
659.89	36514.70
660.03	35941.27
660.17	36758.11
660.32	36671.51
660.46	36875.14
660.60	36521.72
660.74	36381.29
660.89	36409.37
661.03	36032.55
661.17	36215.11
661.32	36055.95
661.46	35835.94
661.60	35311.66
661.74	35793.81
661.89	35782.11
662.03	35842.96
662.17	35861.69
662.31	35749.34
662.46	36039.57
662.60	35775.09
662.74	35438.05
662.88	35480.18
663.03	35557.42
663.17	35253.15
663.31	35236.77
663.45	35587.85
663.60	35196.98
663.74	35194.64
663.88	35108.04
664.02	35091.65
664.17	35255.49
664.31	34838.87
664.45	35086.97
664.59	35049.52
664.73	34925.47
664.88	34873.98
665.02	34611.84
665.16	35014.41
665.30	35058.88
665.44	34675.04
665.59	34265.44
665.73	34562.69
665.87	34717.17
666.01	34754.61
666.15	34548.65
666.29	34373.11
666.44	34651.63
666.58	34260.76
666.72	34497.16
666.86	34532.26
667.00	34333.32
667.14	34155.44
667.28	33745.84
667.43	33682.65
667.57	33961.17
667.71	33586.69
667.85	33474.34
667.99	33804.36
668.13	33675.63
668.27	33385.40
668.41	33663.93
668.56	33071.77
668.70	33656.90
668.84	33457.96
668.98	33319.87
669.12	33347.95
669.26	32849.42
669.40	33254.33
669.54	32891.55
669.68	33284.76
669.82	33146.67
669.96	32903.25
670.10	32854.10
670.25	32952.40
670.39	32575.58
670.53	32755.80
670.67	32570.90
670.81	32788.56
670.95	32996.87
671.09	32893.89
671.23	32657.49
671.37	32882.19
671.51	32467.91
671.65	32334.50
671.79	31981.08
671.93	31730.64
672.07	32119.17
672.21	31990.44
672.35	31995.12
672.49	32037.25
672.63	32339.18
672.77	31920.23
672.91	31709.58
673.05	31559.78
673.19	31349.14
673.33	31541.06
673.47	31702.56
673.61	31435.74
673.75	31316.37
673.89	31047.21
674.03	31161.89
674.17	31091.68
674.31	30948.90
674.45	31152.53
674.59	31356.16
674.73	31255.51
674.87	31075.29
675.01	31239.13
675.15	31084.65
675.29	30740.60
675.43	31012.10
675.56	30637.61
675.70	30279.51
675.84	30263.13
675.98	29383.09
676.12	30211.64
676.26	30167.16
676.40	29972.90
676.54	30080.56
676.68	29652.25
676.82	29350.32
676.96	29495.43
677.10	29460.32
677.23	29626.50
677.37	29303.51
677.51	29280.10
677.65	29249.67
677.79	29188.82
677.93	29109.24
678.07	28940.72
678.21	28872.85
678.34	28975.83
678.48	28528.79
678.62	28914.98
678.76	28182.39
678.90	28570.92
679.04	28341.55
679.18	28540.49
679.31	28063.02
679.45	28163.67
679.59	27690.88
679.73	27840.67
679.87	27917.91
680.00	27725.99
680.14	27608.96
680.28	27608.96
680.42	27742.37
680.56	27782.16
680.70	27393.63
680.83	27414.69
680.97	27290.65
681.11	27063.61
681.25	26820.20
681.39	27028.51
681.52	26946.59
681.66	26920.84
681.80	27028.51
681.94	26761.69
682.07	26918.50
682.21	26546.36
682.35	26799.13
682.49	26291.24
682.62	26139.10
682.76	25886.32
682.90	26064.21
683.04	26242.09
683.17	25912.07
683.31	25881.64
683.45	25881.64
683.59	25572.69
683.72	25546.95
683.86	25369.07
684.00	25228.63
684.13	25340.98
684.27	25448.64
684.41	25289.49
684.55	24861.17
684.68	25240.34
684.82	24819.04
684.96	24833.08
685.09	24641.16
685.23	24774.57
685.37	24411.79
685.50	24238.59
685.64	24311.14
685.78	24491.37
685.91	24261.99
686.05	24203.48
686.19	23861.76
686.32	24191.78
686.46	23754.10
686.60	23491.96
686.73	23480.25
686.87	23545.79
687.01	23452.17
687.14	23318.76
687.28	22906.82
687.42	22916.19
687.55	22946.61
687.69	22981.72
687.82	22892.78
687.96	22944.27
688.10	22834.27
688.23	22742.99
688.37	22714.90
688.50	22532.34
688.64	22349.78
688.78	22209.34
688.91	22295.94
689.05	22450.42
689.18	22176.58
689.32	21893.37
689.46	21790.39
689.59	21961.25
689.73	22104.02
689.86	21979.97
690.00	21766.98
690.13	21785.71
690.27	21436.97
690.41	21497.82
690.54	21408.88
690.68	21095.25
690.81	21167.80
690.95	20828.43
691.08	20872.90
691.22	21076.52
691.35	20856.51
691.49	20943.11
691.62	20858.85
691.76	20613.10
691.89	20692.68
692.03	20596.71
692.16	20357.98
692.30	20374.36
692.43	20229.25
692.57	20442.24
692.70	20428.20
692.84	20297.13
692.97	19845.40
693.11	19924.98
693.24	20060.73
693.38	19822.00
693.51	19482.62
693.65	19503.68
693.78	19878.17
693.92	19625.39
694.05	19445.17
694.19	19094.09
694.32	19190.05
694.45	19068.34
694.59	18925.57
694.72	18984.09
694.86	18883.44
694.99	18960.68
695.13	18745.35
695.26	18288.95
695.39	18258.52
695.53	18633.00
695.66	18061.91
695.80	18335.76
695.93	18640.03
696.07	18195.32
696.20	18150.85
696.33	18335.76
696.47	17951.91
696.60	17940.21
696.73	17797.43
696.87	17965.95
697.00	17900.42
697.14	17614.87
697.27	17525.93
697.40	17352.73
697.54	17341.03
697.67	17345.71
697.80	17144.42
697.94	17317.62
698.07	17245.07
698.21	17252.09
698.34	17081.23
698.47	16898.67
698.61	16678.66
698.74	16688.02
698.87	16744.19
699.01	16458.65
699.14	16432.90
699.27	16299.49
699.40	16442.26
699.54	16287.79
699.67	16240.98
699.80	16027.99
699.94	16065.44
700.07	16187.14
700.20	15847.77
700.34	15847.77
700.47	15903.94
700.60	16030.33
700.73	15899.26
700.87	15833.72
701.00	15618.39
701.13	15386.68
701.26	15222.84
701.40	15559.88
701.53	15112.84
701.66	15152.63
701.79	15241.57
701.93	15147.95
702.06	14956.02
702.19	14972.41
702.32	15005.17
702.46	14745.38
702.59	14972.41
702.72	14663.46
702.85	14700.90
702.99	14773.46
703.12	14761.76
703.25	14778.14
703.38	14562.81
703.51	14403.66
703.65	14167.26
703.78	14099.39
703.91	14260.88
704.04	14209.39
704.17	14022.15
704.31	13860.65
704.44	13862.99
704.57	13481.49
704.70	13689.79
704.83	13673.41
704.96	13799.80
705.10	13839.59
705.23	13675.75
>>>>>End Processed Spectral Data<<<<<
