SpectraSuite Data File
++++++++++++++++++++++++++++++++++++
Date: Fri Oct 25 11:22:31 EDT 2013
User: price-jones
Dark Spectrum Present: No
Reference Spectrum Present: No
Number of Sampled Component Spectra: 1
Spectrometers: USB2+H05261
Integration Time (usec): 100000 (USB2+H05261)
Spectra Averaged: 1 (USB2+H05261)
Boxcar Smoothing: 0 (USB2+H05261)
Correct for Electrical Dark: No (USB2+H05261)
Strobe/Lamp Enabled: No (USB2+H05261)
Correct for Detector Non-linearity: No (USB2+H05261)
Correct for Stray Light: No (USB2+H05261)
Number of Pixels in Processed Spectrum: 2048
>>>>>Begin Processed Spectral Data<<<<<
365.73	257.46
365.92	257.46
366.12	257.46
366.32	168.52
366.52	180.22
366.72	117.03
366.91	114.69
367.11	131.07
367.31	142.77
367.51	105.32
367.70	112.35
367.90	117.03
368.10	105.32
368.30	131.07
368.49	149.79
368.69	187.24
368.89	145.11
369.09	163.84
369.28	147.45
369.48	138.09
369.68	147.45
369.87	170.86
370.07	212.99
370.27	243.42
370.47	339.38
370.66	622.58
370.86	594.50
371.06	587.47
371.25	688.12
371.45	620.24
371.65	713.86
371.84	697.48
372.04	741.95
372.24	765.36
372.44	713.86
372.63	697.48
372.83	800.46
373.03	763.01
373.22	730.25
373.42	727.91
373.62	774.72
373.81	702.16
374.01	807.48
374.21	919.83
374.40	826.21
374.60	919.83
374.79	758.33
374.99	755.99
375.19	880.04
375.38	901.11
375.58	858.98
375.78	807.48
375.97	882.38
376.17	870.68
376.37	856.64
376.56	800.46
376.76	840.25
376.95	884.72
377.15	889.40
377.35	866.00
377.54	842.59
377.74	924.51
377.93	901.11
378.13	908.13
378.33	940.90
378.52	851.96
378.72	887.06
378.91	877.70
379.11	938.55
379.31	957.28
379.50	926.85
379.70	954.94
379.89	1039.20
380.09	940.90
380.28	959.62
380.48	936.21
380.68	1006.43
380.87	905.79
381.07	910.47
381.26	1046.22
381.46	954.94
381.65	1025.15
381.85	1064.94
382.04	1020.47
382.24	1088.35
382.43	1074.31
382.63	1022.81
382.83	1006.43
383.02	1090.69
383.22	1153.88
383.41	1041.54
383.61	1170.27
383.80	1130.48
384.00	1104.73
384.19	1114.10
384.39	1163.25
384.58	1093.03
384.78	1210.06
384.97	1224.10
385.17	1064.94
385.36	1214.74
385.56	1181.97
385.75	1259.21
385.95	1121.12
386.14	1212.40
386.34	1179.63
386.53	1261.55
386.72	1301.34
386.92	1207.72
387.11	1226.44
387.31	1320.06
387.50	1289.64
387.70	1287.29
387.89	1322.40
388.09	1217.08
388.28	1259.21
388.48	1291.98
388.67	1289.64
388.86	1336.45
389.06	1322.40
389.25	1310.70
389.45	1373.89
389.64	1317.72
389.84	1453.47
390.03	1409.00
390.22	1327.08
390.42	1387.94
390.61	1385.60
390.81	1343.47
391.00	1397.30
391.19	1369.21
391.39	1495.60
391.58	1483.90
391.78	1502.62
391.97	1385.60
392.16	1476.88
392.36	1437.09
392.55	1554.12
392.75	1399.64
392.94	1586.88
393.13	1460.49
393.33	1488.58
393.52	1511.99
393.71	1572.84
393.91	1511.99
394.10	1577.52
394.29	1563.48
394.49	1544.75
394.68	1582.20
394.88	1666.46
395.07	1636.03
395.26	1647.74
395.46	1577.52
395.65	1727.32
395.84	1753.06
396.04	1799.87
396.23	1767.10
396.42	1774.13
396.62	1776.47
396.81	1790.51
397.00	1746.04
397.19	1732.00
397.39	1811.57
397.58	1834.98
397.77	1842.00
397.97	1907.54
398.16	1919.24
398.35	1921.58
398.55	1977.75
398.74	1959.03
398.93	1935.62
399.12	1902.86
399.32	1980.09
399.51	2008.18
399.70	1928.60
399.90	1888.81
400.09	1982.43
400.28	2059.67
400.47	2108.82
400.67	2120.53
400.86	2029.24
401.05	2111.16
401.24	2008.18
401.44	1977.75
401.63	2078.40
401.82	2176.70
402.01	2141.59
402.21	2209.47
402.40	2125.21
402.59	2214.15
402.78	2246.91
402.97	2265.64
403.17	2216.49
403.36	2207.13
403.55	2310.11
403.74	2328.83
403.93	2368.62
404.13	2387.35
404.32	2303.09
404.51	2471.61
404.70	2406.07
404.89	2516.08
405.09	2499.69
405.28	2385.01
405.47	2523.10
405.66	2429.48
405.85	2539.48
406.05	2607.36
406.24	2623.74
406.43	2569.91
406.62	2663.53
406.81	2715.02
407.00	2565.23
407.20	2558.21
407.39	2626.08
407.58	2684.59
407.77	2759.49
407.96	2839.07
408.15	2789.92
408.34	2743.11
408.54	2785.24
408.73	2855.45
408.92	2757.15
409.11	2794.60
409.30	2949.08
409.49	2918.65
409.68	3012.27
409.87	2906.95
410.07	2972.48
410.26	3096.53
410.45	2935.03
410.64	3136.32
410.83	3030.99
411.02	3241.64
411.21	3141.00
411.40	3117.59
411.59	3260.37
411.78	3274.41
411.98	3098.87
412.17	3281.43
412.36	3358.67
412.55	3417.18
412.74	3389.10
412.93	3559.95
413.12	3204.19
413.31	3583.36
413.50	3386.76
413.69	3503.78
413.88	3702.73
414.07	3543.57
414.26	3604.42
414.45	3590.38
414.64	3730.81
414.83	3667.62
415.02	3749.54
415.22	3777.62
415.41	3819.75
415.60	4018.70
415.79	3974.23
415.98	4093.60
416.17	3918.06
416.36	3915.72
416.55	4107.64
416.74	4074.87
416.93	4056.15
417.12	4086.58
417.31	4098.28
417.50	4177.86
417.69	4273.82
417.88	4325.31
418.07	4325.31
418.26	4280.84
418.45	4325.31
418.64	4393.19
418.83	4493.83
419.02	4512.55
419.21	4552.34
419.39	4573.41
419.58	4479.79
419.77	4505.53
419.96	4550.00
420.15	4634.26
420.34	4734.90
420.53	4648.30
420.72	4739.58
420.91	4739.58
421.10	4624.90
421.29	4777.03
421.48	4807.46
421.67	4718.52
421.86	4748.95
422.05	4837.89
422.24	4685.75
422.43	4990.02
422.61	4880.02
422.80	4945.55
422.99	5025.13
423.18	5076.62
423.37	4964.28
423.56	5011.09
423.75	5062.58
423.94	4877.68
424.13	4704.48
424.32	4889.38
424.50	4940.87
424.69	5090.67
424.88	5135.14
425.07	5050.88
425.26	4929.17
425.45	5022.79
425.64	4968.96
425.83	5050.88
426.01	5074.28
426.20	5032.15
426.39	5036.83
426.58	5095.35
426.77	5104.71
426.96	5132.79
427.15	5057.90
427.33	5137.48
427.52	5029.81
427.71	5313.02
427.90	5226.42
428.09	5298.97
428.28	5338.76
428.46	5404.30
428.65	5320.04
428.84	5502.60
429.03	5547.07
429.22	5378.55
429.40	5458.13
429.59	5533.03
429.78	5310.68
429.97	5294.29
430.16	5605.58
430.34	5596.22
430.53	5652.39
430.72	5853.68
430.91	5731.97
431.10	5713.25
431.28	5621.97
431.47	5900.49
431.66	5844.32
431.85	5865.38
432.03	5856.02
432.22	6094.76
432.41	5930.92
432.60	5907.51
432.79	5856.02
432.97	6092.41
433.16	6150.93
433.35	5994.11
433.54	6237.53
433.72	6071.35
433.91	6216.46
434.10	6300.72
434.28	6153.27
434.47	6127.52
434.66	6282.00
434.85	6384.98
435.03	6352.21
435.22	6235.19
435.41	6403.71
435.59	6562.86
435.78	6436.47
435.97	6565.20
436.16	6532.44
436.34	6431.79
436.53	6626.06
436.72	6546.48
436.90	6558.18
437.09	6780.53
437.28	6633.08
437.46	6614.35
437.65	6595.63
437.84	6939.69
438.02	6642.44
438.21	6822.66
438.40	6754.79
438.58	7199.49
438.77	7176.08
438.96	6967.77
439.14	7234.60
439.33	7318.86
439.52	7321.20
439.70	7314.17
439.89	7428.86
440.08	7468.65
440.26	7559.93
440.45	7524.82
440.63	7470.99
440.82	7695.68
441.01	7590.36
441.19	7531.84
441.38	7805.69
441.57	7833.77
441.75	7789.30
441.94	8142.72
442.12	7911.01
442.31	8140.38
442.50	7985.91
442.68	8053.78
442.87	8056.12
443.05	8252.73
443.24	8322.94
443.43	8414.23
443.61	8365.07
443.80	8517.21
443.98	8222.30
444.17	8037.40
444.35	8194.22
444.54	8271.45
444.73	8388.48
444.91	8505.51
445.10	8526.57
445.28	8411.89
445.47	8327.63
445.65	8409.54
445.84	8449.33
446.02	8549.98
446.21	8655.30
446.39	8571.04
446.58	8652.96
446.77	8596.79
446.95	8662.32
447.14	8327.63
447.32	8575.72
447.51	8479.76
447.69	8713.81
447.88	8524.23
448.06	8702.11
448.25	8690.41
448.43	8554.66
448.62	8643.60
448.80	8772.33
448.99	8671.68
449.17	8798.07
449.36	8650.62
449.54	8844.88
449.73	9121.07
449.91	9142.13
450.10	9046.17
450.28	9163.20
450.46	9118.73
450.65	9247.46
450.83	9046.17
451.02	9167.88
451.20	9303.63
451.39	9109.36
451.57	9095.32
451.76	9198.31
451.94	9338.74
452.13	9467.47
452.31	9153.84
452.49	9329.38
452.68	9418.32
452.86	9303.63
453.05	9678.12
453.23	9668.75
453.42	9413.63
453.60	9617.26
453.78	9701.52
453.97	9689.82
454.15	9570.45
454.34	9715.56
454.52	9930.89
454.70	9710.88
454.89	10043.24
455.07	9722.59
455.26	9975.36
455.44	9905.15
455.62	10087.71
455.81	10068.98
455.99	10228.14
456.17	10122.82
456.36	10052.60
456.54	10459.85
456.73	10422.41
456.91	10434.11
457.09	10857.75
457.28	10738.38
457.46	10284.31
457.64	10693.91
457.83	10654.12
458.01	10501.98
458.19	10729.02
458.38	10733.70
458.56	10916.26
458.74	10729.02
458.93	10750.08
459.11	10998.18
459.29	11183.08
459.48	10867.11
459.66	10841.36
459.84	10988.82
460.03	11035.63
460.21	11005.20
460.39	11066.05
460.57	11321.17
460.76	11375.00
460.94	11407.77
461.12	11426.50
461.31	11276.70
461.49	11262.66
461.67	11297.77
461.85	11538.84
462.04	11288.40
462.22	11992.90
462.40	11559.91
462.59	11573.95
462.77	11667.57
462.95	11925.03
463.13	11784.60
463.32	11604.38
463.50	11985.88
463.68	12006.95
463.86	12025.67
464.05	11756.51
464.23	11707.36
464.41	11908.65
464.59	11707.36
464.78	12102.91
464.96	12088.87
465.14	11988.22
465.32	12086.53
465.50	12138.02
465.69	12402.50
465.87	12393.14
466.05	12524.21
466.23	12255.04
466.41	12173.13
466.60	12585.06
466.78	12191.85
466.96	12313.56
467.14	12306.54
467.32	12376.75
467.51	12734.85
467.69	12601.44
467.87	12631.87
468.05	12842.52
468.23	12442.29
468.41	12493.78
468.60	12603.78
468.78	12791.03
468.96	12851.88
469.14	13062.53
469.32	13137.43
469.50	12753.58
469.69	13060.19
469.87	13153.81
470.05	13392.55
470.23	13331.69
470.41	13284.88
470.59	13458.08
470.77	13107.00
470.95	13378.50
471.14	13682.77
471.32	13411.27
471.50	13760.01
471.68	13898.10
471.86	13680.43
472.04	13572.77
472.22	14071.30
472.40	13673.41
472.58	14012.79
472.77	14459.83
472.95	14335.78
473.13	14700.90
473.31	14127.47
473.49	14541.75
473.67	14492.60
473.85	14366.21
474.03	14642.39
474.21	14792.19
474.39	14822.61
474.57	14782.82
474.75	15044.96
474.93	15014.54
475.12	15183.06
475.30	15234.55
475.48	15129.22
475.66	15325.83
475.84	14867.08
476.02	15784.57
476.20	15456.90
476.38	15683.93
476.56	16196.51
476.74	16109.91
476.92	16107.57
477.10	15983.52
477.28	16329.92
477.46	16531.20
477.64	16430.56
477.82	16779.30
478.00	17254.43
478.18	16917.39
478.36	17146.76
478.54	17341.03
478.72	17486.14
478.90	17392.52
479.08	17813.82
479.26	17860.63
479.44	17759.98
479.62	17951.91
479.80	18312.35
479.98	18160.22
480.16	18860.04
480.34	18422.36
480.52	19026.21
480.70	18977.06
480.88	18555.77
481.06	18640.03
481.24	19360.91
481.41	18897.49
481.59	19646.46
481.77	19934.34
481.95	19648.80
482.13	20095.84
482.31	19775.19
482.49	20496.07
482.67	20308.83
482.85	20472.67
483.03	20720.76
483.21	20884.60
483.39	21184.19
483.57	21273.13
483.74	21439.31
483.92	21589.10
484.10	21256.75
484.28	21912.10
484.46	22066.57
484.64	22745.33
484.82	22064.23
485.00	22546.38
485.18	22750.01
485.35	23007.47
485.53	23021.51
485.71	23248.54
485.89	23896.87
486.07	23594.94
486.25	23419.40
486.43	23599.62
486.61	24032.62
486.78	24058.37
486.96	24201.14
487.14	25020.33
487.32	24793.29
487.50	25163.10
487.68	25069.48
487.85	25633.55
488.03	25928.45
488.21	26169.53
488.39	26267.83
488.57	26099.31
488.75	26499.55
488.92	26689.13
489.10	27131.49
489.28	26843.60
489.46	27613.64
489.64	27625.34
489.81	27990.47
489.99	27931.95
490.17	28037.28
490.35	28437.51
490.53	28762.84
490.70	28542.83
490.88	28489.00
491.06	28863.49
491.24	29315.21
491.41	29516.50
491.59	29460.32
491.77	29495.43
491.95	29876.94
492.13	30476.12
492.30	30197.59
492.48	30923.16
492.66	30338.02
492.84	30869.33
493.01	31072.95
493.19	31285.94
493.37	31157.21
493.54	31395.95
493.72	31653.40
493.90	31679.15
494.08	31920.23
494.25	31985.76
494.43	32486.64
494.61	32231.52
494.79	33099.86
494.96	32854.10
495.14	33240.29
495.32	33539.88
495.49	33806.70
495.67	33956.49
495.85	33818.40
496.02	34291.19
496.20	34501.84
496.38	34284.17
496.55	34230.33
496.73	35363.15
496.91	35271.87
497.09	35323.36
497.26	35290.60
497.44	35505.93
497.62	35517.63
497.79	36081.70
497.97	35840.62
498.14	36355.54
498.32	36404.69
498.50	36404.69
498.67	37266.01
498.85	36477.25
499.03	37347.93
499.20	37060.04
499.38	37191.11
499.56	37420.48
499.73	36950.04
499.91	37715.39
500.08	37993.92
500.26	37455.59
500.44	38171.80
500.61	38139.03
500.79	38220.95
500.97	38660.97
501.14	39009.71
501.32	39161.84
501.49	38726.50
501.67	39290.57
501.84	39342.06
502.02	39325.68
502.20	39077.58
502.37	39981.03
502.55	39882.73
502.72	39695.49
502.90	39618.25
503.07	39819.53
503.25	40318.07
503.43	40198.70
503.60	40680.85
503.78	40708.94
503.95	41020.23
504.13	41116.19
504.30	41057.68
504.48	40847.03
504.65	41174.70
504.83	41385.35
505.01	41656.85
505.18	41757.50
505.36	42033.68
505.53	41577.28
505.71	42021.98
505.88	42363.70
506.06	41766.86
506.23	42195.18
506.41	42490.09
506.58	42480.72
506.76	42813.08
506.93	43075.22
507.11	42792.01
507.28	43192.25
507.46	43100.97
507.63	43377.15
507.81	43768.02
507.98	43257.78
508.16	43622.90
508.33	43770.36
508.50	43868.66
508.68	43929.51
508.85	44439.75
509.03	44526.35
509.20	44758.06
509.38	44547.42
509.55	44828.28
509.73	45015.52
509.90	44746.36
510.08	44367.20
510.25	45397.03
510.42	45413.41
510.60	45020.20
510.77	45492.99
510.95	45600.66
511.12	45186.38
511.30	45869.82
511.47	45797.26
511.64	46010.25
511.82	46047.70
511.99	46136.64
512.17	46412.82
512.34	45722.37
512.51	46483.04
512.69	46714.75
512.86	46422.19
513.04	47030.72
513.21	47501.17
513.38	47150.09
513.56	47381.80
513.73	47021.36
513.90	47585.43
514.08	47255.42
514.25	47676.71
514.43	48011.41
514.60	47849.91
514.77	47861.61
514.95	48128.44
515.12	48161.20
515.29	47885.02
515.47	47983.32
515.64	48708.89
515.81	48575.48
515.99	48638.67
516.16	48797.83
516.33	49043.59
516.51	49287.00
516.68	49062.31
516.85	48971.03
517.03	49478.92
517.20	49200.40
517.37	49228.49
517.54	49092.74
517.72	49382.96
517.89	49352.54
518.06	49621.70
518.24	49499.99
518.41	49443.82
518.58	49607.65
518.75	49661.49
518.93	49832.35
519.10	49684.89
519.27	50277.05
519.45	50106.19
519.62	50508.76
519.79	50075.76
519.96	50134.28
520.14	50731.11
520.31	50501.74
520.48	50497.06
520.65	50752.18
520.83	51178.15
521.00	51208.58
521.17	51171.13
521.34	51000.27
521.52	51159.43
521.69	51199.22
521.86	51573.70
522.03	51239.01
522.20	51725.84
522.38	51606.47
522.55	51655.62
522.72	51597.11
522.89	51540.94
523.07	52006.70
523.24	51927.13
523.41	52088.62
523.58	51896.70
523.75	52282.89
523.92	52229.05
524.10	52612.90
524.27	52467.79
524.44	52460.77
524.61	52392.89
524.78	52769.72
524.96	52575.45
525.13	52734.61
525.30	52891.43
525.47	52750.99
525.64	53003.77
525.81	52879.72
525.98	53188.67
526.16	52804.83
526.33	53315.06
526.50	53312.72
526.67	53198.04
526.84	53347.83
527.01	53095.05
527.18	53198.04
527.36	53441.45
527.53	53546.78
527.70	53425.07
527.87	53476.56
528.04	53214.42
528.21	53633.38
528.38	53820.62
528.55	53956.37
528.72	53652.10
528.89	53794.87
529.07	53659.12
529.24	53944.67
529.41	54057.01
529.58	54028.93
529.75	53972.75
529.92	54054.67
530.09	54328.52
530.26	54436.18
530.43	54340.22
530.60	54237.23
530.77	54429.16
530.94	54581.29
531.11	54344.90
531.28	54160.00
531.46	54525.12
531.63	54532.14
531.80	54794.28
531.97	54791.94
532.14	55103.23
532.31	54962.80
532.48	54990.89
532.65	54864.50
532.82	54747.47
532.99	54859.82
533.16	54714.70
533.33	55304.52
533.50	55374.73
533.67	55145.36
533.84	54972.16
534.01	55524.53
534.18	55124.30
534.35	55536.23
534.52	55627.51
534.69	55552.62
534.86	55590.06
535.03	55473.04
535.20	55868.59
535.37	55688.37
535.54	55756.24
535.71	55491.76
535.88	55695.39
536.05	55454.31
536.22	55880.29
536.38	55882.63
536.55	55772.63
536.72	55826.46
536.89	55671.98
537.06	55971.57
537.23	55875.61
537.40	56041.79
537.57	56123.71
537.74	56163.50
537.91	56423.29
538.08	56219.67
538.25	55994.98
538.42	56268.82
538.59	56463.08
538.75	56175.20
538.92	56217.33
539.09	56327.33
539.26	56521.60
539.43	56285.20
539.60	56559.05
539.77	56671.39
539.94	56989.70
540.11	56603.52
540.28	56753.31
540.44	57017.79
540.61	56699.48
540.78	56701.82
540.95	56694.80
541.12	56673.73
541.29	56802.46
541.46	56975.66
541.62	57095.03
541.79	56839.91
541.96	56797.78
542.13	56779.06
542.30	56938.21
542.47	57106.73
542.63	57202.69
542.80	57195.67
542.97	57272.91
543.14	57572.50
543.31	57626.33
543.48	57373.55
543.64	57705.91
543.81	57696.55
543.98	57357.17
544.15	57684.84
544.32	57804.21
544.48	57815.91
544.65	57481.22
544.82	57485.90
544.99	57602.92
545.16	57645.05
545.32	57577.18
545.49	57932.94
545.66	58064.01
545.83	57977.41
546.00	58181.04
546.16	58010.18
546.33	57902.51
546.50	57965.71
546.67	58085.07
546.83	57712.93
547.00	58087.42
547.17	57930.60
547.34	58014.86
547.50	58171.67
547.67	58284.02
547.84	58274.66
548.00	58309.77
548.17	58482.97
548.34	58279.34
548.51	58497.01
548.67	58419.77
548.84	58387.00
549.01	58410.41
549.18	58529.78
549.34	58518.07
549.51	58433.81
549.68	58422.11
549.84	58394.03
550.01	58632.76
550.18	58646.80
550.34	58539.14
550.51	58775.53
550.68	58592.97
550.84	58681.91
551.01	59000.22
551.18	58747.45
551.34	58885.54
551.51	58742.77
551.68	58784.90
551.84	58944.05
552.01	58787.24
552.18	58993.20
552.34	58688.93
552.51	59100.87
552.68	58960.44
552.84	59028.31
553.01	59323.22
553.18	59079.80
553.34	59332.58
553.51	59047.04
553.67	59093.85
553.84	59292.79
554.01	59192.15
554.17	59320.88
554.34	59007.25
554.51	59407.48
554.67	59309.18
554.84	59299.81
555.00	59250.66
555.17	59119.59
555.33	59206.19
555.50	59231.94
555.67	59199.17
555.83	59505.78
556.00	59482.37
556.16	59676.64
556.33	59634.51
556.50	59667.28
556.66	59810.05
556.83	59412.16
556.99	59781.96
557.16	59805.37
557.32	59814.73
557.49	59716.43
557.65	59540.89
557.82	59583.02
557.98	59669.62
558.15	59737.49
558.32	59627.49
558.48	59580.68
558.65	59657.91
558.81	59770.26
558.98	59882.61
559.14	59730.47
559.31	59934.10
559.47	59924.74
559.64	60004.31
559.80	60203.26
559.97	59817.07
560.13	59927.08
560.30	60020.70
560.46	59798.35
560.63	60072.19
560.79	60236.03
560.96	60053.47
561.12	60177.51
561.29	59936.44
561.45	60210.28
561.61	59896.65
561.78	60186.88
561.94	59915.37
562.11	60271.14
562.27	60322.63
562.44	60343.69
562.60	60273.48
562.77	60231.35
562.93	59873.24
563.10	60294.54
563.26	60121.34
563.42	60434.97
563.59	60285.18
563.75	60264.11
563.92	60186.88
564.08	60273.48
564.24	60533.28
564.41	60404.55
564.57	60514.55
564.74	60310.92
564.90	60411.57
565.07	60404.55
565.23	60413.91
565.39	60446.68
565.56	60544.98
565.72	60568.38
565.88	60434.97
566.05	60301.56
566.21	60374.12
566.38	60603.49
566.54	60580.09
566.70	60680.73
566.87	60652.64
567.03	60388.16
567.19	60640.94
567.36	60589.45
567.52	60374.12
567.68	60666.69
567.85	60809.46
568.01	60556.68
568.17	60622.22
568.34	60722.86
568.50	60441.99
568.66	60575.40
568.83	60626.90
568.99	60533.28
569.15	60669.03
569.32	60638.60
569.48	60764.99
569.64	60818.82
569.81	60619.88
569.97	60647.96
570.13	60853.93
570.30	60575.40
570.46	60699.45
570.62	60659.66
570.78	60687.75
570.95	60741.58
571.11	60781.37
571.27	60832.86
571.43	60750.94
571.60	60903.08
571.76	60907.76
571.92	60542.64
572.09	60629.24
572.25	60928.83
572.41	60697.11
572.57	60945.21
572.74	61148.84
572.90	60858.61
573.06	61013.08
573.22	60912.44
573.38	60867.97
573.55	60886.70
573.71	61151.18
573.87	60921.80
574.03	60764.99
574.20	60774.35
574.36	60793.07
574.52	60989.68
574.68	60931.17
574.84	61085.64
575.01	61041.17
575.17	60860.95
575.33	60914.78
575.49	60966.27
575.65	61062.24
575.82	60933.51
575.98	61050.53
576.14	61214.37
576.30	61123.09
576.46	60905.42
576.62	61015.43
576.79	61087.98
576.95	61008.40
577.11	61212.03
577.27	61132.45
577.43	61052.87
577.59	61031.81
577.75	60839.89
577.92	60879.67
578.08	61090.32
578.24	61179.26
578.40	61364.17
578.56	61172.24
578.72	61048.19
578.88	61190.97
579.04	60996.70
579.21	61216.71
579.37	61286.93
579.53	61085.64
579.69	60903.08
579.85	61041.17
580.01	61247.14
580.17	61013.08
580.33	61120.75
580.49	61165.22
580.65	61029.47
580.82	61055.21
580.98	61048.19
581.14	61158.20
581.30	61389.91
581.46	61195.65
581.62	61209.69
581.78	61172.24
581.94	61326.72
582.10	61020.11
582.26	61230.75
582.42	61352.46
582.58	61148.84
582.74	61413.32
582.90	61172.24
583.06	61174.58
583.22	61015.43
583.38	61310.33
583.54	61268.20
583.70	61181.60
583.86	61296.29
584.02	61125.43
584.18	61275.22
584.34	61233.10
584.50	61378.21
584.66	61270.54
584.82	60828.18
584.98	61256.50
585.14	61399.27
585.30	61153.52
585.46	61207.35
585.62	61375.87
585.78	61324.38
585.94	61209.69
586.10	61324.38
586.26	61413.32
586.42	61188.63
586.58	61270.54
586.74	61223.73
586.90	61293.95
587.06	61214.37
587.22	61247.14
587.38	61410.98
587.54	61331.40
587.70	61661.41
587.86	61499.92
588.02	61331.40
588.18	61296.29
588.34	61298.63
588.49	61071.60
588.65	61240.12
588.81	61453.11
588.97	61581.84
589.13	61544.39
589.29	61298.63
589.45	61579.49
589.61	61366.51
589.77	61530.34
589.93	61422.68
590.08	61558.43
590.24	61626.31
590.40	61841.63
590.56	61666.09
590.72	61535.02
590.88	61467.15
591.04	61623.96
591.20	61836.95
591.35	61633.33
591.51	61996.11
591.67	61691.84
591.83	61680.14
591.99	61698.86
592.15	61581.84
592.31	61614.60
592.46	61623.96
592.62	61530.34
592.78	61675.46
592.94	61986.75
593.10	61811.21
593.26	61745.67
593.41	61623.96
593.57	61825.25
593.73	61485.87
593.89	61874.40
594.05	61801.85
594.20	61663.75
594.36	61740.99
594.52	61872.06
594.68	61640.35
594.84	61602.90
594.99	61776.10
595.15	61771.42
595.31	61804.19
595.47	61635.67
595.62	61687.16
595.78	61743.33
595.94	61780.78
596.10	62110.80
596.25	61726.95
596.41	61748.01
596.57	61930.58
596.73	61825.25
596.88	61874.40
597.04	61965.68
597.20	61902.49
597.36	61942.28
597.51	62080.37
597.67	61787.80
597.83	61909.51
597.99	61965.68
598.14	61825.25
598.30	62164.63
598.46	61986.75
598.61	61975.05
598.77	61867.38
598.93	61778.44
599.09	61635.67
599.24	62246.55
599.40	62122.50
599.56	61949.30
599.71	61790.14
599.87	61996.11
600.03	61787.80
600.18	61836.95
600.34	61956.32
600.50	62281.66
600.65	62122.50
600.81	62110.80
600.97	62038.24
601.12	62024.20
601.28	61729.29
601.44	61946.96
601.59	61968.02
601.75	62031.22
601.91	62101.43
602.06	62190.37
602.22	62197.40
602.37	61961.00
602.53	61984.41
602.69	61918.87
602.84	61853.34
603.00	62000.79
603.16	62113.14
603.31	62005.47
603.47	62089.73
603.62	61986.75
603.78	61909.51
603.94	62169.31
604.09	62216.12
604.25	61949.30
604.40	62120.16
604.56	62026.54
604.71	62181.01
604.87	61949.30
605.03	62117.82
605.18	62092.07
605.34	61968.02
605.49	61893.13
605.65	62152.93
605.80	61937.60
605.96	62085.05
606.12	61993.77
606.27	61942.28
606.43	61937.60
606.58	62028.88
606.74	61928.23
606.89	61806.53
607.05	61822.91
607.20	62211.44
607.36	61876.74
607.51	61904.83
607.67	61839.29
607.82	61701.20
607.98	61932.92
608.13	61932.92
608.29	61895.47
608.44	61836.95
608.60	61900.15
608.75	61827.59
608.91	61474.17
609.06	61717.59
609.22	61953.98
609.37	61724.61
609.53	61869.72
609.68	61925.89
609.84	61951.64
609.99	61886.10
610.15	61893.13
610.30	61918.87
610.46	61923.55
610.61	61862.70
610.76	62026.54
610.92	61668.44
611.07	61652.05
611.23	61794.82
611.38	61893.13
611.54	61745.67
611.69	61822.91
611.84	61771.42
612.00	61914.19
612.15	61792.48
612.31	61748.01
612.46	61647.37
612.62	61673.12
612.77	61691.84
612.92	61855.68
613.08	61740.99
613.23	61722.27
613.39	61607.58
613.54	61621.62
613.69	61766.74
613.85	61607.58
614.00	61647.37
614.15	61935.26
614.31	61619.28
614.46	61638.01
614.62	61558.43
614.77	61469.49
614.92	61836.95
615.08	61607.58
615.23	61539.71
615.38	61598.22
615.54	61546.73
615.69	61691.84
615.84	61652.05
616.00	61443.74
616.15	61492.89
616.30	61846.32
616.46	61460.13
616.61	61476.51
616.76	61602.90
616.92	61394.59
617.07	61450.77
617.22	61277.57
617.37	61446.08
617.53	61769.08
617.68	61769.08
617.83	61640.35
617.99	61483.53
618.14	61567.79
618.29	61518.64
618.45	61392.25
618.60	61364.17
618.75	61240.12
618.90	61425.02
619.06	61584.18
619.21	61209.69
619.36	61645.03
619.51	61364.17
619.67	61193.31
619.82	61219.05
619.97	61249.48
620.12	61261.18
620.28	61336.08
620.43	61378.21
620.58	61317.35
620.73	61113.73
620.89	61111.39
621.04	61387.57
621.19	61310.33
621.34	61167.56
621.49	61048.19
621.65	61373.53
621.80	61453.11
621.95	60928.83
622.10	61155.86
622.25	61008.40
622.41	61036.49
622.56	61284.59
622.71	61109.05
622.86	60893.72
623.01	60973.30
623.16	60903.08
623.32	61048.19
623.47	61055.21
623.62	61095.00
623.77	60896.06
623.92	61095.00
624.07	61001.38
624.23	61102.03
624.38	61076.28
624.53	60860.95
624.68	60949.89
624.83	61111.39
624.98	61127.77
625.13	60734.56
625.29	60985.00
625.44	60903.08
625.59	60748.60
625.74	60757.97
625.89	60739.24
626.04	60596.47
626.19	60652.64
626.34	60704.13
626.49	60537.96
626.65	60720.52
626.80	60720.52
626.95	60535.62
627.10	60662.00
627.25	60683.07
627.40	60423.27
627.55	60547.32
627.70	60549.66
627.85	60554.34
628.00	60479.44
628.15	60636.26
628.30	60465.40
628.45	60622.22
628.60	60449.02
628.76	60561.36
628.91	60626.90
629.06	60610.51
629.21	60676.05
629.36	60533.28
629.51	60353.05
629.66	60470.08
629.81	60416.25
629.96	60224.32
630.11	60395.18
630.26	60369.44
630.41	60315.61
630.56	60355.39
630.71	60273.48
630.86	60404.55
631.01	60179.85
631.16	60432.63
631.31	60069.85
631.46	60009.00
631.61	60245.39
631.76	60182.19
631.91	60383.48
632.06	60348.37
632.21	60397.52
632.36	60200.92
632.51	60067.51
632.66	60121.34
632.81	60198.58
632.96	60186.88
633.10	60198.58
633.25	60348.37
633.40	60046.44
633.55	60137.72
633.70	60104.96
633.85	59793.67
634.00	59999.63
634.15	60039.42
634.30	59868.56
634.45	59990.27
634.60	60261.77
634.75	60259.43
634.90	59770.26
635.05	59948.14
635.19	59828.77
635.34	60200.92
635.49	59704.73
635.64	59983.25
635.79	60013.68
635.94	59920.05
636.09	59826.43
636.24	59737.49
636.39	59800.69
636.53	60062.83
636.68	59807.71
636.83	59540.89
636.98	60023.04
637.13	59627.49
637.28	59566.63
637.43	59667.28
637.57	59683.66
637.72	59627.49
637.87	59526.84
638.02	59732.81
638.17	59714.09
638.32	59650.89
638.46	59632.17
638.61	59657.91
638.76	59416.84
638.91	59622.81
639.06	59484.72
639.20	59676.64
639.35	59522.16
639.50	59152.36
639.65	59367.69
639.80	59519.82
639.94	59526.84
640.09	59381.73
640.24	59440.24
640.39	59400.46
640.54	59313.86
640.68	59606.42
640.83	59402.80
640.98	59236.62
641.13	59367.69
641.27	59632.17
641.42	59192.15
641.57	59054.06
641.72	59229.60
641.86	59309.18
642.01	59070.44
642.16	59143.00
642.31	59089.16
642.45	59440.24
642.60	59276.41
642.75	59428.54
642.90	59367.69
643.04	59231.94
643.19	59206.19
643.34	59402.80
643.48	59114.91
643.63	59220.23
643.78	59260.02
643.93	59063.42
644.07	59105.55
644.22	59054.06
644.37	58953.41
644.51	58937.03
644.66	58932.35
644.81	58995.54
644.95	59086.82
645.10	59047.04
645.25	58988.52
645.39	58705.32
645.54	58745.11
645.69	58585.95
645.83	58976.82
645.98	58681.91
646.13	58883.20
646.27	58859.79
646.42	58597.65
646.57	58506.37
646.71	58869.15
646.86	58955.75
647.00	58841.07
647.15	58712.34
647.30	58700.64
647.44	58604.67
647.59	58857.45
647.74	58787.24
647.88	58756.81
648.03	58782.55
648.17	58754.47
648.32	58597.65
648.47	58609.35
648.61	58532.12
648.76	58487.65
648.90	58574.25
649.05	58677.23
649.20	58599.99
649.34	58693.61
649.49	58291.04
649.63	58710.00
649.78	58656.17
649.92	58525.10
650.07	58494.67
650.21	58244.23
650.36	58408.07
650.51	58415.09
650.65	58614.04
650.80	58527.44
650.94	58262.96
651.09	58195.08
651.23	58131.89
651.38	58382.32
651.52	58337.85
651.67	58251.25
651.81	58307.43
651.96	58288.70
652.10	58277.00
652.25	57942.30
652.39	58342.53
652.54	58064.01
652.68	57778.46
652.83	58202.10
652.97	58220.83
653.12	58108.48
653.26	58026.56
653.41	58031.24
653.55	58129.54
653.70	57932.94
653.84	58021.88
653.99	58178.70
654.13	57982.09
654.27	57855.70
654.42	57900.17
654.56	57790.17
654.71	57970.39
654.85	57827.62
655.00	57939.96
655.14	57759.74
655.29	57600.58
655.43	57907.19
655.57	57710.59
655.72	57815.91
655.86	57888.47
656.01	57563.14
656.15	57689.52
656.30	57750.38
656.44	58082.73
656.58	57867.40
656.73	57853.36
656.87	57954.00
657.01	57785.49
657.16	58010.18
657.30	57504.62
657.45	57659.10
657.59	57532.71
657.73	57361.85
657.88	57389.94
658.02	57609.95
658.16	57429.72
658.31	57490.58
658.45	57453.13
658.60	57371.21
658.74	57406.32
658.88	57698.89
659.03	57331.42
659.17	57270.57
659.31	57450.79
659.46	57183.97
659.60	57076.30
659.74	57092.69
659.89	57275.25
660.03	57102.05
660.17	56931.19
660.32	57120.77
660.46	56921.83
660.60	56797.78
660.74	56842.25
660.89	57190.99
661.03	56870.34
661.17	56769.69
661.32	56809.48
661.46	56807.14
661.60	56800.12
661.74	56865.66
661.89	56521.60
662.03	56662.03
662.17	56619.90
662.31	56540.32
662.46	56633.94
662.60	56493.51
662.74	56385.85
662.88	56149.45
663.03	56427.98
663.17	56570.75
663.31	56163.50
663.45	56303.93
663.60	56097.96
663.74	55936.46
663.88	56037.11
664.02	56067.53
664.17	56198.60
664.31	56114.34
664.45	55831.14
664.59	56313.29
664.73	55920.08
664.88	55863.91
665.02	55512.83
665.16	55704.75
665.30	55615.81
665.44	55671.98
665.59	55533.89
665.73	55461.33
665.87	55370.05
666.01	55744.54
666.15	55461.33
666.29	55285.79
666.44	55491.76
666.58	55463.67
666.72	55140.68
666.86	55189.83
667.00	55131.32
667.14	55182.81
667.28	55330.26
667.43	54976.84
667.57	55051.74
667.71	54752.15
667.85	54915.99
667.99	54658.53
668.13	55133.66
668.27	54693.64
668.41	54934.71
668.56	54857.48
668.70	54958.12
668.84	54585.97
668.98	54597.68
669.12	54639.81
669.26	55000.25
669.40	54691.30
669.54	54344.90
669.68	54424.48
669.82	54213.83
669.96	54288.73
670.10	54307.45
670.25	54536.82
670.39	54230.21
670.53	54071.06
670.67	54068.72
670.81	54457.24
670.95	54445.54
671.09	53963.39
671.23	53633.38
671.37	53607.63
671.51	53591.25
671.65	53771.47
671.79	53769.13
671.93	53708.27
672.07	53504.65
672.21	53408.68
672.35	52935.90
672.49	53045.90
672.63	53247.19
672.77	53134.84
672.91	53179.31
673.05	52945.26
673.19	52982.71
673.33	52893.77
673.47	52718.23
673.61	52982.71
673.75	52996.75
673.89	52921.85
674.03	52371.83
674.17	52355.44
674.31	52217.35
674.45	52030.11
674.59	52238.42
674.73	52154.16
674.87	52266.50
675.01	51721.16
675.15	52046.49
675.29	51732.86
675.43	51707.12
675.56	51540.94
675.70	51510.51
675.84	51454.34
675.98	50373.01
676.12	51229.65
676.26	51594.77
676.40	51325.61
676.54	51271.78
676.68	51056.45
676.82	50255.98
676.96	50777.92
677.10	50438.54
677.23	50291.09
677.37	50314.50
677.51	50225.56
677.65	49860.43
677.79	49392.33
677.93	49514.03
678.07	49720.00
678.21	49844.05
678.34	49710.64
678.48	49120.82
678.62	49371.26
678.76	48959.33
678.90	48720.59
679.04	49118.48
679.18	49272.96
679.31	48589.52
679.45	48336.74
679.59	48566.12
679.73	48680.80
679.87	48144.82
680.00	47854.59
680.14	47562.03
680.28	47716.50
680.42	47693.10
680.56	47739.91
680.70	47229.67
680.83	47234.35
680.97	46944.12
681.11	47166.48
681.25	47040.09
681.39	46761.56
681.52	46728.80
681.66	46684.33
681.80	46466.66
681.94	46155.36
682.07	46550.91
682.21	45762.15
682.35	45652.15
682.49	45551.51
682.62	45860.46
682.76	45787.90
682.90	45888.54
683.04	45638.11
683.17	45439.16
683.31	45123.19
683.45	44928.92
683.59	44556.78
683.72	44414.01
683.86	44460.82
684.00	44727.64
684.13	44402.30
684.27	44130.80
684.41	43803.13
684.55	43662.69
684.68	43861.64
684.82	43641.63
684.96	43330.34
685.09	43136.07
685.23	43229.69
685.37	43035.43
685.50	43180.54
685.64	42909.04
685.78	42899.68
685.91	42649.24
686.05	42281.78
686.19	42213.90
686.32	41825.37
686.46	41638.13
686.60	41200.45
686.73	41340.88
686.87	41228.54
687.01	41638.13
687.14	41027.25
687.28	41071.72
687.42	41057.68
687.55	40561.48
687.69	40898.52
687.82	40573.19
687.96	40301.68
688.10	40058.27
688.23	40041.88
688.37	40266.58
688.50	39674.42
688.64	39290.57
688.78	39386.54
688.91	38829.49
689.05	38883.32
689.18	38927.79
689.32	38298.19
689.46	38382.45
689.59	38188.18
689.73	37722.41
689.86	38267.76
690.00	37799.65
690.13	38227.97
690.27	37757.52
690.41	37572.62
690.54	37422.83
690.68	37184.09
690.81	37024.93
690.95	36788.54
691.08	36701.94
691.22	36598.96
691.35	36573.21
691.49	36613.00
691.62	36589.59
691.76	36322.77
691.89	35620.61
692.03	35672.10
692.16	35360.81
692.30	35744.66
692.43	35232.08
692.57	35372.52
692.70	35421.67
692.84	34569.71
692.97	34906.75
693.11	35187.61
693.24	34555.67
693.38	34614.18
693.51	34174.16
693.65	34471.41
693.78	34073.52
693.92	33914.36
694.05	33795.00
694.19	33654.56
694.32	33319.87
694.45	33226.24
694.59	33134.96
694.72	33010.92
694.86	32538.13
694.99	32648.13
695.13	32547.49
695.26	32210.45
695.39	31534.04
695.53	31981.08
695.66	32215.13
695.80	31852.35
695.93	31473.18
696.07	31187.64
696.20	30934.86
696.33	30998.06
696.47	31232.11
696.60	30871.67
696.73	30850.60
696.87	30466.75
697.00	30295.89
697.14	30574.42
697.27	30092.27
697.40	30235.04
697.54	30120.35
697.67	30075.88
697.80	30136.74
697.94	29682.67
698.07	29270.74
698.21	29071.79
698.34	29242.65
698.47	29064.77
698.61	28470.28
698.74	28421.13
698.87	28875.19
699.01	28135.58
699.14	28613.05
699.27	27967.06
699.40	28142.60
699.54	27894.50
699.67	27974.08
699.80	28004.51
699.94	27915.57
700.07	27974.08
700.20	27578.53
700.34	27194.68
700.47	26857.65
700.60	26979.36
700.73	26632.96
700.87	26235.06
701.00	26206.98
701.13	26181.23
701.26	26174.21
701.40	26443.37
701.53	25865.26
701.66	26419.97
701.79	25663.97
701.93	25488.43
702.06	25027.35
702.19	25130.33
702.32	25181.82
702.46	25046.07
702.59	24957.13
702.72	24582.65
702.85	24755.85
702.99	24884.58
703.12	24346.25
703.25	24006.87
703.38	24025.60
703.51	24093.47
703.65	24044.32
703.78	23665.16
703.91	23641.75
704.04	23578.56
704.17	23726.01
704.31	23232.16
704.44	23145.56
704.57	22979.38
704.70	22977.04
704.83	22850.65
704.96	22775.75
705.10	22263.18
705.23	22321.69
>>>>>End Processed Spectral Data<<<<<
