SpectraSuite Data File
++++++++++++++++++++++++++++++++++++
Date: Fri Oct 25 11:23:44 EDT 2013
User: price-jones
Dark Spectrum Present: No
Reference Spectrum Present: No
Number of Sampled Component Spectra: 1
Spectrometers: USB2+H05261
Integration Time (usec): 100000 (USB2+H05261)
Spectra Averaged: 1 (USB2+H05261)
Boxcar Smoothing: 0 (USB2+H05261)
Correct for Electrical Dark: No (USB2+H05261)
Strobe/Lamp Enabled: No (USB2+H05261)
Correct for Detector Non-linearity: No (USB2+H05261)
Correct for Stray Light: No (USB2+H05261)
Number of Pixels in Processed Spectrum: 2048
>>>>>Begin Processed Spectral Data<<<<<
365.73	224.69
365.92	224.69
366.12	224.69
366.32	140.43
366.52	196.60
366.72	140.43
366.91	126.39
367.11	88.94
367.31	58.51
367.51	175.54
367.70	173.20
367.90	166.18
368.10	180.22
368.30	121.71
368.49	173.20
368.69	107.66
368.89	152.13
369.09	175.54
369.28	201.29
369.48	205.97
369.68	138.09
369.87	271.50
370.07	161.50
370.27	210.65
370.47	306.61
370.66	603.86
370.86	624.92
371.06	622.58
371.25	629.60
371.45	650.67
371.65	748.97
371.84	741.95
372.04	725.57
372.24	683.44
372.44	737.27
372.63	704.50
372.83	692.80
373.03	713.86
373.22	805.14
373.42	774.72
373.62	720.88
373.81	734.93
374.01	758.33
374.21	833.23
374.40	830.89
374.60	840.25
374.79	870.68
374.99	842.59
375.19	779.40
375.38	805.14
375.58	847.27
375.78	868.34
375.97	851.96
376.17	910.47
376.37	842.59
376.56	866.00
376.76	798.12
376.95	791.10
377.15	889.40
377.35	919.83
377.54	903.45
377.74	805.14
377.93	910.47
378.13	947.92
378.33	987.71
378.52	891.74
378.72	901.11
378.91	1015.79
379.11	891.74
379.31	908.13
379.50	915.15
379.70	1027.50
379.89	1018.13
380.09	1008.77
380.28	976.00
380.48	1006.43
380.68	924.51
380.87	987.71
381.07	976.00
381.26	1036.86
381.46	1036.86
381.65	1018.13
381.85	1114.10
382.04	1090.69
382.24	1116.44
382.43	1130.48
382.63	1008.77
382.83	1043.88
383.02	1090.69
383.22	1088.35
383.41	1039.20
383.61	1081.33
383.80	1170.27
384.00	1128.14
384.19	1235.80
384.39	1142.18
384.58	1135.16
384.78	1100.05
384.97	1114.10
385.17	1156.22
385.36	1107.07
385.56	1137.50
385.75	1149.20
385.95	1156.22
386.14	1226.44
386.34	1144.52
386.53	1200.69
386.72	1177.29
386.92	1252.19
387.11	1259.21
387.31	1263.89
387.50	1294.32
387.70	1231.12
387.89	1327.08
388.09	1263.89
388.28	1198.35
388.48	1303.68
388.67	1296.66
388.86	1385.60
389.06	1303.68
389.25	1439.43
389.45	1352.83
389.64	1401.98
389.84	1378.58
390.03	1401.98
390.22	1369.21
390.42	1387.94
390.61	1390.28
390.81	1397.30
391.00	1423.05
391.19	1387.94
391.39	1467.52
391.58	1406.66
391.78	1413.68
391.97	1540.07
392.16	1474.54
392.36	1528.37
392.55	1497.94
392.75	1448.79
392.94	1516.67
393.13	1561.14
393.33	1493.26
393.52	1666.46
393.71	1558.80
393.91	1479.22
394.10	1582.20
394.29	1666.46
394.49	1629.01
394.68	1732.00
394.88	1675.82
395.07	1668.80
395.26	1647.74
395.46	1675.82
395.65	1713.27
395.84	1689.87
396.04	1776.47
396.23	1708.59
396.42	1753.06
396.62	1767.10
396.81	1781.15
397.00	1696.89
397.19	1734.34
397.39	1809.23
397.58	1832.64
397.77	1774.13
397.97	1888.81
398.16	1827.96
398.35	1860.73
398.55	1963.71
398.74	1790.51
398.93	1856.04
399.12	2090.10
399.32	1837.32
399.51	1898.17
399.70	1975.41
399.90	1921.58
400.09	2071.37
400.28	2026.90
400.47	2038.61
400.67	1994.14
400.86	2090.10
401.05	2122.87
401.24	2083.08
401.44	2139.25
401.63	2122.87
401.82	2258.62
402.01	2078.40
402.21	2249.25
402.40	2204.78
402.59	2188.40
402.78	2174.36
402.97	2289.04
403.17	2165.00
403.36	2305.43
403.55	2324.15
403.74	2319.47
403.93	2305.43
404.13	2431.82
404.32	2401.39
404.51	2237.55
404.70	2530.12
404.89	2443.52
405.09	2389.69
405.28	2541.82
405.47	2476.29
405.66	2511.39
405.85	2663.53
406.05	2548.84
406.24	2633.10
406.43	2640.12
406.62	2642.46
406.81	2628.42
407.00	2633.10
407.20	2651.83
407.39	2708.00
407.58	2724.38
407.77	2693.96
407.96	2825.03
408.15	2771.19
408.34	2644.81
408.54	2825.03
408.73	2782.90
408.92	2810.98
409.11	2953.76
409.30	2923.33
409.49	2951.42
409.68	2878.86
409.87	2883.54
410.07	2972.48
410.26	3070.78
410.45	3028.65
410.64	3103.55
410.83	3073.12
411.02	3040.36
411.21	3194.83
411.40	3211.22
411.59	3260.37
411.78	3152.70
411.98	3183.13
412.17	3204.19
412.36	3281.43
412.55	3400.80
412.74	3431.23
412.93	3398.46
413.12	3335.26
413.31	3590.38
413.50	3379.73
413.69	3538.89
413.88	3590.38
414.07	3501.44
414.26	3688.68
414.45	3730.81
414.64	3669.96
414.83	3672.30
415.02	3887.63
415.22	3873.59
415.41	3896.99
415.60	3854.86
415.79	4002.32
415.98	4002.32
416.17	3911.04
416.36	3946.14
416.55	3983.59
416.74	4004.66
416.93	3925.08
417.12	4067.85
417.31	4184.88
417.50	4170.83
417.69	4205.94
417.88	4374.46
418.07	4397.87
418.26	4205.94
418.45	4355.74
418.64	4458.72
418.83	4517.23
419.02	4367.44
419.21	4545.32
419.39	4617.88
419.58	4596.81
419.77	4477.44
419.96	4547.66
420.15	4580.43
420.34	4552.34
420.53	4641.28
420.72	4821.50
420.91	4737.24
421.10	4716.18
421.29	4779.37
421.48	4664.69
421.67	4873.00
421.86	4737.24
422.05	4917.47
422.24	4922.15
422.43	4987.68
422.61	4950.23
422.80	4851.93
422.99	4856.61
423.18	5116.41
423.37	5078.96
423.56	4975.98
423.75	4919.81
423.94	4774.69
424.13	4575.75
424.32	4667.03
424.50	4891.72
424.69	5111.73
424.88	5186.63
425.07	4917.47
425.26	4933.85
425.45	4947.89
425.64	5123.43
425.83	4997.04
426.01	5111.73
426.20	5233.44
426.39	5121.09
426.58	5132.79
426.77	5076.62
426.96	5139.82
427.15	5270.89
427.33	5160.88
427.52	5100.03
427.71	5320.04
427.90	5242.80
428.09	5277.91
428.28	5289.61
428.46	5439.40
428.65	5338.76
428.84	5378.55
429.03	5600.90
429.22	5446.43
429.40	5621.97
429.59	5593.88
429.78	5263.86
429.97	5427.70
430.16	5596.22
430.34	5624.31
430.53	5746.02
430.72	5654.73
430.91	5596.22
431.10	5523.66
431.28	5790.49
431.47	5837.30
431.66	5912.19
431.85	5689.84
432.03	5900.49
432.22	5975.39
432.41	5881.77
432.60	5975.39
432.79	5909.85
432.97	6157.95
433.16	6202.42
433.35	5884.11
433.54	6036.24
433.72	6078.37
433.91	6052.63
434.10	6221.14
434.28	6211.78
434.47	6370.94
434.66	6349.87
434.85	6420.09
435.03	6450.52
435.22	6328.81
435.41	6455.20
435.59	6417.75
435.78	6340.51
435.97	6537.12
436.16	6567.54
436.34	6520.73
436.53	6733.72
436.72	6736.06
436.90	6684.57
437.09	6586.27
437.28	6335.83
437.46	6672.87
437.65	6534.78
437.84	6869.47
438.02	6703.29
438.21	6752.45
438.40	6785.21
438.58	6944.37
438.77	7138.63
438.96	6920.96
439.14	7269.70
439.33	7250.98
439.52	7253.32
439.70	7281.41
439.89	7454.61
440.08	7332.90
440.26	7555.25
440.45	7559.93
440.63	7417.16
440.82	7620.78
441.01	7618.44
441.19	7585.68
441.38	7892.29
441.57	7726.11
441.75	7730.79
441.94	8002.29
442.12	7964.84
442.31	8173.15
442.50	7901.65
442.68	7815.05
442.87	7983.57
443.05	8285.50
443.24	8191.88
443.43	8187.19
443.61	8266.77
443.80	8432.95
443.98	8121.66
444.17	7941.44
444.35	8381.46
444.54	8446.99
444.73	8325.29
444.91	8344.01
445.10	8463.38
445.28	8297.20
445.47	8479.76
445.65	8444.65
445.84	8416.57
446.02	8496.14
446.21	8407.20
446.39	8376.78
446.58	8552.32
446.77	8421.25
446.95	8189.53
447.14	8428.27
447.32	8905.74
447.51	8475.08
447.69	8503.17
447.88	8578.06
448.06	8514.87
448.25	8655.30
448.43	8681.05
448.62	8683.39
448.80	8795.73
448.99	8451.67
449.17	8786.37
449.36	8638.92
449.54	8952.55
449.73	9095.32
449.91	9102.34
450.10	8997.02
450.28	9132.77
450.46	9020.42
450.65	8973.61
450.83	9191.28
451.02	9029.79
451.20	9233.41
451.39	9055.53
451.57	9256.82
451.76	9214.69
451.94	9158.52
452.13	9423.00
452.31	9320.01
452.49	9315.33
452.68	9415.98
452.86	9530.66
453.05	9556.41
453.23	9596.20
453.42	9401.93
453.60	9369.16
453.78	9565.77
453.97	9638.33
454.15	9544.70
454.34	9493.21
454.52	9708.54
454.70	9823.23
454.89	9703.86
455.07	9865.36
455.26	9823.23
455.44	9848.97
455.62	10003.45
455.81	9841.95
455.99	10076.01
456.17	10153.24
456.36	9989.41
456.54	9991.75
456.73	10389.64
456.91	10487.94
457.09	10534.75
457.28	10565.18
457.46	10289.00
457.64	10483.26
457.83	10600.29
458.01	10574.54
458.19	10665.82
458.38	10796.89
458.56	10670.50
458.74	10944.34
458.93	10843.70
459.11	10593.26
459.29	10729.02
459.48	10862.43
459.66	10916.26
459.84	10876.47
460.03	11143.29
460.21	11066.05
460.39	11138.61
460.57	11206.48
460.76	11171.38
460.94	11272.02
461.12	11321.17
461.31	11253.30
461.49	11143.29
461.67	11044.99
461.85	11800.98
462.04	11358.62
462.22	11475.65
462.40	11463.94
462.59	11578.63
462.77	11564.59
462.95	11494.37
463.13	11707.36
463.32	11798.64
463.50	11927.37
463.68	11751.83
463.86	11932.05
464.05	11618.42
464.23	11826.73
464.41	12175.47
464.59	11740.13
464.78	12299.52
464.96	11957.80
465.14	12011.63
465.32	12114.61
465.50	12112.27
465.69	11971.84
465.87	12297.17
466.05	12245.68
466.23	12348.67
466.41	12208.23
466.60	12613.15
466.78	12210.57
466.96	12414.20
467.14	12381.43
467.32	12369.73
467.51	12631.87
467.69	12292.49
467.87	12489.10
468.05	12816.77
468.23	12315.90
468.41	12479.74
468.60	12929.12
468.78	12877.63
468.96	12507.82
469.14	12793.37
469.32	12947.84
469.50	12798.05
469.69	13060.19
469.87	13153.81
470.05	13322.33
470.23	13212.32
470.41	13142.11
470.59	13336.37
470.77	13465.10
470.95	13338.71
471.14	13530.64
471.32	13111.68
471.50	13668.73
471.68	13727.24
471.86	13605.53
472.04	14141.52
472.22	14132.15
472.40	13713.20
472.58	13973.00
472.77	14122.79
472.95	14356.85
473.13	14745.38
473.31	14258.54
473.49	14167.26
473.67	14012.79
473.85	14286.63
474.03	14595.58
474.21	14675.16
474.39	14913.89
474.57	14602.60
474.75	15208.80
474.93	15229.87
475.12	14939.64
475.30	15183.06
475.48	15059.01
475.66	15578.61
475.84	15508.39
476.02	15667.55
476.20	15779.89
476.38	15779.89
476.56	16093.52
476.74	15889.90
476.92	16002.24
477.10	15845.43
477.28	16402.47
477.46	16358.00
477.64	16528.86
477.82	16737.17
478.00	17186.55
478.18	16898.67
478.36	17006.33
478.54	17317.62
478.72	17507.21
478.90	17956.59
479.08	17848.93
479.26	17755.30
479.44	18256.18
479.62	17675.73
479.80	18244.48
479.98	18279.58
480.16	18637.69
480.34	18064.25
480.52	18537.04
480.70	18899.83
480.88	18368.52
481.06	18792.16
481.24	18867.06
481.41	19147.92
481.59	19302.40
481.77	19894.55
481.95	19686.25
482.13	19667.52
482.31	19953.07
482.49	20711.40
482.67	20641.18
482.85	20322.87
483.03	20634.16
483.21	21095.25
483.39	21120.99
483.57	20922.05
483.74	21200.57
483.92	21369.09
484.10	21259.09
484.28	21891.03
484.46	22073.59
484.64	22441.06
484.82	22080.61
485.00	22497.23
485.18	23063.64
485.35	22796.82
485.53	23197.05
485.71	23058.96
485.89	23711.97
486.07	23487.28
486.25	23683.88
486.43	24041.98
486.61	23974.11
486.78	24339.23
486.96	24531.15
487.14	24641.16
487.32	24720.74
487.50	25163.10
487.68	25165.44
487.85	25242.68
488.03	25752.91
488.21	26216.34
488.39	25982.29
488.57	26209.32
488.75	26644.66
488.92	26529.97
489.10	26717.22
489.28	26974.67
489.46	27271.92
489.64	27262.56
489.81	27819.61
489.99	27730.67
490.17	27859.40
490.35	28147.28
490.53	28599.01
490.70	28762.84
490.88	28278.35
491.06	29039.03
491.24	28886.89
491.41	29783.32
491.59	29661.61
491.77	29095.20
491.95	29687.36
492.13	30068.86
492.30	30005.67
492.48	29942.47
492.66	30745.28
492.84	30366.11
493.01	30745.28
493.19	30897.41
493.37	30998.06
493.54	31435.74
493.72	31929.59
493.90	31742.35
494.08	31812.56
494.25	32158.96
494.43	32180.03
494.61	32512.38
494.79	32936.02
494.96	32678.56
495.14	32797.93
495.32	33205.18
495.49	33067.09
495.67	33369.02
495.85	33811.38
496.02	33844.15
496.20	34164.80
496.38	33982.24
496.55	34082.88
496.73	35178.25
496.91	34595.46
497.09	35220.38
497.26	35772.75
497.44	34930.16
497.62	35866.37
497.79	35548.06
497.97	35571.46
498.14	36549.81
498.32	36268.94
498.50	36149.57
498.67	37305.80
498.85	36631.72
499.03	37411.12
499.20	37170.05
499.38	37165.37
499.56	37488.36
499.73	37427.51
499.91	37558.58
500.08	37649.86
500.26	37301.12
500.44	37867.53
500.61	38600.12
500.79	38012.64
500.97	38417.55
501.14	38831.83
501.32	38806.08
501.49	38506.49
501.67	38675.01
501.84	39386.54
502.02	39281.21
502.20	39260.15
502.37	39693.15
502.55	39754.00
502.72	39768.04
502.90	40112.10
503.07	39955.29
503.25	40528.72
503.43	39920.18
503.60	40238.49
503.78	40877.46
503.95	40458.50
504.13	40720.64
504.30	40687.87
504.48	40788.52
504.65	40678.51
504.83	41434.50
505.01	41614.72
505.18	41277.69
505.36	41858.14
505.53	41378.33
505.71	41972.83
505.88	42155.39
506.06	41596.00
506.23	42096.88
506.41	41808.99
506.58	42178.79
506.76	42431.57
506.93	42574.34
507.11	42976.92
507.28	42742.86
507.46	42946.49
507.63	42710.10
507.81	43215.65
507.98	43217.99
508.16	43402.89
508.33	43613.54
508.50	43796.10
508.68	43903.77
508.85	44250.17
509.03	43775.04
509.20	44456.14
509.38	44552.10
509.55	44308.68
509.73	44753.38
509.90	44463.16
510.08	44605.93
510.25	44935.95
510.42	45024.89
510.60	45013.18
510.77	45097.44
510.95	45448.52
511.12	45216.81
511.30	45364.26
511.47	45420.44
511.64	45869.82
511.82	46057.06
511.99	45837.05
512.17	46293.46
512.34	46314.52
512.51	46955.83
512.69	46663.26
512.86	46562.62
513.04	47168.82
513.21	47473.09
513.38	46731.14
513.56	47374.78
513.73	47295.21
513.90	47199.24
514.08	47012.00
514.25	47746.93
514.43	47512.88
514.60	47583.09
514.77	47454.36
514.95	47929.49
515.12	47660.33
515.29	47957.58
515.47	48233.76
515.64	48364.83
515.81	48385.89
515.99	48652.72
516.16	48456.11
516.33	48652.72
516.51	48816.55
516.68	48566.12
516.85	48650.38
517.03	49031.88
517.20	48987.41
517.37	48907.83
517.54	48912.52
517.72	49350.20
517.89	49303.38
518.06	49272.96
518.24	49844.05
518.41	49563.18
518.58	49837.03
518.75	49310.41
518.93	49923.63
519.10	49635.74
519.27	50347.26
519.45	50012.57
519.62	50337.90
519.79	50073.42
519.96	50363.65
520.14	50131.93
520.31	50492.38
520.48	50698.34
520.65	50237.26
520.83	50845.80
521.00	51089.21
521.17	50829.41
521.34	50754.52
521.52	50843.46
521.69	51213.26
521.86	51253.05
522.03	51573.70
522.20	51278.80
522.38	51917.76
522.55	51517.53
522.72	51360.72
522.89	51807.76
523.07	51896.70
523.24	51899.04
523.41	51931.81
523.58	51533.92
523.75	52198.63
523.92	52168.20
524.10	52502.90
524.27	52280.55
524.44	52446.72
524.61	52432.68
524.78	52589.50
524.96	52217.35
525.13	52458.43
525.30	52310.97
525.47	52942.92
525.64	52652.69
525.81	52807.17
525.98	52619.92
526.16	52952.28
526.33	52549.71
526.50	53319.74
526.67	53141.86
526.84	53017.82
527.01	52963.98
527.18	53228.46
527.36	53134.84
527.53	53354.85
527.70	53399.32
527.87	53570.18
528.04	53497.62
528.21	53801.89
528.38	53663.80
528.55	53677.85
528.72	53719.98
528.89	53804.24
529.07	53528.05
529.24	53820.62
529.41	54064.03
529.58	54028.93
529.75	53839.34
529.92	54094.46
530.09	54000.84
530.26	54129.57
530.43	54255.96
530.60	54262.98
530.77	54190.42
530.94	54522.78
531.11	54408.09
531.28	54108.50
531.46	54323.83
531.63	54307.45
531.80	54513.42
531.97	54618.74
532.14	54752.15
532.31	54623.42
532.48	54780.24
532.65	54820.03
532.82	54649.17
532.99	54726.41
533.16	54646.83
533.33	55011.95
533.50	55098.55
533.67	55000.25
533.84	54857.48
534.01	55117.28
534.18	55248.35
534.35	55379.42
534.52	55253.03
534.69	55540.91
534.86	55601.77
535.03	55290.48
535.20	55344.31
535.37	55341.97
535.54	55461.33
535.71	55604.11
535.88	55564.32
536.05	55756.24
536.22	55861.57
536.38	55702.41
536.55	55880.29
536.72	55945.83
536.89	55739.86
537.06	55721.13
537.23	56074.55
537.40	55875.61
537.57	55676.66
537.74	56097.96
537.91	55889.65
538.08	56030.08
538.25	55756.24
538.42	55971.57
538.59	56488.83
538.75	55983.27
538.92	56533.30
539.09	56540.32
539.26	56154.13
539.43	56329.67
539.60	56406.91
539.77	56324.99
539.94	56512.23
540.11	56303.93
540.28	56788.42
540.44	56575.43
540.61	56587.13
540.78	56467.76
540.95	56636.28
541.12	56435.00
541.29	56959.28
541.46	56779.06
541.62	56760.33
541.79	56884.38
541.96	56481.81
542.13	56924.17
542.30	57043.54
542.47	56823.53
542.63	56886.72
542.80	57092.69
542.97	57190.99
543.14	57319.72
543.31	57347.81
543.48	57497.60
543.64	57378.23
543.81	57406.32
543.98	57551.43
544.15	57366.53
544.32	57511.64
544.48	57586.54
544.65	57628.67
544.82	57724.63
544.99	57403.98
545.16	57682.50
545.32	57488.24
545.49	57907.19
545.66	58012.52
545.83	57827.62
546.00	57841.66
546.16	57799.53
546.33	57923.58
546.50	57429.72
546.67	57925.92
546.83	57729.31
547.00	58052.31
547.17	57904.85
547.34	58085.07
547.50	58152.95
547.67	58174.02
547.84	58316.79
548.00	58230.19
548.17	58539.14
548.34	58145.93
548.51	58508.71
548.67	58234.87
548.84	58190.40
549.01	58342.53
549.18	58272.32
549.34	58351.90
549.51	58354.24
549.68	58419.77
549.84	58431.47
550.01	58426.79
550.18	58382.32
550.34	58618.72
550.51	58506.37
550.68	58630.42
550.84	58328.49
551.01	58639.78
551.18	58534.46
551.34	58611.70
551.51	58731.06
551.68	58681.91
551.84	58759.15
552.01	58735.74
552.18	58843.41
552.34	58822.34
552.51	58897.24
552.68	58756.81
552.84	58934.69
553.01	59110.23
553.18	58969.80
553.34	58927.67
553.51	58988.52
553.67	59051.72
553.84	59089.16
554.01	59054.06
554.17	59360.67
554.34	58951.07
554.51	58958.09
554.67	59091.51
554.84	59257.68
555.00	59086.82
555.17	59091.51
555.33	59063.42
555.50	59063.42
555.67	59215.55
555.83	59154.70
556.00	59241.30
556.16	59627.49
556.33	59503.44
556.50	59269.39
556.66	59529.19
556.83	59320.88
556.99	59557.27
557.16	59550.25
557.32	59735.15
557.49	59779.62
557.65	59384.07
557.82	59505.78
557.98	59510.46
558.15	59545.57
558.32	59819.41
558.48	59678.98
558.65	59784.30
558.81	59678.98
558.98	59875.58
559.14	59826.43
559.31	59796.01
559.47	59828.77
559.64	59994.95
559.80	59969.21
559.97	59891.97
560.13	59849.84
560.30	59854.52
560.46	59929.42
560.63	59908.35
560.79	60055.81
560.96	59924.74
561.12	59962.18
561.29	59934.10
561.45	60013.68
561.61	59777.28
561.78	59866.22
561.94	59807.71
562.11	59994.95
562.27	59917.71
562.44	60069.85
562.60	60060.49
562.77	60172.83
562.93	59763.24
563.10	60320.29
563.26	60016.02
563.42	60374.12
563.59	60229.01
563.75	60114.32
563.92	60282.84
564.08	60107.30
564.24	60324.97
564.41	60371.78
564.57	60367.10
564.74	60308.58
564.90	60317.95
565.07	60163.47
565.23	60413.91
565.39	60360.08
565.56	60317.95
565.72	60177.51
565.88	60196.24
566.05	60271.14
566.21	60299.22
566.38	60488.80
566.54	60275.82
566.70	60472.42
566.87	60420.93
567.03	60329.65
567.19	60673.71
567.36	60439.65
567.52	60430.29
567.68	60748.60
567.85	60467.74
568.01	60580.09
568.17	60456.04
568.34	60474.76
568.50	60413.91
568.66	60374.12
568.83	60678.39
568.99	60533.28
569.15	60570.72
569.32	60652.64
569.48	60479.44
569.64	60643.28
569.81	60554.34
569.97	60495.83
570.13	60383.48
570.30	60636.26
570.46	60619.88
570.62	60753.29
570.78	60430.29
570.95	60706.47
571.11	60825.84
571.27	60652.64
571.43	60732.22
571.60	60952.23
571.76	60647.96
571.92	60842.23
572.09	60814.14
572.25	60706.47
572.41	60650.30
572.57	60877.33
572.74	60811.80
572.90	60832.86
573.06	60797.76
573.22	60729.88
573.38	60772.01
573.55	60823.50
573.71	60821.16
573.87	60701.79
574.03	60793.07
574.20	60903.08
574.36	60664.35
574.52	60882.02
574.68	60793.07
574.84	61087.98
575.01	61020.11
575.17	60697.11
575.33	60690.09
575.49	60949.89
575.65	60949.89
575.82	61092.66
575.98	61013.08
576.14	61066.92
576.30	61104.37
576.46	60825.84
576.62	60917.12
576.79	60779.03
576.95	60865.63
577.11	60914.78
577.27	60898.40
577.43	60830.52
577.59	60814.14
577.75	60921.80
577.92	60757.97
578.08	60835.20
578.24	60903.08
578.40	60982.66
578.56	61095.00
578.72	60900.74
578.88	61254.16
579.04	61275.22
579.21	61022.45
579.37	60952.23
579.53	61160.54
579.69	60870.31
579.85	61036.49
580.01	61029.47
580.17	60926.49
580.33	60966.27
580.49	61347.78
580.65	61148.84
580.82	60802.44
580.98	60947.55
581.14	60842.23
581.30	61078.62
581.46	60989.68
581.62	61095.00
581.78	60844.57
581.94	61193.31
582.10	60867.97
582.26	60910.10
582.42	60896.06
582.58	61104.37
582.74	61080.96
582.90	60975.64
583.06	61106.71
583.22	60851.59
583.38	61172.24
583.54	61265.86
583.70	61193.31
583.86	61216.71
584.02	60903.08
584.18	61144.16
584.34	61041.17
584.50	61099.68
584.66	60987.34
584.82	60945.21
584.98	61371.19
585.14	61303.31
585.30	61099.68
585.46	61183.94
585.62	61197.99
585.78	61338.42
585.94	60952.23
586.10	61165.22
586.26	61141.81
586.42	61347.78
586.58	61279.91
586.74	61240.12
586.90	61190.97
587.06	61059.90
587.22	61331.40
587.38	61403.95
587.54	61446.08
587.70	61350.12
587.86	61132.45
588.02	61331.40
588.18	61202.67
588.34	61275.22
588.49	61162.88
588.65	60959.25
588.81	61207.35
588.97	61441.40
589.13	61315.01
589.29	61275.22
589.45	61565.45
589.61	61403.95
589.77	61504.60
589.93	61467.15
590.08	61296.29
590.24	61483.53
590.40	61553.75
590.56	61722.27
590.72	61530.34
590.88	61436.72
591.04	61518.64
591.20	61502.26
591.35	61579.49
591.51	61801.85
591.67	61467.15
591.83	61525.66
591.99	61635.67
592.15	61581.84
592.31	61666.09
592.46	61659.07
592.62	61399.27
592.78	61427.36
592.94	61785.46
593.10	61544.39
593.26	61680.14
593.41	61490.55
593.57	61792.48
593.73	61626.31
593.89	61740.99
594.05	61762.06
594.20	61558.43
594.36	61654.39
594.52	61694.18
594.68	61740.99
594.84	61413.32
594.99	61614.60
595.15	61523.32
595.31	61633.33
595.47	61502.26
595.62	61591.20
595.78	61574.81
595.94	61481.19
596.10	61822.91
596.25	61804.19
596.41	61743.33
596.57	61560.77
596.73	61876.74
596.88	61577.15
597.04	61834.61
597.20	61811.21
597.36	61797.16
597.51	62047.60
597.67	61808.87
597.83	61441.40
597.99	61792.48
598.14	61808.87
598.30	61858.02
598.46	61886.10
598.61	61951.64
598.77	61682.48
598.93	61855.68
599.09	61806.53
599.24	61998.45
599.40	62071.01
599.56	61843.98
599.71	62040.58
599.87	61897.81
600.03	61904.83
600.18	61684.82
600.34	61677.80
600.50	61909.51
600.65	61776.10
600.81	61935.26
600.97	61921.21
601.12	61867.38
601.28	61806.53
601.44	61804.19
601.59	61811.21
601.75	61914.19
601.91	62052.28
602.06	61970.36
602.22	62185.69
602.37	61846.32
602.53	61972.70
602.69	62005.47
602.84	61820.57
603.00	61769.08
603.16	61989.09
603.31	62005.47
603.47	62014.83
603.62	61815.89
603.78	62059.30
603.94	61890.79
604.09	61895.47
604.25	61865.04
604.40	61719.93
604.56	61843.98
604.71	62054.62
604.87	61764.40
605.03	61907.17
605.18	61839.29
605.34	61921.21
605.49	61738.65
605.65	61977.39
605.80	61841.63
605.96	61932.92
606.12	61986.75
606.27	61923.55
606.43	62054.62
606.58	61989.09
606.74	61939.94
606.89	61872.06
607.05	61939.94
607.20	62092.07
607.36	61790.14
607.51	61738.65
607.67	61780.78
607.82	61722.27
607.98	61865.04
608.13	61869.72
608.29	61813.55
608.44	61853.34
608.60	61698.86
608.75	61946.96
608.91	61764.40
609.06	61911.85
609.22	61874.40
609.37	61551.41
609.53	61853.34
609.68	61792.48
609.84	61759.72
609.99	61745.67
610.15	61813.55
610.30	62000.79
610.46	61457.79
610.61	61630.99
610.76	61738.65
610.92	61799.50
611.07	61771.42
611.23	61668.44
611.38	61846.32
611.54	61773.76
611.69	61773.76
611.84	61815.89
612.00	61783.12
612.15	61579.49
612.31	61888.45
612.46	61581.84
612.62	61490.55
612.77	61497.58
612.92	61719.93
613.08	61616.94
613.23	61586.52
613.39	61506.94
613.54	61441.40
613.69	61759.72
613.85	61385.23
614.00	61666.09
614.15	61701.20
614.31	61518.64
614.46	61567.79
614.62	61368.85
614.77	61530.34
614.92	61762.06
615.08	61497.58
615.23	61612.26
615.38	61483.53
615.54	61488.21
615.69	61413.32
615.84	61778.44
616.00	61666.09
616.15	61324.38
616.30	61436.72
616.46	61326.72
616.61	61289.27
616.76	61368.85
616.92	61247.14
617.07	61303.31
617.22	61345.44
617.37	61333.74
617.53	61558.43
617.68	61535.02
617.83	61361.82
617.99	61205.01
618.14	61408.64
618.29	61415.66
618.45	61167.56
618.60	61151.18
618.75	61137.13
618.90	61226.07
619.06	61258.84
619.21	61350.12
619.36	61485.87
619.51	61212.03
619.67	61083.30
619.82	61162.88
619.97	61343.10
620.12	61162.88
620.28	61123.09
620.43	61144.16
620.58	61244.80
620.73	60903.08
620.89	61055.21
621.04	61102.03
621.19	61085.64
621.34	60963.93
621.49	60985.00
621.65	61113.73
621.80	61307.99
621.95	61057.56
622.10	61102.03
622.25	61050.53
622.41	60835.20
622.56	61109.05
622.71	61109.05
622.86	60879.67
623.01	60764.99
623.16	60713.50
623.32	60842.23
623.47	61038.83
623.62	60996.70
623.77	60839.89
623.92	61111.39
624.07	61041.17
624.23	60987.34
624.38	60968.61
624.53	60764.99
624.68	60727.54
624.83	61050.53
624.98	60811.80
625.13	60678.39
625.29	60940.53
625.44	60774.35
625.59	60713.50
625.74	60683.07
625.89	60523.91
626.04	60427.95
626.19	60559.02
626.34	60434.97
626.49	60610.51
626.65	60535.62
626.80	60624.56
626.95	60416.25
627.10	60563.70
627.25	60587.11
627.40	60331.99
627.55	60542.64
627.70	60542.64
627.85	60523.91
628.00	60261.77
628.15	60519.23
628.30	60456.04
628.45	60418.59
628.60	60456.04
628.76	60329.65
628.91	60519.23
629.06	60479.44
629.21	60657.32
629.36	60409.23
629.51	60109.64
629.66	60350.71
629.81	60397.52
629.96	60142.41
630.11	60191.56
630.26	60446.68
630.41	60334.33
630.56	60217.30
630.71	60296.88
630.86	60285.18
631.01	60130.70
631.16	60130.70
631.31	60069.85
631.46	59828.77
631.61	60233.69
631.76	59980.91
631.91	60165.81
632.06	60229.01
632.21	60163.47
632.36	60072.19
632.51	59730.47
632.66	60004.31
632.81	59973.89
632.96	60196.24
633.10	60116.66
633.25	59966.87
633.40	60135.38
633.55	59742.17
633.70	59875.58
633.85	60013.68
634.00	59725.79
634.15	59756.22
634.30	59730.47
634.45	59831.11
634.60	60119.00
634.75	60086.23
634.90	59854.52
635.05	59852.18
635.19	59849.84
635.34	59842.82
635.49	59833.46
635.64	59721.11
635.79	59643.87
635.94	59662.60
636.09	59882.61
636.24	59444.93
636.39	59657.91
636.53	59833.46
636.68	59683.66
636.83	59508.12
636.98	60009.00
637.13	59489.40
637.28	59629.83
637.43	59636.85
637.57	59498.76
637.72	59587.70
637.87	59487.06
638.02	59344.28
638.17	59664.94
638.32	59550.25
638.46	59447.27
638.61	59540.89
638.76	59348.96
638.91	59409.82
639.06	59400.46
639.20	59400.46
639.35	59299.81
639.50	59327.90
639.65	59243.64
639.80	59372.37
639.94	59260.02
640.09	59458.97
640.24	59297.47
640.39	59260.02
640.54	59145.34
640.68	59292.79
640.83	59393.43
640.98	59161.72
641.13	59070.44
641.27	59274.07
641.42	58986.18
641.57	59194.49
641.72	58997.88
641.86	58937.03
642.01	58829.37
642.16	59093.85
642.31	58960.44
642.45	59281.09
642.60	59072.78
642.75	59304.49
642.90	59217.89
643.04	59157.04
643.19	59140.66
643.34	59143.00
643.48	58934.69
643.63	58911.28
643.78	58890.22
643.93	59056.40
644.07	59075.12
644.22	58901.92
644.37	58667.87
644.51	58707.66
644.66	58955.75
644.81	58831.71
644.95	58834.05
645.10	58817.66
645.25	58944.05
645.39	58782.55
645.54	58595.31
645.69	58747.45
645.83	58768.51
645.98	58777.87
646.13	58656.17
646.27	58955.75
646.42	58663.19
646.57	58548.50
646.71	58616.38
646.86	58873.84
647.00	58632.76
647.15	58644.46
647.30	58644.46
647.44	58562.54
647.59	58740.42
647.74	58590.63
647.88	58487.65
648.03	58815.32
648.17	58464.24
648.32	58663.19
648.47	58555.52
648.61	58314.45
648.76	58492.33
648.90	58571.91
649.05	58501.69
649.20	58560.20
649.34	58438.50
649.49	58394.03
649.63	58625.74
649.78	58646.80
649.92	58485.31
650.07	58497.01
650.21	58419.77
650.36	58550.84
650.51	58340.19
650.65	58436.16
650.80	58396.37
650.94	58188.06
651.09	58108.48
651.23	57820.59
651.38	58038.26
651.52	57944.64
651.67	57848.68
651.81	58054.65
651.96	58096.78
652.10	57989.11
652.25	57998.48
652.39	58120.18
652.54	57836.98
652.68	57939.96
652.83	57876.77
652.97	57986.77
653.12	58012.52
653.26	57745.70
653.41	58092.10
653.55	57961.03
653.70	58120.18
653.84	57972.73
653.99	57808.89
654.13	57666.12
654.27	57808.89
654.42	57616.97
654.56	57860.38
654.71	57806.55
654.85	57621.65
655.00	58082.73
655.14	57834.64
655.29	57544.41
655.43	57755.06
655.57	57769.10
655.72	57670.80
655.86	57829.96
656.01	57750.38
656.15	57532.71
656.30	57712.93
656.44	57820.59
656.58	57860.38
656.73	57785.49
656.87	57670.80
657.01	57504.62
657.16	57518.67
657.30	57537.39
657.45	57427.38
657.59	57378.23
657.73	57230.78
657.88	57359.51
658.02	57357.17
658.16	57329.08
658.31	57249.50
658.45	57155.88
658.60	57361.85
658.74	57588.88
658.88	57308.02
659.03	56961.62
659.17	57155.88
659.31	57251.84
659.46	57350.15
659.60	57179.29
659.74	57144.18
659.89	56779.06
660.03	56947.57
660.17	57167.58
660.32	56905.44
660.46	56914.81
660.60	56582.45
660.74	56912.47
660.89	57050.56
661.03	56828.21
661.17	56626.92
661.32	56425.64
661.46	56750.97
661.60	56757.99
661.74	56650.33
661.89	56629.26
662.03	56683.09
662.17	56526.28
662.31	56425.64
662.46	56526.28
662.60	56521.60
662.74	56247.75
662.88	56266.48
663.03	56144.77
663.17	56191.58
663.31	56086.26
663.45	55987.95
663.60	56083.92
663.74	55838.16
663.88	55941.14
664.02	55887.31
664.17	56112.00
664.31	55732.84
664.45	55737.52
664.59	55739.86
664.73	55774.97
664.88	55779.65
665.02	55496.44
665.16	55550.27
665.30	55749.22
665.44	55564.32
665.59	55613.47
665.73	55330.26
665.87	55559.64
666.01	55573.68
666.15	55348.99
666.29	55391.12
666.44	55707.09
666.58	55234.30
666.72	54777.90
666.86	54923.01
667.00	55093.87
667.14	54712.36
667.28	55068.12
667.43	55030.68
667.57	55360.69
667.71	54679.60
667.85	54649.17
667.99	54642.15
668.13	54681.94
668.27	54717.04
668.41	54602.36
668.56	54504.06
668.70	54508.74
668.84	54340.22
668.98	54665.55
669.12	54560.23
669.26	54490.01
669.40	54499.37
669.54	54499.37
669.68	54155.32
669.82	54202.13
669.96	54330.86
670.10	54117.87
670.25	54581.29
670.39	54160.00
670.53	53897.86
670.67	54099.14
670.81	54024.25
670.95	54148.29
671.09	53729.34
671.23	53488.26
671.37	53829.98
671.51	53715.29
671.65	53708.27
671.79	53441.45
671.93	53607.63
672.07	53635.72
672.21	53394.64
672.35	53275.27
672.49	53006.11
672.63	52774.40
672.77	52872.70
672.91	52931.22
673.05	52952.28
673.19	52865.68
673.33	52498.22
673.47	52533.32
673.61	52582.48
673.75	52481.83
673.89	52467.79
674.03	52336.72
674.17	52133.09
674.31	51929.47
674.45	51866.27
674.59	52222.03
674.73	52296.93
674.87	52135.43
675.01	51803.08
675.15	51744.56
675.29	51833.50
675.43	51863.93
675.56	51454.34
675.70	51243.69
675.84	51480.08
675.98	50588.34
676.12	51379.44
676.26	50913.67
676.40	51215.60
676.54	51124.32
676.68	50995.59
676.82	50059.38
676.96	50478.33
677.10	50398.76
677.23	49998.52
677.37	49923.63
677.51	50115.55
677.65	49481.27
677.79	49090.40
677.93	49139.55
678.07	49453.18
678.21	49265.94
678.34	49116.14
678.48	49172.31
678.62	48919.54
678.76	48736.98
678.90	49106.78
679.04	48938.26
679.18	48797.83
679.31	48474.84
679.45	48193.97
679.59	48343.77
679.73	48273.55
679.87	48072.26
680.00	47409.89
680.14	47220.31
680.28	47662.67
680.42	47538.62
680.56	47276.48
680.70	46733.48
680.83	47056.47
680.97	47196.90
681.11	47072.85
681.25	46899.65
681.39	46714.75
681.52	47180.52
681.66	45975.14
681.80	46480.70
681.94	46108.55
682.07	46057.06
682.21	45972.80
682.35	45462.57
682.49	45518.74
682.62	45628.74
682.76	45682.58
682.90	45542.14
683.04	45579.59
683.17	45139.57
683.31	44516.99
683.45	44900.84
683.59	44648.06
683.72	44348.47
683.86	44245.49
684.00	44676.15
684.13	44762.75
684.27	43693.12
684.41	44126.12
684.55	43489.49
684.68	43707.16
684.82	43543.33
684.96	43477.79
685.09	42918.40
685.23	43302.25
685.37	42710.10
685.50	42944.15
685.64	42876.27
685.78	42546.26
685.91	42873.93
686.05	41855.80
686.19	41687.28
686.32	41860.48
686.46	41443.87
686.60	41116.19
686.73	40774.47
686.87	41013.21
687.01	41081.08
687.14	40917.25
687.28	40959.38
687.42	40371.90
687.55	40437.44
687.69	40870.43
687.82	40039.54
687.96	39454.41
688.10	39714.21
688.23	40194.02
688.37	39824.22
688.50	39164.18
688.64	39075.24
688.78	38920.77
688.91	38951.20
689.05	39105.67
689.18	38719.48
689.32	38401.17
689.46	37881.57
689.59	37921.36
689.73	37792.63
689.86	37811.35
690.00	37392.40
690.13	37748.16
690.27	37600.71
690.41	38024.34
690.54	37127.92
690.68	37242.60
690.81	37170.05
690.95	36526.40
691.08	36610.66
691.22	36664.49
691.35	36172.98
691.49	36886.84
691.62	36194.04
691.76	35688.49
691.89	35747.00
692.03	35592.53
692.16	35686.15
692.30	35096.33
692.43	35213.36
692.57	35222.72
692.70	34852.92
692.84	34651.63
692.97	34700.78
693.11	34520.56
693.24	34483.11
693.38	34274.80
693.51	34258.42
693.65	33865.21
693.78	33507.11
693.92	33755.21
694.05	33453.28
694.19	33287.10
694.32	33174.75
694.45	32999.21
694.59	32587.28
694.72	33041.34
694.86	32690.26
694.99	32381.31
695.13	32479.61
695.26	31995.12
695.39	31604.25
695.53	32037.25
695.66	31723.62
695.80	31931.93
695.93	31630.00
696.07	30895.07
696.20	30981.67
696.33	30869.33
696.47	30948.90
696.60	30897.41
696.73	30948.90
696.87	30487.82
697.00	30099.29
697.14	30401.22
697.27	30314.62
697.40	30118.01
697.54	29975.24
697.67	29788.00
697.80	29706.08
697.94	29406.49
698.07	29530.54
698.21	29191.16
698.34	28917.32
698.47	28699.65
698.61	28393.04
698.74	28332.18
698.87	28704.33
699.01	28102.81
699.14	28400.06
699.27	28460.91
699.40	28170.69
699.54	28348.57
699.67	28023.23
699.80	27728.33
699.94	27204.05
700.07	27484.91
700.20	27260.22
700.34	27414.69
700.47	26848.29
700.60	26888.07
700.73	26293.58
700.87	25715.47
701.00	26258.47
701.13	25895.69
701.26	26038.46
701.40	26089.95
701.53	26022.08
701.66	26087.61
701.79	25661.63
701.93	25233.32
702.06	25345.66
702.19	25109.27
702.32	24940.75
702.46	24814.36
702.59	24577.97
702.72	24676.27
702.85	24486.68
702.99	24760.53
703.12	24184.76
703.25	23901.55
703.38	24020.92
703.51	23995.17
703.65	23365.57
703.78	23342.16
703.91	23683.88
704.04	23379.61
704.17	23489.62
704.31	23393.65
704.44	23229.82
704.57	22885.76
704.70	22717.24
704.83	22618.94
704.96	22284.24
705.10	22412.97
705.23	22490.21
>>>>>End Processed Spectral Data<<<<<
