SpectraSuite Data File
++++++++++++++++++++++++++++++++++++
Date: Fri Oct 25 11:25:19 EDT 2013
User: price-jones
Dark Spectrum Present: No
Reference Spectrum Present: No
Number of Sampled Component Spectra: 1
Spectrometers: USB2+H05261
Integration Time (usec): 100000 (USB2+H05261)
Spectra Averaged: 1 (USB2+H05261)
Boxcar Smoothing: 0 (USB2+H05261)
Correct for Electrical Dark: No (USB2+H05261)
Strobe/Lamp Enabled: No (USB2+H05261)
Correct for Detector Non-linearity: No (USB2+H05261)
Correct for Stray Light: No (USB2+H05261)
Number of Pixels in Processed Spectrum: 2048
>>>>>Begin Processed Spectral Data<<<<<
365.73	320.65
365.92	320.65
366.12	320.65
366.32	124.05
366.52	140.43
366.72	138.09
366.91	163.84
367.11	159.16
367.31	133.41
367.51	107.66
367.70	114.69
367.90	170.86
368.10	198.95
368.30	121.71
368.49	142.77
368.69	100.64
368.89	163.84
369.09	156.82
369.28	215.33
369.48	177.88
369.68	229.37
369.87	212.99
370.07	229.37
370.27	217.67
370.47	360.44
370.66	559.39
370.86	631.94
371.06	683.44
371.25	653.01
371.45	678.76
371.65	690.46
371.84	671.73
372.04	697.48
372.24	669.39
372.44	716.20
372.63	636.63
372.83	685.78
373.03	662.37
373.22	763.01
373.42	702.16
373.62	784.08
373.81	802.80
374.01	746.63
374.21	835.57
374.40	774.72
374.60	758.33
374.79	856.64
374.99	877.70
375.19	809.83
375.38	800.46
375.58	833.23
375.78	873.02
375.97	800.46
376.17	896.43
376.37	922.17
376.56	884.72
376.76	896.43
376.95	950.26
377.15	849.61
377.35	840.25
377.54	851.96
377.74	924.51
377.93	940.90
378.13	856.64
378.33	961.96
378.52	884.72
378.72	873.02
378.91	985.37
379.11	903.45
379.31	924.51
379.50	936.21
379.70	959.62
379.89	1004.09
380.09	903.45
380.28	1006.43
380.48	1048.56
380.68	1006.43
380.87	992.39
381.07	1032.18
381.26	1015.79
381.46	1008.77
381.65	1001.75
381.85	1095.37
382.04	994.73
382.24	1022.81
382.43	1142.18
382.63	1032.18
382.83	1025.15
383.02	1156.22
383.22	1186.65
383.41	1025.15
383.61	1116.44
383.80	1167.93
384.00	1130.48
384.19	1071.97
384.39	1102.39
384.58	1226.44
384.78	1188.99
384.97	1179.63
385.17	1088.35
385.36	1172.61
385.56	1193.67
385.75	1128.14
385.95	1259.21
386.14	1245.16
386.34	1144.52
386.53	1252.19
386.72	1172.61
386.92	1315.38
387.11	1207.72
387.31	1203.04
387.50	1196.01
387.70	1275.59
387.89	1299.00
388.09	1291.98
388.28	1310.70
388.48	1261.55
388.67	1233.46
388.86	1348.15
389.06	1270.91
389.25	1338.79
389.45	1338.79
389.64	1345.81
389.84	1432.41
390.03	1420.71
390.22	1369.21
390.42	1490.92
390.61	1432.41
390.81	1413.68
391.00	1371.55
391.19	1469.86
391.39	1420.71
391.58	1458.15
391.78	1483.90
391.97	1460.49
392.16	1392.62
392.36	1542.41
392.55	1526.03
392.75	1528.37
392.94	1521.35
393.13	1575.18
393.33	1547.09
393.52	1469.86
393.71	1561.14
393.91	1626.67
394.10	1685.19
394.29	1607.95
394.49	1598.59
394.68	1586.88
394.88	1643.06
395.07	1619.65
395.26	1657.10
395.46	1629.01
395.65	1715.61
395.84	1785.83
396.04	1762.42
396.23	1778.81
396.42	1858.39
396.62	1736.68
396.81	1809.23
397.00	1795.19
397.19	1743.70
397.39	1802.21
397.58	1778.81
397.77	1720.29
397.97	1870.09
398.16	1907.54
398.35	1877.11
398.55	1769.44
398.74	1851.36
398.93	1952.01
399.12	1856.04
399.32	1865.41
399.51	1930.94
399.70	1954.35
399.90	2045.63
400.09	2073.71
400.28	2031.58
400.47	2064.35
400.67	2029.24
400.86	2050.31
401.05	2099.46
401.24	2005.84
401.44	2174.36
401.63	2080.74
401.82	2118.18
402.01	2172.02
402.21	2249.25
402.40	2186.06
402.59	2200.10
402.78	2202.44
402.97	2202.44
403.17	2246.91
403.36	2279.68
403.55	2310.11
403.74	2246.91
403.93	2319.47
404.13	2361.60
404.32	2291.38
404.51	2331.17
404.70	2413.09
404.89	2310.11
405.09	2457.56
405.28	2431.82
405.47	2516.08
405.66	2516.08
405.85	2480.97
406.05	2452.88
406.24	2483.31
406.43	2544.16
406.62	2670.55
406.81	2630.76
407.00	2588.63
407.20	2541.82
407.39	2588.63
407.58	2693.96
407.77	2644.81
407.96	2649.49
408.15	2722.04
408.34	2700.98
408.54	2853.11
408.73	2813.32
408.92	2794.60
409.11	2899.92
409.30	2857.79
409.49	2890.56
409.68	2876.52
409.87	2899.92
410.07	2956.10
410.26	3026.31
410.45	3077.80
410.64	2988.86
410.83	3208.87
411.02	3026.31
411.21	3187.81
411.40	3049.72
411.59	3307.18
411.78	3227.60
411.98	3192.49
412.17	3281.43
412.36	3166.74
412.55	3417.18
412.74	3297.81
412.93	3325.90
413.12	3353.99
413.31	3468.67
413.50	3447.61
413.69	3473.36
413.88	3548.25
414.07	3564.64
414.26	3709.75
414.45	3702.73
414.64	3623.15
414.83	3702.73
415.02	3824.44
415.22	3805.71
415.41	3901.67
415.60	3850.18
415.79	3826.78
415.98	3892.31
416.17	4046.79
416.36	4030.40
416.55	3882.95
416.74	4072.53
416.93	3840.82
417.12	4053.81
417.31	4051.47
417.50	3953.16
417.69	4259.78
417.88	4175.52
418.07	4051.47
418.26	4269.14
418.45	4285.52
418.64	4362.76
418.83	4320.63
419.02	4285.52
419.21	4369.78
419.39	4512.55
419.58	4498.51
419.77	4344.03
419.96	4599.15
420.15	4620.22
420.34	4634.26
420.53	4564.04
420.72	4681.07
420.91	4730.22
421.10	4634.26
421.29	4760.65
421.48	4589.79
421.67	4856.61
421.86	4678.73
422.05	4685.75
422.24	4896.40
422.43	4877.68
422.61	4997.04
422.80	4898.74
422.99	4889.38
423.18	4987.68
423.37	5125.77
423.56	5078.96
423.75	4887.04
423.94	4660.01
424.13	4554.68
424.32	4732.56
424.50	4964.28
424.69	5095.35
424.88	5102.37
425.07	4901.08
425.26	4880.02
425.45	4926.83
425.64	4980.66
425.83	4980.66
426.01	5139.82
426.20	5050.88
426.39	4901.08
426.58	5111.73
426.77	4968.96
426.96	5114.07
427.15	5109.39
427.33	5074.28
427.52	5011.09
427.71	5172.58
427.90	5322.38
428.09	5343.44
428.28	5336.42
428.46	5282.59
428.65	5324.72
428.84	5523.66
429.03	5455.79
429.22	5235.78
429.40	5518.98
429.59	5535.37
429.78	5165.56
429.97	5329.40
430.16	5444.09
430.34	5645.37
430.53	5678.14
430.72	5509.62
430.91	5610.26
431.10	5533.03
431.28	5743.67
431.47	5731.97
431.66	5816.23
431.85	5633.67
432.03	5816.23
432.22	5895.81
432.41	5799.85
432.60	5795.17
432.79	5895.81
432.97	6008.16
433.16	5921.56
433.35	5884.11
433.54	5898.15
433.72	6136.88
433.91	6005.81
434.10	6186.04
434.28	5994.11
434.47	6162.63
434.66	6223.48
434.85	6338.17
435.03	6193.06
435.22	6167.31
435.41	6478.60
435.59	6373.28
435.78	6333.49
435.97	6539.46
436.16	6466.90
436.34	6340.51
436.53	6565.20
436.72	6733.72
436.90	6427.11
437.09	6541.80
437.28	6429.45
437.46	6497.33
437.65	6558.18
437.84	6574.56
438.02	6703.29
438.21	6707.98
438.40	6649.46
438.58	6920.96
438.77	6904.58
438.96	6951.39
439.14	7126.93
439.33	7075.44
439.52	7222.89
439.70	7082.46
439.89	7211.19
440.08	7274.38
440.26	7297.79
440.45	7152.68
440.63	7269.70
440.82	7695.68
441.01	7548.23
441.19	7332.90
441.38	7812.71
441.57	7705.04
441.75	7772.92
441.94	7885.26
442.12	7810.37
442.31	7786.96
442.50	7875.90
442.68	7894.63
442.87	7896.97
443.05	7988.25
443.24	8201.24
443.43	8222.30
443.61	8124.00
443.80	8322.94
443.98	8049.10
444.17	7845.48
444.35	8229.32
444.54	8241.03
444.73	8409.54
444.91	8229.32
445.10	8264.43
445.28	8367.42
445.47	8276.13
445.65	8121.66
445.84	8285.50
446.02	8294.86
446.21	8454.02
446.39	8313.58
446.58	8585.08
446.77	8461.04
446.95	8287.84
447.14	8355.71
447.32	8475.08
447.51	8428.27
447.69	8236.35
447.88	8416.57
448.06	8404.86
448.25	8430.61
448.43	8507.85
448.62	8320.60
448.80	8222.30
448.99	8542.96
449.17	8610.83
449.36	8606.15
449.54	8587.43
449.73	8746.58
449.91	8966.59
450.10	8870.63
450.28	8959.57
450.46	8905.74
450.65	9109.36
450.83	8992.34
451.02	8959.57
451.20	9013.40
451.39	8905.74
451.57	9172.56
451.76	8915.10
451.94	9006.38
452.13	9275.54
452.31	9224.05
452.49	9193.62
452.68	9397.25
452.86	9598.54
453.05	9425.34
453.23	9481.51
453.42	9359.80
453.60	9207.67
453.78	9540.02
453.97	9263.84
454.15	9401.93
454.34	9488.53
454.52	9502.58
454.70	9387.89
454.89	9626.62
455.07	9858.34
455.26	9720.24
455.44	10113.45
455.62	9692.16
455.81	9980.04
455.99	10111.11
456.17	9905.15
456.36	10036.22
456.54	10284.31
456.73	10080.69
456.91	10260.91
457.09	10506.66
457.28	10326.44
457.46	10101.75
457.64	10401.34
457.83	10574.54
458.01	10361.55
458.19	10480.92
458.38	10548.79
458.56	10747.74
458.74	10581.56
458.93	10518.37
459.11	10504.32
459.29	10492.62
459.48	10862.43
459.66	10574.54
459.84	10679.86
460.03	11091.80
460.21	10977.11
460.39	10794.55
460.57	10986.47
460.76	11061.37
460.94	10963.07
461.12	11075.42
461.31	10939.66
461.49	11143.29
461.67	11150.31
461.85	11419.47
462.04	11433.52
462.22	11854.81
462.40	11559.91
462.59	11426.50
462.77	11569.27
462.95	11454.58
463.13	11782.26
463.32	11332.87
463.50	11726.08
463.68	11845.45
463.86	11873.54
464.05	11595.01
464.23	11602.04
464.41	11810.34
464.59	11824.39
464.78	12098.23
464.96	11838.43
465.14	11798.64
465.32	11838.43
465.50	11964.82
465.69	12072.48
465.87	12049.08
466.05	12142.70
466.23	12072.48
466.41	12297.17
466.60	12248.02
466.78	12084.19
466.96	11838.43
467.14	12374.41
467.32	12264.41
467.51	12484.42
467.69	12306.54
467.87	12201.21
468.05	12521.87
468.23	12336.96
468.41	12369.73
468.60	12383.77
468.78	12772.30
468.96	12482.08
469.14	12552.29
469.32	13022.74
469.50	12622.51
469.69	13163.17
469.87	13069.55
470.05	12901.03
470.23	13116.36
470.41	13078.91
470.59	13165.51
470.77	12903.37
470.95	12863.58
471.14	13495.53
471.32	13060.19
471.50	13434.68
471.68	13448.72
471.86	13523.62
472.04	13680.43
472.22	14157.90
472.40	13624.26
472.58	13881.72
472.77	13832.57
472.95	13902.78
473.13	14548.77
473.31	13872.36
473.49	14010.45
473.67	14115.77
473.85	14200.03
474.03	14431.74
474.21	14579.20
474.39	14520.68
474.57	14429.40
474.75	14593.24
474.93	14733.67
475.12	14693.88
475.30	15026.24
475.48	14869.42
475.66	15115.18
475.84	15002.83
476.02	15311.78
476.20	15213.48
476.38	15578.61
476.56	16196.51
476.74	15859.47
476.92	15779.89
477.10	15723.72
477.28	15983.52
477.46	16159.06
477.64	15913.30
477.82	16299.49
478.00	17006.33
478.18	16477.37
478.36	16865.90
478.54	17114.00
478.72	17062.51
478.90	17249.75
479.08	17659.34
479.26	17645.30
479.44	17193.58
479.62	17687.43
479.80	17984.68
479.98	17965.95
480.16	18455.12
480.34	18207.03
480.52	18181.28
480.70	18513.64
480.88	18181.28
481.06	18721.95
481.24	18820.25
481.41	19145.58
481.59	19080.05
481.77	19442.83
481.95	19358.57
482.13	19777.53
482.31	19484.96
482.49	20044.35
482.67	20074.77
482.85	20376.70
483.03	20690.34
483.21	20449.26
483.39	21083.55
483.57	20561.61
483.74	20692.68
483.92	21156.10
484.10	20788.64
484.28	21348.03
484.46	21776.34
484.64	22328.71
484.82	21921.46
485.00	22113.38
485.18	22565.10
485.35	22726.60
485.53	22738.30
485.71	22754.69
485.89	23585.58
486.07	23019.17
486.25	23372.59
486.43	23702.61
486.61	23538.77
486.78	23962.40
486.96	23948.36
487.14	24498.39
487.32	24505.41
487.50	24790.95
487.68	24900.96
487.85	25277.79
488.03	25230.98
488.21	25371.41
488.39	25397.15
488.57	25790.36
488.75	25820.79
488.92	26441.03
489.10	26455.08
489.28	26717.22
489.46	26752.32
489.64	27002.76
489.81	27103.40
489.99	27505.98
490.17	27548.11
490.35	27882.80
490.53	28198.77
490.70	28077.07
490.88	28020.89
491.06	28570.92
491.24	28432.83
491.41	28496.02
491.59	29050.73
491.77	28882.21
491.95	29502.45
492.13	29362.02
492.30	29642.88
492.48	29685.01
492.66	29867.58
492.84	29881.62
493.01	30396.54
493.19	30244.40
493.37	30841.24
493.54	31030.82
493.72	31384.24
493.90	31330.41
494.08	31309.35
494.25	31470.84
494.43	31707.24
494.61	31892.14
494.79	32093.43
494.96	32559.19
495.14	32409.40
495.32	32980.49
495.49	33053.05
495.67	32936.02
495.85	33542.22
496.02	33167.73
496.20	33556.26
496.38	33799.68
496.55	33977.56
496.73	34682.06
496.91	34321.62
497.09	34473.75
497.26	34665.67
497.44	34862.28
497.62	35019.10
497.79	35346.77
497.97	35211.02
498.14	35632.32
498.32	35791.47
498.50	36137.87
498.67	36645.77
498.85	36404.69
499.03	36584.91
499.20	36116.81
499.38	36278.30
499.56	36678.54
499.73	37411.12
499.91	36823.65
500.08	37399.42
500.26	37174.73
500.44	37490.70
500.61	37699.01
500.79	37338.57
500.97	37528.15
501.14	38326.27
501.32	38106.26
501.49	37879.23
501.67	38459.68
501.84	38548.62
502.02	38644.59
502.20	38520.54
502.37	39084.61
502.55	39173.55
502.72	39505.90
502.90	39384.19
503.07	39236.74
503.25	39604.20
503.43	39311.64
503.60	39435.69
503.78	39779.74
503.95	39859.32
504.13	40016.14
504.30	40666.81
504.48	40292.32
504.65	40514.67
504.83	40776.81
505.01	41092.79
505.18	40823.62
505.36	41462.59
505.53	40807.24
505.71	41432.16
505.88	41516.42
506.06	41415.78
506.23	41745.80
506.41	41951.76
506.58	41745.80
506.76	42096.88
506.93	42146.03
507.11	41806.65
507.28	42410.51
507.46	42082.83
507.63	42848.19
507.81	43115.01
507.98	42859.89
508.16	42763.93
508.33	43421.62
508.50	43592.48
508.68	43430.98
508.85	43789.08
509.03	43426.30
509.20	43723.55
509.38	43922.49
509.55	44385.92
509.73	44191.65
509.90	44554.44
510.08	44355.49
510.25	44369.54
510.42	44748.70
510.60	44694.87
510.77	44907.86
510.95	45008.50
511.12	44879.77
511.30	44732.32
511.47	44966.37
511.64	45347.88
511.82	45823.01
511.99	45317.45
512.17	45837.05
512.34	45319.79
512.51	46169.41
512.69	46155.36
512.86	46131.96
513.04	46461.97
513.21	46153.02
513.38	46436.23
513.56	46806.03
513.73	46855.18
513.90	46401.12
514.08	46632.83
514.25	46499.42
514.43	46663.26
514.60	47269.46
514.77	47047.11
514.95	47611.18
515.12	47042.43
515.29	47526.92
515.47	47519.90
515.64	47936.51
515.81	47931.83
515.99	47950.56
516.16	48011.41
516.33	48004.39
516.51	48416.32
516.68	48381.21
516.85	48669.10
517.03	48877.41
517.20	48769.74
517.37	48800.17
517.54	48980.39
517.72	48765.06
517.89	48744.00
518.06	49097.42
518.24	48753.36
518.41	49279.98
518.58	49336.15
518.75	49460.20
518.93	49186.36
519.10	49212.10
519.27	49254.23
519.45	49289.34
519.62	49635.74
519.79	50000.86
519.96	49909.58
520.14	50157.68
520.31	49745.75
520.48	49996.18
520.65	50019.59
520.83	49867.45
521.00	50824.73
521.17	50241.94
521.34	50642.17
521.52	50782.60
521.69	50667.92
521.86	50621.11
522.03	50658.56
522.20	51297.52
522.38	51056.45
522.55	50625.79
522.72	50890.27
522.89	51143.05
523.07	51302.20
523.24	51543.28
523.41	51622.86
523.58	51014.32
523.75	51714.14
523.92	51798.40
524.10	52013.73
524.27	51770.31
524.44	51931.81
524.61	51840.53
524.78	52116.71
524.96	52313.31
525.13	52032.45
525.30	52090.96
525.47	52353.10
525.64	52236.08
525.81	52842.27
525.98	52402.25
526.16	52353.10
526.33	52589.50
526.50	52765.04
526.67	52474.81
526.84	52992.07
527.01	52739.29
527.18	52603.54
527.36	52725.25
527.53	52774.40
527.70	53111.44
527.87	53102.07
528.04	52961.64
528.21	53151.23
528.38	53179.31
528.55	53399.32
528.72	53205.06
528.89	53169.95
529.07	53008.45
529.24	52879.72
529.41	53724.66
529.58	53319.74
529.75	53401.66
529.92	53216.76
530.09	53811.26
530.26	53762.11
530.43	53965.73
530.60	53670.82
530.77	53567.84
530.94	53719.98
531.11	53631.04
531.28	54082.76
531.46	54094.46
531.63	53844.02
531.80	54466.61
531.97	53947.01
532.14	54337.88
532.31	54209.15
532.48	54555.55
532.65	54461.93
532.82	54478.31
532.99	54527.46
533.16	54394.05
533.33	54564.91
533.50	55035.36
533.67	54728.75
533.84	54585.97
534.01	54546.18
534.18	54855.14
534.35	55002.59
534.52	54827.05
534.69	55037.70
534.86	54813.01
535.03	54733.43
535.20	55025.99
535.37	55344.31
535.54	55437.93
535.71	55070.46
535.88	55288.13
536.05	55199.19
536.22	55367.71
536.38	55428.57
536.55	55421.55
536.72	55400.48
536.89	55203.88
537.06	55510.49
537.23	55735.18
537.40	55456.65
537.57	55463.67
537.74	55819.44
537.91	55873.27
538.08	55789.01
538.25	55655.60
538.42	55847.52
538.59	56027.74
538.75	55753.90
538.92	55931.78
539.09	56149.45
539.26	55973.91
539.43	55924.76
539.60	56165.84
539.77	56065.19
539.94	56378.82
540.11	56109.66
540.28	56222.01
540.44	56416.27
540.61	56378.82
540.78	56170.52
540.95	56219.67
541.12	56346.06
541.29	56320.31
541.46	56383.51
541.62	56460.74
541.79	56537.98
541.96	56287.54
542.13	56390.53
542.30	56477.13
542.47	56514.58
542.63	56673.73
542.80	56825.87
542.97	56886.72
543.14	57118.43
543.31	57228.44
543.48	56996.73
543.64	57453.13
543.81	57261.21
543.98	56985.02
544.15	57162.90
544.32	57132.48
544.48	57427.38
544.65	57251.84
544.82	57322.06
544.99	57010.77
545.16	57322.06
545.32	57326.74
545.49	57375.89
545.66	57640.37
545.83	57492.92
546.00	57558.45
546.16	57464.83
546.33	57296.31
546.50	57418.02
546.67	57628.67
546.83	57354.83
547.00	57528.03
547.17	57577.18
547.34	57762.08
547.50	57659.10
547.67	57832.30
547.84	57705.91
548.00	58007.84
548.17	58124.86
548.34	57818.25
548.51	58305.09
548.67	58054.65
548.84	58038.26
549.01	58000.82
549.18	57965.71
549.34	57991.45
549.51	58232.53
549.68	58080.39
549.84	58185.72
550.01	58358.92
550.18	58003.16
550.34	58417.43
550.51	58253.59
550.68	58365.94
550.84	58141.25
551.01	58328.49
551.18	58195.08
551.34	58230.19
551.51	58398.71
551.68	58401.05
551.84	58539.14
552.01	58202.10
552.18	58525.10
552.34	58113.16
552.51	58513.39
552.68	58382.32
552.84	58714.68
553.01	58878.52
553.18	58796.60
553.34	58880.86
553.51	58630.42
553.67	58791.92
553.84	58838.73
554.01	58679.57
554.17	58738.08
554.34	58777.87
554.51	58822.34
554.67	58808.30
554.84	58845.75
555.00	58717.02
555.17	58609.35
555.33	58747.45
555.50	58906.60
555.67	58705.32
555.83	58761.49
556.00	58927.67
556.16	59384.07
556.33	59231.94
556.50	59096.19
556.66	59269.39
556.83	58714.68
556.99	59175.76
557.16	59442.59
557.32	59484.72
557.49	59529.19
557.65	59297.47
557.82	59243.64
557.98	59180.45
558.15	59409.82
558.32	59351.30
558.48	59126.61
558.65	59344.28
558.81	59267.05
558.98	59292.79
559.14	59374.71
559.31	59412.16
559.47	59416.84
559.64	59709.41
559.80	59430.88
559.97	59426.20
560.13	59531.53
560.30	59379.39
560.46	59737.49
560.63	59791.33
560.79	59700.04
560.96	59606.42
561.12	59440.24
561.29	59704.73
561.45	59688.34
561.61	59927.08
561.78	59718.77
561.94	59648.55
562.11	59686.00
562.27	59807.71
562.44	59906.01
562.60	59831.11
562.77	60023.04
562.93	59765.58
563.10	59931.76
563.26	59840.48
563.42	59969.21
563.59	59910.69
563.75	59973.89
563.92	59962.18
564.08	59913.03
564.24	59929.42
564.41	60025.38
564.57	59924.74
564.74	60039.42
564.90	60126.02
565.07	59859.20
565.23	60322.63
565.39	59870.90
565.56	60123.68
565.72	60009.00
565.88	59971.55
566.05	60060.49
566.21	59999.63
566.38	60060.49
566.54	60041.76
566.70	60261.77
566.87	60144.75
567.03	59976.23
567.19	60214.96
567.36	60257.09
567.52	60247.73
567.68	60210.28
567.85	60205.60
568.01	60219.64
568.17	59990.27
568.34	60006.65
568.50	60212.62
568.66	60119.00
568.83	60339.01
568.99	60247.73
569.15	60168.15
569.32	60177.51
569.48	60004.31
569.64	60142.41
569.81	60390.50
569.97	60200.92
570.13	60388.16
570.30	60121.34
570.46	60252.41
570.62	60062.83
570.78	60299.22
570.95	60411.57
571.11	60301.56
571.27	60313.26
571.43	60287.52
571.60	60441.99
571.76	60477.10
571.92	60411.57
572.09	60243.05
572.25	60437.31
572.41	60367.10
572.57	60343.69
572.74	60577.75
572.90	60423.27
573.06	60577.75
573.22	60495.83
573.38	60460.72
573.55	60549.66
573.71	60879.67
573.87	60683.07
574.03	60282.84
574.20	60566.04
574.36	60530.93
574.52	60657.32
574.68	60631.58
574.84	60760.31
575.01	60772.01
575.17	60544.98
575.33	60441.99
575.49	60437.31
575.65	60500.51
575.82	60647.96
575.98	60474.76
576.14	60910.10
576.30	60741.58
576.46	60547.32
576.62	60633.92
576.79	60568.38
576.95	60537.96
577.11	60591.79
577.27	60713.50
577.43	60713.50
577.59	60589.45
577.75	60678.39
577.92	60559.02
578.08	60905.42
578.24	60662.00
578.40	60853.93
578.56	60753.29
578.72	60685.41
578.88	60757.97
579.04	60795.42
579.21	60800.10
579.37	60903.08
579.53	60722.86
579.69	60505.19
579.85	60526.25
580.01	60509.87
580.17	60591.79
580.33	60814.14
580.49	60928.83
580.65	60945.21
580.82	60610.51
580.98	60549.66
581.14	60739.24
581.30	61099.68
581.46	60638.60
581.62	60760.31
581.78	60832.86
581.94	60779.03
582.10	60788.39
582.26	60715.84
582.42	60669.03
582.58	61080.96
582.74	60914.78
582.90	60776.69
583.06	60903.08
583.22	60776.69
583.38	60732.22
583.54	60856.27
583.70	60963.93
583.86	60884.36
584.02	60757.97
584.18	60753.29
584.34	60872.65
584.50	60699.45
584.66	60718.18
584.82	60835.20
584.98	61097.34
585.14	60816.48
585.30	60713.50
585.46	60811.80
585.62	60905.42
585.78	60942.87
585.94	60596.47
586.10	60893.72
586.26	61064.58
586.42	60800.10
586.58	60982.66
586.74	60949.89
586.90	60889.04
587.06	60858.61
587.22	61265.86
587.38	60774.35
587.54	61085.64
587.70	61076.28
587.86	61036.49
588.02	61066.92
588.18	60917.12
588.34	60809.46
588.49	60851.59
588.65	60697.11
588.81	61087.98
588.97	61029.47
589.13	60987.34
589.29	60935.85
589.45	61251.82
589.61	60994.36
589.77	61333.74
589.93	61050.53
590.08	61069.26
590.24	61373.53
590.40	61403.95
590.56	61443.74
590.72	61172.24
590.88	61207.35
591.04	61097.34
591.20	61357.14
591.35	61244.80
591.51	61373.53
591.67	61106.71
591.83	61450.77
591.99	61296.29
592.15	61188.63
592.31	61200.33
592.46	61256.50
592.62	61474.17
592.78	61219.05
592.94	61219.05
593.10	61333.74
593.26	61315.01
593.41	61387.57
593.57	61425.02
593.73	61345.44
593.89	61560.77
594.05	61310.33
594.20	61263.52
594.36	61474.17
594.52	61336.08
594.68	61392.25
594.84	61200.33
594.99	61223.73
595.15	61324.38
595.31	61319.70
595.47	61361.82
595.62	61207.35
595.78	61570.13
595.94	61418.00
596.10	61453.11
596.25	61329.06
596.41	61623.96
596.57	61408.64
596.73	61546.73
596.88	61621.62
597.04	61530.34
597.20	61495.24
597.36	61488.21
597.51	61525.66
597.67	61392.25
597.83	61207.35
597.99	61504.60
598.14	61528.00
598.30	61602.90
598.46	61504.60
598.61	61612.26
598.77	61537.36
598.93	61551.41
599.09	61666.09
599.24	62040.58
599.40	61673.12
599.56	61675.46
599.71	61523.32
599.87	61862.70
600.03	61668.44
600.18	61443.74
600.34	61443.74
600.50	61780.78
600.65	61516.30
600.81	61673.12
600.97	61766.74
601.12	61504.60
601.28	61776.10
601.44	61584.18
601.59	61497.58
601.75	61485.87
601.91	61656.73
602.06	61698.86
602.22	61771.42
602.37	61684.82
602.53	61469.49
602.69	61506.94
602.84	61511.62
603.00	61710.56
603.16	61755.03
603.31	61595.88
603.47	61694.18
603.62	61502.26
603.78	61640.35
603.94	61581.84
604.09	61808.87
604.25	61607.58
604.40	61630.99
604.56	61567.79
604.71	61593.54
604.87	61736.31
605.03	61757.38
605.18	61488.21
605.34	61719.93
605.49	61513.96
605.65	61755.03
605.80	61593.54
605.96	61797.16
606.12	61567.79
606.27	62017.17
606.43	61694.18
606.58	61673.12
606.74	61609.92
606.89	61572.47
607.05	61827.59
607.20	61485.87
607.36	61359.48
607.51	61509.28
607.67	61368.85
607.82	61570.13
607.98	61474.17
608.13	61652.05
608.29	61558.43
608.44	61640.35
608.60	61492.89
608.75	61455.45
608.91	61345.44
609.06	61380.55
609.22	61614.60
609.37	61513.96
609.53	61595.88
609.68	61520.98
609.84	61361.82
609.99	61537.36
610.15	61354.80
610.30	61602.90
610.46	61380.55
610.61	61343.10
610.76	61439.06
610.92	61275.22
611.07	61392.25
611.23	61420.34
611.38	61488.21
611.54	61481.19
611.69	61453.11
611.84	61551.41
612.00	61464.81
612.15	61188.63
612.31	61324.38
612.46	61263.52
612.62	61279.91
612.77	61226.07
612.92	61677.80
613.08	61350.12
613.23	61364.17
613.39	61387.57
613.54	61174.58
613.69	61427.36
613.85	61284.59
614.00	61675.46
614.15	61455.45
614.31	61291.61
614.46	61338.42
614.62	61347.78
614.77	61200.33
614.92	61118.41
615.08	61368.85
615.23	61207.35
615.38	61340.76
615.54	61270.54
615.69	61324.38
615.84	61230.75
616.00	61420.34
616.15	61006.06
616.30	61247.14
616.46	60973.30
616.61	61102.03
616.76	61212.03
616.92	61256.50
617.07	61176.92
617.22	61050.53
617.37	60987.34
617.53	61474.17
617.68	61300.97
617.83	60940.53
617.99	61076.28
618.14	61085.64
618.29	61226.07
618.45	60832.86
618.60	60786.05
618.75	60992.02
618.90	61109.05
619.06	61085.64
619.21	61029.47
619.36	60879.67
619.51	60982.66
619.67	60886.70
619.82	60889.04
619.97	61132.45
620.12	60858.61
620.28	60701.79
620.43	60720.52
620.58	60882.02
620.73	60832.86
620.89	60912.44
621.04	61015.43
621.19	60732.22
621.34	60842.23
621.49	60732.22
621.65	60851.59
621.80	60903.08
621.95	60502.85
622.10	60647.96
622.25	60748.60
622.41	60704.13
622.56	60949.89
622.71	60779.03
622.86	60624.56
623.01	60605.83
623.16	60636.26
623.32	60519.23
623.47	60633.92
623.62	60615.19
623.77	60612.85
623.92	60699.45
624.07	60818.82
624.23	60659.66
624.38	60591.79
624.53	60444.33
624.68	60392.84
624.83	60594.13
624.98	60699.45
625.13	60427.95
625.29	60589.45
625.44	60486.46
625.59	60636.26
625.74	60324.97
625.89	60491.15
626.04	60301.56
626.19	60214.96
626.34	60233.69
626.49	60097.94
626.65	60243.05
626.80	60587.11
626.95	60350.71
627.10	60142.41
627.25	60229.01
627.40	60065.17
627.55	60207.94
627.70	60226.66
627.85	60104.96
628.00	59980.91
628.15	60231.35
628.30	60051.12
628.45	59992.61
628.60	60034.74
628.76	60006.65
628.91	60097.94
629.06	60268.79
629.21	60360.08
629.36	60051.12
629.51	59999.63
629.66	60004.31
629.81	59887.29
629.96	59891.97
630.11	59854.52
630.26	60130.70
630.41	60041.76
630.56	60093.25
630.71	60023.04
630.86	60114.32
631.01	59774.94
631.16	59849.84
631.31	59866.22
631.46	59646.21
631.61	59840.48
631.76	59990.27
631.91	60030.06
632.06	59863.88
632.21	59760.90
632.36	59744.51
632.51	59821.75
632.66	59695.36
632.81	59667.28
632.96	59833.46
633.10	59707.07
633.25	59896.65
633.40	59707.07
633.55	59636.85
633.70	59732.81
633.85	59386.41
634.00	59480.03
634.15	59449.61
634.30	59587.70
634.45	59767.92
634.60	59803.03
634.75	59662.60
634.90	59480.03
635.05	59568.97
635.19	59648.55
635.34	59568.97
635.49	59632.17
635.64	59412.16
635.79	59381.73
635.94	59290.45
636.09	59529.19
636.24	59402.80
636.39	59561.95
636.53	59531.53
636.68	59355.99
636.83	59451.95
636.98	59597.06
637.13	59222.58
637.28	59456.63
637.43	59236.62
637.57	59320.88
637.72	59044.69
637.87	59236.62
638.02	59269.39
638.17	59222.58
638.32	59309.18
638.46	59323.22
638.61	59297.47
638.76	59089.16
638.91	59051.72
639.06	59030.65
639.20	58962.78
639.35	59016.61
639.50	58946.39
639.65	59100.87
639.80	59119.59
639.94	58981.50
640.09	59241.30
640.24	59049.38
640.39	59030.65
640.54	58962.78
640.68	58965.12
640.83	59075.12
640.98	58857.45
641.13	59089.16
641.27	59154.70
641.42	58852.77
641.57	58838.73
641.72	58845.75
641.86	58686.59
642.01	58810.64
642.16	58848.09
642.31	58731.06
642.45	59054.06
642.60	58609.35
642.75	58824.68
642.90	58763.83
643.04	58717.02
643.19	58852.77
643.34	58953.41
643.48	58623.40
643.63	58740.42
643.78	58904.26
643.93	58698.30
644.07	58670.21
644.22	58422.11
644.37	58047.63
644.51	58487.65
644.66	58749.79
644.81	58546.16
644.95	58639.78
645.10	58396.37
645.25	58473.60
645.39	58323.81
645.54	58379.98
645.69	58590.63
645.83	58354.24
645.98	58272.32
646.13	58391.68
646.27	58578.93
646.42	58379.98
646.57	58555.52
646.71	58291.04
646.86	58487.65
647.00	58370.62
647.15	58323.81
647.30	58548.50
647.44	58209.12
647.59	58595.31
647.74	58190.40
647.88	58417.43
648.03	58475.94
648.17	58330.83
648.32	58234.87
648.47	58309.77
648.61	58017.20
648.76	58314.45
648.90	58136.57
649.05	58061.67
649.20	58284.02
649.34	58277.00
649.49	58162.31
649.63	58422.11
649.78	58253.59
649.92	58340.19
650.07	58302.74
650.21	58143.59
650.36	58145.93
650.51	57841.66
650.65	58174.02
650.80	58106.14
650.94	57829.96
651.09	57841.66
651.23	57593.56
651.38	57975.07
651.52	57696.55
651.67	58024.22
651.81	57832.30
651.96	57836.98
652.10	57818.25
652.25	57741.02
652.39	57698.89
652.54	57542.07
652.68	57654.42
652.83	57771.44
652.97	57888.47
653.12	57354.83
653.26	57521.01
653.41	57614.63
653.55	57602.92
653.70	57771.44
653.84	57635.69
653.99	57429.72
654.13	57635.69
654.27	57401.64
654.42	57502.28
654.56	57595.90
654.71	57633.35
654.85	57649.74
655.00	57560.79
655.14	57420.36
655.29	57258.87
655.43	57577.18
655.57	57317.38
655.72	57282.27
655.86	57331.42
656.01	57563.14
656.15	57251.84
656.30	57315.04
656.44	57616.97
656.58	57509.30
656.73	57389.94
656.87	57279.93
657.01	57490.58
657.16	57308.02
657.30	57270.57
657.45	57403.98
657.59	57158.22
657.73	56891.40
657.88	56809.48
658.02	56989.70
658.16	57219.08
658.31	56809.48
658.45	56978.00
658.60	57125.46
658.74	57141.84
658.88	56985.02
659.03	56975.66
659.17	56786.08
659.31	56886.72
659.46	56996.73
659.60	56802.46
659.74	56673.73
659.89	56528.62
660.03	56825.87
660.17	56816.50
660.32	56853.95
660.46	56722.88
660.60	56388.19
660.74	56896.08
660.89	56877.36
661.03	56423.29
661.17	56416.27
661.32	56332.01
661.46	56456.06
661.60	56528.62
661.74	56168.18
661.89	56273.50
662.03	56175.20
662.17	56037.11
662.31	56177.54
662.46	56261.80
662.60	56154.13
662.74	56062.85
662.88	55994.98
663.03	55849.86
663.17	55924.76
663.31	55950.51
663.45	55842.84
663.60	55753.90
663.74	55660.28
663.88	55622.83
664.02	55475.38
664.17	55861.57
664.31	55585.38
664.45	55749.22
664.59	55615.81
664.73	55725.81
664.88	55613.47
665.02	55173.45
665.16	55327.92
665.30	55458.99
665.44	55267.07
665.59	55121.96
665.73	55255.37
665.87	54972.16
666.01	55236.64
666.15	55105.57
666.29	55229.62
666.44	55246.00
666.58	54789.60
666.72	54920.67
666.86	54951.10
667.00	54848.11
667.14	54665.55
667.28	54684.28
667.43	54525.12
667.57	54766.20
667.71	54663.21
667.85	54658.53
667.99	54534.48
668.13	54445.54
668.27	54356.60
668.41	54349.58
668.56	54227.87
668.70	54108.50
668.84	53804.24
668.98	54150.63
669.12	54057.01
669.26	54319.15
669.40	54148.29
669.54	54323.83
669.68	54099.14
669.82	53972.75
669.96	54028.93
670.10	53834.66
670.25	54096.80
670.39	53839.34
670.53	53710.61
670.67	53483.58
670.81	54014.88
670.95	53586.57
671.09	53675.51
671.23	53195.70
671.37	53436.77
671.51	53141.86
671.65	53319.74
671.79	53125.48
671.93	53221.44
672.07	53317.40
672.21	52893.77
672.35	52870.36
672.49	52697.16
672.63	52765.04
672.77	52554.39
672.91	52493.54
673.05	52636.31
673.19	52432.68
673.33	52055.85
673.47	52360.12
673.61	52303.95
673.75	52069.90
673.89	51812.44
674.03	51803.08
674.17	51636.90
674.31	51559.66
674.45	51690.73
674.59	51337.31
674.73	51505.83
674.87	51664.99
675.01	51714.14
675.15	51276.46
675.29	51529.23
675.43	51496.47
675.56	51124.32
675.70	51393.48
675.84	50623.45
675.98	49731.70
676.12	51000.27
676.26	50918.35
676.40	50424.50
676.54	50965.17
676.68	50686.64
676.82	49806.60
676.96	50504.08
677.10	49734.04
677.23	49750.43
677.37	49712.98
677.51	49837.03
677.65	49139.55
677.79	48739.32
677.93	48744.00
678.07	49027.20
678.21	48685.48
678.34	49139.55
678.48	48732.29
678.62	48657.40
678.76	48418.66
678.90	48491.22
679.04	48329.72
679.18	48343.77
679.31	47672.03
679.45	47594.79
679.59	47990.34
679.73	47870.98
679.87	47583.09
680.00	47180.52
680.14	47257.76
680.28	47381.80
680.42	46504.10
680.56	47105.62
680.70	46838.80
680.83	46534.53
680.97	46349.63
681.11	46665.60
681.25	46356.65
681.39	46274.73
681.52	46146.00
681.66	45883.86
681.80	46085.15
681.94	45567.89
682.07	45820.67
682.21	45296.39
682.35	45132.55
682.49	45193.40
682.62	44832.96
682.76	45134.89
682.90	44811.90
683.04	44971.05
683.17	44552.10
683.31	44177.61
683.45	44177.61
683.59	44046.54
683.72	44037.18
683.86	43955.26
684.00	44088.67
684.13	43966.96
684.27	43517.58
684.41	43508.22
684.55	43641.63
684.68	43482.47
684.82	43047.13
684.96	43175.86
685.09	42848.19
685.23	42670.31
685.37	42258.37
685.50	42583.71
685.64	42157.73
685.78	42045.38
685.91	42021.98
686.05	41736.43
686.19	41263.64
686.32	41296.41
686.46	40786.18
686.60	40711.28
686.73	40243.17
686.87	40875.12
687.01	40882.14
687.14	40783.83
687.28	40402.33
687.42	40425.73
687.55	40350.84
687.69	40084.01
687.82	40034.86
687.96	39426.32
688.10	39433.35
688.23	39295.25
688.37	39330.36
688.50	38623.52
688.64	38515.86
688.78	38508.83
688.91	38309.89
689.05	38501.81
689.18	38277.12
689.32	37572.62
689.46	37415.80
689.59	37453.25
689.73	37759.86
689.86	37282.39
690.00	37509.43
690.13	37228.56
690.27	37364.31
690.41	37376.01
690.54	37050.68
690.68	36730.03
690.81	36779.18
690.95	36610.66
691.08	36341.50
691.22	36133.19
691.35	35894.46
691.49	35969.35
691.62	35683.81
691.76	35491.88
691.89	35206.34
692.03	35576.14
692.16	34951.22
692.30	34824.83
692.43	35065.91
692.57	34649.29
692.70	34749.93
692.84	34660.99
692.97	34920.79
693.11	34492.47
693.24	34288.85
693.38	33837.12
693.51	33303.48
693.65	33369.02
693.78	33415.83
693.92	33645.20
694.05	33144.33
694.19	33017.94
694.32	32847.08
694.45	32950.06
694.59	32730.05
694.72	32479.61
694.86	32624.73
694.99	31831.29
695.13	31754.05
695.26	31667.45
695.39	31363.18
695.53	32037.25
695.66	31639.36
695.80	31236.79
695.93	31168.91
696.07	30668.04
696.20	30546.33
696.33	30354.41
696.47	30558.03
696.60	30728.89
696.73	30197.59
696.87	30288.87
697.00	30258.45
697.14	30295.89
697.27	30176.53
697.40	29699.06
697.54	29813.74
697.67	29542.24
697.80	29298.83
697.94	29060.09
698.07	29158.39
698.21	28622.41
698.34	28924.34
698.47	28484.32
698.61	28236.22
698.74	28315.80
698.87	28374.31
699.01	28208.14
699.14	28130.90
699.27	27655.77
699.40	27934.29
699.54	28016.21
699.67	27613.64
699.80	27150.21
699.94	27288.31
700.07	27271.92
700.20	27145.53
700.34	26410.60
700.47	26515.93
700.60	26277.19
700.73	26347.41
700.87	26022.08
701.00	25790.36
701.13	25638.23
701.26	25855.90
701.40	26036.12
701.53	25624.18
701.66	25390.13
701.79	25366.73
701.93	24828.40
702.06	24879.89
702.19	24938.41
702.32	25034.37
702.46	24568.60
702.59	24512.43
702.72	24393.06
702.85	24470.30
702.99	24374.34
703.12	24175.39
703.25	23985.81
703.38	23398.34
703.51	23503.66
703.65	23452.17
703.78	23494.30
703.91	23021.51
704.04	23421.74
704.17	23241.52
704.31	22916.19
704.44	22698.52
704.57	22766.39
704.70	22658.73
704.83	22136.79
704.96	22052.53
705.10	22277.22
705.23	22267.86
>>>>>End Processed Spectral Data<<<<<
