SpectraSuite Data File
++++++++++++++++++++++++++++++++++++
Date: Fri Oct 25 11:26:28 EDT 2013
User: price-jones
Dark Spectrum Present: No
Reference Spectrum Present: No
Number of Sampled Component Spectra: 1
Spectrometers: USB2+H05261
Integration Time (usec): 100000 (USB2+H05261)
Spectra Averaged: 1 (USB2+H05261)
Boxcar Smoothing: 0 (USB2+H05261)
Correct for Electrical Dark: No (USB2+H05261)
Strobe/Lamp Enabled: No (USB2+H05261)
Correct for Detector Non-linearity: No (USB2+H05261)
Correct for Stray Light: No (USB2+H05261)
Number of Pixels in Processed Spectrum: 2048
>>>>>Begin Processed Spectral Data<<<<<
365.73	203.63
365.92	203.63
366.12	203.63
366.32	175.54
366.52	114.69
366.72	152.13
366.91	124.05
367.11	133.41
367.31	131.07
367.51	119.37
367.70	58.51
367.90	191.92
368.10	126.39
368.30	86.60
368.49	110.01
368.69	119.37
368.89	142.77
369.09	138.09
369.28	161.50
369.48	180.22
369.68	180.22
369.87	236.39
370.07	229.37
370.27	283.20
370.47	294.91
370.66	622.58
370.86	571.09
371.06	634.29
371.25	755.99
371.45	641.31
371.65	657.69
371.84	692.80
372.04	589.82
372.24	758.33
372.44	795.78
372.63	814.51
372.83	746.63
373.03	763.01
373.22	697.48
373.42	732.59
373.62	814.51
373.81	800.46
374.01	917.49
374.21	835.57
374.40	758.33
374.60	816.85
374.79	816.85
374.99	912.81
375.19	858.98
375.38	784.08
375.58	755.99
375.78	917.49
375.97	856.64
376.17	912.81
376.37	840.25
376.56	823.87
376.76	903.45
376.95	954.94
377.15	770.04
377.35	887.06
377.54	903.45
377.74	945.58
377.93	807.48
378.13	910.47
378.33	938.55
378.52	917.49
378.72	954.94
378.91	959.62
379.11	938.55
379.31	929.19
379.50	908.13
379.70	1034.52
379.89	1032.18
380.09	933.87
380.28	1041.54
380.48	990.05
380.68	1015.79
380.87	1025.15
381.07	987.71
381.26	1060.26
381.46	1008.77
381.65	1055.58
381.85	1088.35
382.04	987.71
382.24	1046.22
382.43	1048.56
382.63	1064.94
382.83	1053.24
383.02	1104.73
383.22	1160.91
383.41	1095.37
383.61	1086.01
383.80	1188.99
384.00	1109.41
384.19	1132.82
384.39	1186.65
384.58	1186.65
384.78	1118.78
384.97	1193.67
385.17	1078.99
385.36	1107.07
385.56	1247.51
385.75	1128.14
385.95	1177.29
386.14	1198.35
386.34	1188.99
386.53	1252.19
386.72	1235.80
386.92	1207.72
387.11	1306.02
387.31	1203.04
387.50	1235.80
387.70	1186.65
387.89	1261.55
388.09	1249.85
388.28	1329.42
388.48	1210.06
388.67	1334.11
388.86	1320.06
389.06	1289.64
389.25	1277.93
389.45	1261.55
389.64	1371.55
389.84	1394.96
390.03	1439.43
390.22	1411.34
390.42	1364.53
390.61	1427.73
390.81	1359.85
391.00	1416.02
391.19	1359.85
391.39	1352.83
391.58	1439.43
391.78	1383.26
391.97	1504.96
392.16	1460.49
392.36	1558.80
392.55	1474.54
392.75	1600.93
392.94	1570.50
393.13	1591.56
393.33	1423.05
393.52	1537.73
393.71	1589.22
393.91	1666.46
394.10	1589.22
394.29	1558.80
394.49	1689.87
394.68	1638.38
394.88	1603.27
395.07	1717.95
395.26	1605.61
395.46	1633.69
395.65	1739.02
395.84	1650.08
396.04	1732.00
396.23	1774.13
396.42	1743.70
396.62	1884.13
396.81	1853.70
397.00	1804.55
397.19	1734.34
397.39	1792.85
397.58	1839.66
397.77	1795.19
397.97	1804.55
398.16	1905.20
398.35	1858.39
398.55	1970.73
398.74	1832.64
398.93	1921.58
399.12	1912.22
399.32	1923.92
399.51	1846.68
399.70	1959.03
399.90	2005.84
400.09	1963.71
400.28	2017.54
400.47	1926.26
400.67	2045.63
400.86	2157.97
401.05	1959.03
401.24	2115.84
401.44	2176.70
401.63	2263.30
401.82	2197.76
402.01	2047.97
402.21	2136.91
402.40	2153.29
402.59	2214.15
402.78	2209.47
402.97	2221.17
403.17	2303.09
403.36	2249.25
403.55	2209.47
403.74	2366.28
403.93	2286.70
404.13	2326.49
404.32	2452.88
404.51	2368.62
404.70	2399.05
404.89	2368.62
405.09	2567.57
405.28	2415.43
405.47	2459.90
405.66	2473.95
405.85	2499.69
406.05	2562.89
406.24	2438.84
406.43	2562.89
406.62	2588.63
406.81	2600.34
407.00	2590.97
407.20	2567.57
407.39	2640.12
407.58	2663.53
407.77	2829.71
407.96	2588.63
408.15	2729.06
408.34	2743.11
408.54	2733.75
408.73	2754.81
408.92	2827.37
409.11	2785.24
409.30	2953.76
409.49	2897.58
409.68	2871.84
409.87	2949.08
410.07	2946.73
410.26	2895.24
410.45	3040.36
410.64	3007.59
410.83	3084.83
411.02	2988.86
411.21	3159.72
411.40	3101.21
411.59	3171.43
411.78	3150.36
411.98	3213.56
412.17	3206.53
412.36	3307.18
412.55	3382.07
412.74	3353.99
412.93	3365.69
413.12	3365.69
413.31	3662.94
413.50	3428.88
413.69	3557.61
413.88	3522.51
414.07	3529.53
414.26	3634.85
414.45	3789.33
414.64	3627.83
414.83	3695.71
415.02	3854.86
415.22	3822.09
415.41	3946.14
415.60	3852.52
415.79	3997.64
415.98	3918.06
416.17	3894.65
416.36	3913.38
416.55	3960.19
416.74	4025.72
416.93	4196.58
417.12	4025.72
417.31	3997.64
417.50	4114.66
417.69	4248.07
417.88	4227.01
418.07	4102.96
418.26	4231.69
418.45	4259.78
418.64	4514.89
418.83	4454.04
419.02	4430.63
419.21	4423.61
419.39	4554.68
419.58	4400.21
419.77	4404.89
419.96	4550.00
420.15	4442.34
420.34	4622.56
420.53	4557.02
420.72	4692.77
420.91	4648.30
421.10	4713.84
421.29	4777.03
421.48	4683.41
421.67	4777.03
421.86	4800.44
422.05	4861.29
422.24	4842.57
422.43	4755.97
422.61	4887.04
422.80	5018.11
422.99	4840.23
423.18	4877.68
423.37	5032.15
423.56	4772.35
423.75	4840.23
423.94	4793.42
424.13	4685.75
424.32	4779.37
424.50	5093.01
424.69	5212.37
424.88	5118.75
425.07	5006.41
425.26	4826.18
425.45	4943.21
425.64	4938.53
425.83	4814.48
426.01	5034.49
426.20	5013.43
426.39	5085.98
426.58	5121.09
426.77	5088.32
426.96	5263.86
427.15	5053.22
427.33	5291.95
427.52	5083.64
427.71	5280.25
427.90	5320.04
428.09	5104.71
428.28	5472.17
428.46	5364.51
428.65	5331.74
428.84	5666.44
429.03	5453.45
429.22	5481.53
429.40	5387.91
429.59	5493.24
429.78	5228.76
429.97	5268.55
430.16	5383.23
430.34	5617.29
430.53	5760.06
430.72	5738.99
430.91	5533.03
431.10	5666.44
431.28	5783.46
431.47	5832.62
431.66	5809.21
431.85	5776.44
432.03	5895.81
432.22	6005.81
432.41	5849.00
432.60	5970.71
432.79	5987.09
432.97	6162.63
433.16	6120.50
433.35	5827.93
433.54	6071.35
433.72	6061.99
433.91	6202.42
434.10	6108.80
434.28	6061.99
434.47	6272.64
434.66	6265.61
434.85	6370.94
435.03	6176.67
435.22	6164.97
435.41	6555.84
435.59	6504.35
435.78	6356.90
435.97	6509.03
436.16	6497.33
436.34	6476.26
436.53	6586.27
436.72	6471.58
436.90	6363.92
437.09	6581.59
437.28	6551.16
437.46	6530.09
437.65	6703.29
437.84	6782.87
438.02	6612.01
438.21	6628.40
438.40	6710.32
438.58	6911.60
438.77	7002.88
438.96	6991.18
439.14	7274.38
439.33	7124.59
439.52	6981.82
439.70	7220.55
439.89	7344.60
440.08	7403.11
440.26	7431.20
440.45	7433.54
440.63	7555.25
440.82	7644.19
441.01	7578.65
441.19	7597.38
441.38	7557.59
441.57	7672.28
441.75	7784.62
441.94	7990.59
442.12	7896.97
442.31	8063.15
442.50	8079.53
442.68	8072.51
442.87	8278.47
443.05	8173.15
443.24	8154.43
443.43	8154.43
443.61	8243.37
443.80	8411.89
443.98	8140.38
444.17	7751.85
444.35	8358.05
444.54	8458.70
444.73	8320.60
444.91	8306.56
445.10	8093.57
445.28	8187.19
445.47	8339.33
445.65	8243.37
445.84	8423.59
446.02	8461.04
446.21	8610.83
446.39	8496.14
446.58	8461.04
446.77	8552.32
446.95	8325.29
447.14	8351.03
447.32	8325.29
447.51	8367.42
447.69	8538.27
447.88	8510.19
448.06	8491.46
448.25	8510.19
448.43	8351.03
448.62	8599.13
448.80	8573.38
448.99	8652.96
449.17	8702.11
449.36	8542.96
449.54	8795.73
449.73	8772.33
449.91	9060.21
450.10	8898.72
450.28	9004.04
450.46	9022.77
450.65	9004.04
450.83	8973.61
451.02	9076.60
451.20	9233.41
451.39	8982.98
451.57	8973.61
451.76	9149.15
451.94	9392.57
452.13	9064.89
452.31	9327.03
452.49	9123.41
452.68	9266.18
452.86	9261.50
453.05	9472.15
453.23	9486.19
453.42	9228.73
453.60	9217.03
453.78	9490.87
453.97	9350.44
454.15	9441.72
454.34	9373.85
454.52	9727.27
454.70	9462.79
454.89	9652.37
455.07	9788.12
455.26	10005.79
455.44	9898.13
455.62	9853.66
455.81	10087.71
455.99	10001.11
456.17	10040.90
456.36	10036.22
456.54	9951.96
456.73	10246.87
456.91	10471.56
457.09	10518.37
457.28	10406.02
457.46	10270.27
457.64	10494.96
457.83	10434.11
458.01	10338.15
458.19	10689.23
458.38	10520.71
458.56	10834.34
458.74	10689.23
458.93	10677.52
459.11	10663.48
459.29	10707.95
459.48	10878.81
459.66	10740.72
459.84	10892.85
460.03	11150.31
460.21	11150.31
460.39	10942.00
460.57	10768.80
460.76	11180.74
460.94	11037.97
461.12	11103.50
461.31	11557.57
461.49	11091.80
461.67	11110.52
461.85	11208.83
462.04	11257.98
462.22	11616.08
462.40	11534.16
462.59	11599.70
462.77	11587.99
462.95	11658.21
463.13	11623.10
463.32	11625.44
463.50	11690.98
463.68	11587.99
463.86	11702.68
464.05	11793.96
464.23	11580.97
464.41	11812.68
464.59	11506.07
464.78	12269.09
464.96	11772.89
465.14	11955.46
465.32	11838.43
465.50	11978.86
465.69	12156.74
465.87	12194.19
466.05	12063.12
466.23	12131.00
466.41	12161.42
466.60	12458.67
466.78	11983.54
466.96	12123.98
467.14	12435.27
467.32	12367.39
467.51	12432.93
467.69	12072.48
467.87	12432.93
468.05	12606.13
468.23	12622.51
468.41	12587.40
468.60	12746.56
468.78	12774.64
468.96	12573.36
469.14	12723.15
469.32	13308.29
469.50	12730.17
469.69	12929.12
469.87	13167.85
470.05	13200.62
470.23	13226.37
470.41	13013.38
470.59	13209.98
470.77	13324.67
470.95	13109.34
471.14	13432.33
471.32	13050.83
471.50	13425.31
471.68	13540.00
471.86	13516.59
472.04	13631.28
472.22	14066.62
472.40	13823.20
472.58	13465.10
472.77	13940.23
472.95	13980.02
473.13	14658.78
473.31	13930.87
473.49	14043.21
473.67	14223.44
473.85	14195.35
474.03	14204.71
474.21	14597.92
474.39	14698.56
474.57	14623.67
474.75	15035.60
474.93	14991.13
475.12	15054.33
475.30	14970.07
475.48	15115.18
475.66	15089.43
475.84	15049.64
476.02	15269.66
476.20	15583.29
476.38	15815.00
476.56	15939.05
476.74	15585.63
476.92	15576.27
477.10	15744.78
477.28	15995.22
477.46	16128.63
477.64	16184.80
477.82	16381.41
478.00	16865.90
478.18	16830.79
478.36	16858.88
478.54	17394.86
478.72	17153.79
478.90	17392.52
479.08	17451.03
479.26	17551.68
479.44	17703.81
479.62	17860.63
479.80	17895.74
479.98	18148.51
480.16	18508.96
480.34	18118.09
480.52	18382.57
480.70	18541.72
480.88	18185.96
481.06	18504.28
481.24	18862.38
481.41	18792.16
481.59	19487.30
481.77	19370.27
481.95	19658.16
482.13	19580.92
482.31	19550.49
482.49	20290.10
482.67	20383.73
482.85	20294.79
483.03	20428.20
483.21	20800.34
483.39	21015.67
483.57	20573.31
483.74	21139.72
483.92	21558.67
484.10	21132.70
484.28	21652.30
484.46	21986.99
484.64	22253.81
484.82	22043.17
485.00	22370.84
485.18	22733.62
485.35	23019.17
485.53	22878.74
485.71	22993.42
485.89	23396.00
486.07	22881.08
486.25	23197.05
486.43	23651.11
486.61	23417.06
486.78	24182.42
486.96	24280.72
487.14	24680.95
487.32	24849.47
487.50	24875.21
487.68	24680.95
487.85	25230.98
488.03	25163.10
488.21	25851.22
488.39	25799.73
488.57	26026.76
488.75	26209.32
488.92	26480.82
489.10	26579.12
489.28	26693.81
489.46	26902.12
489.64	27391.29
489.81	27751.73
489.99	27428.74
490.17	27920.25
490.35	28137.92
490.53	28425.81
490.70	28456.23
490.88	28252.61
491.06	28914.98
491.24	29046.05
491.41	28870.51
491.59	29214.57
491.77	29130.31
491.95	29734.17
492.13	29577.35
492.30	30087.59
492.48	30010.35
492.66	30125.04
492.84	30438.67
493.01	30911.46
493.19	30789.75
493.37	31070.61
493.54	30871.67
493.72	31632.34
493.90	31433.39
494.08	31693.19
494.25	32395.35
494.43	31899.16
494.61	32402.38
494.79	32364.93
494.96	32294.71
495.14	32554.51
495.32	32952.40
495.49	33006.23
495.67	33308.16
495.85	33977.56
496.02	33703.71
496.20	34073.52
496.38	33591.37
496.55	34132.03
496.73	35206.34
496.91	34265.44
497.09	35103.35
497.26	34719.51
497.44	34906.75
497.62	35182.93
497.79	35756.36
497.97	35016.75
498.14	35828.92
498.32	35807.86
498.50	35967.01
498.67	36687.90
498.85	36432.78
499.03	36493.63
499.20	36479.59
499.38	36753.43
499.56	36741.73
499.73	36985.15
499.91	37420.48
500.08	37762.20
500.26	37350.27
500.44	37574.96
500.61	37691.99
500.79	37865.19
500.97	37713.05
501.14	38232.65
501.32	38352.02
501.49	38270.10
501.67	38366.06
501.84	38389.47
502.02	39030.77
502.20	38990.98
502.37	39232.06
502.55	38962.90
502.72	39536.33
502.90	39569.10
503.07	39290.57
503.25	39306.96
503.43	39599.52
503.60	39938.90
503.78	39950.60
503.95	40201.04
504.13	40329.77
504.30	40533.40
504.48	40395.31
504.65	40353.18
504.83	40903.20
505.01	41422.80
505.18	40889.16
505.36	41448.55
505.53	41139.60
505.71	41766.86
505.88	41926.02
506.06	41532.81
506.23	41640.47
506.41	41500.04
506.58	41890.91
506.76	42356.67
506.93	42518.17
507.11	42263.05
507.28	42342.63
507.46	42586.05
507.63	42958.19
507.81	42754.57
507.98	43072.88
508.16	43089.26
508.33	42951.17
508.50	43501.20
508.68	43110.33
508.85	43880.36
509.03	43608.86
509.20	44105.06
509.38	44060.58
509.55	44016.11
509.73	44210.38
509.90	44315.70
510.08	44378.90
510.25	44254.85
510.42	44165.91
510.60	44973.39
510.77	45141.91
510.95	44992.12
511.12	44734.66
511.30	44964.03
511.47	45399.37
511.64	45841.73
511.82	45846.41
511.99	45439.16
512.17	45687.26
512.34	45865.14
512.51	46518.15
512.69	46267.71
512.86	46162.39
513.04	46951.15
513.21	46213.88
513.38	46506.44
513.56	46923.06
513.73	46445.59
513.90	46834.12
514.08	46803.69
514.25	47370.10
514.43	46995.62
514.60	47894.38
514.77	46969.87
514.95	47922.47
515.12	47519.90
515.29	47391.17
515.47	47636.92
515.64	47821.83
515.81	47887.36
515.99	47976.30
516.16	48369.51
516.33	48212.70
516.51	48418.66
516.68	48633.99
516.85	48589.52
517.03	48814.21
517.20	49034.22
517.37	48779.10
517.54	48746.34
517.72	48645.69
517.89	48912.52
518.06	49052.95
518.24	49076.35
518.41	49162.95
518.58	49511.69
518.75	49141.89
518.93	49387.64
519.10	49677.87
519.27	49474.24
519.45	49654.47
519.62	49989.16
519.79	49698.94
519.96	49687.23
520.14	50181.09
520.31	49820.64
520.48	50335.56
520.65	49965.76
520.83	50518.12
521.00	50763.88
521.17	50679.62
521.34	50890.27
521.52	50951.12
521.69	50684.30
521.86	50782.60
522.03	50965.17
522.20	51037.72
522.38	51220.28
522.55	51466.04
522.72	51166.45
522.89	51119.64
523.07	51554.98
523.24	51290.50
523.41	51646.26
523.58	51679.03
523.75	51959.89
523.92	51571.36
524.10	51973.94
524.27	51856.91
524.44	51756.27
524.61	52006.70
524.78	51819.46
524.96	52083.94
525.13	52090.96
525.30	52570.77
525.47	52325.02
525.64	52184.58
525.81	52442.04
525.98	52580.13
526.16	52638.65
526.33	52722.91
526.50	53111.44
526.67	52425.66
526.84	52830.57
527.01	52739.29
527.18	52900.79
527.36	52884.40
527.53	52811.85
527.70	53111.44
527.87	53165.27
528.04	52935.90
528.21	53378.26
528.38	53181.65
528.55	53439.11
528.72	53427.41
528.89	53202.72
529.07	53364.21
529.24	53223.78
529.41	53783.17
529.58	53453.15
529.75	53406.34
529.92	53703.59
530.09	53911.90
530.26	53848.71
530.43	53883.81
530.60	53635.72
530.77	53914.24
530.94	53869.77
531.11	53808.92
531.28	54014.88
531.46	54244.26
531.63	54150.63
531.80	53834.66
531.97	54136.59
532.14	54375.33
532.31	54260.64
532.48	54363.62
532.65	54623.42
532.82	54522.78
532.99	54932.37
533.16	54482.99
533.33	54656.19
533.50	54815.35
533.67	54700.66
533.84	54525.12
534.01	54756.83
534.18	54958.12
534.35	55192.17
534.52	55150.04
534.69	55196.85
534.86	55009.61
535.03	54925.35
535.20	55157.06
535.37	55377.08
535.54	55143.02
535.71	55117.28
535.88	55477.72
536.05	55370.05
536.22	55475.38
536.38	55606.45
536.55	55566.66
536.72	55695.39
536.89	55660.28
537.06	55608.79
537.23	55758.58
537.40	55573.68
537.57	55580.70
537.74	55810.07
537.91	55931.78
538.08	55702.41
538.25	55477.72
538.42	55756.24
538.59	56165.84
538.75	55847.52
538.92	56186.90
539.09	56086.26
539.26	56060.51
539.43	56034.77
539.60	56072.21
539.77	56030.08
539.94	56418.61
540.11	56446.70
540.28	56580.11
540.44	56430.32
540.61	56385.85
540.78	56355.42
540.95	56404.57
541.12	56088.60
541.29	56341.38
541.46	56549.68
541.62	56608.20
541.79	56418.61
541.96	56191.58
542.13	56484.15
542.30	56638.62
542.47	56772.03
542.63	56891.40
542.80	57038.86
542.97	57043.54
543.14	57155.88
543.31	57045.88
543.48	57062.26
543.64	57305.68
543.81	57186.31
543.98	57162.90
544.15	57200.35
544.32	57392.28
544.48	57750.38
544.65	57329.08
544.82	57439.09
544.99	57326.74
545.16	57441.43
545.32	57315.04
545.49	57652.08
545.66	57799.53
545.83	57375.89
546.00	57712.93
546.16	57673.14
546.33	57411.00
546.50	57354.83
546.67	57794.85
546.83	57389.94
547.00	57616.97
547.17	57696.55
547.34	57687.18
547.50	57726.97
547.67	58066.35
547.84	57998.48
548.00	58075.71
548.17	58150.61
548.34	57829.96
548.51	58227.85
548.67	58024.22
548.84	57956.35
549.01	58066.35
549.18	58429.13
549.34	57930.60
549.51	58267.64
549.68	58052.31
549.84	58183.38
550.01	58066.35
550.18	58101.46
550.34	58211.46
550.51	58253.59
550.68	58405.73
550.84	58094.44
551.01	58431.47
551.18	58372.96
551.34	58379.98
551.51	58602.33
551.68	58459.56
551.84	58562.54
552.01	58216.14
552.18	58438.50
552.34	58293.38
552.51	58731.06
552.68	58262.96
552.84	58653.82
553.01	58796.60
553.18	58651.48
553.34	58836.39
553.51	58642.12
553.67	58801.28
553.84	58801.28
554.01	58705.32
554.17	58770.85
554.34	58939.37
554.51	58798.94
554.67	59079.80
554.84	58988.52
555.00	58969.80
555.17	58803.62
555.33	59079.80
555.50	58920.65
555.67	58930.01
555.83	58908.94
556.00	59187.47
556.16	59313.86
556.33	59288.11
556.50	59299.81
556.66	59192.15
556.83	58993.20
556.99	59311.52
557.16	59419.18
557.32	59292.79
557.49	59501.10
557.65	59245.98
557.82	59196.83
557.98	59119.59
558.15	59454.29
558.32	59536.21
558.48	59325.56
558.65	59405.14
558.81	59557.27
558.98	59634.51
559.14	59599.40
559.31	59515.14
559.47	59718.77
559.64	59465.99
559.80	59643.87
559.97	59709.41
560.13	59618.13
560.30	59529.19
560.46	59943.46
560.63	59978.57
560.79	59716.43
560.96	59828.77
561.12	59868.56
561.29	59732.81
561.45	59667.28
561.61	59643.87
561.78	59625.15
561.94	59873.24
562.11	59573.66
562.27	59821.75
562.44	59929.42
562.60	59854.52
562.77	59950.48
562.93	59664.94
563.10	60233.69
563.26	59725.79
563.42	60299.22
563.59	60154.11
563.75	59772.60
563.92	59924.74
564.08	60030.06
564.24	60086.23
564.41	60011.34
564.57	60107.30
564.74	60198.58
564.90	60184.54
565.07	59985.59
565.23	60027.72
565.39	60009.00
565.56	60205.60
565.72	60097.94
565.88	60030.06
566.05	60236.03
566.21	60172.83
566.38	60013.68
566.54	60147.09
566.70	60444.33
566.87	60252.41
567.03	60170.49
567.19	60385.82
567.36	60151.77
567.52	60140.07
567.68	60516.89
567.85	60266.45
568.01	60203.26
568.17	60308.58
568.34	60364.76
568.50	60273.48
568.66	60285.18
568.83	60456.04
568.99	60177.51
569.15	60303.90
569.32	60308.58
569.48	60221.98
569.64	60444.33
569.81	60378.80
569.97	60135.38
570.13	60416.25
570.30	60198.58
570.46	60402.21
570.62	60456.04
570.78	60458.38
570.95	60355.39
571.11	60425.61
571.27	60413.91
571.43	60306.24
571.60	60540.30
571.76	60343.69
571.92	60420.93
572.09	60491.15
572.25	60502.85
572.41	60467.74
572.57	60528.59
572.74	60495.83
572.90	60395.18
573.06	60451.36
573.22	60432.63
573.38	60528.59
573.55	60528.59
573.71	60692.43
573.87	60629.24
574.03	60481.78
574.20	60739.24
574.36	60444.33
574.52	60568.38
574.68	60779.03
574.84	60713.50
575.01	60891.38
575.17	60657.32
575.33	60603.49
575.49	60552.00
575.65	60662.00
575.82	60711.16
575.98	60825.84
576.14	60924.14
576.30	60807.12
576.46	60624.56
576.62	60676.05
576.79	60617.53
576.95	60493.49
577.11	60725.20
577.27	60839.89
577.43	60563.70
577.59	60566.04
577.75	60633.92
577.92	60608.17
578.08	60809.46
578.24	60633.92
578.40	60846.91
578.56	60849.25
578.72	60849.25
578.88	60781.37
579.04	60987.34
579.21	60741.58
579.37	60821.16
579.53	60968.61
579.69	60584.77
579.85	60786.05
580.01	60629.24
580.17	60748.60
580.33	60938.19
580.49	60912.44
580.65	60912.44
580.82	60718.18
580.98	60711.16
581.14	60624.56
581.30	60884.36
581.46	60926.49
581.62	60636.26
581.78	60734.56
581.94	61001.38
582.10	60715.84
582.26	60844.57
582.42	60757.97
582.58	60896.06
582.74	60776.69
582.90	60933.51
583.06	61041.17
583.22	60659.66
583.38	60748.60
583.54	60928.83
583.70	60903.08
583.86	60924.14
584.02	60722.86
584.18	61036.49
584.34	60973.30
584.50	60811.80
584.66	60722.86
584.82	60633.92
584.98	60919.46
585.14	61052.87
585.30	60900.74
585.46	60926.49
585.62	60947.55
585.78	60926.49
585.94	60669.03
586.10	60952.23
586.26	60898.40
586.42	61160.54
586.58	60828.18
586.74	61188.63
586.90	60893.72
587.06	61015.43
587.22	61064.58
587.38	60935.85
587.54	61069.26
587.70	61219.05
587.86	61062.24
588.02	61237.78
588.18	61017.77
588.34	60809.46
588.49	60989.68
588.65	60905.42
588.81	61127.77
588.97	61230.75
589.13	61137.13
589.29	61127.77
589.45	61258.84
589.61	61228.41
589.77	61176.92
589.93	61200.33
590.08	61310.33
590.24	61244.80
590.40	61462.47
590.56	61455.45
590.72	61179.26
590.88	61172.24
591.04	61277.57
591.20	61366.51
591.35	61434.38
591.51	61483.53
591.67	61429.70
591.83	61553.75
591.99	61359.48
592.15	61317.35
592.31	61436.72
592.46	61254.16
592.62	61394.59
592.78	61336.08
592.94	61516.30
593.10	61200.33
593.26	61446.08
593.41	61233.10
593.57	61455.45
593.73	61432.04
593.89	61530.34
594.05	61614.60
594.20	61354.80
594.36	61385.23
594.52	61228.41
594.68	61446.08
594.84	61488.21
594.99	61441.40
595.15	61595.88
595.31	61432.04
595.47	61385.23
595.62	61361.82
595.78	61462.47
595.94	61410.98
596.10	61801.85
596.25	61471.83
596.41	61584.18
596.57	61394.59
596.73	61581.84
596.88	61368.85
597.04	61425.02
597.20	61790.14
597.36	61649.71
597.51	61876.74
597.67	61537.36
597.83	61242.46
597.99	61619.28
598.14	61481.19
598.30	61574.81
598.46	61413.32
598.61	61553.75
598.77	61558.43
598.93	61574.81
599.09	61726.95
599.24	61762.06
599.40	61682.48
599.56	61736.31
599.71	61752.69
599.87	61888.45
600.03	61759.72
600.18	61518.64
600.34	61602.90
600.50	61701.20
600.65	61467.15
600.81	61708.22
600.97	61921.21
601.12	61539.71
601.28	61577.15
601.44	61710.56
601.59	61696.52
601.75	61719.93
601.91	61829.93
602.06	61724.61
602.22	61867.38
602.37	61687.16
602.53	61705.88
602.69	61792.48
602.84	61577.15
603.00	61827.59
603.16	61811.21
603.31	61909.51
603.47	61680.14
603.62	61560.77
603.78	61750.35
603.94	61712.91
604.09	61745.67
604.25	61673.12
604.40	61659.07
604.56	61675.46
604.71	61862.70
604.87	61750.35
605.03	61605.24
605.18	61628.65
605.34	61748.01
605.49	61635.67
605.65	61843.98
605.80	61703.54
605.96	61911.85
606.12	61607.58
606.27	61883.76
606.43	61659.07
606.58	61881.42
606.74	61563.11
606.89	61813.55
607.05	61846.32
607.20	61652.05
607.36	61460.13
607.51	61366.51
607.67	61418.00
607.82	61729.29
607.98	61542.05
608.13	61427.36
608.29	61731.63
608.44	61638.01
608.60	61551.41
608.75	61530.34
608.91	61586.52
609.06	61652.05
609.22	61696.52
609.37	61506.94
609.53	61520.98
609.68	61450.77
609.84	61532.68
609.99	61520.98
610.15	61528.00
610.30	61394.59
610.46	61612.26
610.61	61705.88
610.76	61689.50
610.92	61310.33
611.07	61556.09
611.23	61441.40
611.38	61609.92
611.54	61516.30
611.69	61638.01
611.84	61467.15
612.00	61415.66
612.15	61556.09
612.31	61537.36
612.46	61352.46
612.62	61237.78
612.77	61420.34
612.92	61546.73
613.08	61319.70
613.23	61347.78
613.39	61307.99
613.54	61123.09
613.69	61333.74
613.85	61352.46
614.00	61567.79
614.15	61532.68
614.31	61511.62
614.46	61387.57
614.62	61300.97
614.77	61467.15
614.92	61265.86
615.08	61474.17
615.23	61289.27
615.38	61434.38
615.54	61303.31
615.69	61305.65
615.84	61310.33
616.00	61205.01
616.15	61137.13
616.30	61235.44
616.46	61162.88
616.61	61279.91
616.76	61286.93
616.92	60917.12
617.07	61263.52
617.22	61165.22
617.37	61158.20
617.53	61354.80
617.68	61401.61
617.83	61097.34
617.99	61017.77
618.14	61181.60
618.29	61165.22
618.45	61137.13
618.60	61036.49
618.75	61017.77
618.90	60992.02
619.06	61059.90
619.21	61055.21
619.36	61151.18
619.51	61179.26
619.67	60982.66
619.82	60886.70
619.97	61188.63
620.12	60956.91
620.28	61017.77
620.43	60776.69
620.58	60989.68
620.73	60977.98
620.89	61036.49
621.04	60940.53
621.19	60994.36
621.34	60851.59
621.49	60790.73
621.65	60966.27
621.80	61027.13
621.95	60767.33
622.10	60942.87
622.25	60938.19
622.41	60823.50
622.56	60669.03
622.71	60860.95
622.86	60729.88
623.01	60535.62
623.16	60734.56
623.32	60729.88
623.47	60669.03
623.62	60774.35
623.77	60596.47
623.92	60734.56
624.07	60694.77
624.23	60575.40
624.38	60636.26
624.53	60659.66
624.68	60491.15
624.83	60692.43
624.98	60743.92
625.13	60526.25
625.29	60612.85
625.44	60371.78
625.59	60608.17
625.74	60622.22
625.89	60413.91
626.04	60409.23
626.19	60254.75
626.34	60317.95
626.49	60175.17
626.65	60465.40
626.80	60453.70
626.95	60165.81
627.10	60200.92
627.25	60261.77
627.40	60062.83
627.55	60371.78
627.70	60243.05
627.85	60289.86
628.00	60292.20
628.15	60289.86
628.30	60289.86
628.45	60151.77
628.60	60252.41
628.76	60542.64
628.91	60353.05
629.06	60509.87
629.21	60102.62
629.36	59896.65
629.51	60076.87
629.66	60083.89
629.81	59693.02
629.96	59927.08
630.11	60053.47
630.26	60224.32
630.41	60236.03
630.56	60074.53
630.71	59877.93
630.86	60144.75
631.01	59896.65
631.16	59831.11
631.31	59840.48
631.46	59648.55
631.61	59744.51
631.76	60100.28
631.91	59896.65
632.06	60046.44
632.21	59966.87
632.36	59798.35
632.51	59604.08
632.66	59910.69
632.81	59599.40
632.96	59854.52
633.10	59877.93
633.25	59690.68
633.40	59730.47
633.55	59948.14
633.70	59805.37
633.85	59695.36
634.00	59524.50
634.15	59695.36
634.30	59557.27
634.45	59805.37
634.60	59695.36
634.75	59688.34
634.90	59447.27
635.05	59599.40
635.19	59498.76
635.34	59599.40
635.49	59732.81
635.64	59428.54
635.79	59561.95
635.94	59552.59
636.09	59660.26
636.24	59634.51
636.39	59533.87
636.53	59547.91
636.68	59594.72
636.83	59686.00
636.98	59599.40
637.13	59475.35
637.28	59526.84
637.43	59281.09
637.57	59306.83
637.72	59297.47
637.87	59402.80
638.02	59264.70
638.17	59468.33
638.32	59224.92
638.46	59316.20
638.61	59262.36
638.76	59309.18
638.91	59381.73
639.06	59079.80
639.20	59065.76
639.35	59154.70
639.50	59220.23
639.65	59138.32
639.80	59276.41
639.94	59180.45
640.09	59082.14
640.24	59178.10
640.39	59011.93
640.54	59086.82
640.68	59269.39
640.83	58880.86
640.98	58824.68
641.13	59110.23
641.27	59199.17
641.42	58857.45
641.57	58602.33
641.72	59035.33
641.86	58827.02
642.01	58752.13
642.16	58894.90
642.31	58658.51
642.45	59004.91
642.60	58679.57
642.75	58960.44
642.90	58815.32
643.04	58866.81
643.19	58782.55
643.34	58726.38
643.48	58630.42
643.63	58585.95
643.78	58670.21
643.93	58768.51
644.07	58714.68
644.22	58843.41
644.37	58351.90
644.51	58436.16
644.66	58738.08
644.81	58754.47
644.95	58644.46
645.10	58721.70
645.25	58527.44
645.39	58492.33
645.54	58520.41
645.69	58403.39
645.83	58670.21
645.98	58733.40
646.13	58691.27
646.27	58454.88
646.42	58604.67
646.57	58585.95
646.71	58464.24
646.86	58607.01
647.00	58452.54
647.15	58628.08
647.30	58192.74
647.44	58492.33
647.59	58518.07
647.74	58363.60
647.88	58328.49
648.03	58295.72
648.17	58309.77
648.32	58277.00
648.47	58269.98
648.61	58150.61
648.76	58419.77
648.90	58134.23
649.05	58234.87
649.20	58291.04
649.34	58347.21
649.49	58286.36
649.63	58281.68
649.78	58452.54
649.92	58080.39
650.07	58262.96
650.21	57916.56
650.36	58227.85
650.51	58035.92
650.65	58358.92
650.80	58169.33
650.94	57935.28
651.09	57851.02
651.23	57750.38
651.38	57886.13
651.52	57696.55
651.67	57904.85
651.81	57982.09
651.96	57982.09
652.10	57834.64
652.25	57813.57
652.39	57911.88
652.54	57755.06
652.68	57773.78
652.83	57836.98
652.97	57729.31
653.12	57687.18
653.26	57689.52
653.41	57949.32
653.55	57532.71
653.70	57808.89
653.84	57738.68
653.99	57724.63
654.13	57710.59
654.27	57736.34
654.42	57544.41
654.56	57581.86
654.71	57565.48
654.85	57509.30
655.00	57535.05
655.14	57401.64
655.29	57235.46
655.43	57396.96
655.57	57525.69
655.72	57347.81
655.86	57513.98
656.01	57609.95
656.15	57471.85
656.30	57591.22
656.44	57839.32
656.58	57403.98
656.73	57415.68
656.87	57565.48
657.01	57308.02
657.16	57279.93
657.30	57258.87
657.45	57195.67
657.59	56966.30
657.73	57050.56
657.88	56884.38
658.02	57078.64
658.16	56970.98
658.31	57006.09
658.45	57378.23
658.60	57399.30
658.74	57078.64
658.88	57127.80
659.03	57291.63
659.17	56989.70
659.31	56884.38
659.46	56999.07
659.60	56863.32
659.74	56598.83
659.89	56530.96
660.03	56858.63
660.17	56926.51
660.32	56910.13
660.46	56858.63
660.60	56732.25
660.74	56837.57
660.89	56921.83
661.03	56530.96
661.17	56259.46
661.32	56530.96
661.46	56179.88
661.60	56189.24
661.74	56247.75
661.89	56296.91
662.03	56055.83
662.17	56278.18
662.31	56289.88
662.46	56467.76
662.60	56172.86
662.74	56175.20
662.88	55875.61
663.03	55803.05
663.17	56151.79
663.31	55798.37
663.45	56016.04
663.60	55875.61
663.74	55646.24
663.88	55861.57
664.02	55714.11
664.17	55447.29
664.31	55571.34
664.45	55561.98
664.59	55428.57
664.73	55475.38
664.88	55758.58
665.02	55121.96
665.16	55306.86
665.30	55444.95
665.44	55360.69
665.59	55126.64
665.73	55185.15
665.87	55105.57
666.01	55302.18
666.15	55365.37
666.29	55353.67
666.44	55210.90
666.58	54820.03
666.72	54761.51
666.86	54944.08
667.00	54731.09
667.14	54805.98
667.28	54745.13
667.43	54695.98
667.57	54773.22
667.71	54721.72
667.85	54656.19
667.99	54585.97
668.13	54354.26
668.27	54185.74
668.41	54377.67
668.56	54045.31
668.70	53844.02
668.84	54136.59
668.98	54017.22
669.12	53928.28
669.26	54178.72
669.40	54246.60
669.54	54185.74
669.68	54035.95
669.82	54080.42
669.96	54284.04
670.10	53876.79
670.25	53986.80
670.39	53738.70
670.53	53904.88
670.67	53485.92
670.81	53797.21
670.95	53628.69
671.09	53670.82
671.23	53436.77
671.37	53593.59
671.51	53207.40
671.65	53434.43
671.79	53001.43
671.93	53013.13
672.07	53303.36
672.21	53116.12
672.35	52523.96
672.49	52966.32
672.63	52540.35
672.77	52643.33
672.91	52640.99
673.05	52392.89
673.19	52327.36
673.33	52409.28
673.47	52589.50
673.61	52617.58
673.75	52240.76
673.89	52062.88
674.03	51597.11
674.17	51454.34
674.31	51655.62
674.45	51496.47
674.59	51688.39
674.73	51526.89
674.87	51863.93
675.01	51557.32
675.15	51426.25
675.29	51201.56
675.43	51353.69
675.56	51093.89
675.70	51068.15
675.84	50609.40
675.98	50101.51
676.12	51171.13
676.26	50712.39
676.40	50529.83
676.54	50602.38
676.68	50745.15
676.82	49963.42
676.96	50171.72
677.10	50024.27
677.23	50045.33
677.37	50024.27
677.51	49799.58
677.65	49392.33
677.79	49209.76
677.93	49167.63
678.07	48985.07
678.21	49371.26
678.34	48783.79
678.48	48835.28
678.62	48795.49
678.76	48804.85
678.90	48334.40
679.04	48460.79
679.18	48367.17
679.31	47812.46
679.45	47920.13
679.59	48175.25
679.73	48090.99
679.87	47672.03
680.00	47393.51
680.14	47187.54
680.28	47278.82
680.42	47037.75
680.56	46597.73
680.70	46454.95
680.83	46770.93
680.97	47012.00
681.11	46663.26
681.25	46307.50
681.39	46555.60
681.52	46265.37
681.66	46202.18
681.80	45783.22
681.94	45766.84
682.07	45322.13
682.21	45265.96
682.35	45099.78
682.49	45081.06
682.62	45411.07
682.76	45263.62
682.90	44931.26
683.04	45170.00
683.17	44418.69
683.31	44121.44
683.45	44219.74
683.59	44287.62
683.72	43772.70
683.86	44051.22
684.00	43821.85
684.13	44374.22
684.27	43758.66
684.41	43889.73
684.55	43702.48
684.68	43477.79
684.82	43143.09
684.96	42777.97
685.09	43030.75
685.23	42506.47
685.37	42232.63
685.50	42569.66
685.64	42576.69
685.78	42038.36
685.91	41958.78
686.05	41633.45
686.19	40961.72
686.32	41610.04
686.46	40868.09
686.60	40615.32
686.73	40671.49
686.87	40655.11
687.01	40664.47
687.14	40617.66
687.28	40072.31
687.42	40151.89
687.55	39931.88
687.69	40341.47
687.82	39702.51
687.96	39555.05
688.10	39426.32
688.23	39749.32
688.37	39271.85
688.50	38675.01
688.64	38794.38
688.78	38466.70
688.91	38557.99
689.05	38579.05
689.18	38600.12
689.32	37525.81
689.46	37553.90
689.59	37570.28
689.73	37663.90
689.86	37549.21
690.00	37111.53
690.13	37177.07
690.27	37581.98
690.41	37530.49
690.54	36971.10
690.68	36584.91
690.81	36767.48
690.95	36666.83
691.08	36203.41
691.22	36065.31
691.35	36020.84
691.49	35936.59
691.62	36158.94
691.76	35431.03
691.89	35459.12
692.03	35206.34
692.16	35215.70
692.30	35339.75
692.43	35150.17
692.57	34813.13
692.70	34464.39
692.84	34368.43
692.97	34696.10
693.11	34492.47
693.24	33762.23
693.38	33802.02
693.51	33549.24
693.65	33479.02
693.78	33420.51
693.92	33308.16
694.05	33170.07
694.19	32877.51
694.32	32793.25
694.45	33237.95
694.59	32830.69
694.72	32505.36
694.86	32584.94
694.99	32196.41
695.13	31896.82
695.26	31683.83
695.39	31491.91
695.53	31894.48
695.66	31517.65
695.80	31133.81
695.93	30871.67
696.07	30639.95
696.20	30782.73
696.33	30555.69
696.47	30478.46
696.60	30796.77
696.73	30431.65
696.87	30061.84
697.00	30008.01
697.14	29916.73
697.27	29909.71
697.40	29450.96
697.54	29570.33
697.67	29521.18
697.80	29504.79
697.94	29289.46
698.07	29270.74
698.21	28744.12
698.34	29380.74
698.47	28631.77
698.61	28533.47
698.74	28381.34
698.87	28432.83
699.01	27974.08
699.14	28123.88
699.27	27957.70
699.40	28332.18
699.54	27814.93
699.67	27482.57
699.80	27470.87
699.94	27197.02
700.07	27573.85
700.20	27002.76
700.34	26878.71
700.47	26204.64
700.60	26574.44
700.73	26429.33
700.87	25965.90
701.00	26113.36
701.13	25823.13
701.26	25958.88
701.40	25809.09
701.53	25589.08
701.66	25605.46
701.79	25125.65
701.93	25104.59
702.06	25046.07
702.19	24783.93
702.32	25055.43
702.46	24924.36
702.59	24531.15
702.72	24451.58
702.85	24283.06
702.99	24573.28
703.12	23950.70
703.25	23623.03
703.38	23608.98
703.51	23737.71
703.65	23513.02
703.78	23386.63
703.91	23201.73
704.04	23452.17
704.17	23243.86
704.31	22967.68
704.44	22752.35
704.57	22525.32
704.70	22293.60
704.83	22164.87
704.96	22370.84
705.10	22239.77
705.23	22375.52
>>>>>End Processed Spectral Data<<<<<
