SpectraSuite Data File
++++++++++++++++++++++++++++++++++++
Date: Fri Oct 25 11:25:24 EDT 2013
User: price-jones
Dark Spectrum Present: No
Reference Spectrum Present: No
Number of Sampled Component Spectra: 1
Spectrometers: USB2+H05261
Integration Time (usec): 100000 (USB2+H05261)
Spectra Averaged: 1 (USB2+H05261)
Boxcar Smoothing: 0 (USB2+H05261)
Correct for Electrical Dark: No (USB2+H05261)
Strobe/Lamp Enabled: No (USB2+H05261)
Correct for Detector Non-linearity: No (USB2+H05261)
Correct for Stray Light: No (USB2+H05261)
Number of Pixels in Processed Spectrum: 2048
>>>>>Begin Processed Spectral Data<<<<<
365.73	203.63
365.92	203.63
366.12	203.63
366.32	145.11
366.52	131.07
366.72	147.45
366.91	98.30
367.11	217.67
367.31	84.26
367.51	91.28
367.70	7.02
367.90	145.11
368.10	152.13
368.30	138.09
368.49	149.79
368.69	140.43
368.89	117.03
369.09	231.71
369.28	107.66
369.48	121.71
369.68	177.88
369.87	161.50
370.07	201.29
370.27	255.12
370.47	252.78
370.66	608.54
370.86	655.35
371.06	664.71
371.25	727.91
371.45	667.05
371.65	674.07
371.84	720.88
372.04	706.84
372.24	772.38
372.44	737.27
372.63	720.88
372.83	723.23
373.03	725.57
373.22	695.14
373.42	779.40
373.62	718.54
373.81	786.42
374.01	812.17
374.21	828.55
374.40	809.83
374.60	863.66
374.79	786.42
374.99	884.72
375.19	819.19
375.38	929.19
375.58	861.32
375.78	856.64
375.97	840.25
376.17	954.94
376.37	924.51
376.56	875.36
376.76	877.70
376.95	898.77
377.15	856.64
377.35	821.53
377.54	926.85
377.74	947.92
377.93	863.66
378.13	929.19
378.33	938.55
378.52	959.62
378.72	952.60
378.91	990.05
379.11	994.73
379.31	1020.47
379.50	957.28
379.70	919.83
379.89	940.90
380.09	1053.24
380.28	978.34
380.48	983.02
380.68	936.21
380.87	931.53
381.07	992.39
381.26	1015.79
381.46	1008.77
381.65	1011.11
381.85	1039.20
382.04	1041.54
382.24	1076.65
382.43	1029.84
382.63	1029.84
382.83	1100.05
383.02	1074.31
383.22	1013.45
383.41	1170.27
383.61	1088.35
383.80	1114.10
384.00	1076.65
384.19	1130.48
384.39	1132.82
384.58	1174.95
384.78	1151.54
384.97	1149.20
385.17	1137.50
385.36	1174.95
385.56	1193.67
385.75	1165.59
385.95	1277.93
386.14	1193.67
386.34	1268.57
386.53	1125.80
386.72	1160.91
386.92	1228.78
387.11	1242.82
387.31	1249.85
387.50	1144.52
387.70	1214.74
387.89	1219.42
388.09	1217.08
388.28	1282.61
388.48	1200.69
388.67	1214.74
388.86	1397.30
389.06	1282.61
389.25	1315.38
389.45	1378.58
389.64	1418.36
389.84	1416.02
390.03	1371.55
390.22	1432.41
390.42	1385.60
390.61	1425.39
390.81	1380.92
391.00	1362.19
391.19	1460.49
391.39	1418.36
391.58	1486.24
391.78	1469.86
391.97	1420.71
392.16	1418.36
392.36	1530.71
392.55	1500.28
392.75	1497.94
392.94	1497.94
393.13	1472.20
393.33	1453.47
393.52	1582.20
393.71	1495.60
393.91	1519.01
394.10	1600.93
394.29	1584.54
394.49	1621.99
394.68	1664.12
394.88	1584.54
395.07	1586.88
395.26	1647.74
395.46	1717.95
395.65	1680.50
395.84	1753.06
396.04	1846.68
396.23	1703.91
396.42	1659.44
396.62	1699.23
396.81	1732.00
397.00	1708.59
397.19	1727.32
397.39	1783.49
397.58	1776.47
397.77	1778.81
397.97	1846.68
398.16	1905.20
398.35	1846.68
398.55	1832.64
398.74	1860.73
398.93	1926.26
399.12	1853.70
399.32	1879.45
399.51	1902.86
399.70	1994.14
399.90	1966.05
400.09	1977.75
400.28	2054.99
400.47	2052.65
400.67	2057.33
400.86	2071.37
401.05	2012.86
401.24	2092.44
401.44	2022.22
401.63	2108.82
401.82	2176.70
402.01	2031.58
402.21	2181.38
402.40	2209.47
402.59	2282.02
402.78	2176.70
402.97	2286.70
403.17	2223.51
403.36	2078.40
403.55	2207.13
403.74	2328.83
403.93	2328.83
404.13	2361.60
404.32	2368.62
404.51	2349.90
404.70	2410.75
404.89	2434.16
405.09	2410.75
405.28	2509.05
405.47	2349.90
405.66	2471.61
405.85	2637.78
406.05	2511.39
406.24	2548.84
406.43	2560.55
406.62	2590.97
406.81	2658.85
407.00	2525.44
407.20	2511.39
407.39	2581.61
407.58	2626.08
407.77	2705.66
407.96	2719.70
408.15	2696.30
408.34	2740.77
408.54	2780.56
408.73	2825.03
408.92	2710.34
409.11	2871.84
409.30	2892.90
409.49	2869.50
409.68	2895.24
409.87	2946.73
410.07	2906.95
410.26	2911.63
410.45	2977.16
410.64	2981.84
410.83	2963.12
411.02	3084.83
411.21	3143.34
411.40	3059.08
411.59	3227.60
411.78	3199.51
411.98	3098.87
412.17	3290.79
412.36	3316.54
412.55	3309.52
412.74	3440.59
412.93	3265.05
413.12	3386.76
413.31	3447.61
413.50	3344.63
413.69	3337.60
413.88	3641.87
414.07	3569.32
414.26	3592.72
414.45	3543.57
414.64	3634.85
414.83	3648.90
415.02	3763.58
415.22	3786.99
415.41	3943.80
415.60	3833.80
415.79	3878.27
415.98	3943.80
416.17	3964.87
416.36	3803.37
416.55	3941.46
416.74	4053.81
416.93	4004.66
417.12	3978.91
417.31	4184.88
417.50	4074.87
417.69	4325.31
417.88	4224.67
418.07	4362.76
418.26	4383.82
418.45	4353.40
418.64	4498.51
418.83	4425.95
419.02	4332.33
419.21	4440.00
419.39	4507.87
419.58	4550.00
419.77	4404.89
419.96	4582.77
420.15	4531.28
420.34	4580.43
420.53	4585.11
420.72	4727.88
420.91	4540.64
421.10	4765.33
421.29	4737.24
421.48	4802.78
421.67	4802.78
421.86	4718.52
422.05	4819.16
422.24	4777.03
422.43	4765.33
422.61	4933.85
422.80	4868.31
422.99	4851.93
423.18	4894.06
423.37	4964.28
423.56	4999.38
423.75	4835.55
423.94	4784.06
424.13	4505.53
424.32	4695.11
424.50	4894.06
424.69	5130.45
424.88	5090.67
425.07	4856.61
425.26	4894.06
425.45	5004.07
425.64	4938.53
425.83	4943.21
426.01	4919.81
426.20	5060.24
426.39	5046.20
426.58	4992.36
426.77	4971.30
426.96	5053.22
427.15	5132.79
427.33	5151.52
427.52	5259.18
427.71	5329.40
427.90	5296.63
428.09	5256.84
428.28	5397.28
428.46	5355.15
428.65	5228.76
428.84	5411.32
429.03	5495.58
429.22	5408.98
429.40	5535.37
429.59	5465.15
429.78	5294.29
429.97	5327.06
430.16	5301.31
430.34	5554.09
430.53	5680.48
430.72	5490.90
430.91	5427.70
431.10	5509.62
431.28	5584.52
431.47	5776.44
431.66	5802.19
431.85	5720.27
432.03	5902.83
432.22	5806.87
432.41	5996.45
432.60	5900.49
432.79	5785.80
432.97	5874.74
433.16	5982.41
433.35	5860.70
433.54	6120.50
433.72	6120.50
433.91	6043.26
434.10	6246.89
434.28	6031.56
434.47	6211.78
434.66	6216.46
434.85	6310.08
435.03	6249.23
435.22	6331.15
435.41	6406.05
435.59	6186.04
435.78	6289.02
435.97	6363.92
436.16	6251.57
436.34	6466.90
436.53	6518.39
436.72	6707.98
436.90	6403.71
437.09	6633.08
437.28	6200.08
437.46	6616.69
437.65	6590.95
437.84	6672.87
438.02	6546.48
438.21	6637.76
438.40	6691.59
438.58	6937.35
438.77	6981.82
438.96	6810.96
439.14	7026.29
439.33	6902.24
439.52	7166.72
439.70	7220.55
439.89	7412.48
440.08	7407.80
440.26	7325.88
440.45	7215.87
440.63	7358.64
440.82	7573.97
441.01	7461.63
441.19	7623.12
441.38	7431.20
441.57	7634.83
441.75	7887.61
441.94	7798.66
442.12	7967.18
442.31	7960.16
442.50	7824.41
442.68	7887.61
442.87	7941.44
443.05	7946.12
443.24	7964.84
443.43	8077.19
443.61	8147.40
443.80	8369.76
443.98	8074.85
444.17	7831.43
444.35	8067.83
444.54	8322.94
444.73	8285.50
444.91	7992.93
445.10	8198.90
445.28	8280.82
445.47	8226.98
445.65	8210.60
445.84	8435.29
446.02	8374.44
446.21	8397.84
446.39	8561.68
446.58	8414.23
446.77	8491.46
446.95	8257.41
447.14	8332.31
447.32	8554.66
447.51	8393.16
447.69	8470.40
447.88	8369.76
448.06	8379.12
448.25	8531.25
448.43	8587.43
448.62	8409.54
448.80	8475.08
448.99	8709.13
449.17	8702.11
449.36	8557.00
449.54	8727.86
449.73	8938.51
449.91	8865.95
450.10	8905.74
450.28	9004.04
450.46	8959.57
450.65	9025.11
450.83	8952.55
451.02	8966.59
451.20	9266.18
451.39	9202.99
451.57	9062.55
451.76	8936.17
451.94	9060.21
452.13	9275.54
452.31	9301.29
452.49	9151.49
452.68	9121.07
452.86	9273.20
453.05	9355.12
453.23	9511.94
453.42	9469.81
453.60	9331.72
453.78	9476.83
453.97	9296.61
454.15	9439.38
454.34	9432.36
454.52	9664.07
454.70	9666.41
454.89	9748.33
455.07	9745.99
455.26	9678.12
455.44	9673.43
455.62	9870.04
455.81	9638.33
455.99	9706.20
456.17	9998.77
456.36	10068.98
456.54	10017.49
456.73	10073.67
456.91	10471.56
457.09	10361.55
457.28	10619.01
457.46	10291.34
457.64	10429.43
457.83	10525.39
458.01	10403.68
458.19	10703.27
458.38	10438.79
458.56	10602.63
458.74	10626.03
458.93	10429.43
459.11	10864.77
459.29	10689.23
459.48	10839.02
459.66	10799.23
459.84	10630.71
460.03	11044.99
460.21	11052.01
460.39	10953.71
460.57	10902.22
460.76	11169.04
460.94	11213.51
461.12	11084.78
461.31	11243.93
461.49	10986.47
461.67	11115.20
461.85	11372.66
462.04	11442.88
462.22	11674.59
462.40	11396.07
462.59	11496.71
462.77	11337.56
462.95	11379.68
463.13	11426.50
463.32	11726.08
463.50	11705.02
463.68	11585.65
463.86	11990.56
464.05	11602.04
464.23	11410.11
464.41	12011.63
464.59	11506.07
464.78	12341.64
464.96	11943.75
465.14	11653.53
465.32	11941.41
465.50	12063.12
465.69	12339.30
465.87	12079.50
466.05	12053.76
466.23	11868.86
466.41	12156.74
466.60	12266.75
466.78	12219.94
466.96	12126.32
467.14	12107.59
467.32	12374.41
467.51	12292.49
467.69	12013.97
467.87	12259.73
468.05	12435.27
468.23	12369.73
468.41	12301.86
468.60	12538.25
468.78	12793.37
468.96	12294.83
469.14	12692.73
469.32	12922.10
469.50	12533.57
469.69	12774.64
469.87	12971.25
470.05	12741.88
470.23	13128.06
470.41	13139.77
470.59	13111.68
470.77	12978.27
470.95	13345.73
471.14	13418.29
471.32	13078.91
471.50	13549.36
471.68	13666.39
471.86	13584.47
472.04	13661.71
472.22	13958.96
472.40	13657.03
472.58	13802.14
472.77	13715.54
472.95	13877.04
473.13	14483.24
473.31	13900.44
473.49	14019.81
473.67	14492.60
473.85	14368.55
474.03	14349.82
474.21	14352.16
474.39	14764.10
474.57	14658.78
474.75	14799.21
474.93	14970.07
475.12	14555.79
475.30	15140.93
475.48	14883.47
475.66	15243.91
475.84	15201.78
476.02	15023.90
476.20	15279.02
476.38	15690.95
476.56	15798.62
476.74	15672.23
476.92	15740.10
477.10	15660.52
477.28	16116.93
477.46	16166.08
477.64	15978.84
477.82	16273.74
478.00	16732.49
478.18	16713.77
478.36	16919.73
478.54	17013.35
478.72	16863.56
478.90	17013.35
479.08	17460.40
479.26	17582.10
479.44	17518.91
479.62	17673.39
479.80	18031.49
479.98	18017.44
480.16	18455.12
480.34	17844.24
480.52	18525.34
480.70	18427.04
480.88	18078.30
481.06	18595.56
481.24	18885.78
481.41	18733.65
481.59	19440.49
481.77	19363.25
481.95	19393.68
482.13	19456.87
482.31	19751.78
482.49	19899.23
482.67	19681.56
482.85	20376.70
483.03	20638.84
483.21	20671.61
483.39	20444.58
483.57	20849.49
483.74	20947.79
483.92	21397.18
484.10	21298.88
484.28	21511.86
484.46	21891.03
484.64	22132.11
484.82	21928.48
485.00	22221.05
485.18	22314.67
485.35	22963.00
485.53	22785.12
485.71	22604.89
485.89	23166.62
486.07	23005.13
486.25	23269.61
486.43	23367.91
486.61	23857.08
486.78	23730.69
486.96	24257.31
487.14	24449.24
487.32	24519.45
487.50	24599.03
487.68	24795.64
487.85	25291.83
488.03	25603.12
488.21	25390.13
488.39	26115.70
488.57	25699.08
488.75	25813.77
488.92	25886.32
489.10	26874.03
489.28	26368.48
489.46	26583.80
489.64	26759.34
489.81	27281.28
489.99	27672.15
490.17	27688.54
490.35	27957.70
490.53	27889.82
490.70	28329.84
490.88	28264.31
491.06	28498.36
491.24	28636.45
491.41	28704.33
491.59	29205.20
491.77	29586.71
491.95	29598.41
492.13	29256.70
492.30	29556.28
492.48	30274.83
492.66	29839.49
492.84	30033.75
493.01	30724.21
493.19	29876.94
493.37	30913.80
493.54	31108.06
493.72	31316.37
493.90	31157.21
494.08	31445.10
494.25	32065.34
494.43	31627.66
494.61	32121.51
494.79	32201.09
494.96	32364.93
495.14	32437.48
495.32	32994.53
495.49	33015.60
495.67	33113.90
495.85	33104.54
496.02	33720.10
496.20	33689.67
496.38	33326.89
496.55	34024.37
496.73	34763.98
496.91	34567.37
497.09	34712.49
497.26	35082.29
497.44	34579.07
497.62	34948.88
497.79	35651.04
497.97	35201.66
498.14	35999.78
498.32	36053.61
498.50	35601.89
498.67	36229.15
498.85	36357.88
499.03	36027.87
499.20	36477.25
499.38	36360.22
499.56	37006.21
499.73	37090.47
499.91	36980.46
500.08	37537.51
500.26	37181.75
500.44	37195.79
500.61	37699.01
500.79	37350.27
500.97	37813.70
501.14	38440.96
501.32	38022.00
501.49	38260.74
501.67	38326.27
501.84	39213.34
502.02	38295.85
502.20	38782.68
502.37	39089.29
502.55	38895.02
502.72	39505.90
502.90	39522.29
503.07	39304.62
503.25	39936.56
503.43	39342.06
503.60	39878.05
503.78	40243.17
503.95	40065.29
504.13	40392.97
504.30	40610.64
504.48	40390.62
504.65	40566.16
504.83	41043.63
505.01	41233.22
505.18	40910.22
505.36	41188.75
505.53	41081.08
505.71	41303.43
505.88	41507.06
506.06	41291.73
506.23	41801.97
506.41	41457.91
506.58	41867.50
506.76	41907.29
506.93	42630.52
507.11	42227.95
507.28	41951.76
507.46	42574.34
507.63	42459.66
507.81	42784.99
507.98	42597.75
508.16	42920.74
508.33	43323.32
508.50	43288.21
508.68	43145.44
508.85	43672.06
509.03	43580.78
509.20	43243.74
509.38	44395.28
509.55	44196.34
509.73	44343.79
509.90	44201.02
510.08	44362.51
510.25	44453.79
510.42	44715.93
510.60	44524.01
510.77	44849.35
510.95	45003.82
511.12	44905.52
511.30	44561.46
511.47	45340.86
511.64	45083.40
511.82	45710.66
511.99	45425.12
512.17	45677.90
512.34	45954.08
512.51	46279.41
512.69	46244.30
512.86	45778.54
513.04	46499.42
513.21	46050.04
513.38	46824.76
513.56	46829.44
513.73	46363.67
513.90	46747.52
514.08	46761.56
514.25	46904.34
514.43	47175.84
514.60	47220.31
514.77	47161.79
514.95	47384.15
515.12	47171.16
515.29	47337.33
515.47	47587.77
515.64	47908.43
515.81	47861.61
515.99	47831.19
516.16	47615.86
516.33	48294.61
516.51	48378.87
516.68	48456.11
516.85	48140.14
517.03	48708.89
517.20	48715.91
517.37	48456.11
517.54	48938.26
517.72	48568.46
517.89	48893.79
518.06	48804.85
518.24	48882.09
518.41	48783.79
518.58	49219.13
518.75	49027.20
518.93	49074.01
519.10	49448.50
519.27	49275.30
519.45	49411.05
519.62	49439.14
519.79	49331.47
519.96	49710.64
520.14	50106.19
520.31	49815.96
520.48	50302.79
520.65	49822.98
520.83	50436.20
521.00	50607.06
521.17	50113.21
521.34	50501.74
521.52	50279.39
521.69	50466.63
521.86	50583.66
522.03	50703.03
522.20	51351.35
522.38	51175.81
522.55	50939.42
522.72	50836.44
522.89	50724.09
523.07	51421.57
523.24	51325.61
523.41	51222.62
523.58	51592.43
523.75	51444.98
523.92	51711.80
524.10	51770.31
524.27	51536.26
524.44	51849.89
524.61	51627.54
524.78	51938.83
524.96	51990.32
525.13	51742.22
525.30	52245.44
525.47	52191.61
525.64	52245.44
525.81	52381.19
525.98	52547.37
526.16	52554.39
526.33	52229.05
526.50	52807.17
526.67	52514.60
526.84	52790.78
527.01	52809.51
527.18	52683.12
527.36	52545.03
527.53	52959.30
527.70	53045.90
527.87	53331.45
528.04	53015.47
528.21	53298.68
528.38	52940.58
528.55	53446.13
528.72	53216.76
528.89	53193.36
529.07	53017.82
529.24	53284.64
529.41	53558.48
529.58	53572.52
529.75	53584.22
529.92	53499.97
530.09	53488.26
530.26	53481.24
530.43	53787.85
530.60	53514.01
530.77	53495.28
530.94	53504.65
531.11	53434.43
531.28	53879.13
531.46	53886.15
531.63	53944.67
531.80	54007.86
531.97	54314.47
532.14	54384.69
532.31	54171.70
532.48	54354.26
532.65	54815.35
532.82	54539.16
532.99	54733.43
533.16	54038.29
533.33	54611.72
533.50	54684.28
533.67	54766.20
533.84	54408.09
534.01	54621.08
534.18	54738.11
534.35	54960.46
534.52	54937.05
534.69	55042.38
534.86	55208.56
535.03	54911.31
535.20	54937.05
535.37	55323.24
535.54	55260.05
535.71	54834.07
535.88	55561.98
536.05	55250.69
536.22	55374.73
536.38	55512.83
536.55	55391.12
536.72	55363.03
536.89	55367.71
537.06	55501.12
537.23	55533.89
537.40	55599.43
537.57	55365.37
537.74	55650.92
537.91	55739.86
538.08	55515.17
538.25	55765.60
538.42	55721.13
538.59	56062.85
538.75	55615.81
538.92	56072.21
539.09	56107.32
539.26	55882.63
539.43	55920.08
539.60	56002.00
539.77	55817.10
539.94	56488.83
540.11	56294.56
540.28	56210.31
540.44	56203.28
540.61	56406.91
540.78	56184.56
540.95	56236.05
541.12	56041.79
541.29	56198.60
541.46	56287.54
541.62	56320.31
541.79	56493.51
541.96	56341.38
542.13	56594.15
542.30	56397.55
542.47	56526.28
542.63	56750.97
542.80	56760.33
542.97	56884.38
543.14	57181.63
543.31	56933.53
543.48	57240.14
543.64	57392.28
543.81	57268.23
543.98	57085.67
544.15	57242.48
544.32	57258.87
544.48	57371.21
544.65	57183.97
544.82	57371.21
544.99	57003.75
545.16	57359.51
545.32	57127.80
545.49	57605.26
545.66	57429.72
545.83	57455.47
546.00	57570.16
546.16	57642.71
546.33	57593.56
546.50	57148.86
546.67	57698.89
546.83	57305.68
547.00	57354.83
547.17	57619.31
547.34	57675.48
547.50	57783.15
547.67	57909.53
547.84	57804.21
548.00	58054.65
548.17	58183.38
548.34	58007.84
548.51	58028.90
548.67	58202.10
548.84	58000.82
549.01	57750.38
549.18	58349.56
549.34	58012.52
549.51	58085.07
549.68	58216.14
549.84	57984.43
550.01	58192.74
550.18	58120.18
550.34	58277.00
550.51	58204.44
550.68	58312.11
550.84	58021.88
551.01	58534.46
551.18	58197.42
551.34	58246.57
551.51	58632.76
551.68	58527.44
551.84	58379.98
552.01	58408.07
552.18	58663.19
552.34	58227.85
552.51	58635.10
552.68	58298.06
552.84	58480.63
553.01	58866.81
553.18	58539.14
553.34	58805.96
553.51	58667.87
553.67	58651.48
553.84	58693.61
554.01	58808.30
554.17	58775.53
554.34	58897.24
554.51	58763.83
554.67	59016.61
554.84	58717.02
555.00	58824.68
555.17	58960.44
555.33	58962.78
555.50	58946.39
555.67	58614.04
555.83	58855.11
556.00	59107.89
556.16	59114.91
556.33	58995.54
556.50	59086.82
556.66	59241.30
556.83	58876.18
556.99	59276.41
557.16	59316.20
557.32	59068.10
557.49	59384.07
557.65	59325.56
557.82	59161.72
557.98	59250.66
558.15	59147.68
558.32	59355.99
558.48	59243.64
558.65	59437.90
558.81	59337.26
558.98	59348.96
559.14	59465.99
559.31	59409.82
559.47	59339.60
559.64	59456.63
559.80	59543.23
559.97	59419.18
560.13	59517.48
560.30	59573.66
560.46	59690.68
560.63	59681.32
560.79	59587.70
560.96	59566.63
561.12	59599.40
561.29	59676.64
561.45	59671.96
561.61	59728.13
561.78	59611.10
561.94	59524.50
562.11	59791.33
562.27	59739.83
562.44	59903.67
562.60	59817.07
562.77	59737.49
562.93	59671.96
563.10	59882.61
563.26	59777.28
563.42	59929.42
563.59	59746.86
563.75	59901.33
563.92	60018.36
564.08	59819.41
564.24	60018.36
564.41	59838.14
564.57	60025.38
564.74	60048.78
564.90	59847.50
565.07	60053.47
565.23	59964.52
565.39	59877.93
565.56	60104.96
565.72	60079.21
565.88	59990.27
566.05	59941.12
566.21	60086.23
566.38	59840.48
566.54	60053.47
566.70	60104.96
566.87	60025.38
567.03	60175.17
567.19	60168.15
567.36	60210.28
567.52	59873.24
567.68	60413.91
567.85	60172.83
568.01	60336.67
568.17	60030.06
568.34	60350.71
568.50	60074.53
568.66	60200.92
568.83	60327.31
568.99	60238.37
569.15	60310.92
569.32	60224.32
569.48	60257.09
569.64	60156.45
569.81	60369.44
569.97	60177.51
570.13	60301.56
570.30	60423.27
570.46	60477.10
570.62	60264.11
570.78	60392.84
570.95	60444.33
571.11	60322.63
571.27	60245.39
571.43	60334.33
571.60	60523.91
571.76	60296.88
571.92	60601.15
572.09	60437.31
572.25	60310.92
572.41	60542.64
572.57	60552.00
572.74	60580.09
572.90	60385.82
573.06	60294.54
573.22	60640.94
573.38	60491.15
573.55	60404.55
573.71	60622.22
573.87	60652.64
574.03	60465.40
574.20	60357.74
574.36	60502.85
574.52	60479.44
574.68	60439.65
574.84	60692.43
575.01	60535.62
575.17	60612.85
575.33	60355.39
575.49	60245.39
575.65	60608.17
575.82	60631.58
575.98	60629.24
576.14	60692.43
576.30	60816.48
576.46	60631.58
576.62	60722.86
576.79	60430.29
576.95	60449.02
577.11	60610.51
577.27	60516.89
577.43	60811.80
577.59	60640.94
577.75	60605.83
577.92	60523.91
578.08	60671.37
578.24	60678.39
578.40	60931.17
578.56	60566.04
578.72	60516.89
578.88	60839.89
579.04	60760.31
579.21	60739.24
579.37	60884.36
579.53	60790.73
579.69	60760.31
579.85	60561.36
580.01	60624.56
580.17	60570.72
580.33	60699.45
580.49	60568.38
580.65	60945.21
580.82	60945.21
580.98	60523.91
581.14	60673.71
581.30	60830.52
581.46	60736.90
581.62	60832.86
581.78	60652.64
581.94	60725.20
582.10	60767.33
582.26	60825.84
582.42	60666.69
582.58	60816.48
582.74	60816.48
582.90	60736.90
583.06	60699.45
583.22	60402.21
583.38	60802.44
583.54	60706.47
583.70	60706.47
583.86	60959.25
584.02	60692.43
584.18	60814.14
584.34	60790.73
584.50	60942.87
584.66	60872.65
584.82	60654.98
584.98	60931.17
585.14	60793.07
585.30	60577.75
585.46	60917.12
585.62	60928.83
585.78	60999.04
585.94	60577.75
586.10	60917.12
586.26	60823.50
586.42	60781.37
586.58	60884.36
586.74	60793.07
586.90	60837.54
587.06	60926.49
587.22	60772.01
587.38	60755.63
587.54	61066.92
587.70	60947.55
587.86	61247.14
588.02	60931.17
588.18	60945.21
588.34	60842.23
588.49	60835.20
588.65	60870.31
588.81	60959.25
588.97	61120.75
589.13	60898.40
589.29	61078.62
589.45	61202.67
589.61	61076.28
589.77	61293.95
589.93	61137.13
590.08	61123.09
590.24	61329.06
590.40	61415.66
590.56	61373.53
590.72	61293.95
590.88	61104.37
591.04	61078.62
591.20	61418.00
591.35	61284.59
591.51	61394.59
591.67	61329.06
591.83	61326.72
591.99	61183.94
592.15	61315.01
592.31	61399.27
592.46	61249.48
592.62	61139.47
592.78	61106.71
592.94	61235.44
593.10	61394.59
593.26	61272.88
593.41	61214.37
593.57	61300.97
593.73	61357.14
593.89	61509.28
594.05	61476.51
594.20	61371.19
594.36	61551.41
594.52	61350.12
594.68	61282.25
594.84	61272.88
594.99	61448.42
595.15	61322.04
595.31	61389.91
595.47	61427.36
595.62	61303.31
595.78	61307.99
595.94	61310.33
596.10	61574.81
596.25	61441.40
596.41	61656.73
596.57	61378.21
596.73	61450.77
596.88	61551.41
597.04	61354.80
597.20	61593.54
597.36	61446.08
597.51	61673.12
597.67	61546.73
597.83	61345.44
597.99	61474.17
598.14	61298.63
598.30	61530.34
598.46	61434.38
598.61	61462.47
598.77	61488.21
598.93	61546.73
599.09	61528.00
599.24	61743.33
599.40	61675.46
599.56	61546.73
599.71	61701.20
599.87	61740.99
600.03	61565.45
600.18	61443.74
600.34	61298.63
600.50	61689.50
600.65	61523.32
600.81	61436.72
600.97	61790.14
601.12	61609.92
601.28	61612.26
601.44	61495.24
601.59	61495.24
601.75	61427.36
601.91	61846.32
602.06	61535.02
602.22	61860.36
602.37	61652.05
602.53	61668.44
602.69	61628.65
602.84	61553.75
603.00	61663.75
603.16	61640.35
603.31	61675.46
603.47	61731.63
603.62	61565.45
603.78	61764.40
603.94	61549.07
604.09	61654.39
604.25	61712.91
604.40	61525.66
604.56	61724.61
604.71	61654.39
604.87	61488.21
605.03	61572.47
605.18	61726.95
605.34	61551.41
605.49	61670.78
605.65	61652.05
605.80	61532.68
605.96	61778.44
606.12	61668.44
606.27	61668.44
606.43	61567.79
606.58	61666.09
606.74	61701.20
606.89	61511.62
607.05	61724.61
607.20	61762.06
607.36	61556.09
607.51	61329.06
607.67	61186.28
607.82	61516.30
607.98	61282.25
608.13	61535.02
608.29	61565.45
608.44	61352.46
608.60	61567.79
608.75	61469.49
608.91	61394.59
609.06	61446.08
609.22	61675.46
609.37	61226.07
609.53	61502.26
609.68	61586.52
609.84	61457.79
609.99	61605.24
610.15	61565.45
610.30	61485.87
610.46	61471.83
610.61	61630.99
610.76	61434.38
610.92	61537.36
611.07	61579.49
611.23	61375.87
611.38	61485.87
611.54	61490.55
611.69	61413.32
611.84	61303.31
612.00	61528.00
612.15	61291.61
612.31	61460.13
612.46	61214.37
612.62	61331.40
612.77	61352.46
612.92	61499.92
613.08	61029.47
613.23	61284.59
613.39	61364.17
613.54	61289.27
613.69	61448.42
613.85	61235.44
614.00	61385.23
614.15	61422.68
614.31	61144.16
614.46	61563.11
614.62	61387.57
614.77	61284.59
614.92	61340.76
615.08	61296.29
615.23	61265.86
615.38	61247.14
615.54	61258.84
615.69	61029.47
615.84	61153.52
616.00	61235.44
616.15	61279.91
616.30	61387.57
616.46	61179.26
616.61	61001.38
616.76	61226.07
616.92	61071.60
617.07	60970.96
617.22	60914.78
617.37	61073.94
617.53	61289.27
617.68	61205.01
617.83	61116.07
617.99	61141.81
618.14	61024.79
618.29	61118.41
618.45	60919.46
618.60	60858.61
618.75	60973.30
618.90	60926.49
619.06	61022.45
619.21	60938.19
619.36	61237.78
619.51	61027.13
619.67	60757.97
619.82	60914.78
619.97	61036.49
620.12	60828.18
620.28	60821.16
620.43	60769.67
620.58	60802.44
620.73	60711.16
620.89	60947.55
621.04	61045.85
621.19	60870.31
621.34	61041.17
621.49	60502.85
621.65	60753.29
621.80	60999.04
621.95	60568.38
622.10	60807.12
622.25	60664.35
622.41	60940.53
622.56	60900.74
622.71	60741.58
622.86	60383.48
623.01	60570.72
623.16	60481.78
623.32	60767.33
623.47	60795.42
623.62	60584.77
623.77	60720.52
623.92	60755.63
624.07	60687.75
624.23	60566.04
624.38	60568.38
624.53	60725.20
624.68	60280.50
624.83	60467.74
624.98	60678.39
625.13	60404.55
625.29	60608.17
625.44	60547.32
625.59	60402.21
625.74	60552.00
625.89	60416.25
626.04	60439.65
626.19	60385.82
626.34	60453.70
626.49	60343.69
626.65	59985.59
626.80	60371.78
626.95	60154.11
627.10	60147.09
627.25	60009.00
627.40	60247.73
627.55	60320.29
627.70	60240.71
627.85	60334.33
628.00	60053.47
628.15	60219.64
628.30	60203.26
628.45	60210.28
628.60	60088.57
628.76	60133.04
628.91	60378.80
629.06	60186.88
629.21	60130.70
629.36	60093.25
629.51	60006.65
629.66	60079.21
629.81	59796.01
629.96	59852.18
630.11	60009.00
630.26	60069.85
630.41	60177.51
630.56	59903.67
630.71	59950.48
630.86	59929.42
631.01	59803.03
631.16	59737.49
631.31	59765.58
631.46	59419.18
631.61	59898.99
631.76	59824.09
631.91	60011.34
632.06	60025.38
632.21	59856.86
632.36	59660.26
632.51	59526.84
632.66	59664.94
632.81	59550.25
632.96	59863.88
633.10	59674.30
633.25	59711.75
633.40	59873.24
633.55	59779.62
633.70	59604.08
633.85	59456.63
634.00	59583.02
634.15	59517.48
634.30	59501.10
634.45	59576.00
634.60	59849.84
634.75	59517.48
634.90	59480.03
635.05	59391.09
635.19	59402.80
635.34	59634.51
635.49	59421.52
635.64	59597.06
635.79	59470.67
635.94	59526.84
636.09	59564.29
636.24	59374.71
636.39	59388.75
636.53	59496.42
636.68	59241.30
636.83	59379.39
636.98	59540.89
637.13	59264.70
637.28	59423.86
637.43	59440.24
637.57	59276.41
637.72	59145.34
637.87	59351.30
638.02	59419.18
638.17	59234.28
638.32	59255.34
638.46	59421.52
638.61	59236.62
638.76	59194.49
638.91	59215.55
639.06	59058.74
639.20	59047.04
639.35	58918.31
639.50	58983.84
639.65	59049.38
639.80	59236.62
639.94	58951.07
640.09	59257.68
640.24	59124.27
640.39	58958.09
640.54	58962.78
640.68	58995.54
640.83	59341.94
640.98	58990.86
641.13	58635.10
641.27	59121.93
641.42	59058.74
641.57	58848.09
641.72	58621.06
641.86	58684.25
642.01	58618.72
642.16	58939.37
642.31	58686.59
642.45	58969.80
642.60	58670.21
642.75	58937.03
642.90	58707.66
643.04	58597.65
643.19	58784.90
643.34	58653.82
643.48	58794.26
643.63	58745.11
643.78	58564.88
643.93	58688.93
644.07	58665.53
644.22	58525.10
644.37	58429.13
644.51	58501.69
644.66	58468.92
644.81	58492.33
644.95	58501.69
645.10	58394.03
645.25	58424.45
645.39	58183.38
645.54	58508.71
645.69	58485.31
645.83	58494.67
645.98	58438.50
646.13	58342.53
646.27	58225.51
646.42	58211.46
646.57	58185.72
646.71	58321.47
646.86	58541.48
647.00	58475.94
647.15	58225.51
647.30	58251.25
647.44	58354.24
647.59	58363.60
647.74	58344.87
647.88	58433.81
648.03	58344.87
648.17	58349.56
648.32	58155.29
648.47	58274.66
648.61	58195.08
648.76	58319.13
648.90	57979.75
649.05	58312.11
649.20	58148.27
649.34	58197.42
649.49	58265.30
649.63	58150.61
649.78	58457.22
649.92	58120.18
650.07	58192.74
650.21	57923.58
650.36	58197.42
650.51	57698.89
650.65	58230.19
650.80	58010.18
650.94	57806.55
651.09	57851.02
651.23	57661.44
651.38	57895.49
651.52	57715.27
651.67	57890.81
651.81	57935.28
651.96	57722.29
652.10	57733.99
652.25	57794.85
652.39	57701.23
652.54	57528.03
652.68	57572.50
652.83	57654.42
652.97	57771.44
653.12	57689.52
653.26	57640.37
653.41	57822.93
653.55	57733.99
653.70	57818.25
653.84	57649.74
653.99	57478.88
654.13	57464.83
654.27	57586.54
654.42	57518.67
654.56	57270.57
654.71	57719.95
654.85	57844.00
655.00	57490.58
655.14	57696.55
655.29	57148.86
655.43	57631.01
655.57	57509.30
655.72	57476.54
655.86	57535.05
656.01	57518.67
656.15	57153.54
656.30	57403.98
656.44	57382.91
656.58	57371.21
656.73	57467.17
656.87	57291.63
657.01	57385.25
657.16	57284.61
657.30	57099.71
657.45	57088.01
657.59	57041.20
657.73	56966.30
657.88	57073.96
658.02	57174.61
658.16	57027.15
658.31	56741.61
658.45	57038.86
658.60	57031.83
658.74	57055.24
658.88	56931.19
659.03	56690.12
659.17	56858.63
659.31	56825.87
659.46	56882.04
659.60	56631.60
659.74	56701.82
659.89	56687.78
660.03	56479.47
660.17	56807.14
660.32	56673.73
660.46	56662.03
660.60	56582.45
660.74	56580.11
660.89	56685.43
661.03	56432.66
661.17	56273.50
661.32	56303.93
661.46	56332.01
661.60	56294.56
661.74	56299.25
661.89	56210.31
662.03	56214.99
662.17	56207.97
662.31	55976.25
662.46	56217.33
662.60	56226.69
662.74	56051.15
662.88	56037.11
663.03	55796.03
663.17	55941.14
663.31	56011.36
663.45	55936.46
663.60	55910.72
663.74	55377.08
663.88	55599.43
664.02	55655.60
664.17	55763.26
664.31	55519.85
664.45	55374.73
664.59	55646.24
664.73	55615.81
664.88	55379.42
665.02	55096.21
665.16	55519.85
665.30	55402.82
665.44	55203.88
665.59	55140.68
665.73	55075.15
665.87	55175.79
666.01	55133.66
666.15	54976.84
666.29	54955.78
666.44	55152.38
666.58	54805.98
666.72	54878.54
666.86	54850.45
667.00	54953.44
667.14	54801.30
667.28	54848.11
667.43	54614.06
667.57	54740.45
667.71	54433.84
667.85	54630.44
667.99	54415.11
668.13	54265.32
668.27	54316.81
668.41	54461.93
668.56	53954.03
668.70	54033.61
668.84	54092.12
668.98	54157.66
669.12	54171.70
669.26	54270.00
669.40	54157.66
669.54	54131.91
669.68	53844.02
669.82	53799.55
669.96	54059.35
670.10	53895.52
670.25	54241.92
670.39	53705.93
670.53	53853.39
670.67	53551.46
670.81	53516.35
670.95	53471.88
671.09	53216.76
671.23	52989.73
671.37	53361.87
671.51	53474.22
671.65	53202.72
671.79	53069.31
671.93	53310.38
672.07	53308.04
672.21	52800.15
672.35	52769.72
672.49	52781.42
672.63	52793.12
672.77	52472.47
672.91	52479.49
673.05	52065.22
673.19	52301.61
673.33	52240.76
673.47	52222.03
673.61	52308.63
673.75	51927.13
673.89	51913.08
674.03	51959.89
674.17	51709.46
674.31	51751.59
674.45	51363.06
674.59	51842.87
674.73	51826.48
674.87	51309.22
675.01	51463.70
675.15	51227.31
675.29	51435.61
675.43	51021.34
675.56	50862.18
675.70	50850.48
675.84	50808.35
675.98	49621.70
676.12	50883.25
676.26	50836.44
676.40	50248.96
676.54	50150.66
676.68	50653.87
676.82	49546.80
676.96	50300.45
677.10	50014.91
677.23	49993.84
677.37	49858.09
677.51	49645.10
677.65	49226.15
677.79	48769.74
677.93	48837.62
678.07	48849.32
678.21	48802.51
678.34	48879.75
678.48	48912.52
678.62	48523.99
678.76	48135.46
678.90	48135.46
679.04	48114.39
679.18	48746.34
679.31	47824.17
679.45	47807.78
679.59	48229.08
679.73	47849.91
679.87	47288.18
680.00	47344.36
680.14	47089.24
680.28	46784.97
680.42	46810.71
680.56	46536.87
680.70	46043.02
680.83	46848.16
680.97	46347.29
681.11	46539.21
681.25	46248.99
681.39	46616.45
681.52	46120.26
681.66	46209.20
681.80	45581.93
681.94	45240.21
682.07	45310.43
682.21	45015.52
682.35	45478.95
682.49	45471.93
682.62	45223.83
682.76	45116.17
682.90	44816.58
683.04	44914.88
683.17	44423.37
683.31	43833.55
683.45	44289.96
683.59	44088.67
683.72	43550.35
683.86	43711.84
684.00	43646.31
684.13	43887.39
684.27	43992.71
684.41	43959.94
684.55	43737.59
684.68	43648.65
684.82	42993.30
684.96	42693.71
685.09	42604.77
685.23	42529.87
685.37	42333.27
685.50	42146.03
685.64	42256.03
685.78	42347.31
685.91	42117.94
686.05	41635.79
686.19	40861.07
686.32	41338.54
686.46	40952.35
686.60	40762.77
686.73	40844.69
686.87	41069.38
687.01	40919.59
687.14	40488.93
687.28	40093.38
687.42	39959.97
687.55	40112.10
687.69	39985.71
687.82	39459.09
687.96	39416.96
688.10	39555.05
688.23	39576.12
688.37	39079.92
688.50	38892.68
688.64	39005.03
688.78	38548.62
688.91	38785.02
689.05	38588.41
689.18	38527.56
689.32	37549.21
689.46	37467.30
689.59	37404.10
689.73	37579.64
689.86	36996.85
690.00	36968.76
690.13	37890.93
690.27	37102.17
690.41	37404.10
690.54	36669.17
690.68	36453.84
690.81	36596.62
690.95	36797.90
691.08	35800.83
691.22	35674.45
691.35	35629.98
691.49	35955.31
691.62	35679.13
691.76	35281.24
691.89	35377.20
692.03	35243.79
692.16	35316.34
692.30	34696.10
692.43	35070.59
692.57	34366.09
692.70	34555.67
692.84	34466.73
692.97	34459.71
693.11	34321.62
693.24	34117.99
693.38	34047.77
693.51	33502.43
693.65	33240.29
693.78	33146.67
693.92	33453.28
694.05	33350.29
694.19	32992.19
694.32	32788.56
694.45	32877.51
694.59	32547.49
694.72	32210.45
694.86	32629.41
694.99	32149.60
695.13	31679.15
695.26	31679.15
695.39	31367.86
695.53	31665.11
695.66	31412.33
695.80	31299.98
695.93	31243.81
696.07	30525.27
696.20	30445.69
696.33	30609.53
696.47	30457.39
696.60	30377.81
696.73	29923.75
696.87	30125.04
697.00	30508.88
697.14	30064.18
697.27	30101.63
697.40	29696.72
697.54	29329.25
697.67	29539.90
697.80	28891.57
697.94	29289.46
698.07	29099.88
698.21	28821.36
698.34	28819.02
698.47	28685.61
698.61	28315.80
698.74	28439.85
698.87	28238.56
699.01	27889.82
699.14	28348.57
699.27	27953.02
699.40	27997.49
699.54	28114.52
699.67	27445.12
699.80	27335.12
699.94	27185.32
700.07	27255.54
700.20	26904.46
700.34	26583.80
700.47	26417.63
700.60	26199.96
700.73	26136.76
700.87	25891.01
701.00	25687.38
701.13	25769.30
701.26	25855.90
701.40	25965.90
701.53	25912.07
701.66	25893.35
701.79	25179.48
701.93	25158.42
702.06	25022.67
702.19	24797.98
702.32	24830.74
702.46	24526.47
702.59	24648.18
702.72	24552.22
702.85	24376.68
702.99	24601.37
703.12	24011.56
703.25	24013.90
703.38	23896.87
703.51	23608.98
703.65	23632.39
703.78	23227.48
703.91	23070.66
704.04	23410.04
704.17	23236.84
704.31	22871.72
704.44	22441.06
704.57	22644.68
704.70	22380.20
704.83	22530.00
704.96	22298.28
705.10	22429.35
705.23	22204.66
>>>>>End Processed Spectral Data<<<<<
