SpectraSuite Data File
++++++++++++++++++++++++++++++++++++
Date: Fri Oct 25 11:26:16 EDT 2013
User: price-jones
Dark Spectrum Present: No
Reference Spectrum Present: No
Number of Sampled Component Spectra: 1
Spectrometers: USB2+H05261
Integration Time (usec): 100000 (USB2+H05261)
Spectra Averaged: 1 (USB2+H05261)
Boxcar Smoothing: 0 (USB2+H05261)
Correct for Electrical Dark: No (USB2+H05261)
Strobe/Lamp Enabled: No (USB2+H05261)
Correct for Detector Non-linearity: No (USB2+H05261)
Correct for Stray Light: No (USB2+H05261)
Number of Pixels in Processed Spectrum: 2048
>>>>>Begin Processed Spectral Data<<<<<
365.73	262.14
365.92	262.14
366.12	262.14
366.32	138.09
366.52	173.20
366.72	163.84
366.91	110.01
367.11	133.41
367.31	121.71
367.51	152.13
367.70	114.69
367.90	184.90
368.10	100.64
368.30	110.01
368.49	152.13
368.69	224.69
368.89	140.43
369.09	177.88
369.28	161.50
369.48	166.18
369.68	205.97
369.87	238.73
370.07	205.97
370.27	259.80
370.47	362.78
370.66	641.31
370.86	631.94
371.06	692.80
371.25	741.95
371.45	676.41
371.65	669.39
371.84	648.33
372.04	720.88
372.24	725.57
372.44	718.54
372.63	720.88
372.83	704.50
373.03	746.63
373.22	767.70
373.42	777.06
373.62	755.99
373.81	793.44
374.01	805.14
374.21	767.70
374.40	807.48
374.60	858.98
374.79	791.10
374.99	758.33
375.19	875.36
375.38	833.23
375.58	851.96
375.78	891.74
375.97	854.30
376.17	936.21
376.37	840.25
376.56	826.21
376.76	851.96
376.95	830.89
377.15	863.66
377.35	912.81
377.54	896.43
377.74	875.36
377.93	943.24
378.13	882.38
378.33	966.64
378.52	957.28
378.72	959.62
378.91	884.72
379.11	917.49
379.31	926.85
379.50	924.51
379.70	973.66
379.89	1020.47
380.09	1004.09
380.28	976.00
380.48	1029.84
380.68	1013.45
380.87	959.62
381.07	1006.43
381.26	1039.20
381.46	1020.47
381.65	959.62
381.85	971.32
382.04	980.68
382.24	1069.62
382.43	1104.73
382.63	1069.62
382.83	1055.58
383.02	1149.20
383.22	1135.16
383.41	1041.54
383.61	987.71
383.80	1144.52
384.00	1179.63
384.19	1151.54
384.39	1090.69
384.58	1146.86
384.78	1172.61
384.97	1151.54
385.17	1235.80
385.36	1167.93
385.56	1207.72
385.75	1156.22
385.95	1151.54
386.14	1130.48
386.34	1226.44
386.53	1165.59
386.72	1217.08
386.92	1249.85
387.11	1376.24
387.31	1219.42
387.50	1266.23
387.70	1247.51
387.89	1306.02
388.09	1327.08
388.28	1235.80
388.48	1231.12
388.67	1329.42
388.86	1275.59
389.06	1383.26
389.25	1387.94
389.45	1289.64
389.64	1348.15
389.84	1390.28
390.03	1308.36
390.22	1376.24
390.42	1413.68
390.61	1404.32
390.81	1418.36
391.00	1467.52
391.19	1423.05
391.39	1411.34
391.58	1533.05
391.78	1458.15
391.97	1537.73
392.16	1516.67
392.36	1509.65
392.55	1526.03
392.75	1493.26
392.94	1535.39
393.13	1598.59
393.33	1605.61
393.52	1577.52
393.71	1589.22
393.91	1640.72
394.10	1568.16
394.29	1586.88
394.49	1582.20
394.68	1680.50
394.88	1643.06
395.07	1610.29
395.26	1582.20
395.46	1652.42
395.65	1701.57
395.84	1722.63
396.04	1858.39
396.23	1584.54
396.42	1706.25
396.62	1750.72
396.81	1783.49
397.00	1746.04
397.19	1806.89
397.39	1701.57
397.58	1881.79
397.77	1736.68
397.97	1860.73
398.16	1804.55
398.35	1870.09
398.55	1891.15
398.74	1905.20
398.93	1898.17
399.12	1902.86
399.32	1926.26
399.51	1893.49
399.70	2085.42
399.90	1977.75
400.09	1930.94
400.28	2085.42
400.47	2031.58
400.67	2062.01
400.86	2033.93
401.05	1982.43
401.24	2186.06
401.44	2157.97
401.63	2157.97
401.82	2155.63
402.01	2122.87
402.21	2064.35
402.40	2136.91
402.59	2284.36
402.78	2179.04
402.97	2211.81
403.17	2230.53
403.36	2303.09
403.55	2239.89
403.74	2403.73
403.93	2375.64
404.13	2406.07
404.32	2434.16
404.51	2305.43
404.70	2413.09
404.89	2272.66
405.09	2450.54
405.28	2487.99
405.47	2583.95
405.66	2483.31
405.85	2546.50
406.05	2417.77
406.24	2516.08
406.43	2466.92
406.62	2579.27
406.81	2799.28
407.00	2651.83
407.20	2626.08
407.39	2614.38
407.58	2637.78
407.77	2560.55
407.96	2715.02
408.15	2740.77
408.34	2757.15
408.54	2658.85
408.73	2771.19
408.92	2850.77
409.11	2832.05
409.30	2960.78
409.49	2860.13
409.68	2928.01
409.87	2960.78
410.07	2871.84
410.26	2995.89
410.45	2988.86
410.64	2995.89
410.83	3047.38
411.02	2988.86
411.21	3133.98
411.40	3049.72
411.59	3283.77
411.78	3211.22
411.98	3098.87
412.17	3300.16
412.36	3314.20
412.55	3421.86
412.74	3407.82
412.93	3293.13
413.12	3349.31
413.31	3585.70
413.50	3438.25
413.69	3524.85
413.88	3452.29
414.07	3609.11
414.26	3588.04
414.45	3684.00
414.64	3641.87
414.83	3758.90
415.02	3852.52
415.22	3904.01
415.41	3999.98
415.60	3868.91
415.79	3805.71
415.98	3941.46
416.17	3852.52
416.36	3871.25
416.55	4046.79
416.74	4091.26
416.93	3896.99
417.12	4119.34
417.31	4156.79
417.50	4166.15
417.69	4285.52
417.88	4215.30
418.07	4250.41
418.26	4252.75
418.45	4365.10
418.64	4407.23
418.83	4395.53
419.02	4266.80
419.21	4440.00
419.39	4564.04
419.58	4596.81
419.77	4409.57
419.96	4407.23
420.15	4397.87
420.34	4533.62
420.53	4758.31
420.72	4725.54
420.91	4760.65
421.10	4697.46
421.29	4713.84
421.48	4660.01
421.67	4648.30
421.86	4613.20
422.05	4683.41
422.24	4774.69
422.43	4837.89
422.61	4844.91
422.80	4938.53
422.99	4856.61
423.18	4957.25
423.37	5067.26
423.56	4943.21
423.75	4833.21
423.94	4690.43
424.13	4613.20
424.32	4791.08
424.50	4896.40
424.69	5149.18
424.88	4931.51
425.07	4980.66
425.26	5015.77
425.45	5221.74
425.64	5013.43
425.83	5081.30
426.01	5097.69
426.20	4978.32
426.39	5074.28
426.58	5008.75
426.77	5069.60
426.96	4912.78
427.15	5132.79
427.33	5149.18
427.52	5104.71
427.71	5139.82
427.90	5259.18
428.09	5277.91
428.28	5366.85
428.46	5509.62
428.65	5270.89
428.84	5479.19
429.03	5551.75
429.22	5383.23
429.40	5556.43
429.59	5397.28
429.78	5235.78
429.97	5137.48
430.16	5270.89
430.34	5570.48
430.53	5528.35
430.72	5481.53
430.91	5530.69
431.10	5617.29
431.28	5652.39
431.47	5753.04
431.66	5832.62
431.85	5682.82
432.03	5792.83
432.22	6033.90
432.41	5916.87
432.60	5865.38
432.79	5860.70
432.97	5987.09
433.16	5989.43
433.35	5874.74
433.54	5914.53
433.72	5926.24
433.91	6061.99
434.10	5959.00
434.28	6045.60
434.47	6122.84
434.66	6263.27
434.85	6157.95
435.03	6263.27
435.22	6270.30
435.41	6401.37
435.59	6333.49
435.78	6317.11
435.97	6333.49
436.16	6303.06
436.34	6389.66
436.53	6466.90
436.72	6569.88
436.90	6246.89
437.09	6494.99
437.28	6377.96
437.46	6595.63
437.65	6476.26
437.84	6864.79
438.02	6752.45
438.21	6747.76
438.40	6771.17
438.58	6860.11
438.77	6853.09
438.96	6817.98
439.14	6883.52
439.33	7176.08
439.52	7082.46
439.70	7145.66
439.89	7398.43
440.08	7339.92
440.26	7194.81
440.45	7229.91
440.63	7349.28
440.82	7506.10
441.01	7456.95
441.19	7503.76
441.38	7681.64
441.57	7723.77
441.75	7892.29
441.94	8018.68
442.12	7885.26
442.31	7997.61
442.50	8018.68
442.68	7868.88
442.87	7864.20
443.05	7985.91
443.24	8257.41
443.43	8086.55
443.61	8159.11
443.80	8304.22
443.98	7953.14
444.17	7812.71
444.35	8093.57
444.54	8334.65
444.73	8250.39
444.91	8201.24
445.10	8161.45
445.28	8203.58
445.47	8170.81
445.65	8407.20
445.84	8395.50
446.02	8615.51
446.21	8376.78
446.39	8285.50
446.58	8458.70
446.77	8475.08
446.95	8271.45
447.14	8273.79
447.32	8514.87
447.51	8592.11
447.69	8416.57
447.88	8407.20
448.06	8362.73
448.25	8575.72
448.43	8716.16
448.62	8507.85
448.80	8439.97
448.99	8671.68
449.17	8720.84
449.36	8374.44
449.54	8812.12
449.73	8882.33
449.91	8964.25
450.10	8982.98
450.28	9156.18
450.46	9060.21
450.65	9317.67
450.83	9060.21
451.02	9107.02
451.20	9114.05
451.39	9280.22
451.57	8992.34
451.76	9013.40
451.94	9200.65
452.13	9275.54
452.31	9287.25
452.49	8954.89
452.68	9181.92
452.86	9242.78
453.05	9308.31
453.23	9322.35
453.42	9399.59
453.60	9284.91
453.78	9633.64
453.97	9397.25
454.15	9521.30
454.34	9327.03
454.52	9425.34
454.70	9804.50
454.89	9708.54
455.07	9703.86
455.26	9863.02
455.44	9877.06
455.62	9902.81
455.81	9912.17
455.99	9963.66
456.17	9947.28
456.36	9832.59
456.54	10094.73
456.73	10066.64
456.91	10485.60
457.09	10186.01
457.28	10492.62
457.46	10258.57
457.64	10572.20
457.83	10576.88
458.01	10466.88
458.19	10527.73
458.38	10586.24
458.56	10738.38
458.74	10504.32
458.93	10750.08
459.11	10672.84
459.29	10740.72
459.48	10721.99
459.66	10497.30
459.84	10817.96
460.03	11096.48
460.21	10883.49
460.39	10850.72
460.57	10949.03
460.76	11037.97
460.94	11061.37
461.12	10934.98
461.31	10878.81
461.49	10937.32
461.67	11063.71
461.85	11307.13
462.04	11192.44
462.22	11742.47
462.40	11421.81
462.59	11400.75
462.77	11543.52
462.95	11754.17
463.13	11510.75
463.32	11590.33
463.50	11452.24
463.68	11838.43
463.86	11840.77
464.05	11559.91
464.23	11634.80
464.41	11756.51
464.59	11712.04
464.78	12091.21
464.96	12044.40
465.14	11487.35
465.32	11999.93
465.50	12100.57
465.69	12091.21
465.87	12152.06
466.05	12102.91
466.23	11910.99
466.41	12063.12
466.60	12381.43
466.78	12306.54
466.96	12060.78
467.14	12285.47
467.32	12339.30
467.51	12194.19
467.69	12180.15
467.87	12388.46
468.05	12676.34
468.23	12257.39
468.41	12573.36
468.60	12601.44
468.78	12781.67
468.96	12664.64
469.14	12685.70
469.32	12758.26
469.50	12681.02
469.69	12868.27
469.87	12982.95
470.05	13144.45
470.23	12964.23
470.41	13209.98
470.59	13235.73
470.77	13013.38
470.95	13273.18
471.14	13605.53
471.32	13224.03
471.50	13797.46
471.68	13626.60
471.86	13610.22
472.04	13757.67
472.22	13862.99
472.40	13554.04
472.58	13715.54
472.77	13816.18
472.95	14101.73
473.13	14492.60
473.31	14125.13
473.49	13991.72
473.67	13951.93
473.85	14108.75
474.03	14380.25
474.21	14546.43
474.39	14525.36
474.57	14558.13
474.75	14806.23
474.93	15115.18
475.12	15005.17
475.30	14892.83
475.48	14871.76
475.66	15136.24
475.84	15044.96
476.02	15384.34
476.20	15192.42
476.38	15639.46
476.56	15971.82
476.74	15531.80
476.92	15775.21
477.10	15693.29
477.28	16187.14
477.46	16189.49
477.64	16411.84
477.82	16446.94
478.00	16580.36
478.18	16542.91
478.36	16561.63
478.54	17104.64
478.72	17106.98
478.90	17284.86
479.08	17390.18
479.26	17799.77
479.44	17486.14
479.62	17781.05
479.80	17905.10
479.98	18099.36
480.16	18574.49
480.34	18010.42
480.52	18501.93
480.70	18607.26
480.88	18368.52
481.06	18640.03
481.24	18719.60
481.41	18845.99
481.59	19346.87
481.77	19459.21
481.95	19274.31
482.13	19672.20
482.31	19513.05
482.49	20053.71
482.67	20065.41
482.85	20194.14
483.03	20332.23
483.21	20418.83
483.39	21055.46
483.57	20912.69
483.74	21032.05
483.92	21357.39
484.10	21261.43
484.28	21507.18
484.46	22249.13
484.64	22328.71
484.82	21493.14
485.00	22033.80
485.18	22478.50
485.35	22675.11
485.53	22518.29
485.71	23108.11
485.89	23054.28
486.07	23204.07
486.25	23208.75
486.43	23702.61
486.61	23726.01
486.78	23852.40
486.96	24229.23
487.14	24706.70
487.32	24299.44
487.50	24725.42
487.68	24795.64
487.85	25184.16
488.03	25446.30
488.21	25773.98
488.39	25797.38
488.57	25743.55
488.75	25879.30
488.92	26242.09
489.10	26546.36
489.28	26429.33
489.46	27094.04
489.64	27166.60
489.81	27714.28
489.99	27292.99
490.17	27440.44
490.35	27934.29
490.53	27929.61
490.70	28299.42
490.88	28072.39
491.06	28840.08
491.24	28776.89
491.41	29125.63
491.59	29046.05
491.77	28950.09
491.95	29324.57
492.13	29209.89
492.30	30050.14
492.48	29572.67
492.66	30209.29
492.84	29692.04
493.01	30562.72
493.19	30785.07
493.37	30719.53
493.54	31241.47
493.72	31508.29
493.90	30845.92
494.08	31480.21
494.25	31997.46
494.43	31850.01
494.61	32093.43
494.79	32458.55
494.96	32617.71
495.14	32390.67
495.32	32840.06
495.49	33200.50
495.67	33006.23
495.85	33429.87
496.02	34029.05
496.20	34015.01
496.38	34256.08
496.55	34106.29
496.73	34623.54
496.91	34382.47
497.09	34904.41
497.26	34864.62
497.44	34553.33
497.62	35449.75
497.79	35566.78
497.97	34775.68
498.14	35924.88
498.32	36030.21
498.50	36149.57
498.67	36313.41
498.85	36388.31
499.03	36444.48
499.20	36601.30
499.38	37015.57
499.56	36912.59
499.73	37415.80
499.91	36835.35
500.08	37663.90
500.26	36978.12
500.44	37581.98
500.61	37296.44
500.79	37694.33
500.97	37673.26
501.14	38340.32
501.32	38150.73
501.49	38457.34
501.67	38319.25
501.84	38405.85
502.02	38466.70
502.20	38731.18
502.37	38998.01
502.55	39255.46
502.72	39332.70
502.90	39365.47
503.07	39674.42
503.25	39421.64
503.43	39517.60
503.60	40048.91
503.78	39847.62
503.95	40051.25
504.13	40287.64
504.30	40472.54
504.48	40224.45
504.65	40568.51
504.83	40690.21
505.01	41177.04
505.18	40957.03
505.36	41315.14
505.53	40917.25
505.71	41415.78
505.88	41340.88
506.06	40921.93
506.23	41928.36
506.41	41486.00
506.58	42157.73
506.76	41979.85
506.93	42445.62
507.11	42178.79
507.28	42473.70
507.46	42340.29
507.63	42745.20
507.81	43075.22
507.98	42646.90
508.16	42902.02
508.33	43409.92
508.50	43540.99
508.68	43178.20
508.85	43667.37
509.03	43775.04
509.20	43510.56
509.38	44325.07
509.55	44308.68
509.73	44233.78
509.90	44474.86
510.08	44516.99
510.25	44179.95
510.42	44692.53
510.60	44715.93
510.77	44790.83
510.95	45221.49
511.12	45102.12
511.30	45265.96
511.47	45429.80
511.64	45689.60
511.82	45139.57
511.99	45350.22
512.17	45595.98
512.34	45624.06
512.51	46024.29
512.69	46426.87
512.86	46337.93
513.04	46389.42
513.21	46358.99
513.38	46571.98
513.56	46567.30
513.73	46656.24
513.90	46944.12
514.08	46642.20
514.25	47098.60
514.43	47138.39
514.60	47065.83
514.77	46892.63
514.95	47540.96
515.12	47421.59
515.29	47709.48
515.47	47557.35
515.64	47931.83
515.81	47941.19
515.99	47938.85
516.16	48020.77
516.33	48170.57
516.51	48488.88
516.68	48250.14
516.85	47976.30
517.03	48652.72
517.20	48355.47
517.37	48545.05
517.54	48348.45
517.72	48837.62
517.89	49090.40
518.06	49099.76
518.24	48933.58
518.41	49097.42
518.58	49497.65
518.75	49041.24
518.93	49223.81
519.10	49195.72
519.27	49705.96
519.45	49546.80
519.62	49523.40
519.79	49799.58
519.96	49797.24
520.14	49991.50
520.31	49783.19
520.48	50075.76
520.65	50024.27
520.83	50562.59
521.00	50602.38
521.17	50291.09
521.34	50595.36
521.52	50916.01
521.69	50927.72
521.86	50272.37
522.03	50742.81
522.20	50731.11
522.38	51276.46
522.55	51009.64
522.72	50960.48
522.89	51316.25
523.07	51510.51
523.24	51150.07
523.41	51423.91
523.58	51580.73
523.75	51356.03
523.92	51491.79
524.10	51765.63
524.27	51845.21
524.44	51707.12
524.61	51910.74
524.78	52109.69
524.96	51887.34
525.13	52343.74
525.30	52238.42
525.47	52149.48
525.64	52435.02
525.81	52395.23
525.98	52542.69
526.16	52584.82
526.33	52772.06
526.50	52947.60
526.67	52474.81
526.84	52992.07
527.01	52516.94
527.18	52811.85
527.36	52835.25
527.53	52814.19
527.70	53467.20
527.87	53394.64
528.04	52968.66
528.21	53296.34
528.38	53111.44
528.55	53523.37
528.72	53385.28
528.89	53134.84
529.07	53275.27
529.24	53338.47
529.41	53441.45
529.58	53331.45
529.75	53577.20
529.92	53778.49
530.09	53567.84
530.26	53518.69
530.43	54092.12
530.60	53450.81
530.77	53638.06
530.94	53773.81
531.11	53937.65
531.28	53916.58
531.46	53932.96
531.63	53862.75
531.80	54237.23
531.97	53939.99
532.14	54160.00
532.31	54176.38
532.48	54438.52
532.65	54405.75
532.82	54431.50
532.99	54267.66
533.16	54209.15
533.33	54497.03
533.50	54822.37
533.67	54691.30
533.84	54405.75
534.01	54529.80
534.18	55018.97
534.35	54761.51
534.52	54855.14
534.69	55105.57
534.86	55182.81
535.03	54834.07
535.20	55304.52
535.37	55203.88
535.54	54974.50
535.71	55107.91
535.88	55257.71
536.05	55119.62
536.22	55412.18
536.38	55398.14
536.55	55260.05
536.72	55433.25
536.89	55529.21
537.06	55412.18
537.23	55578.36
537.40	55639.22
537.57	55557.30
537.74	55543.25
537.91	55838.16
538.08	55671.98
538.25	55779.65
538.42	55779.65
538.59	55948.17
538.75	55646.24
538.92	55852.20
539.09	56189.24
539.26	55931.78
539.43	55725.81
539.60	56224.35
539.77	56112.00
539.94	56493.51
540.11	55971.57
540.28	56133.07
540.44	56128.39
540.61	56310.95
540.78	56149.45
540.95	56378.82
541.12	56030.08
541.29	56114.34
541.46	56547.34
541.62	56413.93
541.79	56741.61
541.96	56334.35
542.13	56533.30
542.30	56411.59
542.47	56680.75
542.63	56741.61
542.80	56896.08
542.97	57029.49
543.14	57071.62
543.31	57017.79
543.48	56963.96
543.64	57368.87
543.81	57069.28
543.98	56942.89
544.15	57125.46
544.32	57104.39
544.48	57256.53
544.65	57361.85
544.82	57726.97
544.99	57078.64
545.16	57635.69
545.32	57469.51
545.49	57413.34
545.66	57827.62
545.83	57633.35
546.00	57593.56
546.16	57598.24
546.33	57649.74
546.50	57249.50
546.67	57609.95
546.83	57392.28
547.00	57525.69
547.17	57439.09
547.34	57717.61
547.50	57778.46
547.67	57916.56
547.84	57858.04
548.00	57867.40
548.17	58059.33
548.34	58024.22
548.51	58064.01
548.67	57949.32
548.84	58110.82
549.01	57839.32
549.18	58253.59
549.34	58003.16
549.51	58316.79
549.68	58272.32
549.84	58248.91
550.01	58330.83
550.18	58092.10
550.34	58372.96
550.51	58321.47
550.68	58253.59
550.84	58216.14
551.01	58599.99
551.18	58319.13
551.34	58417.43
551.51	58466.58
551.68	58560.20
551.84	58644.46
552.01	58241.89
552.18	58681.91
552.34	58379.98
552.51	58553.18
552.68	58424.45
552.84	58567.23
553.01	58827.02
553.18	58838.73
553.34	58667.87
553.51	58499.35
553.67	58623.40
553.84	58761.49
554.01	58988.52
554.17	58801.28
554.34	58918.31
554.51	58897.24
554.67	58892.56
554.84	59009.59
555.00	58894.90
555.17	59100.87
555.33	59009.59
555.50	58742.77
555.67	58892.56
555.83	58834.05
556.00	59082.14
556.16	59196.83
556.33	59217.89
556.50	58930.01
556.66	59143.00
556.83	58930.01
556.99	59510.46
557.16	59358.33
557.32	59302.15
557.49	59529.19
557.65	59138.32
557.82	59213.21
557.98	59363.01
558.15	59220.23
558.32	59388.75
558.48	59292.79
558.65	59260.02
558.81	59288.11
558.98	59451.95
559.14	59330.24
559.31	59611.10
559.47	59440.24
559.64	59601.74
559.80	59477.69
559.97	59667.28
560.13	59358.33
560.30	59627.49
560.46	59697.70
560.63	59508.12
560.79	59657.91
560.96	59838.14
561.12	59845.16
561.29	59803.03
561.45	59613.44
561.61	59875.58
561.78	59625.15
561.94	59566.63
562.11	59693.02
562.27	59812.39
562.44	59896.65
562.60	59997.29
562.77	59962.18
562.93	59629.83
563.10	59971.55
563.26	59814.73
563.42	60177.51
563.59	59819.41
563.75	59936.44
563.92	59847.50
564.08	60004.31
564.24	60123.68
564.41	60053.47
564.57	60104.96
564.74	59906.01
564.90	59833.46
565.07	59880.27
565.23	59828.77
565.39	60062.83
565.56	60170.49
565.72	59875.58
565.88	60299.22
566.05	60097.94
566.21	60044.10
566.38	60175.17
566.54	59985.59
566.70	60193.90
566.87	60236.03
567.03	60069.85
567.19	60275.82
567.36	60238.37
567.52	59999.63
567.68	60289.86
567.85	60086.23
568.01	60360.08
568.17	60207.94
568.34	60315.61
568.50	60296.88
568.66	60175.17
568.83	60266.45
568.99	60149.43
569.15	60296.88
569.32	60266.45
569.48	60217.30
569.64	60308.58
569.81	60409.23
569.97	60221.98
570.13	60500.51
570.30	60214.96
570.46	60495.83
570.62	60240.71
570.78	60329.65
570.95	60226.66
571.11	60446.68
571.27	60287.52
571.43	60336.67
571.60	60645.62
571.76	60404.55
571.92	60474.76
572.09	60481.78
572.25	60409.23
572.41	60341.35
572.57	60310.92
572.74	60580.09
572.90	60598.81
573.06	60481.78
573.22	60542.64
573.38	60477.10
573.55	60374.12
573.71	60645.62
573.87	60406.89
574.03	60521.57
574.20	60610.51
574.36	60615.19
574.52	60589.45
574.68	60500.51
574.84	60582.43
575.01	60743.92
575.17	60568.38
575.33	60348.37
575.49	60514.55
575.65	60669.03
575.82	60732.22
575.98	60612.85
576.14	60844.57
576.30	60587.11
576.46	60685.41
576.62	60547.32
576.79	60432.63
576.95	60610.51
577.11	60601.15
577.27	60633.92
577.43	60760.31
577.59	60640.94
577.75	60390.50
577.92	60662.00
578.08	60692.43
578.24	60680.73
578.40	60954.57
578.56	60795.42
578.72	60790.73
578.88	60893.72
579.04	60867.97
579.21	60818.82
579.37	60788.39
579.53	60882.02
579.69	60605.83
579.85	60772.01
580.01	60671.37
580.17	60584.77
580.33	60711.16
580.49	61015.43
580.65	60795.42
580.82	60673.71
580.98	60645.62
581.14	60816.48
581.30	60860.95
581.46	60879.67
581.62	60626.90
581.78	60467.74
581.94	60809.46
582.10	60900.74
582.26	60795.42
582.42	60722.86
582.58	60790.73
582.74	60832.86
582.90	60793.07
583.06	60877.33
583.22	60741.58
583.38	60809.46
583.54	61087.98
583.70	60753.29
583.86	61017.77
584.02	60715.84
584.18	60767.33
584.34	60715.84
584.50	60938.19
584.66	60652.64
584.82	60842.23
584.98	60996.70
585.14	61062.24
585.30	60666.69
585.46	60882.02
585.62	60795.42
585.78	60999.04
585.94	60638.60
586.10	61066.92
586.26	60790.73
586.42	60977.98
586.58	61078.62
586.74	60973.30
586.90	60898.40
587.06	60769.67
587.22	60968.61
587.38	60823.50
587.54	60907.76
587.70	60982.66
587.86	60926.49
588.02	60860.95
588.18	61099.68
588.34	60797.76
588.49	60966.27
588.65	60914.78
588.81	61080.96
588.97	60977.98
589.13	61104.37
589.29	61125.43
589.45	61052.87
589.61	61106.71
589.77	61207.35
589.93	61130.11
590.08	61125.43
590.24	61214.37
590.40	61102.03
590.56	61284.59
590.72	61329.06
590.88	61172.24
591.04	61064.58
591.20	61279.91
591.35	61153.52
591.51	61570.13
591.67	61153.52
591.83	61368.85
591.99	61389.91
592.15	61190.97
592.31	61352.46
592.46	61312.67
592.62	61263.52
592.78	61282.25
592.94	61439.06
593.10	61237.78
593.26	61284.59
593.41	61315.01
593.57	61422.68
593.73	61357.14
593.89	61532.68
594.05	61450.77
594.20	61286.93
594.36	61539.71
594.52	61427.36
594.68	61401.61
594.84	61413.32
594.99	61399.27
595.15	61371.19
595.31	61441.40
595.47	61359.48
595.62	61520.98
595.78	61338.42
595.94	61464.81
596.10	61647.37
596.25	61436.72
596.41	61621.62
596.57	61329.06
596.73	61769.08
596.88	61425.02
597.04	61471.83
597.20	61535.02
597.36	61579.49
597.51	61701.20
597.67	61368.85
597.83	61207.35
597.99	61628.65
598.14	61574.81
598.30	61535.02
598.46	61434.38
598.61	61469.49
598.77	61567.79
598.93	61525.66
599.09	61609.92
599.24	61829.93
599.40	61755.03
599.56	61799.50
599.71	61825.25
599.87	61815.89
600.03	61652.05
600.18	61666.09
600.34	61584.18
600.50	61600.56
600.65	61460.13
600.81	61577.15
600.97	61820.57
601.12	61525.66
601.28	61408.64
601.44	61504.60
601.59	61570.13
601.75	61483.53
601.91	61759.72
602.06	61729.29
602.22	61815.89
602.37	61691.84
602.53	61670.78
602.69	61602.90
602.84	61462.47
603.00	61626.31
603.16	61738.65
603.31	61717.59
603.47	61750.35
603.62	61675.46
603.78	61778.44
603.94	61577.15
604.09	61752.69
604.25	61722.27
604.40	61642.69
604.56	61783.12
604.71	61689.50
604.87	61488.21
605.03	61574.81
605.18	61666.09
605.34	61462.47
605.49	61530.34
605.65	61794.82
605.80	61572.47
605.96	61862.70
606.12	61689.50
606.27	61729.29
606.43	61719.93
606.58	61776.10
606.74	61506.94
606.89	61530.34
607.05	61841.63
607.20	61907.17
607.36	61371.19
607.51	61488.21
607.67	61305.65
607.82	61336.08
607.98	61523.32
608.13	61682.48
608.29	61659.07
608.44	61638.01
608.60	61403.95
608.75	61542.05
608.91	61446.08
609.06	61427.36
609.22	61577.15
609.37	61331.40
609.53	61516.30
609.68	61588.86
609.84	61499.92
609.99	61293.95
610.15	61684.82
610.30	61359.48
610.46	61373.53
610.61	61380.55
610.76	61549.07
610.92	61427.36
611.07	61464.81
611.23	61420.34
611.38	61502.26
611.54	61291.61
611.69	61410.98
611.84	61549.07
612.00	61387.57
612.15	61165.22
612.31	61425.02
612.46	61214.37
612.62	61420.34
612.77	61375.87
612.92	61476.51
613.08	61282.25
613.23	61361.82
613.39	61247.14
613.54	61148.84
613.69	61141.81
613.85	61497.58
614.00	61654.39
614.15	61546.73
614.31	61392.25
614.46	61305.65
614.62	61200.33
614.77	61347.78
614.92	61268.20
615.08	61090.32
615.23	61209.69
615.38	61340.76
615.54	60893.72
615.69	61183.94
615.84	61090.32
616.00	61340.76
616.15	61226.07
616.30	61116.07
616.46	61153.52
616.61	61300.97
616.76	61219.05
616.92	61078.62
617.07	60970.96
617.22	61186.28
617.37	60849.25
617.53	61188.63
617.68	61235.44
617.83	61109.05
617.99	61036.49
618.14	61057.56
618.29	61123.09
618.45	60949.89
618.60	60949.89
618.75	60844.57
618.90	60942.87
619.06	61043.51
619.21	61087.98
619.36	61186.28
619.51	61041.17
619.67	61010.74
619.82	60924.14
619.97	60968.61
620.12	60935.85
620.28	60914.78
620.43	60846.91
620.58	61092.66
620.73	60713.50
620.89	60963.93
621.04	60992.02
621.19	60907.76
621.34	60811.80
621.49	60715.84
621.65	60795.42
621.80	60968.61
621.95	60549.66
622.10	60760.31
622.25	60720.52
622.41	60870.31
622.56	60711.16
622.71	60678.39
622.86	60568.38
623.01	60666.69
623.16	60502.85
623.32	60757.97
623.47	60739.24
623.62	60837.54
623.77	60718.18
623.92	60811.80
624.07	60788.39
624.23	60669.03
624.38	60772.01
624.53	60577.75
624.68	60563.70
624.83	60629.24
624.98	60587.11
625.13	60521.57
625.29	60580.09
625.44	60453.70
625.59	60369.44
625.74	60458.38
625.89	60308.58
626.04	60268.79
626.19	60406.89
626.34	60472.42
626.49	60275.82
626.65	60278.16
626.80	60395.18
626.95	60308.58
627.10	60221.98
627.25	60184.54
627.40	60175.17
627.55	60451.36
627.70	60207.94
627.85	60123.68
628.00	60025.38
628.15	60088.57
628.30	60006.65
628.45	60285.18
628.60	60023.04
628.76	60207.94
628.91	60198.58
629.06	60013.68
629.21	60062.83
629.36	60016.02
629.51	60074.53
629.66	60128.36
629.81	59978.57
629.96	60039.42
630.11	59915.37
630.26	60051.12
630.41	60135.38
630.56	60130.70
630.71	60018.36
630.86	60013.68
631.01	59920.05
631.16	59997.29
631.31	59833.46
631.46	59842.82
631.61	59760.90
631.76	59931.76
631.91	60109.64
632.06	59842.82
632.21	59882.61
632.36	59674.30
632.51	59571.32
632.66	59686.00
632.81	59587.70
632.96	59568.97
633.10	59648.55
633.25	59683.66
633.40	59751.54
633.55	59875.58
633.70	59571.32
633.85	59704.73
634.00	59545.57
634.15	59461.31
634.30	59648.55
634.45	59732.81
634.60	59650.89
634.75	59693.02
634.90	59423.86
635.05	59512.80
635.19	59391.09
635.34	59386.41
635.49	59437.90
635.64	59475.35
635.79	59465.99
635.94	59601.74
636.09	59323.22
636.24	59311.52
636.39	59419.18
636.53	59529.19
636.68	59384.07
636.83	59412.16
636.98	59407.48
637.13	59231.94
637.28	59480.03
637.43	59545.57
637.57	59384.07
637.72	59213.21
637.87	59185.13
638.02	59264.70
638.17	59461.31
638.32	59519.82
638.46	59203.85
638.61	59599.40
638.76	59103.21
638.91	59306.83
639.06	58986.18
639.20	59100.87
639.35	58796.60
639.50	59079.80
639.65	59260.02
639.80	59171.08
639.94	59105.55
640.09	59072.78
640.24	58995.54
640.39	59014.27
640.54	59037.67
640.68	59065.76
640.83	59002.56
640.98	58803.62
641.13	58873.84
641.27	59208.53
641.42	58904.26
641.57	59014.27
641.72	58850.43
641.86	58843.41
642.01	58782.55
642.16	58674.89
642.31	58883.20
642.45	59119.59
642.60	58965.12
642.75	59072.78
642.90	58808.30
643.04	58857.45
643.19	58571.91
643.34	58927.67
643.48	58740.42
643.63	58836.39
643.78	58695.95
643.93	58440.84
644.07	58429.13
644.22	58365.94
644.37	58436.16
644.51	58562.54
644.66	58504.03
644.81	58443.18
644.95	58370.62
645.10	58485.31
645.25	58415.09
645.39	58344.87
645.54	58588.29
645.69	58398.71
645.83	58473.60
645.98	58497.01
646.13	58394.03
646.27	58485.31
646.42	58234.87
646.57	58326.15
646.71	58536.80
646.86	58506.37
647.00	58351.90
647.15	58269.98
647.30	58260.62
647.44	58099.12
647.59	58419.77
647.74	58321.47
647.88	58461.90
648.03	58553.18
648.17	58326.15
648.32	58099.12
648.47	58368.28
648.61	58286.36
648.76	58335.51
648.90	58120.18
649.05	58094.44
649.20	58155.29
649.34	58241.89
649.49	58333.17
649.63	58419.77
649.78	58473.60
649.92	58096.78
650.07	58181.04
650.21	58026.56
650.36	58085.07
650.51	57729.31
650.65	58159.97
650.80	58232.53
650.94	57970.39
651.09	57858.04
651.23	57642.71
651.38	57972.73
651.52	57687.18
651.67	57696.55
651.81	57834.64
651.96	57895.49
652.10	57858.04
652.25	57946.98
652.39	57956.35
652.54	57736.34
652.68	57616.97
652.83	57530.37
652.97	57925.92
653.12	57619.31
653.26	57794.85
653.41	57928.26
653.55	57523.35
653.70	57567.82
653.84	57757.40
653.99	57560.79
654.13	57588.88
654.27	57656.76
654.42	57256.53
654.56	57521.01
654.71	57633.35
654.85	57485.90
655.00	57790.17
655.14	57413.34
655.29	57310.36
655.43	57443.77
655.57	57385.25
655.72	57558.45
655.86	57450.79
656.01	57429.72
656.15	57333.76
656.30	57291.63
656.44	57682.50
656.58	57420.36
656.73	57317.38
656.87	57289.29
657.01	57347.81
657.16	57425.04
657.30	57113.75
657.45	57230.78
657.59	57237.80
657.73	57017.79
657.88	56882.04
658.02	56989.70
658.16	57296.31
658.31	56924.17
658.45	56966.30
658.60	57050.56
658.74	57221.42
658.88	56982.68
659.03	56690.12
659.17	56846.93
659.31	56963.96
659.46	56912.47
659.60	57092.69
659.74	56846.93
659.89	56488.83
660.03	56666.71
660.17	56898.42
660.32	56556.70
660.46	56753.31
660.60	56657.35
660.74	56783.74
660.89	56882.04
661.03	56596.49
661.17	56231.37
661.32	56343.72
661.46	56411.59
661.60	56259.46
661.74	56058.17
661.89	56203.28
662.03	56027.74
662.17	55973.91
662.31	56020.72
662.46	56184.56
662.60	55997.32
662.74	55992.64
662.88	56006.68
663.03	55948.17
663.17	55903.70
663.31	55903.70
663.45	56027.74
663.60	55721.13
663.74	55739.86
663.88	55543.25
664.02	55693.05
664.17	55821.78
664.31	55573.68
664.45	55653.26
664.59	55580.70
664.73	55784.33
664.88	55482.40
665.02	55363.03
665.16	55599.43
665.30	55278.77
665.44	55571.34
665.59	55227.28
665.73	55585.38
665.87	55166.43
666.01	55133.66
666.15	55051.74
666.29	55206.22
666.44	55119.62
666.58	54948.76
666.72	54468.95
666.86	54789.60
667.00	54925.35
667.14	54625.76
667.28	54752.15
667.43	54571.93
667.57	54684.28
667.71	54396.39
667.85	54581.29
667.99	54618.74
668.13	54539.16
668.27	54321.49
668.41	54398.73
668.56	54136.59
668.70	53820.62
668.84	53944.67
668.98	54024.25
669.12	54045.31
669.26	53975.09
669.40	54066.38
669.54	54160.00
669.68	54143.61
669.82	53975.09
669.96	54012.54
670.10	53993.82
670.25	54082.76
670.39	53661.46
670.53	53764.45
670.67	53602.95
670.81	53804.24
670.95	53670.82
671.09	53212.08
671.23	53354.85
671.37	53350.17
671.51	53123.14
671.65	53279.96
671.79	53324.43
671.93	53081.01
672.07	53116.12
672.21	52996.75
672.35	52893.77
672.49	52493.54
672.63	52601.20
672.77	52626.95
672.91	52718.23
673.05	52348.42
673.19	52626.95
673.33	52278.21
673.47	52011.38
673.61	52458.43
673.75	52037.13
673.89	51786.69
674.03	52034.79
674.17	51863.93
674.31	51824.14
674.45	51714.14
674.59	51646.26
674.73	51735.20
674.87	51812.44
675.01	51489.45
675.15	51370.08
675.29	51531.57
675.43	51365.40
675.56	51262.41
675.70	51168.79
675.84	50653.87
675.98	49593.61
676.12	50649.19
676.26	50829.41
676.40	50246.62
676.54	50539.19
676.68	50424.50
676.82	50230.24
676.96	50094.49
677.10	50309.82
677.23	49930.65
677.37	50073.42
677.51	49511.69
677.65	49457.86
677.79	48790.81
677.93	49031.88
678.07	48861.02
678.21	48692.50
678.34	48849.32
678.48	48973.37
678.62	48570.80
678.76	48786.13
678.90	48378.87
679.04	48430.36
679.18	48402.28
679.31	47887.36
679.45	47714.16
679.59	47999.71
679.73	47782.04
679.87	47356.06
680.00	47325.63
680.14	47023.70
680.28	47255.42
680.42	47180.52
680.56	46518.15
680.70	46356.65
680.83	46567.30
680.97	46611.77
681.11	46674.96
681.25	46136.64
681.39	45713.00
681.52	45778.54
681.66	46134.30
681.80	45750.45
681.94	45490.65
682.07	45668.53
682.21	45329.16
682.35	45500.01
682.49	45020.20
682.62	44982.76
682.76	45015.52
682.90	45336.18
683.04	44957.01
683.17	44245.49
683.31	44130.80
683.45	44051.22
683.59	44076.97
683.72	43709.50
683.86	43885.04
684.00	44100.37
684.13	44098.03
684.27	43634.61
684.41	43445.02
684.55	43147.78
684.68	43526.94
684.82	42822.44
684.96	42279.44
685.09	42541.58
685.23	42265.39
685.37	42021.98
685.50	42148.37
685.64	42000.91
685.78	41991.55
685.91	41823.03
686.05	41680.26
686.19	41083.42
686.32	41298.75
686.46	40952.35
686.60	40898.52
686.73	40514.67
686.87	40418.71
687.01	40762.77
687.14	40814.26
687.28	39758.68
687.42	39864.00
687.55	40016.14
687.69	40187.00
687.82	39611.23
687.96	39143.12
688.10	39487.18
688.23	39323.34
688.37	39173.55
688.50	38705.44
688.64	38880.98
688.78	38653.95
688.91	37895.61
689.05	38557.99
689.18	38195.20
689.32	37528.15
689.46	37488.36
689.59	37418.14
689.73	37462.61
689.86	37455.59
690.00	37031.96
690.13	37361.97
690.27	37226.22
690.41	37408.78
690.54	37244.94
690.68	36718.32
690.81	36858.76
690.95	36034.89
691.08	36266.60
691.22	36030.21
691.35	36254.90
691.49	36238.51
691.62	35999.78
691.76	35557.42
691.89	35049.52
692.03	35253.15
692.16	35716.58
692.30	35161.87
692.43	35377.20
692.57	34766.32
692.70	34405.88
692.84	34354.38
692.97	34181.18
693.11	34384.81
693.24	33780.95
693.38	33940.11
693.51	33280.08
693.65	33631.16
693.78	33003.89
693.92	33397.10
694.05	32971.13
694.19	33256.67
694.32	32673.88
694.45	33003.89
694.59	32659.84
694.72	32329.82
694.86	32177.68
694.99	31995.12
695.13	32091.09
695.26	31763.41
695.39	31417.01
695.53	31442.76
695.66	31590.21
695.80	31496.59
695.93	30803.79
696.07	30820.17
696.20	30408.24
696.33	30302.92
696.47	30492.50
696.60	30656.34
696.73	30354.41
696.87	29757.57
697.00	29963.54
697.14	30209.29
697.27	30281.85
697.40	29450.96
697.54	29259.04
697.67	29303.51
697.80	29137.33
697.94	29198.18
698.07	29177.12
698.21	28950.09
698.34	28922.00
698.47	28783.91
698.61	28507.72
698.74	28343.89
698.87	28102.81
699.01	27681.52
699.14	28329.84
699.27	28051.32
699.40	27765.78
699.54	28095.79
699.67	27524.70
699.80	27253.20
699.94	27400.65
700.07	27211.07
700.20	26719.56
700.34	26682.11
700.47	26335.71
700.60	26026.76
700.73	26181.23
700.87	25846.54
701.00	25989.31
701.13	25654.61
701.26	25710.78
701.40	26066.55
701.53	25656.95
701.66	25706.10
701.79	25198.21
701.93	24933.73
702.06	24863.51
702.19	25020.33
702.32	25020.33
702.46	24844.79
702.59	24414.13
702.72	24315.83
702.85	24130.92
702.99	24243.27
703.12	24348.59
703.25	23878.15
703.38	23690.90
703.51	23578.56
703.65	23152.58
703.78	23377.27
703.91	22988.74
704.04	23021.51
704.17	23253.22
704.31	22747.67
704.44	22775.75
704.57	22389.56
704.70	22382.54
704.83	22291.26
704.96	22445.74
705.10	22132.11
705.23	22066.57
>>>>>End Processed Spectral Data<<<<<
