SpectraSuite Data File
++++++++++++++++++++++++++++++++++++
Date: Fri Oct 25 10:47:12 EDT 2013
User: price-jones
Dark Spectrum Present: No
Reference Spectrum Present: No
Number of Sampled Component Spectra: 1
Spectrometers: USB2+H05261
Integration Time (usec): 100000 (USB2+H05261)
Spectra Averaged: 1 (USB2+H05261)
Boxcar Smoothing: 0 (USB2+H05261)
Correct for Electrical Dark: No (USB2+H05261)
Strobe/Lamp Enabled: No (USB2+H05261)
Correct for Detector Non-linearity: No (USB2+H05261)
Correct for Stray Light: No (USB2+H05261)
Number of Pixels in Processed Spectrum: 2048
>>>>>Begin Processed Spectral Data<<<<<
365.73	131.07
365.92	131.07
366.12	131.07
366.32	7.02
366.52	0.00
366.72	119.37
366.91	98.30
367.11	88.94
367.31	32.77
367.51	42.13
367.70	0.00
367.90	23.41
368.10	46.81
368.30	53.83
368.49	25.75
368.69	28.09
368.89	95.96
369.09	0.00
369.28	46.81
369.48	95.96
369.68	84.26
369.87	100.64
370.07	98.30
370.27	119.37
370.47	189.58
370.66	344.06
370.86	444.70
371.06	470.45
371.25	454.06
371.45	433.00
371.65	477.47
371.84	477.47
372.04	430.66
372.24	418.96
372.44	428.32
372.63	435.34
372.83	444.70
373.03	507.90
373.22	428.32
373.42	517.26
373.62	472.79
373.81	526.62
374.01	573.43
374.21	493.85
374.40	470.45
374.60	505.56
374.79	561.73
374.99	594.50
375.19	521.94
375.38	510.24
375.58	624.92
375.78	638.97
375.97	587.47
376.17	580.45
376.37	517.26
376.56	580.45
376.76	531.30
376.95	470.45
377.15	526.62
377.35	535.98
377.54	503.22
377.74	566.41
377.93	653.01
378.13	589.82
378.33	636.63
378.52	594.50
378.72	631.94
378.91	617.90
379.11	629.60
379.31	599.18
379.50	624.92
379.70	627.26
379.89	631.94
380.09	636.63
380.28	587.47
380.48	578.11
380.68	669.39
380.87	617.90
381.07	638.97
381.26	660.03
381.46	564.07
381.65	653.01
381.85	608.54
382.04	655.35
382.24	746.63
382.43	697.48
382.63	629.60
382.83	681.10
383.02	751.31
383.22	692.80
383.41	706.84
383.61	713.86
383.80	755.99
384.00	592.16
384.19	688.12
384.39	767.70
384.58	751.31
384.78	779.40
384.97	732.59
385.17	777.06
385.36	772.38
385.56	828.55
385.75	720.88
385.95	723.23
386.14	755.99
386.34	706.84
386.53	751.31
386.72	688.12
386.92	793.44
387.11	809.83
387.31	716.20
387.50	840.25
387.70	840.25
387.89	866.00
388.09	840.25
388.28	856.64
388.48	868.34
388.67	898.77
388.86	786.42
389.06	861.32
389.25	849.61
389.45	926.85
389.64	905.79
389.84	851.96
390.03	842.59
390.22	823.87
390.42	802.80
390.61	884.72
390.81	870.68
391.00	945.58
391.19	954.94
391.39	985.37
391.58	922.17
391.78	954.94
391.97	952.60
392.16	985.37
392.36	1046.22
392.55	926.85
392.75	1001.75
392.94	933.87
393.13	898.77
393.33	945.58
393.52	990.05
393.71	999.41
393.91	1004.09
394.10	1018.13
394.29	1060.26
394.49	1071.97
394.68	1057.92
394.88	1022.81
395.07	1144.52
395.26	1146.86
395.46	1121.12
395.65	1104.73
395.84	992.39
396.04	1181.97
396.23	1022.81
396.42	1048.56
396.62	1149.20
396.81	1074.31
397.00	1067.28
397.19	1165.59
397.39	1196.01
397.58	1151.54
397.77	1121.12
397.97	1191.33
398.16	1263.89
398.35	1280.27
398.55	1263.89
398.74	1301.34
398.93	1348.15
399.12	1350.49
399.32	1378.58
399.51	1320.06
399.70	1341.13
399.90	1219.42
400.09	1362.19
400.28	1439.43
400.47	1320.06
400.67	1401.98
400.86	1551.78
401.05	1315.38
401.24	1387.94
401.44	1490.92
401.63	1511.99
401.82	1488.58
402.01	1383.26
402.21	1423.05
402.40	1427.73
402.59	1385.60
402.78	1511.99
402.97	1514.33
403.17	1511.99
403.36	1570.50
403.55	1556.46
403.74	1689.87
403.93	1584.54
404.13	1589.22
404.32	1558.80
404.51	1561.14
404.70	1729.66
404.89	1652.42
405.09	1645.40
405.28	1680.50
405.47	1736.68
405.66	1673.48
405.85	1666.46
406.05	1678.16
406.24	1732.00
406.43	1778.81
406.62	1643.06
406.81	1816.26
407.00	1736.68
407.20	1689.87
407.39	1755.40
407.58	1816.26
407.77	1830.30
407.96	1893.49
408.15	1952.01
408.34	1813.92
408.54	1952.01
408.73	2071.37
408.92	1888.81
409.11	1902.86
409.30	1928.60
409.49	1994.14
409.68	2038.61
409.87	2029.24
410.07	2069.03
410.26	2132.23
410.45	2073.71
410.64	2092.44
410.83	2101.80
411.02	2129.89
411.21	2160.31
411.40	2141.59
411.59	2293.72
411.78	2172.02
411.98	2193.08
412.17	2277.34
412.36	2307.77
412.55	2253.94
412.74	2291.38
412.93	2349.90
413.12	2331.17
413.31	2541.82
413.50	2408.41
413.69	2434.16
413.88	2427.14
414.07	2560.55
414.26	2495.01
414.45	2532.46
414.64	2520.76
414.83	2663.53
415.02	2628.42
415.22	2649.49
415.41	2696.30
415.60	2651.83
415.79	2724.38
415.98	2750.13
416.17	2759.49
416.36	2904.60
416.55	2794.60
416.74	2855.45
416.93	2801.62
417.12	2775.88
417.31	2803.96
417.50	2923.33
417.69	2920.99
417.88	3000.57
418.07	3012.27
418.26	3016.95
418.45	3077.80
418.64	3087.17
418.83	3068.44
419.02	3056.74
419.21	3173.77
419.39	3171.43
419.58	3183.13
419.77	3075.46
419.96	3124.62
420.15	3115.25
420.34	3204.19
420.53	3325.90
420.72	3241.64
420.91	3143.34
421.10	3222.92
421.29	3447.61
421.48	3286.11
421.67	3311.86
421.86	3297.81
422.05	3424.20
422.24	3375.05
422.43	3449.95
422.61	3321.22
422.80	3487.40
422.99	3447.61
423.18	3487.40
423.37	3543.57
423.56	3510.80
423.75	3426.54
423.94	3438.25
424.13	3321.22
424.32	3307.18
424.50	3435.91
424.69	3466.33
424.88	3599.74
425.07	3389.10
425.26	3424.20
425.45	3400.80
425.64	3410.16
425.83	3389.10
426.01	3527.19
426.20	3412.50
426.39	3595.06
426.58	3414.84
426.77	3449.95
426.96	3480.38
427.15	3515.48
427.33	3552.93
427.52	3522.51
427.71	3557.61
427.90	3581.02
428.09	3744.86
428.28	3693.37
428.46	3618.47
428.65	3761.24
428.84	3920.40
429.03	3819.75
429.22	3681.66
429.40	3758.90
429.59	3763.58
429.78	3679.32
429.97	3714.43
430.16	3716.77
430.34	3719.11
430.53	3845.50
430.72	3810.39
430.91	3852.52
431.10	3768.26
431.28	3908.69
431.47	3990.61
431.66	4121.68
431.85	4107.64
432.03	4049.13
432.22	4250.41
432.41	4114.66
432.60	3892.31
432.79	4032.74
432.97	4236.37
433.16	4177.86
433.35	4067.85
433.54	3995.29
433.72	4147.43
433.91	4102.96
434.10	4170.83
434.28	4262.12
434.47	4154.45
434.66	4414.25
434.85	4285.52
435.03	4353.40
435.22	4222.33
435.41	4479.79
435.59	4428.29
435.78	4526.60
435.97	4414.25
436.16	4468.08
436.34	4447.02
436.53	4608.51
436.72	4734.90
436.90	4297.22
437.09	4512.55
437.28	4432.97
437.46	4514.89
437.65	4622.56
437.84	4575.75
438.02	4655.33
438.21	4547.66
438.40	4514.89
438.58	4641.28
438.77	4833.21
438.96	4999.38
439.14	4968.96
439.33	4964.28
439.52	4947.89
439.70	4947.89
439.89	5074.28
440.08	5055.56
440.26	4894.06
440.45	4990.02
440.63	5170.24
440.82	5245.14
441.01	5198.33
441.19	5123.43
441.38	5275.57
441.57	5095.35
441.75	5273.23
441.94	5598.56
442.12	5483.88
442.31	5680.48
442.50	5636.01
442.68	5645.37
442.87	5551.75
443.05	5591.54
443.24	5640.69
443.43	5565.79
443.61	5631.33
443.80	5760.06
443.98	5373.87
444.17	5416.00
444.35	5722.61
444.54	5802.19
444.73	5682.82
444.91	5738.99
445.10	5675.80
445.28	5738.99
445.47	5753.04
445.65	5626.65
445.84	5682.82
446.02	5727.29
446.21	5748.36
446.39	5781.12
446.58	5774.10
446.77	5771.76
446.95	5731.97
447.14	5764.74
447.32	5926.24
447.51	5776.44
447.69	5701.54
447.88	5783.46
448.06	5841.98
448.25	5940.28
448.43	5818.57
448.62	5886.45
448.80	5621.97
448.99	6024.54
449.17	6078.37
449.36	5914.53
449.54	6033.90
449.73	6029.22
449.91	6083.05
450.10	6258.59
450.28	6380.30
450.46	6284.34
450.65	6347.53
450.83	6342.85
451.02	6157.95
451.20	6279.66
451.39	6251.57
451.57	6399.02
451.76	6249.23
451.94	6244.55
452.13	6087.73
452.31	6195.40
452.49	6225.82
452.68	6471.58
452.86	6176.67
453.05	6499.67
453.23	6499.67
453.42	6382.64
453.60	6384.98
453.78	6473.92
453.97	6576.91
454.15	6509.03
454.34	6553.50
454.52	6506.69
454.70	6478.60
454.89	6637.76
455.07	6616.69
455.26	6780.53
455.44	6757.13
455.62	6733.72
455.81	6789.89
455.99	6785.21
456.17	6843.73
456.36	6904.58
456.54	6892.88
456.73	6993.52
456.91	7143.32
457.09	7021.61
457.28	7297.79
457.46	7084.80
457.64	7138.63
457.83	7215.87
458.01	6909.26
458.19	7166.72
458.38	7077.78
458.56	7180.76
458.74	7267.36
458.93	7339.92
459.11	7461.63
459.29	7293.11
459.48	7349.28
459.66	7358.64
459.84	7344.60
460.03	7494.40
460.21	7508.44
460.39	7515.46
460.57	7541.21
460.76	7585.68
460.94	7623.12
461.12	7744.83
461.31	7688.66
461.49	7791.64
461.67	7637.17
461.85	7878.24
462.04	7648.87
462.22	8184.85
462.40	7754.19
462.59	7662.91
462.77	7843.14
462.95	7782.28
463.13	7894.63
463.32	7990.59
463.50	7990.59
463.68	8100.59
463.86	7913.35
464.05	7882.92
464.23	7880.58
464.41	7920.37
464.59	7985.91
464.78	8205.92
464.96	8126.34
465.14	8072.51
465.32	8060.80
465.50	8271.45
465.69	8154.43
465.87	8182.51
466.05	8163.79
466.23	8215.28
466.41	8180.17
466.60	8203.58
466.78	8187.19
466.96	8332.31
467.14	8381.46
467.32	8351.03
467.51	8336.99
467.69	8236.35
467.87	8624.87
468.05	8367.42
468.23	8224.64
468.41	8386.14
468.60	8311.24
468.78	8297.20
468.96	8196.56
469.14	8606.15
469.32	8695.09
469.50	8353.37
469.69	8711.47
469.87	8629.56
470.05	8786.37
470.23	8805.10
470.41	8688.07
470.59	8901.06
470.77	8772.33
470.95	8926.80
471.14	9107.02
471.32	8957.23
471.50	9046.17
471.68	9088.30
471.86	9090.64
472.04	9109.36
472.22	9329.38
472.40	9298.95
472.58	9273.20
472.77	9277.88
472.95	9320.01
473.13	9703.86
473.31	9280.22
473.49	9621.94
473.67	9661.73
473.85	9432.36
474.03	9825.57
474.21	9762.37
474.39	9853.66
474.57	9802.16
474.75	9806.84
474.93	9888.76
475.12	9893.44
475.30	9977.70
475.48	9846.63
475.66	10045.58
475.84	10139.20
476.02	10281.97
476.20	10279.63
476.38	10221.12
476.56	10420.06
476.74	10684.55
476.92	10532.41
477.10	10574.54
477.28	10745.40
477.46	10600.29
477.64	10920.94
477.82	10963.07
478.00	11227.55
478.18	11140.95
478.36	11171.38
478.54	11307.13
478.72	11421.81
478.90	11529.48
479.08	11679.27
479.26	11730.76
479.44	11646.51
479.62	11705.02
479.80	11810.34
479.98	11892.26
480.16	12407.18
480.34	12149.72
480.52	12320.58
480.70	12318.24
480.88	12280.79
481.06	12423.56
481.24	12376.75
481.41	12587.40
481.59	12784.01
481.77	12589.74
481.95	12709.11
482.13	13050.83
482.31	12999.34
482.49	13277.86
482.67	13469.78
482.85	13422.97
483.03	13458.08
483.21	13561.06
483.39	13724.90
483.57	13802.14
483.74	13743.63
483.92	13949.59
484.10	13813.84
484.28	13877.04
484.46	14197.69
484.64	14658.78
484.82	14373.23
485.00	14628.35
485.18	14714.95
485.35	14920.92
485.53	14703.25
485.71	14808.57
485.89	15367.96
486.07	14712.61
486.25	15173.69
486.43	15414.77
486.61	15569.24
486.78	15426.47
486.96	15712.02
487.14	16037.35
487.32	16194.17
487.50	15964.79
487.68	16334.60
487.85	16498.44
488.03	16622.48
488.21	16807.39
488.39	16671.64
488.57	16865.90
488.75	17057.82
488.92	17441.67
489.10	17362.09
489.28	17355.07
489.46	17774.03
489.64	17247.41
489.81	18015.10
489.99	17851.27
490.17	18211.71
490.35	18279.58
490.53	18429.38
490.70	18342.78
490.88	18562.79
491.06	18841.31
491.24	18794.50
491.41	18892.80
491.59	18848.33
491.77	18611.94
491.95	19154.94
492.13	19302.40
492.30	19307.08
492.48	19508.37
492.66	19810.29
492.84	19681.56
493.01	19894.55
493.19	19887.53
493.37	19978.81
493.54	20336.91
493.72	20229.25
493.90	20287.76
494.08	20659.91
494.25	20786.30
494.43	21034.39
494.61	20697.36
494.79	20975.88
494.96	21142.06
495.14	21165.46
495.32	21364.41
495.49	21324.62
495.67	21659.32
495.85	21558.67
496.02	21570.38
496.20	21816.13
496.38	22026.78
496.55	22216.36
496.73	22628.30
496.91	22101.68
497.09	22483.19
497.26	22775.75
497.44	22754.69
497.62	23056.62
497.79	23007.47
497.97	23028.53
498.14	22958.31
498.32	23068.32
498.50	23250.88
498.67	23765.80
498.85	23232.16
499.03	23531.75
499.20	23463.87
499.38	23880.49
499.56	23885.17
499.73	23962.40
499.91	23924.96
500.08	24091.13
500.26	24156.67
500.44	24049.00
500.61	24451.58
500.79	24315.83
500.97	24573.28
501.14	24432.85
501.32	24882.24
501.49	24727.76
501.67	24545.20
501.84	25481.41
502.02	24819.04
502.20	25504.82
502.37	25209.91
502.55	25017.99
502.72	25427.58
502.90	25493.12
503.07	25357.36
503.25	25656.95
503.43	25846.54
503.60	25811.43
503.78	25778.66
503.95	25820.79
504.13	25853.56
504.30	26010.37
504.48	25956.54
504.65	26024.42
504.83	26389.54
505.01	26677.43
505.18	26412.95
505.36	26850.63
505.53	26647.00
505.71	26869.35
505.88	27232.13
506.06	26630.62
506.23	26604.87
506.41	27150.21
506.58	27356.18
506.76	27468.53
506.93	27681.52
507.11	27503.64
507.28	27440.44
507.46	27468.53
507.63	27400.65
507.81	27569.17
507.98	27637.05
508.16	27990.47
508.33	28034.94
508.50	28299.42
508.68	28180.05
508.85	28257.29
509.03	28306.44
509.20	28589.64
509.38	28608.37
509.55	28678.58
509.73	28666.88
509.90	28425.81
510.08	28673.90
510.25	28753.48
510.42	28982.85
510.60	28982.85
510.77	29582.03
510.95	29130.31
511.12	29165.42
511.30	29200.52
511.47	29876.94
511.64	29605.44
511.82	29631.18
511.99	29502.45
512.17	29535.22
512.34	29584.37
512.51	30087.59
512.69	30008.01
512.86	29687.36
513.04	30328.66
513.21	30260.79
513.38	29783.32
513.56	30314.62
513.73	30401.22
513.90	30731.23
514.08	30249.08
514.25	30338.02
514.43	30389.52
514.60	30719.53
514.77	30857.62
514.95	30824.86
515.12	30895.07
515.29	30932.52
515.47	31182.96
515.64	31353.82
515.81	30834.22
515.99	31068.27
516.16	31227.43
516.33	31545.74
516.51	31779.79
516.68	31395.95
516.85	31267.22
517.03	31276.58
517.20	31810.22
517.37	31604.25
517.54	31484.89
517.72	31854.69
517.89	31807.88
518.06	32161.30
518.24	31576.17
518.41	31821.92
518.58	31943.63
518.75	32236.20
518.93	32301.73
519.10	32142.58
519.27	32741.75
519.45	32851.76
519.62	32767.50
519.79	32311.10
519.96	32678.56
520.14	33195.82
520.31	32758.14
520.48	33139.65
520.65	32844.74
520.83	33249.65
521.00	33102.20
521.17	32973.47
521.34	33357.32
521.52	33567.96
521.69	33497.75
521.86	33357.32
522.03	33469.66
522.20	33708.40
522.38	33659.24
522.55	33720.10
522.72	34015.01
522.89	33979.90
523.07	33762.23
523.24	34033.73
523.41	34101.61
523.58	33954.15
523.75	34593.12
523.92	34206.93
524.10	34735.89
524.27	34288.85
524.44	34499.50
524.61	34672.70
524.78	34749.93
524.96	34892.71
525.13	35091.65
525.30	34754.61
525.47	34925.47
525.64	35019.10
525.81	34799.08
525.98	35346.77
526.16	34906.75
526.33	35054.20
526.50	35131.44
526.67	34871.64
526.84	35019.10
527.01	34866.96
527.18	35314.00
527.36	35625.29
527.53	35456.78
527.70	35658.06
527.87	35873.39
528.04	35445.07
528.21	35796.15
528.38	35339.75
528.55	35936.59
528.72	36126.17
528.89	36385.97
529.07	35555.08
529.24	36095.74
529.41	36414.05
529.58	36123.83
529.75	35985.74
529.92	36187.02
530.09	36517.04
530.26	36463.21
530.43	36598.96
530.60	36613.00
530.77	36400.01
530.94	36825.99
531.11	36598.96
531.28	36884.50
531.46	36238.51
531.63	36844.71
531.80	36994.51
531.97	36842.37
532.14	37193.45
532.31	36830.67
532.48	37001.53
532.65	37266.01
532.82	37043.66
532.99	37282.39
533.16	37146.64
533.33	36978.12
533.50	37708.37
533.67	37514.11
533.84	37383.04
534.01	37282.39
534.18	37326.86
534.35	37984.55
534.52	37422.83
534.69	37820.72
534.86	38014.98
535.03	37633.47
535.20	38225.63
535.37	38066.47
535.54	38476.07
535.71	37832.42
535.88	38171.80
536.05	37998.60
536.22	38099.24
536.38	38384.79
536.55	38270.10
536.72	38132.01
536.89	37933.06
537.06	37759.86
537.23	38349.68
537.40	38239.67
537.57	38455.00
537.74	38574.37
537.91	38785.02
538.08	38859.91
538.25	38204.56
538.42	38487.77
538.59	38738.21
538.75	38464.36
538.92	38513.52
539.09	39105.67
539.26	38899.70
539.43	38595.43
539.60	38906.73
539.77	38827.15
539.94	39145.46
540.11	38848.21
540.28	39077.58
540.44	38806.08
540.61	39215.68
540.78	38958.22
540.95	39140.78
541.12	38944.17
541.29	39236.74
541.46	39182.91
541.62	39522.29
541.79	39803.15
541.96	39093.97
542.13	38768.63
542.30	39529.31
542.47	39508.24
542.63	39234.40
542.80	39260.15
542.97	39754.00
543.14	40046.57
543.31	40044.23
543.48	39833.58
543.64	40414.03
543.81	40210.40
543.98	39810.17
544.15	40465.52
544.32	40381.26
544.48	40404.67
544.65	40414.03
544.82	40135.51
544.99	40280.62
545.16	40371.90
545.32	40282.96
545.49	40465.52
545.66	40629.36
545.83	40425.73
546.00	40832.99
546.16	40861.07
546.33	40477.22
546.50	40439.78
546.67	40549.78
546.83	40168.27
547.00	40788.52
547.17	40528.72
547.34	40718.30
547.50	40882.14
547.67	41132.57
547.84	41109.17
548.00	40942.99
548.17	41317.48
548.34	41216.83
548.51	41481.31
548.67	41118.53
548.84	41331.52
549.01	41474.29
549.18	41273.01
549.34	41666.22
549.51	41240.24
549.68	41326.84
549.84	41701.32
550.01	41734.09
550.18	41504.72
550.34	41249.60
550.51	41296.41
550.68	41357.27
550.84	41144.28
551.01	41694.30
551.18	41776.22
551.34	41507.06
551.51	41783.24
551.68	41909.63
551.84	41895.59
552.01	42134.32
552.18	41879.21
552.34	41825.37
552.51	41876.86
552.68	42059.43
552.84	41743.45
553.01	41745.80
553.18	41759.84
553.34	41745.80
553.51	41691.96
553.67	41956.44
553.84	42169.43
554.01	42157.73
554.17	42300.50
554.34	42026.66
554.51	42483.06
554.67	42330.93
554.84	42307.52
555.00	42045.38
555.17	42103.90
555.33	42852.87
555.50	42307.52
555.67	42480.72
555.83	42527.53
556.00	42452.64
556.16	42693.71
556.33	43250.76
556.50	42777.97
556.66	42983.94
556.83	42382.42
556.99	42794.36
557.16	42686.69
557.32	43061.18
557.49	42958.19
557.65	42660.94
557.82	42417.53
557.98	42663.28
558.15	42712.44
558.32	42873.93
558.48	42969.90
558.65	43047.13
558.81	42738.18
558.98	42965.21
559.14	43248.42
559.31	42714.78
559.47	42930.11
559.64	43281.19
559.80	43475.45
559.97	43213.31
560.13	42658.60
560.30	42918.40
560.46	42899.68
560.63	42932.45
560.79	43192.25
560.96	43283.53
561.12	43152.46
561.29	43498.86
561.45	42937.13
561.61	43044.79
561.78	43213.31
561.94	43517.58
562.11	43360.76
562.27	43400.55
562.44	43419.28
562.60	43711.84
562.77	43662.69
562.93	43206.29
563.10	43562.05
563.26	43306.93
563.42	43480.13
563.59	43419.28
563.75	43653.33
563.92	44116.76
564.08	43770.36
564.24	43716.53
564.41	43419.28
564.57	43325.66
564.74	44128.46
564.90	43681.42
565.07	43559.71
565.23	43349.06
565.39	43421.62
565.56	43873.34
565.72	43501.20
565.88	43578.43
566.05	43449.70
566.21	43892.07
566.38	43693.12
566.54	43819.51
566.70	43922.49
566.87	44191.65
567.03	43777.38
567.19	44095.69
567.36	43803.13
567.52	43728.23
567.68	43594.82
567.85	43927.17
568.01	44385.92
568.17	43606.52
568.34	43587.80
568.50	44030.16
568.66	44189.31
568.83	43580.78
568.99	43814.83
569.15	43887.39
569.32	43964.62
569.48	43702.48
569.64	44357.83
569.81	44205.70
569.97	43859.30
570.13	43826.53
570.30	43730.57
570.46	43723.55
570.62	43339.70
570.78	43983.35
570.95	44161.23
571.11	44079.31
571.27	43868.66
571.43	44044.20
571.60	44175.27
571.76	44095.69
571.92	43878.02
572.09	44264.21
572.25	44395.28
572.41	43805.47
572.57	43910.79
572.74	44430.39
572.90	44107.40
573.06	44339.11
573.22	43723.55
573.38	44074.63
573.55	43913.13
573.71	44154.21
573.87	44364.85
574.03	44074.63
574.20	43985.69
574.36	43892.07
574.52	43889.73
574.68	43957.60
574.84	44189.31
575.01	43936.54
575.17	43606.52
575.33	44053.56
575.49	43950.58
575.65	44959.35
575.82	44545.08
575.98	44264.21
576.14	44360.17
576.30	44399.96
576.46	44285.28
576.62	43931.86
576.79	44034.84
576.95	43756.32
577.11	44411.67
577.27	44421.03
577.43	44467.84
577.59	44289.96
577.75	44486.56
577.92	44165.91
578.08	43735.25
578.24	43929.51
578.40	44245.49
578.56	44163.57
578.72	44100.37
578.88	44374.22
579.04	44596.57
579.21	44163.57
579.37	44144.84
579.53	44240.81
579.69	43945.90
579.85	43894.41
580.01	44449.11
580.17	44261.87
580.33	44528.69
580.49	44458.48
580.65	44355.49
580.82	44350.81
580.98	44491.24
581.14	44488.90
581.30	44458.48
581.46	44399.96
581.62	44261.87
581.78	44233.78
581.94	44264.21
582.10	44577.84
582.26	44339.11
582.42	44385.92
582.58	44285.28
582.74	43981.01
582.90	44252.51
583.06	44636.36
583.22	44484.22
583.38	44563.80
583.54	44545.08
583.70	44376.56
583.86	44062.93
584.02	44161.23
584.18	44275.91
584.34	44680.83
584.50	44711.25
584.66	44299.32
584.82	44509.97
584.98	44680.83
585.14	44666.78
585.30	44011.43
585.46	44416.35
585.62	44243.15
585.78	44561.46
585.94	44341.45
586.10	43920.15
586.26	44409.32
586.42	44364.85
586.58	44439.75
586.74	44671.46
586.90	44708.91
587.06	44395.28
587.22	44406.98
587.38	44474.86
587.54	44898.50
587.70	44456.14
587.86	44610.61
588.02	44657.42
588.18	44547.42
588.34	44659.76
588.49	43995.05
588.65	44318.04
588.81	44264.21
588.97	43983.35
589.13	44065.27
589.29	44540.39
589.45	44339.11
589.61	44521.67
589.77	44524.01
589.93	44432.73
590.08	44664.44
590.24	44839.98
590.40	44643.38
590.56	44816.58
590.72	44446.77
590.88	44605.93
591.04	44788.49
591.20	44964.03
591.35	44325.07
591.51	45067.02
591.67	44563.80
591.83	44910.20
591.99	44126.12
592.15	44137.82
592.31	44528.69
592.46	44615.29
592.62	44839.98
592.78	44575.50
592.94	44823.60
593.10	44601.25
593.26	44744.02
593.41	44648.06
593.57	44753.38
593.73	45120.85
593.89	44893.82
594.05	44872.75
594.20	44753.38
594.36	44795.51
594.52	45045.95
594.68	44765.09
594.84	44442.09
594.99	44912.54
595.15	45141.91
595.31	44912.54
595.47	45081.06
595.62	44863.39
595.78	44498.26
595.94	45177.02
596.10	44842.32
596.25	44767.43
596.41	45191.06
596.57	44907.86
596.73	44964.03
596.88	44406.98
597.04	44624.65
597.20	44643.38
597.36	44875.09
597.51	44961.69
597.67	44868.07
597.83	45212.13
597.99	45151.27
598.14	45151.27
598.30	44720.62
598.46	44898.50
598.61	44935.95
598.77	44893.82
598.93	45174.68
599.09	44704.23
599.24	45045.95
599.40	45123.19
599.56	45118.51
599.71	45146.59
599.87	45301.07
600.03	44856.37
600.18	44364.85
600.34	44959.35
600.50	45015.52
600.65	44587.21
600.81	45329.16
600.97	45151.27
601.12	45219.15
601.28	44905.52
601.44	44582.52
601.59	44718.28
601.75	44474.86
601.91	45008.50
602.06	44505.29
602.22	44982.76
602.37	44765.09
602.53	44746.36
602.69	44655.08
602.84	45006.16
603.00	44765.09
603.16	44549.76
603.31	44816.58
603.47	44779.13
603.62	44737.00
603.78	44804.88
603.94	44708.91
604.09	44919.56
604.25	44907.86
604.40	45160.64
604.56	44917.22
604.71	44769.77
604.87	44865.73
605.03	44863.39
605.18	44444.43
605.34	44519.33
605.49	44495.92
605.65	44514.65
605.80	45031.91
605.96	45036.59
606.12	45034.25
606.27	45003.82
606.43	44587.21
606.58	44893.82
606.74	44669.12
606.89	44870.41
607.05	44842.32
607.20	44748.70
607.36	44247.83
607.51	44835.30
607.67	44547.42
607.82	44570.82
607.98	44477.20
608.13	44161.23
608.29	44718.28
608.44	44074.63
608.60	44215.06
608.75	44561.46
608.91	44409.32
609.06	44083.99
609.22	44619.97
609.37	44261.87
609.53	44594.23
609.68	44671.46
609.84	44643.38
609.99	44268.89
610.15	44348.47
610.30	44053.56
610.46	44271.23
610.61	44179.95
610.76	44091.01
610.92	44037.18
611.07	44540.39
611.23	44535.71
611.38	44048.88
611.54	44119.10
611.69	44350.81
611.84	44273.57
612.00	44392.94
612.15	43863.98
612.31	44238.47
612.46	44074.63
612.62	44339.11
612.77	44098.03
612.92	43871.00
613.08	44343.79
613.23	44357.83
613.39	43779.72
613.54	43866.32
613.69	43985.69
613.85	43798.44
614.00	44575.50
614.15	44360.17
614.31	44112.08
614.46	44814.24
614.62	43934.20
614.77	43629.93
614.92	43672.06
615.08	44051.22
615.23	44044.20
615.38	43445.02
615.54	43770.36
615.69	43676.74
615.84	43618.22
616.00	43786.74
616.15	43683.76
616.30	43866.32
616.46	43510.56
616.61	43295.23
616.76	43634.61
616.92	43194.59
617.07	43487.15
617.22	43274.16
617.37	43564.39
617.53	43461.41
617.68	43522.26
617.83	43213.31
617.99	43629.93
618.14	43756.32
618.29	43770.36
618.45	43229.69
618.60	43213.31
618.75	43304.59
618.90	43054.15
619.06	43971.64
619.21	43449.70
619.36	43360.76
619.51	43147.78
619.67	43096.28
619.82	43629.93
619.97	43569.07
620.12	42997.98
620.28	42539.24
620.43	43154.80
620.58	43124.37
620.73	43267.14
620.89	42864.57
621.04	43051.81
621.19	42728.82
621.34	42920.74
621.49	42873.93
621.65	42955.85
621.80	42880.95
621.95	42698.39
622.10	42380.08
622.25	43100.97
622.41	42845.85
622.56	42752.23
622.71	42895.00
622.86	42630.52
623.01	42990.96
623.16	42810.74
623.32	42583.71
623.47	43150.12
623.62	42859.89
623.77	42199.86
623.92	42728.82
624.07	42302.84
624.23	42356.67
624.38	42473.70
624.53	42419.87
624.68	42527.53
624.83	42167.09
624.98	42396.46
625.13	41818.35
625.29	42447.96
625.44	42127.30
625.59	42117.94
625.74	41942.40
625.89	41574.94
626.04	42190.50
626.19	42073.47
626.34	42279.44
626.49	42167.09
626.65	41944.74
626.80	41935.38
626.95	41972.83
627.10	41703.67
627.25	41558.55
627.40	41696.64
627.55	41635.79
627.70	41574.94
627.85	41558.55
628.00	41832.39
628.15	42078.15
628.30	42232.63
628.45	41858.14
628.60	42007.94
628.76	42422.21
628.91	41713.03
629.06	42192.84
629.21	41907.29
629.36	41525.78
629.51	41624.09
629.66	41560.89
629.81	41273.01
629.96	41638.13
630.11	41408.76
630.26	41329.18
630.41	41493.02
630.56	41542.17
630.71	41357.27
630.86	41738.77
631.01	40971.08
631.16	40989.80
631.31	40854.05
631.46	41249.60
631.61	41673.24
631.76	41567.91
631.91	40865.75
632.06	41235.56
632.21	41214.49
632.36	41045.97
632.51	40980.44
632.66	40928.95
632.81	40657.45
632.96	41113.85
633.10	40559.14
633.25	40472.54
633.40	40849.37
633.55	41069.38
633.70	40893.84
633.85	40713.62
634.00	41273.01
634.15	40732.34
634.30	40720.64
634.45	40645.74
634.60	40245.51
634.75	40194.02
634.90	40671.49
635.05	40605.95
635.19	40781.49
635.34	40952.35
635.49	40715.96
635.64	40407.01
635.79	40587.23
635.94	40156.57
636.09	40556.80
636.24	40243.17
636.39	40046.57
636.53	40156.57
636.68	40051.25
636.83	40156.57
636.98	40964.06
637.13	39807.83
637.28	39934.22
637.43	40198.70
637.57	40128.48
637.72	40289.98
637.87	39842.94
638.02	39845.28
638.17	39985.71
638.32	39845.28
638.46	39578.46
638.61	39672.08
638.76	39690.80
638.91	39833.58
639.06	39901.45
639.20	39573.78
639.35	40212.74
639.50	39431.01
639.65	40025.50
639.80	39856.98
639.94	39503.56
640.09	39770.38
640.24	39695.49
640.39	38909.07
640.54	39199.29
640.68	39936.56
640.83	39295.25
640.98	39777.40
641.13	39510.58
641.27	39407.60
641.42	39346.75
641.57	39585.48
641.72	39503.56
641.86	39332.70
642.01	39147.80
642.16	39695.49
642.31	38857.57
642.45	39412.28
642.60	39019.07
642.75	38951.20
642.90	39386.54
643.04	39173.55
643.19	39058.86
643.34	39639.31
643.48	39405.26
643.63	39082.27
643.78	38934.81
643.93	38897.36
644.07	38527.56
644.22	38911.41
644.37	38979.28
644.51	38625.86
644.66	38792.04
644.81	38768.63
644.95	39140.78
645.10	38848.21
645.25	39295.25
645.39	39182.91
645.54	39342.06
645.69	38866.94
645.83	38471.39
645.98	38726.50
646.13	38941.83
646.27	38817.78
646.42	38794.38
646.57	39161.84
646.71	38485.43
646.86	38775.66
647.00	38639.90
647.15	38960.56
647.30	39199.29
647.44	38700.76
647.59	38557.99
647.74	38560.33
647.88	38134.35
648.03	38251.38
648.17	38396.49
648.32	38078.18
648.47	38209.25
648.61	38469.04
648.76	38649.27
648.90	38188.18
649.05	38146.05
649.20	38539.26
649.34	38609.48
649.49	38321.59
649.63	38440.96
649.78	38405.85
649.92	38094.56
650.07	38181.16
650.21	38363.72
650.36	37883.91
650.51	38115.62
650.65	37977.53
650.80	38572.03
650.94	38567.35
651.09	38298.19
651.23	38174.14
651.38	37947.11
651.52	37851.14
651.67	38078.18
651.81	37776.25
651.96	37998.60
652.10	37900.29
652.25	38274.78
652.39	37565.60
652.54	37825.40
652.68	37930.72
652.83	38169.46
652.97	37970.51
653.12	37364.31
653.26	37731.78
653.41	37539.85
653.55	37572.62
653.70	37827.74
653.84	37811.35
653.99	37420.48
654.13	37663.90
654.27	37598.37
654.42	37551.56
654.56	37624.11
654.71	37446.23
654.85	37359.63
655.00	37343.25
655.14	37329.20
655.29	36664.49
655.43	37116.22
655.57	36779.18
655.72	36772.16
655.86	36926.63
656.01	37085.79
656.15	36917.27
656.30	37249.63
656.44	36662.15
656.58	37076.43
656.73	37055.36
656.87	36355.54
657.01	36800.24
657.16	36746.41
657.30	36601.30
657.45	36428.10
657.59	36432.78
657.73	36376.61
657.88	36678.54
658.02	36409.37
658.16	36650.45
658.31	36940.68
658.45	36952.38
658.60	36339.16
658.74	36858.76
658.88	36767.48
659.03	36238.51
659.17	36224.47
659.31	36261.92
659.46	35889.77
659.60	36226.81
659.74	36184.68
659.89	36002.12
660.03	35857.01
660.17	36355.54
660.32	35653.38
660.46	36231.49
660.60	36194.04
660.74	36137.87
660.89	35885.09
661.03	35615.93
661.17	35545.72
661.32	36032.55
661.46	35482.52
661.60	35187.61
661.74	35754.02
661.89	35421.67
662.03	35847.64
662.17	35314.00
662.31	35400.60
662.46	35501.25
662.60	35236.77
662.74	35325.71
662.88	35257.83
663.03	34998.03
663.17	34976.97
663.31	34855.26
663.45	34899.73
663.60	35211.02
663.74	35421.67
663.88	34700.78
664.02	34534.60
664.17	34803.77
664.31	34733.55
664.45	34649.29
664.59	34733.55
664.73	34281.83
664.88	34593.12
665.02	34504.18
665.16	34242.04
665.30	34518.22
665.44	34019.69
665.59	33692.01
665.73	33930.75
665.87	33968.19
666.01	34005.64
666.15	34103.95
666.29	33802.02
666.44	33926.07
666.58	34022.03
666.72	34548.65
666.86	33984.58
667.00	34223.31
667.14	33673.29
667.28	33727.12
667.43	33626.48
667.57	33467.32
667.71	33443.91
667.85	33483.70
667.99	33097.52
668.13	33434.55
668.27	33280.08
668.41	33869.89
668.56	33104.54
668.70	33504.77
668.84	33160.71
668.98	33111.56
669.12	33523.49
669.26	33284.76
669.40	32662.18
669.54	32699.62
669.68	32664.52
669.82	32664.52
669.96	32924.32
670.10	32493.66
670.25	32765.16
670.39	32744.09
670.53	32570.90
670.67	32533.45
670.81	32737.07
670.95	32467.91
671.09	32407.06
671.23	32442.17
671.37	32308.76
671.51	32121.51
671.65	31864.05
671.79	31882.78
671.93	32063.00
672.07	32458.55
672.21	31728.30
672.35	31927.25
672.49	32311.10
672.63	31702.56
672.77	31660.43
672.91	31770.43
673.05	31372.54
673.19	31108.06
673.33	30932.52
673.47	31061.25
673.61	30976.99
673.75	31054.23
673.89	31009.76
674.03	31227.43
674.17	31108.06
674.31	30513.56
674.45	30726.55
674.59	30834.22
674.73	30480.80
674.87	30637.61
675.01	30497.18
675.15	30590.80
675.29	30941.88
675.43	30494.84
675.56	30698.47
675.70	30579.10
675.84	30127.38
675.98	29259.04
676.12	30244.40
676.26	29890.98
676.40	29886.30
676.54	29790.34
676.68	29584.37
676.82	29465.00
676.96	29720.12
677.10	29408.83
677.23	29195.84
677.37	29338.62
677.51	29263.72
677.65	29223.93
677.79	28833.06
677.93	28872.85
678.07	28481.98
678.21	28430.49
678.34	28613.05
678.48	28957.11
678.62	28999.24
678.76	28224.52
678.90	28491.34
679.04	28088.77
679.18	28362.61
679.31	27875.78
679.45	27590.24
679.59	27793.86
679.73	27491.93
679.87	27461.51
680.00	27672.15
680.14	27920.25
680.28	27360.86
680.42	27302.35
680.56	27583.21
680.70	27292.99
680.83	27199.37
680.97	26986.38
681.11	26796.79
681.25	26857.65
681.39	26728.92
681.52	26836.58
681.66	26740.62
681.80	26581.46
681.94	26546.36
682.07	26178.89
682.21	26309.96
682.35	26426.99
682.49	26174.21
682.62	26286.56
682.76	25865.26
682.90	25818.45
683.04	25886.32
683.17	25525.88
683.31	25741.21
683.45	25881.64
683.59	25476.73
683.72	25357.36
683.86	25156.08
684.00	24957.13
684.13	25048.41
684.27	25202.89
684.41	24954.79
684.55	24929.05
684.68	24711.38
684.82	25083.52
684.96	24709.04
685.09	24517.11
685.23	24247.95
685.37	24484.34
685.50	24699.67
685.64	24528.81
685.78	24402.43
685.91	24180.07
686.05	23726.01
686.19	23765.80
686.32	23887.51
686.46	23508.34
686.60	23644.09
686.73	23576.22
686.87	23356.21
687.01	23405.36
687.14	23433.44
687.28	23236.84
687.42	23035.55
687.55	22888.10
687.69	23065.98
687.82	23007.47
687.96	22967.68
688.10	22850.65
688.23	22684.47
688.37	22225.73
688.50	22324.03
688.64	22342.75
688.78	22244.45
688.91	22010.40
689.05	22228.07
689.18	22001.04
689.32	21525.91
689.46	22031.46
689.59	22176.58
689.73	21951.88
689.86	21509.52
690.00	21916.78
690.13	21612.51
690.27	21458.03
690.41	21605.49
690.54	20898.64
690.68	21125.68
690.81	21273.13
690.95	20999.29
691.08	20695.02
691.22	20917.37
691.35	20638.84
691.49	20982.90
691.62	20650.55
691.76	20812.04
691.89	20556.93
692.03	20365.00
692.16	20191.80
692.30	20343.94
692.43	20144.99
692.57	19857.10
692.70	20224.57
692.84	19866.47
692.97	19494.32
693.11	19910.94
693.24	19845.40
693.38	19864.13
693.51	19421.77
693.65	19421.77
693.78	19499.00
693.92	19384.32
694.05	19286.01
694.19	18853.02
694.32	19166.65
694.45	19103.45
694.59	18960.68
694.72	18899.83
694.86	18621.30
694.99	18824.93
695.13	18752.37
695.26	18640.03
695.39	18188.30
695.53	18314.69
695.66	18228.09
695.80	18401.29
695.93	18228.09
696.07	17806.80
696.20	18153.20
696.33	17928.50
696.47	17987.02
696.60	18153.20
696.73	17949.57
696.87	17598.49
697.00	17488.48
697.14	17748.28
697.27	17673.39
697.40	17535.29
697.54	17603.17
697.67	17289.54
697.80	17137.40
697.94	17378.48
698.07	16819.09
698.21	17046.12
698.34	16968.88
698.47	16802.71
698.61	16519.50
698.74	16542.91
698.87	16556.95
699.01	16217.57
699.14	16271.40
699.27	16168.42
699.40	16177.78
699.54	16189.49
699.67	15927.35
699.80	16065.44
699.94	15908.62
700.07	15892.24
700.20	15751.81
700.34	15733.08
700.47	15740.10
700.60	15733.08
700.73	15971.82
700.87	15632.44
701.00	15473.28
701.13	15529.45
701.26	15302.42
701.40	15250.93
701.53	15040.28
701.66	15183.06
701.79	15066.03
701.93	15103.48
702.06	15000.49
702.19	14857.72
702.32	15066.03
702.46	14757.08
702.59	14471.53
702.72	14684.52
702.85	14490.26
702.99	14663.46
703.12	14321.74
703.25	14249.18
703.38	14677.50
703.51	14288.97
703.65	14003.43
703.78	14097.05
703.91	14183.65
704.04	14157.90
704.17	14281.95
704.31	13846.61
704.44	13961.30
704.57	13764.69
704.70	13565.74
704.83	13591.49
704.96	13666.39
705.10	13633.62
705.23	13748.31
>>>>>End Processed Spectral Data<<<<<
