SpectraSuite Data File
++++++++++++++++++++++++++++++++++++
Date: Fri Oct 25 11:24:01 EDT 2013
User: price-jones
Dark Spectrum Present: No
Reference Spectrum Present: No
Number of Sampled Component Spectra: 1
Spectrometers: USB2+H05261
Integration Time (usec): 100000 (USB2+H05261)
Spectra Averaged: 1 (USB2+H05261)
Boxcar Smoothing: 0 (USB2+H05261)
Correct for Electrical Dark: No (USB2+H05261)
Strobe/Lamp Enabled: No (USB2+H05261)
Correct for Detector Non-linearity: No (USB2+H05261)
Correct for Stray Light: No (USB2+H05261)
Number of Pixels in Processed Spectrum: 2048
>>>>>Begin Processed Spectral Data<<<<<
365.73	184.90
365.92	184.90
366.12	184.90
366.32	163.84
366.52	133.41
366.72	163.84
366.91	98.30
367.11	168.52
367.31	131.07
367.51	100.64
367.70	128.73
367.90	175.54
368.10	86.60
368.30	154.48
368.49	152.13
368.69	142.77
368.89	173.20
369.09	140.43
369.28	114.69
369.48	138.09
369.68	163.84
369.87	196.60
370.07	159.16
370.27	198.95
370.47	315.97
370.66	538.32
370.86	601.52
371.06	606.20
371.25	585.13
371.45	674.07
371.65	774.72
371.84	713.86
372.04	763.01
372.24	699.82
372.44	690.46
372.63	774.72
372.83	767.70
373.03	702.16
373.22	798.12
373.42	734.93
373.62	753.65
373.81	723.23
374.01	770.04
374.21	765.36
374.40	805.14
374.60	800.46
374.79	781.74
374.99	835.57
375.19	858.98
375.38	795.78
375.58	844.93
375.78	945.58
375.97	837.91
376.17	861.32
376.37	901.11
376.56	887.06
376.76	868.34
376.95	889.40
377.15	938.55
377.35	884.72
377.54	854.30
377.74	905.79
377.93	926.85
378.13	947.92
378.33	980.68
378.52	954.94
378.72	952.60
378.91	961.96
379.11	896.43
379.31	978.34
379.50	1020.47
379.70	1043.88
379.89	1027.50
380.09	959.62
380.28	1013.45
380.48	985.37
380.68	954.94
380.87	1018.13
381.07	929.19
381.26	1036.86
381.46	999.41
381.65	1109.41
381.85	1083.67
382.04	1121.12
382.24	1032.18
382.43	1008.77
382.63	1060.26
382.83	1118.78
383.02	1111.75
383.22	1060.26
383.41	1153.88
383.61	1095.37
383.80	1160.91
384.00	1142.18
384.19	1086.01
384.39	1137.50
384.58	1142.18
384.78	1144.52
384.97	1146.86
385.17	1167.93
385.36	1188.99
385.56	1177.29
385.75	1196.01
385.95	1135.16
386.14	1142.18
386.34	1151.54
386.53	1214.74
386.72	1193.67
386.92	1252.19
387.11	1207.72
387.31	1259.21
387.50	1165.59
387.70	1294.32
387.89	1217.08
388.09	1224.10
388.28	1350.49
388.48	1331.76
388.67	1284.95
388.86	1226.44
389.06	1401.98
389.25	1273.25
389.45	1369.21
389.64	1425.39
389.84	1343.47
390.03	1310.70
390.22	1418.36
390.42	1348.15
390.61	1380.92
390.81	1320.06
391.00	1387.94
391.19	1486.24
391.39	1511.99
391.58	1465.18
391.78	1434.75
391.97	1462.83
392.16	1486.24
392.36	1542.41
392.55	1575.18
392.75	1528.37
392.94	1575.18
393.13	1476.88
393.33	1467.52
393.52	1621.99
393.71	1596.25
393.91	1530.71
394.10	1495.60
394.29	1563.48
394.49	1607.95
394.68	1673.48
394.88	1575.18
395.07	1654.76
395.26	1626.67
395.46	1729.66
395.65	1699.23
395.84	1703.91
396.04	1792.85
396.23	1736.68
396.42	1666.46
396.62	1727.32
396.81	1750.72
397.00	1783.49
397.19	1830.30
397.39	1781.15
397.58	1893.49
397.77	1715.61
397.97	1858.39
398.16	1912.22
398.35	1928.60
398.55	1933.28
398.74	2015.20
398.93	1909.88
399.12	1839.66
399.32	1865.41
399.51	2054.99
399.70	2012.86
399.90	1909.88
400.09	2085.42
400.28	2045.63
400.47	2024.56
400.67	2101.80
400.86	2157.97
401.05	2108.82
401.24	2104.14
401.44	2078.40
401.63	2230.53
401.82	2136.91
402.01	2183.72
402.21	2104.14
402.40	2214.15
402.59	2279.68
402.78	2286.70
402.97	2272.66
403.17	2354.58
403.36	2300.75
403.55	2342.88
403.74	2387.35
403.93	2286.70
404.13	2377.98
404.32	2354.58
404.51	2417.77
404.70	2375.64
404.89	2377.98
405.09	2520.76
405.28	2410.75
405.47	2443.52
405.66	2471.61
405.85	2597.99
406.05	2473.95
406.24	2560.55
406.43	2579.27
406.62	2663.53
406.81	2712.68
407.00	2541.82
407.20	2717.36
407.39	2691.62
407.58	2684.59
407.77	2743.11
407.96	2754.81
408.15	2799.28
408.34	2595.65
408.54	2789.92
408.73	2818.00
408.92	2794.60
409.11	2832.05
409.30	2808.64
409.49	2902.26
409.68	2960.78
409.87	2918.65
410.07	2956.10
410.26	2970.14
410.45	2892.90
410.64	2902.26
410.83	3059.08
411.02	3098.87
411.21	3307.18
411.40	3211.22
411.59	3255.69
411.78	3187.81
411.98	3204.19
412.17	3187.81
412.36	3321.22
412.55	3314.20
412.74	3414.84
412.93	3482.72
413.12	3323.56
413.31	3576.34
413.50	3459.31
413.69	3407.82
413.88	3719.11
414.07	3562.30
414.26	3613.79
414.45	3712.09
414.64	3712.09
414.83	3740.18
415.02	3770.60
415.22	3847.84
415.41	3906.35
415.60	3936.78
415.79	3950.82
415.98	3992.95
416.17	3962.53
416.36	3955.51
416.55	3967.21
416.74	4170.83
416.93	4032.74
417.12	4276.16
417.31	4308.93
417.50	4149.77
417.69	4236.37
417.88	4182.54
418.07	4297.22
418.26	4318.29
418.45	4329.99
418.64	4416.59
418.83	4365.10
419.02	4346.37
419.21	4484.47
419.39	4505.53
419.58	4554.68
419.77	4545.32
419.96	4641.28
420.15	4552.34
420.34	4540.64
420.53	4505.53
420.72	4645.96
420.91	4692.77
421.10	4559.36
421.29	4894.06
421.48	4732.56
421.67	4730.22
421.86	4814.48
422.05	4786.40
422.24	4688.09
422.43	4910.44
422.61	4938.53
422.80	5069.60
422.99	4961.94
423.18	4961.94
423.37	5004.07
423.56	4802.78
423.75	4868.31
423.94	4842.57
424.13	4463.40
424.32	4882.36
424.50	4931.51
424.69	5167.90
424.88	5090.67
425.07	4915.12
425.26	4947.89
425.45	4858.95
425.64	5025.13
425.83	5062.58
426.01	5240.46
426.20	4908.10
426.39	4968.96
426.58	5111.73
426.77	5071.94
426.96	5254.50
427.15	5109.39
427.33	5217.05
427.52	5050.88
427.71	5413.66
427.90	5242.80
428.09	5193.65
428.28	5359.83
428.46	5406.64
428.65	5423.02
428.84	5476.85
429.03	5593.88
429.22	5282.59
429.40	5411.32
429.59	5502.60
429.78	5439.40
429.97	5355.15
430.16	5462.81
430.34	5518.98
430.53	5547.07
430.72	5652.39
430.91	5600.90
431.10	5572.82
431.28	5692.18
431.47	5846.66
431.66	5994.11
431.85	5877.09
432.03	5900.49
432.22	6019.86
432.41	5900.49
432.60	6008.16
432.79	5951.98
432.97	6106.46
433.16	6001.13
433.35	6047.94
433.54	5980.07
433.72	6249.23
433.91	6083.05
434.10	6179.01
434.28	6087.73
434.47	6246.89
434.66	6225.82
434.85	6282.00
435.03	6342.85
435.22	6230.51
435.41	6649.46
435.59	6466.90
435.78	6459.88
435.97	6455.20
436.16	6413.07
436.34	6464.56
436.53	6581.59
436.72	6661.16
436.90	6317.11
437.09	6696.27
437.28	6586.27
437.46	6502.01
437.65	6740.74
437.84	6658.82
438.02	6684.57
438.21	6780.53
438.40	6817.98
438.58	6998.20
438.77	7026.29
438.96	6960.75
439.14	7023.95
439.33	7208.85
439.52	7148.00
439.70	7239.28
439.89	7349.28
440.08	7438.22
440.26	7550.57
440.45	7515.46
440.63	7363.33
440.82	7644.19
441.01	7424.18
441.19	7606.74
441.38	7672.28
441.57	7548.23
441.75	7747.17
441.94	8035.06
442.12	8016.33
442.31	7957.82
442.50	8102.93
442.68	7992.93
442.87	8205.92
443.05	8067.83
443.24	8236.35
443.43	8231.66
443.61	8255.07
443.80	8608.49
443.98	7983.57
444.17	7950.80
444.35	8257.41
444.54	8393.16
444.73	8442.31
444.91	8390.82
445.10	8348.69
445.28	8451.67
445.47	8315.92
445.65	8568.70
445.84	8423.59
446.02	8437.63
446.21	8507.85
446.39	8461.04
446.58	8571.04
446.77	8362.73
446.95	8201.24
447.14	8524.23
447.32	8606.15
447.51	8409.54
447.69	8458.70
447.88	8620.19
448.06	8652.96
448.25	8690.41
448.43	8589.77
448.62	8585.08
448.80	8517.21
448.99	8720.84
449.17	8662.32
449.36	8514.87
449.54	8690.41
449.73	8847.22
449.91	9226.39
450.10	8952.55
450.28	9114.05
450.46	9006.38
450.65	9214.69
450.83	9191.28
451.02	9160.86
451.20	9249.80
451.39	9221.71
451.57	9116.39
451.76	9195.96
451.94	9160.86
452.13	9350.44
452.31	9287.25
452.49	9102.34
452.68	9502.58
452.86	9132.77
453.05	9399.59
453.23	9418.32
453.42	9336.40
453.60	9259.16
453.78	9528.32
453.97	9371.50
454.15	9528.32
454.34	9584.49
454.52	9713.22
454.70	9572.79
454.89	9940.26
455.07	9753.01
455.26	10106.43
455.44	9921.53
455.62	9907.49
455.81	9998.77
455.99	10036.22
456.17	10157.92
456.36	9834.93
456.54	10333.47
456.73	10239.84
456.91	10347.51
457.09	10546.45
457.28	10473.90
457.46	10195.37
457.64	10593.26
457.83	10455.17
458.01	10401.34
458.19	10635.39
458.38	10576.88
458.56	10661.14
458.74	10651.78
458.93	10796.89
459.11	10733.70
459.29	10644.76
459.48	10736.04
459.66	11040.31
459.84	10944.34
460.03	11253.30
460.21	10846.04
460.39	11187.76
460.57	10977.11
460.76	11133.93
460.94	11295.43
461.12	10876.47
461.31	11262.66
461.49	11342.24
461.67	11194.78
461.85	11609.06
462.04	11405.43
462.22	11580.97
462.40	11609.06
462.59	11639.48
462.77	11571.61
462.95	11669.91
463.13	11768.21
463.32	11599.70
463.50	11852.47
463.68	11683.95
463.86	11948.43
464.05	11808.00
464.23	11705.02
464.41	12049.08
464.59	11653.53
464.78	12058.44
464.96	12145.04
465.14	12025.67
465.32	12133.34
465.50	12191.85
465.69	12243.34
465.87	12266.75
466.05	11983.54
466.23	12222.28
466.41	12435.27
466.60	12585.06
466.78	12159.08
466.96	12372.07
467.14	12297.17
467.32	12301.86
467.51	12765.28
467.69	12407.18
467.87	12397.82
468.05	12650.60
468.23	12652.94
468.41	12671.66
468.60	12589.74
468.78	12837.84
468.96	12666.98
469.14	12992.31
469.32	13069.55
469.50	12709.11
469.69	12917.42
469.87	13385.52
470.05	13109.34
470.23	13177.22
470.41	13266.16
470.59	13404.25
470.77	13376.16
470.95	13350.42
471.14	13607.87
471.32	13270.84
471.50	13572.77
471.68	13748.31
471.86	13713.20
472.04	13675.75
472.22	14286.63
472.40	13935.55
472.58	13898.10
472.77	13888.74
472.95	13994.06
473.13	14459.83
473.31	14291.31
473.49	14274.93
473.67	14258.54
473.85	14092.37
474.03	14581.54
474.21	14614.30
474.39	14726.65
474.57	14773.46
474.75	15201.78
474.93	15035.60
475.12	15068.37
475.30	15084.75
475.48	15061.35
475.66	15283.70
475.84	15536.48
476.02	15695.63
476.20	15461.58
476.38	15597.33
476.56	16100.55
476.74	15976.50
476.92	15939.05
477.10	15946.07
477.28	16175.44
477.46	16365.03
477.64	16456.31
477.82	16662.27
478.00	16950.16
478.18	16711.42
478.36	17078.89
478.54	17170.17
478.72	17350.39
478.90	17455.72
479.08	17446.35
479.26	17481.46
479.44	17991.70
479.62	17961.27
479.80	18132.13
479.98	18277.24
480.16	18647.05
480.34	18298.31
480.52	18532.36
480.70	18754.71
480.88	18553.43
481.06	18677.48
481.24	18878.76
481.41	19541.13
481.59	19367.93
481.77	19674.54
481.95	19346.87
482.13	19782.21
482.31	19822.00
482.49	20058.39
482.67	20095.84
482.85	20641.18
483.03	20819.07
483.21	21029.71
483.39	21123.33
483.57	20980.56
483.74	21165.46
483.92	21495.48
484.10	21481.44
484.28	21834.86
484.46	22106.36
484.64	22253.81
484.82	21895.71
485.00	22588.51
485.18	22927.89
485.35	22824.90
485.53	22890.44
485.71	23374.93
485.89	23597.28
486.07	23271.95
486.25	23442.81
486.43	24063.05
486.61	23704.95
486.78	24182.42
486.96	24163.69
487.14	24528.81
487.32	24741.80
487.50	25029.69
487.68	25003.94
487.85	25303.53
488.03	25486.09
488.21	25846.54
488.39	25846.54
488.57	26356.77
488.75	26424.65
488.92	26544.02
489.10	27342.14
489.28	26925.52
489.46	27182.98
489.64	27454.48
489.81	27637.05
489.99	27824.29
490.17	27983.44
490.35	28556.88
490.53	27894.50
490.70	28552.20
490.88	28315.80
491.06	28786.25
491.24	28716.03
491.41	29317.55
491.59	29378.40
491.77	29645.23
491.95	29834.81
492.13	30010.35
492.30	30164.82
492.48	30698.47
492.66	30604.84
492.84	29975.24
493.01	31147.85
493.19	30712.51
493.37	31351.48
493.54	31332.75
493.72	31454.46
493.90	31718.94
494.08	31697.88
494.25	32158.96
494.43	32184.71
494.61	32428.12
494.79	32505.36
494.96	32629.41
495.14	32680.90
495.32	33226.24
495.49	33123.26
495.67	33104.54
495.85	33783.29
496.02	33582.01
496.20	34195.23
496.38	33865.21
496.55	34089.90
496.73	34969.94
496.91	34768.66
497.09	34391.83
497.26	35058.88
497.44	35084.63
497.62	35428.69
497.79	35737.64
497.97	35393.58
498.14	36371.92
498.32	36327.45
498.50	36346.18
498.67	36650.45
498.85	36456.18
499.03	36774.50
499.20	36388.31
499.38	37235.58
499.56	37125.58
499.73	37329.20
499.91	37315.16
500.08	37598.37
500.26	37427.51
500.44	37879.23
500.61	38246.69
500.79	38134.35
500.97	38646.93
501.14	38983.96
501.32	38363.72
501.49	38913.75
501.67	38794.38
501.84	39117.37
502.02	39421.64
502.20	39250.78
502.37	39756.34
502.55	39526.97
502.72	39407.60
502.90	40044.23
503.07	39412.28
503.25	39913.16
503.43	40130.83
503.60	40580.21
503.78	40629.36
503.95	40547.44
504.13	40638.72
504.30	40971.08
504.48	40631.70
504.65	40835.33
504.83	41130.23
505.01	41303.43
505.18	41390.03
505.36	41888.57
505.53	41392.37
505.71	41654.51
505.88	41982.19
506.06	41881.55
506.23	42131.98
506.41	42293.48
506.58	42572.00
506.76	42555.62
506.93	42487.74
507.11	42368.38
507.28	42714.78
507.46	43267.14
507.63	43089.26
507.81	43316.29
507.98	42789.67
508.16	43040.11
508.33	43634.61
508.50	44002.07
508.68	43690.78
508.85	44257.19
509.03	44102.71
509.20	44149.53
509.38	44804.88
509.55	44369.54
509.73	44776.79
509.90	44402.30
510.08	45214.47
510.25	44591.89
510.42	45010.84
510.60	44711.25
510.77	45439.16
510.95	45682.58
511.12	45174.68
511.30	45443.84
511.47	45406.39
511.64	45794.92
511.82	45874.50
511.99	45956.42
512.17	46211.54
512.34	46358.99
512.51	46560.28
512.69	46543.89
512.86	46323.88
513.04	46906.68
513.21	46813.05
513.38	47147.75
513.56	47082.22
513.73	46983.91
513.90	46902.00
514.08	46827.10
514.25	47353.72
514.43	47447.34
514.60	47480.11
514.77	47515.22
514.95	48154.18
515.12	47672.03
515.29	47744.59
515.47	48285.25
515.64	48523.99
515.81	47629.90
515.99	48222.06
516.16	48533.35
516.33	48250.14
516.51	48987.41
516.68	48877.41
516.85	49041.24
517.03	48692.50
517.20	49184.02
517.37	48678.46
517.54	48788.47
517.72	48891.45
517.89	48882.09
518.06	49418.07
518.24	49162.95
518.41	49460.20
518.58	49656.81
518.75	49778.51
518.93	49715.32
519.10	49216.78
519.27	49666.17
519.45	49563.18
519.62	50068.74
519.79	50113.21
519.96	50178.75
520.14	50323.86
520.31	50475.99
520.48	50562.59
520.65	50431.52
520.83	50391.73
521.00	50951.12
521.17	50522.80
521.34	51091.55
521.52	50674.94
521.69	51049.42
521.86	51098.58
522.03	51327.95
522.20	51428.59
522.38	51388.80
522.55	51573.70
522.72	51487.10
522.89	51215.60
523.07	51433.27
523.24	51641.58
523.41	51922.44
523.58	51503.49
523.75	52121.39
523.92	51976.28
524.10	52205.65
524.27	52172.88
524.44	51875.63
524.61	52257.14
524.78	52259.48
524.96	52154.16
525.13	52442.04
525.30	52652.69
525.47	52875.04
525.64	52699.50
525.81	52692.48
525.98	53043.56
526.16	52795.46
526.33	52786.10
526.50	53118.46
526.67	52706.52
526.84	52839.93
527.01	53387.62
527.18	53294.00
527.36	53294.00
527.53	53289.32
527.70	53378.26
527.87	53509.33
528.04	53652.10
528.21	53663.80
528.38	53446.13
528.55	53881.47
528.72	53380.60
528.89	53448.47
529.07	53560.82
529.24	53537.41
529.41	53853.39
529.58	53448.47
529.75	53874.45
529.92	53624.01
530.09	54019.56
530.26	54117.87
530.43	54108.50
530.60	53766.79
530.77	53839.34
530.94	54546.18
531.11	54127.23
531.28	54281.70
531.46	54213.83
531.63	54433.84
531.80	54316.81
531.97	54323.83
532.14	54656.19
532.31	54621.08
532.48	54482.99
532.65	54894.92
532.82	54485.33
532.99	55035.36
533.16	54513.42
533.33	54721.72
533.50	55138.34
533.67	54899.61
533.84	54791.94
534.01	54810.67
534.18	55030.68
534.35	55552.62
534.52	55264.73
534.69	55161.75
534.86	55356.01
535.03	55199.19
535.20	55344.31
535.37	55276.43
535.54	55309.20
535.71	55185.15
535.88	55456.65
536.05	55461.33
536.22	55739.86
536.38	55959.87
536.55	55625.17
536.72	55660.28
536.89	55718.79
537.06	55896.67
537.23	55835.82
537.40	55627.51
537.57	55767.94
537.74	55901.36
537.91	56200.94
538.08	56018.38
538.25	55791.35
538.42	56179.88
538.59	55941.14
538.75	56238.39
538.92	56156.47
539.09	56266.48
539.26	56189.24
539.43	56229.03
539.60	56456.06
539.77	56371.80
539.94	56339.04
540.11	56514.58
540.28	56514.58
540.44	56406.91
540.61	56577.77
540.78	56509.89
540.95	56404.57
541.12	56535.64
541.29	56727.56
541.46	56720.54
541.62	56692.46
541.79	56781.40
541.96	56516.92
542.13	56622.24
542.30	56676.07
542.47	56776.72
542.63	57111.41
542.80	57130.14
542.97	57017.79
543.14	57506.96
543.31	57474.20
543.48	57411.00
543.64	57572.50
543.81	57453.13
543.98	57373.55
544.15	57469.51
544.32	57684.84
544.48	57694.21
544.65	57427.38
544.82	57661.44
544.99	57443.77
545.16	57623.99
545.32	57432.07
545.49	57804.21
545.66	57996.13
545.83	57738.68
546.00	57827.62
546.16	57549.09
546.33	57813.57
546.50	57591.22
546.67	57808.89
546.83	57462.49
547.00	58024.22
547.17	57965.71
547.34	58005.50
547.50	58216.14
547.67	58450.20
547.84	58042.95
548.00	58216.14
548.17	58419.77
548.34	58124.86
548.51	58363.60
548.67	58485.31
548.84	58213.80
549.01	58159.97
549.18	58277.00
549.34	58265.30
549.51	58457.22
549.68	58506.37
549.84	58494.67
550.01	58602.33
550.18	58497.01
550.34	58569.57
550.51	58518.07
550.68	58560.20
550.84	58466.58
551.01	58719.36
551.18	58585.95
551.34	58632.76
551.51	58574.25
551.68	58679.57
551.84	58618.72
552.01	58571.91
552.18	58693.61
552.34	58583.61
552.51	58981.50
552.68	58775.53
552.84	58731.06
553.01	59068.10
553.18	58801.28
553.34	58852.77
553.51	58761.49
553.67	58782.55
553.84	58922.99
554.01	59171.08
554.17	58997.88
554.34	59065.76
554.51	58880.86
554.67	59220.23
554.84	59042.35
555.00	59025.97
555.17	58894.90
555.33	59140.66
555.50	58976.82
555.67	59086.82
555.83	59058.74
556.00	59194.49
556.16	59538.55
556.33	59341.94
556.50	59243.64
556.66	59559.61
556.83	59128.95
556.99	59599.40
557.16	59433.22
557.32	59641.53
557.49	59629.83
557.65	59365.35
557.82	59386.41
557.98	59655.57
558.15	59456.63
558.32	59545.57
558.48	59587.70
558.65	59697.70
558.81	59599.40
558.98	59653.23
559.14	59744.51
559.31	59793.67
559.47	59693.02
559.64	59632.17
559.80	59777.28
559.97	59969.21
560.13	59524.50
560.30	59678.98
560.46	59767.92
560.63	59915.37
560.79	59805.37
560.96	60039.42
561.12	59896.65
561.29	59929.42
561.45	59955.16
561.61	59945.80
561.78	59856.86
561.94	60037.08
562.11	59763.24
562.27	60011.34
562.44	60067.51
562.60	60116.66
562.77	60126.02
562.93	59896.65
563.10	59980.91
563.26	59819.41
563.42	60367.10
563.59	60472.42
563.75	60114.32
563.92	60254.75
564.08	60097.94
564.24	60315.61
564.41	60214.96
564.57	60301.56
564.74	60182.19
564.90	60271.14
565.07	60186.88
565.23	60149.43
565.39	60149.43
565.56	60229.01
565.72	60322.63
565.88	60402.21
566.05	60186.88
566.21	60303.90
566.38	60432.63
566.54	60264.11
566.70	60451.36
566.87	60449.02
567.03	60184.54
567.19	60465.40
567.36	60526.25
567.52	60275.82
567.68	60741.58
567.85	60348.37
568.01	60603.49
568.17	60292.20
568.34	60416.25
568.50	60357.74
568.66	60383.48
568.83	60575.40
568.99	60381.14
569.15	60460.72
569.32	60561.36
569.48	60453.70
569.64	60472.42
569.81	60371.78
569.97	60434.97
570.13	60673.71
570.30	60537.96
570.46	60552.00
570.62	60552.00
570.78	60552.00
570.95	60495.83
571.11	60947.55
571.27	60680.73
571.43	60818.82
571.60	60910.10
571.76	60636.26
571.92	60615.19
572.09	60687.75
572.25	60622.22
572.41	60516.89
572.57	60786.05
572.74	60959.25
572.90	60598.81
573.06	60722.86
573.22	60851.59
573.38	60846.91
573.55	60626.90
573.71	60933.51
573.87	60846.91
574.03	60657.32
574.20	60762.65
574.36	60821.16
574.52	60992.02
574.68	60860.95
574.84	60954.57
575.01	60860.95
575.17	60809.46
575.33	60790.73
575.49	60835.20
575.65	60917.12
575.82	60949.89
575.98	60739.24
576.14	60959.25
576.30	60945.21
576.46	60743.92
576.62	60856.27
576.79	60760.31
576.95	60610.51
577.11	60767.33
577.27	60963.93
577.43	60928.83
577.59	60912.44
577.75	60746.26
577.92	60832.86
578.08	60865.63
578.24	61006.06
578.40	60954.57
578.56	60910.10
578.72	60879.67
578.88	61146.50
579.04	61216.71
579.21	60856.27
579.37	60931.17
579.53	60989.68
579.69	60594.13
579.85	60992.02
580.01	60788.39
580.17	60760.31
580.33	61001.38
580.49	60814.14
580.65	61048.19
580.82	60790.73
580.98	60856.27
581.14	60945.21
581.30	61043.51
581.46	61029.47
581.62	60968.61
581.78	60711.16
581.94	61200.33
582.10	60858.61
582.26	60903.08
582.42	61027.13
582.58	61017.77
582.74	61120.75
582.90	61116.07
583.06	60942.87
583.22	60956.91
583.38	61151.18
583.54	61104.37
583.70	61174.58
583.86	61034.15
584.02	60657.32
584.18	61087.98
584.34	60980.32
584.50	61097.34
584.66	61003.72
584.82	61080.96
584.98	61139.47
585.14	61132.45
585.30	60935.85
585.46	61197.99
585.62	61193.31
585.78	61202.67
585.94	60746.26
586.10	61078.62
586.26	61148.84
586.42	61256.50
586.58	61188.63
586.74	61216.71
586.90	61085.64
587.06	61022.45
587.22	61359.48
587.38	61127.77
587.54	61272.88
587.70	61439.06
587.86	61059.90
588.02	61226.07
588.18	61181.60
588.34	60966.27
588.49	61099.68
588.65	61013.08
588.81	61221.39
588.97	61221.39
589.13	61151.18
589.29	61389.91
589.45	61396.93
589.61	61228.41
589.77	61469.49
589.93	61588.86
590.08	61331.40
590.24	61539.71
590.40	61605.24
590.56	61553.75
590.72	61502.26
590.88	61176.92
591.04	61460.13
591.20	61623.96
591.35	61523.32
591.51	61645.03
591.67	61516.30
591.83	61584.18
591.99	61305.65
592.15	61408.64
592.31	61563.11
592.46	61375.87
592.62	61476.51
592.78	61485.87
592.94	61586.52
593.10	61539.71
593.26	61652.05
593.41	61453.11
593.57	61520.98
593.73	61626.31
593.89	61752.69
594.05	61635.67
594.20	61469.49
594.36	61886.10
594.52	61403.95
594.68	61600.56
594.84	61546.73
594.99	61579.49
595.15	61530.34
595.31	61719.93
595.47	61310.33
595.62	61373.53
595.78	61602.90
595.94	61762.06
596.10	61738.65
596.25	61600.56
596.41	61815.89
596.57	61722.27
596.73	61584.18
596.88	61881.42
597.04	61806.53
597.20	61705.88
597.36	61808.87
597.51	61708.22
597.67	61715.25
597.83	61488.21
597.99	61935.26
598.14	61626.31
598.30	61673.12
598.46	61762.06
598.61	61834.61
598.77	61703.54
598.93	61736.31
599.09	61773.76
599.24	62019.52
599.40	61829.93
599.56	61820.57
599.71	61783.12
599.87	61888.45
600.03	61815.89
600.18	61872.06
600.34	61696.52
600.50	61982.07
600.65	61909.51
600.81	61790.14
600.97	61946.96
601.12	61785.46
601.28	61790.14
601.44	61666.09
601.59	61925.89
601.75	61738.65
601.91	61872.06
602.06	61928.23
602.22	61953.98
602.37	61836.95
602.53	61829.93
602.69	61766.74
602.84	61708.22
603.00	61928.23
603.16	61860.36
603.31	61970.36
603.47	61951.64
603.62	61907.17
603.78	61986.75
603.94	61790.14
604.09	61839.29
604.25	61785.46
604.40	61677.80
604.56	61743.33
604.71	62085.05
604.87	61949.30
605.03	61911.85
605.18	62010.15
605.34	61968.02
605.49	61785.46
605.65	61986.75
605.80	61755.03
605.96	62108.46
606.12	61975.05
606.27	61890.79
606.43	61797.16
606.58	61958.66
606.74	61815.89
606.89	62042.92
607.05	62078.03
607.20	61986.75
607.36	61542.05
607.51	61762.06
607.67	61553.75
607.82	61687.16
607.98	61792.48
608.13	61799.50
608.29	61689.50
608.44	61820.57
608.60	61733.97
608.75	61799.50
608.91	61724.61
609.06	61525.66
609.22	61858.02
609.37	61481.19
609.53	61652.05
609.68	61834.61
609.84	61584.18
609.99	61790.14
610.15	61851.00
610.30	61797.16
610.46	61722.27
610.61	61733.97
610.76	61787.80
610.92	61860.36
611.07	61600.56
611.23	61628.65
611.38	61766.74
611.54	61572.47
611.69	61787.80
611.84	61755.03
612.00	61506.94
612.15	61696.52
612.31	61591.20
612.46	61574.81
612.62	61605.24
612.77	61319.70
612.92	61797.16
613.08	61240.12
613.23	61659.07
613.39	61544.39
613.54	61457.79
613.69	61633.33
613.85	61565.45
614.00	61832.27
614.15	61701.20
614.31	61570.13
614.46	61448.42
614.62	61385.23
614.77	61434.38
614.92	61317.35
615.08	61439.06
615.23	61389.91
615.38	61579.49
615.54	61385.23
615.69	61403.95
615.84	61436.72
616.00	61619.28
616.15	61422.68
616.30	61406.30
616.46	61528.00
616.61	61289.27
616.76	61609.92
616.92	61300.97
617.07	61506.94
617.22	61045.85
617.37	61495.24
617.53	61666.09
617.68	61359.48
617.83	61375.87
617.99	61310.33
618.14	61396.93
618.29	61403.95
618.45	61153.52
618.60	61071.60
618.75	61052.87
618.90	61181.60
619.06	61293.95
619.21	61345.44
619.36	61322.04
619.51	61247.14
619.67	61024.79
619.82	61059.90
619.97	61298.63
620.12	60940.53
620.28	60973.30
620.43	61160.54
620.58	61099.68
620.73	60975.64
620.89	61148.84
621.04	61169.90
621.19	61155.86
621.34	61125.43
621.49	60767.33
621.65	60952.23
621.80	61324.38
621.95	60921.80
622.10	61022.45
622.25	61095.00
622.41	60994.36
622.56	60903.08
622.71	61045.85
622.86	60657.32
623.01	60935.85
623.16	60807.12
623.32	60863.29
623.47	60849.25
623.62	60786.05
623.77	60767.33
623.92	61134.79
624.07	60921.80
624.23	60912.44
624.38	60715.84
624.53	60580.09
624.68	60547.32
624.83	60917.12
624.98	60935.85
625.13	60580.09
625.29	60732.22
625.44	60584.77
625.59	60814.14
625.74	60619.88
625.89	60671.37
626.04	60580.09
626.19	60385.82
626.34	60474.76
626.49	60397.52
626.65	60299.22
626.80	60537.96
626.95	60465.40
627.10	60460.72
627.25	60406.89
627.40	60416.25
627.55	60458.38
627.70	60329.65
627.85	60413.91
628.00	60303.90
628.15	60486.46
628.30	60385.82
628.45	60285.18
628.60	60324.97
628.76	60381.14
628.91	60575.40
629.06	60296.88
629.21	60397.52
629.36	60217.30
629.51	60327.31
629.66	60273.48
629.81	60236.03
629.96	60135.38
630.11	60034.74
630.26	60074.53
630.41	60334.33
630.56	60254.75
630.71	60165.81
630.86	60137.72
631.01	60079.21
631.16	60303.90
631.31	59852.18
631.46	59824.09
631.61	60086.23
631.76	60203.26
631.91	60175.17
632.06	60243.05
632.21	60027.72
632.36	60119.00
632.51	59943.46
632.66	59997.29
632.81	59847.50
632.96	60004.31
633.10	60104.96
633.25	59936.44
633.40	59896.65
633.55	60076.87
633.70	59821.75
633.85	59751.54
634.00	59552.59
634.15	59833.46
634.30	59861.54
634.45	59941.12
634.60	59924.74
634.75	59863.88
634.90	59669.62
635.05	59859.20
635.19	59742.17
635.34	59763.24
635.49	59564.29
635.64	59697.70
635.79	59704.73
635.94	59725.79
636.09	59671.96
636.24	59531.53
636.39	59646.21
636.53	59674.30
636.68	59517.48
636.83	59554.93
636.98	59807.71
637.13	59618.13
637.28	59583.02
637.43	59540.89
637.57	59444.93
637.72	59536.21
637.87	59480.03
638.02	59498.76
638.17	59484.72
638.32	59405.14
638.46	59564.29
638.61	59379.39
638.76	59121.93
638.91	59269.39
639.06	59435.56
639.20	59346.62
639.35	59093.85
639.50	59264.70
639.65	59339.60
639.80	59224.92
639.94	59299.81
640.09	59199.17
640.24	59126.61
640.39	59084.48
640.54	59100.87
640.68	59278.75
640.83	59196.83
640.98	59164.06
641.13	58965.12
641.27	59309.18
641.42	59168.74
641.57	58932.35
641.72	59175.76
641.86	59114.91
642.01	58827.02
642.16	59152.36
642.31	58955.75
642.45	59145.34
642.60	58934.69
642.75	59058.74
642.90	59096.19
643.04	58897.24
643.19	58733.40
643.34	58766.17
643.48	59128.95
643.63	58878.52
643.78	58726.38
643.93	58649.14
644.07	58946.39
644.22	58740.42
644.37	58557.86
644.51	58845.75
644.66	58850.43
644.81	58658.51
644.95	58770.85
645.10	58803.62
645.25	58712.34
645.39	58639.78
645.54	58731.06
645.69	58625.74
645.83	58731.06
645.98	58773.19
646.13	58588.29
646.27	58581.27
646.42	58497.01
646.57	58501.69
646.71	58672.55
646.86	58670.21
647.00	58557.86
647.15	58602.33
647.30	58651.48
647.44	58632.76
647.59	58724.04
647.74	58656.17
647.88	58412.75
648.03	58815.32
648.17	58471.26
648.32	58307.43
648.47	58504.03
648.61	58494.67
648.76	58518.07
648.90	58485.31
649.05	58337.85
649.20	58384.66
649.34	58464.24
649.49	58211.46
649.63	58410.41
649.78	58702.98
649.92	58401.05
650.07	58585.95
650.21	58197.42
650.36	58211.46
650.51	58291.04
650.65	58298.06
650.80	58190.40
650.94	58064.01
651.09	58227.85
651.23	57848.68
651.38	57914.22
651.52	57750.38
651.67	57932.94
651.81	57930.60
651.96	58059.33
652.10	57855.70
652.25	58082.73
652.39	57979.75
652.54	57986.77
652.68	57764.42
652.83	57729.31
652.97	57956.35
653.12	57886.13
653.26	57954.00
653.41	57958.69
653.55	57954.00
653.70	57942.30
653.84	57886.13
653.99	57886.13
654.13	57879.11
654.27	57546.75
654.42	57654.42
654.56	57535.05
654.71	57876.77
654.85	57890.81
655.00	57965.71
655.14	57640.37
655.29	57602.92
655.43	57769.10
655.57	57698.89
655.72	57502.28
655.86	57546.75
656.01	57591.22
656.15	57516.32
656.30	57832.30
656.44	57750.38
656.58	57680.16
656.73	57715.27
656.87	57645.05
657.01	57616.97
657.16	57579.52
657.30	57251.84
657.45	57443.77
657.59	57488.24
657.73	57146.52
657.88	57272.91
658.02	57296.31
658.16	57235.46
658.31	57155.88
658.45	57301.00
658.60	57183.97
658.74	57221.42
658.88	57251.84
659.03	57151.20
659.17	56996.73
659.31	57406.32
659.46	56928.85
659.60	57205.03
659.74	56907.79
659.89	57006.09
660.03	56921.83
660.17	56963.96
660.32	56919.49
660.46	56816.50
660.60	56823.53
660.74	56900.76
660.89	56814.16
661.03	56580.11
661.17	56647.99
661.32	56498.19
661.46	56509.89
661.60	56570.75
661.74	56491.17
661.89	56327.33
662.03	56423.29
662.17	56397.55
662.31	56144.77
662.46	56491.17
662.60	56104.98
662.74	56369.46
662.88	56404.57
663.03	56053.49
663.17	56161.15
663.31	56041.79
663.45	55994.98
663.60	55821.78
663.74	55894.33
663.88	55737.52
664.02	55664.96
664.17	56018.38
664.31	55702.41
664.45	55456.65
664.59	55959.87
664.73	56069.87
664.88	55781.99
665.02	55578.36
665.16	55508.14
665.30	55477.72
665.44	55470.70
665.59	55255.37
665.73	55262.39
665.87	55332.60
666.01	55323.24
666.15	55192.17
666.29	55435.59
666.44	55327.92
666.58	55370.05
666.72	55243.66
666.86	54897.27
667.00	54876.20
667.14	54735.77
667.28	54815.35
667.43	54960.46
667.57	54988.55
667.71	54607.04
667.85	54967.48
667.99	54892.58
668.13	54302.77
668.27	54656.19
668.41	54731.09
668.56	54337.88
668.70	54536.82
668.84	54298.09
668.98	54284.04
669.12	54134.25
669.26	54248.94
669.40	54262.98
669.54	54447.88
669.68	54244.26
669.82	53911.90
669.96	53979.78
670.10	54181.06
670.25	54319.15
670.39	54103.82
670.53	53947.01
670.67	53808.92
670.81	54218.51
670.95	53820.62
671.09	53764.45
671.23	53502.31
671.37	53851.05
671.51	53499.97
671.65	53839.34
671.79	53368.90
671.93	53420.39
672.07	53460.18
672.21	53207.40
672.35	53038.88
672.49	52872.70
672.63	53198.04
672.77	52729.93
672.91	52978.03
673.05	52952.28
673.19	52655.03
673.33	52083.94
673.47	52465.45
673.61	52655.03
673.75	52640.99
673.89	52420.98
674.03	52367.15
674.17	52334.38
674.31	51852.23
674.45	51833.50
674.59	51817.12
674.73	51917.76
674.87	51819.46
675.01	51744.56
675.15	51281.14
675.29	51920.10
675.43	51676.69
675.56	51447.32
675.70	51353.69
675.84	51112.62
675.98	50085.12
676.12	51229.65
676.26	51313.90
676.40	51049.42
676.54	50890.27
676.68	50841.12
676.82	50267.69
676.96	50841.12
677.10	50330.88
677.23	49815.96
677.37	50103.85
677.51	49750.43
677.65	49661.49
677.79	49043.59
677.93	49312.75
678.07	49137.21
678.21	49277.64
678.34	49605.31
678.48	49045.93
678.62	48732.29
678.76	48832.94
678.90	48999.12
679.04	48563.78
679.18	48638.67
679.31	48318.02
679.45	47999.71
679.59	48254.82
679.73	48404.62
679.87	47817.14
680.00	47501.17
680.14	47000.30
680.28	47463.72
680.42	47566.71
680.56	47426.28
680.70	46358.99
680.83	47386.49
680.97	46658.58
681.11	47430.96
681.25	46522.83
681.39	46424.53
681.52	46728.80
681.66	46314.52
681.80	45935.35
681.94	45956.42
682.07	46103.87
682.21	45790.24
682.35	45361.92
682.49	45467.25
682.62	45399.37
682.76	45771.52
682.90	45228.51
683.04	45125.53
683.17	44926.58
683.31	44369.54
683.45	44884.45
683.59	44264.21
683.72	44142.50
683.86	44189.31
684.00	44018.46
684.13	44369.54
684.27	43515.24
684.41	43744.61
684.55	43889.73
684.68	43782.06
684.82	43084.58
684.96	43377.15
685.09	43030.75
685.23	42576.69
685.37	42443.27
685.50	42504.13
685.64	42445.62
685.78	42464.34
685.91	42560.30
686.05	42047.72
686.19	41317.48
686.32	41556.21
686.46	40919.59
686.60	40928.95
686.73	40542.76
686.87	40751.07
687.01	41106.83
687.14	40971.08
687.28	40620.00
687.42	40453.82
687.55	40612.98
687.69	40526.38
687.82	39978.69
687.96	39662.72
688.10	39377.17
688.23	40229.13
688.37	39651.02
688.50	39302.28
688.64	39145.46
688.78	39229.72
688.91	38464.36
689.05	38941.83
689.18	38382.45
689.32	37970.51
689.46	37729.44
689.59	37846.46
689.73	37687.31
689.86	38043.07
690.00	37820.72
690.13	37855.82
690.27	38026.68
690.41	37619.43
690.54	36804.92
690.68	36994.51
690.81	36989.83
690.95	36474.91
691.08	36318.09
691.22	36411.71
691.35	36222.13
691.49	36627.04
691.62	36397.67
691.76	35756.36
691.89	35625.29
692.03	35426.35
692.16	35220.38
692.30	35473.16
692.43	35414.65
692.57	34541.63
692.70	34845.90
692.84	34525.24
692.97	34609.50
693.11	34478.43
693.24	34462.05
693.38	34213.95
693.51	33965.85
693.65	33408.81
693.78	33626.48
693.92	33825.42
694.05	33422.85
694.19	33455.62
694.32	33095.18
694.45	33116.24
694.59	32889.21
694.72	32629.41
694.86	32470.25
694.99	32180.03
695.13	32006.83
695.26	31866.39
695.39	31648.72
695.53	31440.42
695.66	32306.41
695.80	31498.93
695.93	31082.31
696.07	30745.28
696.20	30888.05
696.33	30916.14
696.47	30747.62
696.60	30593.14
696.73	30448.03
696.87	30380.15
697.00	30321.64
697.14	30726.55
697.27	30373.13
697.40	30183.55
697.54	29804.38
697.67	29553.94
697.80	29497.77
697.94	29071.79
698.07	29280.10
698.21	28994.56
698.34	29113.92
698.47	28779.23
698.61	28634.11
698.74	28603.69
698.87	28680.92
699.01	28053.66
699.14	28306.44
699.27	27992.81
699.40	28196.43
699.54	28327.50
699.67	27618.32
699.80	27920.25
699.94	27733.01
700.07	27709.60
700.20	27332.78
700.34	27236.81
700.47	26623.59
700.60	26483.16
700.73	26380.18
700.87	26361.45
701.00	26405.92
701.13	26075.91
701.26	26010.37
701.40	26434.01
701.53	26087.61
701.66	25647.59
701.79	25149.06
701.93	25252.04
702.06	24917.34
702.19	24826.06
702.32	25207.57
702.46	24870.53
702.59	24678.61
702.72	24372.00
702.85	24601.37
702.99	24524.13
703.12	23803.25
703.25	24149.65
703.38	23887.51
703.51	23552.81
703.65	23534.09
703.78	23309.40
703.91	23445.15
704.04	23288.33
704.17	23353.87
704.31	23075.34
704.44	22899.80
704.57	22745.33
704.70	23021.51
704.83	22300.62
704.96	22544.04
705.10	22331.05
705.23	22132.11
>>>>>End Processed Spectral Data<<<<<
