SpectraSuite Data File
++++++++++++++++++++++++++++++++++++
Date: Fri Oct 25 10:43:46 EDT 2013
User: price-jones
Dark Spectrum Present: No
Reference Spectrum Present: No
Number of Sampled Component Spectra: 1
Spectrometers: USB2+H05261
Integration Time (usec): 100000 (USB2+H05261)
Spectra Averaged: 1 (USB2+H05261)
Boxcar Smoothing: 0 (USB2+H05261)
Correct for Electrical Dark: No (USB2+H05261)
Strobe/Lamp Enabled: No (USB2+H05261)
Correct for Detector Non-linearity: No (USB2+H05261)
Correct for Stray Light: No (USB2+H05261)
Number of Pixels in Processed Spectrum: 2048
>>>>>Begin Processed Spectral Data<<<<<
365.73	159.16
365.92	159.16
366.12	159.16
366.32	67.88
366.52	77.24
366.72	0.00
366.91	74.90
367.11	67.88
367.31	28.09
367.51	0.00
367.70	14.04
367.90	0.00
368.10	44.47
368.30	0.00
368.49	0.00
368.69	0.00
368.89	65.54
369.09	14.04
369.28	51.49
369.48	46.81
369.68	91.28
369.87	39.79
370.07	60.85
370.27	145.11
370.47	208.31
370.66	358.10
370.86	395.55
371.06	458.74
371.25	479.81
371.45	470.45
371.65	489.17
371.84	463.43
372.04	409.59
372.24	475.13
372.44	521.94
372.63	547.69
372.83	540.66
373.03	491.51
373.22	552.37
373.42	550.03
373.62	535.98
373.81	507.90
374.01	538.32
374.21	622.58
374.40	631.94
374.60	620.24
374.79	585.13
374.99	610.88
375.19	571.09
375.38	533.64
375.58	617.90
375.78	608.54
375.97	617.90
376.17	725.57
376.37	678.76
376.56	557.05
376.76	622.58
376.95	608.54
377.15	634.29
377.35	582.79
377.54	655.35
377.74	601.52
377.93	627.26
378.13	622.58
378.33	645.99
378.52	655.35
378.72	723.23
378.91	624.92
379.11	671.73
379.31	657.69
379.50	557.05
379.70	697.48
379.89	720.88
380.09	631.94
380.28	608.54
380.48	648.33
380.68	653.01
380.87	636.63
381.07	697.48
381.26	725.57
381.46	744.29
381.65	774.72
381.85	667.05
382.04	636.63
382.24	657.69
382.43	770.04
382.63	702.16
382.83	685.78
383.02	716.20
383.22	746.63
383.41	690.46
383.61	727.91
383.80	758.33
384.00	748.97
384.19	753.65
384.39	774.72
384.58	795.78
384.78	788.76
384.97	861.32
385.17	830.89
385.36	765.36
385.56	772.38
385.75	734.93
385.95	833.23
386.14	802.80
386.34	819.19
386.53	856.64
386.72	847.27
386.92	856.64
387.11	854.30
387.31	795.78
387.50	847.27
387.70	880.04
387.89	908.13
388.09	877.70
388.28	889.40
388.48	896.43
388.67	910.47
388.86	922.17
389.06	952.60
389.25	957.28
389.45	983.02
389.64	987.71
389.84	980.68
390.03	973.66
390.22	1006.43
390.42	1064.94
390.61	1008.77
390.81	992.39
391.00	1022.81
391.19	980.68
391.39	1034.52
391.58	1015.79
391.78	1029.84
391.97	1046.22
392.16	964.30
392.36	1029.84
392.55	1048.56
392.75	1020.47
392.94	947.92
393.13	1022.81
393.33	1025.15
393.52	976.00
393.71	1123.46
393.91	1020.47
394.10	1121.12
394.29	1102.39
394.49	1172.61
394.68	1142.18
394.88	1090.69
395.07	1261.55
395.26	1156.22
395.46	1170.27
395.65	1184.31
395.84	1231.12
396.04	1174.95
396.23	1256.87
396.42	1149.20
396.62	1200.69
396.81	1167.93
397.00	1238.14
397.19	1200.69
397.39	1146.86
397.58	1277.93
397.77	1233.46
397.97	1423.05
398.16	1404.32
398.35	1369.21
398.55	1394.96
398.74	1458.15
398.93	1579.86
399.12	1432.41
399.32	1521.35
399.51	1528.37
399.70	1448.79
399.90	1430.07
400.09	1675.82
400.28	1526.03
400.47	1643.06
400.67	1640.72
400.86	1619.65
401.05	1647.74
401.24	1636.03
401.44	1643.06
401.63	1687.53
401.82	1713.27
402.01	1717.95
402.21	1844.34
402.40	1708.59
402.59	1596.25
402.78	1701.57
402.97	1671.14
403.17	1645.40
403.36	1739.02
403.55	1823.28
403.74	1905.20
403.93	1694.55
404.13	1776.47
404.32	1820.94
404.51	1771.79
404.70	1734.34
404.89	1839.66
405.09	1860.73
405.28	1860.73
405.47	2017.54
405.66	2045.63
405.85	2033.93
406.05	1944.99
406.24	2012.86
406.43	1895.83
406.62	2083.08
406.81	2097.12
407.00	2003.50
407.20	1959.03
407.39	2054.99
407.58	2104.14
407.77	2099.46
407.96	2136.91
408.15	2200.10
408.34	2092.44
408.54	2139.25
408.73	2237.55
408.92	2183.72
409.11	2298.41
409.30	2237.55
409.49	2275.00
409.68	2253.94
409.87	2321.81
410.07	2317.13
410.26	2356.92
410.45	2452.88
410.64	2328.83
410.83	2469.27
411.02	2509.05
411.21	2429.48
411.40	2588.63
411.59	2562.89
411.78	2583.95
411.98	2626.08
412.17	2597.99
412.36	2717.36
412.55	2787.58
412.74	2719.70
412.93	2663.53
413.12	2635.44
413.31	2911.63
413.50	2808.64
413.69	2778.22
413.88	2841.41
414.07	2796.94
414.26	2923.33
414.45	2911.63
414.64	2995.89
414.83	2918.65
415.02	3026.31
415.22	2939.71
415.41	3056.74
415.60	2958.44
415.79	3056.74
415.98	3342.28
416.17	3276.75
416.36	3206.53
416.55	3091.85
416.74	3143.34
416.93	3229.94
417.12	3206.53
417.31	3169.09
417.50	3265.05
417.69	3260.37
417.88	3487.40
418.07	3396.12
418.26	3365.69
418.45	3536.55
418.64	3550.59
418.83	3564.64
419.02	3389.10
419.21	3499.10
419.39	3536.55
419.58	3466.33
419.77	3545.91
419.96	3653.58
420.15	3728.47
420.34	3637.19
420.53	3625.49
420.72	3665.28
420.91	3815.07
421.10	3695.71
421.29	3817.41
421.48	3740.18
421.67	3730.81
421.86	3735.50
422.05	3705.07
422.24	3770.60
422.43	3716.77
422.61	3831.46
422.80	3829.12
422.99	3761.24
423.18	3805.71
423.37	3854.86
423.56	3922.74
423.75	3850.18
423.94	3861.88
424.13	3702.73
424.32	3798.69
424.50	4025.72
424.69	3983.59
424.88	3922.74
425.07	3819.75
425.26	3829.12
425.45	3899.33
425.64	3904.01
425.83	3908.69
426.01	3969.55
426.20	3939.12
426.39	3925.08
426.58	3927.42
426.77	3953.16
426.96	3878.27
427.15	3925.08
427.33	4042.11
427.52	3936.78
427.71	4016.36
427.90	4147.43
428.09	3981.25
428.28	3983.59
428.46	4100.62
428.65	4135.73
428.84	4086.58
429.03	4149.77
429.22	4018.70
429.40	3978.91
429.59	4044.45
429.78	3911.04
429.97	3845.50
430.16	3992.95
430.34	4128.70
430.53	4224.67
430.72	4311.27
430.91	4049.13
431.10	4278.50
431.28	4397.87
431.47	4524.26
431.66	4702.14
431.85	4540.64
432.03	4568.73
432.22	4566.39
432.41	4629.58
432.60	4545.32
432.79	4610.86
432.97	4723.20
433.16	4610.86
433.35	4582.77
433.54	4589.79
433.72	4671.71
433.91	4636.60
434.10	4734.90
434.28	4751.29
434.47	4793.42
434.66	4894.06
434.85	4842.57
435.03	4947.89
435.22	4802.78
435.41	5060.24
435.59	4966.62
435.78	4765.33
435.97	5088.32
436.16	5085.98
436.34	4973.64
436.53	5020.45
436.72	5184.29
436.90	5050.88
437.09	5158.54
437.28	5076.62
437.46	4905.76
437.65	5039.17
437.84	5167.90
438.02	5200.67
438.21	5128.11
438.40	5027.47
438.58	5294.29
438.77	5364.51
438.96	5334.08
439.14	5469.83
439.33	5493.24
439.52	5434.72
439.70	5406.64
439.89	5598.56
440.08	5692.18
440.26	5717.93
440.45	5645.37
440.63	5734.31
440.82	5856.02
441.01	5753.04
441.19	5830.27
441.38	6010.50
441.57	6153.27
441.75	6129.86
441.94	6207.10
442.12	5998.79
442.31	6375.62
442.50	6303.06
442.68	6225.82
442.87	6406.05
443.05	6235.19
443.24	6342.85
443.43	6373.28
443.61	6253.91
443.80	6392.00
443.98	6291.36
444.17	6164.97
444.35	6656.48
444.54	6434.13
444.73	6534.78
444.91	6389.66
445.10	6403.71
445.28	6303.06
445.47	6284.34
445.65	6174.33
445.84	6642.44
446.02	6466.90
446.21	6441.15
446.39	6546.48
446.58	6616.69
446.77	6595.63
446.95	6513.71
447.14	6415.41
447.32	6686.91
447.51	6621.38
447.69	6504.35
447.88	6773.51
448.06	6459.88
448.25	6532.44
448.43	6551.16
448.62	6640.10
448.80	6656.48
448.99	6572.22
449.17	6796.92
449.36	6951.39
449.54	6862.45
449.73	6895.22
449.91	7002.88
450.10	6960.75
450.28	7194.81
450.46	7136.29
450.65	7180.76
450.83	7002.88
451.02	7101.19
451.20	7155.02
451.39	7232.26
451.57	7131.61
451.76	7077.78
451.94	7115.23
452.13	7185.44
452.31	7063.74
452.49	7105.87
452.68	7126.93
452.86	7138.63
453.05	7197.15
453.23	7281.41
453.42	7232.26
453.60	7126.93
453.78	7346.94
453.97	7391.41
454.15	7386.73
454.34	7241.62
454.52	7393.75
454.70	7389.07
454.89	7384.39
455.07	7438.22
455.26	7569.29
455.44	7585.68
455.62	7634.83
455.81	7667.60
455.99	7531.84
456.17	7604.40
456.36	7719.09
456.54	7803.35
456.73	7990.59
456.91	8196.56
457.09	7871.22
457.28	8098.25
457.46	8053.78
457.64	7920.37
457.83	8156.77
458.01	7892.29
458.19	7988.25
458.38	7913.35
458.56	8198.90
458.74	8053.78
458.93	8142.72
459.11	8283.16
459.29	8196.56
459.48	8292.52
459.66	8262.09
459.84	8327.63
460.03	8533.59
460.21	8334.65
460.39	8414.23
460.57	8336.99
460.76	8297.20
460.94	8503.17
461.12	8524.23
461.31	8491.46
461.49	8613.17
461.67	8538.27
461.85	8734.88
462.04	8461.04
462.22	8971.27
462.40	8678.71
462.59	8615.51
462.77	8737.22
462.95	8762.97
463.13	8940.85
463.32	8718.50
463.50	8704.45
463.68	8894.04
463.86	9090.64
464.05	8575.72
464.23	8734.88
464.41	8823.82
464.59	8762.97
464.78	9027.45
464.96	8889.35
465.14	8908.08
465.32	8931.48
465.50	9146.81
465.69	9132.77
465.87	9011.06
466.05	9006.38
466.23	8945.53
466.41	9015.74
466.60	9296.61
466.78	9069.58
466.96	9317.67
467.14	9172.56
467.32	9153.84
467.51	9521.30
467.69	9048.51
467.87	9305.97
468.05	9383.21
468.23	9219.37
468.41	9451.08
468.60	9469.81
468.78	9542.36
468.96	9474.49
469.14	9434.70
469.32	9558.75
469.50	9219.37
469.69	9724.93
469.87	9860.68
470.05	9783.44
470.23	9685.14
470.41	9591.52
470.59	9863.02
470.77	9540.02
470.95	9734.29
471.14	9881.74
471.32	9696.84
471.50	10155.58
471.68	10111.11
471.86	10265.59
472.04	10457.51
472.22	10293.68
472.40	10003.45
472.58	10375.59
472.77	10345.17
472.95	10293.68
473.13	10721.99
473.31	10492.62
473.49	10497.30
473.67	10368.57
473.85	10464.54
474.03	10803.91
474.21	10841.36
474.39	10839.02
474.57	11066.05
474.75	11059.03
474.93	11066.05
475.12	11094.14
475.30	11007.54
475.48	11061.37
475.66	11154.99
475.84	11077.76
476.02	11220.53
476.20	11276.70
476.38	11580.97
476.56	11775.24
476.74	11721.40
476.92	11489.69
477.10	11651.19
477.28	11791.62
477.46	11922.69
477.64	12269.09
477.82	11990.56
478.00	12257.39
478.18	12521.87
478.36	12233.98
478.54	12470.37
478.72	12503.14
478.90	12615.49
479.08	13090.62
479.26	12903.37
479.44	12922.10
479.62	13109.34
479.80	12959.55
479.98	13373.82
480.16	13242.75
480.34	13558.72
480.52	13406.59
480.70	13593.83
480.88	13390.20
481.06	13645.32
481.24	13839.59
481.41	14167.26
481.59	14111.09
481.77	14136.84
481.95	14286.63
482.13	14380.25
482.31	14534.73
482.49	15033.26
482.67	14501.96
482.85	14665.80
483.03	14806.23
483.21	14909.21
483.39	15346.89
483.57	15267.31
483.74	15372.64
483.92	15477.96
484.10	15176.03
484.28	15646.48
484.46	16081.82
484.64	16109.91
484.82	15597.33
485.00	16011.60
485.18	16416.52
485.35	16531.20
485.53	15990.54
485.71	15943.73
485.89	16278.43
486.07	16346.30
486.25	16442.26
486.43	16755.90
486.61	16856.54
486.78	16915.05
486.96	17224.00
487.14	17462.74
487.32	17291.88
487.50	17900.42
487.68	17827.86
487.85	18202.35
488.03	18127.45
488.21	18167.24
488.39	18178.94
488.57	18260.86
488.75	18436.40
488.92	18635.35
489.10	19241.54
489.28	19194.73
489.46	19606.67
489.64	19286.01
489.81	19648.80
489.99	19988.18
490.17	20044.35
490.35	20039.67
490.53	19978.81
490.70	20299.47
490.88	20177.76
491.06	20535.86
491.24	20580.33
491.41	20498.41
491.59	20606.08
491.77	20465.64
491.95	20652.89
492.13	20999.29
492.30	21266.11
492.48	21366.75
492.66	21448.67
492.84	21509.52
493.01	21778.68
493.19	21635.91
493.37	21994.01
493.54	22277.22
493.72	22216.36
493.90	22384.88
494.08	22906.82
494.25	22874.06
494.43	23030.87
494.61	23180.67
494.79	23297.69
494.96	23091.73
495.14	23218.11
495.32	23447.49
495.49	23658.14
495.67	23295.35
495.85	23721.33
496.02	23702.61
496.20	24102.84
496.38	24173.05
496.55	24002.19
496.73	24692.65
496.91	24250.29
497.09	24842.45
497.26	24868.19
497.44	24809.68
497.62	25111.61
497.79	25025.01
497.97	24833.08
498.14	24512.43
498.32	25413.54
498.50	25151.40
498.67	25769.30
498.85	25708.44
499.03	25766.96
499.20	25977.61
499.38	25834.83
499.56	26253.79
499.73	25998.67
499.91	26143.78
500.08	26263.15
500.26	25961.22
500.44	26118.04
500.61	26242.09
500.79	26415.29
500.97	26611.89
501.14	27161.92
501.32	26808.50
501.49	26661.04
501.67	26712.53
501.84	27007.44
502.02	27651.09
502.20	27552.79
502.37	27520.02
502.55	27442.78
502.72	27756.41
502.90	27828.97
503.07	27367.88
503.25	27796.20
503.43	27681.52
503.60	27733.01
503.78	28011.53
503.95	27543.42
504.13	27927.27
504.30	28587.30
504.48	28304.10
504.65	28496.02
504.83	28797.95
505.01	28741.78
505.18	28847.10
505.36	28659.86
505.53	29331.59
505.71	29336.27
505.88	29317.55
506.06	29036.69
506.23	29333.93
506.41	29118.60
506.58	29483.73
506.76	29605.44
506.93	29663.95
507.11	29369.04
507.28	29886.30
507.46	29752.89
507.63	29706.08
507.81	30019.71
507.98	29972.90
508.16	29722.46
508.33	30164.82
508.50	30352.07
508.68	30668.04
508.85	30756.98
509.03	30497.18
509.20	30876.35
509.38	30874.01
509.55	30738.26
509.73	31101.04
509.90	31262.54
510.08	31061.25
510.25	30792.09
510.42	31330.41
510.60	31070.61
510.77	31655.75
510.95	31522.34
511.12	31585.53
511.30	31824.26
511.47	32610.68
511.64	32280.67
511.82	32058.32
511.99	31597.23
512.17	32287.69
512.34	31988.10
512.51	31800.86
512.69	31875.76
512.86	32524.08
513.04	32542.81
513.21	32222.16
513.38	32449.19
513.56	32414.08
513.73	32311.10
513.90	32514.72
514.08	32430.46
514.25	33074.11
514.43	32615.37
514.60	32519.40
514.77	32952.40
514.95	33472.00
515.12	33111.56
515.29	33446.26
515.47	33340.93
515.64	33780.95
515.81	33766.91
515.99	33783.29
516.16	33008.58
516.33	33839.47
516.51	33362.00
516.68	32811.97
516.85	32900.91
517.03	33287.10
517.20	33574.98
517.37	33869.89
517.54	34073.52
517.72	34078.20
517.89	34174.16
518.06	33813.72
518.24	33621.80
518.41	34031.39
518.58	34426.94
518.75	34452.69
518.93	34597.80
519.10	34279.49
519.27	34431.62
519.45	34644.61
519.62	34934.84
519.79	34866.96
519.96	35215.70
520.14	35189.95
520.31	35182.93
520.48	35021.44
520.65	34960.58
520.83	35405.28
521.00	35538.69
521.17	35744.66
521.34	35484.86
521.52	35744.66
521.69	35536.35
521.86	35887.43
522.03	36109.78
522.20	36465.55
522.38	36074.68
522.55	36081.70
522.72	36025.53
522.89	36161.28
523.07	36039.57
523.24	36004.46
523.41	36421.08
523.58	36409.37
523.75	36765.14
523.92	37027.28
524.10	36987.49
524.27	36577.89
524.44	36973.44
524.61	37013.23
524.78	37069.40
524.96	36563.85
525.13	37020.25
525.30	37029.62
525.47	37380.70
525.64	37078.77
525.81	37364.31
525.98	37071.75
526.16	37090.47
526.33	36982.80
526.50	37427.51
526.67	37043.66
526.84	37450.91
527.01	37361.97
527.18	37446.23
527.36	37975.19
527.53	37736.46
527.70	38085.20
527.87	38094.56
528.04	37743.48
528.21	38246.69
528.38	38022.00
528.55	37919.02
528.72	38588.41
528.89	38766.29
529.07	38246.69
529.24	38256.06
529.41	38176.48
529.58	38667.99
529.75	38319.25
529.92	38560.33
530.09	38799.06
530.26	38794.38
530.43	39000.35
530.60	38279.46
530.77	38859.91
530.94	39108.01
531.11	38995.67
531.28	39367.81
531.46	39431.01
531.63	39215.68
531.80	38614.16
531.97	38993.32
532.14	39262.49
532.31	38656.29
532.48	39337.38
532.65	39522.29
532.82	39000.35
532.99	39440.37
533.16	39700.17
533.33	39524.63
533.50	39049.50
533.67	39309.30
533.84	39845.28
534.01	39686.12
534.18	39793.79
534.35	40212.74
534.52	39571.44
534.69	39711.87
534.86	39622.93
535.03	39999.76
535.20	40694.89
535.37	40673.83
535.54	40549.78
535.71	40458.50
535.88	40479.57
536.05	40336.79
536.22	40275.94
536.38	40411.69
536.55	40481.91
536.72	40507.65
536.89	39966.99
537.06	40371.90
537.23	40989.80
537.40	40711.28
537.57	40432.75
537.74	40877.46
537.91	40704.26
538.08	40971.08
538.25	40727.66
538.42	41118.53
538.59	41116.19
538.75	40926.61
538.92	40945.33
539.09	40575.53
539.26	41081.08
539.43	41310.46
539.60	40697.24
539.77	41113.85
539.94	41088.10
540.11	41048.32
540.28	41057.68
540.44	40905.54
540.61	41209.81
540.78	41053.00
540.95	40793.20
541.12	41296.41
541.29	41193.43
541.46	41390.03
541.62	41684.94
541.79	41385.35
541.96	41511.74
542.13	41118.53
542.30	41820.69
542.47	41418.12
542.63	41893.25
542.80	41549.19
542.97	42129.64
543.14	42157.73
543.31	41951.76
543.48	42410.51
543.64	42403.49
543.81	42253.69
543.98	42274.76
544.15	42225.60
544.32	42234.97
544.48	42745.20
544.65	42258.37
544.82	42841.17
544.99	42543.92
545.16	42431.57
545.32	42520.51
545.49	42990.96
545.66	43115.01
545.83	42862.23
546.00	42988.62
546.16	42525.19
546.33	42623.50
546.50	42595.41
546.67	42925.42
546.83	41989.21
547.00	43161.82
547.17	42799.04
547.34	42948.83
547.50	43072.88
547.67	43161.82
547.84	43077.56
548.00	43430.98
548.17	43386.51
548.34	43810.15
548.51	43707.16
548.67	43412.26
548.84	43344.38
549.01	43276.51
549.18	43007.34
549.34	44020.80
549.51	43365.45
549.68	43702.48
549.84	43515.24
550.01	43746.95
550.18	43859.30
550.34	43751.63
550.51	43442.68
550.68	43674.40
550.84	43323.32
551.01	43817.17
551.18	43576.09
551.34	43667.37
551.51	43995.05
551.68	44069.95
551.84	44135.48
552.01	43770.36
552.18	43662.69
552.34	43922.49
552.51	43943.56
552.68	43564.39
552.84	44191.65
553.01	43959.94
553.18	44062.93
553.34	43988.03
553.51	44009.09
553.67	44282.94
553.84	44634.02
554.01	44334.43
554.17	44568.48
554.34	44568.48
554.51	44093.35
554.67	44388.26
554.84	44395.28
555.00	44238.47
555.17	44030.16
555.33	44252.51
555.50	44149.53
555.67	44528.69
555.83	44247.83
556.00	44722.96
556.16	44584.86
556.33	44346.13
556.50	44821.26
556.66	44697.21
556.83	44140.16
556.99	44982.76
557.16	44823.60
557.32	44861.05
557.49	44744.02
557.65	44376.56
557.82	44641.04
557.98	44346.13
558.15	44776.79
558.32	45083.40
558.48	44788.49
558.65	44610.61
558.81	44446.77
558.98	44587.21
559.14	44545.08
559.31	44868.07
559.47	44732.32
559.64	44957.01
559.80	45067.02
559.97	45078.72
560.13	44535.71
560.30	44814.24
560.46	45207.45
560.63	45294.05
560.79	45088.08
560.96	45134.89
561.12	45141.91
561.29	44648.06
561.45	44940.63
561.61	45205.11
561.78	44844.66
561.94	45024.89
562.11	44875.09
562.27	44818.92
562.44	45001.48
562.60	45270.64
562.77	45170.00
562.93	45116.17
563.10	45191.06
563.26	44912.54
563.42	45191.06
563.59	44987.44
563.75	45045.95
563.92	45312.77
564.08	45521.08
564.24	45441.50
564.41	45469.59
564.57	45008.50
564.74	45282.34
564.90	45315.11
565.07	45610.02
565.23	45338.52
565.39	45455.54
565.56	45310.43
565.72	44905.52
565.88	45205.11
566.05	45113.83
566.21	45043.61
566.38	45261.28
566.54	45455.54
566.70	45563.21
566.87	45607.68
567.03	45331.50
567.19	46106.21
567.36	45605.34
567.52	45588.95
567.68	46061.74
567.85	45338.52
568.01	45624.06
568.17	45612.36
568.34	45272.98
568.50	45558.53
568.66	45354.90
568.83	45287.03
568.99	45518.74
569.15	45556.19
569.32	45453.20
569.48	45329.16
569.64	45343.20
569.81	45371.28
569.97	45474.27
570.13	45647.47
570.30	45500.01
570.46	45155.96
570.62	45345.54
570.78	44938.29
570.95	45345.54
571.11	45448.52
571.27	45546.82
571.43	45352.56
571.60	45509.38
571.76	45406.39
571.92	45834.71
572.09	45429.80
572.25	45696.62
572.41	45619.38
572.57	45628.74
572.74	45975.14
572.90	45935.35
573.06	45631.08
573.22	45797.26
573.38	45556.19
573.55	45523.42
573.71	45797.26
573.87	45951.74
574.03	46110.89
574.20	45827.69
574.36	45593.64
574.52	45752.79
574.68	45940.04
574.84	46115.58
575.01	45619.38
575.17	45518.74
575.33	45497.67
575.49	45684.92
575.65	45797.26
575.82	45516.40
575.98	45640.45
576.14	45790.24
576.30	45780.88
576.46	45631.08
576.62	45717.68
576.79	45350.22
576.95	45443.84
577.11	45773.86
577.27	45509.38
577.43	45794.92
577.59	45649.81
577.75	45532.78
577.92	45085.74
578.08	45397.03
578.24	45577.25
578.40	45631.08
578.56	45312.77
578.72	45684.92
578.88	46234.94
579.04	45661.51
579.21	45834.71
579.37	45551.51
579.53	45764.49
579.69	45291.71
579.85	45808.96
580.01	45521.08
580.17	45797.26
580.33	45851.09
580.49	45727.05
580.65	45813.65
580.82	45663.85
580.98	45710.66
581.14	45240.21
581.30	45780.88
581.46	45998.55
581.62	45860.46
581.78	45846.41
581.94	46263.03
582.10	45855.78
582.26	46143.66
582.42	45832.37
582.58	46199.83
582.74	45626.40
582.90	45705.98
583.06	46073.45
583.22	46253.67
583.38	46211.54
583.54	46066.42
583.70	45928.33
583.86	45956.42
584.02	45659.17
584.18	45846.41
584.34	45577.25
584.50	45846.41
584.66	45755.13
584.82	45780.88
584.98	45940.04
585.14	46120.26
585.30	45619.38
585.46	46234.94
585.62	45406.39
585.78	45787.90
585.94	45153.62
586.10	45635.77
586.26	45563.21
586.42	46302.82
586.58	45986.85
586.74	45977.48
586.90	45801.94
587.06	45446.18
587.22	45813.65
587.38	45759.81
587.54	46181.11
587.70	46211.54
587.86	46031.32
588.02	46248.99
588.18	46188.13
588.34	45331.50
588.49	45432.14
588.65	45455.54
588.81	45064.67
588.97	45752.79
589.13	45579.59
589.29	45539.80
589.45	45996.21
589.61	46218.56
589.77	45776.20
589.93	45855.78
590.08	46445.59
590.24	46209.20
590.40	46323.88
590.56	46370.69
590.72	45848.75
590.88	45631.08
591.04	45549.17
591.20	46344.95
591.35	46358.99
591.51	46302.82
591.67	45951.74
591.83	46085.15
591.99	45635.77
592.15	45970.46
592.31	46073.45
592.46	45958.76
592.62	46195.15
592.78	46117.92
592.94	46050.04
593.10	46082.81
593.26	46389.42
593.41	46129.62
593.57	45434.48
593.73	45801.94
593.89	46300.48
594.05	46267.71
594.20	46103.87
594.36	45773.86
594.52	46110.89
594.68	45928.33
594.84	46265.37
594.99	45895.56
595.15	46143.66
595.31	46146.00
595.47	46005.57
595.62	46246.65
595.78	46202.18
595.94	46443.25
596.10	46101.53
596.25	46047.70
596.41	46146.00
596.57	45963.44
596.73	46602.41
596.88	45551.51
597.04	45993.87
597.20	45890.88
597.36	46047.70
597.51	46562.62
597.67	46260.69
597.83	46010.25
597.99	46225.58
598.14	45839.39
598.30	46286.43
598.46	46623.47
598.61	46274.73
598.77	46033.66
598.93	46003.23
599.09	45996.21
599.24	46639.86
599.40	46237.28
599.56	46263.03
599.71	46080.47
599.87	46607.09
600.03	45771.52
600.18	45787.90
600.34	45921.31
600.50	46286.43
600.65	46033.66
600.81	46382.40
600.97	45928.33
601.12	46183.45
601.28	45823.01
601.44	45977.48
601.59	46007.91
601.75	45911.95
601.91	46078.13
602.06	45787.90
602.22	46197.49
602.37	46279.41
602.53	45951.74
602.69	46241.96
602.84	46099.19
603.00	45708.32
603.16	45916.63
603.31	46059.40
603.47	46036.00
603.62	45811.31
603.78	46101.53
603.94	46361.33
604.09	46204.52
604.25	46354.31
604.40	45553.85
604.56	46349.63
604.71	46438.57
604.87	45687.26
605.03	46120.26
605.18	46054.72
605.34	45439.16
605.49	45731.73
605.65	45694.28
605.80	45869.82
605.96	45989.19
606.12	45572.57
606.27	46412.82
606.43	45713.00
606.58	45731.73
606.74	45979.82
606.89	45560.87
607.05	45567.89
607.20	45982.16
607.36	45757.47
607.51	45986.85
607.67	46164.73
607.82	46036.00
607.98	45759.81
608.13	45446.18
608.29	45757.47
608.44	45483.63
608.60	45184.04
608.75	45553.85
608.91	45670.87
609.06	45331.50
609.22	45804.28
609.37	45319.79
609.53	45769.18
609.68	45645.13
609.84	45654.49
609.99	45654.49
610.15	45525.76
610.30	45027.23
610.46	45280.00
610.61	45301.07
610.76	45727.05
610.92	45518.74
611.07	45478.95
611.23	45081.06
611.38	45638.11
611.54	45331.50
611.69	44825.94
611.84	44889.13
612.00	45221.49
612.15	45425.12
612.31	45340.86
612.46	45010.84
612.62	45387.67
612.77	45343.20
612.92	45256.60
613.08	45530.44
613.23	44807.22
613.39	45022.54
613.54	44699.55
613.69	44933.60
613.85	44903.18
614.00	45125.53
614.15	45052.97
614.31	45102.12
614.46	45394.69
614.62	44856.37
614.77	44999.14
614.92	44774.45
615.08	44411.67
615.23	44837.64
615.38	44765.09
615.54	44877.43
615.69	44465.50
615.84	44655.08
616.00	44938.29
616.15	44982.76
616.30	44718.28
616.46	44194.00
616.61	44629.34
616.76	44509.97
616.92	44212.72
617.07	44053.56
617.22	44470.18
617.37	44184.63
617.53	44549.76
617.68	44636.36
617.83	44360.17
617.99	44280.60
618.14	44067.61
618.29	44140.16
618.45	44371.88
618.60	44210.38
618.75	44119.10
618.90	43711.84
619.06	44231.44
619.21	43992.71
619.36	44629.34
619.51	44210.38
619.67	43941.22
619.82	44030.16
619.97	44236.12
620.12	43496.52
620.28	43571.41
620.43	43878.02
620.58	44318.04
620.73	43962.28
620.89	43863.98
621.04	44250.17
621.19	44011.43
621.34	43782.06
621.49	43716.53
621.65	43969.30
621.80	43849.94
621.95	43913.13
622.10	43498.86
622.25	43407.58
622.41	43842.92
622.56	43955.26
622.71	43887.39
622.86	43744.61
623.01	43592.48
623.16	43246.08
623.32	43557.37
623.47	43306.93
623.62	43636.95
623.77	43023.73
623.92	43601.84
624.07	43489.49
624.23	42920.74
624.38	42682.01
624.53	43225.01
624.68	43152.46
624.83	43079.90
624.98	42756.91
625.13	43150.12
625.29	43100.97
625.44	42899.68
625.59	43133.73
625.74	42845.85
625.89	43063.52
626.04	43257.78
626.19	43026.07
626.34	43026.07
626.49	42899.68
626.65	43035.43
626.80	42712.44
626.95	42773.29
627.10	42801.38
627.25	42426.89
627.40	42033.68
627.55	41991.55
627.70	42176.45
627.85	42506.47
628.00	41918.99
628.15	42595.41
628.30	42464.34
628.45	42731.16
628.60	42693.71
628.76	42508.81
628.91	41900.27
629.06	42223.26
629.21	42356.67
629.36	42003.25
629.51	41940.06
629.66	42408.17
629.81	41937.72
629.96	42206.88
630.11	42054.75
630.26	42469.02
630.41	42342.63
630.56	42284.12
630.71	42335.61
630.86	41694.30
631.01	41897.93
631.16	41839.42
631.31	41593.66
631.46	41687.28
631.61	41883.89
631.76	41970.49
631.91	42047.72
632.06	41633.45
632.21	42153.05
632.36	41883.89
632.51	41319.82
632.66	41741.11
632.81	41565.57
632.96	41670.90
633.10	41991.55
633.25	41701.32
633.40	41570.25
633.55	41572.60
633.70	41127.89
633.85	41319.82
634.00	41998.57
634.15	41521.10
634.30	41593.66
634.45	41322.16
634.60	41148.96
634.75	41420.46
634.90	40980.44
635.05	41310.46
635.19	41397.06
635.34	41528.13
635.49	41352.58
635.64	41230.88
635.79	41434.50
635.94	40980.44
636.09	41081.08
636.24	40912.56
636.39	40767.45
636.53	40861.07
636.68	40889.16
636.83	41027.25
636.98	40996.82
637.13	40774.47
637.28	41275.35
637.43	41392.37
637.57	41020.23
637.72	41053.00
637.87	40849.37
638.02	40561.48
638.17	40517.01
638.32	41057.68
638.46	40994.48
638.61	40442.12
638.76	40376.58
638.91	40964.06
639.06	40856.39
639.20	40870.43
639.35	40802.56
639.50	40893.84
639.65	40954.69
639.80	40395.31
639.94	40339.13
640.09	40453.82
640.24	40179.98
640.39	40259.55
640.54	40481.91
640.68	39892.09
640.83	40184.66
640.98	40184.66
641.13	40156.57
641.27	40175.30
641.42	39952.94
641.57	39990.39
641.72	40058.27
641.86	39643.99
642.01	39770.38
642.16	40058.27
642.31	39789.11
642.45	39936.56
642.60	39665.06
642.75	39536.33
642.90	40212.74
643.04	40247.85
643.19	39838.26
643.34	39543.35
643.48	39548.03
643.63	39700.17
643.78	39693.15
643.93	40060.61
644.07	39711.87
644.22	39653.36
644.37	39615.91
644.51	39515.26
644.66	39849.96
644.81	39248.44
644.95	39852.30
645.10	39442.71
645.25	39662.72
645.39	39646.33
645.54	39379.51
645.69	39241.42
645.83	39646.33
645.98	39510.58
646.13	39323.34
646.27	39557.39
646.42	38948.85
646.57	39068.22
646.71	39105.67
646.86	38955.88
647.00	39531.65
647.15	39096.31
647.30	38813.10
647.44	39072.90
647.59	38628.20
647.74	38937.15
647.88	39199.29
648.03	39229.72
648.17	38888.00
648.32	38637.56
648.47	38810.76
648.61	38759.27
648.76	38967.58
648.90	39093.97
649.05	38775.66
649.20	38539.26
649.34	38724.16
649.49	38611.82
649.63	37961.15
649.78	39058.86
649.92	38253.72
650.07	39136.10
650.21	38878.64
650.36	38754.59
650.51	38969.92
650.65	38932.47
650.80	38778.00
650.94	38932.47
651.09	38920.77
651.23	38417.55
651.38	37993.92
651.52	38560.33
651.67	38216.27
651.81	38157.75
651.96	38038.39
652.10	38204.56
652.25	38078.18
652.39	38115.62
652.54	38024.34
652.68	38141.37
652.83	38052.43
652.97	38614.16
653.12	38148.39
653.26	38258.40
653.41	37855.82
653.55	37858.17
653.70	38305.21
653.84	38120.31
653.99	37823.06
654.13	37694.33
654.27	38014.98
654.42	37706.03
654.56	37635.81
654.71	38054.77
654.85	37860.51
655.00	38064.13
655.14	37626.45
655.29	37467.30
655.43	37539.85
655.57	37378.36
655.72	37179.41
655.86	37289.42
656.01	37088.13
656.15	36957.06
656.30	37191.11
656.44	37083.45
656.58	37057.70
656.73	37696.67
656.87	37060.04
657.01	36985.15
657.16	37188.77
657.30	37048.34
657.45	37034.30
657.59	37095.15
657.73	37296.44
657.88	37266.01
658.02	37078.77
658.16	37172.39
658.31	37312.82
658.45	37373.67
658.60	36971.10
658.74	37127.92
658.88	37029.62
659.03	37202.82
659.17	36994.51
659.31	36542.78
659.46	36566.19
659.60	36954.72
659.74	36666.83
659.89	36678.54
660.03	36161.28
660.17	36690.24
660.32	36741.73
660.46	36788.54
660.60	36758.11
660.74	36177.66
660.89	36685.56
661.03	36074.68
661.17	36432.78
661.32	36233.83
661.46	35887.43
661.60	36219.79
661.74	35899.14
661.89	35896.80
662.03	35955.31
662.17	35962.33
662.31	35934.24
662.46	36374.27
662.60	36308.73
662.74	35845.30
662.88	35852.33
663.03	35693.17
663.17	35824.24
663.31	35339.75
663.45	35468.48
663.60	35725.94
663.74	35524.65
663.88	35079.95
664.02	35330.39
664.17	35388.90
664.31	35180.59
664.45	34827.17
664.59	35124.42
664.73	34974.63
664.88	34946.54
665.02	34593.12
665.16	34660.99
665.30	34904.41
665.44	34593.12
665.59	34630.57
665.73	34843.56
665.87	34312.25
666.01	34464.39
666.15	34412.90
666.29	34836.53
666.44	34450.35
666.58	34520.56
666.72	34019.69
666.86	34202.25
667.00	34237.36
667.14	34190.55
667.28	34272.46
667.43	34450.35
667.57	34403.53
667.71	34082.88
667.85	34340.34
667.99	33787.97
668.13	33832.44
668.27	34003.30
668.41	34108.63
668.56	33628.82
668.70	33841.81
668.84	33544.56
668.98	33125.60
669.12	33013.26
669.26	33591.37
669.40	33149.01
669.54	33303.48
669.68	33003.89
669.82	33219.22
669.96	32893.89
670.10	33319.87
670.25	32931.34
670.39	32849.42
670.53	32793.25
670.67	32716.01
670.81	32676.22
670.95	32414.08
671.09	32687.92
671.23	32498.34
671.37	32634.09
671.51	32510.04
671.65	32402.38
671.79	32055.98
671.93	32137.90
672.07	32212.79
672.21	32170.66
672.35	32219.81
672.49	32039.59
672.63	31915.54
672.77	31859.37
672.91	31885.12
673.05	32135.56
673.19	31742.35
673.33	31716.60
673.47	31374.88
673.61	31459.14
673.75	31360.84
673.89	31110.40
674.03	30866.98
674.17	31204.02
674.31	31089.34
674.45	30995.71
674.59	31271.90
674.73	31220.41
674.87	31522.34
675.01	30815.49
675.15	31096.36
675.29	30656.34
675.43	30918.48
675.56	30541.65
675.70	30576.76
675.84	30551.01
675.98	29661.61
676.12	30333.34
676.26	30377.81
676.40	30026.73
676.54	30632.93
676.68	30265.47
676.82	29516.50
676.96	30005.67
677.10	29862.90
677.23	29429.90
677.37	29802.04
677.51	29450.96
677.65	29413.51
677.79	28861.15
677.93	29032.00
678.07	28858.81
678.21	28524.11
678.34	28629.43
678.48	28830.72
678.62	28484.32
678.76	28400.06
678.90	28187.07
679.04	28538.15
679.18	28313.46
679.31	28105.15
679.45	27838.33
679.59	28224.52
679.73	27784.50
679.87	28020.89
680.00	27997.49
680.14	27931.95
680.28	27814.93
680.42	27700.24
680.56	27417.04
680.70	27613.64
680.83	27730.67
680.97	26977.01
681.11	27225.11
681.25	26955.95
681.39	27028.51
681.52	27325.75
681.66	26726.58
681.80	26649.34
681.94	26515.93
682.07	26565.08
682.21	26408.26
682.35	26518.27
682.49	26101.65
682.62	26511.25
682.76	26115.70
682.90	25947.18
683.04	26195.28
683.17	26078.25
683.31	26008.03
683.45	25701.42
683.59	25872.28
683.72	25633.55
683.86	25736.53
684.00	25497.80
684.13	25589.08
684.27	25050.75
684.41	25289.49
684.55	25078.84
684.68	24945.43
684.82	24938.41
684.96	25109.27
685.09	24755.85
685.23	24400.08
685.37	24917.34
685.50	24861.17
685.64	24601.37
685.78	24063.05
685.91	24006.87
686.05	24004.53
686.19	23627.71
686.32	23770.48
686.46	23559.83
686.60	23381.95
686.73	23063.64
686.87	23110.45
687.01	23171.30
687.14	23019.17
687.28	23023.85
687.42	23105.77
687.55	23157.26
687.69	23143.22
687.82	22822.56
687.96	22995.76
688.10	22555.74
688.23	22277.22
688.37	22733.62
688.50	22427.01
688.64	22277.22
688.78	22328.71
688.91	22223.39
689.05	22288.92
689.18	22281.90
689.32	21902.73
689.46	21813.79
689.59	22284.24
689.73	22190.62
689.86	21696.77
690.00	21493.14
690.13	21778.68
690.27	21481.44
690.41	21357.39
690.54	21146.74
690.68	21216.96
690.81	21167.80
690.95	21156.10
691.08	21022.69
691.22	21053.12
691.35	20947.79
691.49	21062.48
691.62	20746.51
691.76	20725.44
691.89	20655.23
692.03	20599.05
692.16	20503.09
692.30	20217.55
692.43	20088.82
692.57	19873.49
692.70	19974.13
692.84	19548.15
692.97	20039.67
693.11	19559.86
693.24	19756.46
693.38	19735.40
693.51	19723.69
693.65	19861.79
693.78	19459.21
693.92	19295.38
694.05	19316.44
694.19	19323.46
694.32	18869.40
694.45	19166.65
694.59	19185.37
694.72	19026.21
694.86	18836.63
694.99	18363.84
695.13	18855.36
695.26	18539.38
695.39	18328.74
695.53	18878.76
695.66	18345.12
695.80	18256.18
695.93	18324.05
696.07	18211.71
696.20	18221.07
696.33	18026.81
696.47	18188.30
696.60	17954.25
696.73	17624.23
696.87	17652.32
697.00	17947.23
697.14	17572.74
697.27	17371.46
697.40	17291.88
697.54	17404.22
697.67	17280.18
697.80	17280.18
697.94	16681.00
698.07	16891.65
698.21	17114.00
698.34	17020.38
698.47	17123.36
698.61	16758.24
698.74	16673.98
698.87	16709.08
699.01	16493.76
699.14	16308.85
699.27	16224.59
699.40	16280.77
699.54	16280.77
699.67	16100.55
699.80	16175.44
699.94	15934.37
700.07	16306.51
700.20	16276.09
700.34	15908.62
700.47	16079.48
700.60	15798.62
700.73	15953.09
700.87	15702.65
701.00	15447.54
701.13	15449.88
701.26	15496.69
701.40	15260.29
701.53	15300.08
701.66	15346.89
701.79	15112.84
701.93	15087.09
702.06	15122.20
702.19	14569.83
702.32	14817.93
702.46	14726.65
702.59	14743.03
702.72	14726.65
702.85	14827.29
702.99	14815.59
703.12	14775.80
703.25	14368.55
703.38	14417.70
703.51	14487.92
703.65	14565.15
703.78	14193.01
703.91	13949.59
704.04	13975.34
704.17	14003.43
704.31	13977.68
704.44	13804.48
704.57	13792.78
704.70	13561.06
704.83	13502.55
704.96	13757.67
705.10	13584.47
705.23	13460.42
>>>>>End Processed Spectral Data<<<<<
