SpectraSuite Data File
++++++++++++++++++++++++++++++++++++
Date: Fri Oct 25 11:25:45 EDT 2013
User: price-jones
Dark Spectrum Present: No
Reference Spectrum Present: No
Number of Sampled Component Spectra: 1
Spectrometers: USB2+H05261
Integration Time (usec): 100000 (USB2+H05261)
Spectra Averaged: 1 (USB2+H05261)
Boxcar Smoothing: 0 (USB2+H05261)
Correct for Electrical Dark: No (USB2+H05261)
Strobe/Lamp Enabled: No (USB2+H05261)
Correct for Detector Non-linearity: No (USB2+H05261)
Correct for Stray Light: No (USB2+H05261)
Number of Pixels in Processed Spectrum: 2048
>>>>>Begin Processed Spectral Data<<<<<
365.73	238.73
365.92	238.73
366.12	238.73
366.32	173.20
366.52	147.45
366.72	149.79
366.91	152.13
367.11	133.41
367.31	149.79
367.51	98.30
367.70	117.03
367.90	81.92
368.10	46.81
368.30	107.66
368.49	128.73
368.69	140.43
368.89	180.22
369.09	149.79
369.28	126.39
369.48	168.52
369.68	203.63
369.87	250.44
370.07	220.01
370.27	222.35
370.47	322.99
370.66	578.11
370.86	557.05
371.06	697.48
371.25	683.44
371.45	638.97
371.65	624.92
371.84	653.01
372.04	709.18
372.24	667.05
372.44	711.52
372.63	753.65
372.83	737.27
373.03	697.48
373.22	741.95
373.42	821.53
373.62	739.61
373.81	805.14
374.01	760.67
374.21	837.91
374.40	772.38
374.60	809.83
374.79	812.17
374.99	755.99
375.19	896.43
375.38	802.80
375.58	837.91
375.78	912.81
375.97	821.53
376.17	950.26
376.37	856.64
376.56	861.32
376.76	833.23
376.95	898.77
377.15	917.49
377.35	877.70
377.54	882.38
377.74	931.53
377.93	922.17
378.13	896.43
378.33	917.49
378.52	931.53
378.72	915.15
378.91	1062.60
379.11	926.85
379.31	922.17
379.50	894.08
379.70	1029.84
379.89	1001.75
380.09	987.71
380.28	933.87
380.48	978.34
380.68	950.26
380.87	992.39
381.07	936.21
381.26	1032.18
381.46	1008.77
381.65	1076.65
381.85	1034.52
382.04	1064.94
382.24	1057.92
382.43	994.73
382.63	1076.65
382.83	1135.16
383.02	1100.05
383.22	1062.60
383.41	1081.33
383.61	1057.92
383.80	1247.51
384.00	1128.14
384.19	1078.99
384.39	1146.86
384.58	1118.78
384.78	1172.61
384.97	1153.88
385.17	1233.46
385.36	1121.12
385.56	1200.69
385.75	1097.71
385.95	1123.46
386.14	1259.21
386.34	1186.65
386.53	1198.35
386.72	1224.10
386.92	1235.80
387.11	1233.46
387.31	1203.04
387.50	1238.14
387.70	1233.46
387.89	1341.13
388.09	1259.21
388.28	1289.64
388.48	1362.19
388.67	1331.76
388.86	1308.36
389.06	1205.38
389.25	1345.81
389.45	1378.58
389.64	1322.40
389.84	1362.19
390.03	1329.42
390.22	1406.66
390.42	1413.68
390.61	1280.27
390.81	1380.92
391.00	1406.66
391.19	1481.56
391.39	1420.71
391.58	1495.60
391.78	1467.52
391.97	1542.41
392.16	1423.05
392.36	1570.50
392.55	1537.73
392.75	1507.30
392.94	1504.96
393.13	1507.30
393.33	1465.18
393.52	1547.09
393.71	1563.48
393.91	1535.39
394.10	1575.18
394.29	1409.00
394.49	1589.22
394.68	1568.16
394.88	1589.22
395.07	1659.44
395.26	1654.76
395.46	1708.59
395.65	1664.12
395.84	1710.93
396.04	1774.13
396.23	1769.44
396.42	1748.38
396.62	1776.47
396.81	1769.44
397.00	1757.74
397.19	1788.17
397.39	1837.32
397.58	1893.49
397.77	1837.32
397.97	1886.47
398.16	1930.94
398.35	1767.10
398.55	1778.81
398.74	1949.67
398.93	1982.43
399.12	1874.77
399.32	1870.09
399.51	1998.82
399.70	1975.41
399.90	1886.47
400.09	1940.30
400.28	2026.90
400.47	1923.92
400.67	2097.12
400.86	2052.65
401.05	2052.65
401.24	2092.44
401.44	2085.42
401.63	1994.14
401.82	2167.34
402.01	2134.57
402.21	2099.46
402.40	2085.42
402.59	2101.80
402.78	2244.57
402.97	2235.21
403.17	2176.70
403.36	2265.64
403.55	2228.19
403.74	2282.02
403.93	2401.39
404.13	2326.49
404.32	2267.98
404.51	2284.36
404.70	2469.27
404.89	2319.47
405.09	2410.75
405.28	2424.80
405.47	2532.46
405.66	2518.42
405.85	2523.10
406.05	2502.03
406.24	2572.25
406.43	2654.17
406.62	2569.91
406.81	2719.70
407.00	2609.70
407.20	2518.42
407.39	2722.04
407.58	2731.41
407.77	2614.38
407.96	2740.77
408.15	2656.51
408.34	2736.09
408.54	2712.68
408.73	2682.25
408.92	2792.26
409.11	2834.39
409.30	2881.20
409.49	2850.77
409.68	2883.54
409.87	2958.44
410.07	2937.37
410.26	3054.40
410.45	2944.39
410.64	3023.97
410.83	3075.46
411.02	2935.03
411.21	3136.32
411.40	3112.91
411.59	3122.27
411.78	3105.89
411.98	3199.51
412.17	3253.34
412.36	3178.45
412.55	3272.07
412.74	3199.51
412.93	3405.48
413.12	3365.69
413.31	3581.02
413.50	3475.70
413.69	3564.64
413.88	3632.51
414.07	3569.32
414.26	3634.85
414.45	3623.15
414.64	3576.34
414.83	3623.15
415.02	3875.93
415.22	3700.39
415.41	3850.18
415.60	3852.52
415.79	3735.50
415.98	3925.08
416.17	3915.72
416.36	4032.74
416.55	4105.30
416.74	4053.81
416.93	3964.87
417.12	4152.11
417.31	4217.65
417.50	4212.96
417.69	4322.97
417.88	4238.71
418.07	4159.13
418.26	4222.33
418.45	4376.80
418.64	4414.25
418.83	4486.81
419.02	4334.67
419.21	4428.29
419.39	4664.69
419.58	4379.14
419.77	4397.87
419.96	4645.96
420.15	4603.83
420.34	4667.03
420.53	4667.03
420.72	4641.28
420.91	4739.58
421.10	4643.62
421.29	4772.35
421.48	4746.61
421.67	4524.26
421.86	4779.37
422.05	4800.44
422.24	4652.98
422.43	4861.29
422.61	4856.61
422.80	4894.06
422.99	4786.40
423.18	4847.25
423.37	5095.35
423.56	4901.08
423.75	4943.21
423.94	4819.16
424.13	4484.47
424.32	4744.27
424.50	4844.91
424.69	5116.41
424.88	4978.32
425.07	4788.74
425.26	4877.68
425.45	5088.32
425.64	4917.47
425.83	4947.89
426.01	4999.38
426.20	5125.77
426.39	4973.64
426.58	4957.25
426.77	5006.41
426.96	4994.70
427.15	5172.58
427.33	5308.34
427.52	5041.51
427.71	5336.42
427.90	5277.91
428.09	5399.62
428.28	5338.76
428.46	5233.44
428.65	5280.25
428.84	5598.56
429.03	5479.19
429.22	5397.28
429.40	5448.77
429.59	5488.56
429.78	5221.74
429.97	5263.86
430.16	5261.52
430.34	5633.67
430.53	5582.18
430.72	5575.16
430.91	5659.42
431.10	5556.43
431.28	5776.44
431.47	5631.33
431.66	5748.36
431.85	5860.70
432.03	5785.80
432.22	6045.60
432.41	6005.81
432.60	5973.05
432.79	5870.06
432.97	5980.07
433.16	6069.01
433.35	5940.28
433.54	5940.28
433.72	6188.38
433.91	6071.35
434.10	6054.97
434.28	6050.28
434.47	6139.23
434.66	6235.19
434.85	6272.64
435.03	6361.58
435.22	6211.78
435.41	6408.39
435.59	6431.79
435.78	6513.71
435.97	6466.90
436.16	6438.81
436.34	6331.15
436.53	6588.61
436.72	6642.44
436.90	6527.75
437.09	6782.87
437.28	6422.43
437.46	6473.92
437.65	6637.76
437.84	6743.08
438.02	6576.91
438.21	6773.51
438.40	6548.82
438.58	6913.94
438.77	6825.00
438.96	7056.72
439.14	7059.06
439.33	7206.51
439.52	7098.84
439.70	7122.25
439.89	7215.87
440.08	7304.81
440.26	7265.02
440.45	7356.30
440.63	7328.22
440.82	7485.03
441.01	7503.76
441.19	7583.34
441.38	7496.74
441.57	7676.96
441.75	7838.45
441.94	7913.35
442.12	7693.34
442.31	8133.36
442.50	8128.68
442.68	7941.44
442.87	8100.59
443.05	8168.47
443.24	8217.62
443.43	8084.21
443.61	8189.53
443.80	8367.42
443.98	8074.85
444.17	7831.43
444.35	8170.81
444.54	8372.10
444.73	8224.64
444.91	8290.18
445.10	8458.70
445.28	8367.42
445.47	8184.85
445.65	8322.94
445.84	8376.78
446.02	8365.07
446.21	8379.12
446.39	8344.01
446.58	8367.42
446.77	8379.12
446.95	8212.94
447.14	8521.89
447.32	8418.91
447.51	8304.22
447.69	8400.18
447.88	8341.67
448.06	8596.79
448.25	8627.21
448.43	8540.61
448.62	8559.34
448.80	8585.08
448.99	8645.94
449.17	8627.21
449.36	8671.68
449.54	8826.16
449.73	8912.76
449.91	8973.61
450.10	8798.07
450.28	9062.55
450.46	9041.49
450.65	8943.19
450.83	9034.47
451.02	8865.95
451.20	9095.32
451.39	9317.67
451.57	9123.41
451.76	8926.80
451.94	9298.95
452.13	9289.59
452.31	9245.12
452.49	8990.00
452.68	9479.17
452.86	9385.55
453.05	9483.85
453.23	9371.50
453.42	9153.84
453.60	9385.55
453.78	9439.38
453.97	9392.57
454.15	9434.70
454.34	9364.48
454.52	9572.79
454.70	9596.20
454.89	9533.00
455.07	9745.99
455.26	9820.89
455.44	10024.51
455.62	9762.37
455.81	9837.27
455.99	10171.97
456.17	9912.17
456.36	10052.60
456.54	10127.50
456.73	10115.80
456.91	10340.49
457.09	10286.65
457.28	10296.02
457.46	10431.77
457.64	10523.05
457.83	10494.96
458.01	10616.67
458.19	10740.72
458.38	10499.64
458.56	10462.19
458.74	10527.73
458.93	10597.95
459.11	10607.31
459.29	10726.68
459.48	10773.49
459.66	10586.24
459.84	10850.72
460.03	10871.79
460.21	11075.42
460.39	10951.37
460.57	11037.97
460.76	11197.12
460.94	11159.67
461.12	10953.71
461.31	11260.32
461.49	10965.41
461.67	11009.88
461.85	11255.64
462.04	11087.12
462.22	11920.35
462.40	11524.80
462.59	11400.75
462.77	11332.87
462.95	11466.28
463.13	11501.39
463.32	11705.02
463.50	11712.04
463.68	11721.40
463.86	11625.44
464.05	11651.19
464.23	11377.34
464.41	11562.25
464.59	11660.55
464.78	12231.64
464.96	12084.19
465.14	11747.15
465.32	12044.40
465.50	12018.65
465.69	12161.42
465.87	12046.74
466.05	12044.40
466.23	11988.22
466.41	12070.14
466.60	12493.78
466.78	12208.23
466.96	11999.93
467.14	12226.96
467.32	12346.33
467.51	12748.90
467.69	12086.53
467.87	12472.71
468.05	12526.55
468.23	12472.71
468.41	12437.61
468.60	12528.89
468.78	12744.22
468.96	12657.62
469.14	12748.90
469.32	13004.02
469.50	12531.23
469.69	12933.80
469.87	13123.38
470.05	13020.40
470.23	12975.93
470.41	13081.25
470.59	13256.79
470.77	13179.56
470.95	13011.04
471.14	13511.91
471.32	13099.98
471.50	13528.30
471.68	13598.51
471.86	13535.32
472.04	13532.98
472.22	13825.54
472.40	13547.02
472.58	13884.06
472.77	13839.59
472.95	13635.96
473.13	14527.71
473.31	14064.28
473.49	14136.84
473.67	14230.46
473.85	14314.72
474.03	14396.64
474.21	14291.31
474.39	14693.88
474.57	14682.18
474.75	14665.80
474.93	14822.61
475.12	14876.44
475.30	15030.92
475.48	14946.66
475.66	15243.91
475.84	15154.97
476.02	15176.03
476.20	15190.08
476.38	15534.14
476.56	15983.52
476.74	15845.43
476.92	15459.24
477.10	15749.46
477.28	16231.62
477.46	16032.67
477.64	16053.73
477.82	16580.36
478.00	16861.22
478.18	17022.72
478.36	16994.63
478.54	17355.07
478.72	17057.82
478.90	17228.68
479.08	17607.85
479.26	17752.96
479.44	17537.63
479.62	17860.63
479.80	18228.09
479.98	17989.36
480.16	18562.79
480.34	17942.55
480.52	18665.77
480.70	18689.18
480.88	18349.80
481.06	18424.70
481.24	18733.65
481.41	18787.48
481.59	19353.89
481.77	19154.94
481.95	19403.04
482.13	19807.95
482.31	19597.31
482.49	20226.91
482.67	19910.94
482.85	20355.64
483.03	20187.12
483.21	20903.32
483.39	20755.87
483.57	20900.98
483.74	21055.46
483.92	21394.84
484.10	21120.99
484.28	21441.65
484.46	22024.44
484.64	22097.00
484.82	21783.37
485.00	22104.02
485.18	22864.69
485.35	22759.37
485.53	22747.67
485.71	22892.78
485.89	23372.59
486.07	23150.24
486.25	23005.13
486.43	23250.88
486.61	23754.10
486.78	23929.64
486.96	23997.51
487.14	24240.93
487.32	24072.41
487.50	24526.47
487.68	25032.03
487.85	25240.34
488.03	25378.43
488.21	25570.35
488.39	25689.72
488.57	25979.95
488.75	26356.77
488.92	26588.49
489.10	26651.68
489.28	26864.67
489.46	27143.19
489.64	27049.57
489.81	27300.01
489.99	27370.22
490.17	27927.27
490.35	28208.14
490.53	27950.68
490.70	28367.29
490.88	28151.96
491.06	28173.03
491.24	28716.03
491.41	28769.86
491.59	29095.20
491.77	29099.88
491.95	29523.52
492.13	29495.43
492.30	30103.97
492.48	30047.80
492.66	30040.78
492.84	30068.86
493.01	30649.32
493.19	30930.18
493.37	30700.81
493.54	30642.29
493.72	31431.05
493.90	31075.29
494.08	31749.37
494.25	31651.06
494.43	31922.57
494.61	31988.10
494.79	32226.84
494.96	32032.57
495.14	32910.27
495.32	33184.12
495.49	32992.19
495.67	32889.21
495.85	33490.73
496.02	33921.38
496.20	34061.82
496.38	34153.10
496.55	34227.99
496.73	34380.13
496.91	34829.51
497.09	34513.54
497.26	34845.90
497.44	34876.32
497.62	34857.60
497.79	35379.54
497.97	35103.35
498.14	35892.12
498.32	36285.33
498.50	35990.42
498.67	36348.52
498.85	35938.93
499.03	36292.35
499.20	36334.48
499.38	36552.15
499.56	36519.38
499.73	36624.70
499.91	37392.40
500.08	37130.26
500.26	37240.26
500.44	37390.06
500.61	37703.69
500.79	37734.12
500.97	37581.98
501.14	38581.39
501.32	38408.19
501.49	38017.32
501.67	38806.08
501.84	39122.05
502.02	38696.08
502.20	39042.48
502.37	38948.85
502.55	39161.84
502.72	39328.02
502.90	39283.55
503.07	39255.46
503.25	39288.23
503.43	39667.40
503.60	39695.49
503.78	39866.34
503.95	39981.03
504.13	40289.98
504.30	40004.44
504.48	40266.58
504.65	40842.35
504.83	40509.99
505.01	41085.76
505.18	41123.21
505.36	40996.82
505.53	41235.56
505.71	41361.95
505.88	41680.26
506.06	41265.99
506.23	41895.59
506.41	41383.01
506.58	41825.37
506.76	42115.60
506.93	41982.19
507.11	41827.71
507.28	42047.72
507.46	42574.34
507.63	42220.92
507.81	43051.81
507.98	42745.20
508.16	42707.76
508.33	42721.80
508.50	43250.76
508.68	43477.79
508.85	43899.09
509.03	43470.77
509.20	43655.67
509.38	44357.83
509.55	43913.13
509.73	44205.70
509.90	44481.88
510.08	44353.15
510.25	44350.81
510.42	44231.44
510.60	44935.95
510.77	45141.91
510.95	45338.52
511.12	44905.52
511.30	44744.02
511.47	44994.46
511.64	45366.60
511.82	45640.45
511.99	45446.18
512.17	45752.79
512.34	45963.44
512.51	46227.92
512.69	46239.62
512.86	45982.16
513.04	46288.77
513.21	46239.62
513.38	46351.97
513.56	46951.15
513.73	46504.10
513.90	46967.53
514.08	46363.67
514.25	46960.51
514.43	47047.11
514.60	47236.69
514.77	46967.53
514.95	47533.94
515.12	47540.96
515.29	47707.14
515.47	47538.62
515.64	47828.85
515.81	47580.75
515.99	47917.79
516.16	48086.31
516.33	48004.39
516.51	48605.91
516.68	48100.35
516.85	48069.92
517.03	48507.60
517.20	48399.94
517.37	48570.80
517.54	48526.33
517.72	48790.81
517.89	48767.40
518.06	49200.40
518.24	49041.24
518.41	48980.39
518.58	49045.93
518.75	49134.87
518.93	49015.50
519.10	49364.24
519.27	49556.16
519.45	49701.28
519.62	49963.42
519.79	49907.24
519.96	49712.98
520.14	50035.97
520.31	49881.50
520.48	50209.17
520.65	49911.92
520.83	50204.49
521.00	50614.08
521.17	50550.89
521.34	50206.83
521.52	50644.51
521.69	50478.33
521.86	50314.50
522.03	50855.16
522.20	50801.33
522.38	51206.24
522.55	51402.85
522.72	51054.11
522.89	51143.05
523.07	51255.39
523.24	51576.04
523.41	51760.95
523.58	51068.15
523.75	51709.46
523.92	51519.87
524.10	51868.61
524.27	51936.49
524.44	51697.75
524.61	52076.92
524.78	51906.06
524.96	52135.43
525.13	51959.89
525.30	52097.98
525.47	52648.01
525.64	52437.36
525.81	52406.94
525.98	52491.19
526.16	52350.76
526.33	52446.72
526.50	52708.86
526.67	52442.04
526.84	52530.98
527.01	52587.16
527.18	52568.43
527.36	52758.02
527.53	52889.09
527.70	53359.53
527.87	53017.82
528.04	52978.03
528.21	53265.91
528.38	53202.72
528.55	53272.93
528.72	53294.00
528.89	53244.85
529.07	53301.02
529.24	53024.84
529.41	53659.12
529.58	53357.19
529.75	53708.27
529.92	53598.27
530.09	53565.50
530.26	53972.75
530.43	53708.27
530.60	53745.72
530.77	53867.43
530.94	53984.46
531.11	53865.09
531.28	53937.65
531.46	53897.86
531.63	54302.77
531.80	54204.47
531.97	54302.77
532.14	54251.28
532.31	54260.64
532.48	54162.34
532.65	54564.91
532.82	54499.37
532.99	54504.06
533.16	54513.42
533.33	54637.47
533.50	54714.70
533.67	54752.15
533.84	54461.93
534.01	54752.15
534.18	54754.49
534.35	55255.37
534.52	54754.49
534.69	55047.06
534.86	55028.34
535.03	55007.27
535.20	54972.16
535.37	55196.85
535.54	55426.23
535.71	55140.68
535.88	55215.58
536.05	55103.23
536.22	55449.63
536.38	55274.09
536.55	55475.38
536.72	55557.30
536.89	55339.63
537.06	55690.71
537.23	55620.49
537.40	55643.90
537.57	55800.71
537.74	55419.20
537.91	55950.51
538.08	55632.19
538.25	55554.96
538.42	55664.96
538.59	55833.48
538.75	55770.28
538.92	55767.94
539.09	56123.71
539.26	56161.15
539.43	55992.64
539.60	55950.51
539.77	55955.19
539.94	56339.04
540.11	56170.52
540.28	56170.52
540.44	56350.74
540.61	56224.35
540.78	56203.28
540.95	56315.63
541.12	56076.90
541.29	56367.12
541.46	56680.75
541.62	56526.28
541.79	56573.09
541.96	56191.58
542.13	56435.00
542.30	56533.30
542.47	56732.25
542.63	56739.27
542.80	56629.26
542.97	56879.70
543.14	57141.84
543.31	56802.46
543.48	57062.26
543.64	57399.30
543.81	57350.15
543.98	57322.06
544.15	57148.86
544.32	57186.31
544.48	57415.68
544.65	57174.61
544.82	57289.29
544.99	57153.54
545.16	57382.91
545.32	57317.38
545.49	57567.82
545.66	57602.92
545.83	57408.66
546.00	57476.54
546.16	57415.68
546.33	57368.87
546.50	57329.08
546.67	57736.34
546.83	57174.61
547.00	57364.19
547.17	57696.55
547.34	57668.46
547.50	57750.38
547.67	57961.03
547.84	57808.89
548.00	57984.43
548.17	58045.29
548.34	57750.38
548.51	57991.45
548.67	58131.89
548.84	58171.67
549.01	58003.16
549.18	57961.03
549.34	57930.60
549.51	58038.26
549.68	58396.37
549.84	58169.33
550.01	58295.72
550.18	58124.86
550.34	58281.68
550.51	58375.30
550.68	58302.74
550.84	58171.67
551.01	58370.62
551.18	58394.03
551.34	58398.71
551.51	58450.20
551.68	58471.26
551.84	58520.41
552.01	58277.00
552.18	58564.88
552.34	58319.13
552.51	58735.74
552.68	58227.85
552.84	58546.16
553.01	58740.42
553.18	58735.74
553.34	58714.68
553.51	58557.86
553.67	58679.57
553.84	58824.68
554.01	58869.15
554.17	58784.90
554.34	58887.88
554.51	58733.40
554.67	58967.46
554.84	58791.92
555.00	58728.72
555.17	58733.40
555.33	59096.19
555.50	58726.38
555.67	58747.45
555.83	58873.84
556.00	58986.18
556.16	59299.81
556.33	59100.87
556.50	59210.87
556.66	59229.60
556.83	58820.00
556.99	59215.55
557.16	59346.62
557.32	59206.19
557.49	59608.76
557.65	59393.43
557.82	59402.80
557.98	59295.13
558.15	59447.27
558.32	59344.28
558.48	59100.87
558.65	59381.73
558.81	59306.83
558.98	59388.75
559.14	59480.03
559.31	59545.57
559.47	59491.74
559.64	59456.63
559.80	59465.99
559.97	59807.71
560.13	59437.90
560.30	59522.16
560.46	59379.39
560.63	59681.32
560.79	59538.55
560.96	59763.24
561.12	59568.97
561.29	59540.89
561.45	59629.83
561.61	59746.86
561.78	59702.38
561.94	59700.04
562.11	59599.40
562.27	59660.26
562.44	59753.88
562.60	59849.84
562.77	59994.95
562.93	59522.16
563.10	59948.14
563.26	59966.87
563.42	59997.29
563.59	59786.64
563.75	59833.46
563.92	59814.73
564.08	59964.52
564.24	60081.55
564.41	60245.39
564.57	59941.12
564.74	59973.89
564.90	60140.07
565.07	60069.85
565.23	59990.27
565.39	60079.21
565.56	60165.81
565.72	59994.95
565.88	59943.46
566.05	59868.56
566.21	59938.78
566.38	59978.57
566.54	60090.91
566.70	60203.26
566.87	60161.13
567.03	60130.70
567.19	60161.13
567.36	60165.81
567.52	60090.91
567.68	60310.92
567.85	60245.39
568.01	60521.57
568.17	60371.78
568.34	60163.47
568.50	60217.30
568.66	60287.52
568.83	60479.44
568.99	60179.85
569.15	60233.69
569.32	60360.08
569.48	60254.75
569.64	60423.27
569.81	60083.89
569.97	60081.55
570.13	60179.85
570.30	60275.82
570.46	60193.90
570.62	60423.27
570.78	60296.88
570.95	60161.13
571.11	60472.42
571.27	60376.46
571.43	60374.12
571.60	60495.83
571.76	60275.82
571.92	60465.40
572.09	60537.96
572.25	60498.17
572.41	60243.05
572.57	60348.37
572.74	60650.30
572.90	60528.59
573.06	60526.25
573.22	60385.82
573.38	60460.72
573.55	60502.85
573.71	60669.03
573.87	60537.96
574.03	60444.33
574.20	60533.28
574.36	60633.92
574.52	60807.12
574.68	60561.36
574.84	60580.09
575.01	60402.21
575.17	60638.60
575.33	60624.56
575.49	60416.25
575.65	60603.49
575.82	60832.86
575.98	60786.05
576.14	60804.78
576.30	60645.62
576.46	60762.65
576.62	60512.21
576.79	60643.28
576.95	60500.51
577.11	60610.51
577.27	60530.93
577.43	60488.80
577.59	60533.28
577.75	60664.35
577.92	60711.16
578.08	60559.02
578.24	60654.98
578.40	60816.48
578.56	60811.80
578.72	60636.26
578.88	60786.05
579.04	60879.67
579.21	60769.67
579.37	60598.81
579.53	60790.73
579.69	60544.98
579.85	60519.23
580.01	60683.07
580.17	60580.09
580.33	60832.86
580.49	60970.96
580.65	60790.73
580.82	60797.76
580.98	60692.43
581.14	60626.90
581.30	60963.93
581.46	60877.33
581.62	60757.97
581.78	60762.65
581.94	60863.29
582.10	60743.92
582.26	60825.84
582.42	60685.41
582.58	60753.29
582.74	60736.90
582.90	60741.58
583.06	60928.83
583.22	60685.41
583.38	60734.56
583.54	60706.47
583.70	60816.48
583.86	60650.30
584.02	60568.38
584.18	60931.17
584.34	60949.89
584.50	60844.57
584.66	60701.79
584.82	60645.62
584.98	61090.32
585.14	60858.61
585.30	60697.11
585.46	60889.04
585.62	60921.80
585.78	60835.20
585.94	60739.24
586.10	60809.46
586.26	60760.31
586.42	60926.49
586.58	60994.36
586.74	60926.49
586.90	60846.91
587.06	60863.29
587.22	60973.30
587.38	60949.89
587.54	61057.56
587.70	61010.74
587.86	60959.25
588.02	60970.96
588.18	61214.37
588.34	60849.25
588.49	61045.85
588.65	60858.61
588.81	61097.34
588.97	61066.92
589.13	61073.94
589.29	61109.05
589.45	61106.71
589.61	61137.13
589.77	61378.21
589.93	61275.22
590.08	61284.59
590.24	61258.84
590.40	61249.48
590.56	61319.70
590.72	61076.28
590.88	61284.59
591.04	61010.74
591.20	61258.84
591.35	61087.98
591.51	61542.05
591.67	61216.71
591.83	61413.32
591.99	61158.20
592.15	61085.64
592.31	61216.71
592.46	61338.42
592.62	61420.34
592.78	61226.07
592.94	61298.63
593.10	61352.46
593.26	61436.72
593.41	61331.40
593.57	61247.14
593.73	61249.48
593.89	61446.08
594.05	61272.88
594.20	61392.25
594.36	61595.88
594.52	61338.42
594.68	61387.57
594.84	61183.94
594.99	61392.25
595.15	61420.34
595.31	61247.14
595.47	61282.25
595.62	61188.63
595.78	61176.92
595.94	61439.06
596.10	61670.78
596.25	61441.40
596.41	61520.98
596.57	61230.75
596.73	61462.47
596.88	61495.24
597.04	61422.68
597.20	61467.15
597.36	61513.96
597.51	61616.94
597.67	61291.61
597.83	61448.42
597.99	61605.24
598.14	61310.33
598.30	61520.98
598.46	61598.22
598.61	61572.47
598.77	61577.15
598.93	61432.04
599.09	61595.88
599.24	61829.93
599.40	61602.90
599.56	61649.71
599.71	61640.35
599.87	61740.99
600.03	61654.39
600.18	61549.07
600.34	61609.92
600.50	61642.69
600.65	61656.73
600.81	61731.63
600.97	61537.36
601.12	61661.41
601.28	61518.64
601.44	61380.55
601.59	61518.64
601.75	61516.30
601.91	61635.67
602.06	61712.91
602.22	61785.46
602.37	61649.71
602.53	61549.07
602.69	61689.50
602.84	61537.36
603.00	61656.73
603.16	61832.27
603.31	61626.31
603.47	61614.60
603.62	61495.24
603.78	61806.53
603.94	61530.34
604.09	61836.95
604.25	61729.29
604.40	61705.88
604.56	61495.24
604.71	61783.12
604.87	61668.44
605.03	61673.12
605.18	61694.18
605.34	61567.79
605.49	61539.71
605.65	61797.16
605.80	61546.73
605.96	61822.91
606.12	61605.24
606.27	61874.40
606.43	61588.86
606.58	61771.42
606.74	61584.18
606.89	61577.15
607.05	61752.69
607.20	61490.55
607.36	61443.74
607.51	61504.60
607.67	61467.15
607.82	61436.72
607.98	61410.98
608.13	61539.71
608.29	61481.19
608.44	61455.45
608.60	61490.55
608.75	61394.59
608.91	61485.87
609.06	61429.70
609.22	61544.39
609.37	61326.72
609.53	61385.23
609.68	61427.36
609.84	61490.55
609.99	61511.62
610.15	61546.73
610.30	61509.28
610.46	61429.70
610.61	61570.13
610.76	61495.24
610.92	61434.38
611.07	61296.29
611.23	61303.31
611.38	61485.87
611.54	61373.53
611.69	61469.49
611.84	61516.30
612.00	61567.79
612.15	61373.53
612.31	61581.84
612.46	61197.99
612.62	61343.10
612.77	61408.64
612.92	61588.86
613.08	61331.40
613.23	61394.59
613.39	61219.05
613.54	61359.48
613.69	61371.19
613.85	61167.56
614.00	61380.55
614.15	61394.59
614.31	61244.80
614.46	61401.61
614.62	61315.01
614.77	61506.94
614.92	61240.12
615.08	61242.46
615.23	61366.51
615.38	61347.78
615.54	61193.31
615.69	61010.74
615.84	61364.17
616.00	61270.54
616.15	61132.45
616.30	61034.15
616.46	61235.44
616.61	61197.99
616.76	61237.78
616.92	61235.44
617.07	61155.86
617.22	61141.81
617.37	61097.34
617.53	61137.13
617.68	61197.99
617.83	61176.92
617.99	61188.63
618.14	61041.17
618.29	61144.16
618.45	60865.63
618.60	60795.42
618.75	60823.50
618.90	60940.53
619.06	61050.53
619.21	60956.91
619.36	61307.99
619.51	60945.21
619.67	60762.65
619.82	60823.50
619.97	61059.90
620.12	60755.63
620.28	60690.09
620.43	60837.54
620.58	61006.06
620.73	60832.86
620.89	60912.44
621.04	61043.51
621.19	60849.25
621.34	60860.95
621.49	60708.82
621.65	60863.29
621.80	61095.00
621.95	60692.43
622.10	60786.05
622.25	60931.17
622.41	60673.71
622.56	60863.29
622.71	60610.51
622.86	60552.00
623.01	60449.02
623.16	60491.15
623.32	60860.95
623.47	60654.98
623.62	60720.52
623.77	60818.82
623.92	60793.07
624.07	60720.52
624.23	60666.69
624.38	60521.57
624.53	60357.74
624.68	60542.64
624.83	60619.88
624.98	60720.52
625.13	60467.74
625.29	60432.63
625.44	60385.82
625.59	60385.82
625.74	60432.63
625.89	60254.75
626.04	60268.79
626.19	60243.05
626.34	60219.64
626.49	60280.50
626.65	60130.70
626.80	60434.97
626.95	60329.65
627.10	60095.60
627.25	60074.53
627.40	60048.78
627.55	60252.41
627.70	60233.69
627.85	59992.61
628.00	60177.51
628.15	60135.38
628.30	59964.52
628.45	60140.07
628.60	60226.66
628.76	60292.20
628.91	60292.20
629.06	60133.04
629.21	60011.34
629.36	59999.63
629.51	59873.24
629.66	60102.62
629.81	59805.37
629.96	59817.07
630.11	59971.55
630.26	59938.78
630.41	59959.84
630.56	59821.75
630.71	60037.08
630.86	60076.87
631.01	59863.88
631.16	59999.63
631.31	59863.88
631.46	59634.51
631.61	59667.28
631.76	59742.17
631.91	59999.63
632.06	60020.70
632.21	59994.95
632.36	59517.48
632.51	59627.49
632.66	59842.82
632.81	59688.34
632.96	59924.74
633.10	59779.62
633.25	59533.87
633.40	59908.35
633.55	59728.13
633.70	59737.49
633.85	59669.62
634.00	59524.50
634.15	59475.35
634.30	59400.46
634.45	59742.17
634.60	59765.58
634.75	59473.01
634.90	59339.60
635.05	59529.19
635.19	59456.63
635.34	59566.63
635.49	59636.85
635.64	59606.42
635.79	59365.35
635.94	59473.01
636.09	59508.12
636.24	59363.01
636.39	59395.77
636.53	59409.82
636.68	59559.61
636.83	59512.80
636.98	59681.32
637.13	59337.26
637.28	59274.07
637.43	59264.70
637.57	59309.18
637.72	59157.04
637.87	59348.96
638.02	59292.79
638.17	59384.07
638.32	59381.73
638.46	59189.81
638.61	59208.53
638.76	59180.45
638.91	59302.15
639.06	59063.42
639.20	59016.61
639.35	58988.52
639.50	58824.68
639.65	59143.00
639.80	59117.25
639.94	59056.40
640.09	58937.03
640.24	59089.16
640.39	58759.15
640.54	59018.95
640.68	58873.84
640.83	59023.63
640.98	58981.50
641.13	58843.41
641.27	59269.39
641.42	58698.30
641.57	58761.49
641.72	59028.31
641.86	58841.07
642.01	58567.23
642.16	58852.77
642.31	58908.94
642.45	58922.99
642.60	58784.90
642.75	58852.77
642.90	58948.73
643.04	58812.98
643.19	58553.18
643.34	58791.92
643.48	58948.73
643.63	58543.82
643.78	58857.45
643.93	58656.17
644.07	58766.17
644.22	58674.89
644.37	58106.14
644.51	58564.88
644.66	58515.73
644.81	58618.72
644.95	58391.68
645.10	58637.44
645.25	58447.86
645.39	58454.88
645.54	58377.64
645.69	58401.05
645.83	58536.80
645.98	58365.94
646.13	58522.76
646.27	58309.77
646.42	58288.70
646.57	58426.79
646.71	58370.62
646.86	58412.75
647.00	58330.83
647.15	58216.14
647.30	58277.00
647.44	58340.19
647.59	58618.72
647.74	58616.38
647.88	58403.39
648.03	58422.11
648.17	58485.31
648.32	58021.88
648.47	58478.28
648.61	58056.99
648.76	58323.81
648.90	58110.82
649.05	57991.45
649.20	58122.52
649.34	58190.40
649.49	58225.51
649.63	58185.72
649.78	58244.23
649.92	58166.99
650.07	58255.93
650.21	57939.96
650.36	58157.63
650.51	58108.48
650.65	58220.83
650.80	57958.69
650.94	58145.93
651.09	57832.30
651.23	57560.79
651.38	57638.03
651.52	57733.99
651.67	57612.29
651.81	58000.82
651.96	57996.13
652.10	57874.43
652.25	57883.79
652.39	57694.21
652.54	57708.25
652.68	57462.49
652.83	57558.45
652.97	57642.71
653.12	57701.23
653.26	57469.51
653.41	57937.62
653.55	57755.06
653.70	57642.71
653.84	57666.12
653.99	57724.63
654.13	57193.33
654.27	57605.26
654.42	57375.89
654.56	57602.92
654.71	57485.90
654.85	57570.16
655.00	57560.79
655.14	57242.48
655.29	57439.09
655.43	57553.77
655.57	57352.49
655.72	57219.08
655.86	57247.16
656.01	57434.41
656.15	57371.21
656.30	57415.68
656.44	57513.98
656.58	57448.45
656.73	57499.94
656.87	57172.27
657.01	57502.28
657.16	57296.31
657.30	57343.12
657.45	57427.38
657.59	57073.96
657.73	57022.47
657.88	57092.69
658.02	57205.03
658.16	57027.15
658.31	57153.54
658.45	57090.35
658.60	57057.58
658.74	57073.96
658.88	56912.47
659.03	56795.44
659.17	56746.29
659.31	56945.23
659.46	56921.83
659.60	57045.88
659.74	56694.80
659.89	56563.73
660.03	56720.54
660.17	56856.29
660.32	56797.78
660.46	56451.38
660.60	56687.78
660.74	56685.43
660.89	56666.71
661.03	56509.89
661.17	56133.07
661.32	56271.16
661.46	56533.30
661.60	56339.04
661.74	56205.62
661.89	56126.05
662.03	56114.34
662.17	56200.94
662.31	56233.71
662.46	56404.57
662.60	56039.45
662.74	55985.61
662.88	56030.08
663.03	55985.61
663.17	55927.10
663.31	56081.58
663.45	55636.87
663.60	55887.31
663.74	55545.59
663.88	55484.74
664.02	55756.24
664.17	55807.73
664.31	55356.01
664.45	55433.25
664.59	55463.67
664.73	55463.67
664.88	55487.08
665.02	54923.01
665.16	55157.06
665.30	55341.97
665.44	55295.16
665.59	55292.82
665.73	55348.99
665.87	54988.55
666.01	55295.16
666.15	55171.11
666.29	55105.57
666.44	55126.64
666.58	54798.96
666.72	54838.75
666.86	54564.91
667.00	54831.73
667.14	54588.31
667.28	54630.44
667.43	54351.92
667.57	54637.47
667.71	54642.15
667.85	54384.69
667.99	54431.50
668.13	54438.52
668.27	54120.21
668.41	54356.60
668.56	54129.57
668.70	53965.73
668.84	53874.45
668.98	53947.01
669.12	54047.65
669.26	54019.56
669.40	53930.62
669.54	54160.00
669.68	54021.90
669.82	53961.05
669.96	54141.27
670.10	54101.48
670.25	53937.65
670.39	54059.35
670.53	53837.00
670.67	53556.14
670.81	53886.15
670.95	53717.64
671.09	53345.49
671.23	53059.94
671.37	53490.60
671.51	53530.39
671.65	53202.72
671.79	53076.33
671.93	52938.24
672.07	53001.43
672.21	53106.76
672.35	52612.90
672.49	52369.49
672.63	52348.42
672.77	52779.08
672.91	52708.86
673.05	52463.11
673.19	52643.33
673.33	52079.26
673.47	52397.57
673.61	52325.02
673.75	51915.42
673.89	52212.67
674.03	51927.13
674.17	52046.49
674.31	51966.91
674.45	51941.17
674.59	51475.40
674.73	51444.98
674.87	51639.24
675.01	51681.37
675.15	51367.74
675.29	51187.52
675.43	51608.81
675.56	51056.45
675.70	51290.50
675.84	50962.82
675.98	50007.89
676.12	51040.06
676.26	50876.22
676.40	50630.47
676.54	50473.65
676.68	50508.76
676.82	49961.08
676.96	50319.18
677.10	50089.80
677.23	49722.34
677.37	49989.16
677.51	50024.27
677.65	49329.13
677.79	48566.12
677.93	49008.48
678.07	48760.38
678.21	48779.10
678.34	48882.09
678.48	48938.26
678.62	48435.05
678.76	48477.18
678.90	48376.53
679.04	48362.49
679.18	48411.64
679.31	47716.50
679.45	47772.67
679.59	48226.74
679.73	48217.38
679.87	47791.40
680.00	47332.65
680.14	47566.71
680.28	47117.32
680.42	46749.86
680.56	46902.00
680.70	46508.79
680.83	47000.30
680.97	46417.50
681.11	46742.84
681.25	46267.71
681.39	46473.68
681.52	46047.70
681.66	46473.68
681.80	45551.51
681.94	45436.82
682.07	45820.67
682.21	45258.94
682.35	45120.85
682.49	45043.61
682.62	45191.06
682.76	45312.77
682.90	45095.10
683.04	45057.65
683.17	44458.48
683.31	44002.07
683.45	44348.47
683.59	43683.76
683.72	43863.98
683.86	44512.31
684.00	44023.14
684.13	44135.48
684.27	43873.34
684.41	44172.93
684.55	43538.65
684.68	43522.26
684.82	42696.05
684.96	42824.78
685.09	42920.74
685.23	42845.85
685.37	42527.53
685.50	42288.80
685.64	42256.03
685.78	42176.45
685.91	42169.43
686.05	41331.52
686.19	41132.57
686.32	41104.49
686.46	40957.03
686.60	40423.39
686.73	40243.17
686.87	40627.02
687.01	40832.99
687.14	40580.21
687.28	40252.53
687.42	40105.08
687.55	40018.48
687.69	40364.88
687.82	39533.99
687.96	39526.97
688.10	39435.69
688.23	39571.44
688.37	39543.35
688.50	38857.57
688.64	38686.71
688.78	38728.84
688.91	38136.69
689.05	38768.63
689.18	38316.91
689.32	37497.72
689.46	37394.74
689.59	37738.80
689.73	37734.12
689.86	37324.52
690.00	37139.62
690.13	37467.30
690.27	37165.37
690.41	37493.04
690.54	36416.40
690.68	36720.66
690.81	36552.15
690.95	36388.31
691.08	36168.30
691.22	35793.81
691.35	35569.12
691.49	36257.24
691.62	35737.64
691.76	35316.34
691.89	35328.05
692.03	35367.84
692.16	35213.36
692.30	34986.33
692.43	35112.72
692.57	34621.20
692.70	34555.67
692.84	34518.22
692.97	34462.05
693.11	34274.80
693.24	34129.69
693.38	33940.11
693.51	33528.17
693.65	33647.54
693.78	33216.88
693.92	33439.23
694.05	33294.12
694.19	32671.54
694.32	32968.79
694.45	33041.34
694.59	32828.35
694.72	32133.21
694.86	32561.53
694.99	32163.64
695.13	32105.13
695.26	31896.82
695.39	31505.95
695.53	31840.65
695.66	31782.13
695.80	31583.19
695.93	31344.45
696.07	30452.71
696.20	30366.11
696.33	30726.55
696.47	30621.23
696.60	30335.68
696.73	30459.73
696.87	29991.62
697.00	30050.14
697.14	29820.77
697.27	29799.70
697.40	29722.46
697.54	29336.27
697.67	29422.87
697.80	29252.02
697.94	29511.81
698.07	28982.85
698.21	28826.04
698.34	29139.67
698.47	28589.64
698.61	28147.28
698.74	28397.72
698.87	28259.63
699.01	27686.20
699.14	27999.83
699.27	27627.68
699.40	27690.88
699.54	28034.94
699.67	27520.02
699.80	27489.59
699.94	27042.55
700.07	27281.28
700.20	26639.98
700.34	26705.51
700.47	26384.86
700.60	26338.05
700.73	26316.98
700.87	26092.29
701.00	25661.63
701.13	25560.99
701.26	25652.27
701.40	26089.95
701.53	25568.01
701.66	25593.76
701.79	24999.26
701.93	25151.40
702.06	24807.34
702.19	25378.43
702.32	25291.83
702.46	25053.09
702.59	24446.90
702.72	24608.39
702.85	24360.30
702.99	24386.04
703.12	24257.31
703.25	23880.49
703.38	23522.38
703.51	23861.76
703.65	23381.95
703.78	23166.62
703.91	22815.54
704.04	23049.60
704.17	23449.83
704.31	22984.06
704.44	22672.77
704.57	22363.82
704.70	22380.20
704.83	22380.20
704.96	22174.24
705.10	22235.09
705.23	22218.71
>>>>>End Processed Spectral Data<<<<<
