SpectraSuite Data File
++++++++++++++++++++++++++++++++++++
Date: Fri Oct 25 11:34:22 EDT 2013
User: price-jones
Dark Spectrum Present: No
Reference Spectrum Present: No
Number of Sampled Component Spectra: 1
Spectrometers: USB2+H05261
Integration Time (usec): 100000 (USB2+H05261)
Spectra Averaged: 1 (USB2+H05261)
Boxcar Smoothing: 0 (USB2+H05261)
Correct for Electrical Dark: No (USB2+H05261)
Strobe/Lamp Enabled: No (USB2+H05261)
Correct for Detector Non-linearity: No (USB2+H05261)
Correct for Stray Light: No (USB2+H05261)
Number of Pixels in Processed Spectrum: 2048
>>>>>Begin Processed Spectral Data<<<<<
365.73	271.50
365.92	271.50
366.12	271.50
366.32	170.86
366.52	215.33
366.72	184.90
366.91	163.84
367.11	117.03
367.31	175.54
367.51	114.69
367.70	182.56
367.90	241.08
368.10	161.50
368.30	191.92
368.49	196.60
368.69	191.92
368.89	231.71
369.09	229.37
369.28	273.84
369.48	180.22
369.68	205.97
369.87	271.50
370.07	287.89
370.27	264.48
370.47	292.57
370.66	407.25
370.86	491.51
371.06	514.92
371.25	519.60
371.45	540.66
371.65	564.07
371.84	482.15
372.04	517.26
372.24	608.54
372.44	547.69
372.63	571.09
372.83	657.69
373.03	629.60
373.22	543.00
373.42	702.16
373.62	573.43
373.81	650.67
374.01	594.50
374.21	578.11
374.40	615.56
374.60	643.65
374.79	653.01
374.99	678.76
375.19	603.86
375.38	615.56
375.58	617.90
375.78	683.44
375.97	688.12
376.17	702.16
376.37	662.37
376.56	720.88
376.76	615.56
376.95	664.71
377.15	674.07
377.35	702.16
377.54	711.52
377.74	692.80
377.93	608.54
378.13	671.73
378.33	755.99
378.52	709.18
378.72	763.01
378.91	692.80
379.11	662.37
379.31	678.76
379.50	730.25
379.70	774.72
379.89	741.95
380.09	737.27
380.28	704.50
380.48	699.82
380.68	772.38
380.87	699.82
381.07	718.54
381.26	713.86
381.46	800.46
381.65	681.10
381.85	770.04
382.04	791.10
382.24	828.55
382.43	711.52
382.63	791.10
382.83	795.78
383.02	809.83
383.22	891.74
383.41	772.38
383.61	842.59
383.80	753.65
384.00	758.33
384.19	781.74
384.39	868.34
384.58	826.21
384.78	765.36
384.97	781.74
385.17	823.87
385.36	837.91
385.56	807.48
385.75	786.42
385.95	777.06
386.14	861.32
386.34	823.87
386.53	847.27
386.72	847.27
386.92	816.85
387.11	889.40
387.31	873.02
387.50	828.55
387.70	842.59
387.89	936.21
388.09	910.47
388.28	945.58
388.48	858.98
388.67	882.38
388.86	950.26
389.06	903.45
389.25	985.37
389.45	954.94
389.64	917.49
389.84	968.98
390.03	1022.81
390.22	959.62
390.42	940.90
390.61	971.32
390.81	985.37
391.00	938.55
391.19	933.87
391.39	931.53
391.58	964.30
391.78	936.21
391.97	961.96
392.16	994.73
392.36	976.00
392.55	1004.09
392.75	1078.99
392.94	1018.13
393.13	1095.37
393.33	1078.99
393.52	1093.03
393.71	1050.90
393.91	1062.60
394.10	1036.86
394.29	1074.31
394.49	1093.03
394.68	1046.22
394.88	1139.84
395.07	1090.69
395.26	1142.18
395.46	1151.54
395.65	1102.39
395.84	1170.27
396.04	1184.31
396.23	1137.50
396.42	1163.25
396.62	1128.14
396.81	1224.10
397.00	1210.06
397.19	1188.99
397.39	1177.29
397.58	1277.93
397.77	1207.72
397.97	1172.61
398.16	1259.21
398.35	1203.04
398.55	1156.22
398.74	1224.10
398.93	1327.08
399.12	1261.55
399.32	1167.93
399.51	1352.83
399.70	1240.48
399.90	1327.08
400.09	1359.85
400.28	1369.21
400.47	1289.64
400.67	1427.73
400.86	1338.79
401.05	1486.24
401.24	1355.17
401.44	1345.81
401.63	1371.55
401.82	1465.18
402.01	1439.43
402.21	1427.73
402.40	1373.89
402.59	1392.62
402.78	1341.13
402.97	1474.54
403.17	1404.32
403.36	1416.02
403.55	1526.03
403.74	1523.69
403.93	1673.48
404.13	1629.01
404.32	1593.90
404.51	1540.07
404.70	1617.31
404.89	1619.65
405.09	1568.16
405.28	1659.44
405.47	1629.01
405.66	1640.72
405.85	1617.31
406.05	1636.03
406.24	1647.74
406.43	1753.06
406.62	1633.69
406.81	1706.25
407.00	1795.19
407.20	1727.32
407.39	1750.72
407.58	1877.11
407.77	1739.02
407.96	1916.90
408.15	1806.89
408.34	1813.92
408.54	1870.09
408.73	1753.06
408.92	1834.98
409.11	1865.41
409.30	1856.04
409.49	1909.88
409.68	1933.28
409.87	1998.82
410.07	1912.22
410.26	1970.73
410.45	1952.01
410.64	1973.07
410.83	1996.48
411.02	2073.71
411.21	2040.95
411.40	2069.03
411.59	2200.10
411.78	2019.88
411.98	2202.44
412.17	2202.44
412.36	2188.40
412.55	2265.64
412.74	2293.72
412.93	2225.85
413.12	2139.25
413.31	2417.77
413.50	2267.98
413.69	2328.83
413.88	2431.82
414.07	2328.83
414.26	2450.54
414.45	2406.07
414.64	2476.29
414.83	2509.05
415.02	2541.82
415.22	2534.80
415.41	2605.02
415.60	2590.97
415.79	2583.95
415.98	2607.36
416.17	2703.32
416.36	2689.28
416.55	2635.44
416.74	2724.38
416.93	2682.25
417.12	2675.23
417.31	2689.28
417.50	2878.86
417.69	2808.64
417.88	2794.60
418.07	2787.58
418.26	2780.56
418.45	3030.99
418.64	2972.48
418.83	2860.13
419.02	2944.39
419.21	2998.23
419.39	3026.31
419.58	2764.17
419.77	2902.26
419.96	3075.46
420.15	3009.93
420.34	3019.29
420.53	3070.78
420.72	3087.17
420.91	3164.40
421.10	3272.07
421.29	3183.13
421.48	3169.09
421.67	3124.62
421.86	3185.47
422.05	3162.06
422.24	3178.45
422.43	3276.75
422.61	3183.13
422.80	3295.47
422.99	3318.88
423.18	3325.90
423.37	3342.28
423.56	3281.43
423.75	3192.49
423.94	3304.84
424.13	3124.62
424.32	3206.53
424.50	3330.58
424.69	3452.29
424.88	3363.35
425.07	3349.31
425.26	3396.12
425.45	3302.50
425.64	3318.88
425.83	3428.88
426.01	3337.60
426.20	3337.60
426.39	3384.41
426.58	3393.78
426.77	3473.36
426.96	3506.12
427.15	3445.27
427.33	3501.44
427.52	3489.74
427.71	3527.19
427.90	3562.30
428.09	3623.15
428.28	3456.97
428.46	3496.76
428.65	3585.70
428.84	3674.64
429.03	3733.15
429.22	3592.72
429.40	3604.42
429.59	3744.86
429.78	3496.76
429.97	3471.01
430.16	3833.80
430.34	3815.07
430.53	3754.22
430.72	3808.05
430.91	3698.05
431.10	3744.86
431.28	3747.20
431.47	3803.37
431.66	3852.52
431.85	3772.94
432.03	3845.50
432.22	4014.02
432.41	3974.23
432.60	3922.74
432.79	3873.59
432.97	4009.34
433.16	3948.48
433.35	4011.68
433.54	4159.13
433.72	3957.85
433.91	4060.83
434.10	3936.78
434.28	3971.89
434.47	4191.90
434.66	3922.74
434.85	4135.73
435.03	4039.76
435.22	4154.45
435.41	4329.99
435.59	4287.86
435.78	4322.97
435.97	4182.54
436.16	4229.35
436.34	4273.82
436.53	4327.65
436.72	4376.80
436.90	4290.20
437.09	4395.53
437.28	4248.07
437.46	4435.32
437.65	4308.93
437.84	4526.60
438.02	4236.37
438.21	4421.27
438.40	4449.36
438.58	4528.94
438.77	4554.68
438.96	4664.69
439.14	4737.24
439.33	4667.03
439.52	4718.52
439.70	4678.73
439.89	4844.91
440.08	4882.36
440.26	4877.68
440.45	4854.27
440.63	4770.01
440.82	4917.47
441.01	4973.64
441.19	5062.58
441.38	5107.05
441.57	4945.55
441.75	4929.17
441.94	5057.90
442.12	5219.39
442.31	5217.05
442.50	5195.99
442.68	5142.16
442.87	5284.93
443.05	5228.76
443.24	5455.79
443.43	5336.42
443.61	5303.65
443.80	5462.81
443.98	5305.99
444.17	5088.32
444.35	5385.57
444.54	5507.28
444.73	5380.89
444.91	5401.96
445.10	5572.82
445.28	5273.23
445.47	5348.12
445.65	5336.42
445.84	5390.25
446.02	5460.47
446.21	5762.40
446.39	5448.77
446.58	5448.77
446.77	5509.62
446.95	5259.18
447.14	5446.43
447.32	5788.14
447.51	5455.79
447.69	5507.28
447.88	5598.56
448.06	5621.97
448.25	5607.92
448.43	5621.97
448.62	5572.82
448.80	5535.37
448.99	5645.37
449.17	5689.84
449.36	5640.69
449.54	5832.62
449.73	5755.38
449.91	5820.91
450.10	5856.02
450.28	5951.98
450.46	5872.40
450.65	5926.24
450.83	5895.81
451.02	5849.00
451.20	5944.96
451.39	5891.13
451.57	5860.70
451.76	5813.89
451.94	6031.56
452.13	6132.20
452.31	6017.52
452.49	5928.58
452.68	6085.39
452.86	6092.41
453.05	6218.80
453.23	6118.16
453.42	6141.57
453.60	6083.05
453.78	6195.40
453.97	5940.28
454.15	6139.23
454.34	6188.38
454.52	6382.64
454.70	6331.15
454.89	6286.68
455.07	6551.16
455.26	6492.65
455.44	6457.54
455.62	6518.39
455.81	6478.60
455.99	6621.38
456.17	6459.88
456.36	6516.05
456.54	6511.37
456.73	6558.18
456.91	6946.71
457.09	6759.47
457.28	6841.39
457.46	6705.63
457.64	6848.41
457.83	6796.92
458.01	6764.15
458.19	6956.07
458.38	6789.89
458.56	6899.90
458.74	6874.15
458.93	6904.58
459.11	6874.15
459.29	6979.48
459.48	7002.88
459.66	7075.44
459.84	7112.89
460.03	7096.50
460.21	7145.66
460.39	6970.12
460.57	7047.35
460.76	7232.26
460.94	7241.62
461.12	7276.73
461.31	7157.36
461.49	7276.73
461.67	7267.36
461.85	7414.82
462.04	7269.70
462.22	7861.86
462.40	7480.35
462.59	7470.99
462.77	7396.09
462.95	7325.88
463.13	7503.76
463.32	7370.35
463.50	7466.31
463.68	7489.71
463.86	7524.82
464.05	7442.90
464.23	7365.67
464.41	7719.09
464.59	7555.25
464.78	7761.22
464.96	7667.60
465.14	7623.12
465.32	7840.79
465.50	7864.20
465.69	7798.66
465.87	7740.15
466.05	7875.90
466.23	7768.24
466.41	7826.75
466.60	8126.34
466.78	7798.66
466.96	7829.09
467.14	7906.33
467.32	8168.47
467.51	8006.97
467.69	7857.18
467.87	7899.31
468.05	8011.65
468.23	8006.97
468.41	7946.12
468.60	8091.23
468.78	7955.48
468.96	8187.19
469.14	8346.35
469.32	8241.03
469.50	8217.62
469.69	8390.82
469.87	8372.10
470.05	8329.97
470.23	8667.00
470.41	8355.71
470.59	8592.11
470.77	8521.89
470.95	8538.27
471.14	8507.85
471.32	8507.85
471.50	8561.68
471.68	8854.25
471.86	8678.71
472.04	8638.92
472.22	9184.26
472.40	8851.91
472.58	8865.95
472.77	8959.57
472.95	8901.06
473.13	9238.09
473.31	9036.81
473.49	9350.44
473.67	9020.42
473.85	9029.79
474.03	9247.46
474.21	9291.93
474.39	9397.25
474.57	9390.23
474.75	9516.62
474.93	9643.01
475.12	9614.92
475.30	9750.67
475.48	9717.90
475.66	9881.74
475.84	9717.90
476.02	9926.21
476.20	9724.93
476.38	10083.03
476.56	10258.57
476.74	10017.49
476.92	9907.49
477.10	10078.35
477.28	10157.92
477.46	10242.18
477.64	10150.90
477.82	10382.62
478.00	10815.62
478.18	10693.91
478.36	10754.76
478.54	10864.77
478.72	10974.77
478.90	10972.43
479.08	11164.36
479.26	11110.52
479.44	11232.23
479.62	11276.70
479.80	11602.04
479.98	11569.27
480.16	11751.83
480.34	11527.14
480.52	11927.37
480.70	11690.98
480.88	11580.97
481.06	11920.35
481.24	12006.95
481.41	12262.07
481.59	12439.95
481.77	12381.43
481.95	12287.81
482.13	12580.38
482.31	12418.88
482.49	12950.18
482.67	12622.51
482.85	13015.72
483.03	13085.94
483.21	13095.30
483.39	13235.73
483.57	12973.59
483.74	13226.37
483.92	13610.22
484.10	13635.96
484.28	13738.94
484.46	13963.64
484.64	14307.69
484.82	14036.19
485.00	14033.85
485.18	14263.22
485.35	14455.15
485.53	14317.06
485.71	14527.71
485.89	14951.34
486.07	14656.43
486.25	14839.00
486.43	14951.34
486.61	14988.79
486.78	15173.69
486.96	15332.85
487.14	15520.09
487.32	15403.07
487.50	15800.96
487.68	15843.09
487.85	15723.72
488.03	15894.58
488.21	16079.48
488.39	16563.97
488.57	16482.05
488.75	16404.81
488.92	16659.93
489.10	17006.33
489.28	16613.12
489.46	16999.31
489.64	16971.22
489.81	17404.22
489.99	17678.07
490.17	17326.99
490.35	17404.22
490.53	17755.30
490.70	18045.53
490.88	17535.29
491.06	18141.49
491.24	18050.21
491.41	18534.70
491.59	18527.68
491.77	18452.78
491.95	18611.94
492.13	18956.00
492.30	18845.99
492.48	18677.48
492.66	19337.51
492.84	19129.20
493.01	19496.66
493.19	19248.57
493.37	19286.01
493.54	19985.83
493.72	19756.46
493.90	19601.99
494.08	20049.03
494.25	20297.13
494.43	20318.19
494.61	20294.79
494.79	20585.01
494.96	20491.39
495.14	20657.57
495.32	21135.04
495.49	20676.29
495.67	21064.82
495.85	21067.16
496.02	21184.19
496.20	21521.23
496.38	21570.38
496.55	21687.40
496.73	22029.12
496.91	22008.06
497.09	21654.64
497.26	22005.72
497.44	21954.22
497.62	22415.31
497.79	22448.08
497.97	22408.29
498.14	22338.07
498.32	22778.09
498.50	22897.46
498.67	23030.87
498.85	23012.15
499.03	22892.78
499.20	23033.21
499.38	23269.61
499.56	23206.41
499.73	23515.36
499.91	23283.65
500.08	23412.38
500.26	23578.56
500.44	23473.23
500.61	23927.30
500.79	23611.32
500.97	24065.39
501.14	24098.16
501.32	24367.32
501.49	24233.91
501.67	24037.30
501.84	24409.45
502.02	24404.77
502.20	24318.17
502.37	24680.95
502.55	24828.40
502.72	25130.33
502.90	25179.48
503.07	24816.70
503.25	25001.60
503.43	25202.89
503.60	25490.77
503.78	25462.69
503.95	25135.01
504.13	25465.03
504.30	25582.06
504.48	25294.17
504.65	25816.11
504.83	25867.60
505.01	25986.97
505.18	25905.05
505.36	26174.21
505.53	25898.03
505.71	26181.23
505.88	26307.62
506.06	26003.35
506.23	26525.29
506.41	26595.51
506.58	26199.96
506.76	26668.06
506.93	26370.82
507.11	26757.00
507.28	27054.25
507.46	27173.62
507.63	27234.47
507.81	27515.34
507.98	27213.41
508.16	27358.52
508.33	27611.30
508.50	27737.69
508.68	27562.15
508.85	27833.65
509.03	27590.24
509.20	27594.92
509.38	27931.95
509.55	27899.19
509.73	28140.26
509.90	28109.83
510.08	28107.49
510.25	28133.24
510.42	28519.43
510.60	28528.79
510.77	28732.42
510.95	28804.97
511.12	28582.62
511.30	28753.48
511.47	29010.94
511.64	28898.59
511.82	29401.81
511.99	28940.72
512.17	29233.29
512.34	29092.86
512.51	29776.30
512.69	29717.78
512.86	29476.71
513.04	29890.98
513.21	29425.22
513.38	29727.14
513.56	29692.04
513.73	29677.99
513.90	29640.54
514.08	29816.08
514.25	29935.45
514.43	30300.58
514.60	30302.92
514.77	30553.35
514.95	30169.51
515.12	30436.33
515.29	30368.45
515.47	30831.88
515.64	30988.69
515.81	30270.15
515.99	30721.87
516.16	31236.79
516.33	31030.82
516.51	31314.03
516.68	30841.24
516.85	31346.79
517.03	31372.54
517.20	31325.73
517.37	31548.08
517.54	31229.77
517.72	31531.70
517.89	31487.23
518.06	32018.53
518.24	31660.43
518.41	31754.05
518.58	31908.52
518.75	32046.62
518.93	31997.46
519.10	31990.44
519.27	31845.33
519.45	32257.26
519.62	32247.90
519.79	32238.54
519.96	32343.86
520.14	32521.74
520.31	32589.62
520.48	32870.48
520.65	32826.01
520.83	32786.22
521.00	33022.62
521.17	33123.26
521.34	33092.83
521.52	33074.11
521.69	32624.73
521.86	32933.68
522.03	33310.50
522.20	33244.97
522.38	33542.22
522.55	33724.78
522.72	33347.95
522.89	33642.86
523.07	33841.81
523.24	33677.97
523.41	33596.05
523.58	33692.01
523.75	33989.26
523.92	33961.17
524.10	33757.55
524.27	34511.20
524.44	34307.57
524.61	34593.12
524.78	34272.46
524.96	34691.42
525.13	34349.70
525.30	34408.22
525.47	35136.12
525.64	34384.81
525.81	34934.84
525.98	35007.39
526.16	34761.64
526.33	34614.18
526.50	34951.22
526.67	34735.89
526.84	35056.54
527.01	34955.90
527.18	35138.46
527.36	35180.59
527.53	35026.12
527.70	35491.88
527.87	35562.10
528.04	35786.79
528.21	35817.22
528.38	35304.64
528.55	35686.15
528.72	36030.21
528.89	35637.00
529.07	35793.81
529.24	35648.70
529.41	35950.63
529.58	36025.53
529.75	35576.14
529.92	36180.00
530.09	36172.98
530.26	35997.44
530.43	36168.30
530.60	35908.50
530.77	36126.17
530.94	36058.29
531.11	36261.92
531.28	36538.10
531.46	36364.90
531.63	36708.96
531.80	36327.45
531.97	36629.38
532.14	36725.35
532.31	36488.95
532.48	37055.36
532.65	37123.24
532.82	36432.78
532.99	36744.07
533.16	36603.64
533.33	37139.62
533.50	37258.99
533.67	37392.40
533.84	36861.10
534.01	37572.62
534.18	37303.46
534.35	37523.47
534.52	37773.91
534.69	37717.73
534.86	37979.87
535.03	37530.49
535.20	37701.35
535.37	37993.92
535.54	38157.75
535.71	37722.41
535.88	38532.24
536.05	38103.92
536.22	38129.67
536.38	38321.59
536.55	38251.38
536.72	37986.89
536.89	37993.92
537.06	37717.73
537.23	38473.73
537.40	38384.79
537.57	38127.33
537.74	38490.11
537.91	38731.18
538.08	38494.79
538.25	38583.73
538.42	38333.29
538.59	38553.30
538.75	38735.87
538.92	38801.40
539.09	39292.91
539.26	38717.14
539.43	38902.04
539.60	38986.30
539.77	38801.40
539.94	38925.45
540.11	39072.90
540.28	39103.33
540.44	38944.17
540.61	39047.16
540.78	39093.97
540.95	38939.49
541.12	39309.30
541.29	39164.18
541.46	39735.27
541.62	39475.48
541.79	39847.62
541.96	39332.70
542.13	39159.50
542.30	39796.13
542.47	39393.56
542.63	39503.56
542.80	39931.88
542.97	40161.25
543.14	40107.42
543.31	40294.66
543.48	40371.90
543.64	40432.75
543.81	40278.28
543.98	40292.32
544.15	40149.55
544.32	40294.66
544.48	40711.28
544.65	40341.47
544.82	40840.01
544.99	40046.57
545.16	40559.14
545.32	40187.00
545.49	40779.15
545.66	41092.79
545.83	41081.08
546.00	41471.95
546.16	40940.65
546.33	40940.65
546.50	40912.56
546.67	40882.14
546.83	40414.03
547.00	41249.60
547.17	40722.98
547.34	40914.90
547.50	40952.35
547.67	41635.79
547.84	41151.30
548.00	41481.31
548.17	41558.55
548.34	41553.87
548.51	41745.80
548.67	41282.37
548.84	41755.16
549.01	41191.09
549.18	41577.28
549.34	41935.38
549.51	41783.24
549.68	41874.52
549.84	41904.95
550.01	41544.51
550.18	41425.14
550.34	41820.69
550.51	42110.92
550.68	42127.30
550.84	41837.08
551.01	42188.16
551.18	41867.50
551.34	41607.70
551.51	41874.52
551.68	41975.17
551.84	42031.34
552.01	42000.91
552.18	41769.20
552.34	42106.24
552.51	42307.52
552.68	42344.97
552.84	42244.33
553.01	42719.46
553.18	42419.87
553.34	42316.89
553.51	42139.00
553.67	42635.20
553.84	42895.00
554.01	42822.44
554.17	42546.26
554.34	42773.29
554.51	42663.28
554.67	42845.85
554.84	42796.70
555.00	42667.97
555.17	42965.21
555.33	42993.30
555.50	42838.83
555.67	42948.83
555.83	43323.32
556.00	42843.51
556.16	43306.93
556.33	43398.21
556.50	43145.44
556.66	42899.68
556.83	43208.63
556.99	43536.30
557.16	43466.09
557.32	43576.09
557.49	43365.45
557.65	43030.75
557.82	43320.98
557.98	43658.01
558.15	43604.18
558.32	43196.93
558.48	43288.21
558.65	43468.43
558.81	43599.50
558.98	43889.73
559.14	43061.18
559.31	43924.83
559.47	43480.13
559.64	43885.04
559.80	43351.40
559.97	43981.01
560.13	43243.74
560.30	43473.11
560.46	43571.41
560.63	44046.54
560.79	44027.82
560.96	43625.25
561.12	44191.65
561.29	43592.48
561.45	43686.10
561.61	43917.81
561.78	43665.03
561.94	44215.06
562.11	44336.77
562.27	43988.03
562.44	44144.84
562.60	44030.16
562.77	44250.17
562.93	44135.48
563.10	44617.63
563.26	44086.33
563.42	44568.48
563.59	44414.01
563.75	44320.38
563.92	44311.02
564.08	43973.98
564.24	44011.43
564.41	44250.17
564.57	44683.17
564.74	43901.43
564.90	44215.06
565.07	44203.36
565.23	44362.51
565.39	43966.96
565.56	44493.58
565.72	44325.07
565.88	44411.67
566.05	44863.39
566.21	44311.02
566.38	44280.60
566.54	44563.80
566.70	44914.88
566.87	44526.35
567.03	44266.55
567.19	44797.85
567.36	44486.56
567.52	44250.17
567.68	44772.11
567.85	44542.74
568.01	44538.05
568.17	44418.69
568.34	44935.95
568.50	44802.53
568.66	44458.48
568.83	44495.92
568.99	44816.58
569.15	44889.13
569.32	44886.79
569.48	44479.54
569.64	45123.19
569.81	44879.77
569.97	44917.22
570.13	44804.88
570.30	44701.89
570.46	44868.07
570.62	44505.29
570.78	44957.01
570.95	44877.43
571.11	45174.68
571.27	44891.48
571.43	44306.34
571.60	44835.30
571.76	44919.56
571.92	44872.75
572.09	45081.06
572.25	44886.79
572.41	44612.95
572.57	45230.85
572.74	45130.21
572.90	44755.72
573.06	45200.43
573.22	45731.73
573.38	45069.36
573.55	45249.58
573.71	45270.64
573.87	44928.92
574.03	44992.12
574.20	45411.07
574.36	45214.47
574.52	45181.70
574.68	45469.59
574.84	45205.11
575.01	45151.27
575.17	45457.88
575.33	45160.64
575.49	45174.68
575.65	45382.99
575.82	45109.14
575.98	45081.06
576.14	45212.13
576.30	45504.70
576.46	45434.48
576.62	45179.36
576.79	45574.91
576.95	45158.30
577.11	45474.27
577.27	45216.81
577.43	45188.72
577.59	45418.10
577.75	45343.20
577.92	45160.64
578.08	45418.10
578.24	45572.57
578.40	45886.20
578.56	45209.79
578.72	45303.41
578.88	45457.88
579.04	45305.75
579.21	45188.72
579.37	45727.05
579.53	45481.29
579.69	45549.17
579.85	45277.66
580.01	45427.46
580.17	45350.22
580.33	45483.63
580.49	45352.56
580.65	45254.26
580.82	45455.54
580.98	45104.46
581.14	44999.14
581.30	45425.12
581.46	45347.88
581.62	45200.43
581.78	45251.92
581.94	45401.71
582.10	45408.73
582.26	45532.78
582.42	45633.42
582.58	45635.77
582.74	45797.26
582.90	45153.62
583.06	45684.92
583.22	45532.78
583.38	45944.72
583.54	45684.92
583.70	45649.81
583.86	45394.69
584.02	45471.93
584.18	45837.05
584.34	45670.87
584.50	45860.46
584.66	45556.19
584.82	45881.52
584.98	45958.76
585.14	45792.58
585.30	45811.31
585.46	45514.06
585.62	45546.82
585.78	45668.53
585.94	45397.03
586.10	45390.01
586.26	45675.55
586.42	45280.00
586.58	45787.90
586.74	45633.42
586.90	45364.26
587.06	45930.67
587.22	45553.85
587.38	45675.55
587.54	45570.23
587.70	45635.77
587.86	45361.92
588.02	46021.95
588.18	45556.19
588.34	45647.47
588.49	45684.92
588.65	45390.01
588.81	45724.71
588.97	46239.62
589.13	45640.45
589.29	45574.91
589.45	45839.39
589.61	45610.02
589.77	45825.35
589.93	45977.48
590.08	45916.63
590.24	46260.69
590.40	46122.60
590.56	45998.55
590.72	46279.41
590.88	46171.75
591.04	46260.69
591.20	46513.47
591.35	45930.67
591.51	47002.64
591.67	46082.81
591.83	46038.34
591.99	46017.27
592.15	45698.96
592.31	46305.16
592.46	45984.51
592.62	45982.16
592.78	45921.31
592.94	46171.75
593.10	46431.55
593.26	46412.82
593.41	46265.37
593.57	45937.69
593.73	46054.72
593.89	46394.10
594.05	46387.08
594.20	46380.06
594.36	46447.93
594.52	46316.86
594.68	46342.61
594.84	46225.58
594.99	46548.57
595.15	45902.59
595.31	46429.21
595.47	46309.84
595.62	46127.28
595.78	46026.63
595.94	46382.40
596.10	46312.18
596.25	46557.94
596.41	46649.22
596.57	46122.60
596.73	46478.36
596.88	46696.03
597.04	45769.18
597.20	45963.44
597.36	46803.69
597.51	46265.37
597.67	46607.09
597.83	46520.49
597.99	46305.16
598.14	46209.20
598.30	46550.91
598.46	46178.77
598.61	46539.21
598.77	46143.66
598.93	46270.05
599.09	46628.15
599.24	46443.25
599.40	46445.59
599.56	46408.14
599.71	46670.28
599.87	46791.99
600.03	47084.56
600.18	46742.84
600.34	46443.25
600.50	46679.64
600.65	46295.80
600.81	46892.63
600.97	47035.41
601.12	46780.29
601.28	46447.93
601.44	46593.04
601.59	46492.40
601.75	46293.46
601.91	46457.29
602.06	46368.35
602.22	46803.69
602.37	46419.84
602.53	46497.08
602.69	46494.74
602.84	46333.24
603.00	46464.32
603.16	46635.17
603.31	46831.78
603.47	46651.56
603.62	46728.80
603.78	46412.82
603.94	46452.61
604.09	46330.90
604.25	46384.74
604.40	46476.02
604.56	46504.10
604.71	46838.80
604.87	46728.80
605.03	46497.08
605.18	46714.75
605.34	46450.27
605.49	45834.71
605.65	46506.44
605.80	46270.05
605.96	46260.69
606.12	46745.18
606.27	46461.97
606.43	46405.80
606.58	46574.32
606.74	46366.01
606.89	46358.99
607.05	46796.67
607.20	46801.35
607.36	46131.96
607.51	46073.45
607.67	46347.29
607.82	46155.36
607.98	45937.69
608.13	46696.03
608.29	46197.49
608.44	46101.53
608.60	46099.19
608.75	46611.77
608.91	45986.85
609.06	46422.19
609.22	46272.39
609.37	46237.28
609.53	46080.47
609.68	46298.14
609.84	46131.96
609.99	46036.00
610.15	46171.75
610.30	46557.94
610.46	46127.28
610.61	46316.86
610.76	46199.83
610.92	45844.07
611.07	46087.49
611.23	45834.71
611.38	45778.54
611.54	46031.32
611.69	45930.67
611.84	46323.88
612.00	46059.40
612.15	46195.15
612.31	46239.62
612.46	45806.62
612.62	45970.46
612.77	46099.19
612.92	46110.89
613.08	45935.35
613.23	46150.68
613.39	46096.85
613.54	45914.29
613.69	45904.93
613.85	45731.73
614.00	45820.67
614.15	46061.74
614.31	45799.60
614.46	45705.98
614.62	45729.39
614.77	45855.78
614.92	45961.10
615.08	45390.01
615.23	45963.44
615.38	46021.95
615.54	45303.41
615.69	45827.69
615.84	45673.21
616.00	45832.37
616.15	45413.41
616.30	45710.66
616.46	46021.95
616.61	45289.37
616.76	45715.34
616.92	45336.18
617.07	45689.60
617.22	45549.17
617.37	45008.50
617.53	45296.39
617.68	45471.93
617.83	45427.46
617.99	45745.77
618.14	45392.35
618.29	45104.46
618.45	45202.77
618.60	45551.51
618.75	45364.26
618.90	45432.14
619.06	45265.96
619.21	45509.38
619.36	45429.80
619.51	45366.60
619.67	45104.46
619.82	44935.95
619.97	45308.09
620.12	45205.11
620.28	45123.19
620.43	45794.92
620.58	45535.12
620.73	45420.44
620.89	45343.20
621.04	45275.32
621.19	44832.96
621.34	44959.35
621.49	45008.50
621.65	44987.44
621.80	45092.76
621.95	45284.68
622.10	45144.25
622.25	45155.96
622.41	44896.16
622.56	44807.22
622.71	45067.02
622.86	44568.48
623.01	45153.62
623.16	44851.69
623.32	44589.55
623.47	44737.00
623.62	44414.01
623.77	44788.49
623.92	44751.04
624.07	45308.09
624.23	44910.20
624.38	45167.66
624.53	44634.02
624.68	44257.19
624.83	44334.43
624.98	44563.80
625.13	44095.69
625.29	44360.17
625.44	44435.07
625.59	44116.76
625.74	44449.11
625.89	44074.63
626.04	44296.98
626.19	44304.00
626.34	44282.94
626.49	43828.87
626.65	44126.12
626.80	44133.14
626.95	44018.46
627.10	43702.48
627.25	44238.47
627.40	44357.83
627.55	44126.12
627.70	43800.79
627.85	44561.46
628.00	44458.48
628.15	43835.89
628.30	43683.76
628.45	44128.46
628.60	43454.39
628.76	43601.84
628.91	44079.31
629.06	43725.89
629.21	43374.81
629.36	43966.96
629.51	43655.67
629.66	43948.24
629.81	44116.76
629.96	43924.83
630.11	43903.77
630.26	43779.72
630.41	43702.48
630.56	43115.01
630.71	43721.21
630.86	43761.00
631.01	43487.15
631.16	43531.62
631.31	43358.42
631.46	43613.54
631.61	43707.16
631.76	44044.20
631.91	43538.65
632.06	43751.63
632.21	43793.76
632.36	43700.14
632.51	43196.93
632.66	43634.61
632.81	43096.28
632.96	43278.85
633.10	43405.23
633.25	43182.88
633.40	42981.60
633.55	43332.68
633.70	43393.53
633.85	43028.41
634.00	42595.41
634.15	42951.17
634.30	43009.68
634.45	42796.70
634.60	42932.45
634.75	43288.21
634.90	42883.30
635.05	43040.11
635.19	42794.36
635.34	42965.21
635.49	42726.48
635.64	42794.36
635.79	43136.07
635.94	43026.07
636.09	42431.57
636.24	42742.86
636.39	42618.81
636.53	42501.79
636.68	42462.00
636.83	42171.77
636.98	42150.71
637.13	42157.73
637.28	42553.28
637.43	41940.06
637.57	42293.48
637.72	42190.50
637.87	42326.25
638.02	42665.63
638.17	42092.19
638.32	42473.70
638.46	42108.58
638.61	42518.17
638.76	41808.99
638.91	42445.62
639.06	42171.77
639.20	41879.21
639.35	41977.51
639.50	41806.65
639.65	42344.97
639.80	42202.20
639.94	42543.92
640.09	42419.87
640.24	42466.68
640.39	41570.25
640.54	41890.91
640.68	42078.15
640.83	42579.03
640.98	41874.52
641.13	41397.06
641.27	42225.60
641.42	42094.53
641.57	41926.02
641.72	42066.45
641.86	41420.46
642.01	41378.33
642.16	41666.22
642.31	41694.30
642.45	42068.79
642.60	41188.75
642.75	41483.66
642.90	41813.67
643.04	41872.18
643.19	41481.31
643.34	40950.01
643.48	41553.87
643.63	41509.40
643.78	41200.45
643.93	41586.64
644.07	41769.20
644.22	41542.17
644.37	41371.31
644.51	41509.40
644.66	41600.68
644.81	41558.55
644.95	41097.47
645.10	42024.32
645.25	41282.37
645.39	41029.59
645.54	41102.15
645.69	40903.20
645.83	41062.36
645.98	40456.16
646.13	41184.07
646.27	41010.87
646.42	40587.23
646.57	41137.26
646.71	40814.26
646.86	41635.79
647.00	40978.10
647.15	40875.12
647.30	41198.11
647.44	40727.66
647.59	40711.28
647.74	40734.68
647.88	40950.01
648.03	41097.47
648.17	41109.17
648.32	41013.21
648.47	41635.79
648.61	40940.65
648.76	40732.34
648.90	40844.69
649.05	40540.42
649.20	40374.24
649.34	40650.42
649.49	40608.29
649.63	40828.30
649.78	40615.32
649.92	40823.62
650.07	41078.74
650.21	40968.74
650.36	40409.35
650.51	40730.00
650.65	40631.70
650.80	40112.10
650.94	40634.04
651.09	40418.71
651.23	39950.60
651.38	40006.78
651.52	39866.34
651.67	39971.67
651.81	40161.25
651.96	40257.21
652.10	40685.53
652.25	40076.99
652.39	40428.07
652.54	40051.25
652.68	40378.92
652.83	39414.62
652.97	40128.48
653.12	39995.07
653.26	39754.00
653.41	39789.11
653.55	39814.85
653.70	40039.54
653.84	40187.00
653.99	39997.41
654.13	40112.10
654.27	39611.23
654.42	39833.58
654.56	39758.68
654.71	39653.36
654.85	40081.67
655.00	39718.89
655.14	39618.25
655.29	39889.75
655.43	39524.63
655.57	39627.61
655.72	39484.84
655.86	39363.13
656.01	39248.44
656.15	38979.28
656.30	39445.05
656.44	39569.10
656.58	39508.24
656.73	39154.82
656.87	38672.67
657.01	39267.17
657.16	39007.37
657.30	39517.60
657.45	39168.87
657.59	39115.03
657.73	38888.00
657.88	39262.49
658.02	39353.77
658.16	39573.78
658.31	39168.87
658.45	39145.46
658.60	38602.46
658.74	38855.23
658.88	38773.31
659.03	38871.62
659.17	38724.16
659.31	38675.01
659.46	38366.06
659.60	38295.85
659.74	38314.57
659.89	38464.36
660.03	38066.47
660.17	38316.91
660.32	38742.89
660.46	38181.16
660.60	37954.13
660.74	37968.17
660.89	38623.52
661.03	37581.98
661.17	37860.51
661.32	38103.92
661.46	37830.08
661.60	38129.67
661.74	37886.25
661.89	37797.31
662.03	37785.61
662.17	37610.07
662.31	37848.80
662.46	38129.67
662.60	37296.44
662.74	37193.45
662.88	37687.31
663.03	37212.18
663.17	37048.34
663.31	37209.84
663.45	37614.75
663.60	37324.52
663.74	37432.19
663.88	37338.57
664.02	37249.63
664.17	37060.04
664.31	36704.28
664.45	37022.59
664.59	37041.32
664.73	36627.04
664.88	36863.44
665.02	36669.17
665.16	36884.50
665.30	36861.10
665.44	36840.03
665.59	36395.33
665.73	36463.21
665.87	36243.20
666.01	36711.30
666.15	36229.15
666.29	36524.06
666.44	36627.04
666.58	36720.66
666.72	35765.73
666.86	36060.63
667.00	36079.36
667.14	35962.33
667.28	35967.01
667.43	35873.39
667.57	36210.43
667.71	35641.68
667.85	36282.98
667.99	36196.38
668.13	35564.44
668.27	35669.76
668.41	35524.65
668.56	35014.41
668.70	35304.64
668.84	35091.65
668.98	35229.74
669.12	35208.68
669.26	35241.45
669.40	35012.07
669.54	34684.40
669.68	34960.58
669.82	34586.10
669.96	34717.17
670.10	34286.51
670.25	34621.20
670.39	34838.87
670.53	34576.73
670.67	34941.86
670.81	34672.70
670.95	34656.31
671.09	34417.58
671.23	34003.30
671.37	34174.16
671.51	34232.68
671.65	34066.50
671.79	34125.01
671.93	33956.49
672.07	34452.69
672.21	33956.49
672.35	33759.89
672.49	33652.22
672.63	33874.57
672.77	33708.40
672.91	33895.64
673.05	33254.33
673.19	32938.36
673.33	33354.97
673.47	32999.21
673.61	32905.59
673.75	33237.95
673.89	32861.12
674.03	33060.07
674.17	32664.52
674.31	32320.46
674.45	32325.14
674.59	32374.29
674.73	32589.62
674.87	32481.95
675.01	32294.71
675.15	31847.67
675.29	32194.07
675.43	32210.45
675.56	31803.20
675.70	32025.55
675.84	31875.76
675.98	30836.56
676.12	31370.20
676.26	31735.32
676.40	31215.72
676.54	31185.30
676.68	31051.89
676.82	30684.42
676.96	31346.79
677.10	31601.91
677.23	31414.67
677.37	31044.87
677.51	30976.99
677.65	30871.67
677.79	30469.09
677.93	30579.10
678.07	30611.87
678.21	30551.01
678.34	30120.35
678.48	29764.59
678.62	30246.74
678.76	30043.12
678.90	30000.99
679.04	29902.68
679.18	29708.42
679.31	29677.99
679.45	29406.49
679.59	29523.52
679.73	29551.60
679.87	29020.30
680.00	28994.56
680.14	28989.88
680.28	29156.05
680.42	29088.18
680.56	28790.93
680.70	28685.61
680.83	28751.14
680.97	28505.38
681.11	28444.53
681.25	28397.72
681.39	27953.02
681.52	28332.18
681.66	27641.73
681.80	27559.81
681.94	27608.96
682.07	27477.89
682.21	27676.83
682.35	27779.82
682.49	27534.06
682.62	27489.59
682.76	27555.13
682.90	26984.04
683.04	27222.77
683.17	26962.97
683.31	27241.50
683.45	26714.87
683.59	26373.16
683.72	26464.44
683.86	26623.59
684.00	26553.38
684.13	26698.49
684.27	26391.88
684.41	26338.05
684.55	26272.51
684.68	26281.88
684.82	26047.82
684.96	25736.53
685.09	25921.43
685.23	25486.09
685.37	25638.23
685.50	25586.74
685.64	25551.63
685.78	25238.00
685.91	25392.47
686.05	24835.42
686.19	24741.80
686.32	24577.97
686.46	24573.28
686.60	24561.58
686.73	24687.97
686.87	24641.16
687.01	24421.15
687.14	24559.24
687.28	24432.85
687.42	23974.11
687.55	23941.34
687.69	24336.89
687.82	23714.31
687.96	23992.83
688.10	24023.26
688.23	23718.99
688.37	23667.50
688.50	23927.30
688.64	23601.96
688.78	23328.12
688.91	23173.64
689.05	23007.47
689.18	22927.89
689.32	22438.72
689.46	22675.11
689.59	22827.24
689.73	23014.49
689.86	22944.27
690.00	22581.49
690.13	22841.29
690.27	22169.55
690.41	22522.98
690.54	21769.32
690.68	22139.13
690.81	22080.61
690.95	21937.84
691.08	21972.95
691.22	21790.39
691.35	21575.06
691.49	21949.54
691.62	21811.45
691.76	21507.18
691.89	21385.47
692.03	20795.66
692.16	21095.25
692.30	21020.35
692.43	21032.05
692.57	20659.91
692.70	20748.85
692.84	20503.09
692.97	20194.14
693.11	20233.93
693.24	20381.38
693.38	19948.39
693.51	19997.54
693.65	20056.05
693.78	19833.70
693.92	19948.39
694.05	19543.47
694.19	19693.27
694.32	19679.22
694.45	19784.55
694.59	19599.65
694.72	19791.57
694.86	19449.85
694.99	19410.06
695.13	19274.31
695.26	18881.10
695.39	18909.19
695.53	18883.44
695.66	18876.42
695.80	18427.04
695.93	18787.48
696.07	18422.36
696.20	18242.14
696.33	18120.43
696.47	18122.77
696.60	18101.70
696.73	18361.50
696.87	18003.40
697.00	18050.21
697.14	18040.85
697.27	17806.80
697.40	18005.74
697.54	17778.71
697.67	17645.30
697.80	17830.20
697.94	17317.62
698.07	17099.95
698.21	17289.54
698.34	17191.23
698.47	17078.89
698.61	16919.73
698.74	16692.70
698.87	16884.62
699.01	16823.77
699.14	16659.93
699.27	16786.32
699.40	16493.76
699.54	16376.73
699.67	16582.70
699.80	16248.00
699.94	16100.55
700.07	16149.70
700.20	16004.58
700.34	16126.29
700.47	16327.58
700.60	16154.38
700.73	15810.32
700.87	15314.13
701.00	15548.18
701.13	15314.13
701.26	15330.51
701.40	15297.74
701.53	15264.97
701.66	15576.27
701.79	15379.66
701.93	14939.64
702.06	14862.40
702.19	14829.63
702.32	14944.32
702.46	14878.79
702.59	15218.16
702.72	14778.14
702.85	14834.32
702.99	14714.95
703.12	14516.00
703.25	14394.29
703.38	14221.10
703.51	14368.55
703.65	14139.18
703.78	14211.73
703.91	14073.64
704.04	13818.52
704.17	13855.97
704.31	13996.40
704.44	13561.06
704.57	13844.27
704.70	13722.56
704.83	13685.11
704.96	13701.50
705.10	13303.60
705.23	13228.71
>>>>>End Processed Spectral Data<<<<<
