SpectraSuite Data File
++++++++++++++++++++++++++++++++++++
Date: Fri Oct 25 10:47:12 EDT 2013
User: price-jones
Dark Spectrum Present: No
Reference Spectrum Present: No
Number of Sampled Component Spectra: 1
Spectrometers: USB2+H05261
Integration Time (usec): 100000 (USB2+H05261)
Spectra Averaged: 1 (USB2+H05261)
Boxcar Smoothing: 0 (USB2+H05261)
Correct for Electrical Dark: No (USB2+H05261)
Strobe/Lamp Enabled: No (USB2+H05261)
Correct for Detector Non-linearity: No (USB2+H05261)
Correct for Stray Light: No (USB2+H05261)
Number of Pixels in Processed Spectrum: 2048
>>>>>Begin Processed Spectral Data<<<<<
365.73	23.41
365.92	23.41
366.12	23.41
366.32	35.11
366.52	0.00
366.72	35.11
366.91	35.11
367.11	18.72
367.31	0.00
367.51	63.19
367.70	58.51
367.90	9.36
368.10	0.00
368.30	53.83
368.49	46.81
368.69	98.30
368.89	100.64
369.09	74.90
369.28	84.26
369.48	0.00
369.68	140.43
369.87	95.96
370.07	84.26
370.27	74.90
370.47	212.99
370.66	353.42
370.86	428.32
371.06	369.80
371.25	369.80
371.45	397.89
371.65	479.81
371.84	519.60
372.04	411.93
372.24	447.04
372.44	484.49
372.63	500.87
372.83	550.03
373.03	456.40
373.22	491.51
373.42	519.60
373.62	564.07
373.81	519.60
374.01	545.34
374.21	535.98
374.40	496.19
374.60	538.32
374.79	489.17
374.99	526.62
375.19	624.92
375.38	528.96
375.58	559.39
375.78	531.30
375.97	547.69
376.17	608.54
376.37	608.54
376.56	543.00
376.76	580.45
376.95	524.28
377.15	559.39
377.35	533.64
377.54	606.20
377.74	566.41
377.93	575.77
378.13	566.41
378.33	599.18
378.52	629.60
378.72	613.22
378.91	662.37
379.11	645.99
379.31	587.47
379.50	662.37
379.70	613.22
379.89	713.86
380.09	622.58
380.28	617.90
380.48	648.33
380.68	615.56
380.87	657.69
381.07	638.97
381.26	641.31
381.46	664.71
381.65	629.60
381.85	695.14
382.04	730.25
382.24	716.20
382.43	629.60
382.63	653.01
382.83	657.69
383.02	678.76
383.22	660.03
383.41	648.33
383.61	730.25
383.80	692.80
384.00	683.44
384.19	711.52
384.39	758.33
384.58	704.50
384.78	702.16
384.97	692.80
385.17	681.10
385.36	751.31
385.56	734.93
385.75	760.67
385.95	835.57
386.14	770.04
386.34	739.61
386.53	837.91
386.72	720.88
386.92	849.61
387.11	863.66
387.31	835.57
387.50	758.33
387.70	821.53
387.89	795.78
388.09	840.25
388.28	819.19
388.48	819.19
388.67	837.91
388.86	903.45
389.06	758.33
389.25	849.61
389.45	858.98
389.64	919.83
389.84	957.28
390.03	858.98
390.22	891.74
390.42	966.64
390.61	880.04
390.81	980.68
391.00	961.96
391.19	938.55
391.39	1004.09
391.58	931.53
391.78	912.81
391.97	943.24
392.16	919.83
392.36	966.64
392.55	978.34
392.75	896.43
392.94	1001.75
393.13	987.71
393.33	954.94
393.52	945.58
393.71	961.96
393.91	987.71
394.10	1093.03
394.29	1006.43
394.49	973.66
394.68	1055.58
394.88	992.39
395.07	987.71
395.26	1132.82
395.46	1130.48
395.65	1057.92
395.84	1221.76
396.04	1151.54
396.23	1083.67
396.42	1078.99
396.62	1078.99
396.81	1083.67
397.00	1123.46
397.19	1135.16
397.39	1184.31
397.58	1217.08
397.77	1177.29
397.97	1245.16
398.16	1226.44
398.35	1329.42
398.55	1191.33
398.74	1275.59
398.93	1256.87
399.12	1303.68
399.32	1291.98
399.51	1315.38
399.70	1254.53
399.90	1240.48
400.09	1341.13
400.28	1378.58
400.47	1387.94
400.67	1439.43
400.86	1345.81
401.05	1294.32
401.24	1327.08
401.44	1460.49
401.63	1362.19
401.82	1490.92
402.01	1399.64
402.21	1523.69
402.40	1504.96
402.59	1556.46
402.78	1462.83
402.97	1441.77
403.17	1572.84
403.36	1483.90
403.55	1589.22
403.74	1577.52
403.93	1666.46
404.13	1605.61
404.32	1575.18
404.51	1685.19
404.70	1708.59
404.89	1607.95
405.09	1668.80
405.28	1811.57
405.47	1678.16
405.66	1713.27
405.85	1673.48
406.05	1736.68
406.24	1783.49
406.43	1781.15
406.62	1795.19
406.81	1816.26
407.00	1781.15
407.20	1767.10
407.39	1645.40
407.58	1781.15
407.77	1865.41
407.96	1886.47
408.15	1888.81
408.34	1842.00
408.54	1933.28
408.73	1909.88
408.92	1989.46
409.11	1886.47
409.30	2059.67
409.49	2076.06
409.68	2122.87
409.87	1973.07
410.07	2045.63
410.26	1989.46
410.45	2005.84
410.64	2038.61
410.83	2118.18
411.02	2139.25
411.21	2228.19
411.40	2139.25
411.59	2150.95
411.78	2157.97
411.98	2296.07
412.17	2270.32
412.36	2258.62
412.55	2340.54
412.74	2361.60
412.93	2375.64
413.12	2239.89
413.31	2541.82
413.50	2417.77
413.69	2459.90
413.88	2466.92
414.07	2443.52
414.26	2525.44
414.45	2487.99
414.64	2576.93
414.83	2546.50
415.02	2537.14
415.22	2560.55
415.41	2703.32
415.60	2635.44
415.79	2705.66
415.98	2883.54
416.17	2808.64
416.36	2757.15
416.55	2750.13
416.74	2871.84
416.93	2785.24
417.12	2815.66
417.31	2810.98
417.50	2974.82
417.69	2953.76
417.88	3087.17
418.07	2949.08
418.26	2820.35
418.45	3159.72
418.64	3178.45
418.83	3143.34
419.02	3119.93
419.21	3063.76
419.39	3066.10
419.58	3089.51
419.77	3075.46
419.96	3225.26
420.15	3183.13
420.34	3192.49
420.53	3136.32
420.72	3337.60
420.91	3180.79
421.10	3229.94
421.29	3414.84
421.48	3201.85
421.67	3307.18
421.86	3330.58
422.05	3466.33
422.24	3410.16
422.43	3297.81
422.61	3440.59
422.80	3494.42
422.99	3332.92
423.18	3304.84
423.37	3499.10
423.56	3501.44
423.75	3419.52
423.94	3424.20
424.13	3276.75
424.32	3279.09
424.50	3431.23
424.69	3529.53
424.88	3508.46
425.07	3435.91
425.26	3463.99
425.45	3524.85
425.64	3375.05
425.83	3552.93
426.01	3583.36
426.20	3494.42
426.39	3522.51
426.58	3485.06
426.77	3414.84
426.96	3414.84
427.15	3489.74
427.33	3595.06
427.52	3492.08
427.71	3574.00
427.90	3637.19
428.09	3550.59
428.28	3599.74
428.46	3847.84
428.65	3669.96
428.84	3747.20
429.03	3892.31
429.22	3550.59
429.40	3669.96
429.59	3768.26
429.78	3602.08
429.97	3566.98
430.16	3595.06
430.34	3637.19
430.53	3894.65
430.72	3812.73
430.91	3700.39
431.10	3747.20
431.28	3962.53
431.47	4035.08
431.66	4161.47
431.85	4053.81
432.03	4093.60
432.22	4201.26
432.41	4102.96
432.60	4208.28
432.79	4159.13
432.97	4196.58
433.16	4088.92
433.35	4208.28
433.54	4215.30
433.72	4189.56
433.91	4273.82
434.10	4147.43
434.28	4372.12
434.47	4325.31
434.66	4503.19
434.85	4386.16
435.03	4440.00
435.22	4283.18
435.41	4451.70
435.59	4428.29
435.78	4550.00
435.97	4519.57
436.16	4304.25
436.34	4407.23
436.53	4444.68
436.72	4517.23
436.90	4290.20
437.09	4582.77
437.28	4451.70
437.46	4559.36
437.65	4540.64
437.84	4615.54
438.02	4582.77
438.21	4526.60
438.40	4507.87
438.58	4734.90
438.77	4842.57
438.96	4697.46
439.14	4837.89
439.33	4924.49
439.52	4882.36
439.70	4973.64
439.89	5034.49
440.08	5100.03
440.26	4865.97
440.45	4985.34
440.63	5074.28
440.82	5348.12
441.01	5198.33
441.19	5221.74
441.38	5289.61
441.57	5315.36
441.75	5350.46
441.94	5404.30
442.12	5385.57
442.31	5439.40
442.50	5544.73
442.68	5427.70
442.87	5551.75
443.05	5521.32
443.24	5472.17
443.43	5696.86
443.61	5502.60
443.80	5832.62
443.98	5720.27
444.17	5610.26
444.35	5678.14
444.54	5717.93
444.73	5724.95
444.91	5502.60
445.10	5771.76
445.28	5755.38
445.47	5722.61
445.65	5710.91
445.84	5750.70
446.02	5722.61
446.21	5783.46
446.39	5720.27
446.58	5717.93
446.77	5998.79
446.95	5678.14
447.14	5797.51
447.32	6045.60
447.51	5734.31
447.69	5944.96
447.88	5827.93
448.06	5987.09
448.25	5823.25
448.43	5928.58
448.62	5783.46
448.80	5944.96
448.99	5722.61
449.17	6036.24
449.36	5767.08
449.54	6061.99
449.73	6181.35
449.91	6106.46
450.10	6167.31
450.28	6190.72
450.46	6256.25
450.65	6202.42
450.83	6228.17
451.02	6218.80
451.20	6272.64
451.39	6366.26
451.57	6209.44
451.76	6141.57
451.94	6279.66
452.13	6384.98
452.31	6251.57
452.49	6218.80
452.68	6387.32
452.86	6558.18
453.05	6373.28
453.23	6492.65
453.42	6438.81
453.60	6513.71
453.78	6637.76
453.97	6366.26
454.15	6377.96
454.34	6427.11
454.52	6609.67
454.70	6312.42
454.89	6656.48
455.07	6712.66
455.26	6670.53
455.44	6743.08
455.62	6743.08
455.81	6834.36
455.99	6796.92
456.17	6782.87
456.36	6897.56
456.54	6993.52
456.73	7068.42
456.91	7180.76
457.09	7026.29
457.28	7173.74
457.46	7002.88
457.64	7073.10
457.83	7040.33
458.01	7108.21
458.19	7318.86
458.38	7236.94
458.56	7325.88
458.74	7183.10
458.93	7255.66
459.11	7417.16
459.29	7332.90
459.48	7372.69
459.66	7534.18
459.84	7447.58
460.03	7559.93
460.21	7641.85
460.39	7482.69
460.57	7590.36
460.76	7468.65
460.94	7616.10
461.12	7559.93
461.31	7620.78
461.49	7543.55
461.67	7599.72
461.85	7779.94
462.04	7513.12
462.22	8156.77
462.40	7899.31
462.59	7941.44
462.77	7688.66
462.95	7730.79
463.13	7726.11
463.32	7927.39
463.50	7878.24
463.68	7934.42
463.86	8222.30
464.05	7950.80
464.23	8004.63
464.41	7906.33
464.59	7478.01
464.78	8021.02
464.96	8011.65
465.14	8161.45
465.32	8016.33
465.50	8018.68
465.69	8407.20
465.87	8018.68
466.05	8116.98
466.23	8168.47
466.41	8231.66
466.60	8411.89
466.78	8002.29
466.96	8198.90
467.14	8355.71
467.32	8262.09
467.51	8594.45
467.69	8163.79
467.87	8318.26
468.05	8521.89
468.23	8332.31
468.41	8456.36
468.60	8439.97
468.78	8573.38
468.96	8327.63
469.14	8606.15
469.32	8622.53
469.50	8255.07
469.69	8592.11
469.87	8631.90
470.05	8793.39
470.23	8748.92
470.41	8767.65
470.59	8971.27
470.77	8711.47
470.95	8800.41
471.14	9055.53
471.32	8936.17
471.50	9050.85
471.68	9090.64
471.86	9125.75
472.04	9329.38
472.22	9380.87
472.40	9121.07
472.58	9083.62
472.77	9352.78
472.95	9467.47
473.13	9900.47
473.31	9348.10
473.49	9312.99
473.67	9451.08
473.85	9605.56
474.03	9713.22
474.21	9619.60
474.39	9577.47
474.57	9687.48
474.75	9898.13
474.93	9839.61
475.12	9937.91
475.30	10099.41
475.48	9951.96
475.66	10150.90
475.84	10068.98
476.02	10073.67
476.20	10225.80
476.38	10167.29
476.56	10544.11
476.74	10382.62
476.92	10251.55
477.10	10609.65
477.28	10757.10
477.46	10574.54
477.64	10764.12
477.82	10820.30
478.00	11328.19
478.18	11204.14
478.36	10930.30
478.54	11131.59
478.72	11122.23
478.90	11183.08
479.08	11740.13
479.26	11683.95
479.44	11723.74
479.62	11971.84
479.80	11990.56
479.98	12107.59
480.16	11854.81
480.34	11716.72
480.52	12123.98
480.70	12226.96
480.88	12175.47
481.06	12233.98
481.24	12161.42
481.41	12491.44
481.59	12645.91
481.77	12959.55
481.95	12681.02
482.13	12816.77
482.31	13261.48
482.49	13364.46
482.67	13305.95
482.85	13472.12
483.03	13516.59
483.21	13603.19
483.39	13865.33
483.57	13809.16
483.74	13729.58
483.92	13940.23
484.10	13919.17
484.28	14153.22
484.46	14113.43
484.64	14862.40
484.82	14298.33
485.00	14377.91
485.18	14843.68
485.35	15033.26
485.53	14651.75
485.71	14829.63
485.89	15040.28
486.07	14799.21
486.25	15236.89
486.43	15379.66
486.61	15276.68
486.78	15515.41
486.96	15763.51
487.14	16126.29
487.32	15829.04
487.50	16011.60
487.68	16170.76
487.85	16510.14
488.03	16580.36
488.21	16893.99
488.39	16837.81
488.57	17027.40
488.75	16840.15
488.92	17390.18
489.10	17170.17
489.28	17673.39
489.46	17556.36
489.64	17509.55
489.81	18031.49
489.99	17928.50
490.17	17811.48
490.35	18274.90
490.53	18436.40
490.70	18527.68
490.88	18438.74
491.06	18696.20
491.24	18822.59
491.41	18761.73
491.59	18555.77
491.77	18675.13
491.95	19307.08
492.13	19367.93
492.30	19620.71
492.48	19754.12
492.66	20135.63
492.84	19377.30
493.01	20147.33
493.19	19747.10
493.37	19957.75
493.54	20313.51
493.72	20299.47
493.90	20659.91
494.08	20638.84
494.25	21034.39
494.43	20837.79
494.61	21097.59
494.79	21116.31
494.96	20908.01
495.14	21401.86
495.32	21434.63
495.49	21542.29
495.67	21359.73
495.85	21671.02
496.02	21633.57
496.20	21771.66
496.38	21994.01
496.55	21949.54
496.73	22422.33
496.91	22134.45
497.09	22544.04
497.26	22670.43
497.44	22403.61
497.62	22745.33
497.79	23122.15
497.97	22836.61
498.14	23239.18
498.32	23318.76
498.50	23344.50
498.67	23330.46
498.85	23243.86
499.03	23861.76
499.20	23821.97
499.38	23608.98
499.56	23763.46
499.73	23854.74
499.91	23908.57
500.08	24400.08
500.26	24100.50
500.44	24596.69
500.61	24346.25
500.79	24208.16
500.97	24629.46
501.14	25163.10
501.32	24858.83
501.49	24907.98
501.67	24978.20
501.84	24699.67
502.02	24781.59
502.20	25275.45
502.37	25174.80
502.55	25387.79
502.72	25214.59
502.90	25055.43
503.07	25771.64
503.25	25673.34
503.43	25518.86
503.60	25586.74
503.78	25954.20
503.95	25612.48
504.13	25738.87
504.30	26340.39
504.48	26202.30
504.65	26473.80
504.83	26363.79
505.01	26661.04
505.18	26218.68
505.36	26920.84
505.53	26522.95
505.71	27117.45
505.88	27236.81
506.06	26944.25
506.23	26930.20
506.41	26927.86
506.58	26862.33
506.76	27075.32
506.93	27349.16
507.11	27075.32
507.28	27634.71
507.46	27543.42
507.63	27391.29
507.81	27728.33
507.98	27821.95
508.16	27679.18
508.33	28229.20
508.50	28135.58
508.68	28063.02
508.85	28505.38
509.03	28261.97
509.20	28430.49
509.38	28496.02
509.55	28465.60
509.73	28629.43
509.90	28369.63
510.08	28570.92
510.25	29060.09
510.42	29249.67
510.60	29160.73
510.77	29191.16
510.95	29282.44
511.12	29270.74
511.30	29340.96
511.47	29434.58
511.64	29717.78
511.82	29851.19
511.99	29486.07
512.17	29603.10
512.34	29757.57
512.51	29961.20
512.69	29802.04
512.86	30162.48
513.04	30490.16
513.21	29989.28
513.38	29984.60
513.56	30082.91
513.73	30120.35
513.90	30464.41
514.08	30103.97
514.25	30616.55
514.43	30604.84
514.60	30424.62
514.77	30485.48
514.95	30946.56
515.12	30726.55
515.29	31215.72
515.47	31000.40
515.64	31239.13
515.81	30995.71
515.99	31105.72
516.16	31276.58
516.33	31559.78
516.51	31695.53
516.68	30965.29
516.85	30958.27
517.03	31115.08
517.20	31398.29
517.37	31908.52
517.54	31826.60
517.72	31798.52
517.89	31735.32
518.06	31683.83
518.24	32107.47
518.41	31955.33
518.58	31665.11
518.75	32208.11
518.93	32290.03
519.10	32088.74
519.27	32849.42
519.45	32531.11
519.62	32947.72
519.79	32884.53
519.96	32776.86
520.14	32744.09
520.31	32271.31
520.48	32954.74
520.65	32645.79
520.83	33071.77
521.00	33544.56
521.17	33404.13
521.34	33144.33
521.52	33823.08
521.69	33614.77
521.86	33656.90
522.03	33539.88
522.20	33619.46
522.38	33617.11
522.55	33841.81
522.72	34120.33
522.89	33792.65
523.07	34089.90
523.24	33748.18
523.41	33975.22
523.58	33975.22
523.75	34511.20
523.92	34443.32
524.10	34679.72
524.27	34117.99
524.44	34490.13
524.61	34534.60
524.78	34448.00
524.96	34436.30
525.13	34932.50
525.30	35255.49
525.47	34911.43
525.64	34864.62
525.81	34972.28
525.98	34972.28
526.16	34958.24
526.33	35037.82
526.50	35424.01
526.67	35550.40
526.84	35241.45
527.01	34878.66
527.18	35044.84
527.36	35381.88
527.53	35723.60
527.70	35583.16
527.87	35601.89
528.04	35718.92
528.21	35276.55
528.38	35662.74
528.55	35702.53
528.72	35674.45
528.89	36079.36
529.07	35758.70
529.24	35959.99
529.41	35962.33
529.58	35859.35
529.75	36266.60
529.92	36584.91
530.09	36385.97
530.26	36460.87
530.43	36444.48
530.60	35889.77
530.77	36484.27
530.94	36549.81
531.11	36620.02
531.28	36493.63
531.46	36840.03
531.63	36488.95
531.80	36510.02
531.97	36669.17
532.14	36825.99
532.31	36959.40
532.48	37146.64
532.65	37219.20
532.82	36708.96
532.99	37153.66
533.16	36968.76
533.33	37556.24
533.50	37399.42
533.67	37460.27
533.84	36734.71
534.01	37715.39
534.18	37467.30
534.35	37745.82
534.52	37553.90
534.69	37406.44
534.86	37294.10
535.03	37574.96
535.20	38007.96
535.37	37834.76
535.54	38361.38
535.71	37647.52
535.88	37956.47
536.05	37902.64
536.22	38244.35
536.38	38321.59
536.55	38216.27
536.72	38422.23
536.89	38274.78
537.06	37958.81
537.23	38508.83
537.40	37923.70
537.57	38328.61
537.74	37895.61
537.91	38792.04
538.08	38368.40
538.25	38752.25
538.42	38586.07
538.59	38625.86
538.75	38480.75
538.92	38663.31
539.09	38684.37
539.26	39077.58
539.43	38967.58
539.60	38972.26
539.77	39012.05
539.94	38969.92
540.11	38923.11
540.28	38773.31
540.44	39098.65
540.61	39117.37
540.78	38855.23
540.95	39014.39
541.12	39262.49
541.29	38986.30
541.46	39313.98
541.62	39426.32
541.79	39709.53
541.96	38934.81
542.13	39431.01
542.30	39433.35
542.47	39519.95
542.63	39571.44
542.80	39388.88
542.97	40315.73
543.14	39840.60
543.31	39934.22
543.48	40236.15
543.64	40311.05
543.81	40051.25
543.98	40381.26
544.15	39948.26
544.32	40240.83
544.48	40500.63
544.65	40177.64
544.82	40177.64
544.99	40130.83
545.16	40343.81
545.32	40311.05
545.49	40774.47
545.66	40804.90
545.83	40762.77
546.00	41031.93
546.16	40671.49
546.33	40348.50
546.50	40119.12
546.67	40903.20
546.83	40999.16
547.00	40339.13
547.17	40622.34
547.34	41060.02
547.50	41120.87
547.67	41062.36
547.84	40753.41
548.00	41263.64
548.17	41062.36
548.34	40952.35
548.51	41174.70
548.67	41106.83
548.84	41191.09
549.01	41532.81
549.18	40931.29
549.34	41720.05
549.51	41535.15
549.68	41689.62
549.84	41261.30
550.01	41591.32
550.18	41392.37
550.34	41614.72
550.51	41991.55
550.68	41134.92
550.84	41525.78
551.01	41535.15
551.18	41689.62
551.34	41869.84
551.51	41841.76
551.68	42199.86
551.84	41652.17
552.01	42029.00
552.18	41361.95
552.34	41956.44
552.51	42195.18
552.68	41425.14
552.84	42267.73
553.01	42415.19
553.18	41710.69
553.34	42167.09
553.51	42033.68
553.67	41617.07
553.84	42124.96
554.01	42227.95
554.17	42504.13
554.34	42368.38
554.51	42422.21
554.67	42298.16
554.84	42602.43
555.00	42185.82
555.17	41876.86
555.33	42525.19
555.50	42232.63
555.67	42429.23
555.83	42770.95
556.00	42110.92
556.16	42763.93
556.33	42787.33
556.50	42815.42
556.66	42880.95
556.83	42244.33
556.99	42705.41
557.16	42501.79
557.32	42749.88
557.49	43145.44
557.65	42438.59
557.82	42667.97
557.98	42583.71
558.15	42864.57
558.32	42759.25
558.48	42651.58
558.65	43107.99
558.81	42672.65
558.98	42588.39
559.14	42958.19
559.31	42766.27
559.47	43030.75
559.64	42862.23
559.80	43119.69
559.97	43402.89
560.13	42981.60
560.30	43234.38
560.46	42803.72
560.63	43342.04
560.79	43103.31
560.96	43482.47
561.12	43311.61
561.29	43316.29
561.45	43552.69
561.61	43065.86
561.78	43683.76
561.94	43178.20
562.11	43199.27
562.27	43618.22
562.44	43063.52
562.60	43566.73
562.77	43311.61
562.93	43133.73
563.10	43505.88
563.26	43051.81
563.42	43489.49
563.59	43255.44
563.75	43576.09
563.92	43430.98
564.08	43655.67
564.24	43358.42
564.41	43543.33
564.57	43566.73
564.74	43695.46
564.90	43569.07
565.07	43768.02
565.23	43379.49
565.39	43487.15
565.56	44053.56
565.72	43931.86
565.88	43648.65
566.05	43461.41
566.21	44030.16
566.38	43761.00
566.54	43690.78
566.70	43482.47
566.87	44154.21
567.03	43655.67
567.19	44346.13
567.36	44039.52
567.52	43686.10
567.68	43613.54
567.85	43503.54
568.01	44006.75
568.17	43421.62
568.34	43838.23
568.50	44175.27
568.66	43681.42
568.83	43873.34
568.99	43702.48
569.15	44046.54
569.32	43576.09
569.48	43583.12
569.64	43693.12
569.81	44275.91
569.97	43711.84
570.13	43831.21
570.30	43969.30
570.46	43845.26
570.62	43913.13
570.78	43618.22
570.95	43871.00
571.11	44194.00
571.27	43737.59
571.43	43856.96
571.60	43636.95
571.76	43859.30
571.92	43936.54
572.09	43702.48
572.25	44154.21
572.41	43716.53
572.57	44011.43
572.74	44467.84
572.90	44116.76
573.06	44081.65
573.22	44231.44
573.38	44596.57
573.55	43906.11
573.71	44142.50
573.87	43803.13
574.03	43847.60
574.20	44112.08
574.36	43793.76
574.52	44203.36
574.68	44439.75
574.84	43988.03
575.01	44325.07
575.17	44044.20
575.33	44294.64
575.49	43512.90
575.65	44753.38
575.82	44669.12
575.98	44334.43
576.14	44423.37
576.30	44030.16
576.46	44212.72
576.62	44135.48
576.79	44156.55
576.95	43695.46
577.11	44144.84
577.27	44210.38
577.43	44343.79
577.59	44100.37
577.75	43903.77
577.92	44053.56
578.08	43934.20
578.24	44231.44
578.40	44196.34
578.56	44009.09
578.72	44442.09
578.88	44498.26
579.04	43927.17
579.21	44268.89
579.37	43938.88
579.53	43992.71
579.69	44250.17
579.85	44470.18
580.01	44301.66
580.17	43807.81
580.33	44203.36
580.49	44275.91
580.65	44168.25
580.82	44245.49
580.98	44123.78
581.14	44332.09
581.30	44371.88
581.46	44296.98
581.62	44772.11
581.78	44341.45
581.94	44360.17
582.10	44954.67
582.26	44493.58
582.42	44306.34
582.58	44524.01
582.74	43903.77
582.90	43971.64
583.06	44577.84
583.22	44198.68
583.38	44809.56
583.54	44250.17
583.70	44252.51
583.86	44444.43
584.02	44048.88
584.18	44573.16
584.34	44449.11
584.50	44128.46
584.66	43983.35
584.82	44245.49
584.98	44545.08
585.14	44655.08
585.30	44566.14
585.46	44350.81
585.62	44142.50
585.78	44261.87
585.94	43791.42
586.10	44135.48
586.26	44147.18
586.42	44320.38
586.58	44322.72
586.74	44694.87
586.90	44119.10
587.06	43896.75
587.22	44095.69
587.38	44325.07
587.54	44734.66
587.70	44615.29
587.86	44629.34
588.02	44575.50
588.18	44765.09
588.34	44222.08
588.49	44266.55
588.65	44760.40
588.81	43985.69
588.97	44364.85
589.13	44486.56
589.29	44364.85
589.45	44552.10
589.61	44465.50
589.77	44732.32
589.93	44641.04
590.08	44638.70
590.24	44875.09
590.40	44722.96
590.56	44788.49
590.72	44622.31
590.88	44795.51
591.04	44795.51
591.20	44996.80
591.35	44299.32
591.51	44949.99
591.67	44507.63
591.83	44800.19
591.99	44818.92
592.15	44804.88
592.31	44601.25
592.46	44935.95
592.62	44343.79
592.78	44725.30
592.94	44715.93
593.10	44861.05
593.26	44601.25
593.41	44395.28
593.57	44758.06
593.73	44694.87
593.89	44699.55
594.05	44652.74
594.20	44339.11
594.36	45118.51
594.52	44774.45
594.68	44725.30
594.84	44428.05
594.99	45024.89
595.15	44924.24
595.31	44957.01
595.47	44797.85
595.62	44751.04
595.78	44769.77
595.94	44964.03
596.10	44863.39
596.25	44423.37
596.41	44605.93
596.57	44699.55
596.73	45476.61
596.88	44081.65
597.04	44732.32
597.20	44872.75
597.36	44755.72
597.51	45069.36
597.67	44886.79
597.83	45118.51
597.99	45095.10
598.14	44849.35
598.30	45127.87
598.46	44732.32
598.61	44786.15
598.77	44699.55
598.93	44711.25
599.09	44912.54
599.24	45022.54
599.40	45441.50
599.56	45373.63
599.71	45010.84
599.87	45177.02
600.03	45188.72
600.18	44919.56
600.34	44514.65
600.50	45116.17
600.65	44776.79
600.81	45174.68
600.97	45542.14
601.12	45734.07
601.28	45067.02
601.44	44577.84
601.59	44816.58
601.75	44638.70
601.91	45013.18
602.06	44720.62
602.22	44893.82
602.37	44765.09
602.53	44720.62
602.69	45368.94
602.84	44491.24
603.00	44851.69
603.16	45144.25
603.31	44811.90
603.47	44816.58
603.62	44947.65
603.78	45057.65
603.94	44982.76
604.09	45144.25
604.25	45139.57
604.40	45347.88
604.56	45071.70
604.71	45083.40
604.87	44374.22
605.03	44877.43
605.18	44617.63
605.34	44830.62
605.49	44725.30
605.65	44816.58
605.80	44498.26
605.96	44673.81
606.12	44847.00
606.27	44947.65
606.43	45064.67
606.58	44917.22
606.74	44367.20
606.89	44275.91
607.05	44673.81
607.20	44755.72
607.36	44875.09
607.51	44996.80
607.67	44425.71
607.82	44381.24
607.98	44704.23
608.13	44645.72
608.29	44147.18
608.44	44196.34
608.60	44051.22
608.75	44512.31
608.91	44294.64
609.06	44573.16
609.22	45036.59
609.37	44650.40
609.53	44685.51
609.68	44828.28
609.84	44282.94
609.99	44718.28
610.15	44121.44
610.30	44491.24
610.46	44418.69
610.61	44313.36
610.76	44128.46
610.92	44179.95
611.07	44444.43
611.23	43765.68
611.38	44325.07
611.54	44151.87
611.69	43934.20
611.84	43936.54
612.00	44163.57
612.15	44030.16
612.31	44229.10
612.46	43992.71
612.62	44313.36
612.77	44088.67
612.92	43803.13
613.08	44086.33
613.23	44243.15
613.39	43807.81
613.54	43756.32
613.69	43924.83
613.85	43962.28
614.00	44486.56
614.15	44245.49
614.31	44362.51
614.46	44074.63
614.62	44119.10
614.77	43901.43
614.92	43763.34
615.08	43880.36
615.23	43650.99
615.38	43814.83
615.54	43971.64
615.69	43763.34
615.84	43398.21
616.00	43650.99
616.15	43693.12
616.30	44027.82
616.46	43353.74
616.61	43545.67
616.76	44055.90
616.92	43599.50
617.07	43587.80
617.22	42955.85
617.37	43185.22
617.53	43697.80
617.68	43320.98
617.83	43349.06
617.99	43704.82
618.14	43735.25
618.29	43428.64
618.45	43220.33
618.60	43187.56
618.75	43203.95
618.90	43739.93
619.06	43615.88
619.21	43225.01
619.36	43295.23
619.51	43281.19
619.67	43206.29
619.82	43449.70
619.97	43515.24
620.12	42918.40
620.28	42738.18
620.43	42689.03
620.58	42822.44
620.73	42934.79
620.89	42792.01
621.04	43082.24
621.19	43026.07
621.34	43016.71
621.49	42564.98
621.65	43026.07
621.80	43356.08
621.95	42401.14
622.10	43105.65
622.25	42270.08
622.41	42597.75
622.56	42934.79
622.71	42873.93
622.86	42733.50
623.01	42670.31
623.16	43070.54
623.32	42586.05
623.47	42749.88
623.62	42658.60
623.77	42623.50
623.92	42410.51
624.07	42251.35
624.23	42492.43
624.38	42550.94
624.53	42347.31
624.68	42539.24
624.83	42897.34
624.98	42316.89
625.13	41750.48
625.29	42838.83
625.44	42672.65
625.59	42249.01
625.74	41724.73
625.89	41902.61
626.04	42068.79
626.19	42066.45
626.34	42464.34
626.49	42422.21
626.65	41961.12
626.80	42300.50
626.95	42080.49
627.10	42204.54
627.25	41511.74
627.40	41818.35
627.55	41823.03
627.70	41771.54
627.85	41588.98
628.00	41731.75
628.15	42043.04
628.30	41731.75
628.45	42113.26
628.60	42146.03
628.76	41755.16
628.91	41574.94
629.06	41670.90
629.21	41588.98
629.36	41544.51
629.51	41446.21
629.66	41333.86
629.81	41464.93
629.96	41839.42
630.11	41631.11
630.26	41722.39
630.41	41687.28
630.56	41352.58
630.71	41567.91
630.86	41675.58
631.01	41095.13
631.16	41656.85
631.31	41443.87
631.46	40589.57
631.61	40935.97
631.76	41097.47
631.91	41092.79
632.06	41130.23
632.21	41034.27
632.36	41673.24
632.51	40861.07
632.66	41106.83
632.81	40645.74
632.96	40926.61
633.10	40676.17
633.25	41130.23
633.40	40842.35
633.55	41125.55
633.70	40762.77
633.85	40402.33
634.00	40521.69
634.15	41015.55
634.30	40594.25
634.45	40865.75
634.60	40751.07
634.75	40505.31
634.90	40559.14
635.05	40907.88
635.19	40236.15
635.34	41062.36
635.49	40418.71
635.64	40502.97
635.79	40467.86
635.94	40407.01
636.09	40177.64
636.24	40114.44
636.39	39868.69
636.53	40027.84
636.68	39782.09
636.83	40322.75
636.98	40694.89
637.13	40172.96
637.28	40081.67
637.43	40832.99
637.57	40381.26
637.72	39922.52
637.87	39779.74
638.02	40257.21
638.17	40292.32
638.32	39889.75
638.46	39985.71
638.61	39704.85
638.76	39761.02
638.91	39690.80
639.06	39625.27
639.20	40172.96
639.35	40432.75
639.50	39594.84
639.65	40062.95
639.80	39739.96
639.94	39758.68
640.09	39763.36
640.24	39686.12
640.39	39459.09
640.54	39693.15
640.68	39665.06
640.83	39264.83
640.98	39384.19
641.13	39196.95
641.27	39772.72
641.42	39538.67
641.57	39730.59
641.72	39489.52
641.86	39274.19
642.01	39257.81
642.16	38958.22
642.31	38864.60
642.45	39653.36
642.60	39292.91
642.75	38831.83
642.90	38993.32
643.04	39079.92
643.19	38904.38
643.34	39194.61
643.48	39414.62
643.63	39262.49
643.78	39271.85
643.93	38857.57
644.07	38892.68
644.22	38960.56
644.37	38536.92
644.51	38623.52
644.66	39096.31
644.81	38827.15
644.95	38869.28
645.10	38934.81
645.25	39218.02
645.39	39093.97
645.54	39070.56
645.69	39225.04
645.83	39124.40
645.98	38691.40
646.13	38579.05
646.27	39145.46
646.42	38588.41
646.57	38885.66
646.71	38618.84
646.86	38660.97
647.00	38712.46
647.15	38689.06
647.30	38824.81
647.44	38583.73
647.59	38464.36
647.74	38565.01
647.88	38321.59
648.03	38473.73
648.17	38202.22
648.32	37809.01
648.47	38462.02
648.61	38354.36
648.76	38560.33
648.90	38237.33
649.05	38274.78
649.20	38218.61
649.34	38293.50
649.49	38246.69
649.63	37919.02
649.78	38600.12
649.92	38188.18
650.07	38614.16
650.21	38237.33
650.36	38295.85
650.51	37771.57
650.65	38897.36
650.80	38312.23
650.94	38007.96
651.09	38160.09
651.23	37926.04
651.38	37975.19
651.52	37766.88
651.67	38113.28
651.81	37860.51
651.96	37773.91
652.10	37415.80
652.25	37675.60
652.39	37638.15
652.54	37865.19
652.68	37764.54
652.83	37792.63
652.97	37715.39
653.12	37834.76
653.26	37645.18
653.41	37778.59
653.55	37741.14
653.70	37563.26
653.84	37376.01
653.99	37797.31
654.13	37457.93
654.27	37715.39
654.42	37727.10
654.56	37167.71
654.71	37902.64
654.85	36973.44
655.00	37216.86
655.14	37104.51
655.29	37017.91
655.43	37216.86
655.57	36868.12
655.72	36727.69
655.86	37102.17
656.01	36769.82
656.15	37062.38
656.30	37273.03
656.44	36575.55
656.58	36655.13
656.73	36748.75
656.87	36776.84
657.01	36503.00
657.16	36648.11
657.30	36828.33
657.45	36886.84
657.59	36837.69
657.73	36776.84
657.88	36893.86
658.02	36837.69
658.16	36540.44
658.31	37141.96
658.45	36554.49
658.60	36292.35
658.74	36425.76
658.88	36657.47
659.03	36233.83
659.17	36282.98
659.31	36346.18
659.46	36297.03
659.60	36219.79
659.74	35936.59
659.89	35498.91
660.03	36304.05
660.17	36313.41
660.32	35718.92
660.46	36070.00
660.60	35840.62
660.74	36123.83
660.89	36088.72
661.03	35407.62
661.17	35707.21
661.32	35627.63
661.46	34904.41
661.60	35213.36
661.74	35599.55
661.89	35138.46
662.03	35683.81
662.17	35660.40
662.31	35817.22
662.46	35606.57
662.60	35426.35
662.74	35438.05
662.88	35283.58
663.03	35335.07
663.17	35225.06
663.31	35248.47
663.45	34890.37
663.60	35309.32
663.74	34808.45
663.88	34361.40
664.02	35201.66
664.17	34773.34
664.31	34185.86
664.45	34799.08
664.59	34983.99
664.73	34761.64
664.88	34897.39
665.02	34108.63
665.16	34209.27
665.30	34513.54
665.44	34066.50
665.59	34352.04
665.73	33879.25
665.87	33605.41
666.01	34242.04
666.15	33928.41
666.29	33993.94
666.44	34260.76
666.58	33961.17
666.72	33921.38
666.86	34134.37
667.00	33998.62
667.14	33787.97
667.28	33467.32
667.43	33605.41
667.57	33628.82
667.71	33692.01
667.85	33441.57
667.99	33710.74
668.13	33322.21
668.27	33221.56
668.41	33970.54
668.56	33074.11
668.70	33247.31
668.84	32896.23
668.98	33156.03
669.12	33247.31
669.26	32898.57
669.40	33214.54
669.54	32641.11
669.68	32943.04
669.82	32914.95
669.96	33181.77
670.10	32465.57
670.25	32870.48
670.39	32870.48
670.53	32783.88
670.67	32786.22
670.81	32921.98
670.95	32589.62
671.09	32648.13
671.23	32453.87
671.37	32446.85
671.51	32470.25
671.65	32088.74
671.79	32140.24
671.93	31555.10
672.07	32549.83
672.21	32229.18
672.35	31704.90
672.49	31974.06
672.63	31718.94
672.77	31269.56
672.91	31428.71
673.05	31569.15
673.19	31522.34
673.33	31079.97
673.47	31309.35
673.61	30747.62
673.75	30717.19
673.89	30806.13
674.03	30911.46
674.17	30995.71
674.31	31002.74
674.45	30827.20
674.59	31157.21
674.73	30958.27
674.87	30909.11
675.01	31040.18
675.15	30684.42
675.29	30766.34
675.43	30352.07
675.56	30307.60
675.70	30525.27
675.84	30228.02
675.98	28985.19
676.12	30176.53
676.26	29666.29
676.40	29905.02
676.54	29415.85
676.68	29949.50
676.82	29165.42
676.96	29518.84
677.10	29259.04
677.23	29156.05
677.37	29607.78
677.51	29413.51
677.65	28982.85
677.79	28716.03
677.93	28936.04
678.07	28652.84
678.21	28896.25
678.34	28741.78
678.48	28215.16
678.62	28533.47
678.76	28161.33
678.90	28400.06
679.04	28582.62
679.18	28591.98
679.31	28112.17
679.45	27632.36
679.59	27388.95
679.73	27924.93
679.87	27798.54
680.00	27618.32
680.14	27871.10
680.28	27751.73
680.42	27089.36
680.56	27424.06
680.70	27323.41
680.83	27295.33
680.97	26780.41
681.11	27274.26
681.25	26576.78
681.39	26897.44
681.52	26850.63
681.66	26689.13
681.80	26548.70
681.94	26562.74
682.07	26462.10
682.21	26497.20
682.35	25961.22
682.49	26001.01
682.62	26277.19
682.76	26136.76
682.90	25539.93
683.04	25635.89
683.17	26012.71
683.31	25748.23
683.45	25715.47
683.59	25544.61
683.72	25195.87
683.86	25256.72
684.00	25102.25
684.13	25282.47
684.27	25631.21
684.41	25170.12
684.55	25167.78
684.68	24783.93
684.82	24510.09
684.96	24547.54
685.09	24704.35
685.23	24627.12
685.37	24301.78
685.50	24484.34
685.64	24694.99
685.78	24184.76
685.91	24372.00
686.05	24137.94
686.19	23651.11
686.32	23821.97
686.46	23403.02
686.60	23545.79
686.73	23171.30
686.87	23232.16
687.01	23386.63
687.14	23269.61
687.28	23138.54
687.42	22977.04
687.55	22923.21
687.69	22970.02
687.82	22988.74
687.96	22796.82
688.10	22803.84
688.23	22506.59
688.37	22302.96
688.50	22167.21
688.64	22544.04
688.78	22216.36
688.91	22178.92
689.05	22153.17
689.18	21811.45
689.32	21766.98
689.46	21937.84
689.59	22040.82
689.73	22307.65
689.86	21834.86
690.00	21853.58
690.13	22059.55
690.27	21532.93
690.41	21256.75
690.54	21088.23
690.68	21635.91
690.81	21067.16
690.95	21003.97
691.08	20833.11
691.22	20760.55
691.35	20755.87
691.49	20915.03
691.62	21078.86
691.76	20879.92
691.89	20634.16
692.03	20409.47
692.16	20376.70
692.30	20376.70
692.43	19824.34
692.57	20198.82
692.70	19903.92
692.84	20039.67
692.97	19924.98
693.11	19538.79
693.24	19477.94
693.38	19679.22
693.51	19297.72
693.65	19484.96
693.78	19573.90
693.92	19438.15
694.05	19145.58
694.19	19147.92
694.32	18876.42
694.45	19187.71
694.59	18965.36
694.72	18586.19
694.86	18759.39
694.99	18831.95
695.13	18525.34
695.26	18691.52
695.39	18384.91
695.53	18370.86
695.66	18218.73
695.80	18438.74
695.93	18211.71
696.07	18148.51
696.20	17991.70
696.33	17940.21
696.47	17841.90
696.60	17769.35
696.73	17722.54
696.87	17977.65
697.00	17781.05
697.14	17631.26
697.27	17518.91
697.40	17483.80
697.54	17394.86
697.67	17228.68
697.80	17008.67
697.94	17296.56
698.07	16994.63
698.21	17036.76
698.34	16987.61
698.47	16809.73
698.61	16783.98
698.74	16402.47
698.87	16479.71
699.01	16329.92
699.14	16180.12
699.27	16652.91
699.40	16283.11
699.54	15803.30
699.67	16037.35
699.80	16002.24
699.94	15779.89
700.07	16058.42
700.20	15953.09
700.34	15981.18
700.47	15735.42
700.60	15859.47
700.73	15852.45
700.87	15435.83
701.00	15421.79
701.13	15538.82
701.26	15283.70
701.40	15536.48
701.53	14925.60
701.66	15049.64
701.79	14883.47
701.93	14909.21
702.06	14998.15
702.19	14766.44
702.32	14813.25
702.46	14836.66
702.59	14415.36
702.72	14417.70
702.85	14537.07
702.99	14743.03
703.12	14485.58
703.25	14548.77
703.38	14530.05
703.51	14281.95
703.65	14389.61
703.78	14284.29
703.91	14230.46
704.04	14171.94
704.17	13940.23
704.31	13848.95
704.44	13937.89
704.57	13439.36
704.70	13486.17
704.83	13729.58
704.96	13432.33
705.10	13706.18
705.23	13598.51
>>>>>End Processed Spectral Data<<<<<
