SpectraSuite Data File
++++++++++++++++++++++++++++++++++++
Date: Fri Oct 25 10:47:49 EDT 2013
User: price-jones
Dark Spectrum Present: No
Reference Spectrum Present: No
Number of Sampled Component Spectra: 1
Spectrometers: USB2+H05261
Integration Time (usec): 100000 (USB2+H05261)
Spectra Averaged: 1 (USB2+H05261)
Boxcar Smoothing: 0 (USB2+H05261)
Correct for Electrical Dark: No (USB2+H05261)
Strobe/Lamp Enabled: No (USB2+H05261)
Correct for Detector Non-linearity: No (USB2+H05261)
Correct for Stray Light: No (USB2+H05261)
Number of Pixels in Processed Spectrum: 2048
>>>>>Begin Processed Spectral Data<<<<<
365.73	135.75
365.92	135.75
366.12	135.75
366.32	56.17
366.52	25.75
366.72	53.83
366.91	7.02
367.11	39.79
367.31	16.38
367.51	107.66
367.70	4.68
367.90	124.05
368.10	11.70
368.30	35.11
368.49	28.09
368.69	102.98
368.89	112.35
369.09	51.49
369.28	117.03
369.48	72.56
369.68	53.83
369.87	112.35
370.07	14.04
370.27	117.03
370.47	203.63
370.66	320.65
370.86	353.42
371.06	418.96
371.25	433.00
371.45	425.98
371.65	484.49
371.84	404.91
372.04	461.09
372.24	458.74
372.44	447.04
372.63	517.26
372.83	477.47
373.03	500.87
373.22	547.69
373.42	601.52
373.62	543.00
373.81	545.34
374.01	547.69
374.21	484.49
374.40	533.64
374.60	559.39
374.79	594.50
374.99	547.69
375.19	535.98
375.38	543.00
375.58	589.82
375.78	634.29
375.97	631.94
376.17	657.69
376.37	561.73
376.56	561.73
376.76	521.94
376.95	582.79
377.15	585.13
377.35	554.71
377.54	631.94
377.74	550.03
377.93	615.56
378.13	657.69
378.33	575.77
378.52	599.18
378.72	634.29
378.91	594.50
379.11	638.97
379.31	582.79
379.50	594.50
379.70	711.52
379.89	683.44
380.09	706.84
380.28	610.88
380.48	720.88
380.68	711.52
380.87	653.01
381.07	685.78
381.26	657.69
381.46	645.99
381.65	664.71
381.85	695.14
382.04	641.31
382.24	720.88
382.43	723.23
382.63	706.84
382.83	725.57
383.02	716.20
383.22	753.65
383.41	674.07
383.61	718.54
383.80	765.36
384.00	784.08
384.19	779.40
384.39	706.84
384.58	587.47
384.78	716.20
384.97	727.91
385.17	739.61
385.36	751.31
385.56	805.14
385.75	730.25
385.95	828.55
386.14	730.25
386.34	746.63
386.53	781.74
386.72	751.31
386.92	798.12
387.11	809.83
387.31	821.53
387.50	763.01
387.70	861.32
387.89	889.40
388.09	908.13
388.28	767.70
388.48	718.54
388.67	828.55
388.86	842.59
389.06	889.40
389.25	861.32
389.45	849.61
389.64	929.19
389.84	959.62
390.03	945.58
390.22	983.02
390.42	882.38
390.61	901.11
390.81	943.24
391.00	926.85
391.19	968.98
391.39	887.06
391.58	976.00
391.78	1001.75
391.97	976.00
392.16	966.64
392.36	952.60
392.55	1018.13
392.75	1006.43
392.94	971.32
393.13	973.66
393.33	919.83
393.52	1018.13
393.71	1015.79
393.91	1015.79
394.10	999.41
394.29	1048.56
394.49	1107.07
394.68	1130.48
394.88	1090.69
395.07	1102.39
395.26	1095.37
395.46	1060.26
395.65	1247.51
395.84	1109.41
396.04	1196.01
396.23	1088.35
396.42	1163.25
396.62	1205.38
396.81	1196.01
397.00	1163.25
397.19	1165.59
397.39	1163.25
397.58	1301.34
397.77	1249.85
397.97	1284.95
398.16	1343.47
398.35	1348.15
398.55	1310.70
398.74	1238.14
398.93	1416.02
399.12	1416.02
399.32	1256.87
399.51	1273.25
399.70	1376.24
399.90	1348.15
400.09	1369.21
400.28	1350.49
400.47	1345.81
400.67	1521.35
400.86	1437.09
401.05	1418.36
401.24	1455.81
401.44	1511.99
401.63	1472.20
401.82	1416.02
402.01	1413.68
402.21	1577.52
402.40	1483.90
402.59	1544.75
402.78	1472.20
402.97	1458.15
403.17	1614.97
403.36	1579.86
403.55	1687.53
403.74	1549.43
403.93	1643.06
404.13	1685.19
404.32	1631.35
404.51	1701.57
404.70	1717.95
404.89	1755.40
405.09	1792.85
405.28	1760.08
405.47	1732.00
405.66	1757.74
405.85	1748.38
406.05	1743.70
406.24	1717.95
406.43	1816.26
406.62	1907.54
406.81	1844.34
407.00	1771.79
407.20	1802.21
407.39	1813.92
407.58	1867.75
407.77	1886.47
407.96	1914.56
408.15	2069.03
408.34	1942.64
408.54	2073.71
408.73	2026.90
408.92	2045.63
409.11	2090.10
409.30	2015.20
409.49	2008.18
409.68	2059.67
409.87	2113.50
410.07	2043.29
410.26	2036.27
410.45	2064.35
410.64	2136.91
410.83	2197.76
411.02	2183.72
411.21	2275.00
411.40	2195.42
411.59	2228.19
411.78	2242.23
411.98	2174.36
412.17	2345.22
412.36	2335.85
412.55	2422.45
412.74	2469.27
412.93	2483.31
413.12	2532.46
413.31	2576.93
413.50	2410.75
413.69	2574.59
413.88	2628.42
414.07	2492.67
414.26	2560.55
414.45	2651.83
414.64	2689.28
414.83	2612.04
415.02	2700.98
415.22	2754.81
415.41	2780.56
415.60	2703.32
415.79	2745.45
415.98	2981.84
416.17	2860.13
416.36	2897.58
416.55	2942.05
416.74	2937.37
416.93	2885.88
417.12	2920.99
417.31	3002.91
417.50	2977.16
417.69	3047.38
417.88	3084.83
418.07	3073.12
418.26	3126.96
418.45	3047.38
418.64	3187.81
418.83	3201.85
419.02	3150.36
419.21	3164.40
419.39	3290.79
419.58	3206.53
419.77	3220.58
419.96	3129.30
420.15	3258.03
420.34	3295.47
420.53	3410.16
420.72	3503.78
420.91	3417.18
421.10	3375.05
421.29	3545.91
421.48	3438.25
421.67	3478.04
421.86	3419.52
422.05	3471.01
422.24	3475.70
422.43	3492.08
422.61	3508.46
422.80	3456.97
422.99	3585.70
423.18	3548.25
423.37	3672.30
423.56	3581.02
423.75	3536.55
423.94	3431.23
424.13	3405.48
424.32	3449.95
424.50	3473.36
424.69	3726.13
424.88	3749.54
425.07	3529.53
425.26	3440.59
425.45	3440.59
425.64	3543.57
425.83	3543.57
426.01	3684.00
426.20	3632.51
426.39	3723.79
426.58	3604.42
426.77	3634.85
426.96	3637.19
427.15	3478.04
427.33	3676.98
427.52	3569.32
427.71	3688.68
427.90	3831.46
428.09	3801.03
428.28	3822.09
428.46	3770.60
428.65	3611.45
428.84	3920.40
429.03	3995.29
429.22	3784.65
429.40	3819.75
429.59	3758.90
429.78	3576.34
429.97	3630.17
430.16	3637.19
430.34	3775.28
430.53	3847.84
430.72	3932.10
430.91	3976.57
431.10	4011.68
431.28	4037.42
431.47	3988.27
431.66	4234.03
431.85	4187.22
432.03	4196.58
432.22	4280.84
432.41	4072.53
432.60	4245.73
432.79	4159.13
432.97	4168.49
433.16	4362.76
433.35	4102.96
433.54	4170.83
433.72	4365.10
433.91	4259.78
434.10	4341.69
434.28	4327.65
434.47	4243.39
434.66	4456.38
434.85	4472.76
435.03	4550.00
435.22	4423.61
435.41	4716.18
435.59	4493.83
435.78	4596.81
435.97	4599.15
436.16	4599.15
436.34	4650.64
436.53	4601.49
436.72	4765.33
436.90	4468.08
437.09	4671.71
437.28	4674.05
437.46	4688.09
437.65	4767.67
437.84	4910.44
438.02	4568.73
438.21	4751.29
438.40	4678.73
438.58	4844.91
438.77	5020.45
438.96	4905.76
439.14	5055.56
439.33	5163.22
439.52	4910.44
439.70	5071.94
439.89	5013.43
440.08	5210.03
440.26	5252.16
440.45	5212.37
440.63	5268.55
440.82	5322.38
441.01	5273.23
441.19	5345.78
441.38	5472.17
441.57	5390.25
441.75	5603.24
441.94	5509.62
442.12	5710.91
442.31	5600.90
442.50	5556.43
442.68	5806.87
442.87	5729.63
443.05	5680.48
443.24	5781.12
443.43	5818.57
443.61	5605.58
443.80	5891.13
443.98	5727.29
444.17	5465.15
444.35	5900.49
444.54	5870.06
444.73	5809.21
444.91	5839.64
445.10	5804.53
445.28	5736.65
445.47	5799.85
445.65	5844.32
445.84	6043.26
446.02	6038.58
446.21	6059.65
446.39	6026.88
446.58	5956.66
446.77	5851.34
446.95	5982.41
447.14	5870.06
447.32	6066.67
447.51	6085.39
447.69	6073.69
447.88	6008.16
448.06	6122.84
448.25	5989.43
448.43	6073.69
448.62	6106.46
448.80	6090.07
448.99	6122.84
449.17	6076.03
449.36	6094.76
449.54	6246.89
449.73	6284.34
449.91	6361.58
450.10	6502.01
450.28	6502.01
450.46	6406.05
450.65	6518.39
450.83	6406.05
451.02	6387.32
451.20	6448.18
451.39	6633.08
451.57	6387.32
451.76	6513.71
451.94	6544.14
452.13	6579.25
452.31	6558.18
452.49	6349.87
452.68	6551.16
452.86	6621.38
453.05	6686.91
453.23	6658.82
453.42	6328.81
453.60	6497.33
453.78	6700.95
453.97	6574.56
454.15	6834.36
454.34	6743.08
454.52	6911.60
454.70	6773.51
454.89	6794.58
455.07	6832.02
455.26	6878.83
455.44	6946.71
455.62	6942.03
455.81	6972.46
455.99	6993.52
456.17	7119.91
456.36	6951.39
456.54	7302.47
456.73	7246.30
456.91	7318.86
457.09	7211.19
457.28	7365.67
457.46	7279.07
457.64	7644.19
457.83	7089.48
458.01	7169.06
458.19	7522.48
458.38	7274.38
458.56	7456.95
458.74	7569.29
458.93	7492.05
459.11	7581.00
459.29	7489.71
459.48	7616.10
459.66	7300.13
459.84	7571.63
460.03	7772.92
460.21	7662.91
460.39	7683.98
460.57	7683.98
460.76	7737.81
460.94	7812.71
461.12	7602.06
461.31	7719.09
461.49	7878.24
461.67	7616.10
461.85	7871.22
462.04	7714.41
462.22	8358.05
462.40	8168.47
462.59	8030.38
462.77	8098.25
462.95	8063.15
463.13	8049.10
463.32	8203.58
463.50	7955.48
463.68	8121.66
463.86	8266.77
464.05	7943.78
464.23	7964.84
464.41	8414.23
464.59	8131.02
464.78	8358.05
464.96	8280.82
465.14	8208.26
465.32	8400.18
465.50	8489.12
465.69	8603.81
465.87	8210.60
466.05	8470.40
466.23	8369.76
466.41	8381.46
466.60	8545.30
466.78	8397.84
466.96	8514.87
467.14	8542.96
467.32	8692.75
467.51	8667.00
467.69	8306.56
467.87	8400.18
468.05	8596.79
468.23	8608.49
468.41	8627.21
468.60	8545.30
468.78	8667.00
468.96	8564.02
469.14	8894.04
469.32	8980.64
469.50	8692.75
469.69	8760.63
469.87	8938.51
470.05	8982.98
470.23	9092.98
470.41	9008.72
470.59	9167.88
470.77	9146.81
470.95	9210.01
471.14	9188.94
471.32	9121.07
471.50	9455.76
471.68	9460.45
471.86	9415.98
472.04	9530.66
472.22	9661.73
472.40	9270.86
472.58	9467.47
472.77	9570.45
472.95	9570.45
473.13	9710.88
473.31	9423.00
473.49	9509.60
473.67	9643.01
473.85	9923.87
474.03	9926.21
474.21	9940.26
474.39	10162.61
474.57	10047.92
474.75	10263.25
474.93	10375.59
475.12	10228.14
475.30	10340.49
475.48	10183.67
475.66	10099.41
475.84	10214.10
476.02	10216.44
476.20	10523.05
476.38	10707.95
476.56	10951.37
476.74	10743.06
476.92	10469.22
477.10	10869.45
477.28	11007.54
477.46	10721.99
477.64	11129.25
477.82	11040.31
478.00	11587.99
478.18	11695.66
478.36	11424.15
478.54	11527.14
478.72	11616.08
478.90	11735.45
479.08	11859.49
479.26	12112.27
479.44	11882.90
479.62	12121.63
479.80	11983.54
479.98	12299.52
480.16	12388.46
480.34	12297.17
480.52	12489.10
480.70	12645.91
480.88	12477.40
481.06	12526.55
481.24	12545.27
481.41	12884.65
481.59	13095.30
481.77	13048.49
481.95	13125.72
482.13	13322.33
482.31	13530.64
482.49	13357.44
482.67	13439.36
482.85	13689.79
483.03	13678.09
483.21	13961.30
483.39	14047.90
483.57	13996.40
483.74	14370.89
483.92	14539.41
484.10	14361.53
484.28	14586.22
484.46	14721.97
484.64	14773.46
484.82	14850.70
485.00	14923.26
485.18	14977.09
485.35	14984.11
485.53	15044.96
485.71	14899.85
485.89	15379.66
486.07	15412.43
486.25	15613.71
486.43	15548.18
486.61	15864.15
486.78	16044.37
486.96	15985.86
487.14	16280.77
487.32	16561.63
487.50	16676.32
487.68	16643.55
487.85	16709.08
488.03	17001.65
488.21	16922.07
488.39	17102.29
488.57	17011.01
488.75	17380.82
488.92	17898.08
489.10	17951.91
489.28	17994.04
489.46	18178.94
489.64	18113.41
489.81	18340.44
489.99	18845.99
490.17	18600.24
490.35	18974.72
490.53	18691.52
490.70	18778.12
490.88	18625.98
491.06	19208.78
491.24	18937.27
491.41	19164.31
491.59	19269.63
491.77	19616.03
491.95	19363.25
492.13	20013.92
492.30	19924.98
492.48	19939.02
492.66	20283.08
492.84	19658.16
493.01	20168.40
493.19	20346.28
493.37	20552.24
493.54	20772.25
493.72	20908.01
493.90	20893.96
494.08	20929.07
494.25	21163.12
494.43	21254.40
494.61	21212.28
494.79	21713.15
494.96	21511.86
495.14	21582.08
495.32	22005.72
495.49	21851.24
495.67	21923.80
495.85	22059.55
496.02	22293.60
496.20	22600.21
496.38	22607.23
496.55	23026.19
496.73	23328.12
496.91	22937.25
497.09	22970.02
497.26	22958.31
497.44	23143.22
497.62	22981.72
497.79	23461.53
497.97	23311.74
498.14	23391.31
498.32	23644.09
498.50	23674.52
498.67	24198.80
498.85	24123.90
499.03	24254.97
499.20	24329.87
499.38	24041.98
499.56	24430.51
499.73	24573.28
499.91	24870.53
500.08	24664.57
500.26	24409.45
500.44	24306.46
500.61	24968.84
500.79	24755.85
500.97	24861.17
501.14	25514.18
501.32	25436.94
501.49	25317.57
501.67	25132.67
501.84	25584.40
502.02	25315.23
502.20	25584.40
502.37	25837.17
502.55	25865.26
502.72	25926.11
502.90	25848.88
503.07	25734.19
503.25	26125.06
503.43	26012.71
503.60	26452.73
503.78	26600.19
503.95	26150.81
504.13	26448.05
504.30	26801.47
504.48	26658.70
504.65	26892.76
504.83	26817.86
505.01	26988.72
505.18	27168.94
505.36	27096.38
505.53	27220.43
505.71	27758.75
505.88	27487.25
506.06	27838.33
506.23	27407.67
506.41	27398.31
506.58	27615.98
506.76	28196.43
506.93	28397.72
507.11	28067.70
507.28	27887.48
507.46	28182.39
507.63	28173.03
507.81	27999.83
507.98	28383.68
508.16	28130.90
508.33	28505.38
508.50	28629.43
508.68	28737.10
508.85	28603.69
509.03	28353.25
509.20	28914.98
509.38	29284.78
509.55	29081.16
509.73	29376.06
509.90	29542.24
510.08	29427.56
510.25	29057.75
510.42	29214.57
510.60	29752.89
510.77	29694.38
510.95	30031.41
511.12	29673.31
511.30	29933.11
511.47	30103.97
511.64	30171.85
511.82	30309.94
511.99	30092.27
512.17	30125.04
512.34	30061.84
512.51	30281.85
512.69	30721.87
512.86	30450.37
513.04	30995.71
513.21	30796.77
513.38	30691.44
513.56	30405.90
513.73	30775.70
513.90	30799.11
514.08	30857.62
514.25	31267.22
514.43	31477.86
514.60	31388.92
514.77	31126.78
514.95	31695.53
515.12	31477.86
515.29	31512.97
515.47	31693.19
515.64	32058.32
515.81	31871.07
515.99	31625.32
516.16	31758.73
516.33	31644.04
516.51	31779.79
516.68	31938.95
516.85	31517.65
517.03	31892.14
517.20	32020.87
517.37	31735.32
517.54	32610.68
517.72	32360.25
517.89	32268.97
518.06	31690.85
518.24	32048.96
518.41	32280.67
518.58	32428.12
518.75	32680.90
518.93	33029.64
519.10	33055.39
519.27	32865.80
519.45	33132.62
519.62	32945.38
519.79	33247.31
519.96	33354.97
520.14	33509.45
520.31	33287.10
520.48	33415.83
520.65	33172.41
520.83	33851.17
521.00	34167.14
521.17	33425.19
521.34	33813.72
521.52	34089.90
521.69	34033.73
521.86	34389.49
522.03	34190.55
522.20	34015.01
522.38	34426.94
522.55	34307.57
522.72	34270.12
522.89	34302.89
523.07	34670.36
523.24	34160.12
523.41	34873.98
523.58	34628.23
523.75	35075.27
523.92	35115.06
524.10	34958.24
524.27	35297.62
524.44	34888.03
524.61	34976.97
524.78	35222.72
524.96	35166.55
525.13	35419.33
525.30	35538.69
525.47	34979.31
525.64	35241.45
525.81	35747.00
525.98	35519.97
526.16	35526.99
526.33	35257.83
526.50	35934.24
526.67	35363.15
526.84	35498.91
527.01	35503.59
527.18	35749.34
527.36	36002.12
527.53	36030.21
527.70	36505.34
527.87	36294.69
528.04	36374.27
528.21	36795.56
528.38	35995.10
528.55	36842.37
528.72	36266.60
528.89	36748.75
529.07	36774.50
529.24	36381.29
529.41	36577.89
529.58	36847.05
529.75	36203.41
529.92	36701.94
530.09	36643.43
530.26	36833.01
530.43	37102.17
530.60	36435.12
530.77	37258.99
530.94	37148.98
531.11	37371.33
531.28	37284.73
531.46	37184.09
531.63	37132.60
531.80	37347.93
531.97	37373.67
532.14	37579.64
532.31	37076.43
532.48	37376.01
532.65	37668.58
532.82	37890.93
532.99	37282.39
533.16	37682.62
533.33	37912.00
533.50	37827.74
533.67	38101.58
533.84	37912.00
534.01	38033.71
534.18	37996.26
534.35	38174.14
534.52	38506.49
534.69	38253.72
534.86	38188.18
535.03	38052.43
535.20	38660.97
535.37	38836.51
535.54	38747.57
535.71	38272.44
535.88	38792.04
536.05	38597.77
536.22	38667.99
536.38	38494.79
536.55	38651.61
536.72	38576.71
536.89	38284.14
537.06	38918.43
537.23	38780.34
537.40	38918.43
537.57	39061.20
537.74	39084.61
537.91	39180.57
538.08	39175.89
538.25	38895.02
538.42	39208.65
538.59	39433.35
538.75	39091.63
538.92	39257.81
539.09	39091.63
539.26	39351.43
539.43	39243.76
539.60	39461.43
539.77	39005.03
539.94	39716.55
540.11	39365.47
540.28	39585.48
540.44	39681.44
540.61	39592.50
540.78	39227.38
540.95	39711.87
541.12	39541.01
541.29	39604.20
541.46	39667.40
541.62	39608.89
541.79	39948.26
541.96	40100.40
542.13	39889.75
542.30	39913.16
542.47	40147.21
542.63	40208.06
542.80	40072.31
542.97	40601.27
543.14	40847.03
543.31	40725.32
543.48	40615.32
543.64	41202.79
543.81	40348.50
543.98	40268.92
544.15	40528.72
544.32	40938.31
544.48	41024.91
544.65	41263.64
544.82	41153.64
544.99	40652.76
545.16	40720.64
545.32	40807.24
545.49	41588.98
545.66	41483.66
545.83	41315.14
546.00	41336.20
546.16	41113.85
546.33	41308.11
546.50	40830.65
546.67	41109.17
546.83	40636.38
547.00	41617.07
547.17	41240.24
547.34	41476.63
547.50	41364.29
547.67	41385.35
547.84	41525.78
548.00	42143.69
548.17	42082.83
548.34	41364.29
548.51	42171.77
548.67	41998.57
548.84	41584.30
549.01	41766.86
549.18	42031.34
549.34	41731.75
549.51	42005.59
549.68	42029.00
549.84	42452.64
550.01	41748.14
550.18	41848.78
550.34	42012.62
550.51	41972.83
550.68	41860.48
550.84	41858.14
551.01	42375.40
551.18	42174.11
551.34	42337.95
551.51	42974.58
551.68	42382.42
551.84	42443.27
552.01	42630.52
552.18	42412.85
552.34	41886.23
552.51	42387.10
552.68	42766.27
552.84	42085.17
553.01	42529.87
553.18	42153.05
553.34	42796.70
553.51	42543.92
553.67	42473.70
553.84	43086.92
554.01	42740.52
554.17	42955.85
554.34	43112.67
554.51	43086.92
554.67	43026.07
554.84	43194.59
555.00	42927.77
555.17	42476.04
555.33	42976.92
555.50	42958.19
555.67	43234.38
555.83	43007.34
556.00	43225.01
556.16	43360.76
556.33	43126.71
556.50	43103.31
556.66	43494.18
556.83	42740.52
556.99	43810.15
557.16	43262.46
557.32	43489.49
557.49	43835.89
557.65	42782.65
557.82	43243.74
557.98	43180.54
558.15	43323.32
558.32	43400.55
558.48	43632.27
558.65	43487.15
558.81	43295.23
558.98	43447.36
559.14	43487.15
559.31	43374.81
559.47	43885.04
559.64	43922.49
559.80	43746.95
559.97	44006.75
560.13	43716.53
560.30	43386.51
560.46	43845.26
560.63	43550.35
560.79	44133.14
560.96	44184.63
561.12	43826.53
561.29	43613.54
561.45	43650.99
561.61	44175.27
561.78	43845.26
561.94	43751.63
562.11	44196.34
562.27	43739.93
562.44	43648.65
562.60	43917.81
562.77	44292.30
562.93	43770.36
563.10	44041.86
563.26	43791.42
563.42	44378.90
563.59	43959.94
563.75	44100.37
563.92	44151.87
564.08	43639.29
564.24	44301.66
564.41	43770.36
564.57	43973.98
564.74	44004.41
564.90	44369.54
565.07	44266.55
565.23	44004.41
565.39	43952.92
565.56	44009.09
565.72	43924.83
565.88	44222.08
566.05	44215.06
566.21	44182.29
566.38	43901.43
566.54	44203.36
566.70	44154.21
566.87	44406.98
567.03	43952.92
567.19	45050.63
567.36	44418.69
567.52	44575.50
567.68	44491.24
567.85	44154.21
568.01	44065.27
568.17	44332.09
568.34	44287.62
568.50	44383.58
568.66	44229.10
568.83	44446.77
568.99	44451.45
569.15	44273.57
569.32	43931.86
569.48	44311.02
569.64	44825.94
569.81	44552.10
569.97	44397.62
570.13	44355.49
570.30	44114.42
570.46	44261.87
570.62	44072.29
570.78	43973.98
570.95	44112.08
571.11	44432.73
571.27	44329.75
571.43	44521.67
571.60	44781.47
571.76	44350.81
571.92	44069.95
572.09	44406.98
572.25	44769.77
572.41	44582.52
572.57	44737.00
572.74	44879.77
572.90	44715.93
573.06	44575.50
573.22	44376.56
573.38	44626.99
573.55	44266.55
573.71	44428.05
573.87	44765.09
574.03	44175.27
574.20	44655.08
574.36	44311.02
574.52	44821.26
574.68	44781.47
574.84	44697.21
575.01	44584.86
575.17	44409.32
575.33	44388.26
575.49	44456.14
575.65	44832.96
575.82	45052.97
575.98	44708.91
576.14	45455.54
576.30	44762.75
576.46	44516.99
576.62	44261.87
576.79	44690.19
576.95	44201.02
577.11	44753.38
577.27	45003.82
577.43	44594.23
577.59	44388.26
577.75	44589.55
577.92	44182.29
578.08	44179.95
578.24	44315.70
578.40	44552.10
578.56	44727.64
578.72	44556.78
578.88	45174.68
579.04	44725.30
579.21	44446.77
579.37	44531.03
579.53	45184.04
579.69	44521.67
579.85	44507.63
580.01	44399.96
580.17	45078.72
580.33	44849.35
580.49	45090.42
580.65	44769.77
580.82	44905.52
580.98	44519.33
581.14	44381.24
581.30	44566.14
581.46	44559.12
581.62	44882.11
581.78	44774.45
581.94	45205.11
582.10	45116.17
582.26	44547.42
582.42	44788.49
582.58	44713.59
582.74	44851.69
582.90	44540.39
583.06	44814.24
583.22	45354.90
583.38	44842.32
583.54	44914.88
583.70	44704.23
583.86	45284.68
584.02	44655.08
584.18	44875.09
584.34	44821.26
584.50	44786.15
584.66	44643.38
584.82	44737.00
584.98	45153.62
585.14	44612.95
585.30	44797.85
585.46	44524.01
585.62	44800.19
585.78	44889.13
585.94	44430.39
586.10	44715.93
586.26	44788.49
586.42	44907.86
586.58	44788.49
586.74	44835.30
586.90	44676.15
587.06	44502.95
587.22	45015.52
587.38	44622.31
587.54	44973.39
587.70	45071.70
587.86	44353.15
588.02	44905.52
588.18	44994.46
588.34	45071.70
588.49	44641.04
588.65	44271.23
588.81	44755.72
588.97	44865.73
589.13	44559.12
589.29	44795.51
589.45	44732.32
589.61	44968.71
589.77	45532.78
589.93	44903.18
590.08	44830.62
590.24	45382.99
590.40	45130.21
590.56	45109.14
590.72	45146.59
590.88	44999.14
591.04	45275.32
591.20	45301.07
591.35	45167.66
591.51	45972.80
591.67	45104.46
591.83	44832.96
591.99	45092.76
592.15	44912.54
592.31	45010.84
592.46	44626.99
592.62	45036.59
592.78	45289.37
592.94	45310.43
593.10	45148.93
593.26	45240.21
593.41	45001.48
593.57	45165.32
593.73	45074.04
593.89	45251.92
594.05	45198.09
594.20	44872.75
594.36	45268.30
594.52	45474.27
594.68	45153.62
594.84	45305.75
594.99	45436.82
595.15	45193.40
595.31	45464.91
595.47	45394.69
595.62	45078.72
595.78	45408.73
595.94	45390.01
596.10	45148.93
596.25	45563.21
596.41	45198.09
596.57	44935.95
596.73	45600.66
596.88	45132.55
597.04	45359.58
597.20	45272.98
597.36	45462.57
597.51	45551.51
597.67	45530.44
597.83	45474.27
597.99	45560.87
598.14	45151.27
598.30	44690.19
598.46	45158.30
598.61	45490.65
598.77	45081.06
598.93	45240.21
599.09	44942.97
599.24	45705.98
599.40	45425.12
599.56	45743.43
599.71	45551.51
599.87	45511.72
600.03	45258.94
600.18	45319.79
600.34	45404.05
600.50	45350.22
600.65	45158.30
600.81	45284.68
600.97	45139.57
601.12	45518.74
601.28	45308.09
601.44	45137.23
601.59	45567.89
601.75	44989.78
601.91	45347.88
602.06	45301.07
602.22	45373.63
602.37	45237.87
602.53	45390.01
602.69	45867.48
602.84	45455.54
603.00	45476.61
603.16	45368.94
603.31	45532.78
603.47	44940.63
603.62	45165.32
603.78	45181.70
603.94	45020.20
604.09	45916.63
604.25	45713.00
604.40	45352.56
604.56	45277.66
604.71	45420.44
604.87	45027.23
605.03	45205.11
605.18	44715.93
605.34	45055.31
605.49	44814.24
605.65	45289.37
605.80	45303.41
605.96	45195.74
606.12	45504.70
606.27	45013.18
606.43	45085.74
606.58	45560.87
606.74	44839.98
606.89	45083.40
607.05	45450.86
607.20	45137.23
607.36	44811.90
607.51	45338.52
607.67	45223.83
607.82	45371.28
607.98	45184.04
608.13	44767.43
608.29	45015.52
608.44	44463.16
608.60	44364.85
608.75	44816.58
608.91	44641.04
609.06	44774.45
609.22	45284.68
609.37	44774.45
609.53	44737.00
609.68	44968.71
609.84	44825.94
609.99	45036.59
610.15	45071.70
610.30	44587.21
610.46	44516.99
610.61	44577.84
610.76	44711.25
610.92	44751.04
611.07	44662.10
611.23	44325.07
611.38	44694.87
611.54	44414.01
611.69	44325.07
611.84	44549.76
612.00	44570.82
612.15	44563.80
612.31	44704.23
612.46	44488.90
612.62	44222.08
612.77	43896.75
612.92	44868.07
613.08	44308.68
613.23	44854.03
613.39	44226.76
613.54	44135.48
613.69	44191.65
613.85	44271.23
614.00	44175.27
614.15	44568.48
614.31	44996.80
614.46	44414.01
614.62	44105.06
614.77	44357.83
614.92	44172.93
615.08	44332.09
615.23	44198.68
615.38	44287.62
615.54	44414.01
615.69	43882.70
615.84	43997.39
616.00	44304.00
616.15	43955.26
616.30	44002.07
616.46	43618.22
616.61	43791.42
616.76	44009.09
616.92	43316.29
617.07	43746.95
617.22	43686.10
617.37	43810.15
617.53	44053.56
617.68	44470.18
617.83	44184.63
617.99	44168.25
618.14	44041.86
618.29	43772.70
618.45	43505.88
618.60	43908.45
618.75	43557.37
618.90	43693.12
619.06	43686.10
619.21	43604.18
619.36	43697.80
619.51	43714.19
619.67	43332.68
619.82	43866.32
619.97	43828.87
620.12	43739.93
620.28	43133.73
620.43	43496.52
620.58	42927.77
620.73	43473.11
620.89	43157.14
621.04	43316.29
621.19	43332.68
621.34	43227.35
621.49	43363.11
621.65	43426.30
621.80	43316.29
621.95	42792.01
622.10	43580.78
622.25	42639.88
622.41	43131.39
622.56	42995.64
622.71	43210.97
622.86	43026.07
623.01	43225.01
623.16	43243.74
623.32	43363.11
623.47	43428.64
623.62	43320.98
623.77	42796.70
623.92	42689.03
624.07	42941.81
624.23	42829.46
624.38	42674.99
624.53	42462.00
624.68	42630.52
624.83	42857.55
624.98	43264.80
625.13	42314.55
625.29	42651.58
625.44	42333.27
625.59	42499.45
625.74	42401.14
625.89	42085.17
626.04	42225.60
626.19	42440.93
626.34	42602.43
626.49	42330.93
626.65	42567.32
626.80	42532.22
626.95	42476.04
627.10	42349.65
627.25	41888.57
627.40	41977.51
627.55	41729.41
627.70	41766.86
627.85	41691.96
628.00	42326.25
628.15	42298.16
628.30	42085.17
628.45	42284.12
628.60	41984.53
628.76	42115.60
628.91	42553.28
629.06	42239.65
629.21	41879.21
629.36	41757.50
629.51	41853.46
629.66	41532.81
629.81	41322.16
629.96	41823.03
630.11	41890.91
630.26	42014.96
630.41	42003.25
630.56	41748.14
630.71	41776.22
630.86	41963.46
631.01	41338.54
631.16	41441.53
631.31	40802.56
631.46	41106.83
631.61	41177.04
631.76	41624.09
631.91	41223.86
632.06	41680.26
632.21	41216.83
632.36	41811.33
632.51	41656.85
632.66	41373.65
632.81	41195.77
632.96	41273.01
633.10	41455.57
633.25	40699.58
633.40	41076.40
633.55	40987.46
633.70	40889.16
633.85	41607.70
634.00	41273.01
634.15	41085.76
634.30	41092.79
634.45	40987.46
634.60	41305.77
634.75	41270.67
634.90	41064.70
635.05	40931.29
635.19	40975.76
635.34	41378.33
635.49	40891.50
635.64	40926.61
635.79	40872.78
635.94	40755.75
636.09	40507.65
636.24	40795.54
636.39	40465.52
636.53	40147.21
636.68	40367.22
636.83	40252.53
636.98	40987.46
637.13	40245.51
637.28	40573.19
637.43	40947.67
637.57	41102.15
637.72	40746.39
637.87	40584.89
638.02	40306.37
638.17	40409.35
638.32	40428.07
638.46	40128.48
638.61	40289.98
638.76	40142.53
638.91	40105.08
639.06	40128.48
639.20	40346.15
639.35	40341.47
639.50	40093.38
639.65	40428.07
639.80	40517.01
639.94	40243.17
640.09	39882.73
640.24	40027.84
640.39	39749.32
640.54	39819.53
640.68	39852.30
640.83	39966.99
640.98	40086.36
641.13	39828.90
641.27	39917.84
641.42	39742.30
641.57	39974.01
641.72	39875.71
641.86	39061.20
642.01	39587.82
642.16	39501.22
642.31	39321.00
642.45	39445.05
642.60	39255.46
642.75	39152.48
642.90	39487.18
643.04	39693.15
643.19	39463.77
643.34	39526.97
643.48	39463.77
643.63	39278.87
643.78	39196.95
643.93	39058.86
644.07	39323.34
644.22	39405.26
644.37	39239.08
644.51	39157.16
644.66	39358.45
644.81	39321.00
644.95	39784.43
645.10	39400.58
645.25	39330.36
645.39	39594.84
645.54	39236.74
645.69	39009.71
645.83	39044.82
645.98	38909.07
646.13	39161.84
646.27	38960.56
646.42	38895.02
646.57	39304.62
646.71	39325.68
646.86	38986.30
647.00	39276.53
647.15	39047.16
647.30	38967.58
647.44	39108.01
647.59	39164.18
647.74	38724.16
647.88	38565.01
648.03	38602.46
648.17	38656.29
648.32	38405.85
648.47	38508.83
648.61	38752.25
648.76	38873.96
648.90	38649.27
649.05	38471.39
649.20	38801.40
649.34	38829.49
649.49	38436.28
649.63	38398.83
649.78	38609.48
649.92	38375.42
650.07	38700.76
650.21	38026.68
650.36	38209.25
650.51	38279.46
650.65	38773.31
650.80	39117.37
650.94	38279.46
651.09	38419.89
651.23	38429.26
651.38	38494.79
651.52	38005.62
651.67	37993.92
651.81	38057.11
651.96	37851.14
652.10	38059.45
652.25	37703.69
652.39	37935.40
652.54	38043.07
652.68	38185.84
652.83	37919.02
652.97	38410.53
653.12	37904.98
653.26	38349.68
653.41	38026.68
653.55	37701.35
653.70	37523.47
653.84	37954.13
653.99	37638.15
654.13	37809.01
654.27	37699.01
654.42	37706.03
654.56	37801.99
654.71	37813.70
654.85	37521.13
655.00	37773.91
655.14	37263.67
655.29	36971.10
655.43	37240.26
655.57	36982.80
655.72	37258.99
655.86	36811.95
656.01	37127.92
656.15	37027.28
656.30	37141.96
656.44	37184.09
656.58	37053.02
656.73	36898.55
656.87	36811.95
657.01	37237.92
657.16	37137.28
657.30	36919.61
657.45	36737.05
657.59	37172.39
657.73	36823.65
657.88	36676.19
658.02	36964.08
658.16	36875.14
658.31	37003.87
658.45	36512.36
658.60	36526.40
658.74	37010.89
658.88	36856.42
659.03	36219.79
659.17	36856.42
659.31	36711.30
659.46	36418.74
659.60	36669.17
659.74	36474.91
659.89	36055.95
660.03	36119.15
660.17	36233.83
660.32	36004.46
660.46	36297.03
660.60	36215.11
660.74	36362.56
660.89	36236.17
661.03	36009.14
661.17	35763.39
661.32	35810.20
661.46	35477.84
661.60	35782.11
661.74	35222.72
661.89	36114.47
662.03	36025.53
662.17	35777.43
662.31	35328.05
662.46	35765.73
662.60	36177.66
662.74	35608.91
662.88	35543.38
663.03	35166.55
663.17	35424.01
663.31	35250.81
663.45	35412.31
663.60	35278.89
663.74	34888.03
663.88	35335.07
664.02	34574.39
664.17	35037.82
664.31	34782.70
664.45	34478.43
664.59	35016.75
664.73	34836.53
664.88	34656.31
665.02	34866.96
665.16	34859.94
665.30	34546.31
665.44	34586.10
665.59	34190.55
665.73	34417.58
665.87	34298.21
666.01	34394.17
666.15	34225.65
666.29	34085.22
666.44	34497.16
666.58	34054.79
666.72	34230.33
666.86	34431.62
667.00	34249.06
667.14	33989.26
667.28	34087.56
667.43	33841.81
667.57	34213.95
667.71	33649.88
667.85	33865.21
667.99	33521.15
668.13	33652.22
668.27	33591.37
668.41	33439.23
668.56	33633.50
668.70	33703.71
668.84	33649.88
668.98	33483.70
669.12	33474.34
669.26	33486.04
669.40	32947.72
669.54	33015.60
669.68	32783.88
669.82	32737.07
669.96	32882.19
670.10	32987.51
670.25	33008.58
670.39	32739.41
670.53	32673.88
670.67	33024.96
670.81	32837.72
670.95	32603.66
671.09	32811.97
671.23	32774.52
671.37	32933.68
671.51	32505.36
671.65	32435.14
671.79	32034.91
671.93	32250.24
672.07	32278.33
672.21	32299.39
672.35	31850.01
672.49	31924.91
672.63	31880.44
672.77	31999.80
672.91	31791.50
673.05	31894.48
673.19	31686.17
673.33	31658.09
673.47	31311.69
673.61	31168.91
673.75	31056.57
673.89	31058.91
674.03	31033.16
674.17	31042.53
674.31	31021.46
674.45	31023.80
674.59	31051.89
674.73	31136.15
674.87	31058.91
675.01	31112.74
675.15	30787.41
675.29	30766.34
675.43	30590.80
675.56	30375.47
675.70	30455.05
675.84	30347.39
675.98	29450.96
676.12	30258.45
676.26	29956.52
676.40	29947.15
676.54	30213.98
676.68	30017.37
676.82	29659.27
676.96	29357.34
677.10	29102.22
677.23	29355.00
677.37	29511.81
677.51	29434.58
677.65	29362.02
677.79	28837.74
677.93	29186.48
678.07	28720.71
678.21	28758.16
678.34	28819.02
678.48	28652.84
678.62	29146.69
678.76	28456.23
678.90	28276.01
679.04	28526.45
679.18	28474.96
679.31	28343.89
679.45	27789.18
679.59	28201.11
679.73	28002.17
679.87	27821.95
680.00	28205.80
680.14	27967.06
680.28	27410.01
680.42	27473.21
680.56	27470.87
680.70	27775.14
680.83	27042.55
680.97	26874.03
681.11	26843.60
681.25	26925.52
681.39	26845.94
681.52	27140.85
681.66	26810.84
681.80	26705.51
681.94	26558.06
682.07	26656.36
682.21	26169.53
682.35	26108.68
682.49	26569.76
682.62	26225.70
682.76	26087.61
682.90	25895.69
683.04	26314.64
683.17	26143.78
683.31	26103.99
683.45	26258.47
683.59	25743.55
683.72	25483.75
683.86	25193.53
684.00	25181.82
684.13	25465.03
684.27	25493.12
684.41	25188.85
684.55	25027.35
684.68	24868.19
684.82	24907.98
684.96	25055.43
685.09	25158.42
685.23	24793.29
685.37	24608.39
685.50	24201.14
685.64	24180.07
685.78	24442.21
685.91	24421.15
686.05	24128.58
686.19	24147.31
686.32	24098.16
686.46	23896.87
686.60	23751.76
686.73	23866.44
686.87	23318.76
687.01	23480.25
687.14	23255.56
687.28	23051.94
687.42	23098.75
687.55	22611.92
687.69	22834.27
687.82	22728.94
687.96	23026.19
688.10	22941.93
688.23	23023.85
688.37	22600.21
688.50	22328.71
688.64	22703.20
688.78	22429.35
688.91	22178.92
689.05	22258.49
689.18	22209.34
689.32	21626.55
689.46	22057.21
689.59	22036.14
689.73	22183.60
689.86	21954.22
690.00	21984.65
690.13	21783.37
690.27	21633.57
690.41	21453.35
690.54	21085.89
690.68	21390.16
690.81	21231.00
690.95	20961.84
691.08	21341.00
691.22	21118.65
691.35	21032.05
691.49	21273.13
691.62	21118.65
691.76	20608.42
691.89	20601.40
692.03	20423.51
692.16	20613.10
692.30	20470.33
692.43	20334.57
692.57	20034.99
692.70	20084.14
692.84	20154.35
692.97	19971.79
693.11	19852.42
693.24	19838.38
693.38	19817.32
693.51	19459.21
693.65	19283.67
693.78	19414.74
693.92	19559.86
694.05	19459.21
694.19	19398.36
694.32	19178.35
694.45	19143.24
694.59	18913.87
694.72	18958.34
694.86	19117.50
694.99	18862.38
695.13	18728.97
695.26	18499.59
695.39	18237.45
695.53	18237.45
695.66	18326.39
695.80	18377.89
695.93	18153.20
696.07	17949.57
696.20	18005.74
696.33	18101.70
696.47	18099.36
696.60	18066.60
696.73	17956.59
696.87	17942.55
697.00	17722.54
697.14	17813.82
697.27	17446.35
697.40	17530.61
697.54	17554.02
697.67	17193.58
697.80	17177.19
697.94	17301.24
698.07	17111.66
698.21	16922.07
698.34	17064.85
698.47	16886.97
698.61	16507.80
698.74	16695.04
698.87	16601.42
699.01	16362.69
699.14	16339.28
699.27	16421.20
699.40	16444.60
699.54	16245.66
699.67	16142.67
699.80	16119.27
699.94	15894.58
700.07	16042.03
700.20	15995.22
700.34	15960.11
700.47	15688.61
700.60	15978.84
700.73	15992.88
700.87	15473.28
701.00	15187.74
701.13	15484.98
701.26	15332.85
701.40	15346.89
701.53	15353.91
701.66	15136.24
701.79	15204.12
701.93	15117.52
702.06	14939.64
702.19	14806.23
702.32	14972.41
702.46	15129.22
702.59	14824.95
702.72	14745.38
702.85	14698.56
702.99	14679.84
703.12	14743.03
703.25	14483.24
703.38	14401.32
703.51	14609.62
703.65	14214.07
703.78	14207.05
703.91	13888.74
704.04	13965.98
704.17	14019.81
704.31	13832.57
704.44	13558.72
704.57	13792.78
704.70	13408.93
704.83	13678.09
704.96	13673.41
705.10	13764.69
705.23	13673.41
>>>>>End Processed Spectral Data<<<<<
