SpectraSuite Data File
++++++++++++++++++++++++++++++++++++
Date: Fri Oct 25 11:22:59 EDT 2013
User: price-jones
Dark Spectrum Present: No
Reference Spectrum Present: No
Number of Sampled Component Spectra: 1
Spectrometers: USB2+H05261
Integration Time (usec): 100000 (USB2+H05261)
Spectra Averaged: 1 (USB2+H05261)
Boxcar Smoothing: 0 (USB2+H05261)
Correct for Electrical Dark: No (USB2+H05261)
Strobe/Lamp Enabled: No (USB2+H05261)
Correct for Detector Non-linearity: No (USB2+H05261)
Correct for Stray Light: No (USB2+H05261)
Number of Pixels in Processed Spectrum: 2048
>>>>>Begin Processed Spectral Data<<<<<
365.73	145.11
365.92	145.11
366.12	145.11
366.32	110.01
366.52	88.94
366.72	159.16
366.91	119.37
367.11	170.86
367.31	194.26
367.51	163.84
367.70	187.24
367.90	121.71
368.10	14.04
368.30	119.37
368.49	166.18
368.69	203.63
368.89	177.88
369.09	156.82
369.28	208.31
369.48	168.52
369.68	149.79
369.87	229.37
370.07	189.58
370.27	208.31
370.47	393.21
370.66	636.63
370.86	638.97
371.06	622.58
371.25	734.93
371.45	784.08
371.65	690.46
371.84	678.76
372.04	676.41
372.24	697.48
372.44	713.86
372.63	821.53
372.83	741.95
373.03	765.36
373.22	779.40
373.42	695.14
373.62	786.42
373.81	800.46
374.01	798.12
374.21	791.10
374.40	791.10
374.60	826.21
374.79	763.01
374.99	737.27
375.19	786.42
375.38	812.17
375.58	870.68
375.78	919.83
375.97	779.40
376.17	826.21
376.37	891.74
376.56	887.06
376.76	863.66
376.95	873.02
377.15	938.55
377.35	966.64
377.54	866.00
377.74	826.21
377.93	896.43
378.13	894.08
378.33	929.19
378.52	903.45
378.72	947.92
378.91	954.94
379.11	896.43
379.31	964.30
379.50	931.53
379.70	947.92
379.89	997.07
380.09	954.94
380.28	978.34
380.48	1039.20
380.68	936.21
380.87	997.07
381.07	1027.50
381.26	1008.77
381.46	978.34
381.65	1095.37
381.85	1015.79
382.04	1081.33
382.24	1006.43
382.43	999.41
382.63	990.05
382.83	1081.33
383.02	1109.41
383.22	1043.88
383.41	1001.75
383.61	1142.18
383.80	1114.10
384.00	1104.73
384.19	1207.72
384.39	1144.52
384.58	1132.82
384.78	1214.74
384.97	1111.75
385.17	1200.69
385.36	1205.38
385.56	1137.50
385.75	1160.91
385.95	1198.35
386.14	1193.67
386.34	1177.29
386.53	1163.25
386.72	1193.67
386.92	1242.82
387.11	1254.53
387.31	1310.70
387.50	1256.87
387.70	1277.93
387.89	1275.59
388.09	1301.34
388.28	1303.68
388.48	1210.06
388.67	1289.64
388.86	1394.96
389.06	1451.13
389.25	1366.87
389.45	1439.43
389.64	1387.94
389.84	1348.15
390.03	1355.17
390.22	1320.06
390.42	1390.28
390.61	1263.89
390.81	1369.21
391.00	1336.45
391.19	1385.60
391.39	1352.83
391.58	1371.55
391.78	1472.20
391.97	1486.24
392.16	1446.45
392.36	1516.67
392.55	1444.11
392.75	1514.33
392.94	1514.33
393.13	1579.86
393.33	1530.71
393.52	1617.31
393.71	1600.93
393.91	1519.01
394.10	1612.63
394.29	1636.03
394.49	1621.99
394.68	1621.99
394.88	1558.80
395.07	1666.46
395.26	1771.79
395.46	1696.89
395.65	1734.34
395.84	1769.44
396.04	1809.23
396.23	1678.16
396.42	1680.50
396.62	1804.55
396.81	1853.70
397.00	1865.41
397.19	1806.89
397.39	1823.28
397.58	1870.09
397.77	1987.11
397.97	1968.39
398.16	1973.07
398.35	1940.30
398.55	1879.45
398.74	1851.36
398.93	1884.13
399.12	1820.94
399.32	1928.60
399.51	1975.41
399.70	1937.96
399.90	1963.71
400.09	2017.54
400.28	2045.63
400.47	1982.43
400.67	2179.04
400.86	2078.40
401.05	2148.61
401.24	2118.18
401.44	2083.08
401.63	2223.51
401.82	2200.10
402.01	2134.57
402.21	2209.47
402.40	2207.13
402.59	2200.10
402.78	2317.13
402.97	2202.44
403.17	2408.41
403.36	2221.17
403.55	2204.78
403.74	2375.64
403.93	2492.67
404.13	2347.56
404.32	2258.62
404.51	2389.69
404.70	2415.43
404.89	2490.33
405.09	2422.45
405.28	2520.76
405.47	2504.37
405.66	2513.74
405.85	2630.76
406.05	2581.61
406.24	2583.95
406.43	2534.80
406.62	2682.25
406.81	2609.70
407.00	2492.67
407.20	2619.06
407.39	2663.53
407.58	2747.79
407.77	2682.25
407.96	2670.55
408.15	2818.00
408.34	2745.45
408.54	2729.06
408.73	2752.47
408.92	2892.90
409.11	2902.26
409.30	2951.42
409.49	2965.46
409.68	2935.03
409.87	2974.82
410.07	2963.12
410.26	3035.67
410.45	3068.44
410.64	3157.38
410.83	3131.64
411.02	3148.02
411.21	3150.36
411.40	3108.23
411.59	3258.03
411.78	3077.80
411.98	3180.79
412.17	3236.96
412.36	3372.71
412.55	3321.22
412.74	3339.94
412.93	3478.04
413.12	3412.50
413.31	3616.13
413.50	3421.86
413.69	3552.93
413.88	3513.14
414.07	3641.87
414.26	3590.38
414.45	3719.11
414.64	3494.42
414.83	3733.15
415.02	3808.05
415.22	3880.61
415.41	3791.67
415.60	3943.80
415.79	3836.14
415.98	4039.76
416.17	3950.82
416.36	3871.25
416.55	3969.55
416.74	4114.66
416.93	4011.68
417.12	4285.52
417.31	4234.03
417.50	4196.58
417.69	4292.54
417.88	4269.14
418.07	4327.65
418.26	4313.61
418.45	4360.42
418.64	4514.89
418.83	4456.38
419.02	4470.42
419.21	4472.76
419.39	4575.75
419.58	4491.49
419.77	4484.47
419.96	4648.30
420.15	4631.92
420.34	4671.71
420.53	4627.24
420.72	4580.43
420.91	4683.41
421.10	4835.55
421.29	4882.36
421.48	4727.88
421.67	4788.74
421.86	4865.97
422.05	4940.87
422.24	4884.70
422.43	4952.57
422.61	4844.91
422.80	5055.56
422.99	4884.70
423.18	5048.54
423.37	5121.09
423.56	4943.21
423.75	4938.53
423.94	4809.80
424.13	4711.50
424.32	4798.10
424.50	5188.97
424.69	5146.84
424.88	5231.10
425.07	5006.41
425.26	5107.05
425.45	4971.30
425.64	4950.23
425.83	4983.00
426.01	5254.50
426.20	5088.32
426.39	5137.48
426.58	5149.18
426.77	5095.35
426.96	5137.48
427.15	5060.24
427.33	5348.12
427.52	5210.03
427.71	5348.12
427.90	5334.08
428.09	5437.06
428.28	5378.55
428.46	5439.40
428.65	5521.32
428.84	5549.41
429.03	5518.98
429.22	5554.09
429.40	5570.48
429.59	5493.24
429.78	5226.42
429.97	5254.50
430.16	5657.07
430.34	5605.58
430.53	5579.84
430.72	5818.57
430.91	5760.06
431.10	5654.73
431.28	5834.96
431.47	5930.92
431.66	5870.06
431.85	5614.95
432.03	5930.92
432.22	6216.46
432.41	5982.41
432.60	6045.60
432.79	5998.79
432.97	6127.52
433.16	6052.63
433.35	6033.90
433.54	6167.31
433.72	6118.16
433.91	6080.71
434.10	6225.82
434.28	5942.62
434.47	6148.59
434.66	6284.34
434.85	6282.00
435.03	6441.15
435.22	6345.19
435.41	6403.71
435.59	6509.03
435.78	6342.85
435.97	6532.44
436.16	6574.56
436.34	6485.62
436.53	6424.77
436.72	6752.45
436.90	6408.39
437.09	6754.79
437.28	6637.76
437.46	6497.33
437.65	6672.87
437.84	6853.09
438.02	6710.32
438.21	6743.08
438.40	6565.20
438.58	6965.43
438.77	7080.12
438.96	7136.29
439.14	7201.83
439.33	7213.53
439.52	7192.47
439.70	7155.02
439.89	7492.05
440.08	7360.98
440.26	7470.99
440.45	7536.52
440.63	7480.35
440.82	7655.89
441.01	7620.78
441.19	7793.98
441.38	7693.34
441.57	7672.28
441.75	7894.63
441.94	8124.00
442.12	8018.68
442.31	8046.76
442.50	8032.72
442.68	8049.10
442.87	8070.17
443.05	8259.75
443.24	8332.31
443.43	8126.34
443.61	8262.09
443.80	8528.91
443.98	8053.78
444.17	7899.31
444.35	8325.29
444.54	8514.87
444.73	8383.80
444.91	8280.82
445.10	8332.31
445.28	8451.67
445.47	8400.18
445.65	8327.63
445.84	8489.12
446.02	8409.54
446.21	8489.12
446.39	8571.04
446.58	8472.74
446.77	8498.49
446.95	8154.43
447.14	8627.21
447.32	8615.51
447.51	8559.34
447.69	8545.30
447.88	8498.49
448.06	8702.11
448.25	8477.42
448.43	8699.77
448.62	8936.17
448.80	8540.61
448.99	8779.35
449.17	8924.46
449.36	8528.91
449.54	8971.27
449.73	8807.44
449.91	9083.62
450.10	9200.65
450.28	9177.24
450.46	9097.66
450.65	9212.35
450.83	9078.94
451.02	9404.27
451.20	9245.12
451.39	9039.15
451.57	8971.27
451.76	9191.28
451.94	9261.50
452.13	9547.05
452.31	9582.15
452.49	9214.69
452.68	9493.21
452.86	9462.79
453.05	9568.11
453.23	9797.48
453.42	9572.79
453.60	9399.59
453.78	9654.71
453.97	9572.79
454.15	9507.26
454.34	9708.54
454.52	9823.23
454.70	9788.12
454.89	9617.26
455.07	9872.38
455.26	9811.53
455.44	10026.86
455.62	9863.02
455.81	10099.41
455.99	10218.78
456.17	10099.41
456.36	10291.34
456.54	10197.71
456.73	10146.22
456.91	10626.03
457.09	10534.75
457.28	10626.03
457.46	10431.77
457.64	10633.05
457.83	10644.76
458.01	10574.54
458.19	10700.93
458.38	10766.46
458.56	10658.80
458.74	10836.68
458.93	10766.46
459.11	11075.42
459.29	10902.22
459.48	11246.27
459.66	10934.98
459.84	10986.47
460.03	11241.59
460.21	11073.07
460.39	11375.00
460.57	11225.21
460.76	11159.67
460.94	11239.25
461.12	11206.48
461.31	11185.42
461.49	11363.30
461.67	11213.51
461.85	11716.72
462.04	11485.01
462.22	11555.22
462.40	11630.12
462.59	11452.24
462.77	11609.06
462.95	11800.98
463.13	11576.29
463.32	11602.04
463.50	11981.20
463.68	11796.30
463.86	11826.73
464.05	11918.01
464.23	11735.45
464.41	11882.90
464.59	11833.75
464.78	12297.17
464.96	11992.90
465.14	11882.90
465.32	12196.53
465.50	12243.34
465.69	12147.38
465.87	12325.26
466.05	12138.02
466.23	12285.47
466.41	12315.90
466.60	12578.04
466.78	12126.32
466.96	12477.40
467.14	12470.37
467.32	12716.13
467.51	12650.60
467.69	12308.88
467.87	12339.30
468.05	12903.37
468.23	12376.75
468.41	12596.76
468.60	12802.73
468.78	12678.68
468.96	12636.55
469.14	12959.55
469.32	13116.36
469.50	12741.88
469.69	13048.49
469.87	12865.92
470.05	13345.73
470.23	13256.79
470.41	13217.01
470.59	13380.84
470.77	12973.59
470.95	13474.46
471.14	13603.19
471.32	13209.98
471.50	13785.76
471.68	13783.41
471.86	13830.23
472.04	13745.97
472.22	14291.31
472.40	13687.45
472.58	13895.76
472.77	14185.99
472.95	14394.29
473.13	14541.75
473.31	14382.59
473.49	14228.12
473.67	14431.74
473.85	14539.41
474.03	14719.63
474.21	14661.12
474.39	14888.15
474.57	14839.00
474.75	14958.36
474.93	15101.14
475.12	14946.66
475.30	15461.58
475.48	15199.44
475.66	15321.15
475.84	15316.47
476.02	15431.15
476.20	15236.89
476.38	16070.12
476.56	16067.78
476.74	16238.64
476.92	16205.87
477.10	16023.31
477.28	16402.47
477.46	16259.70
477.64	16549.93
477.82	16844.84
478.00	17144.42
478.18	16772.28
478.36	17046.12
478.54	17474.44
478.72	17331.67
478.90	17935.53
479.08	17591.47
479.26	17795.09
479.44	17905.10
479.62	18064.25
479.80	18317.03
479.98	18338.10
480.16	18782.80
480.34	18274.90
480.52	19002.81
480.70	19005.15
480.88	18541.72
481.06	18810.89
481.24	19033.24
481.41	19538.79
481.59	19426.45
481.77	19824.34
481.95	19948.39
482.13	19915.62
482.31	19903.92
482.49	20467.98
482.67	20245.63
482.85	20276.06
483.03	20828.43
483.21	20769.91
483.39	21130.36
483.57	21055.46
483.74	21425.26
483.92	21642.93
484.10	21593.78
484.28	21839.54
484.46	22024.44
484.64	22581.49
484.82	22045.51
485.00	22787.46
485.18	23117.47
485.35	23070.66
485.53	22817.88
485.71	23391.31
485.89	23693.24
486.07	23704.95
486.25	23953.04
486.43	23658.14
486.61	24091.13
486.78	24383.70
486.96	24407.11
487.14	24933.73
487.32	24737.12
487.50	25090.54
487.68	25104.59
487.85	25706.10
488.03	25820.79
488.21	26143.78
488.39	25834.83
488.57	26251.45
488.75	26382.52
488.92	26441.03
489.10	27033.19
489.28	26890.41
489.46	27620.66
489.64	27704.92
489.81	27800.88
489.99	27938.97
490.17	27885.14
490.35	28453.89
490.53	28273.67
490.70	28357.93
490.88	28498.36
491.06	28929.02
491.24	28952.43
491.41	29172.44
491.59	29102.22
491.77	29961.20
491.95	29823.11
492.13	30118.01
492.30	30216.32
492.48	30548.67
492.66	30101.63
492.84	30476.12
493.01	30766.34
493.19	30848.26
493.37	31082.31
493.54	31267.22
493.72	31695.53
493.90	31669.79
494.08	32278.33
494.25	32381.31
494.43	32591.96
494.61	32872.82
494.79	32809.63
494.96	32699.62
495.14	32924.32
495.32	33476.68
495.49	33186.46
495.67	33663.93
495.85	34007.98
496.02	33823.08
496.20	34054.79
496.38	34740.57
496.55	34394.17
496.73	35456.78
496.91	34899.73
497.09	35091.65
497.26	35133.78
497.44	35388.90
497.62	35608.91
497.79	35976.37
497.97	36041.91
498.14	36418.74
498.32	36503.00
498.50	36524.06
498.67	36776.84
498.85	36591.94
499.03	37092.81
499.20	37099.83
499.38	36975.78
499.56	37284.73
499.73	37521.13
499.91	37989.24
500.08	37785.61
500.26	38164.78
500.44	38352.02
500.61	38452.66
500.79	38078.18
500.97	38234.99
501.14	39023.75
501.32	39136.10
501.49	38801.40
501.67	39182.91
501.84	39321.00
502.02	39391.22
502.20	39690.80
502.37	39828.90
502.55	39955.29
502.72	39868.69
502.90	39978.69
503.07	39653.36
503.25	39894.43
503.43	40215.08
503.60	40451.48
503.78	40924.27
503.95	40882.14
504.13	41354.93
504.30	40376.58
504.48	40765.11
504.65	41249.60
504.83	41399.40
505.01	41572.60
505.18	41823.03
505.36	41701.32
505.53	41675.58
505.71	41965.81
505.88	42316.89
506.06	41923.68
506.23	42323.91
506.41	42249.01
506.58	42429.23
506.76	42630.52
506.93	42859.89
507.11	42693.71
507.28	42883.30
507.46	43461.41
507.63	43400.55
507.81	43430.98
507.98	43110.33
508.16	43463.75
508.33	43875.68
508.50	43880.36
508.68	43812.49
508.85	44617.63
509.03	44074.63
509.20	44233.78
509.38	44552.10
509.55	44856.37
509.73	45008.50
509.90	45179.36
510.08	45088.08
510.25	44807.22
510.42	45378.31
510.60	45397.03
510.77	45418.10
510.95	45921.31
511.12	46040.68
511.30	46012.59
511.47	46204.52
511.64	45804.28
511.82	46377.72
511.99	46096.85
512.17	46466.66
512.34	46256.01
512.51	46581.34
512.69	46857.52
512.86	46504.10
513.04	47466.06
513.21	47091.58
513.38	47023.70
513.56	47147.75
513.73	47320.95
513.90	47473.09
514.08	47290.52
514.25	47412.23
514.43	47833.53
514.60	48076.94
514.77	47753.95
514.95	48516.96
515.12	47950.56
515.29	48332.06
515.47	48238.44
515.64	48650.38
515.81	48259.51
515.99	48292.27
516.16	48755.70
516.33	48795.49
516.51	49141.89
516.68	48676.12
516.85	48713.57
517.03	49165.29
517.20	49289.34
517.37	48825.92
517.54	49146.57
517.72	49336.15
517.89	49338.49
518.06	49366.58
518.24	49769.15
518.41	49748.09
518.58	49488.29
518.75	49539.78
518.93	49909.58
519.10	49785.54
519.27	50403.44
519.45	50117.89
519.62	50115.55
519.79	50586.00
519.96	50202.15
520.14	50356.63
520.31	50597.70
520.48	51208.58
520.65	50791.97
520.83	50862.18
521.00	51154.75
521.17	50770.90
521.34	51002.61
521.52	51056.45
521.69	51213.26
521.86	51491.79
522.03	51374.76
522.20	51391.14
522.38	51650.94
522.55	51470.72
522.72	51929.47
522.89	51622.86
523.07	51920.10
523.24	51842.87
523.41	52193.95
523.58	51709.46
523.75	52273.52
523.92	52327.36
524.10	52264.16
524.27	52451.41
524.44	52266.50
524.61	52301.61
524.78	52428.00
524.96	52549.71
525.13	52839.93
525.30	52889.09
525.47	53003.77
525.64	52786.10
525.81	53219.10
525.98	52760.36
526.16	52856.32
526.33	52793.12
526.50	53340.81
526.67	53286.98
526.84	53251.87
527.01	53001.43
527.18	53165.27
527.36	53338.47
527.53	53235.48
527.70	53947.01
527.87	53558.48
528.04	53537.41
528.21	53925.94
528.38	53661.46
528.55	53963.39
528.72	53565.50
528.89	53902.54
529.07	53939.99
529.24	53565.50
529.41	54143.61
529.58	53895.52
529.75	54209.15
529.92	54005.52
530.09	54087.44
530.26	54321.49
530.43	54363.62
530.60	54068.72
530.77	54426.82
530.94	54433.84
531.11	54454.90
531.28	54412.77
531.46	54747.47
531.63	54504.06
531.80	54396.39
531.97	54576.61
532.14	54845.77
532.31	54464.27
532.48	54981.52
532.65	54878.54
532.82	54583.63
532.99	54965.14
533.16	54665.55
533.33	55145.36
533.50	55257.71
533.67	55161.75
533.84	55140.68
534.01	55089.19
534.18	55072.81
534.35	55648.58
534.52	55477.72
534.69	55435.59
534.86	55491.76
535.03	55236.64
535.20	55332.60
535.37	55789.01
535.54	55571.34
535.71	55700.07
535.88	55557.30
536.05	55735.18
536.22	55870.93
536.38	55664.96
536.55	56009.02
536.72	55913.06
536.89	55522.19
537.06	55870.93
537.23	56175.20
537.40	55929.44
537.57	55838.16
537.74	55927.10
537.91	56123.71
538.08	56130.73
538.25	55973.91
538.42	56280.52
538.59	56540.32
538.75	56254.78
538.92	56144.77
539.09	56655.01
539.26	56332.01
539.43	56500.53
539.60	56233.71
539.77	56495.85
539.94	56537.98
540.11	56624.58
540.28	56673.73
540.44	56727.56
540.61	56863.32
540.78	56673.73
540.95	56680.75
541.12	56505.21
541.29	56790.76
541.46	56678.41
541.62	56708.84
541.79	57027.15
541.96	56554.36
542.13	56671.39
542.30	56968.64
542.47	57008.43
542.63	57013.11
542.80	57045.88
542.97	57212.06
543.14	57434.41
543.31	57439.09
543.48	57448.45
543.64	57638.03
543.81	57528.03
543.98	57542.07
544.15	57609.95
544.32	57848.68
544.48	57902.51
544.65	57710.59
544.82	57729.31
544.99	57516.32
545.16	57710.59
545.32	57579.52
545.49	57893.15
545.66	57904.85
545.83	57993.79
546.00	57844.00
546.16	57790.17
546.33	57591.22
546.50	57858.04
546.67	57998.48
546.83	57434.41
547.00	57986.77
547.17	57886.13
547.34	58045.29
547.50	58117.84
547.67	58192.74
547.84	58401.05
548.00	58485.31
548.17	58679.57
548.34	58394.03
548.51	58508.71
548.67	58546.16
548.84	58379.98
549.01	58361.26
549.18	58115.50
549.34	58506.37
549.51	58515.73
549.68	58702.98
549.84	58684.25
550.01	58660.85
550.18	58609.35
550.34	58728.72
550.51	58857.45
550.68	58705.32
550.84	58588.29
551.01	58569.57
551.18	58702.98
551.34	58803.62
551.51	58763.83
551.68	58829.37
551.84	58869.15
552.01	58805.96
552.18	59007.25
552.34	58827.02
552.51	59030.65
552.68	58906.60
552.84	58862.13
553.01	59267.05
553.18	59063.42
553.34	58925.33
553.51	58997.88
553.67	59175.76
553.84	59035.33
554.01	59187.47
554.17	59217.89
554.34	59299.81
554.51	59358.33
554.67	59510.46
554.84	59164.06
555.00	59341.94
555.17	59189.81
555.33	59234.28
555.50	58965.12
555.67	59250.66
555.83	59463.65
556.00	59405.14
556.16	59634.51
556.33	59746.86
556.50	59458.97
556.66	59620.47
556.83	59465.99
556.99	59643.87
557.16	59770.26
557.32	59650.89
557.49	59791.33
557.65	59674.30
557.82	59465.99
557.98	59557.27
558.15	59650.89
558.32	59751.54
558.48	59622.81
558.65	59676.64
558.81	59777.28
558.98	59992.61
559.14	59992.61
559.31	59716.43
559.47	60067.51
559.64	60114.32
559.80	60079.21
559.97	60020.70
560.13	59800.69
560.30	59859.20
560.46	60016.02
560.63	60079.21
560.79	59880.27
560.96	59964.52
561.12	60034.74
561.29	60100.28
561.45	60301.56
561.61	59906.01
561.78	59997.29
561.94	60023.04
562.11	60055.81
562.27	60151.77
562.44	60207.94
562.60	60339.01
562.77	60221.98
562.93	60121.34
563.10	60217.30
563.26	60324.97
563.42	60563.70
563.59	60102.62
563.75	60341.35
563.92	60306.24
564.08	60294.54
564.24	60360.08
564.41	60268.79
564.57	60470.08
564.74	60186.88
564.90	60308.58
565.07	60449.02
565.23	60339.01
565.39	60357.74
565.56	60397.52
565.72	60275.82
565.88	60390.50
566.05	60334.33
566.21	60650.30
566.38	60573.06
566.54	60533.28
566.70	60528.59
566.87	60669.03
567.03	60512.21
567.19	60907.76
567.36	60519.23
567.52	60533.28
567.68	60764.99
567.85	60659.66
568.01	60697.11
568.17	60535.62
568.34	60626.90
568.50	60446.68
568.66	60313.26
568.83	60673.71
568.99	60479.44
569.15	60685.41
569.32	60631.58
569.48	60640.94
569.64	60889.04
569.81	60818.82
569.97	60523.91
570.13	60633.92
570.30	60652.64
570.46	60654.98
570.62	60804.78
570.78	60793.07
570.95	60701.79
571.11	60692.43
571.27	60732.22
571.43	60561.36
571.60	60898.40
571.76	60638.60
571.92	60903.08
572.09	60764.99
572.25	60837.54
572.41	60659.66
572.57	60996.70
572.74	61132.45
572.90	60741.58
573.06	60980.32
573.22	60779.03
573.38	60811.80
573.55	60657.32
573.71	60996.70
573.87	60764.99
574.03	60926.49
574.20	61003.72
574.36	60882.02
574.52	60844.57
574.68	61069.26
574.84	60849.25
575.01	60954.57
575.17	61041.17
575.33	60807.12
575.49	60877.33
575.65	61059.90
575.82	61062.24
575.98	60992.02
576.14	61179.26
576.30	61076.28
576.46	60863.29
576.62	61057.56
576.79	60858.61
576.95	60891.38
577.11	61125.43
577.27	61057.56
577.43	61193.31
577.59	61003.72
577.75	60973.30
577.92	60891.38
578.08	61080.96
578.24	60973.30
578.40	61172.24
578.56	61071.60
578.72	61172.24
578.88	61141.81
579.04	61233.10
579.21	61258.84
579.37	61195.65
579.53	61139.47
579.69	60879.67
579.85	60961.59
580.01	61066.92
580.17	60992.02
580.33	61167.56
580.49	61312.67
580.65	61235.44
580.82	60992.02
580.98	61109.05
581.14	60907.76
581.30	61167.56
581.46	61113.73
581.62	61240.12
581.78	61050.53
581.94	61375.87
582.10	61008.40
582.26	61174.58
582.42	61141.81
582.58	61080.96
582.74	61050.53
582.90	61286.93
583.06	61153.52
583.22	61020.11
583.38	61258.84
583.54	61118.41
583.70	61155.86
583.86	61338.42
584.02	61160.54
584.18	61333.74
584.34	61153.52
584.50	61207.35
584.66	61069.26
584.82	60947.55
584.98	61291.61
585.14	61378.21
585.30	61104.37
585.46	61071.60
585.62	61368.85
585.78	61256.50
585.94	60935.85
586.10	61111.39
586.26	61270.54
586.42	61380.55
586.58	61249.48
586.74	61399.27
586.90	61219.05
587.06	60992.02
587.22	61066.92
587.38	61212.03
587.54	61183.94
587.70	61520.98
587.86	61235.44
588.02	61382.89
588.18	61563.11
588.34	61209.69
588.49	61169.90
588.65	61256.50
588.81	61373.53
588.97	61520.98
589.13	61469.49
589.29	61392.25
589.45	61427.36
589.61	61462.47
589.77	61815.89
589.93	61464.81
590.08	61490.55
590.24	61652.05
590.40	61745.67
590.56	61705.88
590.72	61490.55
590.88	61518.64
591.04	61446.08
591.20	61652.05
591.35	61623.96
591.51	61769.08
591.67	61715.25
591.83	61729.29
591.99	61740.99
592.15	61258.84
592.31	61602.90
592.46	61769.08
592.62	61436.72
592.78	61670.78
592.94	61780.78
593.10	61729.29
593.26	61710.56
593.41	61595.88
593.57	61740.99
593.73	61818.23
593.89	61904.83
594.05	61811.21
594.20	61724.61
594.36	61792.48
594.52	61684.82
594.68	61766.74
594.84	61680.14
594.99	61825.25
595.15	61504.60
595.31	61843.98
595.47	61509.28
595.62	61570.13
595.78	61719.93
595.94	61801.85
596.10	62010.15
596.25	61979.73
596.41	61935.26
596.57	61897.81
596.73	61949.30
596.88	61755.03
597.04	61858.02
597.20	62075.69
597.36	61935.26
597.51	61900.15
597.67	61886.10
597.83	61607.58
597.99	61818.23
598.14	61675.46
598.30	62078.03
598.46	61890.79
598.61	62049.94
598.77	61743.33
598.93	61860.36
599.09	61879.08
599.24	62129.52
599.40	62071.01
599.56	62005.47
599.71	61862.70
599.87	62087.39
600.03	62120.16
600.18	61963.34
600.34	61900.15
600.50	61928.23
600.65	61647.37
600.81	61806.53
600.97	62134.20
601.12	61953.98
601.28	61965.68
601.44	61708.22
601.59	62159.95
601.75	61958.66
601.91	62092.07
602.06	61879.08
602.22	62220.80
602.37	61872.06
602.53	61862.70
602.69	61832.27
602.84	61865.04
603.00	61858.02
603.16	62155.27
603.31	62026.54
603.47	62005.47
603.62	62038.24
603.78	61975.05
603.94	62045.26
604.09	62021.86
604.25	62063.99
604.40	61918.87
604.56	61984.41
604.71	62171.65
604.87	62003.13
605.03	61911.85
605.18	61911.85
605.34	61996.11
605.49	61806.53
605.65	62103.77
605.80	62038.24
605.96	62106.12
606.12	61982.07
606.27	62101.43
606.43	61815.89
606.58	61996.11
606.74	61785.46
606.89	61689.50
607.05	61998.45
607.20	62059.30
607.36	61628.65
607.51	61961.00
607.67	61834.61
607.82	61921.21
607.98	61757.38
608.13	61911.85
608.29	61794.82
608.44	61841.63
608.60	61806.53
608.75	61942.28
608.91	61684.82
609.06	61696.52
609.22	62127.18
609.37	61691.84
609.53	61853.34
609.68	61804.19
609.84	61757.38
609.99	61687.16
610.15	61783.12
610.30	62012.49
610.46	61801.85
610.61	61874.40
610.76	61801.85
610.92	61633.33
611.07	61755.03
611.23	61687.16
611.38	61769.08
611.54	61740.99
611.69	61806.53
611.84	61738.65
612.00	61916.53
612.15	61659.07
612.31	61726.95
612.46	61670.78
612.62	61717.59
612.77	61801.85
612.92	61783.12
613.08	61682.48
613.23	61640.35
613.39	61621.62
613.54	61668.44
613.69	61680.14
613.85	61528.00
614.00	61694.18
614.15	61848.66
614.31	61364.17
614.46	61708.22
614.62	61532.68
614.77	61701.20
614.92	61544.39
615.08	61539.71
615.23	61436.72
615.38	61719.93
615.54	61616.94
615.69	61492.89
615.84	61584.18
616.00	61726.95
616.15	61764.40
616.30	61750.35
616.46	61434.38
616.61	61460.13
616.76	61553.75
616.92	61324.38
617.07	61509.28
617.22	61190.97
617.37	61375.87
617.53	61656.73
617.68	61696.52
617.83	61619.28
617.99	61579.49
618.14	61286.93
618.29	61324.38
618.45	61345.44
618.60	61249.48
618.75	61233.10
618.90	61240.12
619.06	61506.94
619.21	61478.85
619.36	61572.47
619.51	61305.65
619.67	61193.31
619.82	61186.28
619.97	61378.21
620.12	61095.00
620.28	61413.32
620.43	61425.02
620.58	61373.53
620.73	60928.83
620.89	61186.28
621.04	61326.72
621.19	61008.40
621.34	61045.85
621.49	61078.62
621.65	61317.35
621.80	61425.02
621.95	61111.39
622.10	61401.61
622.25	61050.53
622.41	61188.63
622.56	60919.46
622.71	61165.22
622.86	60952.23
623.01	60659.66
623.16	60989.68
623.32	61027.13
623.47	61329.06
623.62	60823.50
623.77	61027.13
623.92	61059.90
624.07	61031.81
624.23	61165.22
624.38	61265.86
624.53	61010.74
624.68	60921.80
624.83	60970.96
624.98	61013.08
625.13	60842.23
625.29	60956.91
625.44	60926.49
625.59	60851.59
625.74	60879.67
625.89	60767.33
626.04	60418.59
626.19	60561.36
626.34	60753.29
626.49	60514.55
626.65	60479.44
626.80	60734.56
626.95	60554.34
627.10	60552.00
627.25	60676.05
627.40	60566.04
627.55	60683.07
627.70	60711.16
627.85	60685.41
628.00	60470.08
628.15	60680.73
628.30	60437.31
628.45	60395.18
628.60	60512.21
628.76	60870.31
628.91	60589.45
629.06	60587.11
629.21	60713.50
629.36	60514.55
629.51	60334.33
629.66	60381.14
629.81	60034.74
629.96	60381.14
630.11	60161.13
630.26	60320.29
630.41	60427.95
630.56	60308.58
630.71	60205.60
630.86	60472.42
631.01	60362.42
631.16	60210.28
631.31	60114.32
631.46	59987.93
631.61	60140.07
631.76	60432.63
631.91	60355.39
632.06	60275.82
632.21	60289.86
632.36	60100.28
632.51	60067.51
632.66	60030.06
632.81	59767.92
632.96	60083.89
633.10	59887.29
633.25	60069.85
633.40	60343.69
633.55	60051.12
633.70	59814.73
633.85	59901.33
634.00	59828.77
634.15	60009.00
634.30	60037.08
634.45	60114.32
634.60	60044.10
634.75	59934.10
634.90	59767.92
635.05	59728.13
635.19	59922.40
635.34	59952.82
635.49	59756.22
635.64	59774.94
635.79	59751.54
635.94	59875.58
636.09	59749.20
636.24	59519.82
636.39	59725.79
636.53	59877.93
636.68	59554.93
636.83	59674.30
636.98	59917.71
637.13	59643.87
637.28	59662.60
637.43	59686.00
637.57	59592.38
637.72	59475.35
637.87	59634.51
638.02	59627.49
638.17	59831.11
638.32	59540.89
638.46	59461.31
638.61	59545.57
638.76	59444.93
638.91	59730.47
639.06	59304.49
639.20	59477.69
639.35	59428.54
639.50	59374.71
639.65	59388.75
639.80	59468.33
639.94	59395.77
640.09	59253.00
640.24	59484.72
640.39	59229.60
640.54	59484.72
640.68	59505.78
640.83	59178.10
640.98	59451.95
641.13	59203.85
641.27	59564.29
641.42	59114.91
641.57	59070.44
641.72	59018.95
641.86	59229.60
642.01	59021.29
642.16	59082.14
642.31	59131.29
642.45	59337.26
642.60	59241.30
642.75	59255.34
642.90	59217.89
643.04	59271.73
643.19	58941.71
643.34	59007.25
643.48	59133.63
643.63	59021.29
643.78	59110.23
643.93	59063.42
644.07	59047.04
644.22	59199.17
644.37	58859.79
644.51	58899.58
644.66	59114.91
644.81	58941.71
644.95	58993.20
645.10	58969.80
645.25	58911.28
645.39	58684.25
645.54	58808.30
645.69	58803.62
645.83	58712.34
645.98	58702.98
646.13	58632.76
646.27	59051.72
646.42	58726.38
646.57	58677.23
646.71	58532.12
646.86	58878.52
647.00	58525.10
647.15	58611.70
647.30	58513.39
647.44	58681.91
647.59	58726.38
647.74	58876.18
647.88	58937.03
648.03	58904.26
648.17	58824.68
648.32	58529.78
648.47	58747.45
648.61	58576.59
648.76	58749.79
648.90	58562.54
649.05	58674.89
649.20	58710.00
649.34	58569.57
649.49	58492.33
649.63	58560.20
649.78	58752.13
649.92	58651.48
650.07	58494.67
650.21	58429.13
650.36	58419.77
650.51	58529.78
650.65	58569.57
650.80	58515.73
650.94	58082.73
651.09	58056.99
651.23	58321.47
651.38	58141.25
651.52	58143.59
651.67	58129.54
651.81	58262.96
651.96	58274.66
652.10	58092.10
652.25	58026.56
652.39	58073.37
652.54	58251.25
652.68	57930.60
652.83	58351.90
652.97	58064.01
653.12	57982.09
653.26	58202.10
653.41	58326.15
653.55	58059.33
653.70	57977.41
653.84	58080.39
653.99	58019.54
654.13	58045.29
654.27	57792.51
654.42	57771.44
654.56	57923.58
654.71	58056.99
654.85	57785.49
655.00	57855.70
655.14	57776.12
655.29	57909.53
655.43	58092.10
655.57	57846.34
655.72	57668.46
655.86	57642.71
656.01	57710.59
656.15	57499.94
656.30	57757.40
656.44	57836.98
656.58	57623.99
656.73	57848.68
656.87	58024.22
657.01	57642.71
657.16	57862.72
657.30	57506.96
657.45	57733.99
657.59	57490.58
657.73	57322.06
657.88	57256.53
658.02	57558.45
658.16	57329.08
658.31	57296.31
658.45	57350.15
658.60	57535.05
658.74	57450.79
658.88	57354.83
659.03	57282.27
659.17	57125.46
659.31	57326.74
659.46	57179.29
659.60	57256.53
659.74	57144.18
659.89	57153.54
660.03	56975.66
660.17	57221.42
660.32	57008.43
660.46	56980.34
660.60	56865.66
660.74	56978.00
660.89	57090.35
661.03	56802.46
661.17	56882.04
661.32	56561.39
661.46	56540.32
661.60	56690.12
661.74	56722.88
661.89	56549.68
662.03	56364.78
662.17	56472.45
662.31	56612.88
662.46	56772.03
662.60	56533.30
662.74	56477.13
662.88	56404.57
663.03	56280.52
663.17	56142.43
663.31	56275.84
663.45	56238.39
663.60	55927.10
663.74	56069.87
663.88	56095.62
664.02	55945.83
664.17	56151.79
664.31	55922.42
664.45	55777.31
664.59	56048.81
664.73	55828.80
664.88	55948.17
665.02	55302.18
665.16	55597.09
665.30	55730.50
665.44	55646.24
665.59	55608.79
665.73	55480.06
665.87	55655.60
666.01	55437.93
666.15	55674.32
666.29	55583.04
666.44	55480.06
666.58	55384.10
666.72	55147.70
666.86	55126.64
667.00	55332.60
667.14	54857.48
667.28	54937.05
667.43	55058.76
667.57	55138.34
667.71	55131.32
667.85	54883.22
667.99	54791.94
668.13	54834.07
668.27	54897.27
668.41	54691.30
668.56	54480.65
668.70	54595.34
668.84	54506.40
668.98	54614.06
669.12	54642.15
669.26	54595.34
669.40	54361.28
669.54	54742.79
669.68	54101.48
669.82	53998.50
669.96	54316.81
670.10	54260.64
670.25	54167.02
670.39	54164.68
670.53	53956.37
670.67	53865.09
670.81	54473.63
670.95	54040.63
671.09	53900.20
671.23	53558.48
671.37	53745.72
671.51	53792.53
671.65	53567.84
671.79	53822.96
671.93	53350.17
672.07	53565.50
672.21	53474.22
672.35	52750.99
672.49	52872.70
672.63	53106.76
672.77	53130.16
672.91	52961.64
673.05	52994.41
673.19	52914.83
673.33	52655.03
673.47	52643.33
673.61	52786.10
673.75	52725.25
673.89	52617.58
674.03	52594.18
674.17	52378.85
674.31	52062.88
674.45	52210.33
674.59	52200.97
674.73	52299.27
674.87	52226.71
675.01	51835.84
675.15	51934.15
675.29	52048.83
675.43	51885.00
675.56	51475.40
675.70	51299.86
675.84	51475.40
675.98	50281.73
676.12	51625.20
676.26	51503.49
676.40	51311.56
676.54	51147.73
676.68	51033.04
676.82	50178.75
676.96	50798.99
677.10	50305.13
677.23	50176.40
677.37	50506.42
677.51	50452.59
677.65	50122.57
677.79	49382.96
677.93	49155.93
678.07	49731.70
678.21	49675.53
678.34	49556.16
678.48	49265.94
678.62	48779.10
678.76	49066.99
678.90	49186.36
679.04	48619.95
679.18	49095.08
679.31	48126.10
679.45	48296.95
679.59	48311.00
679.73	48523.99
679.87	47927.15
680.00	47372.44
680.14	47812.46
680.28	47409.89
680.42	47381.80
680.56	47353.72
680.70	46937.10
680.83	47129.03
680.97	46859.87
681.11	47248.39
681.25	47442.66
681.39	47199.24
681.52	46864.55
681.66	46773.27
681.80	46452.61
681.94	46567.30
682.07	45968.12
682.21	45757.47
682.35	45874.50
682.49	45567.89
682.62	45591.30
682.76	45979.82
682.90	45893.22
683.04	45464.91
683.17	45249.58
683.31	44886.79
683.45	44940.63
683.59	44708.91
683.72	44201.02
683.86	44765.09
684.00	45001.48
684.13	44470.18
684.27	44060.58
684.41	44172.93
684.55	44226.76
684.68	43559.71
684.82	43288.21
684.96	43309.27
685.09	43569.07
685.23	42869.25
685.37	43089.26
685.50	42546.26
685.64	42829.46
685.78	42646.90
685.91	42948.83
686.05	42349.65
686.19	41673.24
686.32	41755.16
686.46	41329.18
686.60	41247.26
686.73	41144.28
686.87	40631.70
687.01	41467.27
687.14	41610.04
687.28	40978.10
687.42	40744.05
687.55	40854.05
687.69	41099.81
687.82	40346.15
687.96	40170.61
688.10	40079.33
688.23	40423.39
688.37	39990.39
688.50	39693.15
688.64	39732.93
688.78	39014.39
688.91	39014.39
689.05	38990.98
689.18	38696.08
689.32	38258.40
689.46	38033.71
689.59	38281.80
689.73	38036.05
689.86	37624.11
690.00	37750.50
690.13	37720.07
690.27	37642.84
690.41	37942.42
690.54	36985.15
690.68	36907.91
690.81	37146.64
690.95	37010.89
691.08	36526.40
691.22	36762.79
691.35	36858.76
691.49	36943.02
691.62	36568.53
691.76	36318.09
691.89	36046.59
692.03	35491.88
692.16	35793.81
692.30	35723.60
692.43	35445.07
692.57	35101.01
692.70	35187.61
692.84	35000.37
692.97	34616.52
693.11	35218.04
693.24	34597.80
693.38	34649.29
693.51	34267.78
693.65	34036.07
693.78	33867.55
693.92	33745.84
694.05	33841.81
694.19	33411.15
694.32	33179.43
694.45	33153.69
694.59	33106.88
694.72	32914.95
694.86	32701.96
694.99	32435.14
695.13	32451.53
695.26	32063.00
695.39	31847.67
695.53	31622.98
695.66	32030.23
695.80	31974.06
695.93	31737.66
696.07	31344.45
696.20	30895.07
696.33	30981.67
696.47	30700.81
696.60	30656.34
696.73	30588.46
696.87	30817.83
697.00	30160.14
697.14	30136.74
697.27	30433.99
697.40	30211.64
697.54	30277.17
697.67	30153.12
697.80	29666.29
697.94	29149.03
698.07	29039.03
698.21	28606.03
698.34	29062.43
698.47	28996.90
698.61	28713.69
698.74	28325.16
698.87	28573.26
699.01	27908.55
699.14	28491.34
699.27	28161.33
699.40	28205.80
699.54	27981.10
699.67	27997.49
699.80	27885.14
699.94	27913.23
700.07	27742.37
700.20	27442.78
700.34	27164.26
700.47	27012.12
700.60	27051.91
700.73	26867.01
700.87	26518.27
701.00	26026.76
701.13	25982.29
701.26	26293.58
701.40	26125.06
701.53	26024.42
701.66	26148.46
701.79	25488.43
701.93	25156.08
702.06	24851.81
702.19	25212.25
702.32	24861.17
702.46	25074.16
702.59	24622.44
702.72	24584.99
702.85	25022.67
702.99	24631.80
703.12	24847.13
703.25	24210.50
703.38	23939.00
703.51	24018.58
703.65	23915.59
703.78	23538.77
703.91	23360.89
704.04	23377.27
704.17	23447.49
704.31	23349.18
704.44	22773.41
704.57	23124.49
704.70	22934.91
704.83	22537.02
704.96	22377.86
705.10	22532.34
705.23	22171.89
>>>>>End Processed Spectral Data<<<<<
