SpectraSuite Data File
++++++++++++++++++++++++++++++++++++
Date: Fri Oct 25 11:26:13 EDT 2013
User: price-jones
Dark Spectrum Present: No
Reference Spectrum Present: No
Number of Sampled Component Spectra: 1
Spectrometers: USB2+H05261
Integration Time (usec): 100000 (USB2+H05261)
Spectra Averaged: 1 (USB2+H05261)
Boxcar Smoothing: 0 (USB2+H05261)
Correct for Electrical Dark: No (USB2+H05261)
Strobe/Lamp Enabled: No (USB2+H05261)
Correct for Detector Non-linearity: No (USB2+H05261)
Correct for Stray Light: No (USB2+H05261)
Number of Pixels in Processed Spectrum: 2048
>>>>>Begin Processed Spectral Data<<<<<
365.73	250.44
365.92	250.44
366.12	250.44
366.32	156.82
366.52	110.01
366.72	154.48
366.91	79.58
367.11	166.18
367.31	156.82
367.51	131.07
367.70	147.45
367.90	159.16
368.10	149.79
368.30	65.54
368.49	105.32
368.69	194.26
368.89	159.16
369.09	222.35
369.28	215.33
369.48	177.88
369.68	212.99
369.87	210.65
370.07	170.86
370.27	245.76
370.47	287.89
370.66	561.73
370.86	622.58
371.06	695.14
371.25	697.48
371.45	638.97
371.65	704.50
371.84	718.54
372.04	734.93
372.24	713.86
372.44	807.48
372.63	795.78
372.83	734.93
373.03	763.01
373.22	802.80
373.42	713.86
373.62	777.06
373.81	842.59
374.01	833.23
374.21	753.65
374.40	877.70
374.60	779.40
374.79	807.48
374.99	833.23
375.19	908.13
375.38	807.48
375.58	910.47
375.78	924.51
375.97	873.02
376.17	915.15
376.37	830.89
376.56	833.23
376.76	870.68
376.95	880.04
377.15	849.61
377.35	880.04
377.54	866.00
377.74	968.98
377.93	931.53
378.13	1034.52
378.33	938.55
378.52	961.96
378.72	938.55
378.91	894.08
379.11	842.59
379.31	1064.94
379.50	973.66
379.70	959.62
379.89	931.53
380.09	999.41
380.28	992.39
380.48	976.00
380.68	1001.75
380.87	966.64
381.07	1006.43
381.26	959.62
381.46	1095.37
381.65	987.71
381.85	1069.62
382.04	1090.69
382.24	1015.79
382.43	1027.50
382.63	1053.24
382.83	1069.62
383.02	1114.10
383.22	1144.52
383.41	1029.84
383.61	1095.37
383.80	1139.84
384.00	1097.71
384.19	1093.03
384.39	1121.12
384.58	1123.46
384.78	1146.86
384.97	1102.39
385.17	1198.35
385.36	1167.93
385.56	1200.69
385.75	1174.95
385.95	1242.82
386.14	1177.29
386.34	1259.21
386.53	1170.27
386.72	1212.40
386.92	1231.12
387.11	1203.04
387.31	1177.29
387.50	1291.98
387.70	1226.44
387.89	1296.66
388.09	1263.89
388.28	1282.61
388.48	1301.34
388.67	1404.32
388.86	1327.08
389.06	1359.85
389.25	1315.38
389.45	1284.95
389.64	1420.71
389.84	1437.09
390.03	1287.29
390.22	1406.66
390.42	1359.85
390.61	1446.45
390.81	1476.88
391.00	1420.71
391.19	1418.36
391.39	1376.24
391.58	1540.07
391.78	1519.01
391.97	1500.28
392.16	1350.49
392.36	1570.50
392.55	1467.52
392.75	1528.37
392.94	1523.69
393.13	1472.20
393.33	1451.13
393.52	1605.61
393.71	1577.52
393.91	1540.07
394.10	1584.54
394.29	1629.01
394.49	1572.84
394.68	1629.01
394.88	1596.25
395.07	1645.40
395.26	1666.46
395.46	1664.12
395.65	1710.93
395.84	1769.44
396.04	1729.66
396.23	1806.89
396.42	1778.81
396.62	1825.62
396.81	1741.36
397.00	1867.75
397.19	1741.36
397.39	1827.96
397.58	1799.87
397.77	1867.75
397.97	1809.23
398.16	1790.51
398.35	1853.70
398.55	1874.77
398.74	1984.77
398.93	1961.37
399.12	1966.05
399.32	1980.09
399.51	1968.39
399.70	1919.24
399.90	2078.40
400.09	2073.71
400.28	2057.33
400.47	2076.06
400.67	2129.89
400.86	2087.76
401.05	2146.27
401.24	2101.80
401.44	2066.69
401.63	2172.02
401.82	2167.34
402.01	2066.69
402.21	2225.85
402.40	2211.81
402.59	2066.69
402.78	2251.60
402.97	2211.81
403.17	2260.96
403.36	2232.87
403.55	2214.15
403.74	2438.84
403.93	2326.49
404.13	2427.14
404.32	2429.48
404.51	2293.72
404.70	2345.22
404.89	2445.86
405.09	2459.90
405.28	2403.73
405.47	2516.08
405.66	2462.24
405.85	2525.44
406.05	2429.48
406.24	2616.72
406.43	2590.97
406.62	2621.40
406.81	2689.28
407.00	2579.27
407.20	2612.04
407.39	2565.23
407.58	2818.00
407.77	2672.89
407.96	2665.87
408.15	2668.21
408.34	2883.54
408.54	2808.64
408.73	2743.11
408.92	2787.58
409.11	2785.24
409.30	2700.98
409.49	2925.67
409.68	2860.13
409.87	2848.43
410.07	2883.54
410.26	3063.76
410.45	2972.48
410.64	3049.72
410.83	3087.17
411.02	2904.60
411.21	3105.89
411.40	3126.96
411.59	3251.00
411.78	3286.11
411.98	3199.51
412.17	3297.81
412.36	3236.96
412.55	3232.28
412.74	3288.45
412.93	3372.71
413.12	3290.79
413.31	3564.64
413.50	3297.81
413.69	3508.46
413.88	3482.72
414.07	3592.72
414.26	3595.06
414.45	3562.30
414.64	3810.39
414.83	3789.33
415.02	3768.26
415.22	3772.94
415.41	3833.80
415.60	3871.25
415.79	4007.00
415.98	4079.55
416.17	4011.68
416.36	4035.08
416.55	3976.57
416.74	3992.95
416.93	3908.69
417.12	4121.68
417.31	4245.73
417.50	4121.68
417.69	4203.60
417.88	4250.41
418.07	4166.15
418.26	4222.33
418.45	4337.01
418.64	4432.97
418.83	4533.62
419.02	4397.87
419.21	4437.66
419.39	4526.60
419.58	4411.91
419.77	4447.02
419.96	4550.00
420.15	4552.34
420.34	4730.22
420.53	4496.17
420.72	4690.43
420.91	4655.33
421.10	4713.84
421.29	4695.11
421.48	4676.39
421.67	4784.06
421.86	4720.86
422.05	4723.20
422.24	4795.76
422.43	4786.40
422.61	4861.29
422.80	5090.67
422.99	5004.07
423.18	4873.00
423.37	4957.25
423.56	4983.00
423.75	4737.24
423.94	4865.97
424.13	4734.90
424.32	4786.40
424.50	4929.17
424.69	5088.32
424.88	5114.07
425.07	4908.10
425.26	5015.77
425.45	4985.34
425.64	4807.46
425.83	4931.51
426.01	4889.38
426.20	4997.04
426.39	5039.17
426.58	4966.62
426.77	4912.78
426.96	5060.24
427.15	5207.69
427.33	5149.18
427.52	5270.89
427.71	5186.63
427.90	5259.18
428.09	5254.50
428.28	5263.86
428.46	5371.53
428.65	5427.70
428.84	5488.56
429.03	5500.26
429.22	5472.17
429.40	5437.06
429.59	5462.81
429.78	5296.63
429.97	5383.23
430.16	5392.59
430.34	5617.29
430.53	5572.82
430.72	5518.98
430.91	5724.95
431.10	5589.20
431.28	5713.25
431.47	5893.47
431.66	5816.23
431.85	5720.27
432.03	5846.66
432.22	5980.07
432.41	5954.32
432.60	5982.41
432.79	6017.52
432.97	6167.31
433.16	5874.74
433.35	5893.47
433.54	6146.25
433.72	6207.10
433.91	6125.18
434.10	6214.12
434.28	6129.86
434.47	6413.07
434.66	6258.59
434.85	6251.57
435.03	6487.96
435.22	6420.09
435.41	6530.09
435.59	6340.51
435.78	6305.40
435.97	6361.58
436.16	6331.15
436.34	6502.01
436.53	6396.68
436.72	6668.19
436.90	6668.19
437.09	6513.71
437.28	6478.60
437.46	6490.31
437.65	6621.38
437.84	6684.57
438.02	6579.25
438.21	6839.05
438.40	6630.74
438.58	6939.69
438.77	7103.53
438.96	6817.98
439.14	7056.72
439.33	7026.29
439.52	7218.21
439.70	7297.79
439.89	7250.98
440.08	7407.80
440.26	7183.10
440.45	7225.23
440.63	7475.67
440.82	7552.91
441.01	7470.99
441.19	7728.45
441.38	7651.21
441.57	7789.30
441.75	7772.92
441.94	7906.33
442.12	7903.99
442.31	8018.68
442.50	8070.17
442.68	7948.46
442.87	7899.31
443.05	7899.31
443.24	8161.45
443.43	7913.35
443.61	8028.04
443.80	8290.18
443.98	8100.59
444.17	7864.20
444.35	8175.49
444.54	8334.65
444.73	8217.62
444.91	8161.45
445.10	8470.40
445.28	8243.37
445.47	8250.39
445.65	8161.45
445.84	8456.36
446.02	8493.80
446.21	8252.73
446.39	8475.08
446.58	8512.53
446.77	8489.12
446.95	8320.60
447.14	8430.61
447.32	8507.85
447.51	8491.46
447.69	8252.73
447.88	8636.58
448.06	8503.17
448.25	8526.57
448.43	8505.51
448.62	8737.22
448.80	8603.81
448.99	8437.63
449.17	8748.92
449.36	8561.68
449.54	8812.12
449.73	8816.80
449.91	9029.79
450.10	9020.42
450.28	8929.14
450.46	8861.27
450.65	9085.96
450.83	9128.09
451.02	9116.39
451.20	9149.15
451.39	8947.87
451.57	9186.60
451.76	9191.28
451.94	9287.25
452.13	9076.60
452.31	9329.38
452.49	9172.56
452.68	9275.54
452.86	9263.84
453.05	9441.72
453.23	9488.53
453.42	9153.84
453.60	9401.93
453.78	9554.07
453.97	9500.23
454.15	9490.87
454.34	9441.72
454.52	9799.82
454.70	9490.87
454.89	9811.53
455.07	9734.29
455.26	9891.10
455.44	10040.90
455.62	9923.87
455.81	9816.21
455.99	9888.76
456.17	9989.41
456.36	10064.30
456.54	9996.43
456.73	10008.13
456.91	10406.02
457.09	10434.11
457.28	10303.04
457.46	10059.62
457.64	10331.12
457.83	10560.50
458.01	10389.64
458.19	10621.35
458.38	10429.43
458.56	10693.91
458.74	10462.19
458.93	10499.64
459.11	10523.05
459.29	10836.68
459.48	10820.30
459.66	10619.01
459.84	10656.46
460.03	11012.22
460.21	10981.79
460.39	11009.88
460.57	10934.98
460.76	11082.44
460.94	11185.42
461.12	11152.65
461.31	11328.19
461.49	11272.02
461.67	11328.19
461.85	11449.90
462.04	11335.21
462.22	11625.44
462.40	11611.40
462.59	11548.20
462.77	11428.84
462.95	11529.48
463.13	11421.81
463.32	11517.78
463.50	11819.71
463.68	11662.89
463.86	11726.08
464.05	11468.62
464.23	11473.31
464.41	11985.88
464.59	11583.31
464.78	12201.21
464.96	11896.94
465.14	12067.80
465.32	11939.07
465.50	12131.00
465.69	12081.85
465.87	12161.42
466.05	12210.57
466.23	12219.94
466.41	12243.34
466.60	12489.10
466.78	12072.48
466.96	12039.72
467.14	11903.96
467.32	12287.81
467.51	12451.65
467.69	12032.69
467.87	12386.12
468.05	12486.76
468.23	12397.82
468.41	12376.75
468.60	12610.81
468.78	12629.53
468.96	12620.17
469.14	12851.88
469.32	12971.25
469.50	12418.88
469.69	12830.82
469.87	12982.95
470.05	13165.51
470.23	13240.41
470.41	13060.19
470.59	13446.38
470.77	13128.06
470.95	13102.32
471.14	13589.15
471.32	12966.57
471.50	13682.77
471.68	13451.06
471.86	13518.93
472.04	13558.72
472.22	14075.98
472.40	13621.92
472.58	13734.26
472.77	13713.20
472.95	14211.73
473.13	14293.65
473.31	14012.79
473.49	14146.20
473.67	14045.55
473.85	14029.17
474.03	14410.68
474.21	14476.21
474.39	14630.69
474.57	14827.29
474.75	15012.20
474.93	15096.46
475.12	14862.40
475.30	14721.97
475.48	14965.39
475.66	14899.85
475.84	15063.69
476.02	15325.83
476.20	15051.99
476.38	15758.83
476.56	16042.03
476.74	15908.62
476.92	15992.88
477.10	15466.26
477.28	16049.05
477.46	16109.91
477.64	16341.62
477.82	16395.45
478.00	16819.09
478.18	16800.37
478.36	17067.19
478.54	17043.78
478.72	16922.07
478.90	17053.14
479.08	17263.79
479.26	17439.33
479.44	17593.81
479.62	17907.44
479.80	18106.38
479.98	18258.52
480.16	18417.68
480.34	18057.23
480.52	18249.16
480.70	18782.80
480.88	18228.09
481.06	18834.29
481.24	18794.50
481.41	19374.95
481.59	19080.05
481.77	19499.00
481.95	19290.70
482.13	19524.75
482.31	19873.49
482.49	20100.52
482.67	19910.94
482.85	20042.01
483.03	20790.98
483.21	20849.49
483.39	21062.48
483.57	20638.84
483.74	21104.61
483.92	21359.73
484.10	21043.76
484.28	21399.52
484.46	21621.87
484.64	22216.36
484.82	22052.53
485.00	22043.17
485.18	22677.45
485.35	22745.33
485.53	22888.10
485.71	22824.90
485.89	23281.31
486.07	23442.81
486.25	23227.48
486.43	23449.83
486.61	24025.60
486.78	23817.29
486.96	24163.69
487.14	24203.48
487.32	24783.93
487.50	24929.05
487.68	24947.77
487.85	25207.57
488.03	25577.37
488.21	25560.99
488.39	25886.32
488.57	25944.84
488.75	25944.84
488.92	26225.70
489.10	26602.53
489.28	26831.90
489.46	26937.23
489.64	27351.50
489.81	27363.20
489.99	27578.53
490.17	27740.03
490.35	27953.02
490.53	28224.52
490.70	28451.55
490.88	28002.17
491.06	28751.14
491.24	28418.78
491.41	28713.69
491.59	29142.01
491.77	28795.61
491.95	29722.46
492.13	29380.74
492.30	29881.62
492.48	29617.14
492.66	29720.12
492.84	30314.62
493.01	30464.41
493.19	30520.59
493.37	30843.58
493.54	30962.95
493.72	31201.68
493.90	30848.26
494.08	32046.62
494.25	31644.04
494.43	31922.57
494.61	32561.53
494.79	32374.29
494.96	32341.52
495.14	32606.00
495.32	32727.71
495.49	33088.15
495.67	33106.88
495.85	33493.07
496.02	33479.02
496.20	34052.45
496.38	34277.15
496.55	33923.72
496.73	34581.42
496.91	35033.14
497.09	34581.42
497.26	34689.08
497.44	34836.53
497.62	35101.01
497.79	36018.50
497.97	35093.99
498.14	35695.51
498.32	35941.27
498.50	35901.48
498.67	35983.40
498.85	36320.43
499.03	36196.38
499.20	36521.72
499.38	36779.18
499.56	36711.30
499.73	36449.16
499.91	36905.57
500.08	37584.32
500.26	37221.54
500.44	37298.78
500.61	37324.52
500.79	37319.84
500.97	37961.15
501.14	38525.22
501.32	38560.33
501.49	38265.42
501.67	38684.37
501.84	39049.50
502.02	38511.17
502.20	38586.07
502.37	38955.88
502.55	38990.98
502.72	39335.04
502.90	39571.44
503.07	39203.97
503.25	39267.17
503.43	39466.11
503.60	39842.94
503.78	40315.73
503.95	39541.01
504.13	39990.39
504.30	40474.88
504.48	40409.35
504.65	40371.90
504.83	40837.67
505.01	41207.47
505.18	40975.76
505.36	41287.05
505.53	41359.61
505.71	41516.42
505.88	41790.27
506.06	41060.02
506.23	41743.45
506.41	41361.95
506.58	41624.09
506.76	41539.83
506.93	42115.60
507.11	42010.28
507.28	42391.78
507.46	42506.47
507.63	42770.95
507.81	43037.77
507.98	42890.32
508.16	43229.69
508.33	43498.86
508.50	43510.56
508.68	43669.72
508.85	43798.44
509.03	43002.66
509.20	43693.12
509.38	44053.56
509.55	43927.17
509.73	44030.16
509.90	44507.63
510.08	44587.21
510.25	44376.56
510.42	44729.98
510.60	44662.10
510.77	44861.05
510.95	45139.57
511.12	44863.39
511.30	44809.56
511.47	45514.06
511.64	45593.64
511.82	45708.32
511.99	45390.01
512.17	45612.36
512.34	45469.59
512.51	46117.92
512.69	46085.15
512.86	46052.38
513.04	46260.69
513.21	46621.13
513.38	46574.32
513.56	46314.52
513.73	46344.95
513.90	46869.23
514.08	46674.96
514.25	46871.57
514.43	47215.63
514.60	47122.01
514.77	47285.84
514.95	47323.29
515.12	47070.51
515.29	47665.01
515.47	48004.39
515.64	48076.94
515.81	47772.67
515.99	47934.17
516.16	48130.78
516.33	47716.50
516.51	48622.29
516.68	48350.79
516.85	48002.05
517.03	48755.70
517.20	48669.10
517.37	48680.80
517.54	48706.55
517.72	48755.70
517.89	49137.21
518.06	49123.16
518.24	49102.10
518.41	49389.98
518.58	49155.93
518.75	49003.80
518.93	49130.19
519.10	49031.88
519.27	49544.46
519.45	49727.02
519.62	50094.49
519.79	49607.65
519.96	49544.46
520.14	49907.24
520.31	49743.41
520.48	50225.56
520.65	50209.17
520.83	50323.86
521.00	50555.57
521.17	50312.16
521.34	50405.78
521.52	50698.34
521.69	50822.39
521.86	50747.50
522.03	51175.81
522.20	51309.22
522.38	51339.65
522.55	51051.76
522.72	51058.79
522.89	50913.67
523.07	51377.10
523.24	51344.33
523.41	51590.09
523.58	51428.59
523.75	51908.40
523.92	51606.47
524.10	51718.82
524.27	51742.22
524.44	51901.38
524.61	52004.36
524.78	52065.22
524.96	52039.47
525.13	52271.18
525.30	52053.51
525.47	52133.09
525.64	52390.55
525.81	52790.78
525.98	52470.13
526.16	52540.35
526.33	52350.76
526.50	52891.43
526.67	52538.01
526.84	52842.27
527.01	52390.55
527.18	52821.21
527.36	52671.42
527.53	53083.35
527.70	52987.39
527.87	53198.04
528.04	52893.77
528.21	53158.25
528.38	53200.38
528.55	53422.73
528.72	53265.91
528.89	53095.05
529.07	53289.32
529.24	53347.83
529.41	53476.56
529.58	53663.80
529.75	53605.29
529.92	53607.63
530.09	53666.14
530.26	53780.83
530.43	53825.30
530.60	53712.95
530.77	53605.29
530.94	53691.89
531.11	53998.50
531.28	54162.34
531.46	54160.00
531.63	54216.17
531.80	53984.46
531.97	54279.36
532.14	54307.45
532.31	54169.36
532.48	54108.50
532.65	54492.35
532.82	54419.80
532.99	54581.29
533.16	54466.61
533.33	54564.91
533.50	54820.03
533.67	54585.97
533.84	54539.16
534.01	54663.21
534.18	54972.16
534.35	55164.09
534.52	54857.48
534.69	54986.21
534.86	55068.12
535.03	54988.55
535.20	55068.12
535.37	55058.76
535.54	55140.68
535.71	55386.44
535.88	55393.46
536.05	55295.16
536.22	55381.76
536.38	55444.95
536.55	55290.48
536.72	55515.17
536.89	55327.92
537.06	55423.89
537.23	55639.22
537.40	55391.12
537.57	55655.60
537.74	55707.09
537.91	56027.74
538.08	55765.60
538.25	55529.21
538.42	55880.29
538.59	56137.75
538.75	55934.12
538.92	55997.32
539.09	56196.26
539.26	55959.87
539.43	56018.38
539.60	56200.94
539.77	56032.42
539.94	56203.28
540.11	56296.91
540.28	56203.28
540.44	56470.11
540.61	56566.07
540.78	56126.05
540.95	56385.85
541.12	56299.25
541.29	56308.61
541.46	56425.64
541.62	56502.87
541.79	56477.13
541.96	56252.44
542.13	56563.73
542.30	56741.61
542.47	56568.41
542.63	57015.45
542.80	56889.06
542.97	56987.36
543.14	57080.98
543.31	57336.10
543.48	56940.55
543.64	57413.34
543.81	57158.22
543.98	57050.56
544.15	57095.03
544.32	57333.76
544.48	57333.76
544.65	57083.33
544.82	57301.00
544.99	57052.90
545.16	57343.12
545.32	57207.37
545.49	57792.51
545.66	57635.69
545.83	57354.83
546.00	57806.55
546.16	57448.45
546.33	57570.16
546.50	57289.29
546.67	57504.62
546.83	57050.56
547.00	57752.72
547.17	57731.65
547.34	57722.29
547.50	57818.25
547.67	58010.18
547.84	57918.90
548.00	58047.63
548.17	58113.16
548.34	57872.09
548.51	58183.38
548.67	58038.26
548.84	57832.30
549.01	58288.70
549.18	57872.09
549.34	58169.33
549.51	58176.36
549.68	58211.46
549.84	58131.89
550.01	58178.70
550.18	58129.54
550.34	58398.71
550.51	58253.59
550.68	58365.94
550.84	58183.38
551.01	58375.30
551.18	58314.45
551.34	58368.28
551.51	58354.24
551.68	58405.73
551.84	58330.83
552.01	58131.89
552.18	58471.26
552.34	58272.32
552.51	58721.70
552.68	58527.44
552.84	58382.32
553.01	58553.18
553.18	58747.45
553.34	58574.25
553.51	58567.23
553.67	58555.52
553.84	58876.18
554.01	58944.05
554.17	58883.20
554.34	58759.15
554.51	58766.17
554.67	58988.52
554.84	58958.09
555.00	58731.06
555.17	58911.28
555.33	58962.78
555.50	58857.45
555.67	58845.75
555.83	58782.55
556.00	59082.14
556.16	59234.28
556.33	59119.59
556.50	59133.63
556.66	59222.58
556.83	58988.52
556.99	59201.51
557.16	59430.88
557.32	59395.77
557.49	59543.23
557.65	59313.86
557.82	59414.50
557.98	59150.02
558.15	59260.02
558.32	59550.25
558.48	59339.60
558.65	59437.90
558.81	59400.46
558.98	59505.78
559.14	59564.29
559.31	59442.59
559.47	59451.95
559.64	59655.57
559.80	59695.36
559.97	59709.41
560.13	59355.99
560.30	59611.10
560.46	59587.70
560.63	59742.17
560.79	59662.60
560.96	59796.01
561.12	59749.20
561.29	59716.43
561.45	59746.86
561.61	59882.61
561.78	59653.23
561.94	59620.47
562.11	59744.51
562.27	59828.77
562.44	59906.01
562.60	59774.94
562.77	59831.11
562.93	59641.53
563.10	59985.59
563.26	59744.51
563.42	60238.37
563.59	59788.98
563.75	59906.01
563.92	59856.86
564.08	59957.50
564.24	60198.58
564.41	59971.55
564.57	60093.25
564.74	59929.42
564.90	60016.02
565.07	59915.37
565.23	60016.02
565.39	60004.31
565.56	60053.47
565.72	60053.47
565.88	60240.71
566.05	59957.50
566.21	60182.19
566.38	60168.15
566.54	60004.31
566.70	60161.13
566.87	60259.43
567.03	59910.69
567.19	60285.18
567.36	60053.47
567.52	60076.87
567.68	60392.84
567.85	60151.77
568.01	60317.95
568.17	60198.58
568.34	60156.45
568.50	60261.77
568.66	60200.92
568.83	60481.78
568.99	60252.41
569.15	60324.97
569.32	60243.05
569.48	60205.60
569.64	60465.40
569.81	60556.68
569.97	60299.22
570.13	60371.78
570.30	60224.32
570.46	60364.76
570.62	60418.59
570.78	60446.68
570.95	60250.07
571.11	60341.35
571.27	60388.16
571.43	60430.29
571.60	60481.78
571.76	60353.05
571.92	60495.83
572.09	60449.02
572.25	60528.59
572.41	60385.82
572.57	60591.79
572.74	60563.70
572.90	60523.91
573.06	60582.43
573.22	60369.44
573.38	60474.76
573.55	60577.75
573.71	60757.97
573.87	60399.86
574.03	60364.76
574.20	60711.16
574.36	60631.58
574.52	60568.38
574.68	60748.60
574.84	60715.84
575.01	60683.07
575.17	60533.28
575.33	60584.77
575.49	60521.57
575.65	60676.05
575.82	60746.26
575.98	60544.98
576.14	60734.56
576.30	60603.49
576.46	60793.07
576.62	60678.39
576.79	60544.98
576.95	60535.62
577.11	60818.82
577.27	60692.43
577.43	60741.58
577.59	60694.77
577.75	60743.92
577.92	60477.10
578.08	60645.62
578.24	60704.13
578.40	60828.18
578.56	60860.95
578.72	60767.33
578.88	60823.50
579.04	60870.31
579.21	60727.54
579.37	60860.95
579.53	60809.46
579.69	60498.17
579.85	60521.57
580.01	60692.43
580.17	60516.89
580.33	60839.89
580.49	60942.87
580.65	60872.65
580.82	60683.07
580.98	60671.37
581.14	60568.38
581.30	60844.57
581.46	60722.86
581.62	60823.50
581.78	60591.79
581.94	60790.73
582.10	60935.85
582.26	60640.94
582.42	60706.47
582.58	60720.52
582.74	60877.33
582.90	60743.92
583.06	60654.98
583.22	60636.26
583.38	60786.05
583.54	60994.36
583.70	60966.27
583.86	61020.11
584.02	60701.79
584.18	61034.15
584.34	60900.74
584.50	60657.32
584.66	60739.24
584.82	60699.45
584.98	61197.99
585.14	60977.98
585.30	60760.31
585.46	60996.70
585.62	60786.05
585.78	61034.15
585.94	60671.37
586.10	60956.91
586.26	60874.99
586.42	60912.44
586.58	60952.23
586.74	60973.30
586.90	60781.37
587.06	60889.04
587.22	61008.40
587.38	61008.40
587.54	61057.56
587.70	61027.13
587.86	60900.74
588.02	60992.02
588.18	61003.72
588.34	61017.77
588.49	61090.32
588.65	61006.06
588.81	61038.83
588.97	61066.92
589.13	61034.15
589.29	60999.04
589.45	61102.03
589.61	61008.40
589.77	61485.87
589.93	61052.87
590.08	61141.81
590.24	61300.97
590.40	61488.21
590.56	61422.68
590.72	61338.42
590.88	60992.02
591.04	61069.26
591.20	61506.94
591.35	61460.13
591.51	61581.84
591.67	61441.40
591.83	61422.68
591.99	61303.31
592.15	61338.42
592.31	61235.44
592.46	61312.67
592.62	61415.66
592.78	61205.01
592.94	61586.52
593.10	61247.14
593.26	61478.85
593.41	61434.38
593.57	61263.52
593.73	61413.32
593.89	61670.78
594.05	61347.78
594.20	61298.63
594.36	61373.53
594.52	61518.64
594.68	61406.30
594.84	61277.57
594.99	61467.15
595.15	61385.23
595.31	61483.53
595.47	61116.07
595.62	61310.33
595.78	61408.64
595.94	61490.55
596.10	61525.66
596.25	61413.32
596.41	61464.81
596.57	61464.81
596.73	61499.92
596.88	61691.84
597.04	61609.92
597.20	61661.41
597.36	61544.39
597.51	61563.11
597.67	61577.15
597.83	61158.20
597.99	61520.98
598.14	61577.15
598.30	61659.07
598.46	61556.09
598.61	61621.62
598.77	61478.85
598.93	61703.54
599.09	61518.64
599.24	61893.13
599.40	61469.49
599.56	61630.99
599.71	61635.67
599.87	61581.84
600.03	61780.78
600.18	61513.96
600.34	61434.38
600.50	61410.98
600.65	61623.96
600.81	61689.50
600.97	61776.10
601.12	61656.73
601.28	61614.60
601.44	61558.43
601.59	61729.29
601.75	61612.26
601.91	61790.14
602.06	61684.82
602.22	61736.31
602.37	61446.08
602.53	61595.88
602.69	61640.35
602.84	61724.61
603.00	61605.24
603.16	61666.09
603.31	61689.50
603.47	61778.44
603.62	61488.21
603.78	61565.45
603.94	61743.33
604.09	61848.66
604.25	61731.63
604.40	61485.87
604.56	61579.49
604.71	61799.50
604.87	61476.51
605.03	61607.58
605.18	61724.61
605.34	61635.67
605.49	61635.67
605.65	61652.05
605.80	61869.72
605.96	61820.57
606.12	61743.33
606.27	61703.54
606.43	61677.80
606.58	61872.06
606.74	61715.25
606.89	61623.96
607.05	61815.89
607.20	61748.01
607.36	61619.28
607.51	61542.05
607.67	61523.32
607.82	61539.71
607.98	61535.02
608.13	61530.34
608.29	61745.67
608.44	61623.96
608.60	61544.39
608.75	61483.53
608.91	61710.56
609.06	61305.65
609.22	61577.15
609.37	61483.53
609.53	61591.20
609.68	61366.51
609.84	61277.57
609.99	61492.89
610.15	61560.77
610.30	61544.39
610.46	61591.20
610.61	61577.15
610.76	61350.12
610.92	61528.00
611.07	61502.26
611.23	61343.10
611.38	61396.93
611.54	61446.08
611.69	61460.13
611.84	61659.07
612.00	61652.05
612.15	61329.06
612.31	61553.75
612.46	61432.04
612.62	61284.59
612.77	61340.76
612.92	61577.15
613.08	61420.34
613.23	61378.21
613.39	61392.25
613.54	61310.33
613.69	61174.58
613.85	61329.06
614.00	61598.22
614.15	61464.81
614.31	61385.23
614.46	61518.64
614.62	61197.99
614.77	61441.40
614.92	61200.33
615.08	61228.41
615.23	61228.41
615.38	61375.87
615.54	61256.50
615.69	61095.00
615.84	61151.18
616.00	61324.38
616.15	61193.31
616.30	61359.48
616.46	61102.03
616.61	61303.31
616.76	61268.20
616.92	61006.06
617.07	61329.06
617.22	61125.43
617.37	61090.32
617.53	61361.82
617.68	61209.69
617.83	61109.05
617.99	61141.81
618.14	61111.39
618.29	61130.11
618.45	60931.17
618.60	61158.20
618.75	61043.51
618.90	60891.38
619.06	61144.16
619.21	60954.57
619.36	61109.05
619.51	61188.63
619.67	60858.61
619.82	60851.59
619.97	61045.85
620.12	60956.91
620.28	60844.57
620.43	60912.44
620.58	60968.61
620.73	60753.29
620.89	60994.36
621.04	61062.24
621.19	60870.31
621.34	60837.54
621.49	60598.81
621.65	60809.46
621.80	61097.34
621.95	60673.71
622.10	61022.45
622.25	60954.57
622.41	60640.94
622.56	60537.96
622.71	60917.12
622.86	60477.10
623.01	60608.17
623.16	60821.16
623.32	60509.87
623.47	60692.43
623.62	60647.96
623.77	60596.47
623.92	60982.66
624.07	60676.05
624.23	60683.07
624.38	60580.09
624.53	60423.27
624.68	60528.59
624.83	60470.08
624.98	60486.46
625.13	60420.93
625.29	60577.75
625.44	60498.17
625.59	60432.63
625.74	60423.27
625.89	60329.65
626.04	60219.64
626.19	60245.39
626.34	60547.32
626.49	59990.27
626.65	60266.45
626.80	60568.38
626.95	60107.30
627.10	60240.71
627.25	60254.75
627.40	60076.87
627.55	60282.84
627.70	60111.98
627.85	60278.16
628.00	60179.85
628.15	60250.07
628.30	60170.49
628.45	60053.47
628.60	60123.68
628.76	60189.22
628.91	60310.92
629.06	60285.18
629.21	60306.24
629.36	59863.88
629.51	60004.31
629.66	60193.90
629.81	59831.11
629.96	59793.67
630.11	59796.01
630.26	60177.51
630.41	59896.65
630.56	59950.48
630.71	59931.76
630.86	60025.38
631.01	59922.40
631.16	60023.04
631.31	59842.82
631.46	59653.23
631.61	59870.90
631.76	60072.19
631.91	59870.90
632.06	60039.42
632.21	59959.84
632.36	59943.46
632.51	59632.17
632.66	59859.20
632.81	59498.76
632.96	59503.44
633.10	59742.17
633.25	59934.10
633.40	59770.26
633.55	59882.61
633.70	59812.39
633.85	59819.41
634.00	59517.48
634.15	59650.89
634.30	59674.30
634.45	59770.26
634.60	59896.65
634.75	59620.47
634.90	59327.90
635.05	59599.40
635.19	59440.24
635.34	59636.85
635.49	59463.65
635.64	59615.79
635.79	59601.74
635.94	59426.20
636.09	59461.31
636.24	59358.33
636.39	59297.47
636.53	59641.53
636.68	59358.33
636.83	59395.77
636.98	59648.55
637.13	59444.93
637.28	59416.84
637.43	59358.33
637.57	59421.52
637.72	59086.82
637.87	59215.55
638.02	59297.47
638.17	59264.70
638.32	59143.00
638.46	59100.87
638.61	59355.99
638.76	59276.41
638.91	59133.63
639.06	59145.34
639.20	58918.31
639.35	59138.32
639.50	59007.25
639.65	59049.38
639.80	59128.95
639.94	59253.00
640.09	59154.70
640.24	59145.34
640.39	58995.54
640.54	58890.22
640.68	59044.69
640.83	59145.34
640.98	58745.11
641.13	58927.67
641.27	59196.83
641.42	58824.68
641.57	58710.00
641.72	58967.46
641.86	58841.07
642.01	58726.38
642.16	58962.78
642.31	58749.79
642.45	58997.88
642.60	58679.57
642.75	59135.98
642.90	58880.86
643.04	58597.65
643.19	58782.55
643.34	58497.01
643.48	58773.19
643.63	58691.27
643.78	58595.31
643.93	58569.57
644.07	58766.17
644.22	58548.50
644.37	58106.14
644.51	58499.35
644.66	58714.68
644.81	58618.72
644.95	58616.38
645.10	58424.45
645.25	58412.75
645.39	58548.50
645.54	58574.25
645.69	58536.80
645.83	58651.48
645.98	58614.04
646.13	58494.67
646.27	58539.14
646.42	58265.30
646.57	58499.35
646.71	58520.41
646.86	58595.31
647.00	58487.65
647.15	58438.50
647.30	58501.69
647.44	58333.17
647.59	58363.60
647.74	58258.27
647.88	58246.57
648.03	58576.59
648.17	58410.41
648.32	58150.61
648.47	58152.95
648.61	58117.84
648.76	58375.30
648.90	58232.53
649.05	58286.36
649.20	58052.31
649.34	58281.68
649.49	58422.11
649.63	58218.49
649.78	58506.37
649.92	58099.12
650.07	58478.28
650.21	57865.06
650.36	58213.80
650.51	57942.30
650.65	58328.49
650.80	58028.90
650.94	57848.68
651.09	57874.43
651.23	57750.38
651.38	57715.27
651.52	57764.42
651.67	57890.81
651.81	57701.23
651.96	57684.84
652.10	58012.52
652.25	57776.12
652.39	57682.50
652.54	57687.18
652.68	57474.20
652.83	57483.56
652.97	57682.50
653.12	57668.46
653.26	57970.39
653.41	57769.10
653.55	57928.26
653.70	57593.56
653.84	57717.61
653.99	57588.88
654.13	57499.94
654.27	57291.63
654.42	57394.62
654.56	57317.38
654.71	57579.52
654.85	57729.31
655.00	57689.52
655.14	57553.77
655.29	57364.19
655.43	57586.54
655.57	57591.22
655.72	57497.60
655.86	57432.07
656.01	57537.39
656.15	57357.17
656.30	57490.58
656.44	57542.07
656.58	57296.31
656.73	57153.54
656.87	57385.25
657.01	57209.71
657.16	57336.10
657.30	57041.20
657.45	57315.04
657.59	57385.25
657.73	57104.39
657.88	57045.88
658.02	57120.77
658.16	57050.56
658.31	56844.59
658.45	57080.98
658.60	57141.84
658.74	57270.57
658.88	57134.82
659.03	56945.23
659.17	56816.50
659.31	56926.51
659.46	56935.87
659.60	56650.33
659.74	56713.52
659.89	56720.54
660.03	56837.57
660.17	56914.81
660.32	56699.48
660.46	56830.55
660.60	56680.75
660.74	56657.35
660.89	56795.44
661.03	56432.66
661.17	56233.71
661.32	56189.24
661.46	56250.09
661.60	56605.86
661.74	56151.79
661.89	56058.17
662.03	56264.14
662.17	56200.94
662.31	56193.92
662.46	56472.45
662.60	56006.68
662.74	56076.90
662.88	56149.45
663.03	55983.27
663.17	56041.79
663.31	55859.23
663.45	55863.91
663.60	55866.25
663.74	55611.13
663.88	55508.14
664.02	55870.93
664.17	55615.81
664.31	55456.65
664.45	55583.04
664.59	55426.23
664.73	55505.80
664.88	55435.59
665.02	55250.69
665.16	55550.27
665.30	55388.78
665.44	55693.05
665.59	55166.43
665.73	55065.78
665.87	55161.75
666.01	55236.64
666.15	55217.92
666.29	54948.76
666.44	55276.43
666.58	55222.60
666.72	54740.45
666.86	54873.86
667.00	54789.60
667.14	54548.53
667.28	54906.63
667.43	54794.28
667.57	54742.79
667.71	54522.78
667.85	54635.13
667.99	54604.70
668.13	54307.45
668.27	54106.16
668.41	54232.55
668.56	54096.80
668.70	54096.80
668.84	53759.76
668.98	53951.69
669.12	54171.70
669.26	54225.53
669.40	54309.79
669.54	54134.25
669.68	53872.11
669.82	54047.65
669.96	54066.38
670.10	53780.83
670.25	54000.84
670.39	53982.12
670.53	53710.61
670.67	53804.24
670.81	53895.52
670.95	53675.51
671.09	53612.31
671.23	53352.51
671.37	53183.99
671.51	53411.02
671.65	53619.33
671.79	52832.91
671.93	53158.25
672.07	53207.40
672.21	53265.91
672.35	52905.47
672.49	52788.44
672.63	52708.86
672.77	52320.34
672.91	52795.46
673.05	52109.69
673.19	52519.28
673.33	52552.05
673.47	52374.17
673.61	52296.93
673.75	52334.38
673.89	51955.21
674.03	51920.10
674.17	51826.48
674.31	51805.42
674.45	51501.15
674.59	51452.00
674.73	51557.32
674.87	51533.92
675.01	51468.38
675.15	51370.08
675.29	51304.54
675.43	51114.96
675.56	51187.52
675.70	51236.67
675.84	50724.09
675.98	50005.55
676.12	50714.73
676.26	50798.99
676.40	50670.26
676.54	50295.77
676.68	50838.78
676.82	49855.75
676.96	50206.83
677.10	49942.35
677.23	49904.90
677.37	49811.28
677.51	49666.17
677.65	49457.86
677.79	48554.41
677.93	48905.49
678.07	49045.93
678.21	49055.29
678.34	48790.81
678.48	49069.33
678.62	49013.16
678.76	48444.41
678.90	48051.20
679.04	48395.26
679.18	48294.61
679.31	47866.30
679.45	47966.94
679.59	47873.32
679.73	48076.94
679.87	47342.02
680.00	47515.22
680.14	46838.80
680.28	47311.59
680.42	46501.76
680.56	46892.63
680.70	46965.19
680.83	46836.46
680.97	46291.12
681.11	46450.27
681.25	46237.28
681.39	46232.60
681.52	46080.47
681.66	46295.80
681.80	45741.09
681.94	45865.14
682.07	45799.60
682.21	45141.91
682.35	45532.78
682.49	45317.45
682.62	45464.91
682.76	45411.07
682.90	45097.44
683.04	45338.52
683.17	44432.73
683.31	44011.43
683.45	44353.15
683.59	44315.70
683.72	43632.27
683.86	43704.82
684.00	44011.43
684.13	43831.21
684.27	43648.65
684.41	43847.60
684.55	43536.30
684.68	43330.34
684.82	43304.59
684.96	43072.88
685.09	42808.40
685.23	42258.37
685.37	42181.13
685.50	42005.59
685.64	42380.08
685.78	42047.72
685.91	42312.20
686.05	41392.37
686.19	41029.59
686.32	41514.08
686.46	40912.56
686.60	41090.44
686.73	40818.94
686.87	40598.93
687.01	40767.45
687.14	41034.27
687.28	39995.07
687.42	40226.79
687.55	39880.39
687.69	39990.39
687.82	39702.51
687.96	39065.88
688.10	39763.36
688.23	39992.73
688.37	39517.60
688.50	38824.81
688.64	38939.49
688.78	38621.18
688.91	38447.98
689.05	38813.10
689.18	38476.07
689.32	37486.02
689.46	37706.03
689.59	37354.95
689.73	37268.35
689.86	37156.00
690.00	36950.04
690.13	37172.39
690.27	37266.01
690.41	37701.35
690.54	36800.24
690.68	36809.61
690.81	36622.36
690.95	36287.67
691.08	36287.67
691.22	36018.50
691.35	35665.08
691.49	35800.83
691.62	35927.22
691.76	35573.80
691.89	35569.12
692.03	35725.94
692.16	35035.48
692.30	35007.39
692.43	35351.45
692.57	34693.76
692.70	34602.48
692.84	34419.92
692.97	34471.41
693.11	34602.48
693.24	33954.15
693.38	33907.34
693.51	33469.66
693.65	33516.47
693.78	33139.65
693.92	33317.53
694.05	33364.34
694.19	33153.69
694.32	33003.89
694.45	32877.51
694.59	32664.52
694.72	32446.85
694.86	32418.76
694.99	32278.33
695.13	32002.14
695.26	31548.08
695.39	31669.79
695.53	31606.59
695.66	31475.52
695.80	31030.82
695.93	31159.55
696.07	30644.63
696.20	30445.69
696.33	30831.88
696.47	30864.64
696.60	30876.35
696.73	30300.58
696.87	30249.08
697.00	29977.58
697.14	30331.00
697.27	29883.96
697.40	29682.67
697.54	29249.67
697.67	29322.23
697.80	29497.77
697.94	29130.31
698.07	29134.99
698.21	28975.83
698.34	28706.67
698.47	28484.32
698.61	28400.06
698.74	28409.42
698.87	28418.78
699.01	27948.34
699.14	28114.52
699.27	27889.82
699.40	28173.03
699.54	27908.55
699.67	27592.58
699.80	27550.45
699.94	27229.79
700.07	27517.68
700.20	27140.85
700.34	26361.45
700.47	26546.36
700.60	26529.97
700.73	26237.41
700.87	25666.31
701.00	25542.27
701.13	25802.07
701.26	25823.13
701.40	25919.09
701.53	25766.96
701.66	25465.03
701.79	25345.66
701.93	25422.90
702.06	24821.38
702.19	24828.40
702.32	25027.35
702.46	24833.08
702.59	24376.68
702.72	24023.26
702.85	24278.38
702.99	24519.45
703.12	24133.26
703.25	23733.03
703.38	23857.08
703.51	23796.23
703.65	23410.04
703.78	23204.07
703.91	23190.03
704.04	23199.39
704.17	22995.76
704.31	23175.98
704.44	22630.64
704.57	22464.46
704.70	22380.20
704.83	22333.39
704.96	22391.91
705.10	22171.89
705.23	22361.48
>>>>>End Processed Spectral Data<<<<<
