SpectraSuite Data File
++++++++++++++++++++++++++++++++++++
Date: Fri Oct 25 11:23:54 EDT 2013
User: price-jones
Dark Spectrum Present: No
Reference Spectrum Present: No
Number of Sampled Component Spectra: 1
Spectrometers: USB2+H05261
Integration Time (usec): 100000 (USB2+H05261)
Spectra Averaged: 1 (USB2+H05261)
Boxcar Smoothing: 0 (USB2+H05261)
Correct for Electrical Dark: No (USB2+H05261)
Strobe/Lamp Enabled: No (USB2+H05261)
Correct for Detector Non-linearity: No (USB2+H05261)
Correct for Stray Light: No (USB2+H05261)
Number of Pixels in Processed Spectrum: 2048
>>>>>Begin Processed Spectral Data<<<<<
365.73	196.60
365.92	196.60
366.12	196.60
366.32	110.01
366.52	114.69
366.72	156.82
366.91	100.64
367.11	166.18
367.31	105.32
367.51	23.41
367.70	140.43
367.90	180.22
368.10	105.32
368.30	140.43
368.49	161.50
368.69	98.30
368.89	142.77
369.09	145.11
369.28	121.71
369.48	170.86
369.68	196.60
369.87	205.97
370.07	133.41
370.27	175.54
370.47	299.59
370.66	564.07
370.86	631.94
371.06	615.56
371.25	655.35
371.45	645.99
371.65	711.52
371.84	603.86
372.04	667.05
372.24	678.76
372.44	704.50
372.63	744.29
372.83	723.23
373.03	706.84
373.22	706.84
373.42	702.16
373.62	812.17
373.81	784.08
374.01	847.27
374.21	812.17
374.40	901.11
374.60	809.83
374.79	763.01
374.99	863.66
375.19	858.98
375.38	903.45
375.58	884.72
375.78	908.13
375.97	842.59
376.17	877.70
376.37	887.06
376.56	917.49
376.76	866.00
376.95	903.45
377.15	910.47
377.35	884.72
377.54	903.45
377.74	870.68
377.93	887.06
378.13	882.38
378.33	954.94
378.52	945.58
378.72	873.02
378.91	952.60
379.11	875.36
379.31	922.17
379.50	912.81
379.70	997.07
379.89	1015.79
380.09	966.64
380.28	1018.13
380.48	1043.88
380.68	924.51
380.87	957.28
381.07	873.02
381.26	983.02
381.46	980.68
381.65	1020.47
381.85	1081.33
382.04	938.55
382.24	999.41
382.43	1097.71
382.63	1046.22
382.83	1057.92
383.02	1153.88
383.22	1118.78
383.41	1067.28
383.61	1142.18
383.80	1149.20
384.00	1153.88
384.19	1100.05
384.39	1053.24
384.58	1163.25
384.78	1153.88
384.97	1123.46
385.17	1181.97
385.36	1165.59
385.56	1245.16
385.75	1128.14
385.95	1165.59
386.14	1174.95
386.34	1177.29
386.53	1256.87
386.72	1137.50
386.92	1221.76
387.11	1249.85
387.31	1231.12
387.50	1160.91
387.70	1263.89
387.89	1245.16
388.09	1317.72
388.28	1263.89
388.48	1153.88
388.67	1245.16
388.86	1212.40
389.06	1294.32
389.25	1240.48
389.45	1334.11
389.64	1371.55
389.84	1327.08
390.03	1397.30
390.22	1439.43
390.42	1406.66
390.61	1263.89
390.81	1465.18
391.00	1327.08
391.19	1409.00
391.39	1500.28
391.58	1476.88
391.78	1385.60
391.97	1488.58
392.16	1495.60
392.36	1551.78
392.55	1385.60
392.75	1572.84
392.94	1591.56
393.13	1582.20
393.33	1469.86
393.52	1535.39
393.71	1586.88
393.91	1671.14
394.10	1586.88
394.29	1682.85
394.49	1664.12
394.68	1610.29
394.88	1668.80
395.07	1631.35
395.26	1734.34
395.46	1647.74
395.65	1715.61
395.84	1678.16
396.04	1755.40
396.23	1827.96
396.42	1813.92
396.62	1722.63
396.81	1732.00
397.00	1769.44
397.19	1701.57
397.39	1778.81
397.58	1811.57
397.77	1785.83
397.97	1839.66
398.16	1867.75
398.35	1853.70
398.55	1921.58
398.74	1888.81
398.93	1991.80
399.12	1942.64
399.32	2043.29
399.51	1926.26
399.70	1994.14
399.90	1874.77
400.09	1980.09
400.28	2031.58
400.47	2080.74
400.67	2085.42
400.86	2094.78
401.05	2162.66
401.24	2036.27
401.44	2183.72
401.63	2172.02
401.82	2085.42
402.01	2101.80
402.21	2127.55
402.40	2157.97
402.59	2167.34
402.78	2115.84
402.97	2207.13
403.17	2333.51
403.36	2265.64
403.55	2153.29
403.74	2326.49
403.93	2244.57
404.13	2349.90
404.32	2328.83
404.51	2188.40
404.70	2457.56
404.89	2399.05
405.09	2537.14
405.28	2422.45
405.47	2502.03
405.66	2457.56
405.85	2511.39
406.05	2485.65
406.24	2605.02
406.43	2527.78
406.62	2642.46
406.81	2612.04
407.00	2579.27
407.20	2576.93
407.39	2733.75
407.58	2644.81
407.77	2635.44
407.96	2754.81
408.15	2808.64
408.34	2766.51
408.54	2862.48
408.73	2904.60
408.92	2822.69
409.11	2829.71
409.30	2792.26
409.49	2974.82
409.68	2820.35
409.87	2754.81
410.07	3016.95
410.26	2913.97
410.45	2988.86
410.64	3028.65
410.83	3162.06
411.02	3110.57
411.21	3126.96
411.40	3143.34
411.59	3241.64
411.78	3248.66
411.98	3162.06
412.17	3169.09
412.36	3330.58
412.55	3372.71
412.74	3431.23
412.93	3314.20
413.12	3475.70
413.31	3517.83
413.50	3489.74
413.69	3522.51
413.88	3562.30
414.07	3550.59
414.26	3782.31
414.45	3705.07
414.64	3735.50
414.83	3777.62
415.02	3606.77
415.22	3885.29
415.41	3875.93
415.60	3939.12
415.79	3950.82
415.98	3941.46
416.17	3918.06
416.36	3861.88
416.55	3901.67
416.74	4039.76
416.93	4042.11
417.12	4084.23
417.31	4149.77
417.50	4159.13
417.69	4325.31
417.88	4241.05
418.07	4337.01
418.26	4280.84
418.45	4362.76
418.64	4400.21
418.83	4482.13
419.02	4571.07
419.21	4458.72
419.39	4589.79
419.58	4449.36
419.77	4386.16
419.96	4762.99
420.15	4690.43
420.34	4507.87
420.53	4697.46
420.72	4847.25
420.91	4685.75
421.10	4798.10
421.29	4732.56
421.48	4716.18
421.67	4784.06
421.86	4851.93
422.05	4788.74
422.24	4889.38
422.43	4779.37
422.61	4833.21
422.80	4936.19
422.99	5069.60
423.18	4905.76
423.37	5015.77
423.56	4847.25
423.75	4793.42
423.94	4690.43
424.13	4709.16
424.32	4732.56
424.50	4929.17
424.69	5177.26
424.88	5102.37
425.07	4919.81
425.26	4861.29
425.45	4858.95
425.64	4943.21
425.83	4791.08
426.01	5160.88
426.20	5083.64
426.39	5083.64
426.58	5083.64
426.77	4915.12
426.96	5177.26
427.15	5151.52
427.33	5212.37
427.52	5090.67
427.71	5289.61
427.90	5420.68
428.09	5423.02
428.28	5385.57
428.46	5289.61
428.65	5226.42
428.84	5530.69
429.03	5530.69
429.22	5320.04
429.40	5420.68
429.59	5544.73
429.78	5254.50
429.97	5254.50
430.16	5521.32
430.34	5692.18
430.53	5657.07
430.72	5746.02
430.91	5675.80
431.10	5544.73
431.28	5905.17
431.47	5996.45
431.66	5975.39
431.85	5895.81
432.03	5888.79
432.22	5937.94
432.41	5951.98
432.60	5940.28
432.79	5870.06
432.97	6026.88
433.16	6076.03
433.35	5909.85
433.54	6111.14
433.72	6155.61
433.91	6239.87
434.10	6101.78
434.28	6094.76
434.47	6291.36
434.66	6195.40
434.85	6345.19
435.03	6277.32
435.22	6263.27
435.41	6537.12
435.59	6462.22
435.78	6392.00
435.97	6607.33
436.16	6394.34
436.34	6373.28
436.53	6502.01
436.72	6745.42
436.90	6438.81
437.09	6576.91
437.28	6359.24
437.46	6415.41
437.65	6654.14
437.84	6815.64
438.02	6686.91
438.21	6867.13
438.40	6888.20
438.58	7143.32
438.77	7103.53
438.96	7061.40
439.14	7140.97
439.33	7101.19
439.52	7211.19
439.70	7370.35
439.89	7365.67
440.08	7452.27
440.26	7447.58
440.45	7346.94
440.63	7384.39
440.82	7548.23
441.01	7510.78
441.19	7686.32
441.38	7765.90
441.57	7882.92
441.75	8021.02
441.94	7985.91
442.12	7847.82
442.31	7992.93
442.50	8063.15
442.68	7906.33
442.87	7920.37
443.05	8095.91
443.24	8306.56
443.43	8112.30
443.61	8250.39
443.80	8341.67
443.98	8056.12
444.17	7691.00
444.35	8334.65
444.54	8189.53
444.73	8463.38
444.91	8290.18
445.10	8421.25
445.28	8416.57
445.47	8376.78
445.65	8365.07
445.84	8435.29
446.02	8369.76
446.21	8496.14
446.39	8468.06
446.58	8432.95
446.77	8173.15
446.95	8182.51
447.14	8224.64
447.32	8601.47
447.51	8336.99
447.69	8489.12
447.88	8465.72
448.06	8500.83
448.25	8236.35
448.43	8587.43
448.62	8807.44
448.80	8655.30
448.99	8683.39
449.17	8777.01
449.36	8538.27
449.54	8800.41
449.73	8950.21
449.91	9144.47
450.10	9020.42
450.28	9219.37
450.46	9039.15
450.65	9032.13
450.83	9252.14
451.02	8931.48
451.20	9071.92
451.39	9163.20
451.57	9160.86
451.76	8987.66
451.94	9062.55
452.13	9153.84
452.31	9303.63
452.49	9188.94
452.68	9432.36
452.86	9348.10
453.05	9303.63
453.23	9331.72
453.42	9357.46
453.60	9369.16
453.78	9432.36
453.97	9596.20
454.15	9565.77
454.34	9434.70
454.52	9521.30
454.70	9689.82
454.89	9813.87
455.07	9865.36
455.26	9645.35
455.44	9949.62
455.62	9870.04
455.81	9947.28
455.99	9991.75
456.17	10085.37
456.36	9949.62
456.54	9987.07
456.73	10497.30
456.91	10602.63
457.09	10623.69
457.28	10670.50
457.46	10352.19
457.64	10504.32
457.83	10583.90
458.01	10492.62
458.19	10731.36
458.38	10583.90
458.56	10745.40
458.74	10637.73
458.93	10691.57
459.11	10562.84
459.29	10839.02
459.48	10846.04
459.66	10899.87
459.84	10888.17
460.03	10927.96
460.21	11033.29
460.39	10981.79
460.57	10841.36
460.76	11091.80
460.94	11162.01
461.12	11199.46
461.31	11162.01
461.49	11091.80
461.67	11143.29
461.85	11363.30
462.04	11391.39
462.22	11531.82
462.40	11742.47
462.59	11470.97
462.77	11527.14
462.95	11730.76
463.13	11695.66
463.32	11695.66
463.50	11712.04
463.68	11669.91
463.86	11730.76
464.05	11705.02
464.23	11775.24
464.41	11899.28
464.59	11751.83
464.78	12170.79
464.96	12229.30
465.14	11861.84
465.32	12219.94
465.50	12250.36
465.69	12208.23
465.87	12091.21
466.05	12018.65
466.23	12205.89
466.41	12187.17
466.60	12442.29
466.78	12074.82
466.96	12255.04
467.14	12299.52
467.32	12358.03
467.51	12559.31
467.69	12201.21
467.87	12393.14
468.05	12521.87
468.23	12624.85
468.41	12365.05
468.60	12758.26
468.78	13107.00
468.96	12498.46
469.14	12858.90
469.32	13004.02
469.50	12826.14
469.69	13224.03
469.87	13099.98
470.05	13036.78
470.23	13062.53
470.41	13331.69
470.59	13486.17
470.77	12889.33
470.95	13366.80
471.14	13582.13
471.32	13238.07
471.50	13600.85
471.68	13617.24
471.86	13603.19
472.04	13792.78
472.22	14078.32
472.40	13514.25
472.58	13905.12
472.77	14005.77
472.95	13893.42
473.13	14941.98
473.31	14132.15
473.49	14225.78
473.67	14068.96
473.85	14347.48
474.03	14272.59
474.21	14733.67
474.39	14759.42
474.57	14771.12
474.75	14991.13
474.93	14986.45
475.12	14977.09
475.30	15213.48
475.48	15005.17
475.66	15297.74
475.84	15211.14
476.02	15459.24
476.20	15407.75
476.38	15744.78
476.56	16046.71
476.74	16269.06
476.92	15840.75
477.10	15655.84
477.28	16374.39
477.46	16224.59
477.64	16451.63
477.82	16734.83
478.00	17039.10
478.18	16746.53
478.36	17085.91
478.54	17106.98
478.72	17043.78
478.90	17338.69
479.08	17298.90
479.26	17731.90
479.44	17731.90
479.62	17858.29
479.80	18127.45
479.98	18382.57
480.16	18417.68
480.34	18221.07
480.52	18611.94
480.70	18527.68
480.88	18508.96
481.06	18881.10
481.24	18775.78
481.41	19323.46
481.59	19213.46
481.77	19836.04
481.95	19564.54
482.13	19719.01
482.31	19688.59
482.49	20381.38
482.67	20196.48
482.85	20559.27
483.03	20336.91
483.21	21076.52
483.39	21160.78
483.57	21041.42
483.74	21289.51
483.92	21656.98
484.10	21081.21
484.28	21832.52
484.46	21865.28
484.64	22370.84
484.82	22216.36
485.00	22544.04
485.18	22862.35
485.35	23084.70
485.53	23058.96
485.71	23157.26
485.89	23749.42
486.07	23424.08
486.25	23384.29
486.43	23733.03
486.61	23672.18
486.78	24252.63
486.96	24233.91
487.14	24327.53
487.32	24650.52
487.50	25015.65
487.68	25055.43
487.85	25378.43
488.03	25818.45
488.21	25837.17
488.39	26256.13
488.57	26256.13
488.75	26377.84
488.92	26464.44
489.10	26749.98
489.28	26721.90
489.46	27435.76
489.64	27154.90
489.81	27606.62
489.99	27941.32
490.17	27861.74
490.35	28268.99
490.53	28189.41
490.70	28510.07
490.88	28327.50
491.06	28814.34
491.24	28896.25
491.41	28987.53
491.59	29411.17
491.77	29399.47
491.95	29675.65
492.13	29443.94
492.30	29979.92
492.48	29919.07
492.66	30422.28
492.84	30403.56
493.01	30569.74
493.19	30553.35
493.37	31288.28
493.54	31496.59
493.72	31648.72
493.90	31428.71
494.08	31995.12
494.25	32133.21
494.43	32126.19
494.61	32458.55
494.79	32645.79
494.96	32835.38
495.14	32692.60
495.32	33141.99
495.49	33251.99
495.67	33434.55
495.85	33670.95
496.02	33890.96
496.20	33780.95
496.38	34000.96
496.55	34190.55
496.73	34721.85
496.91	34829.51
497.09	34850.58
497.26	34796.74
497.44	34920.79
497.62	35051.86
497.79	35967.01
497.97	35512.95
498.14	36254.90
498.32	36304.05
498.50	35901.48
498.67	36910.25
498.85	36369.58
499.03	36954.72
499.20	36753.43
499.38	36706.62
499.56	37085.79
499.73	37666.24
499.91	37577.30
500.08	37989.24
500.26	37581.98
500.44	37858.17
500.61	38218.61
500.79	37986.89
500.97	38139.03
501.14	39044.82
501.32	38485.43
501.49	38621.18
501.67	38707.78
501.84	39129.08
502.02	39218.02
502.20	39051.84
502.37	39578.46
502.55	39400.58
502.72	39423.98
502.90	39735.27
503.07	39367.81
503.25	39754.00
503.43	39309.30
503.60	39999.76
503.78	40540.42
503.95	40720.64
504.13	40964.06
504.30	40830.65
504.48	40615.32
504.65	40821.28
504.83	40935.97
505.01	41270.67
505.18	41537.49
505.36	41603.02
505.53	41500.04
505.71	41811.33
505.88	41647.49
506.06	41464.93
506.23	42202.20
506.41	41984.53
506.58	42253.69
506.76	42295.82
506.93	42440.93
507.11	42277.10
507.28	42946.49
507.46	42866.91
507.63	43012.02
507.81	43152.46
507.98	43470.77
508.16	43405.23
508.33	43297.57
508.50	44275.91
508.68	43510.56
508.85	43966.96
509.03	44112.08
509.20	43775.04
509.38	44175.27
509.55	44488.90
509.73	44172.93
509.90	44921.90
510.08	44975.73
510.25	44952.33
510.42	45059.99
510.60	45153.62
510.77	45167.66
510.95	45729.39
511.12	45287.03
511.30	45429.80
511.47	45413.41
511.64	45434.48
511.82	45989.19
511.99	45698.96
512.17	45937.69
512.34	45996.21
512.51	46447.93
512.69	46555.60
512.86	46569.64
513.04	47044.77
513.21	46789.65
513.38	46761.56
513.56	46934.76
513.73	46548.57
513.90	46962.85
514.08	46806.03
514.25	47215.63
514.43	47407.55
514.60	47667.35
514.77	47662.67
514.95	47941.19
515.12	47676.71
515.29	47803.10
515.47	47973.96
515.64	48266.53
515.81	47707.14
515.99	48371.85
516.16	48271.21
516.33	48374.19
516.51	48669.10
516.68	48367.17
516.85	48313.34
517.03	49081.03
517.20	48851.66
517.37	49045.93
517.54	49169.97
517.72	49050.61
517.89	49010.82
518.06	49415.73
518.24	49134.87
518.41	49628.72
518.58	49509.35
518.75	49389.98
518.93	49750.43
519.10	49780.85
519.27	49675.53
519.45	49869.79
519.62	49689.57
519.79	50211.51
519.96	49895.54
520.14	50277.05
520.31	50213.85
520.48	50738.13
520.65	50672.60
520.83	51028.36
521.00	50714.73
521.17	50639.83
521.34	50787.28
521.52	50780.26
521.69	50899.63
521.86	51030.70
522.03	51351.35
522.20	51585.41
522.38	51674.35
522.55	51381.78
522.72	51386.46
522.89	51295.18
523.07	51721.16
523.24	51494.13
523.41	51873.29
523.58	51571.36
523.75	51772.65
523.92	51697.75
524.10	51997.34
524.27	51882.66
524.44	51767.97
524.61	52130.75
524.78	52617.58
524.96	52004.36
525.13	52212.67
525.30	52502.90
525.47	52507.58
525.64	52617.58
525.81	53027.18
525.98	52690.14
526.16	52732.27
526.33	52669.08
526.50	52945.26
526.67	52889.09
526.84	53116.12
527.01	53198.04
527.18	53113.78
527.36	52924.19
527.53	52968.66
527.70	53532.73
527.87	53689.55
528.04	52863.34
528.21	53408.68
528.38	53553.80
528.55	53607.63
528.72	53542.10
528.89	53532.73
529.07	53502.31
529.24	53698.91
529.41	53677.85
529.58	53766.79
529.75	53834.66
529.92	54223.19
530.09	53890.83
530.26	53895.52
530.43	54019.56
530.60	54138.93
530.77	53958.71
530.94	54452.56
531.11	54298.09
531.28	54396.39
531.46	53977.43
531.63	54253.62
531.80	54372.99
531.97	54649.17
532.14	54693.64
532.31	54457.24
532.48	54710.02
532.65	54817.69
532.82	54740.45
532.99	54635.13
533.16	54752.15
533.33	54923.01
533.50	55100.89
533.67	54714.70
533.84	54494.69
534.01	54892.58
534.18	55025.99
534.35	55276.43
534.52	55025.99
534.69	55580.70
534.86	55384.10
535.03	55374.73
535.20	55269.41
535.37	55473.04
535.54	55501.12
535.71	55227.28
535.88	55461.33
536.05	55309.20
536.22	55856.88
536.38	55409.84
536.55	55655.60
536.72	55798.37
536.89	55337.29
537.06	55861.57
537.23	55784.33
537.40	55590.06
537.57	55772.63
537.74	55805.39
537.91	56200.94
538.08	56009.02
538.25	55721.13
538.42	55959.87
538.59	56184.56
538.75	55906.04
538.92	56179.88
539.09	56254.78
539.26	56346.06
539.43	56243.07
539.60	56444.36
539.77	56163.50
539.94	56425.64
540.11	56472.45
540.28	56523.94
540.44	56488.83
540.61	56746.29
540.78	56521.60
540.95	56430.32
541.12	56516.92
541.29	56437.34
541.46	56601.18
541.62	56762.67
541.79	56865.66
541.96	56605.86
542.13	56633.94
542.30	56816.50
542.47	57064.60
542.63	56750.97
542.80	56903.10
542.97	57233.12
543.14	57361.85
543.31	57361.85
543.48	57439.09
543.64	57579.52
543.81	57649.74
543.98	57382.91
544.15	57574.84
544.32	57612.29
544.48	57446.11
544.65	57413.34
544.82	57471.85
544.99	57427.38
545.16	57808.89
545.32	57537.39
545.49	57710.59
545.66	57771.44
545.83	57633.35
546.00	57902.51
546.16	57846.34
546.33	57666.12
546.50	57513.98
546.67	57741.02
546.83	57680.16
547.00	57911.88
547.17	57797.19
547.34	57907.19
547.50	58124.86
547.67	58211.46
547.84	58103.80
548.00	58258.27
548.17	58157.63
548.34	58307.43
548.51	58239.55
548.67	58288.70
548.84	58159.97
549.01	58309.77
549.18	58185.72
549.34	58267.64
549.51	58473.60
549.68	58501.69
549.84	58513.39
550.01	58363.60
550.18	58277.00
550.34	58595.31
550.51	58688.93
550.68	58436.16
550.84	58581.27
551.01	58497.01
551.18	58632.76
551.34	58745.11
551.51	58635.10
551.68	58497.01
551.84	58562.54
552.01	58487.65
552.18	58688.93
552.34	58482.97
552.51	58911.28
552.68	58763.83
552.84	58770.85
553.01	58880.86
553.18	58848.09
553.34	59007.25
553.51	58679.57
553.67	58677.23
553.84	59222.58
554.01	59112.57
554.17	59072.78
554.34	58801.28
554.51	58719.36
554.67	59159.38
554.84	59201.51
555.00	59131.29
555.17	59154.70
555.33	59093.85
555.50	58979.16
555.67	58988.52
555.83	58986.18
556.00	59229.60
556.16	59433.22
556.33	59231.94
556.50	59269.39
556.66	59533.87
556.83	59398.12
556.99	59341.94
557.16	59501.10
557.32	59676.64
557.49	59608.76
557.65	59501.10
557.82	59311.52
557.98	59594.72
558.15	59428.54
558.32	59540.89
558.48	59456.63
558.65	59550.25
558.81	59627.49
558.98	59503.44
559.14	59611.10
559.31	59751.54
559.47	60076.87
559.64	59779.62
559.80	59693.02
559.97	59842.82
560.13	59625.15
560.30	59735.15
560.46	59826.43
560.63	59770.26
560.79	59784.30
560.96	59955.16
561.12	59753.88
561.29	60025.38
561.45	59962.18
561.61	59969.21
561.78	60023.04
561.94	59821.75
562.11	60140.07
562.27	60088.57
562.44	59971.55
562.60	59980.91
562.77	59877.93
562.93	59730.47
563.10	60102.62
563.26	60034.74
563.42	60315.61
563.59	59973.89
563.75	60140.07
563.92	60121.34
564.08	60100.28
564.24	60226.66
564.41	60282.84
564.57	60189.22
564.74	60247.73
564.90	60236.03
565.07	59971.55
565.23	60123.68
565.39	60264.11
565.56	60231.35
565.72	60147.09
565.88	60406.89
566.05	59976.23
566.21	60294.54
566.38	60292.20
566.54	60317.95
566.70	60355.39
566.87	60465.40
567.03	60135.38
567.19	60439.65
567.36	60470.08
567.52	60296.88
567.68	60491.15
567.85	60530.93
568.01	60406.89
568.17	60367.10
568.34	60509.87
568.50	60353.05
568.66	60214.96
568.83	60584.77
568.99	60526.25
569.15	60610.51
569.32	60530.93
569.48	60411.57
569.64	60605.83
569.81	60474.76
569.97	60453.70
570.13	60615.19
570.30	60439.65
570.46	60552.00
570.62	60610.51
570.78	60666.69
570.95	60542.64
571.11	60587.11
571.27	60704.13
571.43	60645.62
571.60	60788.39
571.76	60640.94
571.92	60746.26
572.09	60807.12
572.25	60647.96
572.41	60561.36
572.57	60832.86
572.74	60912.44
572.90	60748.60
573.06	60683.07
573.22	60823.50
573.38	60781.37
573.55	60474.76
573.71	60921.80
573.87	60786.05
574.03	60657.32
574.20	60666.69
574.36	60678.39
574.52	60694.77
574.68	60757.97
574.84	60912.44
575.01	60849.25
575.17	60676.05
575.33	60992.02
575.49	60561.36
575.65	60640.94
575.82	60807.12
575.98	60924.14
576.14	60975.64
576.30	60764.99
576.46	60877.33
576.62	60856.27
576.79	60764.99
576.95	60715.84
577.11	60842.23
577.27	60786.05
577.43	60860.95
577.59	60800.10
577.75	60839.89
577.92	60692.43
578.08	60830.52
578.24	60793.07
578.40	61099.68
578.56	60963.93
578.72	60828.18
578.88	61141.81
579.04	61024.79
579.21	60865.63
579.37	61144.16
579.53	60945.21
579.69	60867.97
579.85	60914.78
580.01	60954.57
580.17	60877.33
580.33	61169.90
580.49	61036.49
580.65	61167.56
580.82	60755.63
580.98	60687.75
581.14	60935.85
581.30	60891.38
581.46	61085.64
581.62	61003.72
581.78	61064.58
581.94	60989.68
582.10	60947.55
582.26	60839.89
582.42	60947.55
582.58	60917.12
582.74	61001.38
582.90	60830.52
583.06	61001.38
583.22	60713.50
583.38	60968.61
583.54	61029.47
583.70	61064.58
583.86	61123.09
584.02	61080.96
584.18	61212.03
584.34	60938.19
584.50	60987.34
584.66	60928.83
584.82	60889.04
584.98	61155.86
585.14	61102.03
585.30	60912.44
585.46	61155.86
585.62	60989.68
585.78	61230.75
585.94	61190.97
586.10	61024.79
586.26	61188.63
586.42	60914.78
586.58	61195.65
586.74	61165.22
586.90	61020.11
587.06	61066.92
587.22	61127.77
587.38	61223.73
587.54	61188.63
587.70	61242.46
587.86	61172.24
588.02	61090.32
588.18	61261.18
588.34	61043.51
588.49	61148.84
588.65	61010.74
588.81	61169.90
588.97	61319.70
589.13	61097.34
589.29	61249.48
589.45	61272.88
589.61	61375.87
589.77	61588.86
589.93	61396.93
590.08	61265.86
590.24	61382.89
590.40	61535.02
590.56	61443.74
590.72	61336.08
590.88	61291.61
591.04	61399.27
591.20	61537.36
591.35	61418.00
591.51	61626.31
591.67	61467.15
591.83	61691.84
591.99	61504.60
592.15	61443.74
592.31	61518.64
592.46	61450.77
592.62	61544.39
592.78	61410.98
592.94	61553.75
593.10	61413.32
593.26	61448.42
593.41	61464.81
593.57	61581.84
593.73	61460.13
593.89	61829.93
594.05	61645.03
594.20	61485.87
594.36	61542.05
594.52	61492.89
594.68	61478.85
594.84	61396.93
594.99	61666.09
595.15	61429.70
595.31	61549.07
595.47	61539.71
595.62	61443.74
595.78	61619.28
595.94	61628.65
596.10	61694.18
596.25	61731.63
596.41	61607.58
596.57	61460.13
596.73	61560.77
596.88	61535.02
597.04	61684.82
597.20	61680.14
597.36	61612.26
597.51	61886.10
597.67	61530.34
597.83	61785.46
597.99	61865.04
598.14	61595.88
598.30	61708.22
598.46	61630.99
598.61	61787.80
598.77	61813.55
598.93	61841.63
599.09	61799.50
599.24	61937.60
599.40	61881.42
599.56	61675.46
599.71	61900.15
599.87	62024.20
600.03	61881.42
600.18	61691.84
600.34	61708.22
600.50	61780.78
600.65	61773.76
600.81	61832.27
600.97	61778.44
601.12	61888.45
601.28	61661.41
601.44	61623.96
601.59	61949.30
601.75	61745.67
601.91	62138.88
602.06	62035.90
602.22	61953.98
602.37	61851.00
602.53	61975.05
602.69	61787.80
602.84	61626.31
603.00	61853.34
603.16	61886.10
603.31	61834.61
603.47	61890.79
603.62	61790.14
603.78	61712.91
603.94	61949.30
604.09	61836.95
604.25	61759.72
604.40	61677.80
604.56	61813.55
604.71	62075.69
604.87	61708.22
605.03	61630.99
605.18	61949.30
605.34	61883.76
605.49	61858.02
605.65	61975.05
605.80	61874.40
605.96	62141.22
606.12	61984.41
606.27	61893.13
606.43	61581.84
606.58	61946.96
606.74	61790.14
606.89	61715.25
607.05	61762.06
607.20	62120.16
607.36	61663.75
607.51	61738.65
607.67	61750.35
607.82	61614.60
607.98	61862.70
608.13	61755.03
608.29	61733.97
608.44	61743.33
608.60	61619.28
608.75	61893.13
608.91	61556.09
609.06	61483.53
609.22	61834.61
609.37	61352.46
609.53	61762.06
609.68	61797.16
609.84	61518.64
609.99	61715.25
610.15	61764.40
610.30	61888.45
610.46	61736.31
610.61	61588.86
610.76	61677.80
610.92	61691.84
611.07	61705.88
611.23	61483.53
611.38	61684.82
611.54	61558.43
611.69	61528.00
611.84	61623.96
612.00	61804.19
612.15	61474.17
612.31	61670.78
612.46	61448.42
612.62	61640.35
612.77	61413.32
612.92	61874.40
613.08	61406.30
613.23	61553.75
613.39	61572.47
613.54	61387.57
613.69	61563.11
613.85	61350.12
614.00	61502.26
614.15	61563.11
614.31	61289.27
614.46	61413.32
614.62	61436.72
614.77	61364.17
614.92	61593.54
615.08	61347.78
615.23	61403.95
615.38	61413.32
615.54	61481.19
615.69	61366.51
615.84	61553.75
616.00	61694.18
616.15	61347.78
616.30	61467.15
616.46	61364.17
616.61	61425.02
616.76	61378.21
616.92	61212.03
617.07	61467.15
617.22	61155.86
617.37	61226.07
617.53	61399.27
617.68	61572.47
617.83	61366.51
617.99	61291.61
618.14	61506.94
618.29	61338.42
618.45	61162.88
618.60	61146.50
618.75	61326.72
618.90	61202.67
619.06	61396.93
619.21	61085.64
619.36	61315.01
619.51	61247.14
619.67	60933.51
619.82	61200.33
619.97	61270.54
620.12	60928.83
620.28	61052.87
620.43	61095.00
620.58	61106.71
620.73	61057.56
620.89	61024.79
621.04	61085.64
621.19	60921.80
621.34	60910.10
621.49	60879.67
621.65	61193.31
621.80	61071.60
621.95	60896.06
622.10	60999.04
622.25	61006.06
622.41	60891.38
622.56	60683.07
622.71	60973.30
622.86	60692.43
623.01	60849.25
623.16	60739.24
623.32	60793.07
623.47	60891.38
623.62	60912.44
623.77	60786.05
623.92	60928.83
624.07	60891.38
624.23	61036.49
624.38	60764.99
624.53	60750.94
624.68	60664.35
624.83	60844.57
624.98	60685.41
625.13	60598.81
625.29	60783.71
625.44	60722.86
625.59	60631.58
625.74	60629.24
625.89	60650.30
626.04	60378.80
626.19	60451.36
626.34	60488.80
626.49	60423.27
626.65	60432.63
626.80	60502.85
626.95	60404.55
627.10	60416.25
627.25	60374.12
627.40	60315.61
627.55	60451.36
627.70	60624.56
627.85	60533.28
628.00	60303.90
628.15	60580.09
628.30	60402.21
628.45	60324.97
628.60	60285.18
628.76	60495.83
628.91	60411.57
629.06	60376.46
629.21	60252.41
629.36	60182.19
629.51	60184.54
629.66	60088.57
629.81	60271.14
629.96	59952.82
630.11	60175.17
630.26	60163.47
630.41	60296.88
630.56	60170.49
630.71	60343.69
630.86	60128.36
631.01	60116.66
631.16	60107.30
631.31	59945.80
631.46	59910.69
631.61	60025.38
631.76	60060.49
631.91	60048.78
632.06	60140.07
632.21	60109.64
632.36	59980.91
632.51	59568.97
632.66	59863.88
632.81	59835.80
632.96	59931.76
633.10	60004.31
633.25	60027.72
633.40	59969.21
633.55	59849.84
633.70	59889.63
633.85	59627.49
634.00	59807.71
634.15	59683.66
634.30	59545.57
634.45	59840.48
634.60	60102.62
634.75	59943.46
634.90	59531.53
635.05	59620.47
635.19	59964.52
635.34	59739.83
635.49	59796.01
635.64	59372.37
635.79	59629.83
635.94	59730.47
636.09	59723.45
636.24	59449.61
636.39	59615.79
636.53	59648.55
636.68	59465.99
636.83	59550.25
636.98	59810.05
637.13	59330.24
637.28	59592.38
637.43	59540.89
637.57	59671.96
637.72	59489.40
637.87	59337.26
638.02	59552.59
638.17	59587.70
638.32	59615.79
638.46	59370.03
638.61	59423.86
638.76	59302.15
638.91	59498.76
639.06	59374.71
639.20	59253.00
639.35	59171.08
639.50	59126.61
639.65	59442.59
639.80	59557.27
639.94	59056.40
640.09	59377.05
640.24	59393.43
640.39	59276.41
640.54	59124.27
640.68	59222.58
640.83	59210.87
640.98	59245.98
641.13	59068.10
641.27	59377.05
641.42	58951.07
641.57	59068.10
641.72	58997.88
641.86	58752.13
642.01	58908.94
642.16	58915.96
642.31	58817.66
642.45	59100.87
642.60	58873.84
642.75	58979.16
642.90	58878.52
643.04	59096.19
643.19	58878.52
643.34	58794.26
643.48	58997.88
643.63	58993.20
643.78	58927.67
643.93	58843.41
644.07	59096.19
644.22	58756.81
644.37	58536.80
644.51	58595.31
644.66	58885.54
644.81	58717.02
644.95	58614.04
645.10	58761.49
645.25	58485.31
645.39	58459.56
645.54	58707.66
645.69	58602.33
645.83	58618.72
645.98	58616.38
646.13	58658.51
646.27	58754.47
646.42	58597.65
646.57	58543.82
646.71	58473.60
646.86	58475.94
647.00	58614.04
647.15	58546.16
647.30	58440.84
647.44	58487.65
647.59	58761.49
647.74	58548.50
647.88	58688.93
648.03	58665.53
648.17	58478.28
648.32	58454.88
648.47	58401.05
648.61	58419.77
648.76	58422.11
648.90	58323.81
649.05	58433.81
649.20	58571.91
649.34	58356.58
649.49	58218.49
649.63	58382.32
649.78	58497.01
649.92	58461.90
650.07	58260.62
650.21	58298.06
650.36	58251.25
650.51	58513.39
650.65	58293.38
650.80	58323.81
650.94	57946.98
651.09	58113.16
651.23	57790.17
651.38	58103.80
651.52	57691.86
651.67	57949.32
651.81	58045.29
651.96	58138.91
652.10	58181.04
652.25	58127.20
652.39	58000.82
652.54	57759.74
652.68	57577.18
652.83	57677.82
652.97	57827.62
653.12	57975.07
653.26	58005.50
653.41	57942.30
653.55	57652.08
653.70	57848.68
653.84	57944.64
653.99	57834.64
654.13	57771.44
654.27	57757.40
654.42	57647.39
654.56	57703.57
654.71	57790.17
654.85	57483.56
655.00	57748.04
655.14	57982.09
655.29	57413.34
655.43	57691.86
655.57	57717.61
655.72	57638.03
655.86	57659.10
656.01	57670.80
656.15	57462.49
656.30	57680.16
656.44	57879.11
656.58	57867.40
656.73	57565.48
656.87	57530.37
657.01	57663.78
657.16	57825.28
657.30	57584.20
657.45	57401.64
657.59	57434.41
657.73	57188.65
657.88	57055.24
658.02	57179.29
658.16	57434.41
658.31	57132.48
658.45	57322.06
658.60	57214.40
658.74	57464.83
658.88	57158.22
659.03	57109.07
659.17	57137.16
659.31	57069.28
659.46	56753.31
659.60	57050.56
659.74	57041.20
659.89	56992.04
660.03	56928.85
660.17	57031.83
660.32	56619.90
660.46	56985.02
660.60	56725.22
660.74	56949.92
660.89	56821.19
661.03	56512.23
661.17	56708.84
661.32	56233.71
661.46	56601.18
661.60	56542.66
661.74	56582.45
661.89	56657.35
662.03	56282.86
662.17	56369.46
662.31	56495.85
662.46	56699.48
662.60	56329.67
662.74	56212.65
662.88	55999.66
663.03	55826.46
663.17	56081.58
663.31	55861.57
663.45	56179.88
663.60	55870.93
663.74	55578.36
663.88	56104.98
664.02	55739.86
664.17	55962.21
664.31	55702.41
664.45	56055.83
664.59	55772.63
664.73	55882.63
664.88	55824.12
665.02	55316.22
665.16	55458.99
665.30	55501.12
665.44	55515.17
665.59	55311.54
665.73	55346.65
665.87	55276.43
666.01	55475.38
666.15	55267.07
666.29	55363.03
666.44	55203.88
666.58	55093.87
666.72	54897.27
666.86	55136.00
667.00	55011.95
667.14	54798.96
667.28	54901.95
667.43	54791.94
667.57	55121.96
667.71	54644.49
667.85	54628.10
667.99	54698.32
668.13	54791.94
668.27	54731.09
668.41	54630.44
668.56	54433.84
668.70	54286.39
668.84	54087.44
668.98	54281.70
669.12	54569.59
669.26	54389.37
669.40	54398.73
669.54	54316.81
669.68	54110.85
669.82	54103.82
669.96	54096.80
670.10	54148.29
670.25	54085.10
670.39	54042.97
670.53	53895.52
670.67	54258.30
670.81	54234.89
670.95	53719.98
671.09	53633.38
671.23	53483.58
671.37	53286.98
671.51	53661.46
671.65	53612.31
671.79	53432.09
671.93	53127.82
672.07	53492.94
672.21	53427.41
672.35	52856.32
672.49	52982.71
672.63	52760.36
672.77	52875.04
672.91	53045.90
673.05	52907.81
673.19	52774.40
673.33	52584.82
673.47	52142.45
673.61	52367.15
673.75	52446.72
673.89	52203.31
674.03	52425.66
674.17	52006.70
674.31	52165.86
674.45	51835.84
674.59	51964.57
674.73	52100.32
674.87	51892.02
675.01	52144.80
675.15	51447.32
675.29	51653.28
675.43	51812.44
675.56	51187.52
675.70	51372.42
675.84	50932.40
675.98	50192.79
676.12	51065.81
676.26	51283.48
676.40	50829.41
676.54	50955.80
676.68	51049.42
676.82	49839.37
676.96	50438.54
677.10	50347.26
677.23	49947.03
677.37	49808.94
677.51	50042.99
677.65	49347.86
677.79	49209.76
677.93	49041.24
678.07	49460.20
678.21	49141.89
678.34	49294.02
678.48	48926.56
678.62	48935.92
678.76	49038.90
678.90	48746.34
679.04	48147.16
679.18	48460.79
679.31	47966.94
679.45	48371.85
679.59	48217.38
679.73	48275.89
679.87	47807.78
680.00	47409.89
680.14	47051.79
680.28	47316.27
680.42	47358.40
680.56	47264.78
680.70	47047.11
680.83	47171.16
680.97	46710.07
681.11	47166.48
681.25	46859.87
681.39	46731.14
681.52	46494.74
681.66	46939.44
681.80	46160.05
681.94	45837.05
682.07	46094.51
682.21	45841.73
682.35	45277.66
682.49	45490.65
682.62	45525.76
682.76	45792.58
682.90	45485.97
683.04	44928.92
683.17	44795.51
683.31	44598.91
683.45	44495.92
683.59	44280.60
683.72	44219.74
683.86	44261.87
684.00	44528.69
684.13	44294.64
684.27	44133.14
684.41	44020.80
684.55	43505.88
684.68	43519.92
684.82	43260.12
684.96	43386.51
685.09	43569.07
685.23	42836.48
685.37	42623.50
685.50	42129.64
685.64	42347.31
685.78	42230.29
685.91	42220.92
686.05	42124.96
686.19	41916.65
686.32	41993.89
686.46	41024.91
686.60	40685.53
686.73	41106.83
686.87	40919.59
687.01	40889.16
687.14	40994.48
687.28	40671.49
687.42	40584.89
687.55	39959.97
687.69	40730.00
687.82	39688.46
687.96	39742.30
688.10	39597.18
688.23	40009.12
688.37	39761.02
688.50	39264.83
688.64	38951.20
688.78	39105.67
688.91	38632.88
689.05	38827.15
689.18	39028.43
689.32	37794.97
689.46	37794.97
689.59	37645.18
689.73	37500.06
689.86	37139.62
690.00	37376.01
690.13	37493.04
690.27	37855.82
690.41	37631.13
690.54	36917.27
690.68	36767.48
690.81	37254.31
690.95	36524.06
691.08	36261.92
691.22	36495.97
691.35	36278.30
691.49	36442.14
691.62	36285.33
691.76	35852.33
691.89	35831.26
692.03	35739.98
692.16	35140.80
692.30	35250.81
692.43	35065.91
692.57	35002.71
692.70	34579.07
692.84	34930.16
692.97	34230.33
693.11	34497.16
693.24	34167.14
693.38	34249.06
693.51	33848.83
693.65	33596.05
693.78	33553.92
693.92	33848.83
694.05	33603.07
694.19	33333.91
694.32	33048.36
694.45	32992.19
694.59	32751.12
694.72	32739.41
694.86	32765.16
694.99	32217.47
695.13	32034.91
695.26	31976.40
695.39	31124.44
695.53	31976.40
695.66	31929.59
695.80	31501.27
695.93	31412.33
696.07	30745.28
696.20	30778.04
696.33	30836.56
696.47	30888.05
696.60	30911.46
696.73	30438.67
696.87	30441.01
697.00	30064.18
697.14	30485.48
697.27	30380.15
697.40	30415.26
697.54	29937.79
697.67	29490.75
697.80	29692.04
697.94	29104.56
698.07	29034.35
698.21	28833.06
698.34	29041.37
698.47	28863.49
698.61	28730.08
698.74	28514.75
698.87	28613.05
699.01	28044.30
699.14	28212.82
699.27	27770.46
699.40	28079.41
699.54	27943.66
699.67	27749.39
699.80	27632.36
699.94	27440.44
700.07	27496.61
700.20	27335.12
700.34	27065.96
700.47	26405.92
700.60	26778.07
700.73	26548.70
700.87	25860.58
701.00	25844.20
701.13	25727.17
701.26	26057.18
701.40	26162.51
701.53	25741.21
701.66	25839.51
701.79	25628.87
701.93	25530.56
702.06	24996.92
702.19	25017.99
702.32	25284.81
702.46	24577.97
702.59	24404.77
702.72	24776.91
702.85	24807.34
702.99	24711.38
703.12	24496.05
703.25	24360.30
703.38	23962.40
703.51	23946.02
703.65	23524.72
703.78	23484.94
703.91	23281.31
704.04	23381.95
704.17	23318.76
704.31	23475.57
704.44	22904.48
704.57	23026.19
704.70	22656.39
704.83	22464.46
704.96	22089.98
705.10	21958.91
705.23	22427.01
>>>>>End Processed Spectral Data<<<<<
