SpectraSuite Data File
++++++++++++++++++++++++++++++++++++
Date: Fri Oct 25 10:47:21 EDT 2013
User: price-jones
Dark Spectrum Present: No
Reference Spectrum Present: No
Number of Sampled Component Spectra: 1
Spectrometers: USB2+H05261
Integration Time (usec): 100000 (USB2+H05261)
Spectra Averaged: 1 (USB2+H05261)
Boxcar Smoothing: 0 (USB2+H05261)
Correct for Electrical Dark: No (USB2+H05261)
Strobe/Lamp Enabled: No (USB2+H05261)
Correct for Detector Non-linearity: No (USB2+H05261)
Correct for Stray Light: No (USB2+H05261)
Number of Pixels in Processed Spectrum: 2048
>>>>>Begin Processed Spectral Data<<<<<
365.73	166.18
365.92	166.18
366.12	166.18
366.32	56.17
366.52	28.09
366.72	28.09
366.91	0.00
367.11	37.45
367.31	0.00
367.51	72.56
367.70	18.72
367.90	11.70
368.10	11.70
368.30	0.00
368.49	0.00
368.69	79.58
368.89	58.51
369.09	37.45
369.28	53.83
369.48	72.56
369.68	65.54
369.87	107.66
370.07	128.73
370.27	205.97
370.47	243.42
370.66	393.21
370.86	454.06
371.06	477.47
371.25	458.74
371.45	423.64
371.65	486.83
371.84	477.47
372.04	430.66
372.24	442.36
372.44	512.58
372.63	468.11
372.83	491.51
373.03	491.51
373.22	486.83
373.42	514.92
373.62	575.77
373.81	552.37
374.01	524.28
374.21	561.73
374.40	557.05
374.60	613.22
374.79	486.83
374.99	521.94
375.19	589.82
375.38	540.66
375.58	692.80
375.78	606.20
375.97	571.09
376.17	543.00
376.37	606.20
376.56	608.54
376.76	456.40
376.95	599.18
377.15	631.94
377.35	573.43
377.54	669.39
377.74	554.71
377.93	599.18
378.13	631.94
378.33	631.94
378.52	678.76
378.72	709.18
378.91	645.99
379.11	622.58
379.31	624.92
379.50	580.45
379.70	643.65
379.89	697.48
380.09	587.47
380.28	606.20
380.48	641.31
380.68	629.60
380.87	702.16
381.07	739.61
381.26	697.48
381.46	634.29
381.65	739.61
381.85	650.67
382.04	657.69
382.24	641.31
382.43	683.44
382.63	676.41
382.83	678.76
383.02	713.86
383.22	784.08
383.41	645.99
383.61	709.18
383.80	795.78
384.00	741.95
384.19	645.99
384.39	741.95
384.58	676.41
384.78	774.72
384.97	781.74
385.17	784.08
385.36	830.89
385.56	739.61
385.75	730.25
385.95	779.40
386.14	641.31
386.34	781.74
386.53	786.42
386.72	774.72
386.92	765.36
387.11	777.06
387.31	812.17
387.50	805.14
387.70	833.23
387.89	891.74
388.09	840.25
388.28	784.08
388.48	819.19
388.67	863.66
388.86	788.76
389.06	912.81
389.25	847.27
389.45	915.15
389.64	905.79
389.84	905.79
390.03	919.83
390.22	903.45
390.42	910.47
390.61	973.66
390.81	894.08
391.00	978.34
391.19	1018.13
391.39	976.00
391.58	957.28
391.78	1008.77
391.97	1029.84
392.16	905.79
392.36	957.28
392.55	964.30
392.75	922.17
392.94	952.60
393.13	1060.26
393.33	1020.47
393.52	1008.77
393.71	973.66
393.91	959.62
394.10	1004.09
394.29	1034.52
394.49	1020.47
394.68	1078.99
394.88	1123.46
395.07	1167.93
395.26	1165.59
395.46	1086.01
395.65	1123.46
395.84	1093.03
396.04	1242.82
396.23	1053.24
396.42	1039.20
396.62	1196.01
396.81	1163.25
397.00	1170.27
397.19	1184.31
397.39	1144.52
397.58	1181.97
397.77	1193.67
397.97	1331.76
398.16	1207.72
398.35	1254.53
398.55	1327.08
398.74	1362.19
398.93	1313.04
399.12	1359.85
399.32	1240.48
399.51	1343.47
399.70	1329.42
399.90	1317.72
400.09	1448.79
400.28	1334.11
400.47	1427.73
400.67	1376.24
400.86	1540.07
401.05	1416.02
401.24	1488.58
401.44	1406.66
401.63	1420.71
401.82	1453.47
402.01	1371.55
402.21	1472.20
402.40	1479.22
402.59	1610.29
402.78	1519.01
402.97	1444.11
403.17	1598.59
403.36	1488.58
403.55	1554.12
403.74	1612.63
403.93	1610.29
404.13	1776.47
404.32	1621.99
404.51	1633.69
404.70	1636.03
404.89	1675.82
405.09	1724.97
405.28	1757.74
405.47	1722.63
405.66	1760.08
405.85	1689.87
406.05	1703.91
406.24	1844.34
406.43	1771.79
406.62	1886.47
406.81	1785.83
407.00	1837.32
407.20	1823.28
407.39	1853.70
407.58	1947.33
407.77	1846.68
407.96	1886.47
408.15	2008.18
408.34	1933.28
408.54	1952.01
408.73	1921.58
408.92	2026.90
409.11	2017.54
409.30	2008.18
409.49	1987.11
409.68	1956.69
409.87	1954.35
410.07	2101.80
410.26	2078.40
410.45	2083.08
410.64	2136.91
410.83	2197.76
411.02	2132.23
411.21	2160.31
411.40	2270.32
411.59	2200.10
411.78	2148.61
411.98	2228.19
412.17	2363.94
412.36	2370.96
412.55	2319.47
412.74	2326.49
412.93	2307.77
413.12	2382.67
413.31	2452.88
413.50	2417.77
413.69	2394.37
413.88	2532.46
414.07	2520.76
414.26	2572.25
414.45	2686.94
414.64	2658.85
414.83	2583.95
415.02	2708.00
415.22	2679.91
415.41	2785.24
415.60	2818.00
415.79	2672.89
415.98	2939.71
416.17	2700.98
416.36	2881.20
416.55	2796.94
416.74	2892.90
416.93	2920.99
417.12	2818.00
417.31	3007.59
417.50	2953.76
417.69	3094.19
417.88	3218.24
418.07	3047.38
418.26	2944.39
418.45	3164.40
418.64	3225.26
418.83	3211.22
419.02	3110.57
419.21	3180.79
419.39	3267.39
419.58	3117.59
419.77	3162.06
419.96	3169.09
420.15	3274.41
420.34	3243.98
420.53	3251.00
420.72	3283.77
420.91	3356.33
421.10	3304.84
421.29	3475.70
421.48	3346.97
421.67	3396.12
421.86	3351.65
422.05	3463.99
422.24	3323.56
422.43	3403.14
422.61	3494.42
422.80	3473.36
422.99	3515.48
423.18	3384.41
423.37	3412.50
423.56	3552.93
423.75	3370.37
423.94	3393.78
424.13	3241.64
424.32	3339.94
424.50	3452.29
424.69	3517.83
424.88	3618.47
425.07	3468.67
425.26	3524.85
425.45	3550.59
425.64	3421.86
425.83	3496.76
426.01	3712.09
426.20	3485.06
426.39	3524.85
426.58	3386.76
426.77	3562.30
426.96	3566.98
427.15	3471.01
427.33	3688.68
427.52	3702.73
427.71	3623.15
427.90	3784.65
428.09	3684.00
428.28	3721.45
428.46	3604.42
428.65	3719.11
428.84	3843.16
429.03	3812.73
429.22	3742.52
429.40	3822.09
429.59	3709.75
429.78	3611.45
429.97	3543.57
430.16	3428.88
430.34	3616.13
430.53	3761.24
430.72	3878.27
430.91	3850.18
431.10	4011.68
431.28	3983.59
431.47	4152.11
431.66	4243.39
431.85	4093.60
432.03	4072.53
432.22	4074.87
432.41	4119.34
432.60	4138.07
432.79	4177.86
432.97	4250.41
433.16	4369.78
433.35	4231.69
433.54	4301.90
433.72	4201.26
433.91	4337.01
434.10	4386.16
434.28	4400.21
434.47	4299.56
434.66	4360.42
434.85	4344.03
435.03	4376.80
435.22	4482.13
435.41	4545.32
435.59	4449.36
435.78	4442.34
435.97	4461.06
436.16	4559.36
436.34	4606.17
436.53	4475.10
436.72	4641.28
436.90	4524.26
437.09	4627.24
437.28	4557.02
437.46	4491.49
437.65	4545.32
437.84	4692.77
438.02	4587.45
438.21	4788.74
438.40	4652.98
438.58	4922.15
438.77	4758.31
438.96	4807.46
439.14	4840.23
439.33	4973.64
439.52	5055.56
439.70	4999.38
439.89	5041.51
440.08	5081.30
440.26	5130.45
440.45	5254.50
440.63	5104.71
440.82	5387.91
441.01	5254.50
441.19	5214.71
441.38	5593.88
441.57	5303.65
441.75	5474.51
441.94	5600.90
442.12	5598.56
442.31	5640.69
442.50	5659.42
442.68	5425.36
442.87	5753.04
443.05	5497.92
443.24	5673.46
443.43	5769.42
443.61	5872.40
443.80	5959.00
443.98	5593.88
444.17	5530.69
444.35	5790.49
444.54	5750.70
444.73	5928.58
444.91	5701.54
445.10	5767.08
445.28	5617.29
445.47	5598.56
445.65	5778.78
445.84	5790.49
446.02	5771.76
446.21	5959.00
446.39	5902.83
446.58	5954.32
446.77	5944.96
446.95	5827.93
447.14	5921.56
447.32	5973.05
447.51	5799.85
447.69	5743.67
447.88	5914.53
448.06	5940.28
448.25	6019.86
448.43	5942.62
448.62	6054.97
448.80	5966.03
448.99	6108.80
449.17	6113.48
449.36	5959.00
449.54	6265.61
449.73	6153.27
449.91	6195.40
450.10	6331.15
450.28	6396.68
450.46	6452.86
450.65	6415.41
450.83	6443.49
451.02	6293.70
451.20	6485.62
451.39	6359.24
451.57	6368.60
451.76	6328.81
451.94	6527.75
452.13	6494.99
452.31	6282.00
452.49	6436.47
452.68	6382.64
452.86	6368.60
453.05	6635.42
453.23	6504.35
453.42	6469.24
453.60	6597.97
453.78	6712.66
453.97	6619.04
454.15	6661.16
454.34	6539.46
454.52	6710.32
454.70	6707.98
454.89	6689.25
455.07	6771.17
455.26	6822.66
455.44	6848.41
455.62	6867.13
455.81	6857.77
455.99	6932.67
456.17	6949.05
456.36	7049.69
456.54	7014.59
456.73	6960.75
456.91	7239.28
457.09	7192.47
457.28	7316.51
457.46	7019.27
457.64	7452.27
457.83	7171.40
458.01	6977.14
458.19	7485.03
458.38	7386.73
458.56	7398.43
458.74	7276.73
458.93	7536.52
459.11	7412.48
459.29	7592.70
459.48	7386.73
459.66	7442.90
459.84	7557.59
460.03	7765.90
460.21	7456.95
460.39	7419.50
460.57	7435.88
460.76	7618.44
460.94	7613.76
461.12	7691.00
461.31	7805.69
461.49	7468.65
461.67	7817.39
461.85	7950.80
462.04	7644.19
462.22	8098.25
462.40	7999.95
462.59	8011.65
462.77	8016.33
462.95	7976.55
463.13	8011.65
463.32	7925.05
463.50	8006.97
463.68	8046.76
463.86	8142.72
464.05	8187.19
464.23	7988.25
464.41	8149.75
464.59	7932.08
464.78	8276.13
464.96	8152.09
465.14	7845.48
465.32	8180.17
465.50	8219.96
465.69	8430.61
465.87	8259.75
466.05	8290.18
466.23	8329.97
466.41	8229.32
466.60	8491.46
466.78	8304.22
466.96	8287.84
467.14	8315.92
467.32	8292.52
467.51	8425.93
467.69	8461.04
467.87	8615.51
468.05	8610.83
468.23	8294.86
468.41	8358.05
468.60	8456.36
468.78	8557.00
468.96	8404.86
469.14	8571.04
469.32	8798.07
469.50	8582.74
469.69	8634.24
469.87	8912.76
470.05	8765.31
470.23	9048.51
470.41	8905.74
470.59	8837.86
470.77	9055.53
470.95	9062.55
471.14	9062.55
471.32	8966.59
471.50	9207.67
471.68	9184.26
471.86	9301.29
472.04	9350.44
472.22	9537.68
472.40	9123.41
472.58	9401.93
472.77	9312.99
472.95	9504.92
473.13	9657.05
473.31	9329.38
473.49	9430.02
473.67	9563.43
473.85	9799.82
474.03	9942.60
474.21	9753.01
474.39	10120.48
474.57	9856.00
474.75	10087.71
474.93	10024.51
475.12	10143.88
475.30	10022.17
475.48	10059.62
475.66	10132.18
475.84	10178.99
476.02	10403.68
476.20	10310.06
476.38	10321.76
476.56	10752.42
476.74	10714.97
476.92	10513.69
477.10	10530.07
477.28	10743.06
477.46	10792.21
477.64	10988.82
477.82	11087.12
478.00	11253.30
478.18	11346.92
478.36	11059.03
478.54	11655.87
478.72	11653.53
478.90	11604.38
479.08	11616.08
479.26	11749.49
479.44	11854.81
479.62	12081.85
479.80	11808.00
479.98	12231.64
480.16	12334.62
480.34	12287.81
480.52	12346.33
480.70	12592.08
480.88	12329.94
481.06	12243.34
481.24	12500.80
481.41	12837.84
481.59	12975.93
481.77	13177.22
481.95	12826.14
482.13	13153.81
482.31	13298.92
482.49	13624.26
482.67	13420.63
482.85	13458.08
483.03	13645.32
483.21	14024.49
483.39	13717.88
483.57	14026.83
483.74	14099.39
483.92	14122.79
484.10	14073.64
484.28	14410.68
484.46	14761.76
484.64	14998.15
484.82	14530.05
485.00	14679.84
485.18	14586.22
485.35	15201.78
485.53	14944.32
485.71	15056.67
485.89	15290.72
486.07	15487.32
486.25	15159.65
486.43	15328.17
486.61	15442.85
486.78	15492.01
486.96	16079.48
487.14	16631.85
487.32	16037.35
487.50	16290.13
487.68	16493.76
487.85	16610.78
488.03	16922.07
488.21	17135.06
488.39	16842.50
488.57	17146.76
488.75	16980.59
488.92	17598.49
489.10	17479.12
489.28	17570.40
489.46	17860.63
489.64	17926.16
489.81	18239.79
489.99	18047.87
490.17	18438.74
490.35	18569.81
490.53	18799.18
490.70	18862.38
490.88	18902.17
491.06	19028.56
491.24	19178.35
491.41	18998.13
491.59	19171.33
491.77	19030.90
491.95	19398.36
492.13	19721.35
492.30	19569.22
492.48	19646.46
492.66	19924.98
492.84	19585.60
493.01	19950.73
493.19	20046.69
493.37	20493.73
493.54	20374.36
493.72	20498.41
493.90	20552.24
494.08	21188.87
494.25	21315.26
494.43	21001.63
494.61	21287.17
494.79	21427.60
494.96	21252.06
495.14	21532.93
495.32	21827.84
495.49	21561.02
495.67	21813.79
495.85	22171.89
496.02	22244.45
496.20	22485.53
496.38	22377.86
496.55	22473.82
496.73	22993.42
496.91	22576.81
497.09	22607.23
497.26	22712.56
497.44	22380.20
497.62	22860.01
497.79	23683.88
497.97	22885.76
498.14	23065.98
498.32	23606.64
498.50	23171.30
498.67	23901.55
498.85	23866.44
499.03	24006.87
499.20	24051.34
499.38	23885.17
499.56	24091.13
499.73	24498.39
499.91	24147.31
500.08	24458.60
500.26	24151.99
500.44	24589.67
500.61	24840.11
500.79	24357.96
500.97	24783.93
501.14	24896.28
501.32	25090.54
501.49	25188.85
501.67	24987.56
501.84	25408.86
502.02	25149.06
502.20	25724.83
502.37	25413.54
502.55	25467.37
502.72	25462.69
502.90	25790.36
503.07	25790.36
503.25	26038.46
503.43	25879.30
503.60	26089.95
503.78	25827.81
503.95	26185.91
504.13	26300.60
504.30	26639.98
504.48	26429.33
504.65	26628.27
504.83	26787.43
505.01	26787.43
505.18	26759.34
505.36	27639.39
505.53	27065.96
505.71	27168.94
505.88	27358.52
506.06	26897.44
506.23	27257.88
506.41	27599.60
506.58	27555.13
506.76	27583.21
506.93	27620.66
507.11	27770.46
507.28	27543.42
507.46	28060.68
507.63	27868.76
507.81	28233.88
507.98	27899.19
508.16	28098.13
508.33	28608.37
508.50	28364.95
508.68	28222.18
508.85	29048.39
509.03	28610.71
509.20	28851.78
509.38	28861.15
509.55	28903.28
509.73	29439.26
509.90	28924.34
510.08	28907.96
510.25	28999.24
510.42	29312.87
510.60	29528.20
510.77	29443.94
510.95	29642.88
511.12	29167.76
511.30	29605.44
511.47	29780.98
511.64	30071.20
511.82	30075.88
511.99	29944.81
512.17	30146.10
512.34	29514.16
512.51	30033.75
512.69	30649.32
512.86	30061.84
513.04	30588.46
513.21	30181.21
513.38	30356.75
513.56	30579.10
513.73	30242.06
513.90	30981.67
514.08	30841.24
514.25	31367.86
514.43	31030.82
514.60	31037.84
514.77	31248.49
514.95	31555.10
515.12	31182.96
515.29	31473.18
515.47	31606.59
515.64	31428.71
515.81	31346.79
515.99	31225.09
516.16	31477.86
516.33	31763.41
516.51	31653.40
516.68	31534.04
516.85	31377.22
517.03	31758.73
517.20	31681.49
517.37	32091.09
517.54	32456.21
517.72	32182.37
517.89	32346.20
518.06	32002.14
518.24	31711.92
518.41	31810.22
518.58	32161.30
518.75	32294.71
518.93	33003.89
519.10	32645.79
519.27	32678.56
519.45	32634.09
519.62	33076.45
519.79	33116.24
519.96	32961.76
520.14	33090.49
520.31	33294.12
520.48	33167.73
520.65	33214.54
520.83	33436.89
521.00	33865.21
521.17	33560.94
521.34	33392.42
521.52	33722.44
521.69	34019.69
521.86	33551.58
522.03	33832.44
522.20	34108.63
522.38	34066.50
522.55	33806.70
522.72	34415.24
522.89	34061.82
523.07	34026.71
523.24	34108.63
523.41	34087.56
523.58	34082.88
523.75	34419.92
523.92	34714.83
524.10	34763.98
524.27	34838.87
524.44	34801.43
524.61	34948.88
524.78	34892.71
524.96	35241.45
525.13	35667.42
525.30	35196.98
525.47	35477.84
525.64	34998.03
525.81	35412.31
525.98	35208.68
526.16	35459.12
526.33	35597.21
526.50	35510.61
526.67	35332.73
526.84	35091.65
527.01	35115.06
527.18	35672.10
527.36	35592.53
527.53	35768.07
527.70	36250.22
527.87	35913.18
528.04	36137.87
528.21	36123.83
528.38	36114.47
528.55	36233.83
528.72	36315.75
528.89	36598.96
529.07	36123.83
529.24	36538.10
529.41	36503.00
529.58	36495.97
529.75	36699.60
529.92	36896.20
530.09	36442.14
530.26	36907.91
530.43	37170.05
530.60	36708.96
530.77	36924.29
530.94	37446.23
531.11	37069.40
531.28	37104.51
531.46	37092.81
531.63	37397.08
531.80	37134.94
531.97	37577.30
532.14	37392.40
532.31	36762.79
532.48	37172.39
532.65	37771.57
532.82	37521.13
532.99	37123.24
533.16	37429.85
533.33	37865.19
533.50	37937.74
533.67	37764.54
533.84	37200.47
534.01	37989.24
534.18	37846.46
534.35	37820.72
534.52	38148.39
534.69	38258.40
534.86	38206.90
535.03	38220.95
535.20	38363.72
535.37	38223.29
535.54	38845.87
535.71	38239.67
535.88	38326.27
536.05	38253.72
536.22	38361.38
536.38	38347.34
536.55	38490.11
536.72	38347.34
536.89	38618.84
537.06	38213.93
537.23	38557.99
537.40	38466.70
537.57	38735.87
537.74	38869.28
537.91	38693.74
538.08	38932.47
538.25	38815.44
538.42	39126.74
538.59	38913.75
538.75	38649.27
538.92	39063.54
539.09	39182.91
539.26	39360.79
539.43	39318.66
539.60	39005.03
539.77	39400.58
539.94	39346.75
540.11	39454.41
540.28	39079.92
540.44	39117.37
540.61	39421.64
540.78	39442.71
540.95	39683.78
541.12	39157.16
541.29	39473.13
541.46	39646.33
541.62	39695.49
541.79	40006.78
541.96	39407.60
542.13	39894.43
542.30	39754.00
542.47	39613.57
542.63	40027.84
542.80	40051.25
542.97	40030.18
543.14	40407.01
543.31	40210.40
543.48	40418.71
543.64	40982.78
543.81	40821.28
543.98	40535.74
544.15	40472.54
544.32	40495.95
544.48	41034.27
544.65	40685.53
544.82	40360.20
544.99	40678.51
545.16	40624.68
545.32	40224.45
545.49	40942.99
545.66	40917.25
545.83	41163.00
546.00	41160.66
546.16	40891.50
546.33	41060.02
546.50	40662.13
546.67	41256.62
546.83	40612.98
547.00	40950.01
547.17	41095.13
547.34	40971.08
547.50	41008.53
547.67	41757.50
547.84	41450.89
548.00	41610.04
548.17	41745.80
548.34	41816.01
548.51	41544.51
548.67	41621.75
548.84	41493.02
549.01	41841.76
549.18	41593.66
549.34	41556.21
549.51	41652.17
549.68	41741.11
549.84	42263.05
550.01	42279.44
550.18	41713.03
550.34	41626.43
550.51	42000.91
550.68	41886.23
550.84	41502.38
551.01	41806.65
551.18	42012.62
551.34	42040.70
551.51	42052.41
551.68	42007.94
551.84	42454.98
552.01	42160.07
552.18	42122.62
552.34	41956.44
552.51	42204.54
552.68	42047.72
552.84	41996.23
553.01	42590.73
553.18	42494.77
553.34	42541.58
553.51	42354.33
553.67	42693.71
553.84	42522.85
554.01	42272.42
554.17	42953.51
554.34	42787.33
554.51	42691.37
554.67	43093.94
554.84	42689.03
555.00	42770.95
555.17	42735.84
555.33	42459.66
555.50	42728.82
555.67	42621.16
555.83	42892.66
556.00	43077.56
556.16	43232.04
556.33	43107.99
556.50	42792.01
556.66	43070.54
556.83	42749.88
556.99	43585.46
557.16	43313.95
557.32	43112.67
557.49	43702.48
557.65	42843.51
557.82	42792.01
557.98	43330.34
558.15	43136.07
558.32	43035.43
558.48	43129.05
558.65	43370.13
558.81	42822.44
558.98	43363.11
559.14	43225.01
559.31	43501.20
559.47	43386.51
559.64	43831.21
559.80	43629.93
559.97	43423.96
560.13	43281.19
560.30	43239.06
560.46	43758.66
560.63	43686.10
560.79	43269.48
560.96	43854.62
561.12	43454.39
561.29	43634.61
561.45	43295.23
561.61	44098.03
561.78	43442.68
561.94	43328.00
562.11	43487.15
562.27	43662.69
562.44	43632.27
562.60	43772.70
562.77	44091.01
562.93	43421.62
563.10	43849.94
563.26	43548.01
563.42	43718.87
563.59	43791.42
563.75	43885.04
563.92	43889.73
564.08	44112.08
564.24	43920.15
564.41	43786.74
564.57	43894.41
564.74	44027.82
564.90	44177.61
565.07	44226.76
565.23	43363.11
565.39	43477.79
565.56	44121.44
565.72	44301.66
565.88	44032.50
566.05	43744.61
566.21	44128.46
566.38	43796.10
566.54	43943.56
566.70	43866.32
566.87	44301.66
567.03	44177.61
567.19	44233.78
567.36	44601.25
567.52	43828.87
567.68	44109.74
567.85	43840.57
568.01	44135.48
568.17	44095.69
568.34	44208.04
568.50	44390.60
568.66	43957.60
568.83	44556.78
568.99	43622.90
569.15	44222.08
569.32	44362.51
569.48	43941.22
569.64	44402.30
569.81	44186.97
569.97	44048.88
570.13	44528.69
570.30	44062.93
570.46	43306.93
570.62	44144.84
570.78	44217.40
570.95	43863.98
571.11	44474.86
571.27	44376.56
571.43	44027.82
571.60	44247.83
571.76	43859.30
571.92	44318.04
572.09	44208.04
572.25	44238.47
572.41	43725.89
572.57	44168.25
572.74	44870.41
572.90	44095.69
573.06	44374.22
573.22	44023.14
573.38	44282.94
573.55	44182.29
573.71	44449.11
573.87	44509.97
574.03	43761.00
574.20	44147.18
574.36	44339.11
574.52	44486.56
574.68	44704.23
574.84	44170.59
575.01	44383.58
575.17	44100.37
575.33	44243.15
575.49	44280.60
575.65	44711.25
575.82	44999.14
575.98	44528.69
576.14	44800.19
576.30	44552.10
576.46	44315.70
576.62	44378.90
576.79	44285.28
576.95	44179.95
577.11	44186.97
577.27	44584.86
577.43	45036.59
577.59	44605.93
577.75	44657.42
577.92	44355.49
578.08	44081.65
578.24	44320.38
578.40	44308.68
578.56	44439.75
578.72	44542.74
578.88	44615.29
579.04	44521.67
579.21	44577.84
579.37	44226.76
579.53	44786.15
579.69	43803.13
579.85	44687.85
580.01	44732.32
580.17	44626.99
580.33	45422.78
580.49	44959.35
580.65	44825.94
580.82	44744.02
580.98	44605.93
581.14	44570.82
581.30	44921.90
581.46	44947.65
581.62	44385.92
581.78	44774.45
581.94	45043.61
582.10	44126.12
582.26	44556.78
582.42	44439.75
582.58	44678.49
582.74	44638.70
582.90	44966.37
583.06	44367.20
583.22	44491.24
583.38	44868.07
583.54	44701.89
583.70	44657.42
583.86	44685.51
584.02	44261.87
584.18	44528.69
584.34	44947.65
584.50	44577.84
584.66	44535.71
584.82	44336.77
584.98	44809.56
585.14	44921.90
585.30	44657.42
585.46	44601.25
585.62	44360.17
585.78	44343.79
585.94	44334.43
586.10	44727.64
586.26	45036.59
586.42	44882.11
586.58	44889.13
586.74	44886.79
586.90	44650.40
587.06	44371.88
587.22	44856.37
587.38	44428.05
587.54	45249.58
587.70	45102.12
587.86	44584.86
588.02	44828.28
588.18	44832.96
588.34	44769.77
588.49	44617.63
588.65	44732.32
588.81	44519.33
588.97	44423.37
589.13	44472.52
589.29	44357.83
589.45	44650.40
589.61	44666.78
589.77	44959.35
589.93	45067.02
590.08	45216.81
590.24	44917.22
590.40	44914.88
590.56	45272.98
590.72	44896.16
590.88	44868.07
591.04	45195.74
591.20	45305.75
591.35	45338.52
591.51	45336.18
591.67	44854.03
591.83	44783.81
591.99	44758.06
592.15	44994.46
592.31	45024.89
592.46	44612.95
592.62	45031.91
592.78	45083.40
592.94	45223.83
593.10	45207.45
593.26	44697.21
593.41	44966.37
593.57	44645.72
593.73	44734.66
593.89	45027.23
594.05	44643.38
594.20	44847.00
594.36	45275.32
594.52	44961.69
594.68	45017.86
594.84	44734.66
594.99	45289.37
595.15	44889.13
595.31	45055.31
595.47	45024.89
595.62	44788.49
595.78	44802.53
595.94	45572.57
596.10	45200.43
596.25	45102.12
596.41	45202.77
596.57	45038.93
596.73	44907.86
596.88	45125.53
597.04	44989.78
597.20	45174.68
597.36	45008.50
597.51	45537.46
597.67	44856.37
597.83	45265.96
597.99	45212.13
598.14	45064.67
598.30	44629.34
598.46	44914.88
598.61	44865.73
598.77	45237.87
598.93	45038.93
599.09	45125.53
599.24	45577.25
599.40	45652.15
599.56	44825.94
599.71	44999.14
599.87	45221.49
600.03	45120.85
600.18	45261.28
600.34	44769.77
600.50	45427.46
600.65	45263.62
600.81	45237.87
600.97	45682.58
601.12	45717.68
601.28	45394.69
601.44	44898.50
601.59	45017.86
601.75	45038.93
601.91	44952.33
602.06	45067.02
602.22	45179.36
602.37	44884.45
602.53	45329.16
602.69	45326.81
602.84	44861.05
603.00	45439.16
603.16	45198.09
603.31	44643.38
603.47	45177.02
603.62	44858.71
603.78	44921.90
603.94	45151.27
604.09	45310.43
604.25	44868.07
604.40	44910.20
604.56	45006.16
604.71	45301.07
604.87	44898.50
605.03	45165.32
605.18	45116.17
605.34	45020.20
605.49	44797.85
605.65	45186.38
605.80	44919.56
605.96	44933.60
606.12	45081.06
606.27	45530.44
606.43	44975.73
606.58	45317.45
606.74	44917.22
606.89	44842.32
607.05	44931.26
607.20	44727.64
607.36	44802.53
607.51	44898.50
607.67	45275.32
607.82	45038.93
607.98	44914.88
608.13	44488.90
608.29	45139.57
608.44	44151.87
608.60	44648.06
608.75	44706.57
608.91	44264.21
609.06	44327.41
609.22	44673.81
609.37	44601.25
609.53	44975.73
609.68	44870.41
609.84	44559.12
609.99	44811.90
610.15	44474.86
610.30	44432.73
610.46	44556.78
610.61	44575.50
610.76	44411.67
610.92	44236.12
611.07	44509.97
611.23	44172.93
611.38	44788.49
611.54	44421.03
611.69	44570.82
611.84	44385.92
612.00	44217.40
612.15	44556.78
612.31	44336.77
612.46	44704.23
612.62	44416.35
612.77	44474.86
612.92	44128.46
613.08	44493.58
613.23	44605.93
613.39	44315.70
613.54	43814.83
613.69	44369.54
613.85	43966.96
614.00	44823.60
614.15	44507.63
614.31	44311.02
614.46	44699.55
614.62	44355.49
614.77	44072.29
614.92	44212.72
615.08	44217.40
615.23	44086.33
615.38	44091.01
615.54	43718.87
615.69	43973.98
615.84	43725.89
616.00	43819.51
616.15	44009.09
616.30	44053.56
616.46	43522.26
616.61	43758.66
616.76	43950.58
616.92	43468.43
617.07	43332.68
617.22	43409.92
617.37	43545.67
617.53	44067.61
617.68	43945.90
617.83	43761.00
617.99	44362.51
618.14	43969.30
618.29	43662.69
618.45	43538.65
618.60	43278.85
618.75	43756.32
618.90	43957.60
619.06	43690.78
619.21	43313.95
619.36	43849.94
619.51	43236.72
619.67	43175.86
619.82	43281.19
619.97	43859.30
620.12	43110.33
620.28	42796.70
620.43	43208.63
620.58	43435.66
620.73	43098.62
620.89	43002.66
621.04	43438.00
621.19	43276.51
621.34	43147.78
621.49	42782.65
621.65	42583.71
621.80	42691.37
621.95	42836.48
622.10	43093.94
622.25	43161.82
622.41	42899.68
622.56	42869.25
622.71	43578.43
622.86	42679.67
623.01	43269.48
623.16	42887.98
623.32	42674.99
623.47	43232.04
623.62	42635.20
623.77	42792.01
623.92	42504.13
624.07	42314.55
624.23	42883.30
624.38	42518.17
624.53	42349.65
624.68	42555.62
624.83	42541.58
624.98	43068.20
625.13	42047.72
625.29	42457.32
625.44	42789.67
625.59	42499.45
625.74	42139.00
625.89	42401.14
626.04	41911.97
626.19	42501.79
626.34	42443.27
626.49	42036.02
626.65	42497.11
626.80	42588.39
626.95	42344.97
627.10	42120.28
627.25	41764.52
627.40	41911.97
627.55	41876.86
627.70	41446.21
627.85	41673.24
628.00	42129.64
628.15	42223.26
628.30	41846.44
628.45	42153.05
628.60	41888.57
628.76	42609.45
628.91	41780.90
629.06	41759.84
629.21	41710.69
629.36	41588.98
629.51	41478.97
629.66	41619.41
629.81	41918.99
629.96	41411.10
630.11	41584.30
630.26	41738.77
630.41	41818.35
630.56	41567.91
630.71	41944.74
630.86	41626.43
631.01	41310.46
631.16	41584.30
631.31	41364.29
631.46	41022.57
631.61	41209.81
631.76	41191.09
631.91	41647.49
632.06	41483.66
632.21	41275.35
632.36	41677.92
632.51	41020.23
632.66	41514.08
632.81	41013.21
632.96	40917.25
633.10	40683.19
633.25	40910.22
633.40	40744.05
633.55	40992.14
633.70	41205.13
633.85	40989.80
634.00	40903.20
634.15	41249.60
634.30	40968.74
634.45	41088.10
634.60	40690.21
634.75	40870.43
634.90	40961.72
635.05	40687.87
635.19	41125.55
635.34	41301.09
635.49	40968.74
635.64	40744.05
635.79	40673.83
635.94	40643.40
636.09	40404.67
636.24	40542.76
636.39	40306.37
636.53	40495.95
636.68	40177.64
636.83	40327.43
636.98	40617.66
637.13	40091.04
637.28	40397.65
637.43	40392.97
637.57	40243.17
637.72	40353.18
637.87	40374.24
638.02	40055.93
638.17	40297.00
638.32	39896.77
638.46	39985.71
638.61	40306.37
638.76	39966.99
638.91	40219.77
639.06	40257.21
639.20	40294.66
639.35	40261.90
639.50	39945.92
639.65	40383.60
639.80	40512.33
639.94	39903.79
640.09	39751.66
640.24	39849.96
640.39	39590.16
640.54	39796.13
640.68	39608.89
640.83	39723.57
640.98	39768.04
641.13	39749.32
641.27	39901.45
641.42	39442.71
641.57	39849.96
641.72	40226.79
641.86	39454.41
642.01	39655.70
642.16	39672.08
642.31	39154.82
642.45	39604.20
642.60	39295.25
642.75	39468.45
642.90	39033.11
643.04	39428.66
643.19	39468.45
643.34	39618.25
643.48	39632.29
643.63	39391.22
643.78	39468.45
643.93	38705.44
644.07	38843.53
644.22	39321.00
644.37	39040.14
644.51	38806.08
644.66	38911.41
644.81	39447.39
644.95	38979.28
645.10	39658.04
645.25	39260.15
645.39	39189.93
645.54	39229.72
645.69	38866.94
645.83	39002.69
645.98	38878.64
646.13	38944.17
646.27	39117.37
646.42	38841.19
646.57	38635.22
646.71	38951.20
646.86	38780.34
647.00	38988.64
647.15	38911.41
647.30	38831.83
647.44	38623.52
647.59	38436.28
647.74	38286.48
647.88	38511.17
648.03	38117.96
648.17	38721.82
648.32	38536.92
648.47	38307.55
648.61	38227.97
648.76	38665.65
648.90	38607.14
649.05	38356.70
649.20	38134.35
649.34	38864.60
649.49	38511.17
649.63	38305.21
649.78	38071.15
649.92	37972.85
650.07	38670.33
650.21	38272.44
650.36	38206.90
650.51	37928.38
650.65	38675.01
650.80	38782.68
650.94	38696.08
651.09	38431.60
651.23	38281.80
651.38	38359.04
651.52	37675.60
651.67	38103.92
651.81	38293.50
651.96	37759.86
652.10	37904.98
652.25	38050.09
652.39	37975.19
652.54	37809.01
652.68	38143.71
652.83	38124.99
652.97	37469.64
653.12	37687.31
653.26	37984.55
653.41	37682.62
653.55	37813.70
653.70	37523.47
653.84	37680.28
653.99	37619.43
654.13	37546.87
654.27	37518.79
654.42	37287.07
654.56	37294.10
654.71	37329.20
654.85	37521.13
655.00	37139.62
655.14	37504.74
655.29	36882.16
655.43	37230.90
655.57	37383.04
655.72	37170.05
655.86	36905.57
656.01	37331.54
656.15	36634.06
656.30	37067.06
656.44	36795.56
656.58	36767.48
656.73	36704.28
656.87	36643.43
657.01	36414.05
657.16	36343.84
657.30	36603.64
657.45	36067.66
657.59	36959.40
657.73	36704.28
657.88	36910.25
658.02	36568.53
658.16	36573.21
658.31	37146.64
658.45	36847.05
658.60	36418.74
658.74	36783.86
658.88	36715.98
659.03	36634.06
659.17	36217.45
659.31	36498.31
659.46	36201.07
659.60	36369.58
659.74	36339.16
659.89	35800.83
660.03	35978.72
660.17	36313.41
660.32	36194.04
660.46	36266.60
660.60	36060.63
660.74	36088.72
660.89	36151.91
661.03	36030.21
661.17	35578.48
661.32	35449.75
661.46	35475.50
661.60	35501.25
661.74	35716.58
661.89	35810.20
662.03	36044.25
662.17	35629.98
662.31	35056.54
662.46	35416.99
662.60	35648.70
662.74	35711.89
662.88	35419.33
663.03	35416.99
663.17	35295.28
663.31	34976.97
663.45	35349.11
663.60	35229.74
663.74	34525.24
663.88	34801.43
664.02	34836.53
664.17	34869.30
664.31	34995.69
664.45	34649.29
664.59	34670.36
664.73	34700.78
664.88	34820.15
665.02	34265.44
665.16	34810.79
665.30	34621.20
665.44	34375.45
665.59	33982.24
665.73	34108.63
665.87	34043.09
666.01	34375.45
666.15	34026.71
666.29	34125.01
666.44	34396.51
666.58	34167.14
666.72	34478.43
666.86	33907.34
667.00	34157.78
667.14	34043.09
667.28	34155.44
667.43	33769.25
667.57	33745.84
667.71	33937.77
667.85	33497.75
667.99	33811.38
668.13	33638.18
668.27	33813.72
668.41	33825.42
668.56	33354.97
668.70	33762.23
668.84	33312.84
668.98	33186.46
669.12	33251.99
669.26	33170.07
669.40	33116.24
669.54	32528.77
669.68	32968.79
669.82	32856.44
669.96	32978.15
670.10	32800.27
670.25	32826.01
670.39	33060.07
670.53	32500.68
670.67	32540.47
670.81	32627.07
670.95	32683.24
671.09	32755.80
671.23	32217.47
671.37	32498.34
671.51	32444.51
671.65	32088.74
671.79	31950.65
671.93	32397.70
672.07	32275.99
672.21	31978.74
672.35	31955.33
672.49	32151.94
672.63	32123.85
672.77	31899.16
672.91	32058.32
673.05	31711.92
673.19	31648.72
673.33	31442.76
673.47	31531.70
673.61	31030.82
673.75	31152.53
673.89	30827.20
674.03	31033.16
674.17	30820.17
674.31	30749.96
674.45	30953.58
674.59	30852.94
674.73	31082.31
674.87	30836.56
675.01	30876.35
675.15	30761.66
675.29	30806.13
675.43	30590.80
675.56	30614.21
675.70	30284.19
675.84	30459.73
675.98	29537.56
676.12	29956.52
676.26	29706.08
676.40	30143.76
676.54	29916.73
676.68	30043.12
676.82	29596.07
676.96	29364.36
677.10	29301.17
677.23	29472.03
677.37	29481.39
677.51	29184.14
677.65	29055.41
677.79	28678.58
677.93	28701.99
678.07	28856.46
678.21	28730.08
678.34	28538.15
678.48	28582.62
678.62	28491.34
678.76	28456.23
678.90	28187.07
679.04	28240.90
679.18	28397.72
679.31	28245.58
679.45	27866.42
679.59	27630.02
679.73	27850.03
679.87	27910.89
680.00	27789.18
680.14	27950.68
680.28	27302.35
680.42	27040.21
680.56	27683.86
680.70	26981.70
680.83	26859.99
680.97	27049.57
681.11	26862.33
681.25	26529.97
681.39	26668.06
681.52	26974.67
681.66	27012.12
681.80	26850.63
681.94	26555.72
682.07	26415.29
682.21	26251.45
682.35	26403.58
682.49	26551.04
682.62	26134.42
682.76	25874.62
682.90	25685.04
683.04	25900.37
683.17	26225.70
683.31	26089.95
683.45	25673.34
683.59	25277.79
683.72	25439.28
683.86	25137.35
684.00	25062.46
684.13	25135.01
684.27	25514.18
684.41	24746.48
684.55	25326.94
684.68	24795.64
684.82	24652.86
684.96	24709.04
685.09	24442.21
685.23	24517.11
685.37	24547.54
685.50	24332.21
685.64	24292.42
685.78	24016.24
685.91	24123.90
686.05	23924.96
686.19	23527.06
686.32	23796.23
686.46	23601.96
686.60	23435.78
686.73	23543.45
686.87	23454.51
687.01	22981.72
687.14	23370.25
687.28	22948.95
687.42	23470.89
687.55	22862.35
687.69	22867.03
687.82	22951.29
687.96	23005.13
688.10	22888.10
688.23	22714.90
688.37	22195.30
688.50	22174.24
688.64	22321.69
688.78	22120.40
688.91	22235.09
689.05	21900.39
689.18	22188.28
689.32	21940.18
689.46	22085.30
689.59	21933.16
689.73	22274.88
689.86	21921.46
690.00	21504.84
690.13	21598.46
690.27	21617.19
690.41	21451.01
690.54	21223.98
690.68	21226.32
690.81	21348.03
690.95	21083.55
691.08	20807.36
691.22	20978.22
691.35	20898.64
691.49	21057.80
691.62	20959.50
691.76	20793.32
691.89	20814.38
692.03	20196.48
692.16	20353.30
692.30	20161.37
692.43	20159.03
692.57	20329.89
692.70	20065.41
692.84	20025.62
692.97	19915.62
693.11	19789.23
693.24	19620.71
693.38	19651.14
693.51	19950.73
693.65	19454.53
693.78	19484.96
693.92	19351.55
694.05	19353.89
694.19	19000.47
694.32	19288.35
694.45	19281.33
694.59	19089.41
694.72	18916.21
694.86	18939.62
694.99	18616.62
695.13	18513.64
695.26	18485.55
695.39	18462.15
695.53	18326.39
695.66	18431.72
695.80	18319.37
695.93	18209.37
696.07	18082.98
696.20	18143.83
696.33	18050.21
696.47	18054.89
696.60	18139.15
696.73	17965.95
696.87	17757.64
697.00	17909.78
697.14	17649.98
697.27	17554.02
697.40	17298.90
697.54	17556.36
697.67	17282.52
697.80	17216.98
697.94	17167.83
698.07	17123.36
698.21	16844.84
698.34	17050.80
698.47	17114.00
698.61	16547.59
698.74	16624.83
698.87	16430.56
699.01	16613.12
699.14	16290.13
699.27	16318.22
699.40	16301.83
699.54	16273.74
699.67	16053.73
699.80	16353.32
699.94	16135.65
700.07	16091.18
700.20	15662.86
700.34	15763.51
700.47	15967.13
700.60	15903.94
700.73	15894.58
700.87	15655.84
701.00	15456.90
701.13	15419.45
701.26	15468.60
701.40	15475.62
701.53	15199.44
701.66	15077.73
701.79	15051.99
701.93	15000.49
702.06	14972.41
702.19	14869.42
702.32	14937.30
702.46	14696.22
702.59	14796.87
702.72	14492.60
702.85	14558.13
702.99	14733.67
703.12	14738.35
703.25	14532.39
703.38	14260.88
703.51	14389.61
703.65	14363.87
703.78	14225.78
703.91	14136.84
704.04	14204.71
704.17	13694.47
704.31	13811.50
704.44	13657.03
704.57	13727.24
704.70	13806.82
704.83	13631.28
704.96	13612.56
705.10	13654.69
705.23	13858.31
>>>>>End Processed Spectral Data<<<<<
