SpectraSuite Data File
++++++++++++++++++++++++++++++++++++
Date: Fri Oct 25 11:24:08 EDT 2013
User: price-jones
Dark Spectrum Present: No
Reference Spectrum Present: No
Number of Sampled Component Spectra: 1
Spectrometers: USB2+H05261
Integration Time (usec): 100000 (USB2+H05261)
Spectra Averaged: 1 (USB2+H05261)
Boxcar Smoothing: 0 (USB2+H05261)
Correct for Electrical Dark: No (USB2+H05261)
Strobe/Lamp Enabled: No (USB2+H05261)
Correct for Detector Non-linearity: No (USB2+H05261)
Correct for Stray Light: No (USB2+H05261)
Number of Pixels in Processed Spectrum: 2048
>>>>>Begin Processed Spectral Data<<<<<
365.73	236.39
365.92	236.39
366.12	236.39
366.32	168.52
366.52	142.77
366.72	128.73
366.91	147.45
367.11	184.90
367.31	107.66
367.51	140.43
367.70	93.62
367.90	154.48
368.10	161.50
368.30	110.01
368.49	105.32
368.69	163.84
368.89	222.35
369.09	173.20
369.28	191.92
369.48	95.96
369.68	194.26
369.87	250.44
370.07	175.54
370.27	283.20
370.47	395.55
370.66	589.82
370.86	606.20
371.06	571.09
371.25	725.57
371.45	664.71
371.65	723.23
371.84	629.60
372.04	746.63
372.24	681.10
372.44	713.86
372.63	767.70
372.83	760.67
373.03	777.06
373.22	706.84
373.42	800.46
373.62	767.70
373.81	898.77
374.01	837.91
374.21	763.01
374.40	779.40
374.60	830.89
374.79	809.83
374.99	814.51
375.19	823.87
375.38	919.83
375.58	826.21
375.78	929.19
375.97	887.06
376.17	901.11
376.37	814.51
376.56	884.72
376.76	791.10
376.95	870.68
377.15	856.64
377.35	936.21
377.54	922.17
377.74	877.70
377.93	929.19
378.13	959.62
378.33	940.90
378.52	1011.11
378.72	997.07
378.91	877.70
379.11	826.21
379.31	929.19
379.50	947.92
379.70	983.02
379.89	987.71
380.09	964.30
380.28	1013.45
380.48	1055.58
380.68	1071.97
380.87	1062.60
381.07	1083.67
381.26	1064.94
381.46	1083.67
381.65	1125.80
381.85	1027.50
382.04	1022.81
382.24	1015.79
382.43	1041.54
382.63	992.39
382.83	1086.01
383.02	1111.75
383.22	1116.44
383.41	1043.88
383.61	1097.71
383.80	1086.01
384.00	1046.22
384.19	1121.12
384.39	1125.80
384.58	1151.54
384.78	1163.25
384.97	1130.48
385.17	1156.22
385.36	1170.27
385.56	1165.59
385.75	1224.10
385.95	1167.93
386.14	1240.48
386.34	1179.63
386.53	1277.93
386.72	1299.00
386.92	1238.14
387.11	1217.08
387.31	1212.40
387.50	1336.45
387.70	1170.27
387.89	1338.79
388.09	1338.79
388.28	1228.78
388.48	1327.08
388.67	1287.29
388.86	1263.89
389.06	1366.87
389.25	1315.38
389.45	1322.40
389.64	1362.19
389.84	1376.24
390.03	1420.71
390.22	1373.89
390.42	1364.53
390.61	1287.29
390.81	1373.89
391.00	1465.18
391.19	1458.15
391.39	1549.43
391.58	1502.62
391.78	1451.13
391.97	1401.98
392.16	1430.07
392.36	1500.28
392.55	1556.46
392.75	1479.22
392.94	1561.14
393.13	1448.79
393.33	1596.25
393.52	1523.69
393.71	1511.99
393.91	1493.26
394.10	1504.96
394.29	1661.78
394.49	1624.33
394.68	1547.09
394.88	1577.52
395.07	1586.88
395.26	1722.63
395.46	1659.44
395.65	1645.40
395.84	1710.93
396.04	1776.47
396.23	1816.26
396.42	1703.91
396.62	1830.30
396.81	1717.95
397.00	1820.94
397.19	1900.52
397.39	1790.51
397.58	1837.32
397.77	1886.47
397.97	1839.66
398.16	1870.09
398.35	1898.17
398.55	1825.62
398.74	1893.49
398.93	1898.17
399.12	1858.39
399.32	1994.14
399.51	1984.77
399.70	1947.33
399.90	2019.88
400.09	2026.90
400.28	2050.31
400.47	2003.50
400.67	2150.95
400.86	2069.03
401.05	2169.68
401.24	2143.93
401.44	2111.16
401.63	2176.70
401.82	2125.21
402.01	2200.10
402.21	2221.17
402.40	2176.70
402.59	2160.31
402.78	2214.15
402.97	2303.09
403.17	2190.74
403.36	2321.81
403.55	2253.94
403.74	2373.30
403.93	2375.64
404.13	2382.67
404.32	2392.03
404.51	2331.17
404.70	2478.63
404.89	2359.26
405.09	2455.22
405.28	2417.77
405.47	2551.18
405.66	2497.35
405.85	2424.80
406.05	2438.84
406.24	2537.14
406.43	2548.84
406.62	2581.61
406.81	2700.98
407.00	2541.82
407.20	2630.76
407.39	2668.21
407.58	2708.00
407.77	2698.64
407.96	2682.25
408.15	2787.58
408.34	2750.13
408.54	2829.71
408.73	2752.47
408.92	2850.77
409.11	2888.22
409.30	2796.94
409.49	2998.23
409.68	2916.31
409.87	2829.71
410.07	2972.48
410.26	2965.46
410.45	3026.31
410.64	2963.12
410.83	3122.27
411.02	3105.89
411.21	3176.11
411.40	3183.13
411.59	3288.45
411.78	3295.47
411.98	3166.74
412.17	3290.79
412.36	3330.58
412.55	3489.74
412.74	3541.23
412.93	3480.38
413.12	3377.39
413.31	3634.85
413.50	3665.28
413.69	3501.44
413.88	3719.11
414.07	3702.73
414.26	3545.91
414.45	3719.11
414.64	3604.42
414.83	3763.58
415.02	3735.50
415.22	3943.80
415.41	3819.75
415.60	3761.24
415.79	3901.67
415.98	4023.38
416.17	3981.25
416.36	3962.53
416.55	3964.87
416.74	4222.33
416.93	3941.46
417.12	4119.34
417.31	4173.18
417.50	4140.41
417.69	4353.40
417.88	4264.46
418.07	4418.93
418.26	4407.23
418.45	4484.47
418.64	4575.75
418.83	4273.82
419.02	4545.32
419.21	4554.68
419.39	4620.22
419.58	4432.97
419.77	4404.89
419.96	4582.77
420.15	4669.37
420.34	4559.36
420.53	4620.22
420.72	4774.69
420.91	4634.26
421.10	4793.42
421.29	4854.27
421.48	4643.62
421.67	4830.87
421.86	4711.50
422.05	4786.40
422.24	4854.27
422.43	4863.63
422.61	4936.19
422.80	4868.31
422.99	5057.90
423.18	4891.72
423.37	5034.49
423.56	5057.90
423.75	4964.28
423.94	5011.09
424.13	4697.46
424.32	4777.03
424.50	5076.62
424.69	5214.71
424.88	4992.36
425.07	4868.31
425.26	5057.90
425.45	5144.50
425.64	4957.25
425.83	5060.24
426.01	5193.65
426.20	4964.28
426.39	5188.97
426.58	5008.75
426.77	4964.28
426.96	5266.21
427.15	5121.09
427.33	5268.55
427.52	5107.05
427.71	5167.90
427.90	5245.14
428.09	5359.83
428.28	5378.55
428.46	5469.83
428.65	5462.81
428.84	5617.29
429.03	5500.26
429.22	5481.53
429.40	5516.64
429.59	5453.45
429.78	5322.38
429.97	5231.10
430.16	5378.55
430.34	5570.48
430.53	5640.69
430.72	5717.93
430.91	5636.01
431.10	5605.58
431.28	5746.02
431.47	5701.54
431.66	5788.14
431.85	5713.25
432.03	5989.43
432.22	6029.22
432.41	5935.60
432.60	5860.70
432.79	6083.05
432.97	6012.84
433.16	6265.61
433.35	5914.53
433.54	6036.24
433.72	6216.46
433.91	6193.06
434.10	6059.65
434.28	5970.71
434.47	6232.85
434.66	6260.93
434.85	6368.60
435.03	6258.59
435.22	6272.64
435.41	6502.01
435.59	6525.41
435.78	6600.31
435.97	6614.35
436.16	6595.63
436.34	6415.41
436.53	6443.49
436.72	6792.23
436.90	6715.00
437.09	6752.45
437.28	6574.56
437.46	6684.57
437.65	6679.89
437.84	6867.13
438.02	6689.25
438.21	6867.13
438.40	6722.02
438.58	6956.07
438.77	7185.44
438.96	7005.22
439.14	7014.59
439.33	7180.76
439.52	7176.08
439.70	7225.23
439.89	7459.29
440.08	7503.76
440.26	7314.17
440.45	7382.05
440.63	7620.78
440.82	7730.79
441.01	7520.14
441.19	7550.57
441.38	7747.17
441.57	7765.90
441.75	7803.35
441.94	7908.67
442.12	8081.87
442.31	8079.53
442.50	8039.74
442.68	8112.30
442.87	7854.84
443.05	8156.77
443.24	8320.60
443.43	8248.05
443.61	8243.37
443.80	8531.25
443.98	8234.00
444.17	7967.18
444.35	8205.92
444.54	8187.19
444.73	8341.67
444.91	8264.43
445.10	8456.36
445.28	8325.29
445.47	8351.03
445.65	8210.60
445.84	8510.19
446.02	8472.74
446.21	8493.80
446.39	8454.02
446.58	8472.74
446.77	8587.43
446.95	8432.95
447.14	8678.71
447.32	8589.77
447.51	8608.49
447.69	8613.17
447.88	8470.40
448.06	8699.77
448.25	8587.43
448.43	8594.45
448.62	8634.24
448.80	8683.39
448.99	8805.10
449.17	8725.52
449.36	8765.31
449.54	8793.39
449.73	8912.76
449.91	8987.66
450.10	8966.59
450.28	9048.51
450.46	8987.66
450.65	9048.51
450.83	9256.82
451.02	9081.28
451.20	9097.66
451.39	9036.81
451.57	9235.75
451.76	8908.08
451.94	9071.92
452.13	9444.06
452.31	9451.08
452.49	9095.32
452.68	9476.83
452.86	9460.45
453.05	9507.26
453.23	9806.84
453.42	9434.70
453.60	9383.21
453.78	9790.46
453.97	9540.02
454.15	9696.84
454.34	9458.10
454.52	9668.75
454.70	9848.97
454.89	9795.14
455.07	9783.44
455.26	9930.89
455.44	9966.00
455.62	9928.55
455.81	10017.49
455.99	10087.71
456.17	10202.40
456.36	10078.35
456.54	10333.47
456.73	10265.59
456.91	10466.88
457.09	10611.99
457.28	10520.71
457.46	10413.04
457.64	10705.61
457.83	10525.39
458.01	10469.22
458.19	10644.76
458.38	10579.22
458.56	10803.91
458.74	10841.36
458.93	10846.04
459.11	10939.66
459.29	10965.41
459.48	10963.07
459.66	10897.53
459.84	11044.99
460.03	11234.57
460.21	11157.33
460.39	11187.76
460.57	11344.58
460.76	11215.85
460.94	11363.30
461.12	11208.83
461.31	11246.27
461.49	11243.93
461.67	11112.86
461.85	11634.80
462.04	11328.19
462.22	11730.76
462.40	11815.02
462.59	11707.36
462.77	11492.03
462.95	11782.26
463.13	11838.43
463.32	11644.17
463.50	11686.29
463.68	11871.20
463.86	11700.34
464.05	11660.55
464.23	11616.08
464.41	11831.41
464.59	11918.01
464.78	12009.29
464.96	12020.99
465.14	11934.39
465.32	12042.06
465.50	12229.30
465.69	12086.53
465.87	12430.59
466.05	12105.25
466.23	12191.85
466.41	12219.94
466.60	12603.78
466.78	12369.73
466.96	12175.47
467.14	12428.24
467.32	12554.63
467.51	12755.92
467.69	12463.35
467.87	12678.68
468.05	12732.51
468.23	12702.09
468.41	12629.53
468.60	12795.71
468.78	13048.49
468.96	12620.17
469.14	12837.84
469.32	12875.29
469.50	12774.64
469.69	13238.07
469.87	13102.32
470.05	13268.50
470.23	13556.38
470.41	13301.26
470.59	13233.39
470.77	13032.10
470.95	13549.36
471.14	13441.70
471.32	13221.69
471.50	13764.69
471.68	13717.88
471.86	13799.80
472.04	13795.12
472.22	14022.15
472.40	13788.10
472.58	13991.72
472.77	14164.92
472.95	14204.71
473.13	14567.49
473.31	14239.82
473.49	14401.32
473.67	14305.35
473.85	14675.16
474.03	14853.04
474.21	14761.76
474.39	14738.35
474.57	14799.21
474.75	14848.36
474.93	15243.91
475.12	15063.69
475.30	15199.44
475.48	15180.71
475.66	15042.62
475.84	15290.72
476.02	15330.51
476.20	15248.59
476.38	16072.46
476.56	15946.07
476.74	15946.07
476.92	16030.33
477.10	15831.38
477.28	16505.46
477.46	16484.39
477.64	16659.93
477.82	16486.73
478.00	17123.36
478.18	16971.22
478.36	17092.93
478.54	17273.15
478.72	17291.88
478.90	17532.95
479.08	17813.82
479.26	17930.84
479.44	17752.96
479.62	17912.12
479.80	17879.35
479.98	18050.21
480.16	19033.24
480.34	18368.52
480.52	18906.85
480.70	18462.15
480.88	18663.43
481.06	18735.99
481.24	18925.57
481.41	19339.85
481.59	19601.99
481.77	19697.95
481.95	19740.08
482.13	19822.00
482.31	19850.08
482.49	20332.23
482.67	20311.17
482.85	20472.67
483.03	20996.95
483.21	21130.36
483.39	21371.43
483.57	21233.34
483.74	21493.14
483.92	21823.16
484.10	21245.04
484.28	21958.91
484.46	22134.45
484.64	22530.00
484.82	22253.81
485.00	22553.40
485.18	22862.35
485.35	23073.00
485.53	23197.05
485.71	23077.68
485.89	23461.53
486.07	23154.92
486.25	23300.03
486.43	23630.05
486.61	24404.77
486.78	24027.94
486.96	24357.96
487.14	24924.36
487.32	24570.94
487.50	25310.55
487.68	25266.08
487.85	25490.77
488.03	25500.14
488.21	25935.48
488.39	25898.03
488.57	26237.41
488.75	26539.33
488.92	26572.10
489.10	26668.06
489.28	27047.23
489.46	27307.03
489.64	26984.04
489.81	27733.01
489.99	27714.28
490.17	27697.90
490.35	28442.19
490.53	28577.94
490.70	28409.42
490.88	28540.49
491.06	29022.64
491.24	29254.36
491.41	29322.23
491.59	29146.69
491.77	29820.77
491.95	29605.44
492.13	30263.13
492.30	30110.99
492.48	30272.49
492.66	30356.75
492.84	30188.23
493.01	30698.47
493.19	30829.54
493.37	31318.71
493.54	31550.42
493.72	31686.17
493.90	31372.54
494.08	31988.10
494.25	32254.92
494.43	32046.62
494.61	32446.85
494.79	32779.20
494.96	32828.35
495.14	33071.77
495.32	33132.62
495.49	33366.68
495.67	34136.71
495.85	33469.66
496.02	33729.46
496.20	34183.52
496.38	34658.65
496.55	34419.92
496.73	35108.04
496.91	34719.51
497.09	35257.83
497.26	35482.52
497.44	35297.62
497.62	35379.54
497.79	36182.34
497.97	35393.58
498.14	36341.50
498.32	36369.58
498.50	36669.17
498.67	37134.94
498.85	36533.42
499.03	36678.54
499.20	37036.64
499.38	37605.39
499.56	37436.87
499.73	37677.94
499.91	37528.15
500.08	38087.54
500.26	37837.10
500.44	37696.67
500.61	38274.78
500.79	38059.45
500.97	38691.40
501.14	38937.15
501.32	38745.23
501.49	38888.00
501.67	38775.66
501.84	39548.03
502.02	38955.88
502.20	39477.82
502.37	39864.00
502.55	39496.54
502.72	39924.86
502.90	40175.30
503.07	39489.52
503.25	39941.24
503.43	39526.97
503.60	40477.22
503.78	40268.92
503.95	40292.32
504.13	41088.10
504.30	40849.37
504.48	40790.86
504.65	41188.75
504.83	41207.47
505.01	41507.06
505.18	41464.93
505.36	42590.73
505.53	41523.44
505.71	42012.62
505.88	41776.22
506.06	41858.14
506.23	42045.38
506.41	41701.32
506.58	42733.50
506.76	42359.02
506.93	42717.12
507.11	42836.48
507.28	42703.07
507.46	43016.71
507.63	43093.94
507.81	43737.59
507.98	43386.51
508.16	43641.63
508.33	43367.79
508.50	43732.91
508.68	43868.66
508.85	44355.49
509.03	44093.35
509.20	44287.62
509.38	44582.52
509.55	44765.09
509.73	44804.88
509.90	44989.78
510.08	44624.65
510.25	44847.00
510.42	45006.16
510.60	45160.64
510.77	45570.23
510.95	45598.32
511.12	45691.94
511.30	45429.80
511.47	45521.08
511.64	45656.83
511.82	46651.56
511.99	45911.95
512.17	46272.39
512.34	46169.41
512.51	46843.48
512.69	46789.65
512.86	46621.13
513.04	46923.06
513.21	46894.97
513.38	47061.15
513.56	47243.71
513.73	47131.37
513.90	47370.10
514.08	47040.09
514.25	47594.79
514.43	47758.63
514.60	47739.91
514.77	47449.68
514.95	48067.58
515.12	47868.64
515.29	48245.46
515.47	48243.12
515.64	48533.35
515.81	48222.06
515.99	48650.38
516.16	48690.16
516.33	48486.54
516.51	49095.08
516.68	48954.64
516.85	48641.01
517.03	49303.38
517.20	49132.53
517.37	48809.53
517.54	49144.23
517.72	49254.23
517.89	49146.57
518.06	49324.45
518.24	49614.68
518.41	49687.23
518.58	49668.51
518.75	49705.96
518.93	49446.16
519.10	49326.79
519.27	50120.23
519.45	49914.26
519.62	50209.17
519.79	50452.59
519.96	50368.33
520.14	50511.10
520.31	50085.12
520.48	50468.97
520.65	50508.76
520.83	50892.61
521.00	51126.66
521.17	50813.03
521.34	50820.05
521.52	51409.87
521.69	51068.15
521.86	51370.08
522.03	51430.93
522.20	51728.18
522.38	51601.79
522.55	51552.64
522.72	51672.01
522.89	51669.67
523.07	51686.05
523.24	51784.35
523.41	52198.63
523.58	51657.96
523.75	51838.18
523.92	52013.73
524.10	52364.81
524.27	52210.33
524.44	52250.12
524.61	52320.34
524.78	52502.90
524.96	52566.09
525.13	52591.84
525.30	52956.96
525.47	52402.25
525.64	52802.49
525.81	52952.28
525.98	52959.30
526.16	52935.90
526.33	52940.58
526.50	53221.44
526.67	53071.65
526.84	53162.93
527.01	52978.03
527.18	52971.00
527.36	53024.84
527.53	53315.06
527.70	53588.91
527.87	53497.62
528.04	53247.19
528.21	53773.81
528.38	53329.11
528.55	53750.40
528.72	53385.28
528.89	53584.22
529.07	53645.08
529.24	53897.86
529.41	54038.29
529.58	54047.65
529.75	53598.27
529.92	54174.04
530.09	54068.72
530.26	54244.26
530.43	54148.29
530.60	53886.15
530.77	54265.32
530.94	54117.87
531.11	54162.34
531.28	54382.35
531.46	54485.33
531.63	54382.35
531.80	54560.23
531.97	54597.68
532.14	54710.02
532.31	54607.04
532.48	54665.55
532.65	54822.37
532.82	54747.47
532.99	54724.07
533.16	54703.00
533.33	55143.02
533.50	55238.98
533.67	54901.95
533.84	54946.42
534.01	55185.15
534.18	55316.22
534.35	55538.57
534.52	55435.59
534.69	55566.66
534.86	55449.63
535.03	55040.04
535.20	55341.97
535.37	55653.26
535.54	55634.53
535.71	55587.72
535.88	55618.15
536.05	55573.68
536.22	55765.60
536.38	55807.73
536.55	55772.63
536.72	55835.82
536.89	55894.33
537.06	55999.66
537.23	55845.18
537.40	55770.28
537.57	55674.32
537.74	55987.95
537.91	56065.19
538.08	56388.19
538.25	55798.37
538.42	56142.43
538.59	56673.73
538.75	56233.71
538.92	56296.91
539.09	56533.30
539.26	56346.06
539.43	56453.72
539.60	56465.42
539.77	56299.25
539.94	56659.69
540.11	56383.51
540.28	56612.88
540.44	56640.96
540.61	56460.74
540.78	56647.99
540.95	56657.35
541.12	56472.45
541.29	56371.80
541.46	56882.04
541.62	56734.59
541.79	56882.04
541.96	56657.35
542.13	56582.45
542.30	57059.92
542.47	56949.92
542.63	57078.64
542.80	57069.28
542.97	57361.85
543.14	57310.36
543.31	57387.60
543.48	57242.48
543.64	57495.26
543.81	57324.40
543.98	57525.69
544.15	57553.77
544.32	57703.57
544.48	57574.84
544.65	57605.26
544.82	57359.51
544.99	57581.86
545.16	57490.58
545.32	57488.24
545.49	57848.68
545.66	57925.92
545.83	57979.75
546.00	58150.61
546.16	57961.03
546.33	57785.49
546.50	57591.22
546.67	58092.10
546.83	57476.54
547.00	57984.43
547.17	58000.82
547.34	57862.72
547.50	58337.85
547.67	58143.59
547.84	58316.79
548.00	58349.56
548.17	58398.71
548.34	58323.81
548.51	58454.88
548.67	58450.20
548.84	58368.28
549.01	58218.49
549.18	58190.40
549.34	58485.31
549.51	58541.48
549.68	58571.91
549.84	58377.64
550.01	58525.10
550.18	58372.96
550.34	58784.90
550.51	58576.59
550.68	58571.91
550.84	58480.63
551.01	58752.13
551.18	58567.23
551.34	58780.21
551.51	58684.25
551.68	58747.45
551.84	58894.90
552.01	58578.93
552.18	58810.64
552.34	58665.53
552.51	58897.24
552.68	58635.10
552.84	58738.08
553.01	58782.55
553.18	59032.99
553.34	59093.85
553.51	58845.75
553.67	58997.88
553.84	59236.62
554.01	59140.66
554.17	59234.28
554.34	59096.19
554.51	59157.04
554.67	59332.58
554.84	59140.66
555.00	59283.43
555.17	59154.70
555.33	59168.74
555.50	59257.68
555.67	59105.55
555.83	59028.31
556.00	59381.73
556.16	59508.12
556.33	59636.85
556.50	59288.11
556.66	59599.40
556.83	59285.77
556.99	59444.93
557.16	59653.23
557.32	59606.42
557.49	59803.03
557.65	59372.37
557.82	59409.82
557.98	59384.07
558.15	59716.43
558.32	59597.06
558.48	59585.36
558.65	59686.00
558.81	59725.79
558.98	59620.47
559.14	59873.24
559.31	59686.00
559.47	59906.01
559.64	59969.21
559.80	59908.35
559.97	59945.80
560.13	59934.10
560.30	60037.08
560.46	59994.95
560.63	60009.00
560.79	60081.55
560.96	59976.23
561.12	59929.42
561.29	60069.85
561.45	60062.83
561.61	59840.48
561.78	60013.68
561.94	59861.54
562.11	59990.27
562.27	59875.58
562.44	60219.64
562.60	60170.49
562.77	60142.41
562.93	60041.76
563.10	60252.41
563.26	60090.91
563.42	60360.08
563.59	60252.41
563.75	60186.88
563.92	60182.19
564.08	60095.60
564.24	60374.12
564.41	60402.21
564.57	60395.18
564.74	60402.21
564.90	60594.13
565.07	60233.69
565.23	60542.64
565.39	60280.50
565.56	60411.57
565.72	60392.84
565.88	60418.59
566.05	60261.77
566.21	60240.71
566.38	60306.24
566.54	60619.88
566.70	60441.99
566.87	60357.74
567.03	60346.03
567.19	60643.28
567.36	60402.21
567.52	60339.01
567.68	60631.58
567.85	60474.76
568.01	60687.75
568.17	60315.61
568.34	60633.92
568.50	60561.36
568.66	60465.40
568.83	60582.43
568.99	60416.25
569.15	60626.90
569.32	60556.68
569.48	60666.69
569.64	60652.64
569.81	60711.16
569.97	60615.19
570.13	60509.87
570.30	60643.28
570.46	60746.26
570.62	60762.65
570.78	60601.15
570.95	60603.49
571.11	60725.20
571.27	60697.11
571.43	60788.39
571.60	60903.08
571.76	60704.13
571.92	60664.35
572.09	60725.20
572.25	60629.24
572.41	60657.32
572.57	60732.22
572.74	60985.00
572.90	60732.22
573.06	60788.39
573.22	60732.22
573.38	60743.92
573.55	60788.39
573.71	61076.28
573.87	60846.91
574.03	60664.35
574.20	60795.42
574.36	60788.39
574.52	61083.30
574.68	60774.35
574.84	60903.08
575.01	60790.73
575.17	61137.13
575.33	60809.46
575.49	60727.54
575.65	60924.14
575.82	60729.88
575.98	60992.02
576.14	60992.02
576.30	61038.83
576.46	60769.67
576.62	60903.08
576.79	60959.25
576.95	60776.69
577.11	60999.04
577.27	60942.87
577.43	60933.51
577.59	60912.44
577.75	60886.70
577.92	60954.57
578.08	61031.81
578.24	60987.34
578.40	61123.09
578.56	61031.81
578.72	61003.72
578.88	61080.96
579.04	61127.77
579.21	61207.35
579.37	60924.14
579.53	61235.44
579.69	60694.77
579.85	61137.13
580.01	60947.55
580.17	61027.13
580.33	61104.37
580.49	61219.05
580.65	61031.81
580.82	60900.74
580.98	60952.23
581.14	61146.50
581.30	61251.82
581.46	60942.87
581.62	61099.68
581.78	61017.77
581.94	61270.54
582.10	61029.47
582.26	61102.03
582.42	61062.24
582.58	61160.54
582.74	61097.34
582.90	61038.83
583.06	61069.26
583.22	60935.85
583.38	60994.36
583.54	61118.41
583.70	61254.16
583.86	61125.43
584.02	61113.73
584.18	61155.86
584.34	61256.50
584.50	61006.06
584.66	60959.25
584.82	60963.93
584.98	61277.57
585.14	61284.59
585.30	61188.63
585.46	61277.57
585.62	61146.50
585.78	61352.46
585.94	61146.50
586.10	61188.63
586.26	61099.68
586.42	61443.74
586.58	61226.07
586.74	61085.64
586.90	61230.75
587.06	61263.52
587.22	61275.22
587.38	61300.97
587.54	61153.52
587.70	61368.85
587.86	61190.97
588.02	61158.20
588.18	61130.11
588.34	61146.50
588.49	61226.07
588.65	61160.54
588.81	61347.78
588.97	61265.86
589.13	61233.10
589.29	61270.54
589.45	61556.09
589.61	61418.00
589.77	61652.05
589.93	61322.04
590.08	61333.74
590.24	61462.47
590.40	61609.92
590.56	61520.98
590.72	61696.52
590.88	61460.13
591.04	61359.48
591.20	61591.20
591.35	61558.43
591.51	61544.39
591.67	61605.24
591.83	61565.45
591.99	61586.52
592.15	61389.91
592.31	61822.91
592.46	61455.45
592.62	61542.05
592.78	61680.14
592.94	61769.08
593.10	61708.22
593.26	61722.27
593.41	61577.15
593.57	61780.78
593.73	61766.74
593.89	61876.74
594.05	61673.12
594.20	61520.98
594.36	61811.21
594.52	61579.49
594.68	61638.01
594.84	61614.60
594.99	61811.21
595.15	61565.45
595.31	61787.80
595.47	61567.79
595.62	61638.01
595.78	61602.90
595.94	61764.40
596.10	61815.89
596.25	61757.38
596.41	61811.21
596.57	61773.76
596.73	61619.28
596.88	61628.65
597.04	61881.42
597.20	61953.98
597.36	62007.81
597.51	61935.26
597.67	61574.81
597.83	61710.56
597.99	61635.67
598.14	61743.33
598.30	61876.74
598.46	61743.33
598.61	62031.22
598.77	61748.01
598.93	61895.47
599.09	61740.99
599.24	61970.36
599.40	61865.04
599.56	61939.94
599.71	61979.73
599.87	62073.35
600.03	61965.68
600.18	61771.42
600.34	61778.44
600.50	61872.06
600.65	61771.42
600.81	61682.48
600.97	61909.51
601.12	62017.17
601.28	61843.98
601.44	61801.85
601.59	61968.02
601.75	61858.02
601.91	62024.20
602.06	61956.32
602.22	62080.37
602.37	61951.64
602.53	61918.87
602.69	61862.70
602.84	61740.99
603.00	62061.64
603.16	62073.35
603.31	61703.54
603.47	62007.81
603.62	61911.85
603.78	62103.77
603.94	62089.73
604.09	61953.98
604.25	62003.13
604.40	61865.04
604.56	62012.49
604.71	61993.77
604.87	62052.28
605.03	61916.53
605.18	61902.49
605.34	61876.74
605.49	61743.33
605.65	62078.03
605.80	61928.23
605.96	61963.34
606.12	61815.89
606.27	62103.77
606.43	61752.69
606.58	62014.83
606.74	61687.16
606.89	61902.49
607.05	61801.85
607.20	61953.98
607.36	61696.52
607.51	61822.91
607.67	61668.44
607.82	61722.27
607.98	61750.35
608.13	61813.55
608.29	61815.89
608.44	61811.21
608.60	61773.76
608.75	61605.24
608.91	61867.38
609.06	61691.84
609.22	61841.63
609.37	61705.88
609.53	61858.02
609.68	61649.71
609.84	61649.71
609.99	61736.31
610.15	61853.34
610.30	61729.29
610.46	61853.34
610.61	62000.79
610.76	61710.56
610.92	61687.16
611.07	61612.26
611.23	61745.67
611.38	61668.44
611.54	61495.24
611.69	61813.55
611.84	61834.61
612.00	61836.95
612.15	61628.65
612.31	61621.62
612.46	61605.24
612.62	61553.75
612.77	61605.24
612.92	61818.23
613.08	61581.84
613.23	61602.90
613.39	61614.60
613.54	61488.21
613.69	61616.94
613.85	61558.43
614.00	61614.60
614.15	61792.48
614.31	61544.39
614.46	61783.12
614.62	61450.77
614.77	61418.00
614.92	61291.61
615.08	61385.23
615.23	61516.30
615.38	61476.51
615.54	61481.19
615.69	61366.51
615.84	61488.21
616.00	61532.68
616.15	61333.74
616.30	61581.84
616.46	61329.06
616.61	61413.32
616.76	61523.32
616.92	61340.76
617.07	61403.95
617.22	61298.63
617.37	61305.65
617.53	61535.02
617.68	61661.41
617.83	61436.72
617.99	61413.32
618.14	61518.64
618.29	61324.38
618.45	61359.48
618.60	61219.05
618.75	61296.29
618.90	61221.39
619.06	61382.89
619.21	61387.57
619.36	61324.38
619.51	61539.71
619.67	61254.16
619.82	61212.03
619.97	61277.57
620.12	61015.43
620.28	61322.04
620.43	61226.07
620.58	61109.05
620.73	61092.66
620.89	61193.31
621.04	61319.70
621.19	61102.03
621.34	61071.60
621.49	61080.96
621.65	61183.94
621.80	61324.38
621.95	60945.21
622.10	61153.52
622.25	60926.49
622.41	61090.32
622.56	61085.64
622.71	61132.45
622.86	60743.92
623.01	61045.85
623.16	60977.98
623.32	60966.27
623.47	61057.56
623.62	61010.74
623.77	61085.64
623.92	61015.43
624.07	61083.30
624.23	60985.00
624.38	61080.96
624.53	60814.14
624.68	60818.82
624.83	60947.55
624.98	60858.61
625.13	60566.04
625.29	60956.91
625.44	60750.94
625.59	60662.00
625.74	60706.47
625.89	60762.65
626.04	60669.03
626.19	60603.49
626.34	60685.41
626.49	60322.63
626.65	60537.96
626.80	60736.90
626.95	60397.52
627.10	60348.37
627.25	60533.28
627.40	60472.42
627.55	60451.36
627.70	60601.15
627.85	60598.81
628.00	60409.23
628.15	60542.64
628.30	60369.44
628.45	60451.36
628.60	60210.28
628.76	60364.76
628.91	60715.84
629.06	60659.66
629.21	60526.25
629.36	60472.42
629.51	60339.01
629.66	60371.78
629.81	60430.29
629.96	60065.17
630.11	60245.39
630.26	60339.01
630.41	60392.84
630.56	60104.96
630.71	60399.86
630.86	60247.73
631.01	59934.10
631.16	60214.96
631.31	60060.49
631.46	59863.88
631.61	60025.38
631.76	60214.96
631.91	59985.59
632.06	60179.85
632.21	60130.70
632.36	59901.33
632.51	59763.24
632.66	59943.46
632.81	59952.82
632.96	60102.62
633.10	60104.96
633.25	60135.38
633.40	60156.45
633.55	59990.27
633.70	59763.24
633.85	59723.45
634.00	59903.67
634.15	59707.07
634.30	59725.79
634.45	59821.75
634.60	59952.82
634.75	59985.59
634.90	59700.04
635.05	59568.97
635.19	59639.19
635.34	59730.47
635.49	59957.50
635.64	59721.11
635.79	59840.48
635.94	59863.88
636.09	59657.91
636.24	59632.17
636.39	59686.00
636.53	59957.50
636.68	59667.28
636.83	59777.28
636.98	59920.05
637.13	59498.76
637.28	59674.30
637.43	59688.34
637.57	59898.99
637.72	59428.54
637.87	59583.02
638.02	59613.44
638.17	59552.59
638.32	59456.63
638.46	59592.38
638.61	59421.52
638.76	59304.49
638.91	59344.28
639.06	59643.87
639.20	59302.15
639.35	59365.35
639.50	59320.88
639.65	59257.68
639.80	59540.89
639.94	59311.52
640.09	59437.90
640.24	59260.02
640.39	59297.47
640.54	59458.97
640.68	59325.56
640.83	59341.94
640.98	59164.06
641.13	59047.04
641.27	59288.11
641.42	59145.34
641.57	59166.40
641.72	59128.95
641.86	59138.32
642.01	58892.56
642.16	59206.19
642.31	58798.94
642.45	59260.02
642.60	58766.17
642.75	59217.89
642.90	59138.32
643.04	59114.91
643.19	58885.54
643.34	58937.03
643.48	59018.95
643.63	58972.14
643.78	58927.67
643.93	58986.18
644.07	59079.80
644.22	59114.91
644.37	58710.00
644.51	58749.79
644.66	59070.44
644.81	58918.31
644.95	58995.54
645.10	58969.80
645.25	58642.12
645.39	58663.19
645.54	58653.82
645.69	58859.79
645.83	58810.64
645.98	58759.15
646.13	58759.15
646.27	58560.20
646.42	58625.74
646.57	58508.71
646.71	58745.11
646.86	58658.51
647.00	58794.26
647.15	58827.02
647.30	58398.71
647.44	58576.59
647.59	58681.91
647.74	58520.41
647.88	58632.76
648.03	58667.87
648.17	58731.06
648.32	58548.50
648.47	58557.86
648.61	58607.01
648.76	58670.21
648.90	58546.16
649.05	58557.86
649.20	58698.30
649.34	58265.30
649.49	58461.90
649.63	58443.18
649.78	58653.82
649.92	58461.90
650.07	58862.13
650.21	58213.80
650.36	58394.03
650.51	58391.68
650.65	58590.63
650.80	58286.36
650.94	58316.79
651.09	57799.53
651.23	58000.82
651.38	58274.66
651.52	57932.94
651.67	58103.80
651.81	58054.65
651.96	58089.76
652.10	58277.00
652.25	58035.92
652.39	58314.45
652.54	57890.81
652.68	57858.04
652.83	57853.36
652.97	57942.30
653.12	57998.48
653.26	58122.52
653.41	57907.19
653.55	58010.18
653.70	57874.43
653.84	58246.57
653.99	57916.56
654.13	57776.12
654.27	57771.44
654.42	57886.13
654.56	58005.50
654.71	57762.08
654.85	58174.02
655.00	57977.41
655.14	57799.53
655.29	57738.68
655.43	57883.79
655.57	57698.89
655.72	57776.12
655.86	57668.46
656.01	57764.42
656.15	57366.53
656.30	57675.48
656.44	57846.34
656.58	57666.12
656.73	57745.70
656.87	57710.59
657.01	57457.81
657.16	57750.38
657.30	57616.97
657.45	57432.07
657.59	57425.04
657.73	57408.66
657.88	57303.34
658.02	57530.37
658.16	57380.57
658.31	57350.15
658.45	57469.51
658.60	57467.17
658.74	57464.83
658.88	57296.31
659.03	57010.77
659.17	57043.54
659.31	57254.18
659.46	57212.06
659.60	57083.33
659.74	57244.82
659.89	57057.58
660.03	56886.72
660.17	57050.56
660.32	56781.40
660.46	57050.56
660.60	56849.27
660.74	56975.66
660.89	57045.88
661.03	56842.25
661.17	56498.19
661.32	56594.15
661.46	56608.20
661.60	56596.49
661.74	56699.48
661.89	56481.81
662.03	56619.90
662.17	56432.66
662.31	56430.32
662.46	56603.52
662.60	56369.46
662.74	56289.88
662.88	56339.04
663.03	56231.37
663.17	56233.71
663.31	56135.41
663.45	56250.09
663.60	55990.30
663.74	55964.55
663.88	55681.34
664.02	55770.28
664.17	55899.01
664.31	55620.49
664.45	55620.49
664.59	56023.06
664.73	55920.08
664.88	55913.06
665.02	55348.99
665.16	55634.53
665.30	55735.18
665.44	55634.53
665.59	55409.84
665.73	55430.91
665.87	55391.12
666.01	55501.12
666.15	55477.72
666.29	55309.20
666.44	55821.78
666.58	55323.24
666.72	54658.53
666.86	55196.85
667.00	55044.72
667.14	54880.88
667.28	54878.54
667.43	54925.35
667.57	54852.80
667.71	54787.26
667.85	54740.45
667.99	54913.65
668.13	55042.38
668.27	54976.84
668.41	54747.47
668.56	54508.74
668.70	54389.37
668.84	54468.95
668.98	54585.97
669.12	54707.68
669.26	54501.71
669.40	54492.35
669.54	54766.20
669.68	54571.93
669.82	54040.63
669.96	54167.02
670.10	54333.20
670.25	54295.75
670.39	54099.14
670.53	53989.14
670.67	54143.61
670.81	54344.90
670.95	54033.61
671.09	53649.76
671.23	53668.48
671.37	53504.65
671.51	53673.16
671.65	53738.70
671.79	53855.73
671.93	53549.12
672.07	53624.01
672.21	53361.87
672.35	53277.61
672.49	52973.34
672.63	53151.23
672.77	52914.83
672.91	52928.87
673.05	52800.15
673.19	52486.51
673.33	52346.08
673.47	52561.41
673.61	52535.66
673.75	52399.91
673.89	52252.46
674.03	52446.72
674.17	52161.18
674.31	52011.38
674.45	51955.21
674.59	51938.83
674.73	52126.07
674.87	51877.97
675.01	51442.63
675.15	51695.41
675.29	51737.54
675.43	51859.25
675.56	51634.56
675.70	51468.38
675.84	51217.94
675.98	50562.59
676.12	51517.53
676.26	51339.65
676.40	51107.94
676.54	51026.02
676.68	50761.54
676.82	50211.51
676.96	50822.39
677.10	50410.46
677.23	50108.53
677.37	50422.16
677.51	50129.59
677.65	49642.76
677.79	49237.85
677.93	49120.82
678.07	49338.49
678.21	49450.84
678.34	49359.56
678.48	49240.19
678.62	48790.81
678.76	48886.77
678.90	48577.82
679.04	48734.63
679.18	48594.20
679.31	48460.79
679.45	48421.00
679.59	48421.00
679.73	48226.74
679.87	47948.21
680.00	47604.16
680.14	47452.02
680.28	47641.60
680.42	47124.35
680.56	47400.53
680.70	47000.30
680.83	46951.15
680.97	47019.02
681.11	47033.07
681.25	46724.11
681.39	46429.21
681.52	46939.44
681.66	46513.47
681.80	46291.12
681.94	46199.83
682.07	45710.66
682.21	45315.11
682.35	45923.65
682.49	45158.30
682.62	45404.05
682.76	45956.42
682.90	45350.22
683.04	45076.38
683.17	44746.36
683.31	44664.44
683.45	44865.73
683.59	44655.08
683.72	44275.91
683.86	44397.62
684.00	44142.50
684.13	44926.58
684.27	44034.84
684.41	44254.85
684.55	44250.17
684.68	43721.21
684.82	43763.34
684.96	43796.10
685.09	43129.05
685.23	42707.76
685.37	42897.34
685.50	42305.18
685.64	42930.11
685.78	42728.82
685.91	42298.16
686.05	42134.32
686.19	41778.56
686.32	41893.25
686.46	41207.47
686.60	40847.03
686.73	41233.22
686.87	40928.95
687.01	41233.22
687.14	41099.81
687.28	41015.55
687.42	40282.96
687.55	40006.78
687.69	40884.48
687.82	40107.42
687.96	39538.67
688.10	39578.46
688.23	40456.16
688.37	39903.79
688.50	39475.48
688.64	38981.62
688.78	39569.10
688.91	38859.91
689.05	39112.69
689.18	38792.04
689.32	37776.25
689.46	37722.41
689.59	38012.64
689.73	38122.65
689.86	38089.88
690.00	37329.20
690.13	38064.13
690.27	37591.34
690.41	37947.11
690.54	37125.58
690.68	37008.55
690.81	37020.25
690.95	36959.40
691.08	36285.33
691.22	36872.80
691.35	36121.49
691.49	36376.61
691.62	36198.73
691.76	36369.58
691.89	36058.29
692.03	35466.14
692.16	35686.15
692.30	35501.25
692.43	35508.27
692.57	34862.28
692.70	34658.65
692.84	34998.03
692.97	34586.10
693.11	34660.99
693.24	34653.97
693.38	34216.29
693.51	34033.73
693.65	33905.00
693.78	33752.87
693.92	34050.11
694.05	33659.24
694.19	33474.34
694.32	33259.01
694.45	33109.22
694.59	32989.85
694.72	32973.47
694.86	33041.34
694.99	32474.93
695.13	32177.68
695.26	32165.98
695.39	31789.16
695.53	32360.25
695.66	32187.05
695.80	31831.29
695.93	31700.22
696.07	31318.71
696.20	30829.54
696.33	30735.92
696.47	31201.68
696.60	30827.20
696.73	30785.07
696.87	30677.40
697.00	30377.81
697.14	30040.78
697.27	30251.42
697.40	30029.07
697.54	30052.48
697.67	29685.01
697.80	29626.50
697.94	29586.71
698.07	29092.86
698.21	29296.49
698.34	28800.29
698.47	28938.38
698.61	28093.45
698.74	28533.47
698.87	28830.72
699.01	28290.06
699.14	28322.82
699.27	28208.14
699.40	28156.64
699.54	28388.36
699.67	27981.10
699.80	27498.95
699.94	27285.97
700.07	27440.44
700.20	27702.58
700.34	27047.23
700.47	26782.75
700.60	26546.36
700.73	26522.95
700.87	26628.27
701.00	26096.97
701.13	25970.58
701.26	26047.82
701.40	26216.34
701.53	26162.51
701.66	25928.45
701.79	25404.17
701.93	25331.62
702.06	25008.62
702.19	25125.65
702.32	25254.38
702.46	25055.43
702.59	24746.48
702.72	24643.50
702.85	24982.88
702.99	24465.62
703.12	24128.58
703.25	23847.72
703.38	23789.20
703.51	23639.41
703.65	23555.15
703.78	23817.29
703.91	23440.47
704.04	23459.19
704.17	23147.90
704.31	23506.00
704.44	23108.11
704.57	22864.69
704.70	22843.63
704.83	22742.99
704.96	22518.29
705.10	22157.85
705.23	22239.77
>>>>>End Processed Spectral Data<<<<<
