SpectraSuite Data File
++++++++++++++++++++++++++++++++++++
Date: Fri Oct 25 11:26:06 EDT 2013
User: price-jones
Dark Spectrum Present: No
Reference Spectrum Present: No
Number of Sampled Component Spectra: 1
Spectrometers: USB2+H05261
Integration Time (usec): 100000 (USB2+H05261)
Spectra Averaged: 1 (USB2+H05261)
Boxcar Smoothing: 0 (USB2+H05261)
Correct for Electrical Dark: No (USB2+H05261)
Strobe/Lamp Enabled: No (USB2+H05261)
Correct for Detector Non-linearity: No (USB2+H05261)
Correct for Stray Light: No (USB2+H05261)
Number of Pixels in Processed Spectrum: 2048
>>>>>Begin Processed Spectral Data<<<<<
365.73	306.61
365.92	306.61
366.12	306.61
366.32	128.73
366.52	140.43
366.72	182.56
366.91	145.11
367.11	147.45
367.31	222.35
367.51	112.35
367.70	189.58
367.90	105.32
368.10	107.66
368.30	91.28
368.49	126.39
368.69	191.92
368.89	159.16
369.09	105.32
369.28	182.56
369.48	187.24
369.68	217.67
369.87	224.69
370.07	248.10
370.27	276.18
370.47	397.89
370.66	601.52
370.86	638.97
371.06	624.92
371.25	606.20
371.45	624.92
371.65	671.73
371.84	662.37
372.04	645.99
372.24	727.91
372.44	690.46
372.63	821.53
372.83	786.42
373.03	770.04
373.22	730.25
373.42	788.76
373.62	784.08
373.81	844.93
374.01	833.23
374.21	849.61
374.40	807.48
374.60	854.30
374.79	791.10
374.99	816.85
375.19	873.02
375.38	823.87
375.58	861.32
375.78	875.36
375.97	823.87
376.17	973.66
376.37	875.36
376.56	828.55
376.76	812.17
376.95	847.27
377.15	924.51
377.35	880.04
377.54	940.90
377.74	863.66
377.93	898.77
378.13	866.00
378.33	997.07
378.52	968.98
378.72	1001.75
378.91	910.47
379.11	915.15
379.31	994.73
379.50	851.96
379.70	947.92
379.89	1020.47
380.09	959.62
380.28	910.47
380.48	978.34
380.68	929.19
380.87	1069.62
381.07	1081.33
381.26	1020.47
381.46	1018.13
381.65	1025.15
381.85	1001.75
382.04	966.64
382.24	1029.84
382.43	1025.15
382.63	1046.22
382.83	1076.65
383.02	1198.35
383.22	1114.10
383.41	1088.35
383.61	1090.69
383.80	1111.75
384.00	1100.05
384.19	1097.71
384.39	1121.12
384.58	1177.29
384.78	1086.01
384.97	1146.86
385.17	1104.73
385.36	1097.71
385.56	1205.38
385.75	1207.72
385.95	1203.04
386.14	1158.57
386.34	1142.18
386.53	1174.95
386.72	1247.51
386.92	1254.53
387.11	1207.72
387.31	1193.67
387.50	1275.59
387.70	1315.38
387.89	1224.10
388.09	1240.48
388.28	1261.55
388.48	1261.55
388.67	1207.72
388.86	1341.13
389.06	1322.40
389.25	1287.29
389.45	1331.76
389.64	1359.85
389.84	1416.02
390.03	1380.92
390.22	1371.55
390.42	1446.45
390.61	1303.68
390.81	1378.58
391.00	1427.73
391.19	1439.43
391.39	1416.02
391.58	1514.33
391.78	1439.43
391.97	1476.88
392.16	1465.18
392.36	1439.43
392.55	1556.46
392.75	1526.03
392.94	1598.59
393.13	1617.31
393.33	1577.52
393.52	1554.12
393.71	1612.63
393.91	1645.40
394.10	1570.50
394.29	1528.37
394.49	1596.25
394.68	1645.40
394.88	1636.03
395.07	1666.46
395.26	1668.80
395.46	1626.67
395.65	1720.29
395.84	1743.70
396.04	1809.23
396.23	1771.79
396.42	1743.70
396.62	1842.00
396.81	1708.59
397.00	1741.36
397.19	1736.68
397.39	1661.78
397.58	1839.66
397.77	1769.44
397.97	1874.77
398.16	1827.96
398.35	1877.11
398.55	1933.28
398.74	1710.93
398.93	2005.84
399.12	1952.01
399.32	1870.09
399.51	1982.43
399.70	2054.99
399.90	1970.73
400.09	1863.07
400.28	1996.48
400.47	1998.82
400.67	1982.43
400.86	1989.46
401.05	1998.82
401.24	2118.18
401.44	2101.80
401.63	2113.50
401.82	2080.74
402.01	2183.72
402.21	2127.55
402.40	2129.89
402.59	2150.95
402.78	2146.27
402.97	2195.42
403.17	2321.81
403.36	2216.49
403.55	2317.13
403.74	2328.83
403.93	2256.28
404.13	2375.64
404.32	2340.54
404.51	2452.88
404.70	2427.14
404.89	2272.66
405.09	2525.44
405.28	2464.58
405.47	2420.11
405.66	2527.78
405.85	2455.22
406.05	2527.78
406.24	2541.82
406.43	2560.55
406.62	2590.97
406.81	2621.40
407.00	2492.67
407.20	2607.36
407.39	2551.18
407.58	2677.57
407.77	2715.02
407.96	2775.88
408.15	2661.19
408.34	2759.49
408.54	2745.45
408.73	2670.55
408.92	2787.58
409.11	2918.65
409.30	2850.77
409.49	2885.88
409.68	2956.10
409.87	2937.37
410.07	3035.67
410.26	2981.84
410.45	2974.82
410.64	3014.61
410.83	3075.46
411.02	3028.65
411.21	3166.74
411.40	3131.64
411.59	3169.09
411.78	3124.62
411.98	3229.94
412.17	3201.85
412.36	3251.00
412.55	3211.22
412.74	3377.39
412.93	3494.42
413.12	3452.29
413.31	3496.76
413.50	3461.65
413.69	3314.20
413.88	3447.61
414.07	3634.85
414.26	3646.55
414.45	3726.13
414.64	3630.17
414.83	4016.36
415.02	3723.79
415.22	3817.41
415.41	3702.73
415.60	3882.95
415.79	3964.87
415.98	4011.68
416.17	4032.74
416.36	3976.57
416.55	3976.57
416.74	4126.36
416.93	4109.98
417.12	4070.19
417.31	4222.33
417.50	4259.78
417.69	4318.29
417.88	4124.02
418.07	4227.01
418.26	4243.39
418.45	4320.63
418.64	4571.07
418.83	4407.23
419.02	4264.46
419.21	4477.44
419.39	4411.91
419.58	4493.83
419.77	4369.78
419.96	4472.76
420.15	4496.17
420.34	4660.01
420.53	4664.69
420.72	4667.03
420.91	4770.01
421.10	4655.33
421.29	4699.80
421.48	4741.93
421.67	4748.95
421.86	4765.33
422.05	4748.95
422.24	4819.16
422.43	4767.67
422.61	4917.47
422.80	4805.12
422.99	4898.74
423.18	4910.44
423.37	4980.66
423.56	4933.85
423.75	4882.36
423.94	4641.28
424.13	4533.62
424.32	4678.73
424.50	4966.62
424.69	5055.56
424.88	5069.60
425.07	4997.04
425.26	4760.65
425.45	4957.25
425.64	4865.97
425.83	4985.34
426.01	5081.30
426.20	5011.09
426.39	5118.75
426.58	5088.32
426.77	5071.94
426.96	5163.22
427.15	4978.32
427.33	5043.85
427.52	5226.42
427.71	5256.84
427.90	5142.16
428.09	5151.52
428.28	5313.02
428.46	5404.30
428.65	5324.72
428.84	5486.22
429.03	5626.65
429.22	5432.38
429.40	5385.57
429.59	5577.50
429.78	5214.71
429.97	5158.54
430.16	5486.22
430.34	5706.23
430.53	5699.20
430.72	5476.85
430.91	5584.52
431.10	5544.73
431.28	5699.20
431.47	5741.33
431.66	5790.49
431.85	5769.42
432.03	5860.70
432.22	6024.54
432.41	5886.45
432.60	6022.20
432.79	5984.75
432.97	5991.77
433.16	5907.51
433.35	5818.57
433.54	6076.03
433.72	6033.90
433.91	6181.35
434.10	6073.69
434.28	6078.37
434.47	6059.65
434.66	6328.81
434.85	6204.76
435.03	6249.23
435.22	6363.92
435.41	6333.49
435.59	6370.94
435.78	6459.88
435.97	6434.13
436.16	6300.72
436.34	6523.07
436.53	6586.27
436.72	6604.99
436.90	6494.99
437.09	6525.41
437.28	6399.02
437.46	6408.39
437.65	6581.59
437.84	6672.87
438.02	6764.15
438.21	6656.48
438.40	6679.89
438.58	6899.90
438.77	7059.06
438.96	6937.35
439.14	7115.23
439.33	7028.63
439.52	7307.15
439.70	7227.57
439.89	7405.46
440.08	7520.14
440.26	7309.49
440.45	7239.28
440.63	7470.99
440.82	7552.91
441.01	7398.43
441.19	7712.07
441.38	7660.57
441.57	7770.58
441.75	7882.92
441.94	8023.36
442.12	7854.84
442.31	7903.99
442.50	8088.89
442.68	8093.57
442.87	8023.36
443.05	8098.25
443.24	8269.11
443.43	8217.62
443.61	8194.22
443.80	8313.58
443.98	8032.72
444.17	7957.82
444.35	8154.43
444.54	8252.73
444.73	8318.26
444.91	8301.88
445.10	8346.35
445.28	8159.11
445.47	8372.10
445.65	8339.33
445.84	8369.76
446.02	8374.44
446.21	8198.90
446.39	8234.00
446.58	8404.86
446.77	8446.99
446.95	8388.48
447.14	8557.00
447.32	8538.27
447.51	8374.44
447.69	8442.31
447.88	8557.00
448.06	8482.10
448.25	8486.78
448.43	8477.42
448.62	8571.04
448.80	8493.80
448.99	8617.85
449.17	8805.10
449.36	8528.91
449.54	8713.81
449.73	8936.17
449.91	9060.21
450.10	8833.18
450.28	9057.87
450.46	8861.27
450.65	8826.16
450.83	8978.30
451.02	8992.34
451.20	9338.74
451.39	9111.71
451.57	9076.60
451.76	8912.76
451.94	9050.85
452.13	9266.18
452.31	9224.05
452.49	9121.07
452.68	9273.20
452.86	9401.93
453.05	9565.77
453.23	9441.72
453.42	9275.54
453.60	9460.45
453.78	9446.40
453.97	9497.89
454.15	9664.07
454.34	9453.42
454.52	9444.06
454.70	9598.54
454.89	9863.02
455.07	9853.66
455.26	9900.47
455.44	9738.97
455.62	9846.63
455.81	9699.18
455.99	9898.13
456.17	9858.34
456.36	9944.94
456.54	10347.51
456.73	10155.58
456.91	10389.64
457.09	10427.09
457.28	10579.22
457.46	10319.42
457.64	10485.60
457.83	10537.09
458.01	10253.89
458.19	10623.69
458.38	10366.23
458.56	10537.09
458.74	10569.86
458.93	10501.98
459.11	10733.70
459.29	10803.91
459.48	10860.09
459.66	10738.38
459.84	10918.60
460.03	10988.82
460.21	10927.96
460.39	10721.99
460.57	11052.01
460.76	11241.59
460.94	11054.35
461.12	11384.37
461.31	11087.12
461.49	11152.65
461.67	11417.13
461.85	11435.86
462.04	11300.11
462.22	11630.12
462.40	11590.33
462.59	11426.50
462.77	11265.00
462.95	11541.18
463.13	11695.66
463.32	11606.72
463.50	11833.75
463.68	11782.26
463.86	11901.62
464.05	11555.22
464.23	11707.36
464.41	11803.32
464.59	11620.76
464.78	12196.53
464.96	12004.61
465.14	11709.70
465.32	12187.17
465.50	12114.61
465.69	12119.29
465.87	11960.14
466.05	12205.89
466.23	12173.13
466.41	11962.48
466.60	12236.32
466.78	11854.81
466.96	12086.53
467.14	12049.08
467.32	12196.53
467.51	12315.90
467.69	12081.85
467.87	12446.97
468.05	12395.48
468.23	12334.62
468.41	12376.75
468.60	12704.43
468.78	12676.34
468.96	12688.04
469.14	12727.83
469.32	12982.95
469.50	12430.59
469.69	12947.84
469.87	12980.61
470.05	12957.21
470.23	13071.89
470.41	13355.10
470.59	13261.48
470.77	13137.43
470.95	13336.37
471.14	13537.66
471.32	12964.23
471.50	13390.20
471.68	13458.08
471.86	13434.68
472.04	13664.05
472.22	13958.96
472.40	13771.71
472.58	13715.54
472.77	13956.61
472.95	14139.18
473.13	14576.86
473.31	13898.10
473.49	14396.64
473.67	13816.18
473.85	14064.28
474.03	14670.48
474.21	14483.24
474.39	14553.45
474.57	14831.97
474.75	14654.09
474.93	14988.79
475.12	14824.95
475.30	15253.27
475.48	14927.94
475.66	15349.23
475.84	15070.71
476.02	15220.50
476.20	15405.41
476.38	15552.86
476.56	16072.46
476.74	15978.84
476.92	15840.75
477.10	15475.62
477.28	16226.93
477.46	16250.34
477.64	16432.90
477.82	16418.86
478.00	16720.79
478.18	16753.55
478.36	16615.46
478.54	17376.14
478.72	17097.61
478.90	17156.13
479.08	17598.49
479.26	17640.62
479.44	17462.74
479.62	17755.30
479.80	17778.71
479.98	18197.67
480.16	18588.53
480.34	18211.71
480.52	18534.70
480.70	18644.71
480.88	18354.48
481.06	18714.92
481.24	18607.26
481.41	19110.47
481.59	19143.24
481.77	19248.57
481.95	19264.95
482.13	19623.05
482.31	19707.31
482.49	20100.52
482.67	20203.50
482.85	20114.56
483.03	20477.35
483.21	20943.11
483.39	20711.40
483.57	20664.59
483.74	20959.50
483.92	21462.71
484.10	21184.19
484.28	21565.70
484.46	22003.38
484.64	22087.64
484.82	21898.05
485.00	22216.36
485.18	22649.36
485.35	22757.03
485.53	22878.74
485.71	23012.15
485.89	23278.97
486.07	23367.91
486.25	23585.58
486.43	23679.20
486.61	23864.10
486.78	23988.15
486.96	24233.91
487.14	24580.31
487.32	24163.69
487.50	24369.66
487.68	25074.16
487.85	25460.35
488.03	25638.23
488.21	25589.08
488.39	25675.68
488.57	26183.57
488.75	25963.56
488.92	26242.09
489.10	26686.79
489.28	26764.03
489.46	26569.76
489.64	26810.84
489.81	27150.21
489.99	27852.38
490.17	27587.89
490.35	27995.15
490.53	28154.30
490.70	28261.97
490.88	28112.17
491.06	28566.24
491.24	29130.31
491.41	29092.86
491.59	28816.68
491.77	29436.92
491.95	29504.79
492.13	29645.23
492.30	30008.01
492.48	29963.54
492.66	30316.96
492.84	30806.13
493.01	30897.41
493.19	30352.07
493.37	30955.93
493.54	31012.10
493.72	31330.41
493.90	31126.78
494.08	31718.94
494.25	31978.74
494.43	31842.99
494.61	31938.95
494.79	32346.20
494.96	32552.17
495.14	32617.71
495.32	33069.43
495.49	32966.45
495.67	32992.19
495.85	33521.15
496.02	33404.13
496.20	33933.09
496.38	33970.54
496.55	34249.06
496.73	34864.62
496.91	34391.83
497.09	34581.42
497.26	34986.33
497.44	35058.88
497.62	35253.15
497.79	35686.15
497.97	35447.41
498.14	35817.22
498.32	36041.91
498.50	36053.61
498.67	36306.39
498.85	36538.10
499.03	36563.85
499.20	36816.63
499.38	36444.48
499.56	36638.75
499.73	37406.44
499.91	37118.56
500.08	37167.71
500.26	37324.52
500.44	37242.60
500.61	37799.65
500.79	37589.00
500.97	37897.95
501.14	38773.31
501.32	38370.74
501.49	38384.79
501.67	38394.15
501.84	38492.45
502.02	38483.09
502.20	38820.13
502.37	39049.50
502.55	38974.60
502.72	39215.68
502.90	39405.26
503.07	39283.55
503.25	39592.50
503.43	39454.41
503.60	39983.37
503.78	40009.12
503.95	39920.18
504.13	40329.77
504.30	40224.45
504.48	40425.73
504.65	40865.75
504.83	40907.88
505.01	41198.11
505.18	40870.43
505.36	41497.70
505.53	40966.40
505.71	41453.23
505.88	42080.49
506.06	41102.15
506.23	41621.75
506.41	41343.22
506.58	42033.68
506.76	42050.06
506.93	42384.76
507.11	42050.06
507.28	42272.42
507.46	42593.07
507.63	42759.25
507.81	43037.77
507.98	42546.26
508.16	42955.85
508.33	43143.09
508.50	43278.85
508.68	43414.60
508.85	43866.32
509.03	43892.07
509.20	44027.82
509.38	44154.21
509.55	44526.35
509.73	43782.06
509.90	44589.55
510.08	44411.67
510.25	44935.95
510.42	44830.62
510.60	44919.56
510.77	44767.43
510.95	45249.58
511.12	44905.52
511.30	44722.96
511.47	45296.39
511.64	45144.25
511.82	45619.38
511.99	45422.78
512.17	45811.31
512.34	45530.44
512.51	46550.91
512.69	46188.13
512.86	46354.31
513.04	46277.07
513.21	46356.65
513.38	46597.73
513.56	46651.56
513.73	46354.31
513.90	46866.89
514.08	46635.17
514.25	47430.96
514.43	47445.00
514.60	47342.02
514.77	47257.76
514.95	47697.78
515.12	47262.44
515.29	47508.19
515.47	47800.76
515.64	47833.53
515.81	47929.49
515.99	48009.07
516.16	48233.76
516.33	48346.11
516.51	48650.38
516.68	48844.64
516.85	48631.65
517.03	48781.45
517.20	48678.46
517.37	48971.03
517.54	48633.99
517.72	48879.75
517.89	48954.64
518.06	48928.90
518.24	49261.26
518.41	49188.70
518.58	49041.24
518.75	49277.64
518.93	49549.14
519.10	49329.13
519.27	49165.29
519.45	49169.97
519.62	49553.82
519.79	49998.52
519.96	49691.91
520.14	49977.46
520.31	49883.84
520.48	50157.68
520.65	50394.07
520.83	50508.76
521.00	50134.28
521.17	50377.69
521.34	50342.58
521.52	50883.25
521.69	50714.73
521.86	50677.28
522.03	50918.35
522.20	51227.31
522.38	50972.19
522.55	51278.80
522.72	51414.55
522.89	51154.75
523.07	51339.65
523.24	51367.74
523.41	51744.56
523.58	51608.81
523.75	51395.82
523.92	51508.17
524.10	51681.37
524.27	51725.84
524.44	51643.92
524.61	52280.55
524.78	52039.47
524.96	51985.64
525.13	52243.10
525.30	52493.54
525.47	52395.23
525.64	52142.45
525.81	52605.88
525.98	52502.90
526.16	52530.98
526.33	52446.72
526.50	52853.98
526.67	52704.18
526.84	52800.15
527.01	52877.38
527.18	52809.51
527.36	53031.86
527.53	53083.35
527.70	53371.24
527.87	53441.45
528.04	53013.13
528.21	53272.93
528.38	53186.33
528.55	53418.05
528.72	53591.25
528.89	53586.57
529.07	53296.34
529.24	53380.60
529.41	53413.37
529.58	53268.25
529.75	53647.42
529.92	53556.14
530.09	53710.61
530.26	53923.60
530.43	53773.81
530.60	53511.67
530.77	53792.53
530.94	53895.52
531.11	54042.97
531.28	54073.40
531.46	53923.60
531.63	54092.12
531.80	54092.12
531.97	54099.14
532.14	54232.55
532.31	54220.85
532.48	54494.69
532.65	54417.46
532.82	54209.15
532.99	54384.69
533.16	54342.56
533.33	54618.74
533.50	55037.70
533.67	54866.84
533.84	54541.50
534.01	54873.86
534.18	55133.66
534.35	55138.34
534.52	54873.86
534.69	54967.48
534.86	55224.94
535.03	54892.58
535.20	54927.69
535.37	55131.32
535.54	55227.28
535.71	54866.84
535.88	55117.28
536.05	55356.01
536.22	55508.14
536.38	55601.77
536.55	55124.30
536.72	55288.13
536.89	55269.41
537.06	55529.21
537.23	55728.16
537.40	55566.66
537.57	55585.38
537.74	55671.98
537.91	55863.91
538.08	55777.31
538.25	55629.85
538.42	55849.86
538.59	55985.61
538.75	55973.91
538.92	55936.46
539.09	56219.67
539.26	55791.35
539.43	55889.65
539.60	56189.24
539.77	55948.17
539.94	56245.41
540.11	56322.65
540.28	56369.46
540.44	56334.35
540.61	56217.33
540.78	56217.33
540.95	56392.87
541.12	56135.41
541.29	56086.26
541.46	56638.62
541.62	56437.34
541.79	56521.60
541.96	56196.26
542.13	56481.81
542.30	56444.36
542.47	56720.54
542.63	56774.37
542.80	57148.86
542.97	57116.09
543.14	57291.63
543.31	57003.75
543.48	57027.15
543.64	57261.21
543.81	57205.03
543.98	57516.32
544.15	57162.90
544.32	57443.77
544.48	57396.96
544.65	57041.20
544.82	57226.10
544.99	57396.96
545.16	57354.83
545.32	57322.06
545.49	57684.84
545.66	57483.56
545.83	57415.68
546.00	57626.33
546.16	57563.14
546.33	57422.70
546.50	57200.35
546.67	57649.74
546.83	57373.55
547.00	57851.02
547.17	57602.92
547.34	57733.99
547.50	57904.85
547.67	57909.53
547.84	57921.24
548.00	58117.84
548.17	58082.73
548.34	57883.79
548.51	58136.57
548.67	57998.48
548.84	57890.81
549.01	57815.91
549.18	57932.94
549.34	58145.93
549.51	58089.76
549.68	58379.98
549.84	58045.29
550.01	58323.81
550.18	58089.76
550.34	58220.83
550.51	58459.56
550.68	58166.99
550.84	58115.50
551.01	58321.47
551.18	58178.70
551.34	58511.05
551.51	58614.04
551.68	58372.96
551.84	58415.09
552.01	58155.29
552.18	58475.94
552.34	58246.57
552.51	58618.72
552.68	58515.73
552.84	58387.00
553.01	58862.13
553.18	58693.61
553.34	58672.55
553.51	58660.85
553.67	58637.44
553.84	58953.41
554.01	59023.63
554.17	58834.05
554.34	58857.45
554.51	58873.84
554.67	58960.44
554.84	58794.26
555.00	58782.55
555.17	58901.92
555.33	59150.02
555.50	58944.05
555.67	58951.07
555.83	59089.16
556.00	59138.32
556.16	59400.46
556.33	59250.66
556.50	59107.89
556.66	59351.30
556.83	59105.55
556.99	59281.09
557.16	59337.26
557.32	59245.98
557.49	59627.49
557.65	59449.61
557.82	59358.33
557.98	59304.49
558.15	59250.66
558.32	59395.77
558.48	59372.37
558.65	59409.82
558.81	59540.89
558.98	59299.81
559.14	59407.48
559.31	59573.66
559.47	59426.20
559.64	59412.16
559.80	59678.98
559.97	59580.68
560.13	59477.69
560.30	59634.51
560.46	59590.04
560.63	59671.96
560.79	59767.92
560.96	59629.83
561.12	59611.10
561.29	59693.02
561.45	59784.30
561.61	59601.74
561.78	59629.83
561.94	59826.43
562.11	59604.08
562.27	59601.74
562.44	59763.24
562.60	59938.78
562.77	59943.46
562.93	59788.98
563.10	60032.40
563.26	59711.75
563.42	59924.74
563.59	59906.01
563.75	60083.89
563.92	60006.65
564.08	59812.39
564.24	59985.59
564.41	60109.64
564.57	60193.90
564.74	59812.39
564.90	59868.56
565.07	60200.92
565.23	59959.84
565.39	60154.11
565.56	60046.44
565.72	60027.72
565.88	60273.48
566.05	60067.51
566.21	60079.21
566.38	60041.76
566.54	60135.38
566.70	60348.37
566.87	60196.24
567.03	59966.87
567.19	60367.10
567.36	60168.15
567.52	60271.14
567.68	60460.72
567.85	60158.79
568.01	60439.65
568.17	60331.99
568.34	60659.66
568.50	60257.09
568.66	60207.94
568.83	60170.49
568.99	60266.45
569.15	60013.68
569.32	60369.44
569.48	60348.37
569.64	60441.99
569.81	60594.13
569.97	60301.56
570.13	60362.42
570.30	60250.07
570.46	60271.14
570.62	60210.28
570.78	60315.61
570.95	60308.58
571.11	60552.00
571.27	60406.89
571.43	60507.53
571.60	60570.72
571.76	60395.18
571.92	60348.37
572.09	60530.93
572.25	60566.04
572.41	60350.71
572.57	60395.18
572.74	60561.36
572.90	60528.59
573.06	60409.23
573.22	60573.06
573.38	60472.42
573.55	60544.98
573.71	60631.58
573.87	60491.15
574.03	60362.42
574.20	60629.24
574.36	60514.55
574.52	60561.36
574.68	60687.75
574.84	60638.60
575.01	60741.58
575.17	60556.68
575.33	60369.44
575.49	60601.15
575.65	60711.16
575.82	60734.56
575.98	60650.30
576.14	60889.04
576.30	60680.73
576.46	60411.57
576.62	60626.90
576.79	60622.22
576.95	60636.26
577.11	60636.26
577.27	60835.20
577.43	60938.19
577.59	60882.02
577.75	60612.85
577.92	60725.20
578.08	60530.93
578.24	60650.30
578.40	60795.42
578.56	60977.98
578.72	60793.07
578.88	60772.01
579.04	60779.03
579.21	60839.89
579.37	60856.27
579.53	60926.49
579.69	60467.74
579.85	60666.69
580.01	60818.82
580.17	60690.09
580.33	60928.83
580.49	61036.49
580.65	60783.71
580.82	60832.86
580.98	60734.56
581.14	60748.60
581.30	60985.00
581.46	60842.23
581.62	60816.48
581.78	60626.90
581.94	60896.06
582.10	60877.33
582.26	61038.83
582.42	60865.63
582.58	60774.35
582.74	60725.20
582.90	60865.63
583.06	60849.25
583.22	60739.24
583.38	60870.31
583.54	60762.65
583.70	60783.71
583.86	60743.92
584.02	60938.19
584.18	61017.77
584.34	60846.91
584.50	60814.14
584.66	60687.75
584.82	60804.78
584.98	60956.91
585.14	61207.35
585.30	60783.71
585.46	60928.83
585.62	60999.04
585.78	60970.96
585.94	60582.43
586.10	60863.29
586.26	60797.76
586.42	60942.87
586.58	60970.96
586.74	61015.43
586.90	60743.92
587.06	60975.64
587.22	60977.98
587.38	61092.66
587.54	61073.94
587.70	61179.26
587.86	61013.08
588.02	60938.19
588.18	61282.25
588.34	60975.64
588.49	61034.15
588.65	60982.66
588.81	61134.79
588.97	61104.37
589.13	61006.06
589.29	61146.50
589.45	61125.43
589.61	61113.73
589.77	61254.16
589.93	61263.52
590.08	61165.22
590.24	61392.25
590.40	61212.03
590.56	61457.79
590.72	61457.79
590.88	60987.34
591.04	61169.90
591.20	61340.76
591.35	61127.77
591.51	61556.09
591.67	61343.10
591.83	61427.36
591.99	61200.33
592.15	61146.50
592.31	61305.65
592.46	61373.53
592.62	61300.97
592.78	61436.72
592.94	61336.08
593.10	61249.48
593.26	61364.17
593.41	61401.61
593.57	61282.25
593.73	61244.80
593.89	61616.94
594.05	61373.53
594.20	61434.38
594.36	61680.14
594.52	61410.98
594.68	61420.34
594.84	61244.80
594.99	61394.59
595.15	61464.81
595.31	61518.64
595.47	61310.33
595.62	61399.27
595.78	61174.58
595.94	61427.36
596.10	61666.09
596.25	61490.55
596.41	61467.15
596.57	61471.83
596.73	61605.24
596.88	61478.85
597.04	61429.70
597.20	61481.19
597.36	61560.77
597.51	61785.46
597.67	61275.22
597.83	61513.96
597.99	61602.90
598.14	61467.15
598.30	61661.41
598.46	61581.84
598.61	61605.24
598.77	61446.08
598.93	61607.58
599.09	61743.33
599.24	61879.08
599.40	61668.44
599.56	61748.01
599.71	61738.65
599.87	61654.39
600.03	61790.14
600.18	61581.84
600.34	61567.79
600.50	61593.54
600.65	61659.07
600.81	61715.25
600.97	61778.44
601.12	61525.66
601.28	61616.94
601.44	61525.66
601.59	61663.75
601.75	61443.74
601.91	61712.91
602.06	61736.31
602.22	61799.50
602.37	61743.33
602.53	61408.64
602.69	61717.59
602.84	61539.71
603.00	61591.20
603.16	61574.81
603.31	61513.96
603.47	61757.38
603.62	61642.69
603.78	61867.38
603.94	61535.02
604.09	61771.42
604.25	61673.12
604.40	61698.86
604.56	61797.16
604.71	61970.36
604.87	61581.84
605.03	61656.73
605.18	61616.94
605.34	61762.06
605.49	61518.64
605.65	61881.42
605.80	61623.96
605.96	61710.56
606.12	61820.57
606.27	61900.15
606.43	61605.24
606.58	61715.25
606.74	61553.75
606.89	61649.71
607.05	61670.78
607.20	61853.34
607.36	61556.09
607.51	61453.11
607.67	61520.98
607.82	61471.83
607.98	61591.20
608.13	61483.53
608.29	61490.55
608.44	61640.35
608.60	61481.19
608.75	61673.12
608.91	61263.52
609.06	61443.74
609.22	61528.00
609.37	61478.85
609.53	61476.51
609.68	61705.88
609.84	61387.57
609.99	61640.35
610.15	61560.77
610.30	61586.52
610.46	61558.43
610.61	61497.58
610.76	61523.32
610.92	61609.92
611.07	61516.30
611.23	61333.74
611.38	61633.33
611.54	61413.32
611.69	61481.19
611.84	61556.09
612.00	61394.59
612.15	61366.51
612.31	61532.68
612.46	61310.33
612.62	61523.32
612.77	61352.46
612.92	61469.49
613.08	61457.79
613.23	61410.98
613.39	61368.85
613.54	61244.80
613.69	61315.01
613.85	61214.37
614.00	61544.39
614.15	61443.74
614.31	61518.64
614.46	61551.41
614.62	61275.22
614.77	61338.42
614.92	61307.99
615.08	61322.04
615.23	61010.74
615.38	61307.99
615.54	61254.16
615.69	61293.95
615.84	61221.39
616.00	61331.40
616.15	61282.25
616.30	61361.82
616.46	61209.69
616.61	61151.18
616.76	61366.51
616.92	60982.66
617.07	61024.79
617.22	61167.56
617.37	61190.97
617.53	61408.64
617.68	61256.50
617.83	61235.44
617.99	61050.53
618.14	61111.39
618.29	61120.75
618.45	61104.37
618.60	61057.56
618.75	61057.56
618.90	60903.08
619.06	61219.05
619.21	60940.53
619.36	61092.66
619.51	61169.90
619.67	61036.49
619.82	61048.19
619.97	61207.35
620.12	60879.67
620.28	60938.19
620.43	60952.23
620.58	61024.79
620.73	61043.51
620.89	60985.00
621.04	61080.96
621.19	60750.94
621.34	60828.18
621.49	60701.79
621.65	60807.12
621.80	60882.02
621.95	60734.56
622.10	60975.64
622.25	60683.07
622.41	60720.52
622.56	60542.64
622.71	60921.80
622.86	60612.85
623.01	60530.93
623.16	60622.22
623.32	60769.67
623.47	60860.95
623.62	60804.78
623.77	60865.63
623.92	60842.23
624.07	60793.07
624.23	60652.64
624.38	60598.81
624.53	60577.75
624.68	60420.93
624.83	60725.20
624.98	60608.17
625.13	60350.71
625.29	60556.68
625.44	60446.68
625.59	60594.13
625.74	60514.55
625.89	60500.51
626.04	60357.74
626.19	60395.18
626.34	60425.61
626.49	60268.79
626.65	60221.98
626.80	60530.93
626.95	60203.26
627.10	60034.74
627.25	60238.37
627.40	60114.32
627.55	60107.30
627.70	60306.24
627.85	60247.73
628.00	60186.88
628.15	60353.05
628.30	60154.11
628.45	60261.77
628.60	59980.91
628.76	60123.68
628.91	60261.77
629.06	60044.10
629.21	60168.15
629.36	60009.00
629.51	60023.04
629.66	60013.68
629.81	59931.76
629.96	59941.12
630.11	60055.81
630.26	60093.25
630.41	60114.32
630.56	59978.57
630.71	60013.68
630.86	59973.89
631.01	59952.82
631.16	59943.46
631.31	59573.66
631.46	59608.76
631.61	59884.95
631.76	59880.27
631.91	59990.27
632.06	59807.71
632.21	59817.07
632.36	59732.81
632.51	59416.84
632.66	59847.50
632.81	59519.82
632.96	59784.30
633.10	59753.88
633.25	59898.99
633.40	60065.17
633.55	59969.21
633.70	59760.90
633.85	59533.87
634.00	59426.20
634.15	59529.19
634.30	59618.13
634.45	59683.66
634.60	59693.02
634.75	59447.27
634.90	59487.06
635.05	59636.85
635.19	59526.84
635.34	59505.78
635.49	59824.09
635.64	59508.12
635.79	59587.70
635.94	59440.24
636.09	59545.57
636.24	59145.34
636.39	59505.78
636.53	59622.81
636.68	59437.90
636.83	59473.01
636.98	59547.91
637.13	59334.92
637.28	59311.52
637.43	59355.99
637.57	59456.63
637.72	59245.98
637.87	59199.17
638.02	59278.75
638.17	59524.50
638.32	59245.98
638.46	59332.58
638.61	59334.92
638.76	59128.95
638.91	59288.11
639.06	59138.32
639.20	59110.23
639.35	59171.08
639.50	59075.12
639.65	59065.76
639.80	59189.81
639.94	59084.48
640.09	58988.52
640.24	59096.19
640.39	58937.03
640.54	58885.54
640.68	58958.09
640.83	58986.18
640.98	59103.21
641.13	58871.49
641.27	59222.58
641.42	58684.25
641.57	58958.09
641.72	58974.48
641.86	58745.11
642.01	58770.85
642.16	58852.77
642.31	58763.83
642.45	58976.82
642.60	58951.07
642.75	58941.71
642.90	58812.98
643.04	58953.41
643.19	58677.23
643.34	58712.34
643.48	58829.37
643.63	58843.41
643.78	58756.81
643.93	58791.92
644.07	58527.44
644.22	58489.99
644.37	58265.30
644.51	58328.49
644.66	58642.12
644.81	58597.65
644.95	58632.76
645.10	58543.82
645.25	58382.32
645.39	58438.50
645.54	58614.04
645.69	58454.88
645.83	58724.04
645.98	58372.96
646.13	58436.16
646.27	58227.85
646.42	58234.87
646.57	58422.11
646.71	58410.41
646.86	58417.43
647.00	58541.48
647.15	58363.60
647.30	58398.71
647.44	58567.23
647.59	58574.25
647.74	58494.67
647.88	58328.49
648.03	58541.48
648.17	58471.26
648.32	58089.76
648.47	58248.91
648.61	58216.14
648.76	58344.87
648.90	58157.63
649.05	58052.31
649.20	58150.61
649.34	58284.02
649.49	58281.68
649.63	58155.29
649.78	58532.12
649.92	58412.75
650.07	58178.70
650.21	57876.77
650.36	58138.91
650.51	57986.77
650.65	58309.77
650.80	57961.03
650.94	58131.89
651.09	57935.28
651.23	57698.89
651.38	58061.67
651.52	57858.04
651.67	57792.51
651.81	57860.38
651.96	57869.75
652.10	58035.92
652.25	57546.75
652.39	57968.05
652.54	57565.48
652.68	57546.75
652.83	57574.84
652.97	57886.13
653.12	57680.16
653.26	57598.24
653.41	57841.66
653.55	57757.40
653.70	57876.77
653.84	57750.38
653.99	57757.40
654.13	57558.45
654.27	57577.18
654.42	57324.40
654.56	57467.17
654.71	57579.52
654.85	57680.16
655.00	57712.93
655.14	57516.32
655.29	57415.68
655.43	57481.22
655.57	57476.54
655.72	57301.00
655.86	57263.55
656.01	57521.01
656.15	57249.50
656.30	57591.22
656.44	57581.86
656.58	57448.45
656.73	57137.16
656.87	57251.84
657.01	57411.00
657.16	57467.17
657.30	57244.82
657.45	57006.09
657.59	57296.31
657.73	57034.17
657.88	56947.57
658.02	57031.83
658.16	57144.18
658.31	56961.62
658.45	57062.26
658.60	57212.06
658.74	57069.28
658.88	56905.44
659.03	56746.29
659.17	56755.65
659.31	57036.51
659.46	56940.55
659.60	57022.47
659.74	57083.33
659.89	56736.93
660.03	56788.42
660.17	56828.21
660.32	56650.33
660.46	56912.47
660.60	56638.62
660.74	56643.30
660.89	56928.85
661.03	56418.61
661.17	56231.37
661.32	56051.15
661.46	56390.53
661.60	56449.04
661.74	56348.40
661.89	56310.95
662.03	56343.72
662.17	56287.54
662.31	56207.97
662.46	56369.46
662.60	56156.47
662.74	56219.67
662.88	55789.01
663.03	55835.82
663.17	55910.72
663.31	55744.54
663.45	55753.90
663.60	55564.32
663.74	55475.38
663.88	55845.18
664.02	55702.41
664.17	55852.20
664.31	55320.90
664.45	55653.26
664.59	55824.12
664.73	55447.29
664.88	55430.91
665.02	55224.94
665.16	55524.53
665.30	55323.24
665.44	55538.57
665.59	55351.33
665.73	55222.60
665.87	55236.64
666.01	55248.35
666.15	55381.76
666.29	55210.90
666.44	55292.82
666.58	54913.65
666.72	54777.90
666.86	54829.39
667.00	54775.56
667.14	54822.37
667.28	54740.45
667.43	54623.42
667.57	54724.07
667.71	54733.43
667.85	54639.81
667.99	54532.14
668.13	54101.48
668.27	54225.53
668.41	54443.20
668.56	53963.39
668.70	54183.40
668.84	53993.82
668.98	54000.84
669.12	54213.83
669.26	54197.44
669.40	53975.09
669.54	54124.89
669.68	54555.55
669.82	53907.22
669.96	53797.21
670.10	53909.56
670.25	54035.95
670.39	53783.17
670.53	53738.70
670.67	53799.55
670.81	54089.78
670.95	53682.53
671.09	53485.92
671.23	53441.45
671.37	53340.81
671.51	53249.53
671.65	53439.11
671.79	52863.34
671.93	53064.63
672.07	53368.90
672.21	52896.11
672.35	52851.64
672.49	52767.38
672.63	52692.48
672.77	52610.56
672.91	52601.20
673.05	52589.50
673.19	52505.24
673.33	51945.85
673.47	52238.42
673.61	52280.55
673.75	52397.57
673.89	51728.18
674.03	51877.97
674.17	52273.52
674.31	51770.31
674.45	51662.64
674.59	51545.62
674.73	51793.71
674.87	51594.77
675.01	51278.80
675.15	51351.35
675.29	51353.69
675.43	51192.20
675.56	51171.13
675.70	51079.85
675.84	50873.88
675.98	50145.98
676.12	50700.68
676.26	51004.95
676.40	50616.43
676.54	50468.97
676.68	50574.30
676.82	50094.49
676.96	50003.20
677.10	49940.01
677.23	50061.72
677.37	49996.18
677.51	50110.87
677.65	48985.07
677.79	48421.00
677.93	48842.30
678.07	49296.36
678.21	48971.03
678.34	48451.43
678.48	48898.47
678.62	48809.53
678.76	48603.56
678.90	48364.83
679.04	48552.07
679.18	48493.56
679.31	47910.77
679.45	47777.36
679.59	48137.80
679.73	47739.91
679.87	47679.05
680.00	47255.42
680.14	47114.98
680.28	47100.94
680.42	46958.17
680.56	46752.20
680.70	46426.87
680.83	46518.15
680.97	46225.58
681.11	46796.67
681.25	46333.24
681.39	46089.83
681.52	46550.91
681.66	45820.67
681.80	45418.10
681.94	45675.55
682.07	45605.34
682.21	45378.31
682.35	45507.04
682.49	45085.74
682.62	45647.47
682.76	44825.94
682.90	45162.98
683.04	44961.69
683.17	44563.80
683.31	44023.14
683.45	44395.28
683.59	43950.58
683.72	43442.68
683.86	43852.28
684.00	43763.34
684.13	44243.15
684.27	43423.96
684.41	43842.92
684.55	43840.57
684.68	43512.90
684.82	43016.71
684.96	42724.14
685.09	42885.64
685.23	42150.71
685.37	42326.25
685.50	42389.44
685.64	42195.18
685.78	42454.98
685.91	41900.27
686.05	41579.62
686.19	40877.46
686.32	41439.18
686.46	41092.79
686.60	40842.35
686.73	40992.14
686.87	40664.47
687.01	41013.21
687.14	40428.07
687.28	39950.60
687.42	40217.43
687.55	39885.07
687.69	40594.25
687.82	39311.64
687.96	39372.49
688.10	39412.28
688.23	39714.21
688.37	39625.27
688.50	38752.25
688.64	38859.91
688.78	38649.27
688.91	38408.19
689.05	38778.00
689.18	38511.17
689.32	37401.76
689.46	37748.16
689.59	37483.68
689.73	37647.52
689.86	37881.57
690.00	37205.16
690.13	37275.37
690.27	37198.13
690.41	37607.73
690.54	37266.01
690.68	36917.27
690.81	36346.18
690.95	36474.91
691.08	36311.07
691.22	36070.00
691.35	35866.37
691.49	35793.81
691.62	35627.63
691.76	35592.53
691.89	35079.95
692.03	35161.87
692.16	35070.59
692.30	35311.66
692.43	34796.74
692.57	34600.14
692.70	34506.52
692.84	34836.53
692.97	34590.78
693.11	34665.67
693.24	34199.91
693.38	33797.34
693.51	33357.32
693.65	33811.38
693.78	33006.23
693.92	33078.79
694.05	33120.92
694.19	33095.18
694.32	32996.87
694.45	32748.78
694.59	32591.96
694.72	32854.10
694.86	32650.47
694.99	32077.04
695.13	32416.42
695.26	31922.57
695.39	31351.48
695.53	31527.02
695.66	31557.44
695.80	31421.69
695.93	31068.27
696.07	30405.90
696.20	30466.75
696.33	30602.50
696.47	30911.46
696.60	30700.81
696.73	30382.49
696.87	29989.28
697.00	30110.99
697.14	30331.00
697.27	30005.67
697.40	29720.12
697.54	29692.04
697.67	29521.18
697.80	29352.66
697.94	29462.66
698.07	28900.94
698.21	28964.13
698.34	28877.53
698.47	28594.32
698.61	28030.26
698.74	28627.09
698.87	28369.63
699.01	27910.89
699.14	28259.63
699.27	27709.60
699.40	28261.97
699.54	27576.19
699.67	27199.37
699.80	27339.80
699.94	26916.16
700.07	27075.32
700.20	27096.38
700.34	26834.24
700.47	26438.69
700.60	26389.54
700.73	26569.76
700.87	25776.32
701.00	25975.27
701.13	25689.72
701.26	25914.41
701.40	25961.22
701.53	25750.57
701.66	25694.40
701.79	25071.82
701.93	25200.55
702.06	25032.03
702.19	24900.96
702.32	24592.01
702.46	24793.29
702.59	24444.56
702.72	24226.89
702.85	24744.14
702.99	24758.19
703.12	23971.77
703.25	23779.84
703.38	23672.18
703.51	23812.61
703.65	23377.27
703.78	23147.90
703.91	23342.16
704.04	22995.76
704.17	23222.80
704.31	22773.41
704.44	22696.17
704.57	22494.89
704.70	22574.47
704.83	22483.19
704.96	22345.09
705.10	22457.44
705.23	22033.80
>>>>>End Processed Spectral Data<<<<<
