SpectraSuite Data File
++++++++++++++++++++++++++++++++++++
Date: Fri Oct 25 11:22:28 EDT 2013
User: price-jones
Dark Spectrum Present: No
Reference Spectrum Present: No
Number of Sampled Component Spectra: 1
Spectrometers: USB2+H05261
Integration Time (usec): 100000 (USB2+H05261)
Spectra Averaged: 1 (USB2+H05261)
Boxcar Smoothing: 0 (USB2+H05261)
Correct for Electrical Dark: No (USB2+H05261)
Strobe/Lamp Enabled: No (USB2+H05261)
Correct for Detector Non-linearity: No (USB2+H05261)
Correct for Stray Light: No (USB2+H05261)
Number of Pixels in Processed Spectrum: 2048
>>>>>Begin Processed Spectral Data<<<<<
365.73	163.84
365.92	163.84
366.12	163.84
366.32	88.94
366.52	112.35
366.72	205.97
366.91	81.92
367.11	112.35
367.31	107.66
367.51	145.11
367.70	119.37
367.90	138.09
368.10	121.71
368.30	138.09
368.49	110.01
368.69	163.84
368.89	170.86
369.09	128.73
369.28	142.77
369.48	191.92
369.68	187.24
369.87	170.86
370.07	236.39
370.27	234.05
370.47	292.57
370.66	629.60
370.86	631.94
371.06	692.80
371.25	683.44
371.45	566.41
371.65	688.12
371.84	704.50
372.04	725.57
372.24	692.80
372.44	751.31
372.63	812.17
372.83	739.61
373.03	732.59
373.22	706.84
373.42	774.72
373.62	842.59
373.81	753.65
374.01	788.76
374.21	751.31
374.40	662.37
374.60	737.27
374.79	877.70
374.99	854.30
375.19	760.67
375.38	828.55
375.58	798.12
375.78	816.85
375.97	800.46
376.17	943.24
376.37	849.61
376.56	889.40
376.76	854.30
376.95	868.34
377.15	908.13
377.35	896.43
377.54	870.68
377.74	901.11
377.93	905.79
378.13	952.60
378.33	912.81
378.52	875.36
378.72	926.85
378.91	898.77
379.11	805.14
379.31	917.49
379.50	940.90
379.70	954.94
379.89	1055.58
380.09	931.53
380.28	957.28
380.48	1020.47
380.68	1025.15
380.87	1055.58
381.07	966.64
381.26	992.39
381.46	924.51
381.65	1025.15
381.85	1004.09
382.04	1062.60
382.24	1048.56
382.43	1081.33
382.63	1034.52
382.83	1074.31
383.02	1041.54
383.22	1156.22
383.41	1123.46
383.61	1093.03
383.80	1055.58
384.00	1132.82
384.19	1146.86
384.39	1116.44
384.58	1259.21
384.78	1083.67
384.97	1142.18
385.17	1203.04
385.36	1203.04
385.56	1240.48
385.75	1132.82
385.95	1151.54
386.14	1224.10
386.34	1104.73
386.53	1111.75
386.72	1235.80
386.92	1172.61
387.11	1177.29
387.31	1240.48
387.50	1259.21
387.70	1247.51
387.89	1205.38
388.09	1217.08
388.28	1306.02
388.48	1345.81
388.67	1376.24
388.86	1284.95
389.06	1273.25
389.25	1336.45
389.45	1320.06
389.64	1364.53
389.84	1439.43
390.03	1409.00
390.22	1306.02
390.42	1465.18
390.61	1359.85
390.81	1369.21
391.00	1416.02
391.19	1476.88
391.39	1416.02
391.58	1397.30
391.78	1425.39
391.97	1416.02
392.16	1453.47
392.36	1500.28
392.55	1430.07
392.75	1558.80
392.94	1497.94
393.13	1486.24
393.33	1439.43
393.52	1547.09
393.71	1507.30
393.91	1561.14
394.10	1521.35
394.29	1614.97
394.49	1650.08
394.68	1776.47
394.88	1643.06
395.07	1734.34
395.26	1657.10
395.46	1708.59
395.65	1687.53
395.84	1722.63
396.04	1806.89
396.23	1776.47
396.42	1720.29
396.62	1734.34
396.81	1813.92
397.00	1778.81
397.19	1802.21
397.39	1753.06
397.58	1853.70
397.77	1825.62
397.97	1839.66
398.16	1736.68
398.35	1891.15
398.55	1856.04
398.74	1947.33
398.93	2071.37
399.12	1947.33
399.32	1905.20
399.51	1909.88
399.70	2008.18
399.90	1944.99
400.09	1996.48
400.28	2008.18
400.47	2113.50
400.67	2019.88
400.86	2062.01
401.05	2113.50
401.24	1954.35
401.44	2080.74
401.63	2258.62
401.82	2188.40
402.01	2090.10
402.21	2125.21
402.40	2246.91
402.59	2232.87
402.78	2237.55
402.97	2293.72
403.17	2162.66
403.36	2347.56
403.55	2392.03
403.74	2389.69
403.93	2349.90
404.13	2392.03
404.32	2513.74
404.51	2403.73
404.70	2530.12
404.89	2408.41
405.09	2509.05
405.28	2534.80
405.47	2513.74
405.66	2553.52
405.85	2661.19
406.05	2490.33
406.24	2644.81
406.43	2693.96
406.62	2647.15
406.81	2787.58
407.00	2637.78
407.20	2574.59
407.39	2640.12
407.58	2869.50
407.77	2663.53
407.96	2663.53
408.15	2839.07
408.34	2651.83
408.54	2810.98
408.73	2848.43
408.92	3005.25
409.11	2855.45
409.30	2939.71
409.49	2942.05
409.68	2967.80
409.87	2991.20
410.07	2956.10
410.26	3000.57
410.45	3012.27
410.64	3131.64
410.83	3141.00
411.02	3159.72
411.21	3192.49
411.40	3206.53
411.59	3178.45
411.78	3110.57
411.98	3253.34
412.17	3311.86
412.36	3424.20
412.55	3302.50
412.74	3445.27
412.93	3386.76
413.12	3379.73
413.31	3590.38
413.50	3478.04
413.69	3541.23
413.88	3618.47
414.07	3758.90
414.26	3669.96
414.45	3679.32
414.64	3625.49
414.83	3808.05
415.02	3698.05
415.22	3810.39
415.41	3819.75
415.60	3981.25
415.79	3922.74
415.98	4077.21
416.17	4053.81
416.36	3948.48
416.55	4074.87
416.74	4236.37
416.93	4121.68
417.12	4238.71
417.31	4210.62
417.50	4327.65
417.69	4269.14
417.88	4189.56
418.07	4248.07
418.26	4348.72
418.45	4320.63
418.64	4346.37
418.83	4568.73
419.02	4437.66
419.21	4407.23
419.39	4475.10
419.58	4542.98
419.77	4395.53
419.96	4596.81
420.15	4580.43
420.34	4697.46
420.53	4585.11
420.72	4652.98
420.91	4758.31
421.10	4683.41
421.29	4870.65
421.48	4777.03
421.67	5013.43
421.86	4744.27
422.05	4800.44
422.24	4798.10
422.43	4833.21
422.61	5039.17
422.80	4959.60
422.99	4828.53
423.18	5006.41
423.37	5085.98
423.56	4987.68
423.75	5085.98
423.94	4891.72
424.13	4660.01
424.32	4788.74
424.50	5034.49
424.69	5167.90
424.88	5135.14
425.07	4968.96
425.26	4894.06
425.45	5060.24
425.64	5142.16
425.83	4929.17
426.01	5046.20
426.20	5076.62
426.39	5195.99
426.58	5050.88
426.77	5139.82
426.96	5261.52
427.15	5212.37
427.33	5247.48
427.52	5245.14
427.71	5336.42
427.90	5214.71
428.09	5514.30
428.28	5369.19
428.46	5369.19
428.65	5516.64
428.84	5542.39
429.03	5607.92
429.22	5530.69
429.40	5563.45
429.59	5617.29
429.78	5458.13
429.97	5345.78
430.16	5612.60
430.34	5781.12
430.53	5734.31
430.72	5661.76
430.91	5776.44
431.10	5657.07
431.28	5818.57
431.47	5834.96
431.66	5968.37
431.85	5785.80
432.03	6160.29
432.22	6155.61
432.41	6076.03
432.60	5982.41
432.79	5914.53
432.97	6127.52
433.16	6115.82
433.35	5930.92
433.54	6106.46
433.72	6113.48
433.91	6279.66
434.10	6263.27
434.28	6359.24
434.47	6317.11
434.66	6450.52
434.85	6342.85
435.03	6417.75
435.22	6455.20
435.41	6703.29
435.59	6604.99
435.78	6705.63
435.97	6511.37
436.16	6438.81
436.34	6466.90
436.53	6604.99
436.72	6993.52
436.90	6586.27
437.09	6609.67
437.28	6429.45
437.46	6656.48
437.65	6656.48
437.84	6904.58
438.02	6698.61
438.21	6766.49
438.40	6806.28
438.58	7192.47
438.77	7157.36
438.96	6916.28
439.14	7152.68
439.33	7480.35
439.52	7295.45
439.70	7297.79
439.89	7302.47
440.08	7485.03
440.26	7499.08
440.45	7311.83
440.63	7459.29
440.82	7709.72
441.01	7592.70
441.19	7538.87
441.38	7861.86
441.57	7758.88
441.75	7880.58
441.94	8187.19
442.12	7955.48
442.31	8131.02
442.50	8105.28
442.68	8086.55
442.87	8196.56
443.05	8308.90
443.24	8297.20
443.43	8353.37
443.61	8329.97
443.80	8456.36
443.98	8060.80
444.17	7880.58
444.35	8327.63
444.54	8484.44
444.73	8245.71
444.91	8535.93
445.10	8372.10
445.28	8425.93
445.47	8255.07
445.65	8365.07
445.84	8521.89
446.02	8439.97
446.21	8575.72
446.39	8606.15
446.58	8622.53
446.77	8451.67
446.95	8489.12
447.14	8573.38
447.32	8711.47
447.51	8650.62
447.69	8655.30
447.88	8533.59
448.06	8751.26
448.25	8475.08
448.43	8809.78
448.62	8812.12
448.80	8816.80
448.99	8863.61
449.17	8924.46
449.36	8643.60
449.54	8875.31
449.73	8997.02
449.91	9102.34
450.10	8959.57
450.28	9006.38
450.46	9181.92
450.65	9022.77
450.83	8997.02
451.02	9130.43
451.20	9472.15
451.39	9130.43
451.57	9453.42
451.76	9142.13
451.94	9413.63
452.13	9525.98
452.31	9462.79
452.49	9263.84
452.68	9572.79
452.86	9444.06
453.05	9551.73
453.23	9708.54
453.42	9465.13
453.60	9359.80
453.78	9582.15
453.97	9469.81
454.15	9650.03
454.34	9816.21
454.52	9954.30
454.70	9834.93
454.89	9905.15
455.07	9877.06
455.26	9987.07
455.44	9916.85
455.62	9811.53
455.81	10008.13
455.99	10150.90
456.17	10141.54
456.36	10143.88
456.54	10279.63
456.73	10370.91
456.91	10415.38
457.09	10614.33
457.28	10892.85
457.46	10532.41
457.64	10736.04
457.83	10553.48
458.01	10738.38
458.19	10895.19
458.38	10654.12
458.56	10897.53
458.74	10824.98
458.93	10822.64
459.11	10829.66
459.29	10939.66
459.48	10942.00
459.66	11126.91
459.84	10916.26
460.03	11225.21
460.21	10874.13
460.39	11070.73
460.57	10895.19
460.76	11145.63
460.94	11323.51
461.12	11218.19
461.31	11250.96
461.49	11480.33
461.67	11644.17
461.85	11440.54
462.04	11494.37
462.22	11576.29
462.40	11604.38
462.59	11623.10
462.77	11590.33
462.95	11880.56
463.13	11620.76
463.32	11644.17
463.50	11808.00
463.68	11822.05
463.86	11981.20
464.05	11833.75
464.23	12004.61
464.41	12063.12
464.59	11733.11
464.78	12219.94
464.96	12105.25
465.14	11971.84
465.32	12086.53
465.50	12367.39
465.69	12208.23
465.87	12238.66
466.05	12131.00
466.23	12358.03
466.41	12435.27
466.60	12690.38
466.78	12276.11
466.96	12465.69
467.14	12524.21
467.32	12472.71
467.51	12767.62
467.69	12346.33
467.87	12531.23
468.05	12952.52
468.23	12540.59
468.41	12718.47
468.60	12439.95
468.78	12994.65
468.96	12599.10
469.14	12879.97
469.32	13198.28
469.50	12947.84
469.69	13242.75
469.87	13289.56
470.05	13308.29
470.23	13408.93
470.41	12938.48
470.59	13418.29
470.77	13469.78
470.95	13209.98
471.14	13549.36
471.32	13282.54
471.50	13867.67
471.68	13748.31
471.86	13671.07
472.04	13951.93
472.22	13991.72
472.40	13579.79
472.58	13867.67
472.77	14029.17
472.95	14118.11
473.13	14806.23
473.31	14197.69
473.49	14260.88
473.67	14293.65
473.85	14546.43
474.03	14860.06
474.21	14864.74
474.39	14768.78
474.57	14925.60
474.75	14939.64
474.93	15016.88
475.12	15164.33
475.30	15279.02
475.48	15101.14
475.66	15552.86
475.84	15316.47
476.02	15393.70
476.20	15522.43
476.38	15763.51
476.56	16226.93
476.74	16376.73
476.92	16081.82
477.10	16049.05
477.28	16212.89
477.46	16191.83
477.64	16318.22
477.82	16582.70
478.00	17099.95
478.18	17338.69
478.36	17254.43
478.54	17352.73
478.72	17371.46
478.90	17575.08
479.08	18171.92
479.26	17947.23
479.44	17982.34
479.62	17877.01
479.80	18094.68
479.98	18185.96
480.16	18874.08
480.34	18492.57
480.52	18927.91
480.70	18838.97
480.88	18668.11
481.06	18853.02
481.24	19143.24
481.41	19625.39
481.59	19445.17
481.77	19541.13
481.95	19929.66
482.13	20016.26
482.31	20123.93
482.49	20355.64
482.67	20386.07
482.85	20751.19
483.03	20479.69
483.21	21097.59
483.39	21425.26
483.57	21266.11
483.74	21486.12
483.92	21706.13
484.10	21488.46
484.28	21752.94
484.46	22125.08
484.64	22759.37
484.82	22321.69
485.00	22324.03
485.18	23117.47
485.35	23241.52
485.53	22916.19
485.71	23246.20
485.89	23384.29
486.07	23782.18
486.25	23623.03
486.43	23997.51
486.61	24524.13
486.78	24364.98
486.96	24484.34
487.14	24924.36
487.32	25020.33
487.50	25610.14
487.68	25125.65
487.85	25411.20
488.03	25865.26
488.21	25982.29
488.39	26197.62
488.57	26452.73
488.75	26614.23
488.92	27143.19
489.10	27381.93
489.28	27070.64
489.46	27402.99
489.64	27566.83
489.81	27943.66
489.99	28039.62
490.17	28203.46
490.35	28872.85
490.53	28261.97
490.70	28479.64
490.88	28570.92
491.06	29149.03
491.24	29076.48
491.41	29303.51
491.59	29549.26
491.77	29237.97
491.95	30349.73
492.13	30197.59
492.30	30309.94
492.48	30361.43
492.66	30445.69
492.84	30532.29
493.01	31152.53
493.19	30934.86
493.37	31632.34
493.54	31515.31
493.72	32081.72
493.90	31967.04
494.08	32238.54
494.25	32388.33
494.43	32657.49
494.61	32545.15
494.79	32833.04
494.96	33163.05
495.14	33539.88
495.32	33825.42
495.49	33844.15
495.67	33799.68
495.85	34235.02
496.02	34242.04
496.20	34515.88
496.38	34543.97
496.55	34473.75
496.73	35126.76
496.91	34986.33
497.09	35445.07
497.26	35452.09
497.44	35747.00
497.62	35913.18
497.79	36388.31
497.97	36100.42
498.14	36219.79
498.32	36641.09
498.50	36746.41
498.67	36889.18
498.85	36753.43
499.03	37350.27
499.20	36966.42
499.38	37645.18
499.56	37237.92
499.73	37448.57
499.91	37635.81
500.08	38391.81
500.26	37993.92
500.44	38066.47
500.61	38457.34
500.79	38277.12
500.97	38710.12
501.14	39210.99
501.32	39173.55
501.49	39131.42
501.67	39374.83
501.84	39562.08
502.02	39374.83
502.20	39309.30
502.37	39604.20
502.55	40002.10
502.72	40147.21
502.90	40217.43
503.07	39707.19
503.25	40095.72
503.43	40446.80
503.60	40657.45
503.78	40772.13
503.95	40877.46
504.13	40947.67
504.30	40933.63
504.48	40840.01
504.65	41041.29
504.83	41703.67
505.01	41834.74
505.18	42178.79
505.36	42054.75
505.53	41839.42
505.71	42026.66
505.88	42382.42
506.06	42108.58
506.23	42494.77
506.41	42351.99
506.58	42789.67
506.76	42438.59
506.93	43091.60
507.11	42646.90
507.28	43196.93
507.46	43358.42
507.63	43440.34
507.81	43753.97
507.98	43089.26
508.16	43819.51
508.33	43695.46
508.50	43828.87
508.68	44217.40
508.85	44598.91
509.03	44203.36
509.20	44629.34
509.38	45324.47
509.55	45015.52
509.73	44713.59
509.90	45036.59
510.08	45148.93
510.25	45177.02
510.42	45123.19
510.60	45598.32
510.77	45544.48
510.95	45879.18
511.12	45975.14
511.30	45556.19
511.47	46000.89
511.64	45876.84
511.82	46307.50
511.99	46036.00
512.17	46354.31
512.34	46300.48
512.51	46972.21
512.69	46937.10
512.86	46740.50
513.04	46873.91
513.21	46803.69
513.38	47445.00
513.56	47178.18
513.73	47255.42
513.90	47297.55
514.08	47763.31
514.25	47971.62
514.43	47845.23
514.60	48233.76
514.77	47894.38
514.95	48198.65
515.12	48158.86
515.29	48105.03
515.47	48378.87
515.64	48751.02
515.81	48580.16
515.99	48823.58
516.16	48968.69
516.33	48879.75
516.51	48940.60
516.68	48875.07
516.85	49036.56
517.03	49256.57
517.20	49434.45
517.37	49214.44
517.54	49521.05
517.72	49303.38
517.89	49635.74
518.06	49624.04
518.24	49752.77
518.41	49991.50
518.58	49890.86
518.75	49869.79
518.93	49904.90
519.10	50042.99
519.27	50239.60
519.45	50246.62
519.62	50085.12
519.79	50656.21
519.96	50494.72
520.14	50696.00
520.31	50618.77
520.48	50827.07
520.65	50913.67
520.83	50925.38
521.00	51203.90
521.17	50752.18
521.34	51014.32
521.52	51519.87
521.69	51278.80
521.86	51760.95
522.03	51646.26
522.20	51889.68
522.38	51807.76
522.55	51957.55
522.72	51831.16
522.89	51807.76
523.07	52119.05
523.24	51943.51
523.41	52013.73
523.58	51753.93
523.75	52376.51
523.92	52072.24
524.10	52617.58
524.27	52435.02
524.44	52341.40
524.61	52498.22
524.78	52762.70
524.96	52708.86
525.13	52570.77
525.30	52732.27
525.47	53097.39
525.64	52905.47
525.81	52996.75
525.98	53270.59
526.16	53045.90
526.33	52952.28
526.50	53380.60
526.67	53282.30
526.84	52971.00
527.01	53272.93
527.18	53059.94
527.36	53504.65
527.53	53506.99
527.70	53607.63
527.87	53645.08
528.04	53310.38
528.21	53673.16
528.38	53558.48
528.55	53986.80
528.72	53567.84
528.89	53874.45
529.07	53705.93
529.24	53656.78
529.41	54061.69
529.58	53942.33
529.75	53958.71
529.92	54232.55
530.09	54232.55
530.26	54433.84
530.43	54365.96
530.60	54295.75
530.77	54300.43
530.94	54576.61
531.11	54424.48
531.28	54557.89
531.46	54349.58
531.63	54808.32
531.80	54625.76
531.97	54866.84
532.14	54834.07
532.31	54824.71
532.48	54901.95
532.65	54738.11
532.82	54920.67
532.99	55049.40
533.16	55056.42
533.33	55178.13
533.50	55229.62
533.67	55318.56
533.84	54761.51
534.01	55238.98
534.18	55096.21
534.35	55686.03
534.52	55412.18
534.69	55573.68
534.86	55789.01
535.03	55402.82
535.20	55604.11
535.37	55524.53
535.54	55791.35
535.71	55599.43
535.88	55845.18
536.05	55622.83
536.22	55796.03
536.38	56196.26
536.55	56016.04
536.72	55913.06
536.89	55894.33
537.06	55877.95
537.23	55994.98
537.40	56121.37
537.57	55983.27
537.74	56137.75
537.91	56334.35
538.08	56128.39
538.25	56212.65
538.42	56250.09
538.59	56416.27
538.75	56287.54
538.92	56376.48
539.09	56465.42
539.26	56158.81
539.43	56383.51
539.60	56495.85
539.77	56395.21
539.94	56645.65
540.11	56727.56
540.28	56797.78
540.44	56706.50
540.61	56783.74
540.78	56640.96
540.95	56666.71
541.12	56746.29
541.29	56790.76
541.46	56994.39
541.62	56875.02
541.79	57073.96
541.96	56942.89
542.13	56797.78
542.30	57055.24
542.47	57336.10
542.63	56968.64
542.80	57099.71
542.97	57265.89
543.14	57504.62
543.31	57525.69
543.48	57694.21
543.64	57680.16
543.81	57738.68
543.98	57839.32
544.15	57687.18
544.32	57780.81
544.48	57923.58
544.65	57846.34
544.82	57832.30
544.99	57783.15
545.16	57525.69
545.32	57867.40
545.49	58064.01
545.66	58092.10
545.83	57855.70
546.00	58155.29
546.16	58085.07
546.33	57841.66
546.50	57956.35
546.67	58087.42
546.83	57579.52
547.00	58075.71
547.17	58054.65
547.34	57942.30
547.50	58520.41
547.67	58312.11
547.84	58326.15
548.00	58333.17
548.17	58335.51
548.34	58391.68
548.51	58618.72
548.67	58583.61
548.84	58424.45
549.01	58143.59
549.18	58550.84
549.34	58459.56
549.51	58829.37
549.68	58607.01
549.84	58625.74
550.01	58714.68
550.18	58445.52
550.34	58749.79
550.51	58665.53
550.68	58841.07
550.84	58656.17
551.01	59014.27
551.18	58820.00
551.34	58794.26
551.51	58731.06
551.68	58733.40
551.84	58904.26
552.01	58969.80
552.18	58941.71
552.34	58569.57
552.51	59327.90
552.68	58749.79
552.84	58960.44
553.01	59344.28
553.18	59175.76
553.34	59096.19
553.51	59194.49
553.67	59131.29
553.84	59215.55
554.01	59348.96
554.17	59260.02
554.34	59306.83
554.51	59409.82
554.67	59393.43
554.84	59213.21
555.00	59372.37
555.17	59185.13
555.33	59255.34
555.50	59058.74
555.67	59337.26
555.83	59128.95
556.00	59536.21
556.16	59901.33
556.33	59512.80
556.50	59650.89
556.66	59814.73
556.83	59550.25
556.99	59683.66
557.16	59700.04
557.32	59901.33
557.49	59786.64
557.65	59604.08
557.82	59793.67
557.98	59898.99
558.15	59620.47
558.32	59910.69
558.48	59620.47
558.65	59791.33
558.81	59683.66
558.98	59978.57
559.14	60001.97
559.31	59948.14
559.47	60303.90
559.64	59917.71
559.80	59957.50
559.97	59936.44
560.13	59760.90
560.30	60030.06
560.46	60236.03
560.63	59842.82
560.79	60193.90
560.96	60247.73
561.12	60179.85
561.29	60165.81
561.45	60172.83
561.61	60140.07
561.78	60121.34
561.94	60161.13
562.11	60212.62
562.27	60142.41
562.44	60512.21
562.60	60158.79
562.77	60350.71
562.93	60123.68
563.10	60362.42
563.26	60034.74
563.42	60495.83
563.59	60320.29
563.75	60453.70
563.92	60130.70
564.08	60374.12
564.24	60617.53
564.41	60603.49
564.57	60303.90
564.74	60629.24
564.90	60540.30
565.07	60392.84
565.23	60437.31
565.39	60505.19
565.56	60432.63
565.72	60481.78
565.88	60444.33
566.05	60327.31
566.21	60669.03
566.38	60603.49
566.54	60535.62
566.70	60636.26
566.87	60727.54
567.03	60589.45
567.19	60851.59
567.36	60540.30
567.52	60722.86
567.68	60697.11
567.85	60706.47
568.01	60601.15
568.17	60814.14
568.34	60601.15
568.50	60762.65
568.66	60514.55
568.83	60776.69
568.99	60589.45
569.15	60746.26
569.32	60793.07
569.48	60657.32
569.64	60734.56
569.81	60762.65
569.97	60729.88
570.13	60872.65
570.30	60654.98
570.46	60870.31
570.62	60947.55
570.78	60774.35
570.95	60837.54
571.11	60874.99
571.27	60662.00
571.43	60994.36
571.60	61006.06
571.76	60970.96
571.92	61059.90
572.09	60846.91
572.25	60970.96
572.41	60867.97
572.57	60949.89
572.74	61052.87
572.90	60975.64
573.06	60849.25
573.22	60842.23
573.38	61017.77
573.55	60823.50
573.71	60966.27
573.87	60992.02
574.03	60982.66
574.20	60994.36
574.36	60985.00
574.52	60942.87
574.68	61137.13
574.84	61401.61
575.01	60975.64
575.17	60928.83
575.33	60807.12
575.49	60795.42
575.65	61036.49
575.82	61050.53
575.98	61076.28
576.14	61319.70
576.30	61167.56
576.46	60977.98
576.62	60926.49
576.79	61022.45
576.95	61041.17
577.11	61102.03
577.27	61118.41
577.43	61181.60
577.59	61076.28
577.75	61207.35
577.92	61041.17
578.08	61059.90
578.24	61223.73
578.40	61099.68
578.56	61315.01
578.72	61183.94
578.88	60994.36
579.04	61141.81
579.21	60956.91
579.37	61307.99
579.53	61190.97
579.69	61216.71
579.85	61155.86
580.01	61092.66
580.17	61209.69
580.33	61209.69
580.49	61158.20
580.65	61062.24
580.82	61015.43
580.98	61172.24
581.14	61139.47
581.30	61272.88
581.46	61200.33
581.62	61343.10
581.78	61024.79
581.94	61134.79
582.10	61219.05
582.26	61296.29
582.42	61097.34
582.58	61197.99
582.74	61268.20
582.90	61235.44
583.06	61296.29
583.22	61263.52
583.38	61455.45
583.54	61340.76
583.70	61197.99
583.86	61305.65
584.02	61219.05
584.18	61439.06
584.34	61315.01
584.50	61305.65
584.66	60980.32
584.82	60977.98
584.98	61268.20
585.14	61425.02
585.30	61207.35
585.46	61197.99
585.62	61300.97
585.78	61462.47
585.94	61293.95
586.10	61415.66
586.26	61200.33
586.42	61476.51
586.58	61385.23
586.74	61256.50
586.90	61153.52
587.06	61258.84
587.22	61389.91
587.38	61556.09
587.54	61483.53
587.70	61602.90
587.86	61378.21
588.02	61343.10
588.18	61572.47
588.34	61434.38
588.49	61305.65
588.65	61422.68
588.81	61254.16
588.97	61460.13
589.13	61439.06
589.29	61502.26
589.45	61558.43
589.61	61558.43
589.77	61584.18
589.93	61684.82
590.08	61609.92
590.24	61684.82
590.40	61886.10
590.56	61825.25
590.72	61661.41
590.88	61572.47
591.04	61607.58
591.20	61836.95
591.35	61888.45
591.51	61858.02
591.67	61710.56
591.83	61834.61
591.99	61563.11
592.15	61731.63
592.31	61776.10
592.46	61689.50
592.62	61668.44
592.78	61607.58
592.94	61839.29
593.10	61677.80
593.26	61953.98
593.41	61748.01
593.57	61762.06
593.73	61724.61
593.89	61829.93
594.05	61806.53
594.20	61745.67
594.36	61928.23
594.52	61815.89
594.68	61818.23
594.84	61715.25
594.99	61872.06
595.15	61708.22
595.31	62075.69
595.47	61588.86
595.62	61755.03
595.78	61703.54
595.94	61689.50
596.10	62061.64
596.25	61825.25
596.41	61968.02
596.57	61787.80
596.73	61883.76
596.88	61979.73
597.04	61904.83
597.20	61886.10
597.36	61872.06
597.51	62195.06
597.67	61682.48
597.83	61670.78
597.99	61834.61
598.14	61958.66
598.30	61834.61
598.46	61963.34
598.61	62028.88
598.77	62000.79
598.93	62129.52
599.09	61937.60
599.24	62082.71
599.40	62017.17
599.56	62014.83
599.71	62096.75
599.87	62101.43
600.03	61862.70
600.18	62216.12
600.34	61888.45
600.50	62033.56
600.65	62007.81
600.81	62155.27
600.97	61984.41
601.12	62017.17
601.28	61867.38
601.44	61916.53
601.59	62181.01
601.75	61925.89
601.91	62347.19
602.06	62021.86
602.22	62251.23
602.37	61879.08
602.53	61930.58
602.69	62138.88
602.84	61872.06
603.00	62183.35
603.16	62035.90
603.31	62110.80
603.47	62159.95
603.62	62206.76
603.78	62063.99
603.94	62089.73
604.09	62145.90
604.25	61928.23
604.40	62082.71
604.56	62101.43
604.71	62234.84
604.87	61879.08
605.03	62024.20
605.18	62173.99
605.34	62136.54
605.49	61914.19
605.65	62113.14
605.80	62213.78
605.96	62164.63
606.12	62234.84
606.27	62269.95
606.43	61867.38
606.58	62202.08
606.74	61902.49
606.89	62026.54
607.05	61996.11
607.20	61984.41
607.36	61979.73
607.51	62073.35
607.67	61827.59
607.82	61874.40
607.98	61998.45
608.13	61921.21
608.29	62108.46
608.44	61862.70
608.60	61808.87
608.75	61911.85
608.91	61872.06
609.06	61626.31
609.22	62117.82
609.37	61897.81
609.53	61888.45
609.68	61822.91
609.84	61953.98
609.99	61858.02
610.15	61937.60
610.30	61862.70
610.46	61925.89
610.61	62010.15
610.76	61647.37
610.92	61855.68
611.07	61724.61
611.23	61759.72
611.38	61811.21
611.54	61858.02
611.69	61705.88
611.84	61773.76
612.00	61930.58
612.15	61776.10
612.31	61893.13
612.46	61584.18
612.62	61708.22
612.77	61780.78
612.92	61825.25
613.08	61860.36
613.23	61726.95
613.39	61799.50
613.54	61764.40
613.69	61715.25
613.85	61738.65
614.00	61726.95
614.15	61733.97
614.31	61680.14
614.46	61762.06
614.62	61750.35
614.77	61696.52
614.92	61542.05
615.08	61609.92
615.23	61577.15
615.38	61640.35
615.54	61537.36
615.69	61787.80
615.84	61609.92
616.00	61841.63
616.15	61511.62
616.30	61783.12
616.46	61630.99
616.61	61570.13
616.76	61642.69
616.92	61591.20
617.07	61497.58
617.22	61359.48
617.37	61315.01
617.53	61743.33
617.68	61757.38
617.83	61652.05
617.99	61628.65
618.14	61712.91
618.29	61605.24
618.45	61425.02
618.60	61453.11
618.75	61303.31
618.90	61443.74
619.06	61436.72
619.21	61598.22
619.36	61579.49
619.51	61443.74
619.67	61123.09
619.82	61319.70
619.97	61453.11
620.12	61352.46
620.28	61200.33
620.43	61415.66
620.58	61268.20
620.73	61181.60
620.89	61174.58
621.04	61626.31
621.19	61460.13
621.34	61251.82
621.49	61240.12
621.65	61254.16
621.80	61539.71
621.95	61296.29
622.10	61172.24
622.25	61034.15
622.41	61085.64
622.56	61151.18
622.71	61209.69
622.86	60928.83
623.01	61029.47
623.16	60945.21
623.32	61080.96
623.47	61160.54
623.62	61216.71
623.77	61158.20
623.92	61078.62
624.07	61162.88
624.23	61205.01
624.38	61092.66
624.53	61001.38
624.68	61010.74
624.83	61127.77
624.98	60900.74
625.13	60865.63
625.29	60896.06
625.44	61055.21
625.59	60926.49
625.74	60844.57
625.89	60851.59
626.04	60825.84
626.19	60626.90
626.34	60809.46
626.49	60615.19
626.65	60542.64
626.80	60793.07
626.95	60708.82
627.10	60720.52
627.25	60582.43
627.40	60659.66
627.55	60697.11
627.70	60612.85
627.85	60781.37
628.00	60432.63
628.15	60671.37
628.30	60580.09
628.45	60687.75
628.60	60479.44
628.76	60591.79
628.91	60694.77
629.06	60537.96
629.21	60523.91
629.36	60406.89
629.51	60474.76
629.66	60491.15
629.81	60353.05
629.96	60413.91
630.11	60154.11
630.26	60296.88
630.41	60699.45
630.56	60472.42
630.71	60420.93
630.86	60481.78
631.01	60353.05
631.16	60388.16
631.31	60264.11
631.46	60133.04
631.61	60224.32
631.76	60219.64
631.91	60388.16
632.06	60516.89
632.21	60371.78
632.36	60346.03
632.51	59962.18
632.66	60229.01
632.81	60163.47
632.96	60275.82
633.10	60331.99
633.25	60067.51
633.40	60158.79
633.55	60275.82
633.70	60086.23
633.85	59877.93
634.00	59856.86
634.15	60055.81
634.30	59856.86
634.45	60046.44
634.60	60135.38
634.75	60214.96
634.90	59833.46
635.05	59861.54
635.19	59964.52
635.34	59791.33
635.49	59941.12
635.64	59833.46
635.79	59863.88
635.94	60046.44
636.09	59868.56
636.24	59611.10
636.39	59838.14
636.53	59908.35
636.68	59889.63
636.83	59798.35
636.98	59831.11
637.13	59845.16
637.28	59803.03
637.43	59835.80
637.57	59845.16
637.72	59604.08
637.87	59744.51
638.02	59681.32
638.17	59807.71
638.32	59643.87
638.46	59597.06
638.61	59779.62
638.76	59309.18
638.91	59608.76
639.06	59749.20
639.20	59437.90
639.35	59475.35
639.50	59435.56
639.65	59255.34
639.80	59519.82
639.94	59276.41
640.09	59276.41
640.24	59468.33
640.39	59463.65
640.54	59405.14
640.68	59430.88
640.83	59480.03
640.98	59442.59
641.13	59379.39
641.27	59746.86
641.42	59288.11
641.57	59316.20
641.72	59381.73
641.86	59412.16
642.01	59168.74
642.16	59267.05
642.31	59320.88
642.45	59393.43
642.60	59173.42
642.75	59440.24
642.90	59199.17
643.04	59262.36
643.19	59152.36
643.34	59068.10
643.48	59292.79
643.63	59131.29
643.78	59128.95
643.93	59004.91
644.07	59299.81
644.22	59367.69
644.37	59051.72
644.51	59117.25
644.66	59241.30
644.81	59014.27
644.95	59082.14
645.10	58897.24
645.25	58836.39
645.39	58948.73
645.54	58857.45
645.69	58637.44
645.83	58869.15
645.98	58625.74
646.13	58972.14
646.27	58752.13
646.42	58836.39
646.57	58625.74
646.71	58637.44
646.86	59011.93
647.00	58997.88
647.15	58672.55
647.30	58808.30
647.44	58733.40
647.59	58684.25
647.74	58780.21
647.88	58784.90
648.03	58972.14
648.17	58770.85
648.32	58602.33
648.47	58794.26
648.61	58780.21
648.76	58553.18
648.90	58705.32
649.05	58768.51
649.20	58890.22
649.34	58672.55
649.49	58607.01
649.63	58639.78
649.78	58812.98
649.92	58660.85
650.07	58712.34
650.21	58569.57
650.36	58291.04
650.51	58344.87
650.65	58508.71
650.80	58485.31
650.94	58307.43
651.09	58110.82
651.23	58066.35
651.38	58354.24
651.52	58192.74
651.67	58347.21
651.81	58141.25
651.96	58129.54
652.10	58403.39
652.25	58300.40
652.39	58401.05
652.54	58078.05
652.68	57975.07
652.83	58110.82
652.97	58267.64
653.12	58138.91
653.26	58209.12
653.41	58244.23
653.55	58211.46
653.70	57968.05
653.84	58211.46
653.99	57914.22
654.13	58010.18
654.27	58028.90
654.42	58000.82
654.56	58131.89
654.71	57930.60
654.85	57881.45
655.00	58049.97
655.14	58143.59
655.29	57804.21
655.43	57888.47
655.57	57897.83
655.72	57792.51
655.86	57792.51
656.01	57792.51
656.15	57696.55
656.30	57787.83
656.44	57963.37
656.58	57923.58
656.73	57820.59
656.87	57764.42
657.01	57853.36
657.16	57825.28
657.30	57719.95
657.45	57797.19
657.59	57609.95
657.73	57319.72
657.88	57366.53
658.02	57521.01
658.16	57609.95
658.31	57563.14
658.45	57450.79
658.60	57593.56
658.74	57352.49
658.88	57542.07
659.03	57261.21
659.17	57228.44
659.31	57436.75
659.46	57158.22
659.60	57249.50
659.74	57301.00
659.89	57282.27
660.03	57055.24
660.17	57261.21
660.32	57146.52
660.46	57024.81
660.60	56978.00
660.74	57041.20
660.89	57099.71
661.03	56879.70
661.17	56868.00
661.32	56718.20
661.46	56846.93
661.60	56893.74
661.74	56765.01
661.89	56741.61
662.03	56495.85
662.17	56713.52
662.31	56697.14
662.46	56914.81
662.60	56580.11
662.74	56247.75
662.88	56238.39
663.03	56493.51
663.17	56205.62
663.31	55899.01
663.45	56278.18
663.60	56086.26
663.74	55824.12
663.88	56210.31
664.02	56039.45
664.17	56156.47
664.31	56020.72
664.45	56083.92
664.59	56104.98
664.73	56266.48
664.88	56004.34
665.02	55231.96
665.16	55861.57
665.30	55545.59
665.44	55636.87
665.59	55585.38
665.73	55543.25
665.87	55679.00
666.01	55597.09
666.15	55430.91
666.29	55285.79
666.44	55423.89
666.58	55442.61
666.72	55131.32
666.86	55363.03
667.00	55143.02
667.14	55173.45
667.28	55051.74
667.43	55072.81
667.57	55161.75
667.71	55049.40
667.85	54986.21
667.99	54986.21
668.13	55075.15
668.27	55037.70
668.41	55065.78
668.56	54855.14
668.70	54705.34
668.84	54684.28
668.98	54843.43
669.12	54815.35
669.26	54953.44
669.40	54597.68
669.54	54433.84
669.68	54260.64
669.82	54265.32
669.96	54323.83
670.10	54466.61
670.25	54447.88
670.39	54384.69
670.53	54141.27
670.67	54094.46
670.81	54443.20
670.95	54206.81
671.09	53694.23
671.23	53755.08
671.37	53794.87
671.51	53783.17
671.65	53509.33
671.79	53645.08
671.93	53696.57
672.07	53684.87
672.21	53354.85
672.35	53130.16
672.49	53464.86
672.63	53066.97
672.77	52999.09
672.91	53279.96
673.05	53148.88
673.19	52849.30
673.33	52648.01
673.47	52835.25
673.61	53116.12
673.75	52875.04
673.89	52884.40
674.03	52308.63
674.17	52381.19
674.31	52353.10
674.45	52048.83
674.59	52222.03
674.73	52465.45
674.87	52018.41
675.01	52105.01
675.15	52032.45
675.29	51870.95
675.43	52044.15
675.56	51796.06
675.70	51421.57
675.84	51325.61
675.98	50447.91
676.12	51327.95
676.26	51253.05
676.40	51491.79
676.54	51119.64
676.68	51213.26
676.82	50302.79
676.96	50665.58
677.10	50586.00
677.23	50094.49
677.37	50576.64
677.51	50417.48
677.65	49902.56
677.79	49350.20
677.93	49705.96
678.07	49703.62
678.21	49413.39
678.34	49408.71
678.48	49198.06
678.62	49177.00
678.76	49169.97
678.90	48360.15
679.04	48846.98
679.18	49085.72
679.31	48509.94
679.45	48673.78
679.59	48603.56
679.73	48582.50
679.87	48477.18
680.00	47550.32
680.14	47508.19
680.28	47915.45
680.42	47751.61
680.56	47505.85
680.70	47171.16
680.83	47353.72
680.97	47421.59
681.11	47480.11
681.25	47402.87
681.39	46841.14
681.52	46988.60
681.66	46731.14
681.80	46057.06
681.94	46829.44
682.07	46305.16
682.21	46529.85
682.35	45663.85
682.49	45626.40
682.62	45806.62
682.76	46131.96
682.90	46122.60
683.04	45324.47
683.17	45193.40
683.31	44722.96
683.45	44858.71
683.59	44751.04
683.72	44900.84
683.86	44626.99
684.00	44704.23
684.13	44526.35
684.27	44037.18
684.41	43821.85
684.55	44161.23
684.68	44081.65
684.82	43555.03
684.96	43337.36
685.09	43665.03
685.23	43189.91
685.37	42717.12
685.50	42719.46
685.64	42859.89
685.78	42810.74
685.91	42579.03
686.05	42541.58
686.19	41696.64
686.32	42122.62
686.46	41659.20
686.60	41429.82
686.73	41247.26
686.87	41340.88
687.01	41385.35
687.14	41560.89
687.28	41003.85
687.42	41242.58
687.55	40884.48
687.69	40961.72
687.82	40245.51
687.96	40416.37
688.10	39807.83
688.23	40437.44
688.37	39992.73
688.50	39639.31
688.64	39756.34
688.78	39342.06
688.91	39175.89
689.05	38911.41
689.18	38768.63
689.32	38237.33
689.46	38572.03
689.59	37783.27
689.73	38059.45
689.86	37703.69
690.00	37832.42
690.13	38424.57
690.27	37809.01
690.41	37699.01
690.54	38054.77
690.68	37544.53
690.81	37242.60
690.95	37209.84
691.08	36957.06
691.22	36662.15
691.35	36528.74
691.49	36552.15
691.62	36538.10
691.76	36437.46
691.89	35962.33
692.03	36051.27
692.16	35779.77
692.30	35878.07
692.43	35793.81
692.57	35592.53
692.70	35421.67
692.84	35049.52
692.97	35201.66
693.11	34981.65
693.24	34766.32
693.38	34588.44
693.51	33902.66
693.65	34487.79
693.78	33813.72
693.92	34000.96
694.05	33940.11
694.19	33673.29
694.32	33654.56
694.45	33160.71
694.59	33516.47
694.72	32730.05
694.86	32732.39
694.99	32861.12
695.13	32306.41
695.26	33029.64
695.39	31515.31
695.53	31662.77
695.66	31866.39
695.80	31557.44
695.93	32058.32
696.07	31395.95
696.20	30885.71
696.33	30904.43
696.47	31189.98
696.60	31206.36
696.73	30728.89
696.87	30614.21
697.00	30363.77
697.14	30136.74
697.27	30515.90
697.40	30178.87
697.54	30190.57
697.67	29858.21
697.80	29975.24
697.94	29724.80
698.07	29266.06
698.21	29223.93
698.34	29289.46
698.47	29134.99
698.61	29039.03
698.74	28786.25
698.87	28868.17
699.01	28479.64
699.14	28620.07
699.27	28299.42
699.40	28552.20
699.54	28144.94
699.67	28166.01
699.80	27950.68
699.94	27412.35
700.07	28027.92
700.20	27604.28
700.34	27154.90
700.47	27023.83
700.60	26604.87
700.73	26604.87
700.87	26199.96
701.00	26382.52
701.13	26274.85
701.26	26277.19
701.40	26118.04
701.53	26155.49
701.66	26319.32
701.79	25663.97
701.93	25036.71
702.06	24980.54
702.19	25441.62
702.32	25352.68
702.46	24933.73
702.59	24926.71
702.72	24985.22
702.85	24954.79
702.99	24671.59
703.12	24301.78
703.25	24355.61
703.38	23992.83
703.51	24084.11
703.65	24088.79
703.78	23454.51
703.91	23536.43
704.04	23538.77
704.17	23466.21
704.31	23351.52
704.44	23131.51
704.57	22995.76
704.70	22993.42
704.83	22902.14
704.96	22845.97
705.10	22356.80
705.23	22366.16
>>>>>End Processed Spectral Data<<<<<
