SpectraSuite Data File
++++++++++++++++++++++++++++++++++++
Date: Fri Oct 25 10:47:46 EDT 2013
User: price-jones
Dark Spectrum Present: No
Reference Spectrum Present: No
Number of Sampled Component Spectra: 1
Spectrometers: USB2+H05261
Integration Time (usec): 100000 (USB2+H05261)
Spectra Averaged: 1 (USB2+H05261)
Boxcar Smoothing: 0 (USB2+H05261)
Correct for Electrical Dark: No (USB2+H05261)
Strobe/Lamp Enabled: No (USB2+H05261)
Correct for Detector Non-linearity: No (USB2+H05261)
Correct for Stray Light: No (USB2+H05261)
Number of Pixels in Processed Spectrum: 2048
>>>>>Begin Processed Spectral Data<<<<<
365.73	140.43
365.92	140.43
366.12	140.43
366.32	81.92
366.52	4.68
366.72	95.96
366.91	56.17
367.11	0.00
367.31	21.06
367.51	4.68
367.70	51.49
367.90	84.26
368.10	16.38
368.30	39.79
368.49	140.43
368.69	65.54
368.89	74.90
369.09	0.00
369.28	46.81
369.48	37.45
369.68	65.54
369.87	65.54
370.07	53.83
370.27	126.39
370.47	241.08
370.66	395.55
370.86	418.96
371.06	526.62
371.25	472.79
371.45	421.30
371.65	468.11
371.84	482.15
372.04	444.70
372.24	454.06
372.44	421.30
372.63	475.13
372.83	503.22
373.03	517.26
373.22	510.24
373.42	493.85
373.62	510.24
373.81	524.28
374.01	531.30
374.21	564.07
374.40	521.94
374.60	617.90
374.79	540.66
374.99	587.47
375.19	524.28
375.38	620.24
375.58	596.84
375.78	608.54
375.97	585.13
376.17	599.18
376.37	657.69
376.56	627.26
376.76	533.64
376.95	596.84
377.15	636.63
377.35	660.03
377.54	629.60
377.74	580.45
377.93	704.50
378.13	674.07
378.33	657.69
378.52	657.69
378.72	671.73
378.91	627.26
379.11	664.71
379.31	671.73
379.50	596.84
379.70	695.14
379.89	608.54
380.09	688.12
380.28	624.92
380.48	676.41
380.68	692.80
380.87	739.61
381.07	730.25
381.26	690.46
381.46	653.01
381.65	685.78
381.85	657.69
382.04	655.35
382.24	674.07
382.43	634.29
382.63	688.12
382.83	678.76
383.02	704.50
383.22	648.33
383.41	706.84
383.61	667.05
383.80	791.10
384.00	706.84
384.19	753.65
384.39	730.25
384.58	781.74
384.78	681.10
384.97	678.76
385.17	732.59
385.36	725.57
385.56	737.27
385.75	772.38
385.95	788.76
386.14	772.38
386.34	713.86
386.53	809.83
386.72	713.86
386.92	781.74
387.11	805.14
387.31	800.46
387.50	816.85
387.70	800.46
387.89	802.80
388.09	844.93
388.28	823.87
388.48	819.19
388.67	894.08
388.86	887.06
389.06	1032.18
389.25	936.21
389.45	877.70
389.64	887.06
389.84	966.64
390.03	910.47
390.22	901.11
390.42	833.23
390.61	910.47
390.81	994.73
391.00	1018.13
391.19	980.68
391.39	978.34
391.58	978.34
391.78	994.73
391.97	917.49
392.16	964.30
392.36	980.68
392.55	929.19
392.75	994.73
392.94	1011.11
393.13	1006.43
393.33	877.70
393.52	994.73
393.71	1020.47
393.91	1062.60
394.10	994.73
394.29	1088.35
394.49	936.21
394.68	1078.99
394.88	1123.46
395.07	1114.10
395.26	1055.58
395.46	1238.14
395.65	1135.16
395.84	1144.52
396.04	1193.67
396.23	1165.59
396.42	1118.78
396.62	1121.12
396.81	1111.75
397.00	1043.88
397.19	1198.35
397.39	1203.04
397.58	1210.06
397.77	1228.78
397.97	1308.36
398.16	1203.04
398.35	1277.93
398.55	1362.19
398.74	1322.40
398.93	1383.26
399.12	1320.06
399.32	1242.82
399.51	1324.74
399.70	1355.17
399.90	1373.89
400.09	1434.75
400.28	1369.21
400.47	1399.64
400.67	1474.54
400.86	1394.96
401.05	1416.02
401.24	1519.01
401.44	1434.75
401.63	1434.75
401.82	1530.71
402.01	1371.55
402.21	1558.80
402.40	1528.37
402.59	1575.18
402.78	1467.52
402.97	1607.95
403.17	1605.61
403.36	1610.29
403.55	1607.95
403.74	1715.61
403.93	1734.34
404.13	1549.43
404.32	1621.99
404.51	1657.10
404.70	1659.44
404.89	1568.16
405.09	1666.46
405.28	1750.72
405.47	1739.02
405.66	1717.95
405.85	1813.92
406.05	1818.60
406.24	1849.02
406.43	1717.95
406.62	1851.36
406.81	1881.79
407.00	1713.27
407.20	1715.61
407.39	1804.55
407.58	1849.02
407.77	1977.75
407.96	1987.11
408.15	2045.63
408.34	1879.45
408.54	2003.50
408.73	2038.61
408.92	1966.05
409.11	2087.76
409.30	2040.95
409.49	1963.71
409.68	2033.93
409.87	2029.24
410.07	2165.00
410.26	2017.54
410.45	2165.00
410.64	2134.57
410.83	2216.49
411.02	2195.42
411.21	2333.51
411.40	2190.74
411.59	2260.96
411.78	2235.21
411.98	2165.00
412.17	2310.11
412.36	2368.62
412.55	2338.20
412.74	2427.14
412.93	2466.92
413.12	2335.85
413.31	2492.67
413.50	2525.44
413.69	2602.68
413.88	2569.91
414.07	2525.44
414.26	2548.84
414.45	2588.63
414.64	2609.70
414.83	2745.45
415.02	2602.68
415.22	2726.72
415.41	2684.59
415.60	2731.41
415.79	2686.94
415.98	2850.77
416.17	2874.18
416.36	2794.60
416.55	2925.67
416.74	2949.08
416.93	2778.22
417.12	2911.63
417.31	3005.25
417.50	3019.29
417.69	3119.93
417.88	3063.76
418.07	3061.42
418.26	3028.65
418.45	3171.43
418.64	3155.04
418.83	3098.87
419.02	3141.00
419.21	3222.92
419.39	3131.64
419.58	3229.94
419.77	3152.70
419.96	3351.65
420.15	3267.39
420.34	3241.64
420.53	3253.34
420.72	3398.46
420.91	3328.24
421.10	3393.78
421.29	3386.76
421.48	3304.84
421.67	3499.10
421.86	3468.67
422.05	3300.16
422.24	3323.56
422.43	3426.54
422.61	3393.78
422.80	3515.48
422.99	3569.32
423.18	3527.19
423.37	3466.33
423.56	3571.66
423.75	3417.18
423.94	3499.10
424.13	3276.75
424.32	3368.03
424.50	3552.93
424.69	3714.43
424.88	3644.21
425.07	3506.12
425.26	3541.23
425.45	3557.61
425.64	3524.85
425.83	3588.04
426.01	3527.19
426.20	3501.44
426.39	3669.96
426.58	3606.77
426.77	3641.87
426.96	3590.38
427.15	3536.55
427.33	3641.87
427.52	3527.19
427.71	3581.02
427.90	3733.15
428.09	3742.52
428.28	3658.26
428.46	3726.13
428.65	3761.24
428.84	3777.62
429.03	3798.69
429.22	3782.31
429.40	3892.31
429.59	3786.99
429.78	3503.78
429.97	3559.95
430.16	3646.55
430.34	3801.03
430.53	3918.06
430.72	3920.40
430.91	3866.56
431.10	3904.01
431.28	4074.87
431.47	4191.90
431.66	4271.48
431.85	4030.40
432.03	4194.24
432.22	4273.82
432.41	4313.61
432.60	4081.89
432.79	4131.05
432.97	4252.75
433.16	4447.02
433.35	4126.36
433.54	4217.65
433.72	4222.33
433.91	4320.63
434.10	4283.18
434.28	4142.75
434.47	4341.69
434.66	4425.95
434.85	4315.95
435.03	4524.26
435.22	4400.21
435.41	4512.55
435.59	4493.83
435.78	4589.79
435.97	4519.57
436.16	4463.40
436.34	4468.08
436.53	4578.09
436.72	4620.22
436.90	4606.17
437.09	4788.74
437.28	4650.64
437.46	4526.60
437.65	4718.52
437.84	4746.61
438.02	4737.24
438.21	4905.76
438.40	4755.97
438.58	4835.55
438.77	4681.07
438.96	4922.15
439.14	5027.47
439.33	5069.60
439.52	5097.69
439.70	5011.09
439.89	4985.34
440.08	5048.54
440.26	5081.30
440.45	5200.67
440.63	5149.18
440.82	5350.46
441.01	5266.21
441.19	5287.27
441.38	5425.36
441.57	5481.53
441.75	5551.75
441.94	5441.75
442.12	5633.67
442.31	5577.50
442.50	5757.72
442.68	5624.31
442.87	5755.38
443.05	5849.00
443.24	5764.74
443.43	5680.48
443.61	5680.48
443.80	5982.41
443.98	5785.80
444.17	5621.97
444.35	5776.44
444.54	6033.90
444.73	5755.38
444.91	5795.17
445.10	5743.67
445.28	5788.14
445.47	5724.95
445.65	5769.42
445.84	5900.49
446.02	5942.62
446.21	6031.56
446.39	5820.91
446.58	5973.05
446.77	5832.62
446.95	5715.59
447.14	5811.55
447.32	6071.35
447.51	5930.92
447.69	5930.92
447.88	6057.31
448.06	6069.01
448.25	6073.69
448.43	6078.37
448.62	5987.09
448.80	6024.54
448.99	5930.92
449.17	6338.17
449.36	6136.88
449.54	6272.64
449.73	6204.76
449.91	6256.25
450.10	6291.36
450.28	6239.87
450.46	6345.19
450.65	6347.53
450.83	6525.41
451.02	6312.42
451.20	6401.37
451.39	6499.67
451.57	6305.40
451.76	6251.57
451.94	6579.25
452.13	6651.80
452.31	6590.95
452.49	6469.24
452.68	6511.37
452.86	6392.00
453.05	6572.22
453.23	6431.79
453.42	6567.54
453.60	6506.69
453.78	6654.14
453.97	6534.78
454.15	6579.25
454.34	6626.06
454.52	6787.55
454.70	6836.70
454.89	6544.14
455.07	6803.94
455.26	6806.28
455.44	6871.81
455.62	6916.28
455.81	6960.75
455.99	7056.72
456.17	7101.19
456.36	6806.28
456.54	7096.50
456.73	7124.59
456.91	7192.47
457.09	7115.23
457.28	7281.41
457.46	7218.21
457.64	7239.28
457.83	7286.09
458.01	7286.09
458.19	7517.80
458.38	7337.58
458.56	7403.11
458.74	7545.89
458.93	7344.60
459.11	7358.64
459.29	7360.98
459.48	7492.05
459.66	7353.96
459.84	7463.97
460.03	7782.28
460.21	7623.12
460.39	7562.27
460.57	7662.91
460.76	7569.29
460.94	7686.32
461.12	7653.55
461.31	7812.71
461.49	7744.83
461.67	7691.00
461.85	7882.92
462.04	7978.89
462.22	8461.04
462.40	8006.97
462.59	7889.95
462.77	7969.52
462.95	7950.80
463.13	7943.78
463.32	8128.68
463.50	8053.78
463.68	7934.42
463.86	8173.15
464.05	7913.35
464.23	8009.31
464.41	8290.18
464.59	8222.30
464.78	8416.57
464.96	8250.39
465.14	8081.87
465.32	8248.05
465.50	8285.50
465.69	8301.88
465.87	8456.36
466.05	8315.92
466.23	8226.98
466.41	8234.00
466.60	8566.36
466.78	8245.71
466.96	8449.33
467.14	8531.25
467.32	8573.38
467.51	8414.23
467.69	8271.45
467.87	8360.39
468.05	8699.77
468.23	8561.68
468.41	8503.17
468.60	8360.39
468.78	8613.17
468.96	8592.11
469.14	8664.66
469.32	8737.22
469.50	8561.68
469.69	8723.18
469.87	8926.80
470.05	8997.02
470.23	9104.68
470.41	8992.34
470.59	9149.15
470.77	8964.25
470.95	9060.21
471.14	9092.98
471.32	8833.18
471.50	9355.12
471.68	9268.52
471.86	9355.12
472.04	9224.05
472.22	9493.21
472.40	9261.50
472.58	9481.51
472.77	9621.94
472.95	9500.23
473.13	9923.87
473.31	9584.49
473.49	9570.45
473.67	9521.30
473.85	9694.50
474.03	9930.89
474.21	9886.42
474.39	10153.24
474.57	10054.94
474.75	10120.48
474.93	10169.63
475.12	9886.42
475.30	10317.08
475.48	10207.08
475.66	10352.19
475.84	10134.52
476.02	10239.84
476.20	10459.85
476.38	10548.79
476.56	10752.42
476.74	10518.37
476.92	10785.19
477.10	10743.06
477.28	10974.77
477.46	10843.70
477.64	10963.07
477.82	11089.46
478.00	11375.00
478.18	11375.00
478.36	11487.35
478.54	11534.16
478.72	11609.06
478.90	11761.19
479.08	11789.28
479.26	11896.94
479.44	12053.76
479.62	12028.01
479.80	11908.65
479.98	12255.04
480.16	12430.59
480.34	12428.24
480.52	12533.57
480.70	12538.25
480.88	12437.61
481.06	12463.35
481.24	12725.49
481.41	12776.98
481.59	12842.52
481.77	13151.47
481.95	12987.63
482.13	13554.04
482.31	12999.34
482.49	13394.89
482.67	13621.92
482.85	13617.24
483.03	13907.46
483.21	13844.27
483.39	14029.17
483.57	13781.07
483.74	13961.30
483.92	14298.33
484.10	14057.26
484.28	14427.06
484.46	14654.09
484.64	14913.89
484.82	14677.50
485.00	14607.28
485.18	14946.66
485.35	15260.29
485.53	15122.20
485.71	14956.02
485.89	15435.83
486.07	15360.94
486.25	15372.64
486.43	15496.69
486.61	15674.57
486.78	16098.20
486.96	16128.63
487.14	16042.03
487.32	16341.62
487.50	16589.72
487.68	16556.95
487.85	16814.41
488.03	16826.11
488.21	17013.35
488.39	17245.07
488.57	17067.19
488.75	17338.69
488.92	17563.38
489.10	17678.07
489.28	17652.32
489.46	17855.95
489.64	18066.60
489.81	18317.03
489.99	18427.04
490.17	18548.75
490.35	18525.34
490.53	18335.76
490.70	18658.75
490.88	18520.66
491.06	19243.88
491.24	19014.51
491.41	19271.97
491.59	19503.68
491.77	19075.37
491.95	19321.12
492.13	19658.16
492.30	19735.40
492.48	19805.61
492.66	20322.87
492.84	19796.25
493.01	20208.19
493.19	20210.53
493.37	20339.26
493.54	20627.14
493.72	20383.73
493.90	20713.74
494.08	21008.65
494.25	21139.72
494.43	21144.40
494.61	21383.13
494.79	21446.33
494.96	21425.26
495.14	21511.86
495.32	21895.71
495.49	21495.48
495.67	21586.76
495.85	22342.75
496.02	22586.17
496.20	22525.32
496.38	22272.54
496.55	22553.40
496.73	22773.41
496.91	22834.27
497.09	22663.41
497.26	22766.39
497.44	22913.84
497.62	23145.56
497.79	23398.34
497.97	23061.30
498.14	23590.26
498.32	23510.68
498.50	23501.32
498.67	24294.76
498.85	24093.47
499.03	24292.42
499.20	24500.73
499.38	23967.09
499.56	24264.33
499.73	24320.51
499.91	24362.64
500.08	24716.06
500.26	24276.04
500.44	24517.11
500.61	24355.61
500.79	24474.98
500.97	24882.24
501.14	24933.73
501.32	24830.74
501.49	25369.07
501.67	25432.26
501.84	25579.71
502.02	25387.79
502.20	25418.22
502.37	25984.63
502.55	25724.83
502.72	25713.13
502.90	25881.64
503.07	26171.87
503.25	26178.89
503.43	26209.32
503.60	26380.18
503.78	26103.99
503.95	26127.40
504.13	26455.08
504.30	26382.52
504.48	26452.73
504.65	26597.85
504.83	26738.28
505.01	27084.68
505.18	27063.61
505.36	27571.51
505.53	27147.87
505.71	27503.64
505.88	27660.45
506.06	27115.11
506.23	27318.73
506.41	27566.83
506.58	27302.35
506.76	27817.27
506.93	28060.68
507.11	27555.13
507.28	27655.77
507.46	27800.88
507.63	27873.44
507.81	28016.21
507.98	27683.86
508.16	28493.68
508.33	28320.48
508.50	28423.47
508.68	28311.12
508.85	28545.17
509.03	28446.87
509.20	28858.81
509.38	29347.98
509.55	29397.13
509.73	29174.78
509.90	29376.06
510.08	28980.51
510.25	29172.44
510.42	29333.93
510.60	29598.41
510.77	29439.26
510.95	29944.81
511.12	29741.19
511.30	29818.42
511.47	29818.42
511.64	30047.80
511.82	30263.13
511.99	29832.47
512.17	29991.62
512.34	30218.66
512.51	30314.62
512.69	30565.06
512.86	30822.51
513.04	30431.65
513.21	30433.99
513.38	30438.67
513.56	30377.81
513.73	30749.96
513.90	31101.04
514.08	30815.49
514.25	31229.77
514.43	30682.08
514.60	30829.54
514.77	31206.36
514.95	31374.88
515.12	31323.39
515.29	31543.40
515.47	31463.82
515.64	31786.82
515.81	31613.62
515.99	31594.89
516.16	31344.45
516.33	31709.58
516.51	31503.61
516.68	31147.85
516.85	31136.15
517.03	31552.76
517.20	32236.20
517.37	32072.36
517.54	32151.94
517.72	32390.67
517.89	32233.86
518.06	32039.59
518.24	32341.52
518.41	32065.34
518.58	32638.77
518.75	32088.74
518.93	33221.56
519.10	32706.65
519.27	32952.40
519.45	32999.21
519.62	33432.21
519.79	33207.52
519.96	33102.20
520.14	33544.56
520.31	33064.75
520.48	33317.53
520.65	33460.30
520.83	33415.83
521.00	33607.75
521.17	33750.52
521.34	33553.92
521.52	33703.71
521.69	34188.21
521.86	34190.55
522.03	33921.38
522.20	33816.06
522.38	33818.40
522.55	34387.15
522.72	34143.74
522.89	34487.79
523.07	34419.92
523.24	34087.56
523.41	34253.74
523.58	34012.66
523.75	35105.70
523.92	34955.90
524.10	34782.70
524.27	34391.83
524.44	35098.67
524.61	35447.41
524.78	35412.31
524.96	35215.70
525.13	35218.04
525.30	35358.47
525.47	35335.07
525.64	35714.23
525.81	35480.18
525.98	35597.21
526.16	34913.77
526.33	35220.38
526.50	35842.96
526.67	35545.72
526.84	35372.52
527.01	35185.27
527.18	35934.24
527.36	35821.90
527.53	35751.68
527.70	36350.86
527.87	36397.67
528.04	35995.10
528.21	36046.59
528.38	35824.24
528.55	35955.31
528.72	36275.96
528.89	36957.06
529.07	36350.86
529.24	36233.83
529.41	36732.37
529.58	36500.65
529.75	36790.88
529.92	36914.93
530.09	36996.85
530.26	36463.21
530.43	36938.33
530.60	36708.96
530.77	36950.04
530.94	37422.83
531.11	37130.26
531.28	36903.23
531.46	37251.97
531.63	37514.11
531.80	37631.13
531.97	37031.96
532.14	37530.49
532.31	37523.47
532.48	37544.53
532.65	37659.22
532.82	37483.68
532.99	37687.31
533.16	37699.01
533.33	37165.37
533.50	38038.39
533.67	37979.87
533.84	37317.50
534.01	38188.18
534.18	37764.54
534.35	38232.65
534.52	38045.41
534.69	38223.29
534.86	38337.98
535.03	38146.05
535.20	37897.95
535.37	38817.78
535.54	38527.56
535.71	38422.23
535.88	38281.80
536.05	38082.86
536.22	38904.38
536.38	38504.15
536.55	38550.96
536.72	38871.62
536.89	38103.92
537.06	38576.71
537.23	38803.74
537.40	38686.71
537.57	38817.78
537.74	38328.61
537.91	39061.20
538.08	39304.62
538.25	38614.16
538.42	39035.45
538.59	38944.17
538.75	38644.59
538.92	39276.53
539.09	39519.95
539.26	39466.11
539.43	39798.47
539.60	39590.16
539.77	39257.81
539.94	39321.00
540.11	39234.40
540.28	39171.21
540.44	39447.39
540.61	39119.71
540.78	39225.04
540.95	39452.07
541.12	39136.10
541.29	39449.73
541.46	39470.79
541.62	40292.32
541.79	40123.80
541.96	39751.66
542.13	40032.52
542.30	39856.98
542.47	39758.68
542.63	40182.32
542.80	40472.54
542.97	40699.58
543.14	40610.64
543.31	40872.78
543.48	40399.99
543.64	41013.21
543.81	41106.83
543.98	40385.94
544.15	40486.59
544.32	40697.24
544.48	41184.07
544.65	40776.81
544.82	40783.83
544.99	40079.33
545.16	41083.42
545.32	40535.74
545.49	41249.60
545.66	41116.19
545.83	40596.59
546.00	40884.48
546.16	41076.40
546.33	41062.36
546.50	40870.43
546.67	41490.68
546.83	40612.98
547.00	41137.26
547.17	41155.98
547.34	41200.45
547.50	41069.38
547.67	41921.34
547.84	41422.80
548.00	41846.44
548.17	41902.61
548.34	41600.68
548.51	41343.22
548.67	41549.19
548.84	41621.75
549.01	41661.54
549.18	41237.90
549.34	42176.45
549.51	41745.80
549.68	41996.23
549.84	42148.37
550.01	42314.55
550.18	42164.75
550.34	41734.09
550.51	41823.03
550.68	41825.37
550.84	41361.95
551.01	42099.22
551.18	42007.94
551.34	42026.66
551.51	42183.48
551.68	42277.10
551.84	42384.76
552.01	42223.26
552.18	42309.86
552.34	42366.04
552.51	42298.16
552.68	42096.88
552.84	42319.23
553.01	42637.54
553.18	42520.51
553.34	42249.01
553.51	42085.17
553.67	42564.98
553.84	42693.71
554.01	42958.19
554.17	42857.55
554.34	43014.37
554.51	43171.18
554.67	43255.44
554.84	42546.26
555.00	42639.88
555.17	42693.71
555.33	42511.15
555.50	43042.45
555.67	42960.53
555.83	43213.31
556.00	42691.37
556.16	43285.87
556.33	43150.12
556.50	42941.81
556.66	43391.19
556.83	42639.88
556.99	43540.99
557.16	43363.11
557.32	42843.51
557.49	43370.13
557.65	42576.69
557.82	42834.14
557.98	43164.16
558.15	42824.78
558.32	43278.85
558.48	43328.00
558.65	43597.16
558.81	43100.97
558.98	43365.45
559.14	43068.20
559.31	43281.19
559.47	43599.50
559.64	43559.71
559.80	43421.62
559.97	43835.89
560.13	43627.59
560.30	43119.69
560.46	43344.38
560.63	43515.24
560.79	43758.66
560.96	44135.48
561.12	43931.86
561.29	43332.68
561.45	44013.77
561.61	43267.14
561.78	43145.44
561.94	43131.39
562.11	43580.78
562.27	43732.91
562.44	43753.97
562.60	43283.53
562.77	43768.02
562.93	43807.81
563.10	44098.03
563.26	43681.42
563.42	43615.88
563.59	43515.24
563.75	43892.07
563.92	44142.50
564.08	43910.79
564.24	44238.47
564.41	44299.32
564.57	44261.87
564.74	43716.53
564.90	43964.62
565.07	44072.29
565.23	44083.99
565.39	43749.29
565.56	43838.23
565.72	43559.71
565.88	43969.30
566.05	43672.06
566.21	44149.53
566.38	43871.00
566.54	44034.84
566.70	44472.52
566.87	44231.44
567.03	44091.01
567.19	44570.82
567.36	44311.02
567.52	44055.90
567.68	44524.01
567.85	44212.72
568.01	44687.85
568.17	43992.71
568.34	44659.76
568.50	44376.56
568.66	43973.98
568.83	43938.88
568.99	44201.02
569.15	44088.67
569.32	43613.54
569.48	44346.13
569.64	44638.70
569.81	44493.58
569.97	44025.48
570.13	43915.47
570.30	44201.02
570.46	44076.97
570.62	44126.12
570.78	43903.77
570.95	43992.71
571.11	44676.15
571.27	44229.10
571.43	44610.61
571.60	44666.78
571.76	44435.07
571.92	44486.56
572.09	44612.95
572.25	44381.24
572.41	44231.44
572.57	44851.69
572.74	44996.80
572.90	44540.39
573.06	44479.54
573.22	44587.21
573.38	44856.37
573.55	44257.19
573.71	45038.93
573.87	44126.12
574.03	44088.67
574.20	44039.52
574.36	44360.17
574.52	44643.38
574.68	44643.38
574.84	44428.05
575.01	44610.61
575.17	44877.43
575.33	44208.04
575.49	44360.17
575.65	44486.56
575.82	44617.63
575.98	44847.00
576.14	44856.37
576.30	44531.03
576.46	44048.88
576.62	44271.23
576.79	44797.85
576.95	43948.24
577.11	44615.29
577.27	44385.92
577.43	44626.99
577.59	44502.95
577.75	44491.24
577.92	44463.16
578.08	44179.95
578.24	44273.57
578.40	44549.76
578.56	44701.89
578.72	44348.47
578.88	44818.92
579.04	44486.56
579.21	44477.20
579.37	44308.68
579.53	44648.06
579.69	44222.08
579.85	44226.76
580.01	44746.36
580.17	44999.14
580.33	44947.65
580.49	44921.90
580.65	44666.78
580.82	44666.78
580.98	44563.80
581.14	44378.90
581.30	45031.91
581.46	44935.95
581.62	44818.92
581.78	44657.42
581.94	44732.32
582.10	44402.30
582.26	44868.07
582.42	44722.96
582.58	44533.37
582.74	44561.46
582.90	44636.36
583.06	44907.86
583.22	44921.90
583.38	44818.92
583.54	44591.89
583.70	44512.31
583.86	44161.23
584.02	44446.77
584.18	44809.56
584.34	44692.53
584.50	45008.50
584.66	44638.70
584.82	44446.77
584.98	44992.12
585.14	44886.79
585.30	44928.92
585.46	44797.85
585.62	44346.13
585.78	45052.97
585.94	44435.07
586.10	44383.58
586.26	44669.12
586.42	44847.00
586.58	45043.61
586.74	45186.38
586.90	44570.82
587.06	44821.26
587.22	44825.94
587.38	44769.77
587.54	44832.96
587.70	44879.77
587.86	44758.06
588.02	44711.25
588.18	44875.09
588.34	44779.13
588.49	44322.72
588.65	44673.81
588.81	44304.00
588.97	44479.54
589.13	44861.05
589.29	44804.88
589.45	44781.47
589.61	45195.74
589.77	45134.89
589.93	44931.26
590.08	44741.68
590.24	45008.50
590.40	44952.33
590.56	44687.85
590.72	45104.46
590.88	44828.28
591.04	45034.25
591.20	45174.68
591.35	45139.57
591.51	45502.35
591.67	45024.89
591.83	44854.03
591.99	44626.99
592.15	44575.50
592.31	44919.56
592.46	44921.90
592.62	44989.78
592.78	45160.64
592.94	45221.49
593.10	45188.72
593.26	45233.19
593.41	44751.04
593.57	44725.30
593.73	44779.13
593.89	45153.62
594.05	45099.78
594.20	45186.38
594.36	45436.82
594.52	45172.34
594.68	45013.18
594.84	45162.98
594.99	45076.38
595.15	44971.05
595.31	45514.06
595.47	45116.17
595.62	45310.43
595.78	45170.00
595.94	45258.94
596.10	45078.72
596.25	45738.75
596.41	45148.93
596.57	45237.87
596.73	45209.79
596.88	44680.83
597.04	45373.63
597.20	44987.44
597.36	45123.19
597.51	45507.04
597.67	45247.24
597.83	45340.86
597.99	45647.47
598.14	45165.32
598.30	44940.63
598.46	45102.12
598.61	45146.59
598.77	44971.05
598.93	45074.04
599.09	45333.84
599.24	45640.45
599.40	44924.24
599.56	45350.22
599.71	45380.65
599.87	45380.65
600.03	45507.04
600.18	45518.74
600.34	45120.85
600.50	45303.41
600.65	45069.36
600.81	45258.94
600.97	45116.17
601.12	45570.23
601.28	45251.92
601.44	45146.59
601.59	45720.02
601.75	45017.86
601.91	45048.29
602.06	45230.85
602.22	45471.93
602.37	45312.77
602.53	45256.60
602.69	45471.93
602.84	45174.68
603.00	45155.96
603.16	45167.66
603.31	45064.67
603.47	44896.16
603.62	44858.71
603.78	45120.85
603.94	45343.20
604.09	45373.63
604.25	45085.74
604.40	45071.70
604.56	45240.21
604.71	45303.41
604.87	44957.01
605.03	45319.79
605.18	45188.72
605.34	44884.45
605.49	44582.52
605.65	45120.85
605.80	44570.82
605.96	45071.70
606.12	45097.44
606.27	45123.19
606.43	44708.91
606.58	45347.88
606.74	45160.64
606.89	44849.35
607.05	44933.60
607.20	45226.17
607.36	44758.06
607.51	45411.07
607.67	45165.32
607.82	44825.94
607.98	44563.80
608.13	44669.12
608.29	44971.05
608.44	44896.16
608.60	44430.39
608.75	44458.48
608.91	44516.99
609.06	44641.04
609.22	44905.52
609.37	44849.35
609.53	44938.29
609.68	44371.88
609.84	44851.69
609.99	44519.33
610.15	44540.39
610.30	44935.95
610.46	44299.32
610.61	44788.49
610.76	44535.71
610.92	44605.93
611.07	44488.90
611.23	44708.91
611.38	44428.05
611.54	44362.51
611.69	44395.28
611.84	44589.55
612.00	44561.46
612.15	44563.80
612.31	44549.76
612.46	44673.81
612.62	44692.53
612.77	44638.70
612.92	44456.14
613.08	44076.97
613.23	44121.44
613.39	44573.16
613.54	44100.37
613.69	43929.51
613.85	44044.20
614.00	44378.90
614.15	44645.72
614.31	44470.18
614.46	44996.80
614.62	44109.74
614.77	44201.02
614.92	44112.08
615.08	44390.60
615.23	44009.09
615.38	43873.34
615.54	43889.73
615.69	44114.42
615.84	43978.67
616.00	43978.67
616.15	43658.01
616.30	44191.65
616.46	43849.94
616.61	43440.34
616.76	43653.33
616.92	43608.86
617.07	43772.70
617.22	43583.12
617.37	43658.01
617.53	43566.73
617.68	43758.66
617.83	44027.82
617.99	43697.80
618.14	43931.86
618.29	44025.48
618.45	43618.22
618.60	43381.83
618.75	44044.20
618.90	43784.40
619.06	43690.78
619.21	43810.15
619.36	43952.92
619.51	43461.41
619.67	43674.40
619.82	43501.20
619.97	43608.86
620.12	43363.11
620.28	43159.48
620.43	43339.70
620.58	43292.89
620.73	43180.54
620.89	43150.12
621.04	43812.49
621.19	43150.12
621.34	43206.29
621.49	42515.83
621.65	42780.31
621.80	43051.81
621.95	42644.56
622.10	43360.76
622.25	43140.75
622.41	42974.58
622.56	42588.39
622.71	42923.08
622.86	43234.38
623.01	43187.56
623.16	43290.55
623.32	43297.57
623.47	43208.63
623.62	43044.79
623.77	42480.72
623.92	42447.96
624.07	42405.83
624.23	43005.00
624.38	42590.73
624.53	42637.54
624.68	43138.41
624.83	42653.92
624.98	42878.61
625.13	42454.98
625.29	42759.25
625.44	42635.20
625.59	42740.52
625.74	42230.29
625.89	42188.16
626.04	42270.08
626.19	42366.04
626.34	42705.41
626.49	42485.40
626.65	42487.74
626.80	42639.88
626.95	42265.39
627.10	42188.16
627.25	41745.80
627.40	42024.32
627.55	42068.79
627.70	42040.70
627.85	41977.51
628.00	41684.94
628.15	41972.83
628.30	42080.49
628.45	42277.10
628.60	42356.67
628.76	42260.71
628.91	41888.57
629.06	41921.34
629.21	42003.25
629.36	41757.50
629.51	41603.02
629.66	41670.90
629.81	41390.03
629.96	41670.90
630.11	41855.80
630.26	41720.05
630.41	42047.72
630.56	41457.91
630.71	41209.81
630.86	41469.61
631.01	41163.00
631.16	41808.99
631.31	41350.24
631.46	41230.88
631.61	41258.96
631.76	41500.04
631.91	41338.54
632.06	41343.22
632.21	41462.59
632.36	41521.10
632.51	41305.77
632.66	41359.61
632.81	41340.88
632.96	41191.09
633.10	40954.69
633.25	40957.03
633.40	40823.62
633.55	41357.27
633.70	40952.35
633.85	40823.62
634.00	41181.73
634.15	40783.83
634.30	41177.04
634.45	41361.95
634.60	41244.92
634.75	41053.00
634.90	41209.81
635.05	41074.06
635.19	40788.52
635.34	40961.72
635.49	40601.27
635.64	40926.61
635.79	40591.91
635.94	40708.94
636.09	40254.87
636.24	40559.14
636.39	40453.82
636.53	40509.99
636.68	39927.20
636.83	40301.68
636.98	40779.15
637.13	40084.01
637.28	40378.92
637.43	40643.40
637.57	40423.39
637.72	40308.71
637.87	40472.54
638.02	40355.52
638.17	40114.44
638.32	39983.37
638.46	39969.33
638.61	39697.83
638.76	40240.83
638.91	40390.62
639.06	40308.71
639.20	40095.72
639.35	40446.80
639.50	40039.54
639.65	40612.98
639.80	40158.91
639.94	39737.62
640.09	39821.87
640.24	39718.89
640.39	39941.24
640.54	39988.05
640.68	39466.11
640.83	39704.85
640.98	39625.27
641.13	40112.10
641.27	39971.67
641.42	39426.32
641.57	39910.82
641.72	39805.49
641.86	39241.42
642.01	39686.12
642.16	39220.36
642.31	39398.24
642.45	39323.34
642.60	39157.16
642.75	39641.65
642.90	39487.18
643.04	38981.62
643.19	39536.33
643.34	39402.92
643.48	39606.55
643.63	39278.87
643.78	39105.67
643.93	39147.80
644.07	38958.22
644.22	38920.77
644.37	39264.83
644.51	39241.42
644.66	39414.62
644.81	39344.41
644.95	39578.46
645.10	39096.31
645.25	39812.51
645.39	38937.15
645.54	39473.13
645.69	38822.47
645.83	38909.07
645.98	39091.63
646.13	38946.51
646.27	38923.11
646.42	38888.00
646.57	39012.05
646.71	38546.28
646.86	38747.57
647.00	38462.02
647.15	39084.61
647.30	38794.38
647.44	38703.10
647.59	38810.76
647.74	38951.20
647.88	38326.27
648.03	38391.81
648.17	38745.23
648.32	38724.16
648.47	38557.99
648.61	38555.64
648.76	38974.60
648.90	38911.41
649.05	38480.75
649.20	38820.13
649.34	38621.18
649.49	37972.85
649.63	38326.27
649.78	38658.63
649.92	38515.86
650.07	38171.80
650.21	38024.34
650.36	38082.86
650.51	38724.16
650.65	38614.16
650.80	38541.60
650.94	38572.03
651.09	38536.92
651.23	37930.72
651.38	38150.73
651.52	38057.11
651.67	38553.30
651.81	38157.75
651.96	38031.36
652.10	37984.55
652.25	38148.39
652.39	37944.76
652.54	37825.40
652.68	37694.33
652.83	38164.78
652.97	38218.61
653.12	38047.75
653.26	37455.59
653.41	37584.32
653.55	37628.79
653.70	37539.85
653.84	37617.09
653.99	37425.17
654.13	37432.19
654.27	37354.95
654.42	37612.41
654.56	37769.22
654.71	37738.80
654.85	37640.50
655.00	37345.59
655.14	37067.06
655.29	37111.53
655.43	37205.16
655.57	37214.52
655.72	36776.84
655.86	37401.76
656.01	37275.37
656.15	36964.08
656.30	37041.32
656.44	36933.65
656.58	36961.74
656.73	37020.25
656.87	36912.59
657.01	36264.26
657.16	36304.05
657.30	36318.09
657.45	36596.62
657.59	36563.85
657.73	36732.37
657.88	36919.61
658.02	36680.88
658.16	36861.10
658.31	37123.24
658.45	36842.37
658.60	36648.11
658.74	36903.23
658.88	36926.63
659.03	36484.27
659.17	35992.76
659.31	36423.42
659.46	36299.37
659.60	36657.47
659.74	36201.07
659.89	36091.06
660.03	36556.83
660.17	36196.38
660.32	36531.08
660.46	36652.79
660.60	36119.15
660.74	36390.65
660.89	36158.94
661.03	35559.76
661.17	35695.51
661.32	35484.86
661.46	35641.68
661.60	35629.98
661.74	35765.73
661.89	35405.28
662.03	35674.45
662.17	35620.61
662.31	35349.11
662.46	35304.64
662.60	35255.49
662.74	35424.01
662.88	35241.45
663.03	35477.84
663.17	35145.48
663.31	34979.31
663.45	35189.95
663.60	34969.94
663.74	34831.85
663.88	35407.62
664.02	35206.34
664.17	35175.91
664.31	34623.54
664.45	34382.47
664.59	34852.92
664.73	34831.85
664.88	34883.34
665.02	34288.85
665.16	34550.99
665.30	34689.08
665.44	34593.12
665.59	34361.40
665.73	34419.92
665.87	34120.33
666.01	34045.43
666.15	34249.06
666.29	34403.53
666.44	34237.36
666.58	33640.52
666.72	34440.98
666.86	34398.85
667.00	34735.89
667.14	34272.46
667.28	33605.41
667.43	33509.45
667.57	33944.79
667.71	33968.19
667.85	33624.14
667.99	33453.28
668.13	33427.53
668.27	33216.88
668.41	33591.37
668.56	32971.13
668.70	33579.67
668.84	33097.52
668.98	33177.09
669.12	33149.01
669.26	33123.26
669.40	33212.20
669.54	32748.78
669.68	33039.00
669.82	33268.37
669.96	33064.75
670.10	32414.08
670.25	32797.93
670.39	33308.16
670.53	32844.74
670.67	32322.80
670.81	32437.48
670.95	32395.35
671.09	32430.46
671.23	32666.86
671.37	32685.58
671.51	32233.86
671.65	32173.00
671.79	32070.02
671.93	31627.66
672.07	31990.44
672.21	32339.18
672.35	31889.80
672.49	31672.13
672.63	31920.23
672.77	31559.78
672.91	31285.94
673.05	31814.90
673.19	31508.29
673.33	31321.05
673.47	31257.85
673.61	31440.42
673.75	31379.56
673.89	30897.41
674.03	31072.95
674.17	30904.43
674.31	30803.79
674.45	30469.09
674.59	31456.80
674.73	31187.64
674.87	31047.21
675.01	30913.80
675.15	31028.48
675.29	30726.55
675.43	30541.65
675.56	30864.64
675.70	30459.73
675.84	30244.40
675.98	29483.73
676.12	30134.40
676.26	29912.05
676.40	29493.09
676.54	29926.09
676.68	29790.34
676.82	29635.86
676.96	29546.92
677.10	29448.62
677.23	29303.51
677.37	29081.16
677.51	29287.12
677.65	28847.10
677.79	28898.59
677.93	28940.72
678.07	28938.38
678.21	28945.41
678.34	28503.04
678.48	28896.25
678.62	28453.89
678.76	28395.38
678.90	28371.97
679.04	28353.25
679.18	28386.02
679.31	28041.96
679.45	28332.18
679.59	27494.27
679.73	27913.23
679.87	28018.55
680.00	27686.20
680.14	27613.64
680.28	27810.25
680.42	27285.97
680.56	27505.98
680.70	27246.18
680.83	27087.02
680.97	26817.86
681.11	26932.54
681.25	26721.90
681.39	26988.72
681.52	26764.03
681.66	26890.41
681.80	27316.39
681.94	26335.71
682.07	26817.86
682.21	26328.69
682.35	26352.09
682.49	26148.46
682.62	26326.35
682.76	26359.11
682.90	26169.53
683.04	25834.83
683.17	25879.30
683.31	25881.64
683.45	25921.43
683.59	25343.32
683.72	25509.50
683.86	25376.09
684.00	25282.47
684.13	25631.21
684.27	25537.59
684.41	24828.40
684.55	25013.31
684.68	25130.33
684.82	24809.68
684.96	24702.01
685.09	25048.41
685.23	24535.84
685.37	24411.79
685.50	24505.41
685.64	24299.44
685.78	24046.66
685.91	24563.92
686.05	23864.10
686.19	23763.46
686.32	23974.11
686.46	23690.90
686.60	23407.70
686.73	23592.60
686.87	23470.89
687.01	23538.77
687.14	23159.60
687.28	23168.96
687.42	23063.64
687.55	22951.29
687.69	23087.04
687.82	22998.10
687.96	22881.08
688.10	22836.61
688.23	22848.31
688.37	22705.54
688.50	22328.71
688.64	22544.04
688.78	22136.79
688.91	22260.84
689.05	22286.58
689.18	22134.45
689.32	21612.51
689.46	22125.08
689.59	22148.49
689.73	22108.70
689.86	21841.88
690.00	21551.65
690.13	21792.73
690.27	21465.05
690.41	21436.97
690.54	21050.78
690.68	21118.65
690.81	21048.44
690.95	20922.05
691.08	20954.82
691.22	20470.33
691.35	20706.72
691.49	20830.77
691.62	20788.64
691.76	20692.68
691.89	20882.26
692.03	20685.65
692.16	20297.13
692.30	20278.40
692.43	20210.53
692.57	19964.77
692.70	19960.09
692.84	20266.70
692.97	19889.87
693.11	19913.28
693.24	19971.79
693.38	19728.38
693.51	19564.54
693.65	19543.47
693.78	19482.62
693.92	19784.55
694.05	19288.35
694.19	19257.93
694.32	19260.27
694.45	19304.74
694.59	18974.72
694.72	19281.33
694.86	19005.15
694.99	18530.02
695.13	18534.70
695.26	18298.31
695.39	18403.63
695.53	18497.25
695.66	18483.21
695.80	18146.17
695.93	18209.37
696.07	18087.66
696.20	18214.05
696.33	18192.98
696.47	17827.86
696.60	17696.79
696.73	17909.78
696.87	17612.53
697.00	17940.21
697.14	17724.88
697.27	17809.14
697.40	17486.14
697.54	17209.96
697.67	17095.27
697.80	17034.42
697.94	17275.49
698.07	16879.94
698.21	16891.65
698.34	16989.95
698.47	16844.84
698.61	16659.93
698.74	16645.89
698.87	16582.70
699.01	16444.60
699.14	16491.41
699.27	16006.92
699.40	16245.66
699.54	16039.69
699.67	15995.22
699.80	16166.08
699.94	16142.67
700.07	16051.39
700.20	15838.41
700.34	15913.30
700.47	15714.36
700.60	16039.69
700.73	15903.94
700.87	15793.94
701.00	15133.90
701.13	15552.86
701.26	15644.14
701.40	15358.60
701.53	15524.77
701.66	15126.88
701.79	15138.58
701.93	14932.62
702.06	14895.17
702.19	14621.33
702.32	14911.55
702.46	14787.50
702.59	14593.24
702.72	14665.80
702.85	14703.25
702.99	14649.41
703.12	14693.88
703.25	14450.47
703.38	14415.36
703.51	14452.81
703.65	14111.09
703.78	14321.74
703.91	14202.37
704.04	14148.54
704.17	13848.95
704.31	13806.82
704.44	13657.03
704.57	13635.96
704.70	13661.71
704.83	13687.45
704.96	13731.92
705.10	13738.94
705.23	13804.48
>>>>>End Processed Spectral Data<<<<<
