SpectraSuite Data File
++++++++++++++++++++++++++++++++++++
Date: Fri Oct 25 11:25:36 EDT 2013
User: price-jones
Dark Spectrum Present: No
Reference Spectrum Present: No
Number of Sampled Component Spectra: 1
Spectrometers: USB2+H05261
Integration Time (usec): 100000 (USB2+H05261)
Spectra Averaged: 1 (USB2+H05261)
Boxcar Smoothing: 0 (USB2+H05261)
Correct for Electrical Dark: No (USB2+H05261)
Strobe/Lamp Enabled: No (USB2+H05261)
Correct for Detector Non-linearity: No (USB2+H05261)
Correct for Stray Light: No (USB2+H05261)
Number of Pixels in Processed Spectrum: 2048
>>>>>Begin Processed Spectral Data<<<<<
365.73	248.10
365.92	248.10
366.12	248.10
366.32	217.67
366.52	168.52
366.72	184.90
366.91	114.69
367.11	149.79
367.31	145.11
367.51	100.64
367.70	124.05
367.90	187.24
368.10	154.48
368.30	135.75
368.49	166.18
368.69	180.22
368.89	147.45
369.09	93.62
369.28	210.65
369.48	180.22
369.68	161.50
369.87	182.56
370.07	191.92
370.27	212.99
370.47	245.76
370.66	578.11
370.86	594.50
371.06	713.86
371.25	753.65
371.45	734.93
371.65	720.88
371.84	634.29
372.04	718.54
372.24	713.86
372.44	697.48
372.63	702.16
372.83	683.44
373.03	716.20
373.22	678.76
373.42	774.72
373.62	755.99
373.81	837.91
374.01	858.98
374.21	791.10
374.40	809.83
374.60	873.02
374.79	847.27
374.99	812.17
375.19	805.14
375.38	847.27
375.58	826.21
375.78	882.38
375.97	875.36
376.17	842.59
376.37	873.02
376.56	931.53
376.76	858.98
376.95	842.59
377.15	880.04
377.35	842.59
377.54	931.53
377.74	870.68
377.93	875.36
378.13	915.15
378.33	929.19
378.52	971.32
378.72	957.28
378.91	896.43
379.11	917.49
379.31	933.87
379.50	898.77
379.70	1022.81
379.89	968.98
380.09	898.77
380.28	950.26
380.48	992.39
380.68	966.64
380.87	924.51
381.07	997.07
381.26	1064.94
381.46	1025.15
381.65	976.00
381.85	999.41
382.04	983.02
382.24	1114.10
382.43	1088.35
382.63	1039.20
382.83	1095.37
383.02	1097.71
383.22	1144.52
383.41	1020.47
383.61	1111.75
383.80	1086.01
384.00	1090.69
384.19	1219.42
384.39	1149.20
384.58	1132.82
384.78	1125.80
384.97	1107.07
385.17	1172.61
385.36	1036.86
385.56	1022.81
385.75	1086.01
385.95	1146.86
386.14	1153.88
386.34	1219.42
386.53	1212.40
386.72	1238.14
386.92	1287.29
387.11	1235.80
387.31	1198.35
387.50	1327.08
387.70	1369.21
387.89	1238.14
388.09	1167.93
388.28	1357.51
388.48	1291.98
388.67	1280.27
388.86	1348.15
389.06	1306.02
389.25	1434.75
389.45	1392.62
389.64	1310.70
389.84	1268.57
390.03	1373.89
390.22	1462.83
390.42	1352.83
390.61	1390.28
390.81	1366.87
391.00	1476.88
391.19	1476.88
391.39	1458.15
391.58	1451.13
391.78	1441.77
391.97	1479.22
392.16	1476.88
392.36	1549.43
392.55	1490.92
392.75	1591.56
392.94	1556.46
393.13	1535.39
393.33	1612.63
393.52	1586.88
393.71	1603.27
393.91	1593.90
394.10	1568.16
394.29	1589.22
394.49	1603.27
394.68	1582.20
394.88	1734.34
395.07	1699.23
395.26	1650.08
395.46	1678.16
395.65	1715.61
395.84	1748.38
396.04	1750.72
396.23	1788.17
396.42	1682.85
396.62	1755.40
396.81	1863.07
397.00	1802.21
397.19	1685.19
397.39	1823.28
397.58	1914.56
397.77	1722.63
397.97	1806.89
398.16	1849.02
398.35	1879.45
398.55	1802.21
398.74	1907.54
398.93	1893.49
399.12	1863.07
399.32	1940.30
399.51	1926.26
399.70	2085.42
399.90	1863.07
400.09	1973.07
400.28	2062.01
400.47	2026.90
400.67	2111.16
400.86	2069.03
401.05	2064.35
401.24	2059.67
401.44	2172.02
401.63	2143.93
401.82	2038.61
402.01	2033.93
402.21	2136.91
402.40	2188.40
402.59	2146.27
402.78	2235.21
402.97	2169.68
403.17	2207.13
403.36	2221.17
403.55	2312.45
403.74	2333.51
403.93	2307.77
404.13	2487.99
404.32	2319.47
404.51	2326.49
404.70	2429.48
404.89	2431.82
405.09	2483.31
405.28	2445.86
405.47	2562.89
405.66	2401.39
405.85	2466.92
406.05	2466.92
406.24	2539.48
406.43	2478.63
406.62	2693.96
406.81	2705.66
407.00	2602.68
407.20	2609.70
407.39	2544.16
407.58	2623.74
407.77	2628.42
407.96	2864.82
408.15	2801.62
408.34	2717.36
408.54	2745.45
408.73	2759.49
408.92	2700.98
409.11	2862.48
409.30	2761.83
409.49	2855.45
409.68	2939.71
409.87	2946.73
410.07	3000.57
410.26	2972.48
410.45	3035.67
410.64	3012.27
410.83	3061.42
411.02	2984.18
411.21	3157.38
411.40	3108.23
411.59	3290.79
411.78	3150.36
411.98	3150.36
412.17	3335.26
412.36	3300.16
412.55	3351.65
412.74	3489.74
412.93	3368.03
413.12	3368.03
413.31	3346.97
413.50	3421.86
413.69	3407.82
413.88	3599.74
414.07	3538.89
414.26	3513.14
414.45	3599.74
414.64	3723.79
414.83	3782.31
415.02	3763.58
415.22	3737.84
415.41	3929.76
415.60	3901.67
415.79	3857.20
415.98	3967.21
416.17	3906.35
416.36	3896.99
416.55	4035.08
416.74	4023.38
416.93	4042.11
417.12	4273.82
417.31	4081.89
417.50	4201.26
417.69	4175.52
417.88	4184.88
418.07	4189.56
418.26	4241.05
418.45	4383.82
418.64	4493.83
418.83	4271.48
419.02	4360.42
419.21	4517.23
419.39	4456.38
419.58	4372.12
419.77	4451.70
419.96	4641.28
420.15	4557.02
420.34	4552.34
420.53	4582.77
420.72	4671.71
420.91	4702.14
421.10	4767.67
421.29	4873.00
421.48	4711.50
421.67	4826.18
421.86	4755.97
422.05	4823.84
422.24	4610.86
422.43	4807.46
422.61	4748.95
422.80	4744.27
422.99	4990.02
423.18	4877.68
423.37	5004.07
423.56	4971.30
423.75	4753.63
423.94	4814.48
424.13	4566.39
424.32	4636.60
424.50	4837.89
424.69	5027.47
424.88	5210.03
425.07	4950.23
425.26	4898.74
425.45	4877.68
425.64	4968.96
425.83	4919.81
426.01	5116.41
426.20	5055.56
426.39	4880.02
426.58	5008.75
426.77	5102.37
426.96	5111.73
427.15	5109.39
427.33	5142.16
427.52	5109.39
427.71	5224.08
427.90	5055.56
428.09	5385.57
428.28	5252.16
428.46	5203.01
428.65	5284.93
428.84	5518.98
429.03	5495.58
429.22	5207.69
429.40	5397.28
429.59	5394.93
429.78	5364.51
429.97	5263.86
430.16	5376.21
430.34	5535.37
430.53	5511.96
430.72	5497.92
430.91	5586.86
431.10	5631.33
431.28	5783.46
431.47	5694.52
431.66	5905.17
431.85	5673.46
432.03	5881.77
432.22	6043.26
432.41	5795.17
432.60	5891.13
432.79	5720.27
432.97	5991.77
433.16	6069.01
433.35	5944.96
433.54	6001.13
433.72	6120.50
433.91	6282.00
434.10	6083.05
434.28	6050.28
434.47	6160.29
434.66	6160.29
434.85	6319.45
435.03	6270.30
435.22	6125.18
435.41	6450.52
435.59	6235.19
435.78	6338.17
435.97	6499.67
436.16	6422.43
436.34	6455.20
436.53	6445.84
436.72	6693.93
436.90	6312.42
437.09	6490.31
437.28	6326.47
437.46	6473.92
437.65	6558.18
437.84	6579.25
438.02	6780.53
438.21	6677.55
438.40	6572.22
438.58	6892.88
438.77	7030.97
438.96	6984.16
439.14	7243.96
439.33	7005.22
439.52	7040.33
439.70	7145.66
439.89	7487.37
440.08	7316.51
440.26	7417.16
440.45	7293.11
440.63	7229.91
440.82	7555.25
441.01	7522.48
441.19	7506.10
441.38	7669.94
441.57	7779.94
441.75	7791.64
441.94	7918.03
442.12	7880.58
442.31	8051.44
442.50	7901.65
442.68	7939.10
442.87	7997.61
443.05	8060.80
443.24	8173.15
443.43	8044.42
443.61	8210.60
443.80	8379.12
443.98	8156.77
444.17	7721.43
444.35	8100.59
444.54	8236.35
444.73	8313.58
444.91	8241.03
445.10	8201.24
445.28	8208.26
445.47	8173.15
445.65	8259.75
445.84	8276.13
446.02	8397.84
446.21	8306.56
446.39	8365.07
446.58	8594.45
446.77	8601.47
446.95	8196.56
447.14	8358.05
447.32	8535.93
447.51	8418.91
447.69	8332.31
447.88	8507.85
448.06	8528.91
448.25	8592.11
448.43	8559.34
448.62	8620.19
448.80	8409.54
448.99	8634.24
449.17	8798.07
449.36	8519.55
449.54	8851.91
449.73	8971.27
449.91	9015.74
450.10	8844.88
450.28	9076.60
450.46	9060.21
450.65	8997.02
450.83	8973.61
451.02	9088.30
451.20	9247.46
451.39	9041.49
451.57	8947.87
451.76	8954.89
451.94	9001.70
452.13	9287.25
452.31	9158.52
452.49	9135.11
452.68	9224.05
452.86	9369.16
453.05	9277.88
453.23	9453.42
453.42	9378.53
453.60	9158.52
453.78	9413.63
453.97	9296.61
454.15	9507.26
454.34	9308.31
454.52	9710.88
454.70	9465.13
454.89	9577.47
455.07	9764.72
455.26	9827.91
455.44	10143.88
455.62	9841.95
455.81	9781.10
455.99	9900.47
456.17	10010.47
456.36	9872.38
456.54	10104.09
456.73	10061.96
456.91	10436.45
457.09	10303.04
457.28	10637.73
457.46	10200.05
457.64	10305.38
457.83	10354.53
458.01	10429.43
458.19	10602.63
458.38	10422.41
458.56	10600.29
458.74	10757.10
458.93	10558.16
459.11	10677.52
459.29	10649.44
459.48	10672.84
459.66	10642.42
459.84	10824.98
460.03	10916.26
460.21	11073.07
460.39	10970.09
460.57	10939.66
460.76	11012.22
460.94	11105.84
461.12	10972.43
461.31	11103.50
461.49	11110.52
461.67	11126.91
461.85	11281.38
462.04	11044.99
462.22	11550.54
462.40	11461.60
462.59	11358.62
462.77	11440.54
462.95	11611.40
463.13	11445.22
463.32	11543.52
463.50	11681.61
463.68	11742.47
463.86	11737.79
464.05	11616.08
464.23	11576.29
464.41	11838.43
464.59	11580.97
464.78	11950.78
464.96	12006.95
465.14	11665.23
465.32	11812.68
465.50	12273.77
465.69	12020.99
465.87	11906.31
466.05	12198.87
466.23	12060.78
466.41	12407.18
466.60	12610.81
466.78	12135.68
466.96	12037.38
467.14	12308.88
467.32	12360.37
467.51	12421.22
467.69	12023.33
467.87	12362.71
468.05	12306.54
468.23	12121.63
468.41	12404.84
468.60	12482.08
468.78	12578.04
468.96	12374.41
469.14	12617.83
469.32	12844.86
469.50	12802.73
469.69	13032.10
469.87	13008.70
470.05	13097.64
470.23	13322.33
470.41	12987.63
470.59	12978.27
470.77	12950.18
470.95	12812.09
471.14	13432.33
471.32	13083.59
471.50	13366.80
471.68	13369.14
471.86	13605.53
472.04	13699.16
472.22	14068.96
472.40	13701.50
472.58	13703.84
472.77	13923.85
472.95	13893.42
473.13	14476.21
473.31	14085.34
473.49	14071.30
473.67	14097.05
473.85	14178.97
474.03	14560.47
474.21	14576.86
474.39	14771.12
474.57	14614.30
474.75	14714.95
474.93	14799.21
475.12	14944.32
475.30	14920.92
475.48	14848.36
475.66	15112.84
475.84	14979.43
476.02	15300.08
476.20	15566.90
476.38	15513.07
476.56	15955.43
476.74	16006.92
476.92	15744.78
477.10	15730.74
477.28	16114.59
477.46	15817.34
477.64	16348.64
477.82	16322.90
478.00	16945.48
478.18	16589.72
478.36	16510.14
478.54	16931.44
478.72	17039.10
478.90	17018.04
479.08	17525.93
479.26	17790.41
479.44	17657.00
479.62	18022.12
479.80	17888.71
479.98	18015.10
480.16	18420.02
480.34	18319.37
480.52	18319.37
480.70	18637.69
480.88	18307.67
481.06	18614.28
481.24	18649.39
481.41	19321.12
481.59	19335.17
481.77	19297.72
481.95	19454.53
482.13	19749.44
482.31	19484.96
482.49	19983.49
482.67	19903.92
482.85	20224.57
483.03	20458.62
483.21	20482.03
483.39	20828.43
483.57	20650.55
483.74	20819.07
483.92	21245.04
484.10	21486.12
484.28	21460.37
484.46	22019.76
484.64	22422.33
484.82	21984.65
485.00	22134.45
485.18	22609.58
485.35	22864.69
485.53	22443.40
485.71	22782.77
485.89	23131.51
486.07	23227.48
486.25	23307.05
486.43	23864.10
486.61	23697.92
486.78	23997.51
486.96	23964.75
487.14	24299.44
487.32	24360.30
487.50	24704.35
487.68	24898.62
487.85	25174.80
488.03	25385.45
488.21	25591.42
488.39	25731.85
488.57	26160.17
488.75	25741.21
488.92	26082.93
489.10	26434.01
489.28	26733.60
489.46	26916.16
489.64	26932.54
489.81	27475.55
489.99	27468.53
490.17	27534.06
490.35	28208.14
490.53	28318.14
490.70	28252.61
490.88	28266.65
491.06	28631.77
491.24	28718.37
491.41	28847.10
491.59	29406.49
491.77	28964.13
491.95	29469.69
492.13	29312.87
492.30	29846.51
492.48	29715.44
492.66	29902.68
492.84	30274.83
493.01	30504.20
493.19	30656.34
493.37	30742.94
493.54	30965.29
493.72	31115.08
493.90	31096.36
494.08	30796.77
494.25	32177.68
494.43	31992.78
494.61	32065.34
494.79	32313.44
494.96	32196.41
495.14	32559.19
495.32	33242.63
495.49	32828.35
495.67	33343.27
495.85	33357.32
496.02	33670.95
496.20	33605.41
496.38	34129.69
496.55	33984.58
496.73	34354.38
496.91	34394.17
497.09	34239.70
497.26	34792.06
497.44	34663.33
497.62	34958.24
497.79	35400.60
497.97	35056.54
498.14	35852.33
498.32	35936.59
498.50	35763.39
498.67	36184.68
498.85	36018.50
499.03	36753.43
499.20	36385.97
499.38	36285.33
499.56	36645.77
499.73	36395.33
499.91	36554.49
500.08	37474.32
500.26	37448.57
500.44	37603.05
500.61	37642.84
500.79	37762.20
500.97	37956.47
501.14	38548.62
501.32	38756.93
501.49	38405.85
501.67	38546.28
501.84	38604.80
502.02	38642.24
502.20	38918.43
502.37	39269.51
502.55	39133.76
502.72	39274.19
502.90	39674.42
503.07	39433.35
503.25	39721.23
503.43	39299.94
503.60	39812.51
503.78	40091.04
503.95	39990.39
504.13	40053.59
504.30	40343.81
504.48	40341.47
504.65	40175.30
504.83	40706.60
505.01	41202.79
505.18	40774.47
505.36	41310.46
505.53	40971.08
505.71	41755.16
505.88	41645.15
506.06	41177.04
506.23	41900.27
506.41	41771.54
506.58	42103.90
506.76	42370.72
506.93	42426.89
507.11	41975.17
507.28	42344.97
507.46	42323.91
507.63	42604.77
507.81	43147.78
507.98	42820.10
508.16	43168.84
508.33	42969.90
508.50	43051.81
508.68	43498.86
508.85	43302.25
509.03	43543.33
509.20	43964.62
509.38	44126.12
509.55	44203.36
509.73	44603.59
509.90	44367.20
510.08	44264.21
510.25	44362.51
510.42	44376.56
510.60	45198.09
510.77	45132.55
510.95	44882.11
511.12	44650.40
511.30	44992.12
511.47	45228.51
511.64	45305.75
511.82	45628.74
511.99	45317.45
512.17	45736.41
512.34	45558.53
512.51	46146.00
512.69	46007.91
512.86	45879.18
513.04	46480.70
513.21	46408.14
513.38	46335.59
513.56	46848.16
513.73	46363.67
513.90	46710.07
514.08	46656.24
514.25	47012.00
514.43	47173.50
514.60	47009.66
514.77	47325.63
514.95	47753.95
515.12	47019.02
515.29	47302.23
515.47	47732.89
515.64	47824.17
515.81	47501.17
515.99	48072.26
516.16	48170.57
516.33	48013.75
516.51	48360.15
516.68	48327.38
516.85	48030.13
517.03	48711.23
517.20	48006.73
517.37	48633.99
517.54	48467.81
517.72	48898.47
517.89	49088.06
518.06	48739.32
518.24	49455.52
518.41	48715.91
518.58	48884.43
518.75	49333.81
518.93	49382.96
519.10	49474.24
519.27	49684.89
519.45	49588.93
519.62	49502.33
519.79	49979.80
519.96	49605.31
520.14	49963.42
520.31	49876.82
520.48	50375.35
520.65	50475.99
520.83	50471.31
521.00	50763.88
521.17	50136.62
521.34	50593.02
521.52	50740.47
521.69	50740.47
521.86	50433.86
522.03	50588.34
522.20	51042.40
522.38	51538.60
522.55	51138.36
522.72	51412.21
522.89	51086.87
523.07	51381.78
523.24	51224.96
523.41	51426.25
523.58	51105.60
523.75	51522.21
523.92	51442.63
524.10	51697.75
524.27	52018.41
524.44	51576.04
524.61	52016.07
524.78	51992.66
524.96	51849.89
525.13	52182.24
525.30	52069.90
525.47	52240.76
525.64	52151.82
525.81	52273.52
525.98	52556.73
526.16	52278.21
526.33	52381.19
526.50	52750.99
526.67	52533.32
526.84	52526.30
527.01	52470.13
527.18	53031.86
527.36	52849.30
527.53	52758.02
527.70	53312.72
527.87	53003.77
528.04	52891.43
528.21	53317.40
528.38	53195.70
528.55	53432.09
528.72	53263.57
528.89	53352.51
529.07	53109.10
529.24	53216.76
529.41	53759.76
529.58	53343.15
529.75	53546.78
529.92	53490.60
530.09	53432.09
530.26	53771.47
530.43	53888.49
530.60	53696.57
530.77	53605.29
530.94	53837.00
531.11	53897.86
531.28	53897.86
531.46	54026.59
531.63	53958.71
531.80	54024.25
531.97	54108.50
532.14	54447.88
532.31	54277.02
532.48	54468.95
532.65	54457.24
532.82	54218.51
532.99	54459.58
533.16	54347.24
533.33	54398.73
533.50	54773.22
533.67	54518.10
533.84	54424.48
534.01	54644.49
534.18	54548.53
534.35	55056.42
534.52	54894.92
534.69	54899.61
534.86	55061.10
535.03	54789.60
535.20	55304.52
535.37	55079.83
535.54	55138.34
535.71	55161.75
535.88	55248.35
536.05	55400.48
536.22	55409.84
536.38	55442.61
536.55	55421.55
536.72	55210.90
536.89	55365.37
537.06	55540.91
537.23	55770.28
537.40	55201.53
537.57	55662.62
537.74	55468.36
537.91	55770.28
538.08	55524.53
538.25	55440.27
538.42	55779.65
538.59	56053.49
538.75	55482.40
538.92	55561.98
539.09	55901.36
539.26	55941.14
539.43	56179.88
539.60	56013.70
539.77	56130.73
539.94	56317.97
540.11	56238.39
540.28	56123.71
540.44	56285.20
540.61	56191.58
540.78	56182.22
540.95	56268.82
541.12	56217.33
541.29	56385.85
541.46	56481.81
541.62	56322.65
541.79	56460.74
541.96	56442.02
542.13	56535.64
542.30	56470.11
542.47	56769.69
542.63	56893.74
542.80	56816.50
542.97	56807.14
543.14	56891.40
543.31	56804.80
543.48	57010.77
543.64	57392.28
543.81	57265.89
543.98	57118.43
544.15	57137.16
544.32	57230.78
544.48	57403.98
544.65	57160.56
544.82	57078.64
544.99	57069.28
545.16	57275.25
545.32	56945.23
545.49	57588.88
545.66	57521.01
545.83	57333.76
546.00	57595.90
546.16	57485.90
546.33	57607.61
546.50	57354.83
546.67	57502.28
546.83	57535.05
547.00	57411.00
547.17	57312.70
547.34	57539.73
547.50	58000.82
547.67	57822.93
547.84	57794.85
548.00	57909.53
548.17	58045.29
548.34	57984.43
548.51	58248.91
548.67	58117.84
548.84	57879.11
549.01	57865.06
549.18	58005.50
549.34	58127.20
549.51	58185.72
549.68	58480.63
549.84	58129.54
550.01	58209.12
550.18	58269.98
550.34	58417.43
550.51	58408.07
550.68	58157.63
550.84	57970.39
551.01	58412.75
551.18	58223.17
551.34	58293.38
551.51	58473.60
551.68	58300.40
551.84	58415.09
552.01	58379.98
552.18	58609.35
552.34	58555.52
552.51	58609.35
552.68	58382.32
552.84	58553.18
553.01	58710.00
553.18	58663.19
553.34	58691.27
553.51	58511.05
553.67	58440.84
553.84	58986.18
554.01	58710.00
554.17	58997.88
554.34	58876.18
554.51	58845.75
554.67	58927.67
554.84	58862.13
555.00	58794.26
555.17	58897.24
555.33	58768.51
555.50	58688.93
555.67	58901.92
555.83	58805.96
556.00	58951.07
556.16	59290.45
556.33	59112.57
556.50	59044.69
556.66	59250.66
556.83	58955.75
556.99	59302.15
557.16	59377.05
557.32	59318.54
557.49	59353.65
557.65	59213.21
557.82	59236.62
557.98	59103.21
558.15	59360.67
558.32	59391.09
558.48	59231.94
558.65	59444.93
558.81	59295.13
558.98	59325.56
559.14	59442.59
559.31	59538.55
559.47	59346.62
559.64	59751.54
559.80	59332.58
559.97	59576.00
560.13	59536.21
560.30	59487.06
560.46	59398.12
560.63	59732.81
560.79	59655.57
560.96	59924.74
561.12	59746.86
561.29	59732.81
561.45	59657.91
561.61	59664.94
561.78	59620.47
561.94	59662.60
562.11	59721.11
562.27	59847.50
562.44	59835.80
562.60	59913.03
562.77	59847.50
562.93	59629.83
563.10	59824.09
563.26	59763.24
563.42	60097.94
563.59	59753.88
563.75	59887.29
563.92	59936.44
564.08	59849.84
564.24	60037.08
564.41	59810.05
564.57	60126.02
564.74	59913.03
564.90	59987.93
565.07	59831.11
565.23	60001.97
565.39	60055.81
565.56	60030.06
565.72	60051.12
565.88	60037.08
566.05	60037.08
566.21	59966.87
566.38	60191.56
566.54	60353.05
566.70	60172.83
566.87	60498.17
567.03	59948.14
567.19	60322.63
567.36	60186.88
567.52	60023.04
567.68	60502.85
567.85	60158.79
568.01	60214.96
568.17	60282.84
568.34	60341.35
568.50	60093.25
568.66	60303.90
568.83	60214.96
568.99	60175.17
569.15	60451.36
569.32	60184.54
569.48	60147.09
569.64	60299.22
569.81	60390.50
569.97	60079.21
570.13	60434.97
570.30	60296.88
570.46	60402.21
570.62	60292.20
570.78	60385.82
570.95	60402.21
571.11	60331.99
571.27	60561.36
571.43	60460.72
571.60	60441.99
571.76	60451.36
571.92	60294.54
572.09	60264.11
572.25	60580.09
572.41	60324.97
572.57	60526.25
572.74	60664.35
572.90	60491.15
573.06	60647.96
573.22	60507.53
573.38	60444.33
573.55	60549.66
573.71	60757.97
573.87	60647.96
574.03	60418.59
574.20	60528.59
574.36	60336.67
574.52	60601.15
574.68	60636.26
574.84	60533.28
575.01	60598.81
575.17	60472.42
575.33	60371.78
575.49	60516.89
575.65	60451.36
575.82	60802.44
575.98	60701.79
576.14	60963.93
576.30	60645.62
576.46	60486.46
576.62	60743.92
576.79	60645.62
576.95	60519.23
577.11	60598.81
577.27	60678.39
577.43	60669.03
577.59	60676.05
577.75	60446.68
577.92	60575.40
578.08	60512.21
578.24	60552.00
578.40	60996.70
578.56	60704.13
578.72	60729.88
578.88	60830.52
579.04	60851.59
579.21	60837.54
579.37	60720.52
579.53	60783.71
579.69	60652.64
579.85	60500.51
580.01	60591.79
580.17	60734.56
580.33	60851.59
580.49	60879.67
580.65	60814.14
580.82	60779.03
580.98	60654.98
581.14	60533.28
581.30	60942.87
581.46	60853.93
581.62	60882.02
581.78	60678.39
581.94	60837.54
582.10	60853.93
582.26	60814.14
582.42	60769.67
582.58	60786.05
582.74	60776.69
582.90	60800.10
583.06	60767.33
583.22	60552.00
583.38	60697.11
583.54	61006.06
583.70	60884.36
583.86	61059.90
584.02	60879.67
584.18	60992.02
584.34	61120.75
584.50	60809.46
584.66	60725.20
584.82	60706.47
584.98	60959.25
585.14	61045.85
585.30	60940.53
585.46	60921.80
585.62	60973.30
585.78	60905.42
585.94	60662.00
586.10	60924.14
586.26	60760.31
586.42	60853.93
586.58	60996.70
586.74	60701.79
586.90	60928.83
587.06	60800.10
587.22	61139.47
587.38	60802.44
587.54	61043.51
587.70	61127.77
587.86	60884.36
588.02	60743.92
588.18	61113.73
588.34	60823.50
588.49	60870.31
588.65	60699.45
588.81	61066.92
588.97	60987.34
589.13	60903.08
589.29	61151.18
589.45	61013.08
589.61	61078.62
589.77	61373.53
589.93	61202.67
590.08	61190.97
590.24	61137.13
590.40	61364.17
590.56	61492.89
590.72	61118.41
590.88	61202.67
591.04	61240.12
591.20	61623.96
591.35	61207.35
591.51	61497.58
591.67	61233.10
591.83	61244.80
591.99	61160.54
592.15	61151.18
592.31	61293.95
592.46	61375.87
592.62	61256.50
592.78	61221.39
592.94	61293.95
593.10	61361.82
593.26	61240.12
593.41	61464.81
593.57	61464.81
593.73	61197.99
593.89	61525.66
594.05	61469.49
594.20	61148.84
594.36	61333.74
594.52	61263.52
594.68	61361.82
594.84	61324.38
594.99	61205.01
595.15	61368.85
595.31	61366.51
595.47	61303.31
595.62	61406.30
595.78	61230.75
595.94	61434.38
596.10	61581.84
596.25	61453.11
596.41	61623.96
596.57	61528.00
596.73	61586.52
596.88	61504.60
597.04	61584.18
597.20	61588.86
597.36	61607.58
597.51	61659.07
597.67	61457.79
597.83	61357.14
597.99	61600.56
598.14	61410.98
598.30	61565.45
598.46	61628.65
598.61	61565.45
598.77	61497.58
598.93	61481.19
599.09	61483.53
599.24	61673.12
599.40	61563.11
599.56	61467.15
599.71	61530.34
599.87	61764.40
600.03	61579.49
600.18	61630.99
600.34	61567.79
600.50	61462.47
600.65	61504.60
600.81	61614.60
600.97	61666.09
601.12	61659.07
601.28	61535.02
601.44	61516.30
601.59	61558.43
601.75	61605.24
601.91	61607.58
602.06	61462.47
602.22	61738.65
602.37	61523.32
602.53	61570.13
602.69	61523.32
602.84	61471.83
603.00	61556.09
603.16	61483.53
603.31	61659.07
603.47	61736.31
603.62	61654.39
603.78	61743.33
603.94	61656.73
604.09	61808.87
604.25	61518.64
604.40	61432.04
604.56	61733.97
604.71	61684.82
604.87	61502.26
605.03	61619.28
605.18	61762.06
605.34	61640.35
605.49	61490.55
605.65	61574.81
605.80	61422.68
605.96	61783.12
606.12	61771.42
606.27	61682.48
606.43	61497.58
606.58	61776.10
606.74	61591.20
606.89	61586.52
607.05	61626.31
607.20	61897.81
607.36	61567.79
607.51	61469.49
607.67	61340.76
607.82	61123.09
607.98	61497.58
608.13	61434.38
608.29	61530.34
608.44	61563.11
608.60	61645.03
608.75	61427.36
608.91	61347.78
609.06	61511.62
609.22	61630.99
609.37	61392.25
609.53	61432.04
609.68	61483.53
609.84	61462.47
609.99	61609.92
610.15	61516.30
610.30	61551.41
610.46	61497.58
610.61	61518.64
610.76	61331.40
610.92	61319.70
611.07	61553.75
611.23	61331.40
611.38	61481.19
611.54	61429.70
611.69	61394.59
611.84	61499.92
612.00	61392.25
612.15	61434.38
612.31	61453.11
612.46	61378.21
612.62	61464.81
612.77	61324.38
612.92	61282.25
613.08	61315.01
613.23	61434.38
613.39	61169.90
613.54	61041.17
613.69	61343.10
613.85	61450.77
614.00	61520.98
614.15	61420.34
614.31	61172.24
614.46	61506.94
614.62	61455.45
614.77	61392.25
614.92	61237.78
615.08	61176.92
615.23	61027.13
615.38	61272.88
615.54	61165.22
615.69	61284.59
615.84	61212.03
616.00	61242.46
616.15	61066.92
616.30	61298.63
616.46	61291.61
616.61	60896.06
616.76	61272.88
616.92	61006.06
617.07	61048.19
617.22	61001.38
617.37	61385.23
617.53	61087.98
617.68	61284.59
617.83	61099.68
617.99	61090.32
618.14	61146.50
618.29	61176.92
618.45	61013.08
618.60	61017.77
618.75	60788.39
618.90	61031.81
619.06	61141.81
619.21	61071.60
619.36	61202.67
619.51	60949.89
619.67	60830.52
619.82	60882.02
619.97	61188.63
620.12	60835.20
620.28	60797.76
620.43	60896.06
620.58	60786.05
620.73	61003.72
620.89	61036.49
621.04	61029.47
621.19	60706.47
621.34	60846.91
621.49	60650.30
621.65	60666.69
621.80	60973.30
621.95	60697.11
622.10	60842.23
622.25	60928.83
622.41	60711.16
622.56	60697.11
622.71	60669.03
622.86	60636.26
623.01	60837.54
623.16	60589.45
623.32	60776.69
623.47	60802.44
623.62	60547.32
623.77	60750.94
623.92	60713.50
624.07	60622.22
624.23	60889.04
624.38	60486.46
624.53	60584.77
624.68	60313.26
624.83	60425.61
624.98	60715.84
625.13	60339.01
625.29	60556.68
625.44	60484.12
625.59	60437.31
625.74	60317.95
625.89	60552.00
626.04	60299.22
626.19	60397.52
626.34	60317.95
626.49	60257.09
626.65	60189.22
626.80	60369.44
626.95	60069.85
627.10	60111.98
627.25	60205.60
627.40	60383.48
627.55	60273.48
627.70	60399.86
627.85	60308.58
628.00	60191.56
628.15	60126.02
628.30	60320.29
628.45	60086.23
628.60	60060.49
628.76	60079.21
628.91	60392.84
629.06	60001.97
629.21	60149.43
629.36	59882.61
629.51	60104.96
629.66	59943.46
629.81	59700.04
629.96	60067.51
630.11	59891.97
630.26	59938.78
630.41	59992.61
630.56	59889.63
630.71	59880.27
630.86	60030.06
631.01	59798.35
631.16	59952.82
631.31	59695.36
631.46	59475.35
631.61	60083.89
631.76	60060.49
631.91	59824.09
632.06	59870.90
632.21	59980.91
632.36	60055.81
632.51	59594.72
632.66	59629.83
632.81	59807.71
632.96	59959.84
633.10	59807.71
633.25	59653.23
633.40	59758.56
633.55	59772.60
633.70	59676.64
633.85	59639.19
634.00	59444.93
634.15	59526.84
634.30	59512.80
634.45	59704.73
634.60	59810.05
634.75	59564.29
634.90	59545.57
635.05	59571.32
635.19	59634.51
635.34	59519.82
635.49	59613.44
635.64	59505.78
635.79	59400.46
635.94	59444.93
636.09	59377.05
636.24	59253.00
636.39	59505.78
636.53	59552.59
636.68	59412.16
636.83	59374.71
636.98	59503.44
637.13	59089.16
637.28	59238.96
637.43	59327.90
637.57	59143.00
637.72	59185.13
637.87	59388.75
638.02	59465.99
638.17	59454.29
638.32	59313.86
638.46	59274.07
638.61	59316.20
638.76	59140.66
638.91	59154.70
639.06	59236.62
639.20	58962.78
639.35	58927.67
639.50	59128.95
639.65	59150.02
639.80	59164.06
639.94	59082.14
640.09	59154.70
640.24	59105.55
640.39	59004.91
640.54	58913.62
640.68	58997.88
640.83	59082.14
640.98	59063.42
641.13	58824.68
641.27	59168.74
641.42	58955.75
641.57	58930.01
641.72	58918.31
641.86	58691.27
642.01	58803.62
642.16	58681.91
642.31	58702.98
642.45	58967.46
642.60	58728.72
642.75	59070.44
642.90	58812.98
643.04	58759.15
643.19	58635.10
643.34	58714.68
643.48	58681.91
643.63	58857.45
643.78	58595.31
643.93	58787.24
644.07	58710.00
644.22	58604.67
644.37	58401.05
644.51	58370.62
644.66	58761.49
644.81	58499.35
644.95	58419.77
645.10	58529.78
645.25	58312.11
645.39	58384.66
645.54	58567.23
645.69	58529.78
645.83	58494.67
645.98	58700.64
646.13	58489.99
646.27	58342.53
646.42	58262.96
646.57	58227.85
646.71	58567.23
646.86	58569.57
647.00	58454.88
647.15	58340.19
647.30	58295.72
647.44	58230.19
647.59	58571.91
647.74	58246.57
647.88	58422.11
648.03	58281.68
648.17	58478.28
648.32	58284.02
648.47	58379.98
648.61	58213.80
648.76	58323.81
648.90	58281.68
649.05	58192.74
649.20	58047.63
649.34	57883.79
649.49	58344.87
649.63	58321.47
649.78	58497.01
649.92	58230.19
650.07	58059.33
650.21	58101.46
650.36	58129.54
650.51	57930.60
650.65	58110.82
650.80	57986.77
650.94	57841.66
651.09	57839.32
651.23	57670.80
651.38	57844.00
651.52	57659.10
651.67	57614.63
651.81	58122.52
651.96	57722.29
652.10	57853.36
652.25	57724.63
652.39	57790.17
652.54	57549.09
652.68	57752.72
652.83	57829.96
652.97	57513.98
653.12	57818.25
653.26	57612.29
653.41	57764.42
653.55	57729.31
653.70	57361.85
653.84	57844.00
653.99	57743.36
654.13	57675.48
654.27	57481.22
654.42	57495.26
654.56	57322.06
654.71	57485.90
654.85	57502.28
655.00	57581.86
655.14	57684.84
655.29	57413.34
655.43	57495.26
655.57	57190.99
655.72	57462.49
655.86	57574.84
656.01	57396.96
656.15	57151.20
656.30	57481.22
656.44	57413.34
656.58	57478.88
656.73	57504.62
656.87	57284.61
657.01	57467.17
657.16	57469.51
657.30	57162.90
657.45	57031.83
657.59	57097.37
657.73	56966.30
657.88	56945.23
658.02	57024.81
658.16	57085.67
658.31	57127.80
658.45	56975.66
658.60	56959.28
658.74	57031.83
658.88	57076.30
659.03	56802.46
659.17	56617.56
659.31	56992.04
659.46	56970.98
659.60	56797.78
659.74	56970.98
659.89	56706.50
660.03	56713.52
660.17	56715.86
660.32	56687.78
660.46	56814.16
660.60	56722.88
660.74	56741.61
660.89	56662.03
661.03	56334.35
661.17	56287.54
661.32	56210.31
661.46	56643.30
661.60	56409.25
661.74	55945.83
661.89	56247.75
662.03	56189.24
662.17	56308.61
662.31	56301.59
662.46	56374.14
662.60	56074.55
662.74	55983.27
662.88	55980.93
663.03	56018.38
663.17	56086.26
663.31	55863.91
663.45	55896.67
663.60	55655.60
663.74	55683.69
663.88	55533.89
664.02	55657.94
664.17	55732.84
664.31	55288.13
664.45	55437.93
664.59	55618.15
664.73	55412.18
664.88	55384.10
665.02	55262.39
665.16	55292.82
665.30	55454.31
665.44	55220.26
665.59	55107.91
665.73	55267.07
665.87	55009.61
666.01	55473.04
666.15	55140.68
666.29	55274.09
666.44	55241.32
666.58	55037.70
666.72	54892.58
666.86	54637.47
667.00	54911.31
667.14	54777.90
667.28	54693.64
667.43	54576.61
667.57	54731.09
667.71	54595.34
667.85	54665.55
667.99	54497.03
668.13	54281.70
668.27	54293.41
668.41	54305.11
668.56	54106.16
668.70	54085.10
668.84	54244.26
668.98	53949.35
669.12	53979.78
669.26	54466.61
669.40	54396.39
669.54	54176.38
669.68	54150.63
669.82	53822.96
669.96	53813.60
670.10	53975.09
670.25	54045.31
670.39	53614.65
670.53	53883.81
670.67	53560.82
670.81	53764.45
670.95	53722.32
671.09	53638.06
671.23	53216.76
671.37	53261.23
671.51	53544.44
671.65	53448.47
671.79	53176.97
671.93	52638.65
672.07	53066.97
672.21	52753.33
672.35	52645.67
672.49	52566.09
672.63	52783.76
672.77	52739.29
672.91	52465.45
673.05	52507.58
673.19	52645.67
673.33	52222.03
673.47	52067.56
673.61	52451.41
673.75	52310.97
673.89	51784.35
674.03	51831.16
674.17	51655.62
674.31	51409.87
674.45	51480.08
674.59	51863.93
674.73	51620.52
674.87	51693.07
675.01	51440.29
675.15	51194.54
675.29	51112.62
675.43	51515.19
675.56	51075.17
675.70	51187.52
675.84	50548.55
675.98	49958.73
676.12	50801.33
676.26	50616.43
676.40	50284.07
676.54	50644.51
676.68	50487.70
676.82	50188.11
676.96	50267.69
677.10	49900.22
677.23	49691.91
677.37	50089.80
677.51	49610.00
677.65	49490.63
677.79	48666.76
677.93	48643.35
678.07	48893.79
678.21	48591.86
678.34	48741.66
678.48	48774.42
678.62	48638.67
678.76	48704.21
678.90	48193.97
679.04	48348.45
679.18	47927.15
679.31	47936.51
679.45	47849.91
679.59	47873.32
679.73	48093.33
679.87	47580.75
680.00	46941.78
680.14	47318.61
680.28	46864.55
680.42	46731.14
680.56	46581.34
680.70	46752.20
680.83	46557.94
680.97	46845.82
681.11	46897.31
681.25	46333.24
681.39	46328.56
681.52	45968.12
681.66	46213.88
681.80	45921.31
681.94	45338.52
682.07	45677.90
682.21	45317.45
682.35	45113.83
682.49	44830.62
682.62	45331.50
682.76	45177.02
682.90	44863.39
683.04	44879.77
683.17	44678.49
683.31	44474.86
683.45	44119.10
683.59	44144.84
683.72	43695.46
683.86	43688.44
684.00	43707.16
684.13	44142.50
684.27	43501.20
684.41	43768.02
684.55	43688.44
684.68	43033.09
684.82	42993.30
684.96	42703.07
685.09	42480.72
685.23	42569.66
685.37	42019.64
685.50	42536.90
685.64	42497.11
685.78	41991.55
685.91	42277.10
686.05	41989.21
686.19	41181.73
686.32	41233.22
686.46	40634.04
686.60	40570.85
686.73	40458.50
686.87	40570.85
687.01	41120.87
687.14	41038.95
687.28	39945.92
687.42	40135.51
687.55	39789.11
687.69	40360.20
687.82	39777.40
687.96	39732.93
688.10	39213.34
688.23	39840.60
688.37	39227.38
688.50	38815.44
688.64	38553.30
688.78	38637.56
688.91	38366.06
689.05	38616.50
689.18	37914.34
689.32	37464.96
689.46	37261.33
689.59	37523.47
689.73	37567.94
689.86	37699.01
690.00	37244.94
690.13	37605.39
690.27	37376.01
690.41	37343.25
690.54	37134.94
690.68	36666.83
690.81	36678.54
690.95	36388.31
691.08	35833.60
691.22	36229.15
691.35	36327.45
691.49	35908.50
691.62	35693.17
691.76	35779.77
691.89	35615.93
692.03	35374.86
692.16	35154.85
692.30	35145.48
692.43	34789.72
692.57	34782.70
692.70	34756.96
692.84	34515.88
692.97	34600.14
693.11	34293.53
693.24	34141.39
693.38	34031.39
693.51	33298.80
693.65	33593.71
693.78	33394.76
693.92	33795.00
694.05	32807.29
694.19	33357.32
694.32	33123.26
694.45	32914.95
694.59	32563.87
694.72	31992.78
694.86	32142.58
694.99	32051.30
695.13	31742.35
695.26	31332.75
695.39	31967.04
695.53	31566.81
695.66	31751.71
695.80	31105.72
695.93	31356.16
696.07	30199.93
696.20	30436.33
696.33	30445.69
696.47	30597.82
696.60	30604.84
696.73	30642.29
696.87	30251.42
697.00	29930.77
697.14	30321.64
697.27	29766.93
697.40	29673.31
697.54	29584.37
697.67	29130.31
697.80	28879.87
697.94	28865.83
698.07	28606.03
698.21	28985.19
698.34	28931.36
698.47	28666.88
698.61	28531.13
698.74	28252.61
698.87	28687.95
699.01	27885.14
699.14	28130.90
699.27	28039.62
699.40	27931.95
699.54	27601.94
699.67	27372.57
699.80	27424.06
699.94	27023.83
700.07	27496.61
700.20	27000.42
700.34	26691.47
700.47	26621.25
700.60	26462.10
700.73	26228.04
700.87	26066.55
701.00	25855.90
701.13	25738.87
701.26	26288.90
701.40	25560.99
701.53	25659.29
701.66	25907.39
701.79	25371.41
701.93	25273.10
702.06	24964.15
702.19	24858.83
702.32	25081.18
702.46	24809.68
702.59	24486.68
702.72	24570.94
702.85	24498.39
702.99	24393.06
703.12	23894.53
703.25	23346.84
703.38	23620.69
703.51	23590.26
703.65	23307.05
703.78	23047.26
703.91	22955.97
704.04	23421.74
704.17	23005.13
704.31	23105.77
704.44	22614.26
704.57	22403.61
704.70	22473.82
704.83	22192.96
704.96	22373.18
705.10	22359.14
705.23	22174.24
>>>>>End Processed Spectral Data<<<<<
