SpectraSuite Data File
++++++++++++++++++++++++++++++++++++
Date: Fri Oct 25 10:44:27 EDT 2013
User: price-jones
Dark Spectrum Present: No
Reference Spectrum Present: No
Number of Sampled Component Spectra: 1
Spectrometers: USB2+H05261
Integration Time (usec): 100000 (USB2+H05261)
Spectra Averaged: 1 (USB2+H05261)
Boxcar Smoothing: 0 (USB2+H05261)
Correct for Electrical Dark: No (USB2+H05261)
Strobe/Lamp Enabled: No (USB2+H05261)
Correct for Detector Non-linearity: No (USB2+H05261)
Correct for Stray Light: No (USB2+H05261)
Number of Pixels in Processed Spectrum: 2048
>>>>>Begin Processed Spectral Data<<<<<
365.73	95.96
365.92	95.96
366.12	95.96
366.32	11.70
366.52	18.72
366.72	44.47
366.91	2.34
367.11	30.43
367.31	60.85
367.51	65.54
367.70	65.54
367.90	53.83
368.10	35.11
368.30	0.00
368.49	21.06
368.69	93.62
368.89	16.38
369.09	42.13
369.28	77.24
369.48	42.13
369.68	65.54
369.87	88.94
370.07	42.13
370.27	124.05
370.47	159.16
370.66	461.09
370.86	411.93
371.06	454.06
371.25	449.38
371.45	430.66
371.65	477.47
371.84	475.13
372.04	437.68
372.24	454.06
372.44	510.24
372.63	531.30
372.83	486.83
373.03	526.62
373.22	500.87
373.42	517.26
373.62	564.07
373.81	596.84
374.01	634.29
374.21	566.41
374.40	587.47
374.60	631.94
374.79	557.05
374.99	564.07
375.19	594.50
375.38	648.33
375.58	627.26
375.78	538.32
375.97	568.75
376.17	744.29
376.37	613.22
376.56	573.43
376.76	641.31
376.95	568.75
377.15	606.20
377.35	596.84
377.54	746.63
377.74	615.56
377.93	669.39
378.13	624.92
378.33	667.05
378.52	690.46
378.72	620.24
378.91	667.05
379.11	615.56
379.31	610.88
379.50	622.58
379.70	627.26
379.89	622.58
380.09	638.97
380.28	655.35
380.48	772.38
380.68	727.91
380.87	706.84
381.07	734.93
381.26	734.93
381.46	805.14
381.65	683.44
381.85	727.91
382.04	784.08
382.24	767.70
382.43	767.70
382.63	681.10
382.83	786.42
383.02	791.10
383.22	760.67
383.41	681.10
383.61	767.70
383.80	800.46
384.00	763.01
384.19	774.72
384.39	784.08
384.58	938.55
384.78	809.83
384.97	842.59
385.17	880.04
385.36	786.42
385.56	863.66
385.75	791.10
385.95	842.59
386.14	847.27
386.34	791.10
386.53	847.27
386.72	821.53
386.92	866.00
387.11	866.00
387.31	922.17
387.50	889.40
387.70	901.11
387.89	891.74
388.09	877.70
388.28	821.53
388.48	917.49
388.67	1006.43
388.86	936.21
389.06	945.58
389.25	1032.18
389.45	1027.50
389.64	1039.20
389.84	1116.44
390.03	1036.86
390.22	1015.79
390.42	950.26
390.61	1029.84
390.81	1137.50
391.00	1090.69
391.19	1104.73
391.39	1137.50
391.58	1050.90
391.78	1043.88
391.97	990.05
392.16	1057.92
392.36	1029.84
392.55	1034.52
392.75	1025.15
392.94	1032.18
393.13	1022.81
393.33	1029.84
393.52	1015.79
393.71	1198.35
393.91	1142.18
394.10	1076.65
394.29	1121.12
394.49	1186.65
394.68	1184.31
394.88	1212.40
395.07	1284.95
395.26	1282.61
395.46	1217.08
395.65	1254.53
395.84	1200.69
396.04	1284.95
396.23	1252.19
396.42	1043.88
396.62	1261.55
396.81	1203.04
397.00	1336.45
397.19	1291.98
397.39	1348.15
397.58	1366.87
397.77	1345.81
397.97	1404.32
398.16	1432.41
398.35	1469.86
398.55	1469.86
398.74	1570.50
398.93	1556.46
399.12	1565.82
399.32	1516.67
399.51	1589.22
399.70	1673.48
399.90	1584.54
400.09	1638.38
400.28	1551.78
400.47	1666.46
400.67	1671.14
400.86	1626.67
401.05	1621.99
401.24	1593.90
401.44	1778.81
401.63	1827.96
401.82	1727.32
402.01	1668.80
402.21	1734.34
402.40	1736.68
402.59	1755.40
402.78	1844.34
402.97	1741.36
403.17	1764.76
403.36	1741.36
403.55	1741.36
403.74	1944.99
403.93	1930.94
404.13	1966.05
404.32	1947.33
404.51	1940.30
404.70	1966.05
404.89	1947.33
405.09	2064.35
405.28	2047.97
405.47	1937.96
405.66	2054.99
405.85	2101.80
406.05	2022.22
406.24	2036.27
406.43	2059.67
406.62	2080.74
406.81	2153.29
407.00	2157.97
407.20	2099.46
407.39	2097.12
407.58	2104.14
407.77	2249.25
407.96	2111.16
408.15	2401.39
408.34	2438.84
408.54	2293.72
408.73	2366.28
408.92	2326.49
409.11	2427.14
409.30	2298.41
409.49	2214.15
409.68	2310.11
409.87	2235.21
410.07	2462.24
410.26	2513.74
410.45	2424.80
410.64	2462.24
410.83	2597.99
411.02	2686.94
411.21	2628.42
411.40	2574.59
411.59	2684.59
411.78	2710.34
411.98	2752.47
412.17	2621.40
412.36	2785.24
412.55	2724.38
412.74	2705.66
412.93	2876.52
413.12	2768.85
413.31	3014.61
413.50	2862.48
413.69	2981.84
413.88	2909.29
414.07	3042.70
414.26	3026.31
414.45	3073.12
414.64	2967.80
414.83	3108.23
415.02	3108.23
415.22	3162.06
415.41	3169.09
415.60	3192.49
415.79	3227.60
415.98	3456.97
416.17	3304.84
416.36	3382.07
416.55	3332.92
416.74	3372.71
416.93	3290.79
417.12	3288.45
417.31	3391.44
417.50	3328.24
417.69	3496.76
417.88	3566.98
418.07	3471.01
418.26	3604.42
418.45	3651.24
418.64	3599.74
418.83	3733.15
419.02	3606.77
419.21	3695.71
419.39	3592.72
419.58	3613.79
419.77	3552.93
419.96	3684.00
420.15	3705.07
420.34	3763.58
420.53	3878.27
420.72	3908.69
420.91	3796.35
421.10	3922.74
421.29	3967.21
421.48	3901.67
421.67	3953.16
421.86	3831.46
422.05	3808.05
422.24	3871.25
422.43	3812.73
422.61	3861.88
422.80	3976.57
422.99	4091.26
423.18	4051.47
423.37	3997.64
423.56	4138.07
423.75	4095.94
423.94	3978.91
424.13	3637.19
424.32	3878.27
424.50	4081.89
424.69	4021.04
424.88	3960.19
425.07	4023.38
425.26	3985.93
425.45	4098.28
425.64	4102.96
425.83	3850.18
426.01	4182.54
426.20	4091.26
426.39	4121.68
426.58	4014.02
426.77	4007.00
426.96	4049.13
427.15	4063.17
427.33	4201.26
427.52	4222.33
427.71	4079.55
427.90	4231.69
428.09	4297.22
428.28	4154.45
428.46	4229.35
428.65	4245.73
428.84	4418.93
429.03	4484.47
429.22	4290.20
429.40	4229.35
429.59	4234.03
429.78	3976.57
429.97	3999.98
430.16	4145.09
430.34	4212.96
430.53	4126.36
430.72	4234.03
430.91	4250.41
431.10	4454.04
431.28	4561.70
431.47	4592.13
431.66	4713.84
431.85	4428.29
432.03	4805.12
432.22	4833.21
432.41	4784.06
432.60	4784.06
432.79	4786.40
432.97	4828.53
433.16	4744.27
433.35	4709.16
433.54	4727.88
433.72	4847.25
433.91	4896.40
434.10	4901.08
434.28	4884.70
434.47	4760.65
434.66	4997.04
434.85	4887.04
435.03	5160.88
435.22	5104.71
435.41	5261.52
435.59	5116.41
435.78	5238.12
435.97	5245.14
436.16	5207.69
436.34	5298.97
436.53	5308.34
436.72	5476.85
436.90	5097.69
437.09	5135.14
437.28	5233.44
437.46	5277.91
437.65	5315.36
437.84	5207.69
438.02	5352.81
438.21	5366.85
438.40	5327.06
438.58	5504.94
438.77	5605.58
438.96	5547.07
439.14	5633.67
439.33	5666.44
439.52	5860.70
439.70	5771.76
439.89	5816.23
440.08	5921.56
440.26	5919.21
440.45	5762.40
440.63	6146.25
440.82	6031.56
441.01	6057.31
441.19	6253.91
441.38	6436.47
441.57	6324.13
441.75	6604.99
441.94	6373.28
442.12	6565.20
442.31	6450.52
442.50	6403.71
442.68	6487.96
442.87	6263.27
443.05	6464.56
443.24	6604.99
443.43	6546.48
443.61	6525.41
443.80	6782.87
443.98	6427.11
444.17	6296.04
444.35	6761.81
444.54	6754.79
444.73	6691.59
444.91	6677.55
445.10	6679.89
445.28	6553.50
445.47	6459.88
445.65	6593.29
445.84	6705.63
446.02	6759.47
446.21	6693.93
446.39	6668.19
446.58	6822.66
446.77	6825.00
446.95	6630.74
447.14	7000.54
447.32	6913.94
447.51	6731.38
447.69	6696.27
447.88	6726.70
448.06	6956.07
448.25	6935.01
448.43	6885.86
448.62	6698.61
448.80	6775.85
448.99	6841.39
449.17	7023.95
449.36	6815.64
449.54	7080.12
449.73	7166.72
449.91	7332.90
450.10	7311.83
450.28	7405.46
450.46	7307.15
450.65	7538.87
450.83	7279.07
451.02	7508.44
451.20	7232.26
451.39	7234.60
451.57	7218.21
451.76	7307.15
451.94	7241.62
452.13	7412.48
452.31	7274.38
452.49	7272.04
452.68	7253.32
452.86	7403.11
453.05	7447.58
453.23	7662.91
453.42	7421.84
453.60	7632.49
453.78	7323.54
453.97	7508.44
454.15	7508.44
454.34	7543.55
454.52	7770.58
454.70	7648.87
454.89	7625.47
455.07	7775.26
455.26	7676.96
455.44	7882.92
455.62	7995.27
455.81	7969.52
455.99	7985.91
456.17	7892.29
456.36	7875.90
456.54	8358.05
456.73	8191.88
456.91	8234.00
457.09	8154.43
457.28	8444.65
457.46	8280.82
457.64	8210.60
457.83	8269.11
458.01	8145.06
458.19	8491.46
458.38	8365.07
458.56	8533.59
458.74	8329.97
458.93	8372.10
459.11	8507.85
459.29	8390.82
459.48	8526.57
459.66	8697.43
459.84	8606.15
460.03	8765.31
460.21	8751.26
460.39	8538.27
460.57	8748.92
460.76	8746.58
460.94	8709.13
461.12	8643.60
461.31	8739.56
461.49	9011.06
461.67	8940.85
461.85	8975.95
462.04	9179.58
462.22	9256.82
462.40	8938.51
462.59	8917.44
462.77	8943.19
462.95	9029.79
463.13	8945.53
463.32	8975.95
463.50	9191.28
463.68	9310.65
463.86	9123.41
464.05	9202.99
464.23	8985.32
464.41	9504.92
464.59	8973.61
464.78	9523.64
464.96	9179.58
465.14	9149.15
465.32	9404.27
465.50	9380.87
465.69	9371.50
465.87	9488.53
466.05	9425.34
466.23	9387.89
466.41	9385.55
466.60	9647.69
466.78	9263.84
466.96	9420.66
467.14	9540.02
467.32	9455.76
467.51	9645.35
467.69	9320.01
467.87	9584.49
468.05	9628.96
468.23	9671.09
468.41	9586.83
468.60	9715.56
468.78	9832.59
468.96	9610.24
469.14	9762.37
469.32	10033.88
469.50	9600.88
469.69	9984.73
469.87	9856.00
470.05	9872.38
470.23	9919.19
470.41	9968.34
470.59	10310.06
470.77	10230.48
470.95	10246.87
471.14	10178.99
471.32	10148.56
471.50	10600.29
471.68	10644.76
471.86	10534.75
472.04	10424.75
472.22	10902.22
472.40	10448.15
472.58	10516.03
472.77	10462.19
472.95	10754.76
473.13	10998.18
473.31	10810.93
473.49	10761.78
473.67	10846.04
473.85	10949.03
474.03	11075.42
474.21	11150.31
474.39	11276.70
474.57	11117.54
474.75	11384.37
474.93	11241.59
475.12	11417.13
475.30	11449.90
475.48	11393.73
475.66	11569.27
475.84	11435.86
476.02	11709.70
476.20	11850.13
476.38	11653.53
476.56	11936.73
476.74	12170.79
476.92	11995.25
477.10	12222.28
477.28	12283.13
477.46	12320.58
477.64	12304.20
477.82	12655.28
478.00	12891.67
478.18	12732.51
478.36	12564.00
478.54	12596.76
478.72	12989.97
478.90	13144.45
479.08	13385.52
479.26	13481.49
479.44	13490.85
479.62	13975.34
479.80	13561.06
479.98	13593.83
480.16	14104.07
480.34	13827.88
480.52	14218.75
480.70	13928.53
480.88	14038.53
481.06	14181.31
481.24	13921.51
481.41	14406.00
481.59	14738.35
481.77	14558.13
481.95	14441.11
482.13	14616.65
482.31	14913.89
482.49	15260.29
482.67	14967.73
482.85	15379.66
483.03	15393.70
483.21	15466.26
483.39	15777.55
483.57	15770.53
483.74	15939.05
483.92	16004.58
484.10	15831.38
484.28	15969.48
484.46	16327.58
484.64	16706.74
484.82	16243.32
485.00	16418.86
485.18	16699.72
485.35	16697.38
485.53	16336.94
485.71	16271.40
485.89	16755.90
486.07	16896.33
486.25	16847.18
486.43	17263.79
486.61	17261.45
486.78	17539.97
486.96	17369.12
487.14	18097.02
487.32	18132.13
487.50	18321.71
487.68	18469.17
487.85	18700.88
488.03	18906.85
488.21	19194.73
488.39	18705.56
488.57	19133.88
488.75	18991.11
488.92	19569.22
489.10	19564.54
489.28	19618.37
489.46	19896.89
489.64	20278.40
489.81	20580.33
489.99	20400.11
490.17	20531.18
490.35	20657.57
490.53	20655.23
490.70	20950.14
490.88	20613.10
491.06	21298.88
491.24	21350.37
491.41	21207.59
491.59	21144.40
491.77	21294.19
491.95	21256.75
492.13	21811.45
492.30	21907.41
492.48	22092.32
492.66	22309.99
492.84	22363.82
493.01	22380.20
493.19	22434.03
493.37	22569.79
493.54	22501.91
493.72	22684.47
493.90	22984.06
494.08	22991.08
494.25	23583.24
494.43	23634.73
494.61	23590.26
494.79	23983.47
494.96	23676.86
495.14	23953.04
495.32	23971.77
495.49	24222.20
495.67	24013.90
495.85	24624.78
496.02	24872.87
496.20	24718.40
496.38	25102.25
496.55	24903.30
496.73	25319.92
496.91	25343.32
497.09	25666.31
497.26	25474.39
497.44	25584.40
497.62	25560.99
497.79	25776.32
497.97	25289.49
498.14	25811.43
498.32	26270.17
498.50	26316.98
498.67	26574.44
498.85	26642.32
499.03	26778.07
499.20	26913.82
499.38	26721.90
499.56	26717.22
499.73	27292.99
499.91	26764.03
500.08	27047.23
500.26	26757.00
500.44	27168.94
500.61	27063.61
500.79	27044.89
500.97	27417.04
501.14	27852.38
501.32	27370.22
501.49	27325.75
501.67	27601.94
501.84	28119.20
502.02	27913.23
502.20	28449.21
502.37	28252.61
502.55	28343.89
502.72	28308.78
502.90	28212.82
503.07	28446.87
503.25	28664.54
503.43	28479.64
503.60	28758.16
503.78	28418.78
503.95	28680.92
504.13	29013.28
504.30	29254.36
504.48	29266.06
504.65	29401.81
504.83	29713.10
505.01	29472.03
505.18	29673.31
505.36	29766.93
505.53	29977.58
505.71	29982.26
505.88	30195.25
506.06	29930.77
506.23	30279.51
506.41	29935.45
506.58	29975.24
506.76	30272.49
506.93	30911.46
507.11	30459.73
507.28	30855.28
507.46	30747.62
507.63	30642.29
507.81	30920.82
507.98	30583.78
508.16	30899.75
508.33	31117.42
508.50	31552.76
508.68	31206.36
508.85	31747.03
509.03	31723.62
509.20	31807.88
509.38	31690.85
509.55	31945.97
509.73	31838.31
509.90	32077.04
510.08	31620.64
510.25	31868.73
510.42	32025.55
510.60	32421.10
510.77	32091.09
510.95	32666.86
511.12	32250.24
511.30	32914.95
511.47	32982.83
511.64	33053.05
511.82	32683.24
511.99	32484.30
512.17	32971.13
512.34	32769.84
512.51	33003.89
512.69	33181.77
512.86	33404.13
513.04	33450.94
513.21	33174.75
513.38	33259.01
513.56	33397.10
513.73	33371.36
513.90	33741.16
514.08	33841.81
514.25	33596.05
514.43	33479.02
514.60	33783.29
514.77	33745.84
514.95	34602.48
515.12	34122.67
515.29	33954.15
515.47	34450.35
515.64	34572.05
515.81	34129.69
515.99	34129.69
516.16	34501.84
516.33	33764.57
516.51	33958.83
516.68	34188.21
516.85	33481.36
517.03	34017.35
517.20	34366.09
517.37	34925.47
517.54	34429.28
517.72	34881.00
517.89	34345.02
518.06	34448.00
518.24	34597.80
518.41	34597.80
518.58	35339.75
518.75	35112.72
518.93	35496.56
519.10	35166.55
519.27	35391.24
519.45	35620.61
519.62	36318.09
519.79	35983.40
519.96	35655.72
520.14	36123.83
520.31	35861.69
520.48	35866.37
520.65	36362.56
520.83	36460.87
521.00	36170.64
521.17	36549.81
521.34	36985.15
521.52	36673.85
521.69	36847.05
521.86	36957.06
522.03	36697.26
522.20	37010.89
522.38	36912.59
522.55	37205.16
522.72	37434.53
522.89	36849.39
523.07	37137.28
523.24	37067.06
523.41	37530.49
523.58	37165.37
523.75	38340.32
523.92	38204.56
524.10	37860.51
524.27	38043.07
524.44	38115.62
524.61	38029.02
524.78	38181.16
524.96	38312.23
525.13	38340.32
525.30	38218.61
525.47	37937.74
525.64	38522.88
525.81	38115.62
525.98	38286.48
526.16	38136.69
526.33	37926.04
526.50	38073.49
526.67	37708.37
526.84	37961.15
527.01	38312.23
527.18	38017.32
527.36	38696.08
527.53	38808.42
527.70	39119.71
527.87	38574.37
528.04	38733.53
528.21	39033.11
528.38	38892.68
528.55	39742.30
528.72	39119.71
528.89	39643.99
529.07	39564.42
529.24	39194.61
529.41	39393.56
529.58	39196.95
529.75	39501.22
529.92	39952.94
530.09	39702.51
530.26	39817.19
530.43	40076.99
530.60	39885.07
530.77	39952.94
530.94	40423.39
531.11	39999.76
531.28	40243.17
531.46	40128.48
531.63	40165.93
531.80	40069.97
531.97	40009.12
532.14	40037.20
532.31	39999.76
532.48	40444.46
532.65	40643.40
532.82	40589.57
532.99	40308.71
533.16	40610.64
533.33	40505.31
533.50	40842.35
533.67	40481.91
533.84	40226.79
534.01	40854.05
534.18	40617.66
534.35	41151.30
534.52	40547.44
534.69	41111.51
534.86	41099.81
535.03	40849.37
535.20	41710.69
535.37	41631.11
535.54	41759.84
535.71	41490.68
535.88	41565.57
536.05	41617.07
536.22	41415.78
536.38	41635.79
536.55	41160.66
536.72	41282.37
536.89	41394.71
537.06	41743.45
537.23	41427.48
537.40	41808.99
537.57	42178.79
537.74	41977.51
537.91	41926.02
538.08	41708.35
538.25	41619.41
538.42	42174.11
538.59	42382.42
538.75	41741.11
538.92	41977.51
539.09	41811.33
539.26	41848.78
539.43	41975.17
539.60	42237.31
539.77	41722.39
539.94	41855.80
540.11	41830.05
540.28	41762.18
540.44	42047.72
540.61	42050.06
540.78	42127.30
540.95	42511.15
541.12	42120.28
541.29	42476.04
541.46	42309.86
541.62	42543.92
541.79	42574.34
541.96	42307.52
542.13	42590.73
542.30	42225.60
542.47	43297.57
542.63	42848.19
542.80	42546.26
542.97	43091.60
543.14	43370.13
543.31	43040.11
543.48	43332.68
543.64	43555.03
543.81	43524.60
543.98	43346.72
544.15	43386.51
544.32	43683.76
544.48	43838.23
544.65	43335.02
544.82	43709.50
544.99	43487.15
545.16	43526.94
545.32	43414.60
545.49	43531.62
545.66	44107.40
545.83	43999.73
546.00	44065.27
546.16	43742.27
546.33	43452.05
546.50	43613.54
546.67	43966.96
546.83	43573.75
547.00	43913.13
547.17	43845.26
547.34	43807.81
547.50	43915.47
547.67	44439.75
547.84	44189.31
548.00	44385.92
548.17	44224.42
548.34	44304.00
548.51	44318.04
548.67	44708.91
548.84	44591.89
549.01	44114.42
549.18	44416.35
549.34	44596.57
549.51	44821.26
549.68	44430.39
549.84	44732.32
550.01	44563.80
550.18	44507.63
550.34	44608.27
550.51	44634.02
550.68	44755.72
550.84	44388.26
551.01	44596.57
551.18	44715.93
551.34	44722.96
551.51	44591.89
551.68	44692.53
551.84	45059.99
552.01	44493.58
552.18	44697.21
552.34	44762.75
552.51	44755.72
552.68	44729.98
552.84	45296.39
553.01	45553.85
553.18	45130.21
553.34	45097.44
553.51	44804.88
553.67	45301.07
553.84	45205.11
554.01	45202.77
554.17	45397.03
554.34	45497.67
554.51	45399.37
554.67	45748.11
554.84	45535.12
555.00	45478.95
555.17	45324.47
555.33	45202.77
555.50	45485.97
555.67	45137.23
555.83	45441.50
556.00	45701.30
556.16	45834.71
556.33	45694.28
556.50	45549.17
556.66	45848.75
556.83	45523.42
556.99	45949.40
557.16	45483.63
557.32	45572.57
557.49	45703.64
557.65	45198.09
557.82	45640.45
557.98	46101.53
558.15	45610.02
558.32	45563.21
558.48	45560.87
558.65	45474.27
558.81	45577.25
558.98	45390.01
559.14	45682.58
559.31	45361.92
559.47	45879.18
559.64	46080.47
559.80	46113.23
559.97	45642.79
560.13	45738.75
560.30	45633.42
560.46	46286.43
560.63	46073.45
560.79	46218.56
560.96	46431.55
561.12	46066.42
561.29	45874.50
561.45	46447.93
561.61	46124.94
561.78	46085.15
561.94	45858.12
562.11	45940.04
562.27	45848.75
562.44	45832.37
562.60	46775.61
562.77	46050.04
562.93	46202.18
563.10	46202.18
563.26	46068.76
563.42	45937.69
563.59	46211.54
563.75	46068.76
563.92	46696.03
564.08	46333.24
564.24	46464.32
564.41	46363.67
564.57	46021.95
564.74	46157.70
564.90	45837.05
565.07	46326.22
565.23	46131.96
565.39	46447.93
565.56	46740.50
565.72	46478.36
565.88	46281.75
566.05	45902.59
566.21	46148.34
566.38	46513.47
566.54	46258.35
566.70	46490.06
566.87	46752.20
567.03	46274.73
567.19	46890.29
567.36	46333.24
567.52	46452.61
567.68	46799.01
567.85	46452.61
568.01	46272.39
568.17	46499.42
568.34	46363.67
568.50	46094.51
568.66	45972.80
568.83	46763.90
568.99	46021.95
569.15	46300.48
569.32	46344.95
569.48	46398.78
569.64	47000.30
569.81	46567.30
569.97	46504.10
570.13	46532.19
570.30	46265.37
570.46	46258.35
570.62	45902.59
570.78	46073.45
570.95	46122.60
571.11	46525.17
571.27	46335.59
571.43	46586.02
571.60	46550.91
571.76	46195.15
571.92	46394.10
572.09	46791.99
572.25	46681.98
572.41	46791.99
572.57	46548.57
572.74	47178.18
572.90	46543.89
573.06	46642.20
573.22	46815.40
573.38	46340.27
573.55	46312.18
573.71	46721.77
573.87	46653.90
574.03	46473.68
574.20	46419.84
574.36	46557.94
574.52	46834.12
574.68	46873.91
574.84	46335.59
575.01	46476.02
575.17	46827.10
575.33	46295.80
575.49	46848.16
575.65	46635.17
575.82	46674.96
575.98	46543.89
576.14	46644.54
576.30	46696.03
576.46	46691.35
576.62	46817.74
576.79	46583.68
576.95	46181.11
577.11	46731.14
577.27	46831.78
577.43	46754.54
577.59	46665.60
577.75	46370.69
577.92	45998.55
578.08	46464.32
578.24	46457.29
578.40	46398.78
578.56	46663.26
578.72	46581.34
578.88	46946.47
579.04	46691.35
579.21	46607.09
579.37	46511.13
579.53	46394.10
579.69	46520.49
579.85	46600.07
580.01	46415.16
580.17	46951.15
580.33	47100.94
580.49	46768.58
580.65	46969.87
580.82	46738.16
580.98	46461.97
581.14	46663.26
581.30	46852.84
581.46	47103.28
581.62	46878.59
581.78	46969.87
581.94	47117.32
582.10	46543.89
582.26	46724.11
582.42	46443.25
582.58	46670.28
582.74	46651.56
582.90	47178.18
583.06	47292.86
583.22	46508.79
583.38	47278.82
583.54	47033.07
583.70	46815.40
583.86	47040.09
584.02	46522.83
584.18	47114.98
584.34	46712.41
584.50	46770.93
584.66	46887.95
584.82	46387.08
584.98	47470.75
585.14	46876.25
585.30	46773.27
585.46	46649.22
585.62	46494.74
585.78	46698.37
585.94	46138.98
586.10	46272.39
586.26	46485.38
586.42	46960.51
586.58	46733.48
586.74	46799.01
586.90	46433.89
587.06	46602.41
587.22	46909.02
587.38	46698.37
587.54	46801.35
587.70	46925.40
587.86	46773.27
588.02	47129.03
588.18	47290.52
588.34	46742.84
588.49	46403.46
588.65	46075.79
588.81	46110.89
588.97	46253.67
589.13	46230.26
589.29	46689.01
589.45	46279.41
589.61	46246.65
589.77	46733.48
589.93	46604.75
590.08	46916.04
590.24	46773.27
590.40	46958.17
590.56	47129.03
590.72	46857.52
590.88	46642.20
591.04	46674.96
591.20	47344.36
591.35	46967.53
591.51	47679.05
591.67	46869.23
591.83	46873.91
591.99	46955.83
592.15	46520.49
592.31	46974.55
592.46	46813.05
592.62	46731.14
592.78	47012.00
592.94	47552.66
593.10	46904.34
593.26	47524.58
593.41	46909.02
593.57	46433.89
593.73	47140.73
593.89	46899.65
594.05	46944.12
594.20	46927.74
594.36	47012.00
594.52	47058.81
594.68	46927.74
594.84	46934.76
594.99	47192.22
595.15	46850.50
595.31	47166.48
595.47	46698.37
595.62	47339.68
595.78	46597.73
595.94	47222.65
596.10	47161.79
596.25	46749.86
596.41	47175.84
596.57	47374.78
596.73	47239.03
596.88	46766.24
597.04	47290.52
597.20	46916.04
597.36	46146.00
597.51	47079.88
597.67	46859.87
597.83	46752.20
597.99	47262.44
598.14	46990.94
598.30	47257.76
598.46	46990.94
598.61	47051.79
598.77	46754.54
598.93	46904.34
599.09	46698.37
599.24	47505.85
599.40	47419.25
599.56	47042.43
599.71	47028.38
599.87	47288.18
600.03	46904.34
600.18	47079.88
600.34	46754.54
600.50	46981.57
600.65	46960.51
600.81	47047.11
600.97	47000.30
601.12	47416.91
601.28	46958.17
601.44	46843.48
601.59	46539.21
601.75	46466.66
601.91	46941.78
602.06	46717.09
602.22	46831.78
602.37	46731.14
602.53	46469.00
602.69	47555.00
602.84	47042.43
603.00	46602.41
603.16	46539.21
603.31	47098.60
603.47	46752.20
603.62	46431.55
603.78	47122.01
603.94	47100.94
604.09	47463.72
604.25	47051.79
604.40	47126.69
604.56	47035.41
604.71	47030.72
604.87	46700.71
605.03	46796.67
605.18	46171.75
605.34	46504.10
605.49	46777.95
605.65	46653.90
605.80	46684.33
605.96	47037.75
606.12	46686.67
606.27	47145.41
606.43	46988.60
606.58	46864.55
606.74	46459.63
606.89	46827.10
607.05	46953.49
607.20	46859.87
607.36	46824.76
607.51	46569.64
607.67	46646.88
607.82	46637.51
607.98	46869.23
608.13	46459.63
608.29	46120.26
608.44	46426.87
608.60	46220.90
608.75	46466.66
608.91	46651.56
609.06	46677.30
609.22	46583.68
609.37	46267.71
609.53	46527.51
609.68	46403.46
609.84	46216.22
609.99	46394.10
610.15	46036.00
610.30	46373.03
610.46	46096.85
610.61	46195.15
610.76	46031.32
610.92	46192.81
611.07	46344.95
611.23	46394.10
611.38	45947.06
611.54	45886.20
611.69	46174.09
611.84	46113.23
612.00	45944.72
612.15	45872.16
612.31	46569.64
612.46	45837.05
612.62	45961.10
612.77	45797.26
612.92	46340.27
613.08	45420.44
613.23	46033.66
613.39	45918.97
613.54	45713.00
613.69	45677.90
613.85	45701.30
614.00	45743.43
614.15	46241.96
614.31	46218.56
614.46	46096.85
614.62	45862.80
614.77	45710.66
614.92	45474.27
615.08	45729.39
615.23	45567.89
615.38	45614.70
615.54	45345.54
615.69	45413.41
615.84	45420.44
616.00	45385.33
616.15	45593.64
616.30	46108.55
616.46	45375.97
616.61	45158.30
616.76	45294.05
616.92	44605.93
617.07	45429.80
617.22	44966.37
617.37	44975.73
617.53	45511.72
617.68	45427.46
617.83	45443.84
617.99	44966.37
618.14	45312.77
618.29	45193.40
618.45	44961.69
618.60	45024.89
618.75	45059.99
618.90	45057.65
619.06	45113.83
619.21	45137.23
619.36	45258.94
619.51	44669.12
619.67	44861.05
619.82	45390.01
619.97	45041.27
620.12	44381.24
620.28	44624.65
620.43	44456.14
620.58	44678.49
620.73	44669.12
620.89	44837.64
621.04	44746.36
621.19	44582.52
621.34	44973.39
621.49	44526.35
621.65	44163.57
621.80	44552.10
621.95	44509.97
622.10	44210.38
622.25	44034.84
622.41	44250.17
622.56	44390.60
622.71	44385.92
622.86	44465.50
623.01	44051.22
623.16	44414.01
623.32	44311.02
623.47	44566.14
623.62	43878.02
623.77	44184.63
623.92	44093.35
624.07	44112.08
624.23	44355.49
624.38	43992.71
624.53	43552.69
624.68	43948.24
624.83	44247.83
624.98	43962.28
625.13	43578.43
625.29	44198.68
625.44	43667.37
625.59	44065.27
625.74	43484.81
625.89	43587.80
626.04	43255.44
626.19	43906.11
626.34	43629.93
626.49	43723.55
626.65	43943.56
626.80	44053.56
626.95	43681.42
627.10	43503.54
627.25	43423.96
627.40	43297.57
627.55	43260.12
627.70	42513.49
627.85	43374.81
628.00	43213.31
628.15	43377.15
628.30	43239.06
628.45	43070.54
628.60	43379.49
628.76	43594.82
628.91	43580.78
629.06	43143.09
629.21	42674.99
629.36	42796.70
629.51	43009.68
629.66	42892.66
629.81	43068.20
629.96	42473.70
630.11	42792.01
630.26	43112.67
630.41	42981.60
630.56	42941.81
630.71	42705.41
630.86	42630.52
631.01	42651.58
631.16	43182.88
631.31	42682.01
631.46	42581.37
631.61	42918.40
631.76	42492.43
631.91	42162.41
632.06	42543.92
632.21	42827.12
632.36	43199.27
632.51	42618.81
632.66	42745.20
632.81	42356.67
632.96	42431.57
633.10	42480.72
633.25	42462.00
633.40	42946.49
633.55	42213.90
633.70	42494.77
633.85	41961.12
634.00	42085.17
634.15	42288.80
634.30	42511.15
634.45	42433.91
634.60	42103.90
634.75	42295.82
634.90	41886.23
635.05	42029.00
635.19	41855.80
635.34	42059.43
635.49	42024.32
635.64	41900.27
635.79	41610.04
635.94	41869.84
636.09	42354.33
636.24	41867.50
636.39	41523.44
636.53	41642.81
636.68	41570.25
636.83	41790.27
636.98	41977.51
637.13	41280.03
637.28	41652.17
637.43	41731.75
637.57	42066.45
637.72	41375.99
637.87	41490.68
638.02	41626.43
638.17	41979.85
638.32	41556.21
638.46	41188.75
638.61	41153.64
638.76	41415.78
638.91	41645.15
639.06	41565.57
639.20	41284.71
639.35	41691.96
639.50	41249.60
639.65	41516.42
639.80	41273.01
639.94	40982.78
640.09	41160.66
640.24	41017.89
640.39	40650.42
640.54	40861.07
640.68	41034.27
640.83	41221.52
640.98	40769.79
641.13	41036.61
641.27	40514.67
641.42	40708.94
641.57	40999.16
641.72	40879.80
641.86	40502.97
642.01	40538.08
642.16	40463.18
642.31	40149.55
642.45	40753.41
642.60	40514.67
642.75	40388.28
642.90	40662.13
643.04	40722.98
643.19	40631.70
643.34	40737.02
643.48	40514.67
643.63	40414.03
643.78	40332.11
643.93	40301.68
644.07	40617.66
644.22	39995.07
644.37	40247.85
644.51	40526.38
644.66	40540.42
644.81	40130.83
644.95	40425.73
645.10	40484.25
645.25	40067.63
645.39	40238.49
645.54	40311.05
645.69	39665.06
645.83	39920.18
645.98	40032.52
646.13	40144.87
646.27	40332.11
646.42	40109.76
646.57	40233.81
646.71	39847.62
646.86	40058.27
647.00	40488.93
647.15	40254.87
647.30	39665.06
647.44	40172.96
647.59	39775.06
647.74	39936.56
647.88	39550.37
648.03	39835.92
648.17	39800.81
648.32	39353.77
648.47	39653.36
648.61	39838.26
648.76	39765.70
648.90	39557.39
649.05	39786.77
649.20	39541.01
649.34	39538.67
649.49	39168.87
649.63	39285.89
649.78	39384.19
649.92	39131.42
650.07	39676.76
650.21	39304.62
650.36	39290.57
650.51	38955.88
650.65	39386.54
650.80	39615.91
650.94	39871.03
651.09	39035.45
651.23	39161.84
651.38	39236.74
651.52	38532.24
651.67	39185.25
651.81	38934.81
651.96	38347.34
652.10	38686.71
652.25	38452.66
652.39	39014.39
652.54	38906.73
652.68	38986.30
652.83	38866.94
652.97	39009.71
653.12	38862.26
653.26	38574.37
653.41	39100.99
653.55	38562.67
653.70	38401.17
653.84	39033.11
653.99	38539.26
654.13	38251.38
654.27	38068.81
654.42	38529.90
654.56	38445.64
654.71	38529.90
654.85	38595.43
655.00	38234.99
655.14	38256.06
655.29	37965.83
655.43	38094.56
655.57	38007.96
655.72	37944.76
655.86	37895.61
656.01	37418.14
656.15	37717.73
656.30	37773.91
656.44	37649.86
656.58	37813.70
656.73	37670.92
656.87	38036.05
657.01	37998.60
657.16	38286.48
657.30	37853.48
657.45	37596.03
657.59	37792.63
657.73	37717.73
657.88	38014.98
658.02	37844.12
658.16	38047.75
658.31	37691.99
658.45	37876.89
658.60	37434.53
658.74	37956.47
658.88	37631.13
659.03	37589.00
659.17	37312.82
659.31	37453.25
659.46	37251.97
659.60	37801.99
659.74	37563.26
659.89	37612.41
660.03	37060.04
660.17	37312.82
660.32	37254.31
660.46	37518.79
660.60	37191.11
660.74	37069.40
660.89	37085.79
661.03	36938.33
661.17	36552.15
661.32	36273.62
661.46	37001.53
661.60	37179.41
661.74	36582.57
661.89	37118.56
662.03	37090.47
662.17	36278.30
662.31	36463.21
662.46	36739.39
662.60	36524.06
662.74	36938.33
662.88	36343.84
663.03	35969.35
663.17	36257.24
663.31	36196.38
663.45	36245.54
663.60	36172.98
663.74	35875.73
663.88	36006.80
664.02	35812.54
664.17	36116.81
664.31	35761.05
664.45	36163.62
664.59	35908.50
664.73	35920.20
664.88	36009.14
665.02	35363.15
665.16	35578.48
665.30	35339.75
665.44	35269.53
665.59	35363.15
665.73	35145.48
665.87	35232.08
666.01	35288.26
666.15	34939.52
666.29	35325.71
666.44	35330.39
666.58	35178.25
666.72	34747.59
666.86	35466.14
667.00	35033.14
667.14	34824.83
667.28	34349.70
667.43	34375.45
667.57	34888.03
667.71	34670.36
667.85	34426.94
667.99	34293.53
668.13	34504.18
668.27	34632.91
668.41	34052.45
668.56	34305.23
668.70	34478.43
668.84	34211.61
668.98	34024.37
669.12	33589.03
669.26	33610.09
669.40	33631.16
669.54	33816.06
669.68	33841.81
669.82	33869.89
669.96	33579.67
670.10	33736.48
670.25	33488.38
670.39	33486.04
670.53	33399.44
670.67	33235.61
670.81	33429.87
670.95	33354.97
671.09	33062.41
671.23	33479.02
671.37	33228.59
671.51	33118.58
671.65	32582.60
671.79	32737.07
671.93	32629.41
672.07	32606.00
672.21	32961.76
672.35	32980.49
672.49	32919.63
672.63	32861.12
672.77	32528.77
672.91	32641.11
673.05	32556.85
673.19	32594.30
673.33	31927.25
673.47	32165.98
673.61	31887.46
673.75	32048.96
673.89	31573.83
674.03	32006.83
674.17	31714.26
674.31	31681.49
674.45	31749.37
674.59	31555.10
674.73	32018.53
674.87	31445.10
675.01	31454.46
675.15	31461.48
675.29	31419.35
675.43	31330.41
675.56	31182.96
675.70	31505.95
675.84	31182.96
675.98	30309.94
676.12	30766.34
676.26	30808.47
676.40	30515.90
676.54	30813.15
676.68	31164.23
676.82	30270.15
676.96	30459.73
677.10	30541.65
677.23	30312.28
677.37	30181.21
677.51	29923.75
677.65	29937.79
677.79	29668.63
677.93	29778.64
678.07	29577.35
678.21	29586.71
678.34	29270.74
678.48	29280.10
678.62	29158.39
678.76	28826.04
678.90	28652.84
679.04	28765.18
679.18	28748.80
679.31	28329.84
679.45	28716.03
679.59	28383.68
679.73	28514.75
679.87	28231.54
680.00	28037.28
680.14	28180.05
680.28	28336.87
680.42	28109.83
680.56	28779.23
680.70	27938.97
680.83	28020.89
680.97	27805.56
681.11	27592.58
681.25	27307.03
681.39	27393.63
681.52	27957.70
681.66	27112.77
681.80	27330.44
681.94	27087.02
682.07	27232.13
682.21	26703.17
682.35	26771.05
682.49	27108.08
682.62	26932.54
682.76	27215.75
682.90	26670.40
683.04	26403.58
683.17	26480.82
683.31	26246.77
683.45	26267.83
683.59	25986.97
683.72	26115.70
683.86	25565.67
684.00	25511.84
684.13	26106.34
684.27	25734.19
684.41	25539.93
684.55	25544.61
684.68	25359.70
684.82	25418.22
684.96	25617.16
685.09	25371.41
685.23	25230.98
685.37	25289.49
685.50	25071.82
685.64	24610.73
685.78	24711.38
685.91	24524.13
686.05	24645.84
686.19	24257.31
686.32	24273.70
686.46	23950.70
686.60	23440.47
686.73	23838.36
686.87	23342.16
687.01	23576.22
687.14	23435.78
687.28	23030.87
687.42	23096.41
687.55	23105.77
687.69	23440.47
687.82	23398.34
687.96	23440.47
688.10	23204.07
688.23	23056.62
688.37	22515.95
688.50	22738.30
688.64	22764.05
688.78	23033.21
688.91	22522.98
689.05	22422.33
689.18	22740.64
689.32	22047.85
689.46	22242.11
689.59	22274.88
689.73	22178.92
689.86	22036.14
690.00	21933.16
690.13	21912.10
690.27	21820.81
690.41	22089.98
690.54	21640.59
690.68	21617.19
690.81	21649.96
690.95	21898.05
691.08	21628.89
691.22	21427.60
691.35	21268.45
691.49	21483.78
691.62	21460.37
691.76	21008.65
691.89	21385.47
692.03	20683.31
692.16	20891.62
692.30	20582.67
692.43	20809.70
692.57	20194.14
692.70	20346.28
692.84	20540.54
692.97	20299.47
693.11	20081.80
693.24	19946.05
693.38	19864.13
693.51	19838.38
693.65	19995.20
693.78	19922.64
693.92	20018.60
694.05	19873.49
694.19	19393.68
694.32	19515.39
694.45	19723.69
694.59	19297.72
694.72	19157.28
694.86	19250.91
694.99	19129.20
695.13	19028.56
695.26	19117.50
695.39	18883.44
695.53	18766.42
695.66	18609.60
695.80	18857.70
695.93	18527.68
696.07	18750.03
696.20	18511.30
696.33	18459.81
696.47	18225.75
696.60	18508.96
696.73	18033.83
696.87	18118.09
697.00	18270.22
697.14	18155.54
697.27	17628.92
697.40	17977.65
697.54	18003.40
697.67	17514.23
697.80	17355.07
697.94	17207.62
698.07	17090.59
698.21	17282.52
698.34	17224.00
698.47	17022.72
698.61	16678.66
698.74	16870.58
698.87	16662.27
699.01	16774.62
699.14	16514.82
699.27	16704.40
699.40	16587.38
699.54	16201.19
699.67	16311.19
699.80	16524.18
699.94	16135.65
700.07	16016.29
700.20	16020.97
700.34	16042.03
700.47	16339.28
700.60	16245.66
700.73	16177.78
700.87	16116.93
701.00	15641.80
701.13	15693.29
701.26	15697.97
701.40	15623.08
701.53	15349.23
701.66	15697.97
701.79	15082.41
701.93	15346.89
702.06	15140.93
702.19	15176.03
702.32	14998.15
702.46	14998.15
702.59	15227.53
702.72	14965.39
702.85	14918.57
702.99	14925.60
703.12	15051.99
703.25	14651.75
703.38	14672.82
703.51	14324.08
703.65	14829.63
703.78	14216.41
703.91	14530.05
704.04	14345.14
704.17	14434.08
704.31	14310.04
704.44	14068.96
704.57	14108.75
704.70	14232.80
704.83	14078.32
704.96	14115.77
705.10	14216.41
705.23	13884.06
>>>>>End Processed Spectral Data<<<<<
