SpectraSuite Data File
++++++++++++++++++++++++++++++++++++
Date: Fri Oct 25 11:24:01 EDT 2013
User: price-jones
Dark Spectrum Present: No
Reference Spectrum Present: No
Number of Sampled Component Spectra: 1
Spectrometers: USB2+H05261
Integration Time (usec): 100000 (USB2+H05261)
Spectra Averaged: 1 (USB2+H05261)
Boxcar Smoothing: 0 (USB2+H05261)
Correct for Electrical Dark: No (USB2+H05261)
Strobe/Lamp Enabled: No (USB2+H05261)
Correct for Detector Non-linearity: No (USB2+H05261)
Correct for Stray Light: No (USB2+H05261)
Number of Pixels in Processed Spectrum: 2048
>>>>>Begin Processed Spectral Data<<<<<
365.73	250.44
365.92	250.44
366.12	250.44
366.32	107.66
366.52	124.05
366.72	163.84
366.91	88.94
367.11	201.29
367.31	154.48
367.51	98.30
367.70	163.84
367.90	119.37
368.10	147.45
368.30	194.26
368.49	95.96
368.69	81.92
368.89	93.62
369.09	124.05
369.28	163.84
369.48	191.92
369.68	201.29
369.87	194.26
370.07	236.39
370.27	234.05
370.47	315.97
370.66	493.85
370.86	629.60
371.06	650.67
371.25	655.35
371.45	676.41
371.65	641.31
371.84	664.71
372.04	702.16
372.24	650.67
372.44	641.31
372.63	777.06
372.83	716.20
373.03	730.25
373.22	765.36
373.42	833.23
373.62	732.59
373.81	791.10
374.01	807.48
374.21	739.61
374.40	828.55
374.60	854.30
374.79	751.31
374.99	844.93
375.19	866.00
375.38	917.49
375.58	779.40
375.78	802.80
375.97	837.91
376.17	936.21
376.37	849.61
376.56	889.40
376.76	833.23
376.95	896.43
377.15	917.49
377.35	957.28
377.54	903.45
377.74	807.48
377.93	919.83
378.13	919.83
378.33	936.21
378.52	950.26
378.72	978.34
378.91	936.21
379.11	997.07
379.31	933.87
379.50	940.90
379.70	954.94
379.89	938.55
380.09	947.92
380.28	1013.45
380.48	992.39
380.68	1013.45
380.87	1015.79
381.07	947.92
381.26	1032.18
381.46	1067.28
381.65	950.26
381.85	1060.26
382.04	950.26
382.24	1018.13
382.43	1069.62
382.63	1027.50
382.83	1107.07
383.02	1149.20
383.22	1158.57
383.41	1125.80
383.61	1034.52
383.80	1165.59
384.00	1109.41
384.19	1114.10
384.39	1104.73
384.58	1123.46
384.78	1193.67
384.97	1179.63
385.17	1142.18
385.36	1102.39
385.56	1186.65
385.75	1163.25
385.95	1153.88
386.14	1163.25
386.34	1203.04
386.53	1306.02
386.72	1188.99
386.92	1238.14
387.11	1196.01
387.31	1240.48
387.50	1210.06
387.70	1277.93
387.89	1252.19
388.09	1240.48
388.28	1245.16
388.48	1299.00
388.67	1259.21
388.86	1322.40
389.06	1320.06
389.25	1306.02
389.45	1320.06
389.64	1350.49
389.84	1430.07
390.03	1451.13
390.22	1359.85
390.42	1441.77
390.61	1322.40
390.81	1383.26
391.00	1383.26
391.19	1490.92
391.39	1502.62
391.58	1500.28
391.78	1355.17
391.97	1409.00
392.16	1446.45
392.36	1596.25
392.55	1530.71
392.75	1689.87
392.94	1554.12
393.13	1500.28
393.33	1516.67
393.52	1617.31
393.71	1631.35
393.91	1523.69
394.10	1495.60
394.29	1586.88
394.49	1584.54
394.68	1666.46
394.88	1626.67
395.07	1605.61
395.26	1746.04
395.46	1776.47
395.65	1680.50
395.84	1769.44
396.04	1788.17
396.23	1771.79
396.42	1774.13
396.62	1701.57
396.81	1830.30
397.00	1816.26
397.19	1816.26
397.39	1832.64
397.58	1893.49
397.77	1694.55
397.97	1795.19
398.16	1872.43
398.35	1830.30
398.55	1881.79
398.74	1930.94
398.93	1973.07
399.12	1884.13
399.32	1872.43
399.51	2010.52
399.70	2019.88
399.90	1940.30
400.09	1982.43
400.28	2099.46
400.47	2092.44
400.67	2097.12
400.86	2083.08
401.05	2113.50
401.24	2214.15
401.44	2120.53
401.63	2073.71
401.82	2279.68
402.01	2155.63
402.21	2265.64
402.40	2134.57
402.59	2054.99
402.78	2134.57
402.97	2186.06
403.17	2244.57
403.36	2324.15
403.55	2174.36
403.74	2314.79
403.93	2324.15
404.13	2331.17
404.32	2242.23
404.51	2396.71
404.70	2427.14
404.89	2321.81
405.09	2569.91
405.28	2452.88
405.47	2516.08
405.66	2392.03
405.85	2506.71
406.05	2448.20
406.24	2476.29
406.43	2546.50
406.62	2628.42
406.81	2677.57
407.00	2647.15
407.20	2616.72
407.39	2576.93
407.58	2665.87
407.77	2724.38
407.96	2768.85
408.15	2839.07
408.34	2799.28
408.54	2911.63
408.73	2787.58
408.92	2810.98
409.11	2935.03
409.30	2981.84
409.49	3016.95
409.68	2818.00
409.87	2918.65
410.07	3026.31
410.26	3023.97
410.45	2991.20
410.64	2988.86
410.83	3096.53
411.02	3211.22
411.21	3243.98
411.40	3286.11
411.59	3229.94
411.78	3232.28
411.98	3091.85
412.17	3335.26
412.36	3288.45
412.55	3370.37
412.74	3482.72
412.93	3398.46
413.12	3365.69
413.31	3513.14
413.50	3363.35
413.69	3529.53
413.88	3574.00
414.07	3590.38
414.26	3735.50
414.45	3681.66
414.64	3791.67
414.83	3644.21
415.02	3723.79
415.22	3880.61
415.41	3904.01
415.60	3779.97
415.79	3871.25
415.98	4032.74
416.17	4067.85
416.36	4028.06
416.55	4070.19
416.74	4028.06
416.93	4074.87
417.12	4191.90
417.31	4219.99
417.50	4142.75
417.69	4308.93
417.88	4332.33
418.07	4241.05
418.26	4386.16
418.45	4266.80
418.64	4641.28
418.83	4414.25
419.02	4318.29
419.21	4451.70
419.39	4641.28
419.58	4552.34
419.77	4493.83
419.96	4631.92
420.15	4601.49
420.34	4564.04
420.53	4554.68
420.72	4718.52
420.91	4681.07
421.10	4692.77
421.29	4786.40
421.48	4688.09
421.67	4847.25
421.86	4793.42
422.05	4875.34
422.24	4837.89
422.43	4978.32
422.61	4973.64
422.80	5006.41
422.99	4943.21
423.18	4945.55
423.37	4957.25
423.56	4999.38
423.75	5018.11
423.94	4933.85
424.13	4671.71
424.32	4690.43
424.50	4947.89
424.69	5137.48
424.88	5039.17
425.07	4863.63
425.26	4870.65
425.45	5076.62
425.64	4865.97
425.83	4994.70
426.01	5118.75
426.20	5102.37
426.39	5004.07
426.58	5125.77
426.77	5123.43
426.96	5156.20
427.15	5055.56
427.33	5188.97
427.52	5172.58
427.71	5291.95
427.90	5149.18
428.09	5261.52
428.28	5322.38
428.46	5313.02
428.65	5313.02
428.84	5593.88
429.03	5565.79
429.22	5486.22
429.40	5643.03
429.59	5582.18
429.78	5294.29
429.97	5376.21
430.16	5535.37
430.34	5724.95
430.53	5600.90
430.72	5657.07
430.91	5668.78
431.10	5626.65
431.28	5689.84
431.47	5783.46
431.66	5851.34
431.85	5673.46
432.03	5947.30
432.22	6003.47
432.41	5893.47
432.60	6097.10
432.79	6038.58
432.97	6069.01
433.16	6120.50
433.35	6036.24
433.54	5944.96
433.72	6113.48
433.91	6094.76
434.10	5977.73
434.28	6071.35
434.47	6190.72
434.66	6427.11
434.85	6289.02
435.03	6286.68
435.22	6331.15
435.41	6413.07
435.59	6663.51
435.78	6494.99
435.97	6525.41
436.16	6429.45
436.34	6483.28
436.53	6436.47
436.72	6731.38
436.90	6551.16
437.09	6724.36
437.28	6445.84
437.46	6602.65
437.65	6621.38
437.84	6626.06
438.02	6715.00
438.21	6761.81
438.40	6640.10
438.58	7040.33
438.77	7016.93
438.96	7059.06
439.14	7045.01
439.33	7136.29
439.52	7119.91
439.70	7365.67
439.89	7384.39
440.08	7431.20
440.26	7581.00
440.45	7440.56
440.63	7571.63
440.82	7702.70
441.01	7583.34
441.19	7641.85
441.38	7662.91
441.57	7779.94
441.75	7967.18
441.94	8013.99
442.12	7817.39
442.31	8072.51
442.50	8234.00
442.68	7866.54
442.87	8058.46
443.05	8182.51
443.24	8369.76
443.43	8358.05
443.61	8241.03
443.80	8409.54
443.98	7988.25
444.17	7864.20
444.35	8241.03
444.54	8540.61
444.73	8336.99
444.91	8163.79
445.10	8269.11
445.28	8327.63
445.47	8463.38
445.65	8290.18
445.84	8428.27
446.02	8535.93
446.21	8505.51
446.39	8496.14
446.58	8503.17
446.77	8500.83
446.95	8329.97
447.14	8578.06
447.32	8571.04
447.51	8566.36
447.69	8638.92
447.88	8547.64
448.06	8620.19
448.25	8418.91
448.43	8521.89
448.62	8807.44
448.80	8748.92
448.99	8538.27
449.17	8711.47
449.36	8784.03
449.54	9025.11
449.73	9029.79
449.91	9104.68
450.10	8894.04
450.28	9111.71
450.46	9202.99
450.65	8975.95
450.83	9188.94
451.02	9273.20
451.20	9043.83
451.39	9132.77
451.57	9280.22
451.76	8961.91
451.94	9210.01
452.13	9296.61
452.31	9312.99
452.49	9334.06
452.68	9312.99
452.86	9362.14
453.05	9444.06
453.23	9432.36
453.42	9444.06
453.60	9387.89
453.78	9633.64
453.97	9518.96
454.15	9635.99
454.34	9406.61
454.52	9657.05
454.70	9715.56
454.89	9858.34
455.07	9666.41
455.26	9980.04
455.44	9851.31
455.62	9872.38
455.81	9980.04
455.99	9966.00
456.17	10022.17
456.36	10125.16
456.54	10387.30
456.73	10249.21
456.91	10366.23
457.09	10296.02
457.28	10649.44
457.46	10160.27
457.64	10651.78
457.83	10501.98
458.01	10457.51
458.19	10565.18
458.38	10541.77
458.56	10396.66
458.74	10677.52
458.93	10619.01
459.11	10623.69
459.29	10871.79
459.48	10752.42
459.66	10869.45
459.84	11052.01
460.03	11059.03
460.21	10956.05
460.39	11009.88
460.57	11019.24
460.76	11023.92
460.94	11143.29
461.12	11147.97
461.31	11089.46
461.49	11194.78
461.67	11358.62
461.85	11459.26
462.04	11445.22
462.22	11344.58
462.40	11541.18
462.59	11662.89
462.77	11602.04
462.95	11660.55
463.13	11360.96
463.32	11672.25
463.50	11800.98
463.68	11964.82
463.86	11976.52
464.05	11702.68
464.23	11932.05
464.41	12107.59
464.59	11662.89
464.78	12219.94
464.96	12138.02
465.14	12006.95
465.32	12163.76
465.50	12044.40
465.69	12287.81
465.87	12250.36
466.05	12109.93
466.23	12304.20
466.41	12313.56
466.60	12297.17
466.78	12023.33
466.96	12156.74
467.14	12142.70
467.32	12463.35
467.51	12475.06
467.69	12191.85
467.87	12369.73
468.05	12692.73
468.23	12702.09
468.41	12830.82
468.60	12692.73
468.78	12709.11
468.96	12650.60
469.14	12898.69
469.32	12793.37
469.50	12681.02
469.69	12847.20
469.87	13158.49
470.05	13153.81
470.23	13135.09
470.41	13032.10
470.59	13411.27
470.77	13261.48
470.95	13336.37
471.14	13689.79
471.32	13273.18
471.50	13551.70
471.68	13605.53
471.86	13673.41
472.04	13642.98
472.22	14155.56
472.40	13788.10
472.58	14075.98
472.77	13881.72
472.95	14185.99
473.13	14562.81
473.31	14218.75
473.49	14075.98
473.67	14200.03
473.85	14483.24
474.03	14654.09
474.21	14548.77
474.39	14719.63
474.57	14831.97
474.75	14956.02
474.93	15021.56
475.12	14839.00
475.30	15215.82
475.48	14998.15
475.66	15374.98
475.84	15456.90
476.02	15559.88
476.20	15389.02
476.38	15812.66
476.56	16002.24
476.74	15887.56
476.92	15878.19
477.10	15826.70
477.28	15988.20
477.46	16123.95
477.64	16758.24
477.82	16709.08
478.00	16886.97
478.18	16704.40
478.36	16835.47
478.54	17495.50
478.72	17219.32
478.90	17378.48
479.08	17666.36
479.26	17830.20
479.44	18061.91
479.62	18012.76
479.80	18003.40
479.98	18408.31
480.16	18710.24
480.34	18090.00
480.52	18525.34
480.70	18906.85
480.88	18401.29
481.06	18998.13
481.24	18813.23
481.41	19073.03
481.59	19487.30
481.77	19173.67
481.95	19681.56
482.13	20037.33
482.31	19999.88
482.49	20339.26
482.67	20217.55
482.85	20477.35
483.03	20676.29
483.21	20737.15
483.39	21198.23
483.57	20973.54
483.74	21451.01
483.92	21495.48
484.10	21160.78
484.28	22008.06
484.46	22082.95
484.64	22480.85
484.82	21923.80
485.00	22328.71
485.18	22754.69
485.35	22747.67
485.53	23028.53
485.71	22874.06
485.89	23981.13
486.07	23843.04
486.25	23852.40
486.43	23644.09
486.61	24102.84
486.78	24252.63
486.96	24372.00
487.14	24549.88
487.32	24552.22
487.50	25076.50
487.68	25017.99
487.85	25156.08
488.03	25565.67
488.21	25881.64
488.39	25680.36
488.57	26157.83
488.75	25982.29
488.92	26871.69
489.10	26757.00
489.28	26644.66
489.46	27098.72
489.64	27159.58
489.81	27999.83
489.99	27978.76
490.17	27805.56
490.35	28252.61
490.53	28528.79
490.70	28320.48
490.88	28346.23
491.06	29179.46
491.24	29053.07
491.41	28856.46
491.59	29392.45
491.77	29340.96
491.95	29221.59
492.13	29614.80
492.30	30253.76
492.48	29872.26
492.66	30010.35
492.84	30298.23
493.01	30892.73
493.19	31094.02
493.37	31452.12
493.54	31239.13
493.72	31454.46
493.90	31576.17
494.08	32067.68
494.25	32053.64
494.43	32086.40
494.61	32388.33
494.79	32662.18
494.96	32723.03
495.14	32936.02
495.32	33303.48
495.49	33352.63
495.67	33291.78
495.85	33649.88
496.02	33748.18
496.20	34270.12
496.38	34424.60
496.55	34103.95
496.73	34401.19
496.91	34759.30
497.09	35206.34
497.26	35077.61
497.44	34925.47
497.62	35370.18
497.79	35967.01
497.97	35955.31
498.14	36046.59
498.32	36662.15
498.50	36116.81
498.67	37055.36
498.85	36449.16
499.03	37282.39
499.20	36627.04
499.38	37195.79
499.56	37151.32
499.73	37801.99
499.91	37354.95
500.08	37453.25
500.26	37989.24
500.44	37514.11
500.61	38052.43
500.79	37853.48
500.97	38110.94
501.14	38663.31
501.32	38944.17
501.49	39044.82
501.67	39007.37
501.84	38995.67
502.02	39166.52
502.20	39129.08
502.37	39557.39
502.55	39590.16
502.72	39768.04
502.90	39370.15
503.07	39669.74
503.25	40383.60
503.43	39971.67
503.60	40034.86
503.78	39997.41
503.95	40589.57
504.13	40423.39
504.30	40526.38
504.48	40596.59
504.65	40889.16
504.83	41249.60
505.01	41787.92
505.18	40825.96
505.36	41762.18
505.53	41757.50
505.71	41780.90
505.88	41944.74
506.06	41698.98
506.23	42401.14
506.41	41918.99
506.58	42251.35
506.76	42454.98
506.93	42768.61
507.11	42103.90
507.28	42646.90
507.46	42962.87
507.63	42862.23
507.81	43463.75
507.98	43140.75
508.16	43435.66
508.33	43924.83
508.50	43629.93
508.68	43737.59
508.85	44004.41
509.03	43938.88
509.20	44086.33
509.38	44203.36
509.55	44343.79
509.73	44587.21
509.90	44807.22
510.08	44762.75
510.25	44699.55
510.42	44921.90
510.60	45551.51
510.77	45104.46
510.95	45366.60
511.12	45048.29
511.30	45167.66
511.47	45551.51
511.64	45846.41
511.82	46073.45
511.99	45823.01
512.17	46155.36
512.34	46190.47
512.51	46623.47
512.69	46766.24
512.86	46440.91
513.04	46611.77
513.21	46677.30
513.38	46876.25
513.56	47026.04
513.73	46686.67
513.90	46817.74
514.08	46787.31
514.25	47400.53
514.43	47601.82
514.60	47611.18
514.77	47496.49
514.95	47775.02
515.12	47870.98
515.29	47665.01
515.47	48395.26
515.64	48215.04
515.81	48219.72
515.99	47995.03
516.16	48294.61
516.33	48453.77
516.51	48671.44
516.68	48966.35
516.85	48432.71
517.03	48891.45
517.20	49017.84
517.37	49193.38
517.54	48917.20
517.72	48865.70
517.89	49446.16
518.06	49631.06
518.24	49535.10
518.41	49312.75
518.58	49591.27
518.75	49109.12
518.93	49652.12
519.10	49766.81
519.27	49834.69
519.45	49968.10
519.62	49876.82
519.79	50033.63
519.96	50148.32
520.14	50234.92
520.31	50143.64
520.48	50014.91
520.65	50564.93
520.83	50873.88
521.00	50796.65
521.17	50855.16
521.34	51075.17
521.52	50894.95
521.69	50988.57
521.86	50960.48
522.03	51033.04
522.20	51765.63
522.38	51402.85
522.55	51257.73
522.72	51435.61
522.89	51461.36
523.07	51821.80
523.24	51702.43
523.41	51702.43
523.58	51608.81
523.75	52198.63
523.92	51716.48
524.10	52247.78
524.27	52463.11
524.44	52090.96
524.61	51990.32
524.78	52215.01
524.96	52332.04
525.13	52610.56
525.30	52341.40
525.47	52760.36
525.64	52741.63
525.81	52722.91
525.98	52774.40
526.16	52617.58
526.33	52802.49
526.50	53158.25
526.67	52704.18
526.84	53162.93
527.01	52971.00
527.18	53132.50
527.36	52973.34
527.53	53411.02
527.70	53462.52
527.87	53268.25
528.04	53076.33
528.21	53357.19
528.38	53251.87
528.55	53539.75
528.72	53319.74
528.89	53677.85
529.07	53432.09
529.24	53469.54
529.41	53918.92
529.58	53712.95
529.75	53902.54
529.92	54005.52
530.09	54110.85
530.26	54057.01
530.43	54092.12
530.60	53834.66
530.77	54157.66
530.94	54291.07
531.11	54047.65
531.28	54145.95
531.46	54602.36
531.63	54326.17
531.80	54433.84
531.97	54482.99
532.14	54630.44
532.31	54408.09
532.48	54593.00
532.65	54808.32
532.82	54651.51
532.99	54791.94
533.16	54890.24
533.33	54937.05
533.50	55089.19
533.67	54873.86
533.84	55091.53
534.01	55126.64
534.18	55016.63
534.35	55419.20
534.52	55075.15
534.69	55299.84
534.86	55313.88
535.03	55159.41
535.20	54955.78
535.37	55461.33
535.54	55454.31
535.71	55386.44
535.88	55447.29
536.05	55646.24
536.22	55704.75
536.38	55817.10
536.55	55653.26
536.72	55819.44
536.89	55604.11
537.06	55732.84
537.23	56119.02
537.40	55990.30
537.57	55767.94
537.74	55962.21
537.91	56222.01
538.08	55877.95
538.25	55880.29
538.42	56090.94
538.59	56189.24
538.75	55927.10
538.92	55959.87
539.09	56266.48
539.26	56207.97
539.43	56409.25
539.60	56226.69
539.77	56186.90
539.94	56732.25
540.11	56477.13
540.28	56556.70
540.44	56655.01
540.61	56411.59
540.78	56238.39
540.95	56769.69
541.12	56456.06
541.29	56369.46
541.46	56743.95
541.62	56835.23
541.79	56823.53
541.96	56552.02
542.13	56729.90
542.30	56795.44
542.47	56945.23
542.63	56996.73
542.80	56975.66
542.97	57172.27
543.14	57296.31
543.31	57322.06
543.48	57432.07
543.64	57605.26
543.81	57509.30
543.98	57359.51
544.15	57345.47
544.32	57450.79
544.48	57656.76
544.65	57492.92
544.82	57560.79
544.99	57504.62
545.16	57371.21
545.32	57521.01
545.49	57560.79
545.66	57949.32
545.83	57570.16
546.00	57815.91
546.16	57790.17
546.33	57719.95
546.50	57584.20
546.67	57579.52
546.83	57722.29
547.00	58071.03
547.17	57897.83
547.34	57710.59
547.50	58066.35
547.67	58120.18
547.84	58012.52
548.00	58363.60
548.17	58272.32
548.34	58188.06
548.51	58389.34
548.67	58475.94
548.84	58218.49
549.01	58188.06
549.18	58262.96
549.34	58330.83
549.51	58298.06
549.68	58466.58
549.84	58501.69
550.01	58398.71
550.18	58323.81
550.34	58658.51
550.51	58611.70
550.68	58358.92
550.84	58351.90
551.01	58761.49
551.18	58272.32
551.34	58738.08
551.51	58761.49
551.68	58672.55
551.84	58625.74
552.01	58518.07
552.18	58569.57
552.34	58604.67
552.51	58960.44
552.68	58691.27
552.84	58974.48
553.01	59035.33
553.18	58623.40
553.34	58841.07
553.51	58834.05
553.67	58857.45
553.84	59302.15
554.01	58939.37
554.17	58990.86
554.34	59217.89
554.51	59257.68
554.67	59208.53
554.84	58904.26
555.00	59126.61
555.17	59164.06
555.33	59056.40
555.50	59119.59
555.67	59288.11
555.83	59152.36
556.00	59128.95
556.16	59363.01
556.33	59580.68
556.50	59529.19
556.66	59468.33
556.83	59260.02
556.99	59536.21
557.16	59468.33
557.32	59613.44
557.49	59774.94
557.65	59395.77
557.82	59442.59
557.98	59323.22
558.15	59430.88
558.32	59671.96
558.48	59494.08
558.65	59405.14
558.81	59517.48
558.98	59721.11
559.14	59627.49
559.31	59875.58
559.47	59693.02
559.64	59936.44
559.80	59798.35
559.97	59828.77
560.13	59728.13
560.30	59945.80
560.46	59877.93
560.63	60093.25
560.79	60156.45
560.96	60006.65
561.12	59826.43
561.29	59831.11
561.45	59943.46
561.61	60034.74
561.78	59803.03
561.94	59964.52
562.11	60144.75
562.27	59985.59
562.44	59957.50
562.60	60299.22
562.77	60016.02
562.93	59842.82
563.10	60037.08
563.26	59863.88
563.42	60441.99
563.59	60273.48
563.75	60018.36
563.92	59817.07
564.08	59987.93
564.24	60149.43
564.41	60037.08
564.57	60086.23
564.74	60123.68
564.90	60205.60
565.07	60226.66
565.23	60130.70
565.39	60308.58
565.56	60240.71
565.72	60156.45
565.88	60175.17
566.05	60240.71
566.21	60320.29
566.38	60282.84
566.54	60271.14
566.70	60317.95
566.87	60516.89
567.03	60154.11
567.19	60669.03
567.36	60317.95
567.52	60420.93
567.68	60647.96
567.85	60404.55
568.01	60540.30
568.17	60294.54
568.34	60500.51
568.50	60348.37
568.66	60425.61
568.83	60622.22
568.99	60542.64
569.15	60374.12
569.32	60486.46
569.48	60542.64
569.64	60732.22
569.81	60416.25
569.97	60439.65
570.13	60608.17
570.30	60493.49
570.46	60708.82
570.62	60713.50
570.78	60633.92
570.95	60640.94
571.11	60748.60
571.27	60591.79
571.43	60603.49
571.60	60912.44
571.76	60643.28
571.92	60446.68
572.09	60889.04
572.25	60629.24
572.41	60673.71
572.57	60823.50
572.74	60949.89
572.90	60615.19
573.06	60708.82
573.22	60718.18
573.38	60624.56
573.55	60617.53
573.71	60903.08
573.87	60800.10
574.03	60556.68
574.20	60753.29
574.36	60896.06
574.52	60640.94
574.68	60828.18
574.84	60772.01
575.01	60863.29
575.17	60776.69
575.33	60802.44
575.49	60795.42
575.65	60853.93
575.82	60825.84
575.98	60914.78
576.14	61013.08
576.30	60889.04
576.46	60849.25
576.62	60828.18
576.79	60659.66
576.95	60647.96
577.11	60879.67
577.27	60830.52
577.43	60867.97
577.59	60622.22
577.75	60807.12
577.92	60842.23
578.08	60926.49
578.24	60966.27
578.40	60977.98
578.56	61038.83
578.72	60992.02
578.88	61036.49
579.04	61095.00
579.21	60893.72
579.37	60975.64
579.53	61190.97
579.69	60582.43
579.85	61137.13
580.01	60999.04
580.17	60884.36
580.33	61043.51
580.49	60945.21
580.65	61099.68
580.82	60872.65
580.98	60912.44
581.14	60727.54
581.30	61116.07
581.46	61078.62
581.62	60982.66
581.78	60938.19
581.94	61097.34
582.10	61001.38
582.26	61183.94
582.42	60942.87
582.58	61076.28
582.74	60914.78
582.90	61017.77
583.06	61001.38
583.22	61073.94
583.38	61057.56
583.54	61111.39
583.70	60945.21
583.86	60949.89
584.02	61069.26
584.18	61036.49
584.34	60898.40
584.50	61111.39
584.66	60891.38
584.82	60816.48
584.98	61291.61
585.14	61176.92
585.30	61197.99
585.46	61144.16
585.62	61045.85
585.78	61219.05
585.94	60907.76
586.10	61085.64
586.26	61186.28
586.42	61092.66
586.58	61095.00
586.74	61001.38
586.90	61172.24
587.06	61055.21
587.22	61247.14
587.38	60952.23
587.54	61263.52
587.70	61324.38
587.86	61111.39
588.02	61137.13
588.18	61291.61
588.34	61015.43
588.49	60947.55
588.65	61020.11
588.81	61153.52
588.97	61373.53
589.13	61167.56
589.29	61235.44
589.45	61502.26
589.61	61275.22
589.77	61418.00
589.93	61389.91
590.08	61326.72
590.24	61523.32
590.40	61499.92
590.56	61497.58
590.72	61490.55
590.88	61291.61
591.04	61420.34
591.20	61525.66
591.35	61469.49
591.51	61736.31
591.67	61518.64
591.83	61436.72
591.99	61499.92
592.15	61406.30
592.31	61687.16
592.46	61373.53
592.62	61556.09
592.78	61261.18
592.94	61537.36
593.10	61462.47
593.26	61656.73
593.41	61595.88
593.57	61373.53
593.73	61633.33
593.89	61829.93
594.05	61523.32
594.20	61572.47
594.36	61818.23
594.52	61642.69
594.68	61750.35
594.84	61483.53
594.99	61811.21
595.15	61638.01
595.31	61806.53
595.47	61298.63
595.62	61530.34
595.78	61319.70
595.94	61387.57
596.10	61843.98
596.25	61556.09
596.41	61630.99
596.57	61652.05
596.73	61628.65
596.88	61581.84
597.04	61762.06
597.20	61708.22
597.36	61689.50
597.51	61982.07
597.67	61696.52
597.83	61792.48
597.99	61928.23
598.14	61876.74
598.30	61853.34
598.46	61736.31
598.61	61726.95
598.77	61673.12
598.93	61848.66
599.09	61759.72
599.24	61785.46
599.40	61769.08
599.56	61937.60
599.71	61862.70
599.87	61965.68
600.03	61834.61
600.18	61696.52
600.34	61656.73
600.50	61925.89
600.65	61659.07
600.81	61874.40
600.97	61869.72
601.12	61902.49
601.28	61748.01
601.44	61719.93
601.59	61829.93
601.75	61879.08
601.91	61764.40
602.06	61961.00
602.22	61998.45
602.37	61918.87
602.53	61858.02
602.69	61839.29
602.84	61663.75
603.00	61914.19
603.16	61825.25
603.31	62007.81
603.47	62024.20
603.62	61654.39
603.78	61834.61
603.94	61787.80
604.09	61946.96
604.25	61893.13
604.40	61825.25
604.56	61914.19
604.71	61942.28
604.87	61773.76
605.03	61797.16
605.18	61820.57
605.34	61769.08
605.49	61750.35
605.65	61839.29
605.80	61710.56
605.96	61918.87
606.12	61834.61
606.27	62019.52
606.43	61609.92
606.58	61806.53
606.74	61738.65
606.89	61668.44
607.05	61932.92
607.20	61780.78
607.36	61691.84
607.51	61638.01
607.67	61687.16
607.82	61577.15
607.98	61738.65
608.13	61825.25
608.29	61593.54
608.44	61694.18
608.60	61635.67
608.75	61670.78
608.91	61607.58
609.06	61719.93
609.22	61748.01
609.37	61432.04
609.53	61778.44
609.68	61694.18
609.84	61499.92
609.99	61759.72
610.15	61759.72
610.30	61710.56
610.46	61757.38
610.61	61818.23
610.76	61659.07
610.92	61546.73
611.07	61806.53
611.23	61605.24
611.38	61628.65
611.54	61647.37
611.69	61553.75
611.84	61687.16
612.00	61647.37
612.15	61724.61
612.31	61687.16
612.46	61474.17
612.62	61532.68
612.77	61511.62
612.92	61839.29
613.08	61523.32
613.23	61546.73
613.39	61483.53
613.54	61380.55
613.69	61677.80
613.85	61420.34
614.00	61509.28
614.15	61542.05
614.31	61422.68
614.46	61698.86
614.62	61275.22
614.77	61371.19
614.92	61427.36
615.08	61432.04
615.23	61326.72
615.38	61476.51
615.54	61307.99
615.69	61516.30
615.84	61476.51
616.00	61462.47
616.15	61453.11
616.30	61659.07
616.46	61408.64
616.61	61469.49
616.76	61584.18
616.92	61336.08
617.07	61340.76
617.22	61087.98
617.37	61352.46
617.53	61574.81
617.68	61181.60
617.83	61258.84
617.99	61340.76
618.14	61420.34
618.29	61422.68
618.45	61104.37
618.60	61197.99
618.75	61085.64
618.90	61237.78
619.06	61310.33
619.21	61408.64
619.36	61340.76
619.51	61041.17
619.67	61254.16
619.82	61162.88
619.97	61127.77
620.12	60987.34
620.28	61024.79
620.43	61219.05
620.58	60963.93
620.73	61052.87
620.89	61085.64
621.04	61197.99
621.19	60966.27
621.34	61132.45
621.49	61020.11
621.65	61073.94
621.80	61134.79
621.95	60879.67
622.10	61127.77
622.25	60961.59
622.41	60860.95
622.56	61123.09
622.71	61003.72
622.86	60797.76
623.01	60928.83
623.16	60772.01
623.32	60818.82
623.47	60994.36
623.62	60835.20
623.77	60860.95
623.92	60914.78
624.07	61013.08
624.23	61020.11
624.38	60900.74
624.53	60769.67
624.68	60444.33
624.83	60870.31
624.98	60851.59
625.13	60755.63
625.29	60898.40
625.44	60718.18
625.59	60657.32
625.74	60589.45
625.89	60570.72
626.04	60465.40
626.19	60570.72
626.34	60786.05
626.49	60722.86
626.65	60453.70
626.80	60640.94
626.95	60647.96
627.10	60322.63
627.25	60317.95
627.40	60423.27
627.55	60540.30
627.70	60310.92
627.85	60699.45
628.00	60364.76
628.15	60516.89
628.30	60371.78
628.45	60306.24
628.60	60381.14
628.76	60507.53
628.91	60317.95
629.06	60383.48
629.21	60505.19
629.36	60240.71
629.51	60324.97
629.66	60020.70
629.81	60252.41
629.96	60247.73
630.11	60191.56
630.26	60119.00
630.41	60245.39
630.56	60137.72
630.71	60182.19
630.86	60179.85
631.01	59990.27
631.16	60313.26
631.31	59922.40
631.46	59938.78
631.61	59992.61
631.76	60119.00
631.91	60154.11
632.06	60198.58
632.21	60062.83
632.36	60130.70
632.51	59564.29
632.66	60020.70
632.81	59955.16
632.96	60067.51
633.10	59964.52
633.25	59870.90
633.40	60072.19
633.55	60189.22
633.70	59884.95
633.85	59777.28
634.00	59856.86
634.15	59686.00
634.30	59723.45
634.45	59985.59
634.60	59906.01
634.75	59763.24
634.90	59671.96
635.05	59814.73
635.19	59927.08
635.34	60027.72
635.49	59690.68
635.64	59824.09
635.79	59678.98
635.94	59793.67
636.09	59597.06
636.24	59559.61
636.39	59730.47
636.53	59807.71
636.68	59576.00
636.83	59671.96
636.98	59920.05
637.13	59468.33
637.28	59784.30
637.43	59807.71
637.57	59578.34
637.72	59465.99
637.87	59723.45
638.02	59421.52
638.17	59503.44
638.32	59358.33
638.46	59171.08
638.61	59351.30
638.76	59386.41
638.91	59412.16
639.06	59192.15
639.20	59215.55
639.35	58997.88
639.50	59388.75
639.65	59412.16
639.80	59428.54
639.94	59274.07
640.09	59292.79
640.24	59227.26
640.39	59171.08
640.54	59229.60
640.68	59276.41
640.83	59430.88
640.98	59011.93
641.13	59091.51
641.27	59440.24
641.42	59121.93
641.57	58852.77
641.72	59119.59
641.86	58908.94
642.01	58941.71
642.16	59056.40
642.31	58808.30
642.45	59199.17
642.60	59086.82
642.75	59021.29
642.90	58918.31
643.04	59004.91
643.19	58852.77
643.34	59023.63
643.48	59035.33
643.63	58707.66
643.78	58775.53
643.93	59217.89
644.07	58698.30
644.22	58787.24
644.37	58433.81
644.51	58569.57
644.66	58810.64
644.81	58841.07
644.95	58742.77
645.10	58710.00
645.25	58548.50
645.39	58564.88
645.54	58614.04
645.69	58616.38
645.83	58560.20
645.98	58642.12
646.13	58724.04
646.27	58820.00
646.42	58520.41
646.57	58651.48
646.71	58541.48
646.86	58710.00
647.00	58649.14
647.15	58646.80
647.30	58450.20
647.44	58623.40
647.59	58607.01
647.74	58590.63
647.88	58717.02
648.03	58459.56
648.17	58475.94
648.32	58375.30
648.47	58319.13
648.61	58326.15
648.76	58492.33
648.90	58174.02
649.05	58401.05
649.20	58438.50
649.34	58452.54
649.49	58305.09
649.63	58389.34
649.78	58497.01
649.92	58408.07
650.07	58419.77
650.21	58145.93
650.36	58190.40
650.51	58379.98
650.65	58323.81
650.80	58347.21
650.94	57904.85
651.09	58019.54
651.23	57572.50
651.38	58052.31
651.52	58073.37
651.67	57886.13
651.81	58061.67
651.96	57848.68
652.10	58082.73
652.25	57991.45
652.39	58028.90
652.54	57921.24
652.68	57839.32
652.83	57785.49
652.97	57918.90
653.12	57729.31
653.26	57818.25
653.41	57954.00
653.55	57914.22
653.70	57949.32
653.84	58021.88
653.99	57752.72
654.13	57710.59
654.27	57729.31
654.42	57645.05
654.56	57799.53
654.71	57883.79
654.85	57893.15
655.00	57757.40
655.14	57490.58
655.29	57595.90
655.43	57572.50
655.57	57652.08
655.72	57656.76
655.86	57495.26
656.01	57389.94
656.15	57483.56
656.30	57532.71
656.44	57614.63
656.58	57642.71
656.73	57703.57
656.87	57593.56
657.01	57429.72
657.16	57499.94
657.30	57614.63
657.45	57338.44
657.59	57413.34
657.73	57373.55
657.88	57125.46
658.02	57359.51
658.16	57251.84
658.31	57286.95
658.45	57277.59
658.60	57144.18
658.74	57043.54
658.88	57118.43
659.03	57120.77
659.17	57102.05
659.31	57104.39
659.46	56886.72
659.60	57027.15
659.74	56767.35
659.89	56865.66
660.03	56919.49
660.17	57076.30
660.32	56846.93
660.46	56933.53
660.60	56741.61
660.74	56872.68
660.89	56978.00
661.03	56629.26
661.17	56458.40
661.32	56425.64
661.46	56413.93
661.60	56718.20
661.74	56458.40
661.89	56528.62
662.03	56535.64
662.17	56460.74
662.31	56222.01
662.46	56559.05
662.60	56395.21
662.74	56191.58
662.88	56430.32
663.03	56041.79
663.17	56399.89
663.31	56100.30
663.45	56296.91
663.60	55714.11
663.74	55760.92
663.88	55950.51
664.02	55978.59
664.17	56027.74
664.31	55716.45
664.45	55643.90
664.59	55700.07
664.73	55840.50
664.88	55667.30
665.02	55391.12
665.16	55393.46
665.30	55370.05
665.44	55543.25
665.59	55311.54
665.73	55320.90
665.87	55470.70
666.01	55281.11
666.15	55360.69
666.29	55412.18
666.44	55536.23
666.58	55278.77
666.72	55077.49
666.86	54899.61
667.00	55157.06
667.14	54918.33
667.28	54864.50
667.43	54834.07
667.57	54820.03
667.71	54703.00
667.85	54759.17
667.99	54351.92
668.13	54618.74
668.27	54754.49
668.41	54827.05
668.56	54253.62
668.70	54291.07
668.84	54169.36
668.98	54358.94
669.12	54644.49
669.26	54342.56
669.40	54330.86
669.54	54522.78
669.68	54124.89
669.82	53998.50
669.96	54319.15
670.10	54220.85
670.25	54185.74
670.39	54160.00
670.53	54073.40
670.67	53914.24
670.81	54267.66
670.95	54024.25
671.09	53818.28
671.23	53703.59
671.37	53853.39
671.51	53528.05
671.65	53481.24
671.79	53462.52
671.93	53558.48
672.07	53523.37
672.21	53165.27
672.35	52797.80
672.49	52956.96
672.63	52868.02
672.77	52804.83
672.91	52980.37
673.05	52659.71
673.19	52243.10
673.33	52853.98
673.47	52694.82
673.61	52402.25
673.75	52788.44
673.89	52308.63
674.03	51868.61
674.17	52222.03
674.31	52121.39
674.45	51941.17
674.59	51765.63
674.73	51840.53
674.87	51721.16
675.01	51564.34
675.15	51662.64
675.29	51494.13
675.43	51760.95
675.56	51487.10
675.70	51320.93
675.84	51341.99
675.98	50204.49
676.12	51267.09
676.26	51182.84
676.40	51040.06
676.54	50906.65
676.68	51143.05
676.82	50412.80
676.96	50471.31
677.10	50312.16
677.23	50227.90
677.37	50188.11
677.51	50120.23
677.65	49808.94
677.79	49066.99
677.93	49076.35
678.07	49333.81
678.21	49003.80
678.34	49184.02
678.48	48924.22
678.62	49055.29
678.76	48783.79
678.90	48605.91
679.04	48917.20
679.18	48966.35
679.31	48074.60
679.45	48196.31
679.59	48453.77
679.73	48355.47
679.87	48107.37
680.00	47189.88
680.14	47346.70
680.28	47517.56
680.42	47374.78
680.56	47110.30
680.70	46623.47
680.83	46571.98
680.97	46824.76
681.11	47126.69
681.25	46960.51
681.39	46344.95
681.52	46358.99
681.66	46534.53
681.80	46199.83
681.94	46085.15
682.07	46167.07
682.21	45729.39
682.35	45469.59
682.49	45666.19
682.62	45490.65
682.76	45617.04
682.90	45638.11
683.04	45198.09
683.17	44933.60
683.31	44744.02
683.45	44839.98
683.59	44797.85
683.72	44144.84
683.86	44346.13
684.00	44114.42
684.13	44516.99
684.27	43873.34
684.41	43868.66
684.55	43660.35
684.68	43662.69
684.82	43550.35
684.96	43395.87
685.09	42909.04
685.23	42684.35
685.37	42433.91
685.50	42621.16
685.64	42021.98
685.78	43042.45
685.91	42541.58
686.05	42014.96
686.19	41698.98
686.32	41734.09
686.46	41490.68
686.60	41270.67
686.73	40704.26
686.87	40793.20
687.01	40980.44
687.14	40933.63
687.28	40231.47
687.42	40650.42
687.55	40133.17
687.69	40540.42
687.82	40144.87
687.96	39770.38
688.10	39533.99
688.23	39810.17
688.37	39519.95
688.50	39648.68
688.64	39526.97
688.78	39131.42
688.91	38614.16
689.05	38555.64
689.18	38955.88
689.32	38127.33
689.46	37837.10
689.59	37509.43
689.73	37649.86
689.86	37560.92
690.00	37687.31
690.13	37804.33
690.27	37532.83
690.41	37563.26
690.54	37347.93
690.68	36851.73
690.81	36802.58
690.95	36858.76
691.08	36449.16
691.22	36488.95
691.35	36533.42
691.49	36598.96
691.62	36175.32
691.76	35676.79
691.89	35681.47
692.03	35353.79
692.16	35622.95
692.30	35115.06
692.43	35040.16
692.57	35150.17
692.70	35206.34
692.84	34792.06
692.97	34583.76
693.11	34916.11
693.24	34202.25
693.38	33860.53
693.51	33806.70
693.65	33528.17
693.78	33544.56
693.92	33680.31
694.05	33425.19
694.19	33539.88
694.32	33165.39
694.45	33118.58
694.59	33017.94
694.72	32814.31
694.86	32650.47
694.99	32144.92
695.13	31941.29
695.26	31901.50
695.39	31126.78
695.53	31648.72
695.66	31889.80
695.80	31463.82
695.93	31590.21
696.07	30984.01
696.20	30714.85
696.33	30965.29
696.47	30412.92
696.60	31007.42
696.73	30576.76
696.87	30352.07
697.00	30529.95
697.14	30419.94
697.27	30366.11
697.40	29799.70
697.54	29900.34
697.67	29242.65
697.80	29551.60
697.94	29120.95
698.07	29085.84
698.21	29282.44
698.34	29179.46
698.47	28606.03
698.61	28276.01
698.74	28535.81
698.87	28545.17
699.01	27934.29
699.14	28465.60
699.27	27976.42
699.40	28376.66
699.54	28278.35
699.67	28105.15
699.80	27967.06
699.94	27634.71
700.07	27513.00
700.20	27187.66
700.34	26869.35
700.47	26787.43
700.60	26544.02
700.73	26476.14
700.87	26434.01
701.00	25811.43
701.13	25986.97
701.26	26469.12
701.40	26108.68
701.53	25855.90
701.66	25762.28
701.79	25546.95
701.93	25193.53
702.06	24833.08
702.19	25118.63
702.32	25413.54
702.46	25069.48
702.59	24685.63
702.72	24631.80
702.85	24655.20
702.99	24322.85
703.12	24451.58
703.25	24077.09
703.38	23768.14
703.51	23632.39
703.65	23536.43
703.78	23765.80
703.91	23236.84
704.04	23583.24
704.17	23637.07
704.31	23119.81
704.44	23187.69
704.57	22841.29
704.70	22595.53
704.83	22560.42
704.96	22551.06
705.10	22075.93
705.23	22192.96
>>>>>End Processed Spectral Data<<<<<
