SpectraSuite Data File
++++++++++++++++++++++++++++++++++++
Date: Fri Oct 25 10:44:44 EDT 2013
User: price-jones
Dark Spectrum Present: No
Reference Spectrum Present: No
Number of Sampled Component Spectra: 1
Spectrometers: USB2+H05261
Integration Time (usec): 100000 (USB2+H05261)
Spectra Averaged: 1 (USB2+H05261)
Boxcar Smoothing: 0 (USB2+H05261)
Correct for Electrical Dark: No (USB2+H05261)
Strobe/Lamp Enabled: No (USB2+H05261)
Correct for Detector Non-linearity: No (USB2+H05261)
Correct for Stray Light: No (USB2+H05261)
Number of Pixels in Processed Spectrum: 2048
>>>>>Begin Processed Spectral Data<<<<<
365.73	46.81
365.92	46.81
366.12	46.81
366.32	53.83
366.52	60.85
366.72	28.09
366.91	46.81
367.11	39.79
367.31	84.26
367.51	18.72
367.70	124.05
367.90	30.43
368.10	0.00
368.30	0.00
368.49	4.68
368.69	91.28
368.89	25.75
369.09	21.06
369.28	35.11
369.48	14.04
369.68	149.79
369.87	91.28
370.07	117.03
370.27	140.43
370.47	138.09
370.66	360.44
370.86	339.38
371.06	437.68
371.25	416.62
371.45	365.12
371.65	538.32
371.84	472.79
372.04	440.02
372.24	458.74
372.44	461.09
372.63	498.53
372.83	486.83
373.03	475.13
373.22	425.98
373.42	486.83
373.62	517.26
373.81	507.90
374.01	568.75
374.21	540.66
374.40	517.26
374.60	535.98
374.79	606.20
374.99	491.51
375.19	606.20
375.38	603.86
375.58	592.16
375.78	519.60
375.97	543.00
376.17	641.31
376.37	526.62
376.56	540.66
376.76	557.05
376.95	587.47
377.15	667.05
377.35	594.50
377.54	545.34
377.74	655.35
377.93	620.24
378.13	571.09
378.33	727.91
378.52	638.97
378.72	667.05
378.91	589.82
379.11	578.11
379.31	603.86
379.50	617.90
379.70	585.13
379.89	594.50
380.09	568.75
380.28	638.97
380.48	725.57
380.68	678.76
380.87	624.92
381.07	699.82
381.26	655.35
381.46	629.60
381.65	678.76
381.85	664.71
382.04	706.84
382.24	664.71
382.43	716.20
382.63	690.46
382.83	706.84
383.02	716.20
383.22	683.44
383.41	660.03
383.61	699.82
383.80	779.40
384.00	720.88
384.19	748.97
384.39	774.72
384.58	786.42
384.78	713.86
384.97	795.78
385.17	748.97
385.36	730.25
385.56	763.01
385.75	798.12
385.95	718.54
386.14	807.48
386.34	767.70
386.53	880.04
386.72	882.38
386.92	795.78
387.11	880.04
387.31	746.63
387.50	746.63
387.70	882.38
387.89	805.14
388.09	781.74
388.28	847.27
388.48	821.53
388.67	880.04
388.86	835.57
389.06	800.46
389.25	877.70
389.45	826.21
389.64	870.68
389.84	912.81
390.03	959.62
390.22	894.08
390.42	870.68
390.61	887.06
390.81	884.72
391.00	919.83
391.19	973.66
391.39	971.32
391.58	959.62
391.78	997.07
391.97	1008.77
392.16	947.92
392.36	1018.13
392.55	1039.20
392.75	947.92
392.94	952.60
393.13	973.66
393.33	978.34
393.52	1034.52
393.71	1029.84
393.91	971.32
394.10	1097.71
394.29	1064.94
394.49	1130.48
394.68	1144.52
394.88	1095.37
395.07	1217.08
395.26	1116.44
395.46	1144.52
395.65	1118.78
395.84	1135.16
396.04	1109.41
396.23	1093.03
396.42	1118.78
396.62	1153.88
396.81	1153.88
397.00	1210.06
397.19	1146.86
397.39	1153.88
397.58	1203.04
397.77	1355.17
397.97	1348.15
398.16	1198.35
398.35	1327.08
398.55	1336.45
398.74	1289.64
398.93	1376.24
399.12	1352.83
399.32	1324.74
399.51	1425.39
399.70	1423.05
399.90	1392.62
400.09	1409.00
400.28	1448.79
400.47	1394.96
400.67	1511.99
400.86	1497.94
401.05	1462.83
401.24	1418.36
401.44	1528.37
401.63	1558.80
401.82	1502.62
402.01	1483.90
402.21	1540.07
402.40	1537.73
402.59	1584.54
402.78	1516.67
402.97	1614.97
403.17	1542.41
403.36	1570.50
403.55	1675.82
403.74	1675.82
403.93	1657.10
404.13	1689.87
404.32	1736.68
404.51	1685.19
404.70	1739.02
404.89	1699.23
405.09	1729.66
405.28	1736.68
405.47	1746.04
405.66	1788.17
405.85	1762.42
406.05	1776.47
406.24	1811.57
406.43	1834.98
406.62	1914.56
406.81	2022.22
407.00	1893.49
407.20	1849.02
407.39	1795.19
407.58	1956.69
407.77	1977.75
407.96	2017.54
408.15	2059.67
408.34	2012.86
408.54	2005.84
408.73	2015.20
408.92	1928.60
409.11	2094.78
409.30	2113.50
409.49	2155.63
409.68	2094.78
409.87	1928.60
410.07	2190.74
410.26	2097.12
410.45	2197.76
410.64	2307.77
410.83	2324.15
411.02	2275.00
411.21	2244.57
411.40	2324.15
411.59	2298.41
411.78	2441.18
411.98	2464.58
412.17	2385.01
412.36	2497.35
412.55	2487.99
412.74	2462.24
412.93	2403.73
413.12	2387.35
413.31	2626.08
413.50	2644.81
413.69	2438.84
413.88	2633.10
414.07	2546.50
414.26	2544.16
414.45	2682.25
414.64	2700.98
414.83	2696.30
415.02	2691.62
415.22	2708.00
415.41	2862.48
415.60	2754.81
415.79	2918.65
415.98	2834.39
416.17	2871.84
416.36	2822.69
416.55	2855.45
416.74	2834.39
416.93	2913.97
417.12	3014.61
417.31	3026.31
417.50	2956.10
417.69	3171.43
417.88	3075.46
418.07	3049.72
418.26	3117.59
418.45	3000.57
418.64	3272.07
418.83	3178.45
419.02	3208.87
419.21	3335.26
419.39	3346.97
419.58	3213.56
419.77	3283.77
419.96	3253.34
420.15	3410.16
420.34	3279.09
420.53	3431.23
420.72	3351.65
420.91	3562.30
421.10	3372.71
421.29	3665.28
421.48	3389.10
421.67	3456.97
421.86	3541.23
422.05	3536.55
422.24	3400.80
422.43	3368.03
422.61	3522.51
422.80	3555.27
422.99	3634.85
423.18	3552.93
423.37	3613.79
423.56	3597.40
423.75	3599.74
423.94	3620.81
424.13	3389.10
424.32	3480.38
424.50	3520.17
424.69	3714.43
424.88	3730.81
425.07	3588.04
425.26	3604.42
425.45	3611.45
425.64	3559.95
425.83	3595.06
426.01	3796.35
426.20	3698.05
426.39	3728.47
426.58	3679.32
426.77	3676.98
426.96	3517.83
427.15	3726.13
427.33	3772.94
427.52	3744.86
427.71	3758.90
427.90	3810.39
428.09	3852.52
428.28	3843.16
428.46	3850.18
428.65	3789.33
428.84	3962.53
429.03	3927.42
429.22	3810.39
429.40	3880.61
429.59	3756.56
429.78	3730.81
429.97	3726.13
430.16	3878.27
430.34	3824.44
430.53	3929.76
430.72	3932.10
430.91	4007.00
431.10	3983.59
431.28	4170.83
431.47	4224.67
431.66	4217.65
431.85	4173.18
432.03	4196.58
432.22	4379.14
432.41	4126.36
432.60	4299.56
432.79	4196.58
432.97	4243.39
433.16	4362.76
433.35	4383.82
433.54	4189.56
433.72	4411.91
433.91	4243.39
434.10	4381.48
434.28	4414.25
434.47	4390.84
434.66	4475.10
434.85	4634.26
435.03	4627.24
435.22	4510.21
435.41	4711.50
435.59	4535.96
435.78	4571.07
435.97	4755.97
436.16	4526.60
436.34	4716.18
436.53	4671.71
436.72	4854.27
436.90	4552.34
437.09	4814.48
437.28	4695.11
437.46	4760.65
437.65	4835.55
437.84	4835.55
438.02	4589.79
438.21	4800.44
438.40	4662.35
438.58	4910.44
438.77	4994.70
438.96	4919.81
439.14	5078.96
439.33	5053.22
439.52	5238.12
439.70	5123.43
439.89	5317.70
440.08	5249.82
440.26	5212.37
440.45	5256.84
440.63	5404.30
440.82	5359.83
441.01	5338.76
441.19	5523.66
441.38	5614.95
441.57	5748.36
441.75	5673.46
441.94	5720.27
442.12	5717.93
442.31	5497.92
442.50	5743.67
442.68	5841.98
442.87	5841.98
443.05	5916.87
443.24	5930.92
443.43	5879.43
443.61	5940.28
443.80	6146.25
443.98	5823.25
444.17	5844.32
444.35	5942.62
444.54	6078.37
444.73	5884.11
444.91	5820.91
445.10	5982.41
445.28	5914.53
445.47	5746.02
445.65	5977.73
445.84	6106.46
446.02	6066.67
446.21	6026.88
446.39	6031.56
446.58	5949.64
446.77	5980.07
446.95	5823.25
447.14	5989.43
447.32	6251.57
447.51	6120.50
447.69	6033.90
447.88	6087.73
448.06	6157.95
448.25	6008.16
448.43	6127.52
448.62	6092.41
448.80	6010.50
448.99	6146.25
449.17	6321.79
449.36	6284.34
449.54	6296.04
449.73	6349.87
449.91	6258.59
450.10	6469.24
450.28	6661.16
450.46	6602.65
450.65	6593.29
450.83	6492.65
451.02	6527.75
451.20	6682.23
451.39	6609.67
451.57	6490.31
451.76	6469.24
451.94	6560.52
452.13	6597.97
452.31	6560.52
452.49	6602.65
452.68	6621.38
452.86	6621.38
453.05	6860.11
453.23	6747.76
453.42	6773.51
453.60	6789.89
453.78	6935.01
453.97	6743.08
454.15	6862.45
454.34	6745.42
454.52	6862.45
454.70	6932.67
454.89	6808.62
455.07	6686.91
455.26	6855.43
455.44	7007.56
455.62	6874.15
455.81	7180.76
455.99	7040.33
456.17	7126.93
456.36	7211.19
456.54	7061.40
456.73	7164.38
456.91	7265.02
457.09	7466.31
457.28	7555.25
457.46	7407.80
457.64	7543.55
457.83	7681.64
458.01	7351.62
458.19	7737.81
458.38	7489.71
458.56	7716.75
458.74	7459.29
458.93	7590.36
459.11	7489.71
459.29	7569.29
459.48	7564.61
459.66	7637.17
459.84	7669.94
460.03	7803.35
460.21	7770.58
460.39	7751.85
460.57	7761.22
460.76	7943.78
460.94	7859.52
461.12	7882.92
461.31	7726.11
461.49	7868.88
461.67	7948.46
461.85	8219.96
462.04	8018.68
462.22	8276.13
462.40	8177.83
462.59	7911.01
462.77	8159.11
462.95	8311.24
463.13	8234.00
463.32	8112.30
463.50	8191.88
463.68	8180.17
463.86	8306.56
464.05	8140.38
464.23	8318.26
464.41	8402.52
464.59	8095.91
464.78	8631.90
464.96	8362.73
465.14	8400.18
465.32	8692.75
465.50	8446.99
465.69	8552.32
465.87	8533.59
466.05	8437.63
466.23	8358.05
466.41	8376.78
466.60	8643.60
466.78	7976.55
466.96	8622.53
467.14	8505.51
467.32	8559.34
467.51	8793.39
467.69	8348.69
467.87	8643.60
468.05	8526.57
468.23	8847.22
468.41	8601.47
468.60	8777.01
468.78	8912.76
468.96	8720.84
469.14	8901.06
469.32	8905.74
469.50	8814.46
469.69	9090.64
469.87	8987.66
470.05	9177.24
470.23	9151.49
470.41	8898.72
470.59	9142.13
470.77	9100.00
470.95	8994.68
471.14	9231.07
471.32	9151.49
471.50	9479.17
471.68	9394.91
471.86	9582.15
472.04	9603.22
472.22	9703.86
472.40	9598.54
472.58	9540.02
472.77	9664.07
472.95	9755.35
473.13	9977.70
473.31	9664.07
473.49	9767.06
473.67	9734.29
473.85	9753.01
474.03	10071.33
474.21	10345.17
474.39	10307.72
474.57	10094.73
474.75	10445.81
474.93	10417.72
475.12	10258.57
475.30	10239.84
475.48	10251.55
475.66	10256.23
475.84	10445.81
476.02	10389.64
476.20	10530.07
476.38	10658.80
476.56	10927.96
476.74	10934.98
476.92	10630.71
477.10	10909.24
477.28	11131.59
477.46	10937.32
477.64	11169.04
477.82	11157.33
478.00	11433.52
478.18	11370.32
478.36	11492.03
478.54	11700.34
478.72	11662.89
478.90	11885.24
479.08	12170.79
479.26	12292.49
479.44	12163.76
479.62	11861.84
479.80	12320.58
479.98	12575.70
480.16	12648.26
480.34	12435.27
480.52	12559.31
480.70	12746.56
480.88	12545.27
481.06	12936.14
481.24	12767.62
481.41	12772.30
481.59	13179.56
481.77	13263.82
481.95	13200.62
482.13	13369.14
482.31	13605.53
482.49	13862.99
482.67	13841.93
482.85	13825.54
483.03	13675.75
483.21	14265.57
483.39	14155.56
483.57	14174.28
483.74	14539.41
483.92	14508.98
484.10	14242.16
484.28	14476.21
484.46	14724.31
484.64	14974.75
484.82	14984.11
485.00	15056.67
485.18	15215.82
485.35	15140.93
485.53	15014.54
485.71	15208.80
485.89	15751.81
486.07	15548.18
486.25	15681.59
486.43	15527.11
486.61	15749.46
486.78	16105.23
486.96	16077.14
487.14	16435.24
487.32	16458.65
487.50	16765.26
487.68	16716.11
487.85	17062.51
488.03	17043.78
488.21	17554.02
488.39	17294.22
488.57	17130.38
488.75	17563.38
488.92	17888.71
489.10	17678.07
489.28	17867.65
489.46	18527.68
489.64	18132.13
489.81	18588.53
489.99	18565.13
490.17	18712.58
490.35	18757.05
490.53	18721.95
490.70	19293.04
490.88	18993.45
491.06	19122.18
491.24	19164.31
491.41	19346.87
491.59	19557.52
491.77	19686.25
491.95	19754.12
492.13	19894.55
492.30	20060.73
492.48	20222.23
492.66	20210.53
492.84	20168.40
493.01	20294.79
493.19	20252.66
493.37	20776.94
493.54	21013.33
493.72	21043.76
493.90	21284.83
494.08	21310.58
494.25	21521.23
494.43	21434.63
494.61	21692.08
494.79	21680.38
494.96	21666.34
495.14	21671.02
495.32	22099.34
495.49	22333.39
495.67	22085.30
495.85	21977.63
496.02	22541.70
496.20	22595.53
496.38	22649.36
496.55	23035.55
496.73	23323.44
496.91	23171.30
497.09	23288.33
497.26	23190.03
497.44	23255.56
497.62	23644.09
497.79	23824.31
497.97	23307.05
498.14	23831.33
498.32	23971.77
498.50	23676.86
498.67	24355.61
498.85	24086.45
499.03	24266.67
499.20	24507.75
499.38	24362.64
499.56	24573.28
499.73	24774.57
499.91	24814.36
500.08	25046.07
500.26	25015.65
500.44	25022.67
500.61	24692.65
500.79	24889.26
500.97	25041.39
501.14	25441.62
501.32	25245.02
501.49	25507.16
501.67	25483.75
501.84	25841.85
502.02	25748.23
502.20	26139.10
502.37	26267.83
502.55	25891.01
502.72	26312.30
502.90	26562.74
503.07	26331.03
503.25	26426.99
503.43	26150.81
503.60	26300.60
503.78	26497.20
503.95	26801.47
504.13	26452.73
504.30	26635.30
504.48	27150.21
504.65	27147.87
504.83	26969.99
505.01	27365.54
505.18	27084.68
505.36	27646.41
505.53	27646.41
505.71	27899.19
505.88	27648.75
506.06	27412.35
506.23	27632.36
506.41	27721.30
506.58	27700.24
506.76	27960.04
506.93	27992.81
507.11	27793.86
507.28	27995.15
507.46	28444.53
507.63	28624.75
507.81	28512.41
507.98	28332.18
508.16	28570.92
508.33	28765.18
508.50	28973.49
508.68	29062.43
508.85	29352.66
509.03	29069.45
509.20	29048.39
509.38	29390.11
509.55	29247.33
509.73	28709.01
509.90	29151.37
510.08	29097.54
510.25	29923.75
510.42	29521.18
510.60	29528.20
510.77	30000.99
510.95	30457.39
511.12	29893.32
511.30	29949.50
511.47	30267.81
511.64	30246.74
511.82	30492.50
511.99	30181.21
512.17	30267.81
512.34	30174.19
512.51	30792.09
512.69	30787.41
512.86	30944.22
513.04	31054.23
513.21	30869.33
513.38	30794.43
513.56	30866.98
513.73	30874.01
513.90	31625.32
514.08	31321.05
514.25	30895.07
514.43	31283.60
514.60	31288.28
514.77	30991.03
514.95	31887.46
515.12	31630.00
515.29	31580.85
515.47	32385.99
515.64	31756.39
515.81	31379.56
515.99	32030.23
516.16	31920.23
516.33	31922.57
516.51	32013.85
516.68	31613.62
516.85	31683.83
517.03	31800.86
517.20	32290.03
517.37	32168.32
517.54	32294.71
517.72	32264.28
517.89	32507.70
518.06	32652.81
518.24	32170.66
518.41	32737.07
518.58	32741.75
518.75	32718.35
518.93	32814.31
519.10	32821.33
519.27	33170.07
519.45	33205.18
519.62	33694.35
519.79	32816.65
519.96	33549.24
520.14	33890.96
520.31	33125.60
520.48	33502.43
520.65	33624.14
520.83	33832.44
521.00	33916.70
521.17	34108.63
521.34	33942.45
521.52	33855.85
521.69	34209.27
521.86	34291.19
522.03	33916.70
522.20	34466.73
522.38	34925.47
522.55	34288.85
522.72	34237.36
522.89	34204.59
523.07	34962.92
523.24	34803.77
523.41	34738.23
523.58	35000.37
523.75	35225.06
523.92	35243.79
524.10	35515.29
524.27	35538.69
524.44	35622.95
524.61	35321.02
524.78	35522.31
524.96	35658.06
525.13	35988.08
525.30	35672.10
525.47	36128.51
525.64	36130.85
525.81	35716.58
525.98	35625.29
526.16	35629.98
526.33	35615.93
526.50	36210.43
526.67	35323.36
526.84	35346.77
527.01	35374.86
527.18	36414.05
527.36	36659.81
527.53	36374.27
527.70	36458.52
527.87	36624.70
528.04	36641.09
528.21	36498.31
528.38	36465.55
528.55	36914.93
528.72	37219.20
528.89	36851.73
529.07	36718.32
529.24	36884.50
529.41	36732.37
529.58	37148.98
529.75	36692.58
529.92	36933.65
530.09	37219.20
530.26	37102.17
530.43	37235.58
530.60	37219.20
530.77	37411.12
530.94	37738.80
531.11	37209.84
531.28	37099.83
531.46	37453.25
531.63	37343.25
531.80	37464.96
531.97	37862.85
532.14	37904.98
532.31	37092.81
532.48	37605.39
532.65	37972.85
532.82	37551.56
532.99	38242.01
533.16	38017.32
533.33	38295.85
533.50	37954.13
533.67	38330.95
533.84	37862.85
534.01	37944.76
534.18	37738.80
534.35	38550.96
534.52	37986.89
534.69	38356.70
534.86	38087.54
535.03	38700.76
535.20	38742.89
535.37	38859.91
535.54	38436.28
535.71	38724.16
535.88	38778.00
536.05	38499.47
536.22	39175.89
536.38	38937.15
536.55	38770.97
536.72	39089.29
536.89	38710.12
537.06	39028.43
537.23	39007.37
537.40	39316.32
537.57	39098.65
537.74	39260.15
537.91	39419.30
538.08	39232.06
538.25	38789.70
538.42	39012.05
538.59	39494.20
538.75	39180.57
538.92	39388.88
539.09	39414.62
539.26	39597.18
539.43	39674.42
539.60	39133.76
539.77	39171.21
539.94	39800.81
540.11	39395.90
540.28	39746.98
540.44	39786.77
540.61	39744.64
540.78	39964.65
540.95	39922.52
541.12	39627.61
541.29	39566.76
541.46	39821.87
541.62	39938.90
541.79	40137.85
541.96	39311.64
542.13	39997.41
542.30	40065.29
542.47	40271.26
542.63	40437.44
542.80	40236.15
542.97	40748.73
543.14	40935.97
543.31	40907.88
543.48	41265.99
543.64	41202.79
543.81	41191.09
543.98	41516.42
544.15	40772.13
544.32	40645.74
544.48	41144.28
544.65	41331.52
544.82	40905.54
544.99	40950.01
545.16	40875.12
545.32	40680.85
545.49	41394.71
545.66	41237.90
545.83	41738.77
546.00	41816.01
546.16	41043.63
546.33	41439.18
546.50	40800.22
546.67	41345.56
546.83	40893.84
547.00	41144.28
547.17	41258.96
547.34	41607.70
547.50	41425.14
547.67	41977.51
547.84	41661.54
548.00	41947.08
548.17	41830.05
548.34	41926.02
548.51	41846.44
548.67	42127.30
548.84	42003.25
549.01	42057.09
549.18	41748.14
549.34	41813.67
549.51	41963.46
549.68	41799.63
549.84	42237.31
550.01	42307.52
550.18	42431.57
550.34	42017.30
550.51	42349.65
550.68	42003.25
550.84	41989.21
551.01	42354.33
551.18	42356.67
551.34	42368.38
551.51	42148.37
551.68	42717.12
551.84	42801.38
552.01	42274.76
552.18	42628.18
552.34	42494.77
552.51	42976.92
552.68	42590.73
552.84	43070.54
553.01	43339.70
553.18	42639.88
553.34	42899.68
553.51	42763.93
553.67	43171.18
553.84	42848.19
554.01	43047.13
554.17	43077.56
554.34	43225.01
554.51	43318.64
554.67	43217.99
554.84	43257.78
555.00	43115.01
555.17	42731.16
555.33	42777.97
555.50	43239.06
555.67	42796.70
555.83	42862.23
556.00	42972.24
556.16	43555.03
556.33	43452.05
556.50	43257.78
556.66	43058.84
556.83	42731.16
556.99	43452.05
557.16	43367.79
557.32	43583.12
557.49	43171.18
557.65	43159.48
557.82	43608.86
557.98	43255.44
558.15	43344.38
558.32	43358.42
558.48	43442.68
558.65	43206.29
558.81	43571.41
558.98	43281.19
559.14	43236.72
559.31	43213.31
559.47	43564.39
559.64	43702.48
559.80	44046.54
559.97	43655.67
560.13	43489.49
560.30	43346.72
560.46	43517.58
560.63	43894.41
560.79	43667.37
560.96	43849.94
561.12	44074.63
561.29	43679.08
561.45	43555.03
561.61	43983.35
561.78	43948.24
561.94	43810.15
562.11	43796.10
562.27	43714.19
562.44	43847.60
562.60	44184.63
562.77	44259.53
562.93	44100.37
563.10	43772.70
563.26	43805.47
563.42	43761.00
563.59	43522.26
563.75	43494.18
563.92	44594.23
564.08	44519.33
564.24	44772.11
564.41	43931.86
564.57	44280.60
564.74	44273.57
564.90	43632.27
565.07	44296.98
565.23	44608.27
565.39	44182.29
565.56	44222.08
565.72	44119.10
565.88	44322.72
566.05	43873.34
566.21	43824.19
566.38	44315.70
566.54	44114.42
566.70	44329.75
566.87	44549.76
567.03	44261.87
567.19	44863.39
567.36	44662.10
567.52	44191.65
567.68	44519.33
567.85	44144.84
568.01	44189.31
568.17	44463.16
568.34	44149.53
568.50	44402.30
568.66	44098.03
568.83	44362.51
568.99	43943.56
569.15	44362.51
569.32	43922.49
569.48	44240.81
569.64	44577.84
569.81	44619.97
569.97	44662.10
570.13	44011.43
570.30	44201.02
570.46	43988.03
570.62	43915.47
570.78	44329.75
570.95	44004.41
571.11	44395.28
571.27	44315.70
571.43	44266.55
571.60	44177.61
571.76	44343.79
571.92	44451.45
572.09	44322.72
572.25	44631.68
572.41	44425.71
572.57	44493.58
572.74	44758.06
572.90	44320.38
573.06	44598.91
573.22	44711.25
573.38	44439.75
573.55	44327.41
573.71	44708.91
573.87	44133.14
574.03	44467.84
574.20	44528.69
574.36	44701.89
574.52	44774.45
574.68	44692.53
574.84	44264.21
575.01	44772.11
575.17	44261.87
575.33	44334.43
575.49	44746.36
575.65	44643.38
575.82	44797.85
575.98	44474.86
576.14	44722.96
576.30	44507.63
576.46	44732.32
576.62	44514.65
576.79	44406.98
576.95	44158.89
577.11	44617.63
577.27	44631.68
577.43	44460.82
577.59	44774.45
577.75	44491.24
577.92	44105.06
578.08	44414.01
578.24	44215.06
578.40	44320.38
578.56	44121.44
578.72	44713.59
578.88	44514.65
579.04	44942.97
579.21	44732.32
579.37	44554.44
579.53	44552.10
579.69	44231.44
579.85	44519.33
580.01	44797.85
580.17	44903.18
580.33	44952.33
580.49	45102.12
580.65	45125.53
580.82	44949.99
580.98	44828.28
581.14	44648.06
581.30	45006.16
581.46	44921.90
581.62	44886.79
581.78	45092.76
581.94	44868.07
582.10	44552.10
582.26	44652.74
582.42	44643.38
582.58	44779.13
582.74	44273.57
582.90	45059.99
583.06	44914.88
583.22	44554.44
583.38	45207.45
583.54	45158.30
583.70	45010.84
583.86	44847.00
584.02	44795.51
584.18	44720.62
584.34	44460.82
584.50	45071.70
584.66	44645.72
584.82	44362.51
584.98	45017.86
585.14	45085.74
585.30	44933.60
585.46	44727.64
585.62	44729.98
585.78	44748.70
585.94	44657.42
586.10	44774.45
586.26	44650.40
586.42	44858.71
586.58	44886.79
586.74	44758.06
586.90	44767.43
587.06	44727.64
587.22	44898.50
587.38	44825.94
587.54	44966.37
587.70	44631.68
587.86	44821.26
588.02	44900.84
588.18	44882.11
588.34	44804.88
588.49	44402.30
588.65	44334.43
588.81	45050.63
588.97	44893.82
589.13	44339.11
589.29	44940.63
589.45	45041.27
589.61	44598.91
589.77	45301.07
589.93	44905.52
590.08	44678.49
590.24	45125.53
590.40	45160.64
590.56	45247.24
590.72	45333.84
590.88	44828.28
591.04	44940.63
591.20	45280.00
591.35	45663.85
591.51	45441.50
591.67	45230.85
591.83	45139.57
591.99	44879.77
592.15	45074.04
592.31	45078.72
592.46	45116.17
592.62	45074.04
592.78	45109.14
592.94	44957.01
593.10	44655.08
593.26	45118.51
593.41	45326.81
593.57	45015.52
593.73	44858.71
593.89	45109.14
594.05	45258.94
594.20	44919.56
594.36	45378.31
594.52	44968.71
594.68	45116.17
594.84	45003.82
594.99	45249.58
595.15	45099.78
595.31	45198.09
595.47	45219.15
595.62	45455.54
595.78	45411.07
595.94	45130.21
596.10	45284.68
596.25	45680.24
596.41	45455.54
596.57	45074.04
596.73	45595.98
596.88	45207.45
597.04	45340.86
597.20	44980.42
597.36	45219.15
597.51	45720.02
597.67	45759.81
597.83	45146.59
597.99	45394.69
598.14	45329.16
598.30	45155.96
598.46	45034.25
598.61	44891.48
598.77	45113.83
598.93	45043.61
599.09	45162.98
599.24	45558.53
599.40	45240.21
599.56	45413.41
599.71	45612.36
599.87	45385.33
600.03	44879.77
600.18	44877.43
600.34	45219.15
600.50	45347.88
600.65	45205.11
600.81	45287.03
600.97	45425.12
601.12	45375.97
601.28	45511.72
601.44	45036.59
601.59	44905.52
601.75	44741.68
601.91	44910.20
602.06	45397.03
602.22	45560.87
602.37	45591.30
602.53	45160.64
602.69	45572.57
602.84	44849.35
603.00	45364.26
603.16	45392.35
603.31	44842.32
603.47	44942.97
603.62	45275.32
603.78	45521.08
603.94	44935.95
604.09	45640.45
604.25	45453.20
604.40	45113.83
604.56	45371.28
604.71	45715.34
604.87	44814.24
605.03	45113.83
605.18	44795.51
605.34	44999.14
605.49	45160.64
605.65	44414.01
605.80	44734.66
605.96	44961.69
606.12	45015.52
606.27	45249.58
606.43	44912.54
606.58	44954.67
606.74	44832.96
606.89	45111.49
607.05	44994.46
607.20	45364.26
607.36	44811.90
607.51	45272.98
607.67	44877.43
607.82	45127.87
607.98	44917.22
608.13	44390.60
608.29	45034.25
608.44	44652.74
608.60	44231.44
608.75	44538.05
608.91	44795.51
609.06	44617.63
609.22	44781.47
609.37	44605.93
609.53	44547.42
609.68	44765.09
609.84	44636.36
609.99	44692.53
610.15	44659.76
610.30	44584.86
610.46	44275.91
610.61	44535.71
610.76	44655.08
610.92	44797.85
611.07	44655.08
611.23	44392.94
611.38	44509.97
611.54	44556.78
611.69	44126.12
611.84	44105.06
612.00	44327.41
612.15	44498.26
612.31	44418.69
612.46	44292.30
612.62	44456.14
612.77	44222.08
612.92	44545.08
613.08	44378.90
613.23	44561.46
613.39	44252.51
613.54	44039.52
613.69	44182.29
613.85	44002.07
614.00	44252.51
614.15	44479.54
614.31	44577.84
614.46	44350.81
614.62	44186.97
614.77	44051.22
614.92	44086.33
615.08	44025.48
615.23	43948.24
615.38	44376.56
615.54	43739.93
615.69	43590.14
615.84	43929.51
616.00	43742.27
616.15	44041.86
616.30	43838.23
616.46	43704.82
616.61	43826.53
616.76	43763.34
616.92	43468.43
617.07	43583.12
617.22	43281.19
617.37	43077.56
617.53	43964.62
617.68	43810.15
617.83	43819.51
617.99	44182.29
618.14	43646.31
618.29	43847.60
618.45	43353.74
618.60	43643.97
618.75	43484.81
618.90	43498.86
619.06	44034.84
619.21	43824.19
619.36	44083.99
619.51	43629.93
619.67	43311.61
619.82	43409.92
619.97	43936.54
620.12	43115.01
620.28	42721.80
620.43	43147.78
620.58	43290.55
620.73	43182.88
620.89	43372.47
621.04	42993.30
621.19	43030.75
621.34	43606.52
621.49	42937.13
621.65	42635.20
621.80	42981.60
621.95	42698.39
622.10	42784.99
622.25	42721.80
622.41	42567.32
622.56	42698.39
622.71	43126.71
622.86	42960.53
623.01	42913.72
623.16	43208.63
623.32	42623.50
623.47	43330.34
623.62	42937.13
623.77	42660.94
623.92	43016.71
624.07	42731.16
624.23	42693.71
624.38	42796.70
624.53	42731.16
624.68	42478.38
624.83	42602.43
624.98	42761.59
625.13	42174.11
625.29	42075.81
625.44	42274.76
625.59	41738.77
625.74	42305.18
625.89	42033.68
626.04	42033.68
626.19	42029.00
626.34	42328.59
626.49	42440.93
626.65	42487.74
626.80	42384.76
626.95	42096.88
627.10	42036.02
627.25	42064.11
627.40	42014.96
627.55	41682.60
627.70	41755.16
627.85	41593.66
628.00	41691.96
628.15	41418.12
628.30	41406.42
628.45	41921.34
628.60	41691.96
628.76	41839.42
628.91	42157.73
629.06	41841.76
629.21	41827.71
629.36	41366.63
629.51	41181.73
629.66	41624.09
629.81	41092.79
629.96	41846.44
630.11	41727.07
630.26	41893.25
630.41	41593.66
630.56	41219.17
630.71	41214.49
630.86	41661.54
631.01	41123.21
631.16	41263.64
631.31	41141.94
631.46	41134.92
631.61	41626.43
631.76	41113.85
631.91	41230.88
632.06	41399.40
632.21	41972.83
632.36	41177.04
632.51	40992.14
632.66	41116.19
632.81	40425.73
632.96	40884.48
633.10	41034.27
633.25	41038.95
633.40	41029.59
633.55	40793.20
633.70	40706.60
633.85	40549.78
634.00	40512.33
634.15	40718.30
634.30	40849.37
634.45	40540.42
634.60	40725.32
634.75	40491.27
634.90	40666.81
635.05	40474.88
635.19	40467.86
635.34	40762.77
635.49	40788.52
635.64	40704.26
635.79	40252.53
635.94	40418.71
636.09	40456.16
636.24	40381.26
636.39	40105.08
636.53	40306.37
636.68	40500.63
636.83	40442.12
636.98	39974.01
637.13	40203.38
637.28	40385.94
637.43	40332.11
637.57	40629.36
637.72	39819.53
637.87	40236.15
638.02	40032.52
638.17	40311.05
638.32	40346.15
638.46	40004.44
638.61	40470.20
638.76	39662.72
638.91	40360.20
639.06	39915.50
639.20	40098.06
639.35	39889.75
639.50	39990.39
639.65	40032.52
639.80	40044.23
639.94	39786.77
640.09	39688.46
640.24	39707.19
640.39	39466.11
640.54	39686.12
640.68	39622.93
640.83	39798.47
640.98	39718.89
641.13	39351.43
641.27	39913.16
641.42	39536.33
641.57	39707.19
641.72	40116.78
641.86	39463.77
642.01	39152.48
642.16	39210.99
642.31	39541.01
642.45	39409.94
642.60	39028.43
642.75	39117.37
642.90	39899.11
643.04	39337.38
643.19	39220.36
643.34	39276.53
643.48	38866.94
643.63	38916.09
643.78	38780.34
643.93	38642.24
644.07	38939.49
644.22	38892.68
644.37	38572.03
644.51	39042.48
644.66	39047.16
644.81	39288.23
644.95	38925.45
645.10	39164.18
645.25	39168.87
645.39	38831.83
645.54	39112.69
645.69	38930.13
645.83	38660.97
645.98	38424.57
646.13	38955.88
646.27	38923.11
646.42	38717.14
646.57	38689.06
646.71	38974.60
646.86	38916.09
647.00	38986.30
647.15	38682.03
647.30	38682.03
647.44	38731.18
647.59	38660.97
647.74	38258.40
647.88	38717.14
648.03	38670.33
648.17	39019.07
648.32	38127.33
648.47	38305.21
648.61	38003.28
648.76	38391.81
648.90	38719.48
649.05	38162.43
649.20	38230.31
649.34	37977.53
649.49	38052.43
649.63	38117.96
649.78	38057.11
649.92	38078.18
650.07	38845.87
650.21	38026.68
650.36	38038.39
650.51	38061.79
650.65	38471.39
650.80	38328.61
650.94	38059.45
651.09	38007.96
651.23	38141.37
651.38	37785.61
651.52	38267.76
651.67	37944.76
651.81	37546.87
651.96	37989.24
652.10	37530.49
652.25	38005.62
652.39	37668.58
652.54	37909.66
652.68	37551.56
652.83	38000.94
652.97	37380.70
653.12	37240.26
653.26	37607.73
653.41	37984.55
653.55	36959.40
653.70	37443.89
653.84	37759.86
653.99	37357.29
654.13	37691.99
654.27	37270.69
654.42	37530.49
654.56	37406.44
654.71	37092.81
654.85	37425.17
655.00	37809.01
655.14	37544.53
655.29	37116.22
655.43	37036.64
655.57	37003.87
655.72	36479.59
655.86	36699.60
656.01	36870.46
656.15	36730.03
656.30	36957.06
656.44	36638.75
656.58	36542.78
656.73	37385.38
656.87	36671.51
657.01	36886.84
657.16	36863.44
657.30	36617.68
657.45	36376.61
657.59	36472.57
657.73	36671.51
657.88	36687.90
658.02	36746.41
658.16	37074.09
658.31	37090.47
658.45	36683.22
658.60	36739.39
658.74	36500.65
658.88	36563.85
659.03	36229.15
659.17	36339.16
659.31	36500.65
659.46	36318.09
659.60	36353.20
659.74	36048.93
659.89	35934.24
660.03	36292.35
660.17	36210.43
660.32	35674.45
660.46	35875.73
660.60	35835.94
660.74	35950.63
660.89	36151.91
661.03	36034.89
661.17	35658.06
661.32	35793.81
661.46	35571.46
661.60	35730.62
661.74	35447.41
661.89	35868.71
662.03	35672.10
662.17	35585.50
662.31	35566.78
662.46	35864.03
662.60	35564.44
662.74	35398.26
662.88	35145.48
663.03	35171.23
663.17	35136.12
663.31	34969.94
663.45	34976.97
663.60	35234.42
663.74	34965.26
663.88	34866.96
664.02	34934.84
664.17	34927.81
664.31	34939.52
664.45	34733.55
664.59	34565.03
664.73	34450.35
664.88	34494.82
665.02	34604.82
665.16	34527.58
665.30	34539.29
665.44	34246.72
665.59	34080.54
665.73	33982.24
665.87	33919.04
666.01	34169.48
666.15	33888.62
666.29	34267.78
666.44	33816.06
666.58	33762.23
666.72	33762.23
666.86	34555.67
667.00	34195.23
667.14	33703.71
667.28	33408.81
667.43	33441.57
667.57	33677.97
667.71	33518.81
667.85	33408.81
667.99	33390.08
668.13	33474.34
668.27	33757.55
668.41	33659.24
668.56	33706.05
668.70	33425.19
668.84	32671.54
668.98	33069.43
669.12	32818.99
669.26	33151.35
669.40	32711.33
669.54	32723.03
669.68	32683.24
669.82	32713.67
669.96	32561.53
670.10	32818.99
670.25	32772.18
670.39	32524.08
670.53	32067.68
670.67	32716.01
670.81	32811.97
670.95	32299.39
671.09	32369.61
671.23	32165.98
671.37	31957.67
671.51	32182.37
671.65	31924.91
671.79	32044.27
671.93	31632.34
672.07	31978.74
672.21	31662.77
672.35	31538.72
672.49	31751.71
672.63	31723.62
672.77	31571.49
672.91	31463.82
673.05	31470.84
673.19	31573.83
673.33	31145.51
673.47	31285.94
673.61	31208.70
673.75	30801.45
673.89	31082.31
674.03	30920.82
674.17	30878.69
674.31	31119.76
674.45	30761.66
674.59	30941.88
674.73	30883.37
674.87	30338.02
675.01	30618.89
675.15	30646.97
675.29	30628.25
675.43	30256.11
675.56	30080.56
675.70	30192.91
675.84	29993.97
675.98	29207.55
676.12	29729.48
676.26	30232.70
676.40	29823.11
676.54	29507.13
676.68	29816.08
676.82	29170.10
676.96	29577.35
677.10	29401.81
677.23	29366.70
677.37	29497.77
677.51	29254.36
677.65	29074.13
677.79	28407.08
677.93	28842.42
678.07	29015.62
678.21	28741.78
678.34	28325.16
678.48	28430.49
678.62	28180.05
678.76	27871.10
678.90	27903.87
679.04	28158.99
679.18	28060.68
679.31	27679.18
679.45	27784.50
679.59	27407.67
679.73	27461.51
679.87	27482.57
680.00	27868.76
680.14	27557.47
680.28	27175.96
680.42	27442.78
680.56	27604.28
680.70	27033.19
680.83	27339.80
680.97	27194.68
681.11	27042.55
681.25	26787.43
681.39	26845.94
681.52	26799.13
681.66	26466.78
681.80	26405.92
681.94	26363.79
682.07	26567.42
682.21	26192.94
682.35	26417.63
682.49	26361.45
682.62	26052.50
682.76	26043.14
682.90	25771.64
683.04	25750.57
683.17	25446.30
683.31	25521.20
683.45	25797.38
683.59	25310.55
683.72	25069.48
683.86	25455.67
684.00	24973.52
684.13	25214.59
684.27	24762.87
684.41	24936.07
684.55	24851.81
684.68	24641.16
684.82	24542.86
684.96	24662.22
685.09	24620.10
685.23	24856.49
685.37	24423.49
685.50	24130.92
685.64	24680.95
685.78	24109.86
685.91	23903.89
686.05	23562.17
686.19	23618.35
686.32	23384.29
686.46	23435.78
686.60	23466.21
686.73	23143.22
686.87	23007.47
687.01	23168.96
687.14	23091.73
687.28	22808.52
687.42	22960.66
687.55	22658.73
687.69	23147.90
687.82	22738.30
687.96	22911.50
688.10	22771.07
688.23	22515.95
688.37	22169.55
688.50	22181.26
688.64	22398.93
688.78	22127.42
688.91	22443.40
689.05	22153.17
689.18	21818.47
689.32	21853.58
689.46	21687.40
689.59	21926.14
689.73	22167.21
689.86	21727.19
690.00	21664.00
690.13	21502.50
690.27	21397.18
690.41	21113.97
690.54	21071.84
690.68	21233.34
690.81	20753.53
690.95	20931.41
691.08	20847.15
691.22	20805.02
691.35	20837.79
691.49	20945.45
691.62	20720.76
691.76	20643.52
691.89	20421.17
692.03	20325.21
692.16	20573.31
692.30	20149.67
692.43	20332.23
692.57	19992.86
692.70	19864.13
692.84	19964.77
692.97	19658.16
693.11	19470.92
693.24	19517.73
693.38	19641.78
693.51	19264.95
693.65	19543.47
693.78	19623.05
693.92	19417.08
694.05	19475.60
694.19	19248.57
694.32	18775.78
694.45	18869.40
694.59	18855.36
694.72	18424.70
694.86	18579.17
694.99	18504.28
695.13	18771.10
695.26	18436.40
695.39	18209.37
695.53	18387.25
695.66	18431.72
695.80	18492.57
695.93	18164.90
696.07	17972.97
696.20	17909.78
696.33	18127.45
696.47	17785.73
696.60	17825.52
696.73	17568.06
696.87	17488.48
697.00	17820.84
697.14	17521.25
697.27	17434.65
697.40	17525.93
697.54	17303.58
697.67	17177.19
697.80	17298.90
697.94	17001.65
698.07	16973.56
698.21	16812.07
698.34	16903.35
698.47	16624.83
698.61	16219.91
698.74	16711.42
698.87	16102.89
699.01	16166.08
699.14	16313.53
699.27	16039.69
699.40	16135.65
699.54	15833.72
699.67	16084.16
699.80	15805.64
699.94	15878.19
700.07	16187.14
700.20	15604.35
700.34	15704.99
700.47	15765.85
700.60	15864.15
700.73	15976.50
700.87	15520.09
701.00	15386.68
701.13	15433.49
701.26	15349.23
701.40	15164.33
701.53	15314.13
701.66	15246.25
701.79	14883.47
701.93	15002.83
702.06	14822.61
702.19	14843.68
702.32	14817.93
702.46	14597.92
702.59	14658.78
702.72	14801.55
702.85	14665.80
702.99	14534.73
703.12	14352.16
703.25	14111.09
703.38	14143.86
703.51	13933.21
703.65	14200.03
703.78	14080.66
703.91	14115.77
704.04	13720.22
704.17	14017.47
704.31	14059.60
704.44	13708.52
704.57	13764.69
704.70	13703.84
704.83	13762.35
704.96	13778.73
705.10	13769.37
705.23	13453.40
>>>>>End Processed Spectral Data<<<<<
