SpectraSuite Data File
++++++++++++++++++++++++++++++++++++
Date: Fri Oct 25 10:47:23 EDT 2013
User: price-jones
Dark Spectrum Present: No
Reference Spectrum Present: No
Number of Sampled Component Spectra: 1
Spectrometers: USB2+H05261
Integration Time (usec): 100000 (USB2+H05261)
Spectra Averaged: 1 (USB2+H05261)
Boxcar Smoothing: 0 (USB2+H05261)
Correct for Electrical Dark: No (USB2+H05261)
Strobe/Lamp Enabled: No (USB2+H05261)
Correct for Detector Non-linearity: No (USB2+H05261)
Correct for Stray Light: No (USB2+H05261)
Number of Pixels in Processed Spectrum: 2048
>>>>>Begin Processed Spectral Data<<<<<
365.73	170.86
365.92	170.86
366.12	170.86
366.32	124.05
366.52	11.70
366.72	81.92
366.91	60.85
367.11	18.72
367.31	7.02
367.51	21.06
367.70	0.00
367.90	37.45
368.10	0.00
368.30	56.17
368.49	11.70
368.69	88.94
368.89	9.36
369.09	84.26
369.28	65.54
369.48	9.36
369.68	86.60
369.87	112.35
370.07	95.96
370.27	133.41
370.47	182.56
370.66	351.08
370.86	421.30
371.06	442.36
371.25	486.83
371.45	397.89
371.65	484.49
371.84	482.15
372.04	423.64
372.24	444.70
372.44	428.32
372.63	486.83
372.83	545.34
373.03	500.87
373.22	507.90
373.42	498.53
373.62	535.98
373.81	559.39
374.01	528.96
374.21	517.26
374.40	592.16
374.60	491.51
374.79	580.45
374.99	550.03
375.19	538.32
375.38	571.09
375.58	566.41
375.78	608.54
375.97	622.58
376.17	657.69
376.37	587.47
376.56	552.37
376.76	582.79
376.95	559.39
377.15	566.41
377.35	620.24
377.54	608.54
377.74	603.86
377.93	594.50
378.13	653.01
378.33	648.33
378.52	568.75
378.72	620.24
378.91	610.88
379.11	615.56
379.31	622.58
379.50	657.69
379.70	683.44
379.89	636.63
380.09	678.76
380.28	624.92
380.48	671.73
380.68	620.24
380.87	699.82
381.07	718.54
381.26	758.33
381.46	723.23
381.65	671.73
381.85	671.73
382.04	681.10
382.24	645.99
382.43	638.97
382.63	664.71
382.83	753.65
383.02	760.67
383.22	685.78
383.41	685.78
383.61	695.14
383.80	777.06
384.00	704.50
384.19	772.38
384.39	777.06
384.58	755.99
384.78	727.91
384.97	727.91
385.17	718.54
385.36	727.91
385.56	709.18
385.75	793.44
385.95	805.14
386.14	866.00
386.34	774.72
386.53	847.27
386.72	774.72
386.92	873.02
387.11	863.66
387.31	863.66
387.50	770.04
387.70	767.70
387.89	842.59
388.09	828.55
388.28	880.04
388.48	887.06
388.67	868.34
388.86	950.26
389.06	840.25
389.25	854.30
389.45	943.24
389.64	919.83
389.84	926.85
390.03	999.41
390.22	954.94
390.42	929.19
390.61	929.19
390.81	926.85
391.00	964.30
391.19	978.34
391.39	861.32
391.58	971.32
391.78	971.32
391.97	990.05
392.16	931.53
392.36	1034.52
392.55	1032.18
392.75	919.83
392.94	889.40
393.13	980.68
393.33	961.96
393.52	1025.15
393.71	1095.37
393.91	1123.46
394.10	983.02
394.29	985.37
394.49	1062.60
394.68	1146.86
394.88	1093.03
395.07	1086.01
395.26	1153.88
395.46	1167.93
395.65	1224.10
395.84	1071.97
396.04	1212.40
396.23	1249.85
396.42	1142.18
396.62	1151.54
396.81	1104.73
397.00	1198.35
397.19	1095.37
397.39	1198.35
397.58	1179.63
397.77	1228.78
397.97	1210.06
398.16	1338.79
398.35	1406.66
398.55	1238.14
398.74	1266.23
398.93	1308.36
399.12	1299.00
399.32	1299.00
399.51	1277.93
399.70	1242.82
399.90	1284.95
400.09	1469.86
400.28	1521.35
400.47	1355.17
400.67	1526.03
400.86	1561.14
401.05	1451.13
401.24	1528.37
401.44	1612.63
401.63	1488.58
401.82	1565.82
402.01	1509.65
402.21	1497.94
402.40	1502.62
402.59	1584.54
402.78	1633.69
402.97	1462.83
403.17	1598.59
403.36	1540.07
403.55	1568.16
403.74	1598.59
403.93	1619.65
404.13	1818.60
404.32	1694.55
404.51	1673.48
404.70	1631.35
404.89	1757.74
405.09	1778.81
405.28	1762.42
405.47	1778.81
405.66	1811.57
405.85	1846.68
406.05	1755.40
406.24	1818.60
406.43	1757.74
406.62	1865.41
406.81	1956.69
407.00	1809.23
407.20	1797.53
407.39	1872.43
407.58	1923.92
407.77	1947.33
407.96	1952.01
408.15	1949.67
408.34	1949.67
408.54	1963.71
408.73	2012.86
408.92	2047.97
409.11	2120.53
409.30	2134.57
409.49	2111.16
409.68	2136.91
409.87	2101.80
410.07	2071.37
410.26	2118.18
410.45	2354.58
410.64	2228.19
410.83	2228.19
411.02	2258.62
411.21	2335.85
411.40	2349.90
411.59	2256.28
411.78	2312.45
411.98	2256.28
412.17	2342.88
412.36	2389.69
412.55	2492.67
412.74	2445.86
412.93	2450.54
413.12	2356.92
413.31	2576.93
413.50	2565.23
413.69	2541.82
413.88	2724.38
414.07	2590.97
414.26	2562.89
414.45	2619.06
414.64	2677.57
414.83	2593.31
415.02	2778.22
415.22	2745.45
415.41	2855.45
415.60	2810.98
415.79	2878.86
415.98	2920.99
416.17	2998.23
416.36	3000.57
416.55	2946.73
416.74	3045.04
416.93	2963.12
417.12	2932.69
417.31	2977.16
417.50	3054.40
417.69	3084.83
417.88	3131.64
418.07	2960.78
418.26	3152.70
418.45	3176.11
418.64	3211.22
418.83	3272.07
419.02	3281.43
419.21	3295.47
419.39	3234.62
419.58	3218.24
419.77	3222.92
419.96	3183.13
420.15	3143.34
420.34	3197.17
420.53	3321.22
420.72	3559.95
420.91	3548.25
421.10	3466.33
421.29	3501.44
421.48	3485.06
421.67	3468.67
421.86	3475.70
422.05	3346.97
422.24	3431.23
422.43	3471.01
422.61	3426.54
422.80	3555.27
422.99	3576.34
423.18	3562.30
423.37	3648.90
423.56	3702.73
423.75	3630.17
423.94	3620.81
424.13	3349.31
424.32	3480.38
424.50	3459.31
424.69	3625.49
424.88	3644.21
425.07	3489.74
425.26	3372.71
425.45	3524.85
425.64	3609.11
425.83	3658.26
426.01	3641.87
426.20	3543.57
426.39	3590.38
426.58	3648.90
426.77	3548.25
426.96	3662.94
427.15	3616.13
427.33	3719.11
427.52	3599.74
427.71	3817.41
427.90	3646.55
428.09	3667.62
428.28	3772.94
428.46	3812.73
428.65	3779.97
428.84	3805.71
429.03	3822.09
429.22	3676.98
429.40	3749.54
429.59	3852.52
429.78	3632.51
429.97	3644.21
430.16	3824.44
430.34	3758.90
430.53	3845.50
430.72	3901.67
430.91	3990.61
431.10	3985.93
431.28	4021.04
431.47	4196.58
431.66	4128.70
431.85	4215.30
432.03	4201.26
432.22	4248.07
432.41	4187.22
432.60	4294.88
432.79	4219.99
432.97	4271.48
433.16	4393.19
433.35	4276.16
433.54	4339.35
433.72	4416.59
433.91	4369.78
434.10	4250.41
434.28	4259.78
434.47	4430.63
434.66	4510.21
434.85	4360.42
435.03	4580.43
435.22	4440.00
435.41	4674.05
435.59	4545.32
435.78	4510.21
435.97	4631.92
436.16	4585.11
436.34	4575.75
436.53	4629.58
436.72	4844.91
436.90	4706.82
437.09	4655.33
437.28	4603.83
437.46	4739.58
437.65	4723.20
437.84	4746.61
438.02	4662.35
438.21	4767.67
438.40	4692.77
438.58	4791.08
438.77	4985.34
438.96	5025.13
439.14	4964.28
439.33	5163.22
439.52	5097.69
439.70	5074.28
439.89	5184.29
440.08	5097.69
440.26	5315.36
440.45	5083.64
440.63	5376.21
440.82	5287.27
441.01	5334.08
441.19	5572.82
441.38	5638.35
441.57	5603.24
441.75	5727.29
441.94	5727.29
442.12	5668.78
442.31	5797.51
442.50	5584.52
442.68	5774.10
442.87	5771.76
443.05	5746.02
443.24	5923.90
443.43	5804.53
443.61	5900.49
443.80	5860.70
443.98	5682.82
444.17	5661.76
444.35	5753.04
444.54	5809.21
444.73	5764.74
444.91	5818.57
445.10	5916.87
445.28	5799.85
445.47	5806.87
445.65	5895.81
445.84	5823.25
446.02	5872.40
446.21	6017.52
446.39	6019.86
446.58	5935.60
446.77	5863.04
446.95	5823.25
447.14	5966.03
447.32	6160.29
447.51	6038.58
447.69	6171.99
447.88	6038.58
448.06	5994.11
448.25	6066.67
448.43	6134.54
448.62	5954.32
448.80	6218.80
448.99	6150.93
449.17	6050.28
449.36	6197.74
449.54	6193.06
449.73	6352.21
449.91	6448.18
450.10	6478.60
450.28	6523.07
450.46	6565.20
450.65	6614.35
450.83	6450.52
451.02	6518.39
451.20	6502.01
451.39	6565.20
451.57	6361.58
451.76	6450.52
451.94	6523.07
452.13	6527.75
452.31	6544.14
452.49	6406.05
452.68	6462.22
452.86	6520.73
453.05	6640.10
453.23	6736.06
453.42	6785.21
453.60	6590.95
453.78	6820.32
453.97	6841.39
454.15	6707.98
454.34	6647.12
454.52	7047.35
454.70	6766.49
454.89	7061.40
455.07	6906.92
455.26	6752.45
455.44	6974.80
455.62	7148.00
455.81	6916.28
455.99	7075.44
456.17	7042.67
456.36	6944.37
456.54	7140.97
456.73	7187.79
456.91	7475.67
457.09	7398.43
457.28	7470.99
457.46	7248.64
457.64	7346.94
457.83	7253.32
458.01	7353.96
458.19	7658.23
458.38	7485.03
458.56	7440.56
458.74	7293.11
458.93	7503.76
459.11	7618.44
459.29	7550.57
459.48	7609.08
459.66	7513.12
459.84	7756.54
460.03	7747.17
460.21	7597.38
460.39	7482.69
460.57	7531.84
460.76	7791.64
460.94	7826.75
461.12	7758.88
461.31	7812.71
461.49	7831.43
461.67	7861.86
461.85	8198.90
462.04	7918.03
462.22	8617.85
462.40	8140.38
462.59	7943.78
462.77	8042.08
462.95	8063.15
463.13	7967.18
463.32	8037.40
463.50	8325.29
463.68	8126.34
463.86	8152.09
464.05	7953.14
464.23	7995.27
464.41	8446.99
464.59	8138.04
464.78	8409.54
464.96	8393.16
465.14	8243.37
465.32	8269.11
465.50	8444.65
465.69	8325.29
465.87	8379.12
466.05	8442.31
466.23	8252.73
466.41	8514.87
466.60	8458.70
466.78	8620.19
466.96	8468.06
467.14	8355.71
467.32	8446.99
467.51	8610.83
467.69	8610.83
467.87	8669.34
468.05	8688.07
468.23	8678.71
468.41	8610.83
468.60	8674.03
468.78	8879.99
468.96	8641.26
469.14	8793.39
469.32	8847.22
469.50	8795.73
469.69	8908.08
469.87	8954.89
470.05	8975.95
470.23	8964.25
470.41	9036.81
470.59	9151.49
470.77	9071.92
470.95	8964.25
471.14	9160.86
471.32	9062.55
471.50	9261.50
471.68	9270.86
471.86	9359.80
472.04	9343.42
472.22	9647.69
472.40	9268.52
472.58	9385.55
472.77	9476.83
472.95	9844.29
473.13	10003.45
473.31	9591.52
473.49	9680.46
473.67	9734.29
473.85	9980.04
474.03	9837.27
474.21	9848.97
474.39	9961.32
474.57	10059.62
474.75	10326.44
474.93	10078.35
475.12	10251.55
475.30	10429.43
475.48	10080.69
475.66	10375.59
475.84	10272.61
476.02	10530.07
476.20	10469.22
476.38	10658.80
476.56	10890.51
476.74	10895.19
476.92	10822.64
477.10	10778.17
477.28	11117.54
477.46	11145.63
477.64	11077.76
477.82	11328.19
478.00	11332.87
478.18	11335.21
478.36	11501.39
478.54	11679.27
478.72	11822.05
478.90	11819.71
479.08	11810.34
479.26	11948.43
479.44	11948.43
479.62	11850.13
479.80	12030.35
479.98	12231.64
480.16	12664.64
480.34	12423.56
480.52	12692.73
480.70	12393.14
480.88	12334.62
481.06	12807.41
481.24	12898.69
481.41	13001.68
481.59	13399.57
481.77	13378.50
481.95	13135.09
482.13	13242.75
482.31	13336.37
482.49	13788.10
482.67	13575.11
482.85	13694.47
483.03	14064.28
483.21	13888.74
483.39	14225.78
483.57	14045.55
483.74	14118.11
483.92	14553.45
484.10	14487.92
484.28	14635.37
484.46	14813.25
484.64	15061.35
484.82	14574.52
485.00	14843.68
485.18	15133.90
485.35	15321.15
485.53	15033.26
485.71	15094.11
485.89	15358.60
486.07	15272.00
486.25	15611.37
486.43	15576.27
486.61	15669.89
486.78	16114.59
486.96	16184.80
487.14	16163.74
487.32	16395.45
487.50	16592.06
487.68	16606.10
487.85	16861.22
488.03	17032.08
488.21	16929.09
488.39	17481.46
488.57	17144.42
488.75	17167.83
488.92	17598.49
489.10	18033.83
489.28	18066.60
489.46	18136.81
489.64	18267.88
489.81	18511.30
489.99	18347.46
490.17	18658.75
490.35	19080.05
490.53	19016.85
490.70	18920.89
490.88	18829.61
491.06	19023.87
491.24	19419.42
491.41	19351.55
491.59	19461.55
491.77	19211.12
491.95	19398.36
492.13	19803.27
492.30	19932.00
492.48	20072.43
492.66	20196.48
492.84	19967.11
493.01	20416.49
493.19	20367.34
493.37	20861.19
493.54	20421.17
493.72	21039.08
493.90	20807.36
494.08	21277.81
494.25	21656.98
494.43	21434.63
494.61	21680.38
494.79	21984.65
494.96	21504.84
495.14	21486.12
495.32	21865.28
495.49	22192.96
495.67	22129.77
495.85	22106.36
496.02	22340.41
496.20	22532.34
496.38	22508.93
496.55	22845.97
496.73	23101.09
496.91	22869.37
497.09	23234.50
497.26	23124.49
497.44	23260.24
497.62	23377.27
497.79	23590.26
497.97	23506.00
498.14	23494.30
498.32	23683.88
498.50	23688.56
498.67	24058.37
498.85	24201.14
499.03	24088.79
499.20	24318.17
499.38	24589.67
499.56	24552.22
499.73	24411.79
499.91	24877.55
500.08	24720.74
500.26	24690.31
500.44	24950.11
500.61	24713.72
500.79	24802.66
500.97	25074.16
501.14	25338.64
501.32	25497.80
501.49	25076.50
501.67	25413.54
501.84	25610.14
502.02	25701.42
502.20	25631.21
502.37	25839.51
502.55	26239.75
502.72	25975.27
502.90	26246.77
503.07	25593.76
503.25	26483.16
503.43	26001.01
503.60	26572.10
503.78	26412.95
503.95	26394.22
504.13	26235.06
504.30	26888.07
504.48	26845.94
504.65	26597.85
504.83	26806.16
505.01	27096.38
505.18	27168.94
505.36	27508.32
505.53	27321.07
505.71	27498.95
505.88	27412.35
506.06	26986.38
506.23	27814.93
506.41	27857.06
506.58	27974.08
506.76	27669.81
506.93	27690.88
507.11	28039.62
507.28	28294.74
507.46	28341.55
507.63	28224.52
507.81	28435.17
507.98	28004.51
508.16	28252.61
508.33	28690.29
508.50	28622.41
508.68	29043.71
508.85	29378.40
509.03	28889.23
509.20	28751.14
509.38	29633.52
509.55	29322.23
509.73	29521.18
509.90	29619.48
510.08	29266.06
510.25	29436.92
510.42	29771.61
510.60	29935.45
510.77	29776.30
510.95	30050.14
511.12	29420.53
511.30	29933.11
511.47	30291.21
511.64	30513.56
511.82	29942.47
511.99	30185.89
512.17	30010.35
512.34	30092.27
512.51	30651.66
512.69	30438.67
512.86	30656.34
513.04	30916.14
513.21	30838.90
513.38	30522.93
513.56	30895.07
513.73	30885.71
513.90	30984.01
514.08	31047.21
514.25	30969.97
514.43	31063.59
514.60	31328.07
514.77	31159.55
514.95	31597.23
515.12	31456.80
515.29	31798.52
515.47	31868.73
515.64	31950.65
515.81	31826.60
515.99	31655.75
516.16	31763.41
516.33	31702.56
516.51	31931.93
516.68	31538.72
516.85	32004.49
517.03	32252.58
517.20	32301.73
517.37	32086.40
517.54	32552.17
517.72	32545.15
517.89	31964.70
518.06	32547.49
518.24	32287.69
518.41	32563.87
518.58	32816.65
518.75	32512.38
518.93	33280.08
519.10	32900.91
519.27	32683.24
519.45	32933.68
519.62	33654.56
519.79	33352.63
519.96	33570.30
520.14	33525.83
520.31	33390.08
520.48	33666.27
520.65	33537.54
520.83	33790.31
521.00	33694.35
521.17	33670.95
521.34	34174.16
521.52	34354.38
521.69	34227.99
521.86	34330.98
522.03	34054.79
522.20	33841.81
522.38	34696.10
522.55	34387.15
522.72	34471.41
522.89	34724.19
523.07	34710.14
523.24	34419.92
523.41	34588.44
523.58	34562.69
523.75	35192.30
523.92	35267.19
524.10	35044.84
524.27	35306.98
524.44	35648.70
524.61	35110.38
524.78	35660.40
524.96	35241.45
525.13	35725.94
525.30	35615.93
525.47	35742.32
525.64	35622.95
525.81	35620.61
525.98	35470.82
526.16	35634.66
526.33	35646.36
526.50	35686.15
526.67	35466.14
526.84	35611.25
527.01	35751.68
527.18	35866.37
527.36	36231.49
527.53	36467.89
527.70	36456.18
527.87	36313.41
528.04	36133.19
528.21	36060.63
528.38	36240.86
528.55	36629.38
528.72	36685.56
528.89	37233.24
529.07	36699.60
529.24	36741.73
529.41	36933.65
529.58	36975.78
529.75	36999.19
529.92	37179.41
530.09	37074.09
530.26	37116.22
530.43	37163.03
530.60	36659.81
530.77	37055.36
530.94	37338.57
531.11	37188.77
531.28	37647.52
531.46	37647.52
531.63	37205.16
531.80	37432.19
531.97	37378.36
532.14	37493.04
532.31	37556.24
532.48	37425.17
532.65	37745.82
532.82	38071.15
532.99	37996.26
533.16	37699.01
533.33	37766.88
533.50	38045.41
533.67	38373.08
533.84	38085.20
534.01	38363.72
534.18	38588.41
534.35	38333.29
534.52	38483.09
534.69	38192.86
534.86	38658.63
535.03	38295.85
535.20	38391.81
535.37	38962.90
535.54	38548.62
535.71	38525.22
535.88	38913.75
536.05	38829.49
536.22	38916.09
536.38	38342.66
536.55	38667.99
536.72	38885.66
536.89	39072.90
537.06	38756.93
537.23	38796.72
537.40	38944.17
537.57	39379.51
537.74	38974.60
537.91	39611.23
538.08	39480.16
538.25	39133.76
538.42	39089.29
538.59	39370.15
538.75	39210.99
538.92	39276.53
539.09	39299.94
539.26	39306.96
539.43	39608.89
539.60	39662.72
539.77	39449.73
539.94	40093.38
540.11	39730.59
540.28	39257.81
540.44	39475.48
540.61	39274.19
540.78	39566.76
540.95	39428.66
541.12	39622.93
541.29	39618.25
541.46	39992.73
541.62	40294.66
541.79	40037.20
541.96	39763.36
542.13	39667.40
542.30	40161.25
542.47	40245.51
542.63	40226.79
542.80	40629.36
542.97	40924.27
543.14	40683.19
543.31	40800.22
543.48	40718.30
543.64	41043.63
543.81	40952.35
543.98	40891.50
544.15	40500.63
544.32	41048.32
544.48	41022.57
544.65	40952.35
544.82	41050.66
544.99	40807.24
545.16	40872.78
545.32	40554.46
545.49	41359.61
545.66	41123.21
545.83	41296.41
546.00	41237.90
546.16	41797.29
546.33	41172.36
546.50	41291.73
546.67	41172.36
546.83	41179.39
547.00	41502.38
547.17	41495.36
547.34	41432.16
547.50	41642.81
547.67	42202.20
547.84	41830.05
548.00	41738.77
548.17	42096.88
548.34	41717.71
548.51	41998.57
548.67	41727.07
548.84	42071.13
549.01	41876.86
549.18	41823.03
549.34	42092.19
549.51	42637.54
549.68	42047.72
549.84	42398.80
550.01	42197.52
550.18	41914.31
550.34	42373.06
550.51	42092.19
550.68	41883.89
550.84	42181.13
551.01	42253.69
551.18	42197.52
551.34	42609.45
551.51	41853.46
551.68	42330.93
551.84	42515.83
552.01	42181.13
552.18	42611.79
552.34	42192.84
552.51	42557.96
552.68	42272.42
552.84	42831.80
553.01	43122.03
553.18	42316.89
553.34	42997.98
553.51	42770.95
553.67	42834.14
553.84	43049.47
554.01	43028.41
554.17	42487.74
554.34	42801.38
554.51	43070.54
554.67	43030.75
554.84	43199.27
555.00	43093.94
555.17	43136.07
555.33	43459.07
555.50	43140.75
555.67	42747.54
555.83	43215.65
556.00	42913.72
556.16	43473.11
556.33	43335.02
556.50	43447.36
556.66	43077.56
556.83	43103.31
556.99	43353.74
557.16	43367.79
557.32	43606.52
557.49	43510.56
557.65	43056.50
557.82	42997.98
557.98	43288.21
558.15	43332.68
558.32	43768.02
558.48	43461.41
558.65	43173.52
558.81	43456.73
558.98	43564.39
559.14	43615.88
559.31	43571.41
559.47	43852.28
559.64	43679.08
559.80	43690.78
559.97	43356.08
560.13	43505.88
560.30	44119.10
560.46	43758.66
560.63	43718.87
560.79	44121.44
560.96	43952.92
561.12	43683.76
561.29	43744.61
561.45	43796.10
561.61	44205.70
561.78	43735.25
561.94	43498.86
562.11	43615.88
562.27	44142.50
562.44	44409.32
562.60	44329.75
562.77	44107.40
562.93	43875.68
563.10	44198.68
563.26	43936.54
563.42	44116.76
563.59	43510.56
563.75	43730.57
563.92	44575.50
564.08	44449.11
564.24	44573.16
564.41	43845.26
564.57	44126.12
564.74	44390.60
564.90	44151.87
565.07	44051.22
565.23	44126.12
565.39	44051.22
565.56	44311.02
565.72	44264.21
565.88	44301.66
566.05	44264.21
566.21	44243.15
566.38	43835.89
566.54	44189.31
566.70	44374.22
566.87	44678.49
567.03	44533.37
567.19	44505.29
567.36	44479.54
567.52	44210.38
567.68	44168.25
567.85	44296.98
568.01	44474.86
568.17	44327.41
568.34	44350.81
568.50	44718.28
568.66	44477.20
568.83	44507.63
568.99	44512.31
569.15	44341.45
569.32	44285.28
569.48	44217.40
569.64	44371.88
569.81	44669.12
569.97	44486.56
570.13	44018.46
570.30	44776.79
570.46	44149.53
570.62	44559.12
570.78	44418.69
570.95	44446.77
571.11	44877.43
571.27	44519.33
571.43	44444.43
571.60	44320.38
571.76	44531.03
571.92	44421.03
572.09	44533.37
572.25	44542.74
572.41	44584.86
572.57	44493.58
572.74	45347.88
572.90	44739.34
573.06	44898.50
573.22	44615.29
573.38	44563.80
573.55	43950.58
573.71	45148.93
573.87	44603.59
574.03	44456.14
574.20	44332.09
574.36	44453.79
574.52	45043.61
574.68	44886.79
574.84	45041.27
575.01	44514.65
575.17	44563.80
575.33	44568.48
575.49	44451.45
575.65	45038.93
575.82	44910.20
575.98	44947.65
576.14	45160.64
576.30	44751.04
576.46	44264.21
576.62	44701.89
576.79	44554.44
576.95	44444.43
577.11	44914.88
577.27	44722.96
577.43	44898.50
577.59	44498.26
577.75	44800.19
577.92	44744.02
578.08	44729.98
578.24	44102.71
578.40	44992.12
578.56	44776.79
578.72	44776.79
578.88	44774.45
579.04	44945.31
579.21	44573.16
579.37	44856.37
579.53	44704.23
579.69	44399.96
579.85	44882.11
580.01	44823.60
580.17	44776.79
580.33	45174.68
580.49	45090.42
580.65	44910.20
580.82	45102.12
580.98	44931.26
581.14	44847.00
581.30	44741.68
581.46	45193.40
581.62	44928.92
581.78	45193.40
581.94	45015.52
582.10	44734.66
582.26	44910.20
582.42	44718.28
582.58	44765.09
582.74	44439.75
582.90	44732.32
583.06	45347.88
583.22	44992.12
583.38	44879.77
583.54	44914.88
583.70	44741.68
583.86	44973.39
584.02	44657.42
584.18	44495.92
584.34	44872.75
584.50	44839.98
584.66	44844.66
584.82	44481.88
584.98	45071.70
585.14	45324.47
585.30	44678.49
585.46	44891.48
585.62	44643.38
585.78	44980.42
585.94	44748.70
586.10	44371.88
586.26	45064.67
586.42	44992.12
586.58	44662.10
586.74	44907.86
586.90	44669.12
587.06	44722.96
587.22	45043.61
587.38	44861.05
587.54	45177.02
587.70	45078.72
587.86	44879.77
588.02	44987.44
588.18	45074.04
588.34	45219.15
588.49	44839.98
588.65	44472.52
588.81	44650.40
588.97	44884.45
589.13	44531.03
589.29	44779.13
589.45	44896.16
589.61	44905.52
589.77	45036.59
589.93	44966.37
590.08	45298.73
590.24	45413.41
590.40	44856.37
590.56	45291.71
590.72	45228.51
590.88	44961.69
591.04	44952.33
591.20	45518.74
591.35	45179.36
591.51	45205.11
591.67	45153.62
591.83	45247.24
591.99	44865.73
592.15	45102.12
592.31	44753.38
592.46	45092.76
592.62	45027.23
592.78	45366.60
592.94	45064.67
593.10	45034.25
593.26	45382.99
593.41	45258.94
593.57	45092.76
593.73	45052.97
593.89	45209.79
594.05	44793.17
594.20	45207.45
594.36	45333.84
594.52	45181.70
594.68	45287.03
594.84	44690.19
594.99	45628.74
595.15	44947.65
595.31	45415.76
595.47	45586.61
595.62	45221.49
595.78	45326.81
595.94	45270.64
596.10	45542.14
596.25	45333.84
596.41	45647.47
596.57	45111.49
596.73	45418.10
596.88	44926.58
597.04	45219.15
597.20	45249.58
597.36	45209.79
597.51	45174.68
597.67	45022.54
597.83	45687.26
597.99	45588.95
598.14	45390.01
598.30	45188.72
598.46	44828.28
598.61	45151.27
598.77	45048.29
598.93	45024.89
599.09	45282.34
599.24	45722.37
599.40	45184.04
599.56	45572.57
599.71	45364.26
599.87	45797.26
600.03	45247.24
600.18	45481.29
600.34	45055.31
600.50	45230.85
600.65	45375.97
600.81	45731.73
600.97	45628.74
601.12	45677.90
601.28	45844.07
601.44	45507.04
601.59	45200.43
601.75	45375.97
601.91	45059.99
602.06	44861.05
602.22	45411.07
602.37	45071.70
602.53	45425.12
602.69	45483.63
602.84	45219.15
603.00	45481.29
603.16	45277.66
603.31	45179.36
603.47	45450.86
603.62	44996.80
603.78	45326.81
603.94	45221.49
604.09	45511.72
604.25	45745.77
604.40	45532.78
604.56	45045.95
604.71	45209.79
604.87	45177.02
605.03	45301.07
605.18	45038.93
605.34	45043.61
605.49	45038.93
605.65	45034.25
605.80	45294.05
605.96	44898.50
606.12	45223.83
606.27	45525.76
606.43	45385.33
606.58	44992.12
606.74	45045.95
606.89	45352.56
607.05	45270.64
607.20	45287.03
607.36	44940.63
607.51	45083.40
607.67	45436.82
607.82	44744.02
607.98	44875.09
608.13	45015.52
608.29	44889.13
608.44	44849.35
608.60	44797.85
608.75	44797.85
608.91	44545.08
609.06	44938.29
609.22	45450.86
609.37	44844.66
609.53	44931.26
609.68	44863.39
609.84	44926.58
609.99	44786.15
610.15	44837.64
610.30	44732.32
610.46	44718.28
610.61	45085.74
610.76	45139.57
610.92	44905.52
611.07	44612.95
611.23	44680.83
611.38	44634.02
611.54	44348.47
611.69	44545.08
611.84	44385.92
612.00	44722.96
612.15	44687.85
612.31	44357.83
612.46	44568.48
612.62	44999.14
612.77	44172.93
612.92	44811.90
613.08	44566.14
613.23	44339.11
613.39	43959.94
613.54	44245.49
613.69	44493.58
613.85	44254.85
614.00	44390.60
614.15	44367.20
614.31	44758.06
614.46	45071.70
614.62	44491.24
614.77	44395.28
614.92	44217.40
615.08	44294.64
615.23	44229.10
615.38	43931.86
615.54	43796.10
615.69	43805.47
615.84	43903.77
616.00	43784.40
616.15	43910.79
616.30	43957.60
616.46	43894.41
616.61	44074.63
616.76	43571.41
616.92	43590.14
617.07	43653.33
617.22	43936.54
617.37	43763.34
617.53	43758.66
617.68	44409.32
617.83	43882.70
617.99	44186.97
618.14	43702.48
618.29	43700.14
618.45	43852.28
618.60	43723.55
618.75	44058.24
618.90	44156.55
619.06	43957.60
619.21	44091.01
619.36	43459.07
619.51	43768.02
619.67	43796.10
619.82	43536.30
619.97	43957.60
620.12	43255.44
620.28	42717.12
620.43	43196.93
620.58	43271.82
620.73	43496.52
620.89	43430.98
621.04	43372.47
621.19	43653.33
621.34	43260.12
621.49	43302.25
621.65	43274.16
621.80	43377.15
621.95	42918.40
622.10	43421.62
622.25	43346.72
622.41	42962.87
622.56	43002.66
622.71	43239.06
622.86	42536.90
623.01	43145.44
623.16	43068.20
623.32	43374.81
623.47	43257.78
623.62	43037.77
623.77	42995.64
623.92	42920.74
624.07	42712.44
624.23	43168.84
624.38	42588.39
624.53	42799.04
624.68	43056.50
624.83	42728.82
624.98	42546.26
625.13	42717.12
625.29	42726.48
625.44	42983.94
625.59	42609.45
625.74	42148.37
625.89	42274.76
626.04	42178.79
626.19	42445.62
626.34	42555.62
626.49	42824.78
626.65	42808.40
626.80	42579.03
626.95	42454.98
627.10	42260.71
627.25	42087.51
627.40	42312.20
627.55	42263.05
627.70	41724.73
627.85	41783.24
628.00	41869.84
628.15	42742.86
628.30	42019.64
628.45	42639.88
628.60	42195.18
628.76	42450.30
628.91	42167.09
629.06	42141.35
629.21	42117.94
629.36	41401.74
629.51	42017.30
629.66	41928.36
629.81	41778.56
629.96	41387.69
630.11	41642.81
630.26	41858.14
630.41	41694.30
630.56	41738.77
630.71	41656.85
630.86	42024.32
631.01	41682.60
631.16	41406.42
631.31	41254.28
631.46	41010.87
631.61	41872.18
631.76	41628.77
631.91	41481.31
632.06	41743.45
632.21	41364.29
632.36	41734.09
632.51	41155.98
632.66	40987.46
632.81	40903.20
632.96	41294.07
633.10	41104.49
633.25	41167.68
633.40	40907.88
633.55	41261.30
633.70	40982.78
633.85	40896.18
634.00	41020.23
634.15	41167.68
634.30	41207.47
634.45	40924.27
634.60	41048.32
634.75	40835.33
634.90	40861.07
635.05	40886.82
635.19	41137.26
635.34	41249.60
635.49	41521.10
635.64	40755.75
635.79	40374.24
635.94	40552.12
636.09	40793.20
636.24	40699.58
636.39	40030.18
636.53	40091.04
636.68	40727.66
636.83	40332.11
636.98	40704.26
637.13	40058.27
637.28	40669.15
637.43	40968.74
637.57	40926.61
637.72	40203.38
637.87	40629.36
638.02	40643.40
638.17	40041.88
638.32	40273.60
638.46	39913.16
638.61	39826.56
638.76	40222.11
638.91	40126.14
639.06	40399.99
639.20	40409.35
639.35	40327.43
639.50	40149.55
639.65	40252.53
639.80	40058.27
639.94	40023.16
640.09	40282.96
640.24	39622.93
640.39	39758.68
640.54	39732.93
640.68	39831.24
640.83	40048.91
640.98	39477.82
641.13	39805.49
641.27	39831.24
641.42	39761.02
641.57	39711.87
641.72	39878.05
641.86	39704.85
642.01	39531.65
642.16	39728.25
642.31	39210.99
642.45	39875.71
642.60	39189.93
642.75	38857.57
642.90	39393.56
643.04	39510.58
643.19	39421.64
643.34	39634.63
643.48	39590.16
643.63	39756.34
643.78	39068.22
643.93	38969.92
644.07	39412.28
644.22	39161.84
644.37	39100.99
644.51	38873.96
644.66	39435.69
644.81	39817.19
644.95	39562.08
645.10	39569.10
645.25	39669.74
645.39	39632.29
645.54	39342.06
645.69	39288.23
645.83	38763.95
645.98	38873.96
646.13	38862.26
646.27	39405.26
646.42	38822.47
646.57	39105.67
646.71	39035.45
646.86	38962.90
647.00	39267.17
647.15	39321.00
647.30	39082.27
647.44	39175.89
647.59	38792.04
647.74	38586.07
647.88	39054.18
648.03	38801.40
648.17	38644.59
648.32	38663.31
648.47	38663.31
648.61	38546.28
648.76	38583.73
648.90	38403.51
649.05	38492.45
649.20	38618.84
649.34	39014.39
649.49	38352.02
649.63	38923.11
649.78	38569.69
649.92	38525.22
650.07	39000.35
650.21	38347.34
650.36	38000.94
650.51	38529.90
650.65	38417.55
650.80	38396.49
650.94	38623.52
651.09	38789.70
651.23	38476.07
651.38	38237.33
651.52	38387.13
651.67	38534.58
651.81	38185.84
651.96	37984.55
652.10	38225.63
652.25	37837.10
652.39	37617.09
652.54	38017.32
652.68	38281.80
652.83	38148.39
652.97	37944.76
653.12	38007.96
653.26	37865.19
653.41	38209.25
653.55	37907.32
653.70	37565.60
653.84	38176.48
653.99	37736.46
654.13	37858.17
654.27	38363.72
654.42	37886.25
654.56	37574.96
654.71	37652.20
654.85	37394.74
655.00	37734.12
655.14	37523.47
655.29	37371.33
655.43	37514.11
655.57	37273.03
655.72	36996.85
655.86	37333.89
656.01	37008.55
656.15	37511.77
656.30	37132.60
656.44	37268.35
656.58	36861.10
656.73	36952.38
656.87	36917.27
657.01	37046.00
657.16	36676.19
657.30	36828.33
657.45	36882.16
657.59	36985.15
657.73	36959.40
657.88	36769.82
658.02	36783.86
658.16	36793.22
658.31	37146.64
658.45	37181.75
658.60	36339.16
658.74	37324.52
658.88	36830.67
659.03	36517.04
659.17	36467.89
659.31	36467.89
659.46	36690.24
659.60	36369.58
659.74	36411.71
659.89	36210.43
660.03	36402.35
660.17	36374.27
660.32	36240.86
660.46	36959.40
660.60	36250.22
660.74	36545.12
660.89	36376.61
661.03	35658.06
661.17	35840.62
661.32	35791.47
661.46	35372.52
661.60	35555.08
661.74	35840.62
661.89	36091.06
662.03	36053.61
662.17	35711.89
662.31	36053.61
662.46	35447.41
662.60	35534.01
662.74	35412.31
662.88	35409.96
663.03	35505.93
663.17	35931.90
663.31	35447.41
663.45	35051.86
663.60	35391.24
663.74	34859.94
663.88	35381.88
664.02	35215.70
664.17	35409.96
664.31	35033.14
664.45	34960.58
664.59	34965.26
664.73	35075.27
664.88	35040.16
665.02	34525.24
665.16	34653.97
665.30	34583.76
665.44	34597.80
665.59	34546.31
665.73	34459.71
665.87	34195.23
666.01	34391.83
666.15	34199.91
666.29	34560.35
666.44	34469.07
666.58	34335.66
666.72	34099.26
666.86	34370.77
667.00	34284.17
667.14	34366.09
667.28	33876.91
667.43	33659.24
667.57	33975.22
667.71	33736.48
667.85	33373.70
667.99	33621.80
668.13	33780.95
668.27	33584.35
668.41	33668.61
668.56	33352.63
668.70	33642.86
668.84	33179.43
668.98	33287.10
669.12	33373.70
669.26	33661.58
669.40	33163.05
669.54	32950.06
669.68	33109.22
669.82	32486.64
669.96	33020.28
670.10	32847.08
670.25	33340.93
670.39	33191.14
670.53	32561.53
670.67	32781.54
670.81	33212.20
670.95	32877.51
671.09	32971.13
671.23	32498.34
671.37	32652.81
671.51	32617.71
671.65	32231.52
671.79	32095.77
671.93	32020.87
672.07	32350.88
672.21	32156.62
672.35	32100.45
672.49	31833.63
672.63	32018.53
672.77	31770.43
672.91	32332.16
673.05	31601.91
673.19	31400.63
673.33	31571.49
673.47	31063.59
673.61	31496.59
673.75	31414.67
673.89	31325.73
674.03	31103.38
674.17	31211.04
674.31	30714.85
674.45	31040.18
674.59	31367.86
674.73	31316.37
674.87	30862.30
675.01	30909.11
675.15	30689.10
675.29	30878.69
675.43	30773.36
675.56	30656.34
675.70	30618.89
675.84	30663.36
675.98	29380.74
676.12	30302.92
676.26	30108.65
676.40	29748.21
676.54	29607.78
676.68	29450.96
676.82	29317.55
676.96	29352.66
677.10	29462.66
677.23	29553.94
677.37	29710.76
677.51	29563.31
677.65	28987.53
677.79	28929.02
677.93	28816.68
678.07	29312.87
678.21	28830.72
678.34	28903.28
678.48	28533.47
678.62	28666.88
678.76	28416.44
678.90	28137.92
679.04	28524.11
679.18	28339.21
679.31	28147.28
679.45	28051.32
679.59	27882.80
679.73	27637.05
679.87	27885.14
680.00	27892.16
680.14	27510.66
680.28	27541.08
680.42	27627.68
680.56	27859.40
680.70	27318.73
680.83	26672.74
680.97	26965.31
681.11	26867.01
681.25	26745.30
681.39	27058.93
681.52	26902.12
681.66	26677.43
681.80	27204.05
681.94	26370.82
682.07	26492.52
682.21	26611.89
682.35	26410.60
682.49	26279.54
682.62	26504.23
682.76	25968.24
682.90	25855.90
683.04	25848.88
683.17	26279.54
683.31	25797.38
683.45	26134.42
683.59	25701.42
683.72	25411.20
683.86	25539.93
684.00	25214.59
684.13	25247.36
684.27	25582.06
684.41	25495.46
684.55	24954.79
684.68	24950.11
684.82	24823.72
684.96	24540.52
685.09	24655.20
685.23	24720.74
685.37	24484.34
685.50	24746.48
685.64	24489.03
685.78	24170.71
685.91	24587.33
686.05	24400.08
686.19	23894.53
686.32	24102.84
686.46	23653.45
686.60	23351.52
686.73	23838.36
686.87	23459.19
687.01	23510.68
687.14	23339.82
687.28	23000.44
687.42	23161.94
687.55	22787.46
687.69	23061.30
687.82	22972.36
687.96	22906.82
688.10	23147.90
688.23	22714.90
688.37	22649.36
688.50	22085.30
688.64	22162.53
688.78	22338.07
688.91	22356.80
689.05	22464.46
689.18	22033.80
689.32	21738.90
689.46	21933.16
689.59	22207.00
689.73	22522.98
689.86	21633.57
690.00	21656.98
690.13	21900.39
690.27	21600.80
690.41	21439.31
690.54	21207.59
690.68	21118.65
690.81	21153.76
690.95	21111.63
691.08	21205.25
691.22	21102.27
691.35	21083.55
691.49	21022.69
691.62	21181.85
691.76	20999.29
691.89	20264.36
692.03	20699.70
692.16	20407.13
692.30	20102.86
692.43	20255.00
692.57	20112.22
692.70	20292.44
692.84	20032.65
692.97	20126.27
693.11	19854.76
693.24	19829.02
693.38	19662.84
693.51	19531.77
693.65	19419.42
693.78	19704.97
693.92	19506.02
694.05	19407.72
694.19	19396.02
694.32	19278.99
694.45	19286.01
694.59	19028.56
694.72	18703.22
694.86	19014.51
694.99	18813.23
695.13	18623.64
695.26	18359.16
695.39	18492.57
695.53	18359.16
695.66	18258.52
695.80	18139.15
695.93	18314.69
696.07	18249.16
696.20	18375.55
696.33	18071.28
696.47	17902.76
696.60	18087.66
696.73	18139.15
696.87	17909.78
697.00	17549.34
697.14	17551.68
697.27	17717.86
697.40	17745.94
697.54	17369.12
697.67	17465.08
697.80	17256.77
697.94	17308.26
698.07	16774.62
698.21	17153.79
698.34	17270.81
698.47	16978.25
698.61	16645.89
698.74	16608.44
698.87	16741.85
699.01	16613.12
699.14	16201.19
699.27	16503.12
699.40	16624.83
699.54	16362.69
699.67	16280.77
699.80	16098.20
699.94	16194.17
700.07	16074.80
700.20	16030.33
700.34	15936.71
700.47	15789.25
700.60	16018.63
700.73	15939.05
700.87	15548.18
701.00	15564.56
701.13	15496.69
701.26	15477.96
701.40	15484.98
701.53	15147.95
701.66	15370.30
701.79	15089.43
701.93	15073.05
702.06	14970.07
702.19	14911.55
702.32	14803.89
702.46	14677.50
702.59	14815.59
702.72	14724.31
702.85	14736.01
702.99	14813.25
703.12	14754.74
703.25	14647.07
703.38	14565.15
703.51	14361.53
703.65	14312.38
703.78	14396.64
703.91	14260.88
704.04	14384.93
704.17	14228.12
704.31	14038.53
704.44	13874.70
704.57	13790.44
704.70	13673.41
704.83	13816.18
704.96	13689.79
705.10	13954.27
705.23	13872.36
>>>>>End Processed Spectral Data<<<<<
