SpectraSuite Data File
++++++++++++++++++++++++++++++++++++
Date: Fri Oct 25 11:23:48 EDT 2013
User: price-jones
Dark Spectrum Present: No
Reference Spectrum Present: No
Number of Sampled Component Spectra: 1
Spectrometers: USB2+H05261
Integration Time (usec): 100000 (USB2+H05261)
Spectra Averaged: 1 (USB2+H05261)
Boxcar Smoothing: 0 (USB2+H05261)
Correct for Electrical Dark: No (USB2+H05261)
Strobe/Lamp Enabled: No (USB2+H05261)
Correct for Detector Non-linearity: No (USB2+H05261)
Correct for Stray Light: No (USB2+H05261)
Number of Pixels in Processed Spectrum: 2048
>>>>>Begin Processed Spectral Data<<<<<
365.73	224.69
365.92	224.69
366.12	224.69
366.32	124.05
366.52	58.51
366.72	77.24
366.91	74.90
367.11	194.26
367.31	114.69
367.51	159.16
367.70	88.94
367.90	147.45
368.10	135.75
368.30	91.28
368.49	100.64
368.69	102.98
368.89	147.45
369.09	138.09
369.28	173.20
369.48	175.54
369.68	161.50
369.87	177.88
370.07	149.79
370.27	276.18
370.47	238.73
370.66	592.16
370.86	573.43
371.06	674.07
371.25	695.14
371.45	615.56
371.65	650.67
371.84	617.90
372.04	634.29
372.24	732.59
372.44	755.99
372.63	744.29
372.83	727.91
373.03	706.84
373.22	676.41
373.42	767.70
373.62	748.97
373.81	821.53
374.01	763.01
374.21	849.61
374.40	795.78
374.60	905.79
374.79	760.67
374.99	844.93
375.19	877.70
375.38	837.91
375.58	877.70
375.78	823.87
375.97	861.32
376.17	891.74
376.37	915.15
376.56	791.10
376.76	849.61
376.95	854.30
377.15	924.51
377.35	919.83
377.54	973.66
377.74	884.72
377.93	791.10
378.13	873.02
378.33	880.04
378.52	887.06
378.72	922.17
378.91	868.34
379.11	940.90
379.31	966.64
379.50	887.06
379.70	959.62
379.89	936.21
380.09	924.51
380.28	924.51
380.48	987.71
380.68	992.39
380.87	912.81
381.07	1025.15
381.26	950.26
381.46	961.96
381.65	985.37
381.85	1034.52
382.04	980.68
382.24	1081.33
382.43	1041.54
382.63	1036.86
382.83	1130.48
383.02	1107.07
383.22	1057.92
383.41	1041.54
383.61	1142.18
383.80	1153.88
384.00	1118.78
384.19	1144.52
384.39	1186.65
384.58	1135.16
384.78	1078.99
384.97	1160.91
385.17	1177.29
385.36	1071.97
385.56	1245.16
385.75	1191.33
385.95	1128.14
386.14	1137.50
386.34	1114.10
386.53	1121.12
386.72	1167.93
386.92	1153.88
387.11	1228.78
387.31	1212.40
387.50	1160.91
387.70	1242.82
387.89	1179.63
388.09	1240.48
388.28	1263.89
388.48	1203.04
388.67	1357.51
388.86	1254.53
389.06	1261.55
389.25	1291.98
389.45	1357.51
389.64	1334.11
389.84	1357.51
390.03	1338.79
390.22	1378.58
390.42	1287.29
390.61	1420.71
390.81	1444.11
391.00	1481.56
391.19	1409.00
391.39	1362.19
391.58	1486.24
391.78	1483.90
391.97	1504.96
392.16	1394.96
392.36	1507.30
392.55	1357.51
392.75	1530.71
392.94	1488.58
393.13	1561.14
393.33	1636.03
393.52	1650.08
393.71	1607.95
393.91	1687.53
394.10	1603.27
394.29	1603.27
394.49	1540.07
394.68	1621.99
394.88	1621.99
395.07	1694.55
395.26	1748.38
395.46	1685.19
395.65	1792.85
395.84	1666.46
396.04	1844.34
396.23	1645.40
396.42	1757.74
396.62	1783.49
396.81	1830.30
397.00	1844.34
397.19	1713.27
397.39	1767.10
397.58	1940.30
397.77	1849.02
397.97	1867.75
398.16	1902.86
398.35	1949.67
398.55	1879.45
398.74	1905.20
398.93	2010.52
399.12	1961.37
399.32	1877.11
399.51	1919.24
399.70	2024.56
399.90	2062.01
400.09	2005.84
400.28	2010.52
400.47	2094.78
400.67	2148.61
400.86	2080.74
401.05	2064.35
401.24	2038.61
401.44	2146.27
401.63	2160.31
401.82	2139.25
402.01	2160.31
402.21	2190.74
402.40	2174.36
402.59	2214.15
402.78	2214.15
402.97	2349.90
403.17	2232.87
403.36	2249.25
403.55	2181.38
403.74	2272.66
403.93	2275.00
404.13	2450.54
404.32	2394.37
404.51	2413.09
404.70	2410.75
404.89	2352.24
405.09	2520.76
405.28	2417.77
405.47	2487.99
405.66	2630.76
405.85	2520.76
406.05	2579.27
406.24	2485.65
406.43	2623.74
406.62	2565.23
406.81	2612.04
407.00	2736.09
407.20	2670.55
407.39	2665.87
407.58	2651.83
407.77	2740.77
407.96	2722.04
408.15	2715.02
408.34	2722.04
408.54	2764.17
408.73	2853.11
408.92	2778.22
409.11	2892.90
409.30	2942.05
409.49	2902.26
409.68	2977.16
409.87	3014.61
410.07	3000.57
410.26	3047.38
410.45	2995.89
410.64	3054.40
410.83	2998.23
411.02	3150.36
411.21	3183.13
411.40	3094.19
411.59	3251.00
411.78	3309.52
411.98	3143.34
412.17	3293.13
412.36	3222.92
412.55	3382.07
412.74	3400.80
412.93	3377.39
413.12	3236.96
413.31	3400.80
413.50	3489.74
413.69	3499.10
413.88	3536.55
414.07	3515.48
414.26	3581.02
414.45	3637.19
414.64	3723.79
414.83	3599.74
415.02	3817.41
415.22	3836.14
415.41	3946.14
415.60	3873.59
415.79	3920.40
415.98	4058.49
416.17	3983.59
416.36	3904.01
416.55	3976.57
416.74	4114.66
416.93	3978.91
417.12	4109.98
417.31	4156.79
417.50	4133.39
417.69	4255.09
417.88	4355.74
418.07	4393.19
418.26	4098.28
418.45	4337.01
418.64	4386.16
418.83	4472.76
419.02	4498.51
419.21	4500.85
419.39	4592.13
419.58	4432.97
419.77	4414.25
419.96	4624.90
420.15	4718.52
420.34	4545.32
420.53	4631.92
420.72	4669.37
420.91	4758.31
421.10	4674.05
421.29	4812.14
421.48	4564.04
421.67	4891.72
421.86	4751.29
422.05	4931.51
422.24	4760.65
422.43	4896.40
422.61	4807.46
422.80	5015.77
422.99	4950.23
423.18	4999.38
423.37	5093.01
423.56	5179.61
423.75	4748.95
423.94	4880.02
424.13	4493.83
424.32	4770.01
424.50	5022.79
424.69	5198.33
424.88	5135.14
425.07	4973.64
425.26	4980.66
425.45	4990.02
425.64	4922.15
425.83	4987.68
426.01	5064.92
426.20	5135.14
426.39	5149.18
426.58	4971.30
426.77	5011.09
426.96	5226.42
427.15	5006.41
427.33	5181.95
427.52	5231.10
427.71	5334.08
427.90	5308.34
428.09	5373.87
428.28	5334.08
428.46	5350.46
428.65	5420.68
428.84	5671.12
429.03	5476.85
429.22	5401.96
429.40	5549.41
429.59	5373.87
429.78	5404.30
429.97	5174.92
430.16	5401.96
430.34	5748.36
430.53	5640.69
430.72	5600.90
430.91	5797.51
431.10	5657.07
431.28	5680.48
431.47	5809.21
431.66	6073.69
431.85	5888.79
432.03	6015.18
432.22	6024.54
432.41	6024.54
432.60	6069.01
432.79	5963.68
432.97	5959.00
433.16	6005.81
433.35	6076.03
433.54	6061.99
433.72	6183.70
433.91	6253.91
434.10	6181.35
434.28	6155.61
434.47	6223.48
434.66	6260.93
434.85	6328.81
435.03	6359.24
435.22	6331.15
435.41	6480.94
435.59	6307.74
435.78	6679.89
435.97	6480.94
436.16	6546.48
436.34	6401.37
436.53	6698.61
436.72	6588.61
436.90	6567.54
437.09	6633.08
437.28	6509.03
437.46	6715.00
437.65	6677.55
437.84	6806.28
438.02	6668.19
438.21	6827.34
438.40	6693.93
438.58	7199.49
438.77	7152.68
438.96	7023.95
439.14	7281.41
439.33	7173.74
439.52	7321.20
439.70	7276.73
439.89	7293.11
440.08	7382.05
440.26	7515.46
440.45	7344.60
440.63	7468.65
440.82	7585.68
441.01	7456.95
441.19	7536.52
441.38	7681.64
441.57	7723.77
441.75	7894.63
441.94	8070.17
442.12	8023.36
442.31	8079.53
442.50	8051.44
442.68	7892.29
442.87	8161.45
443.05	8290.18
443.24	8250.39
443.43	8180.17
443.61	8212.94
443.80	8746.58
443.98	8152.09
444.17	7896.97
444.35	8219.96
444.54	8416.57
444.73	8306.56
444.91	8381.46
445.10	8339.33
445.28	8423.59
445.47	8444.65
445.65	8243.37
445.84	8418.91
446.02	8627.21
446.21	8496.14
446.39	8318.26
446.58	8622.53
446.77	8458.70
446.95	8315.92
447.14	8514.87
447.32	8793.39
447.51	8610.83
447.69	8432.95
447.88	8720.84
448.06	8507.85
448.25	8568.70
448.43	8643.60
448.62	8484.44
448.80	8610.83
448.99	8671.68
449.17	8720.84
449.36	8676.37
449.54	9048.51
449.73	9085.96
449.91	8973.61
450.10	8954.89
450.28	9397.25
450.46	9050.85
450.65	9135.11
450.83	8961.91
451.02	9029.79
451.20	9090.64
451.39	9343.42
451.57	9308.31
451.76	9156.18
451.94	9266.18
452.13	9371.50
452.31	9245.12
452.49	9214.69
452.68	9483.85
452.86	9507.26
453.05	9523.64
453.23	9308.31
453.42	9589.17
453.60	9502.58
453.78	9762.37
453.97	9383.21
454.15	9451.08
454.34	9528.32
454.52	9771.74
454.70	9619.60
454.89	9778.76
455.07	9760.03
455.26	9942.60
455.44	10012.81
455.62	9912.17
455.81	10066.64
455.99	10036.22
456.17	10136.86
456.36	10003.45
456.54	10104.09
456.73	10403.68
456.91	10429.43
457.09	10307.72
457.28	10670.50
457.46	10370.91
457.64	10422.41
457.83	10609.65
458.01	10356.87
458.19	10860.09
458.38	10567.52
458.56	10939.66
458.74	10677.52
458.93	10626.03
459.11	10607.31
459.29	10862.43
459.48	10927.96
459.66	10822.64
459.84	10775.83
460.03	11115.20
460.21	10892.85
460.39	11026.26
460.57	11021.58
460.76	11309.47
460.94	11257.98
461.12	10963.07
461.31	11129.25
461.49	11126.91
461.67	11337.56
461.85	11536.50
462.04	11344.58
462.22	11262.66
462.40	11667.57
462.59	11468.62
462.77	11625.44
462.95	11810.34
463.13	11847.79
463.32	11779.92
463.50	11880.56
463.68	11765.87
463.86	11716.72
464.05	11793.96
464.23	11658.21
464.41	11918.01
464.59	11735.45
464.78	12088.87
464.96	12006.95
465.14	11974.18
465.32	12114.61
465.50	12229.30
465.69	12329.94
465.87	12205.89
466.05	12299.52
466.23	12217.60
466.41	12238.66
466.60	12470.37
466.78	12416.54
466.96	12416.54
467.14	12283.13
467.32	12421.22
467.51	12718.47
467.69	12212.92
467.87	12765.28
468.05	12762.94
468.23	12477.40
468.41	12355.69
468.60	12603.78
468.78	12659.96
468.96	12510.16
469.14	12905.71
469.32	12994.65
469.50	12650.60
469.69	12915.08
469.87	13135.09
470.05	13394.89
470.23	13380.84
470.41	13336.37
470.59	13352.76
470.77	13411.27
470.95	13259.13
471.14	13509.57
471.32	13319.99
471.50	13530.64
471.68	13593.83
471.86	13640.64
472.04	13902.78
472.22	14012.79
472.40	13846.61
472.58	13862.99
472.77	14001.08
472.95	14080.66
473.13	14572.18
473.31	14141.52
473.49	14270.25
473.67	14373.23
473.85	14230.46
474.03	14670.48
474.21	14799.21
474.39	14773.46
474.57	14878.79
474.75	14930.28
474.93	15255.61
475.12	14883.47
475.30	15279.02
475.48	15087.09
475.66	15367.96
475.84	15384.34
476.02	15693.29
476.20	15454.56
476.38	15772.87
476.56	16243.32
476.74	16116.93
476.92	16058.42
477.10	15917.98
477.28	16217.57
477.46	16360.34
477.64	16386.09
477.82	16741.85
478.00	17170.17
478.18	16940.80
478.36	17060.16
478.54	17254.43
478.72	17233.36
478.90	17584.44
479.08	17617.21
479.26	17767.01
479.44	17837.22
479.62	17935.53
479.80	18085.32
479.98	18207.03
480.16	18508.96
480.34	18239.79
480.52	18684.50
480.70	18630.66
480.88	18501.93
481.06	18595.56
481.24	18663.43
481.41	19222.82
481.59	19541.13
481.77	19389.00
481.95	19747.10
482.13	20027.96
482.31	19922.64
482.49	20416.49
482.67	20102.86
482.85	20545.22
483.03	21156.10
483.21	20730.12
483.39	21167.80
483.57	21048.44
483.74	21446.33
483.92	21640.59
484.10	21221.64
484.28	21848.90
484.46	21898.05
484.64	22518.29
484.82	21851.24
485.00	22424.67
485.18	22724.26
485.35	22977.04
485.53	22618.94
485.71	22888.10
485.89	23749.42
486.07	23634.73
486.25	23599.62
486.43	23913.25
486.61	23995.17
486.78	24189.44
486.96	24561.58
487.14	24797.98
487.32	24699.67
487.50	24795.64
487.68	25132.67
487.85	25551.63
488.03	25834.83
488.21	25827.81
488.39	26045.48
488.57	26094.63
488.75	26312.30
488.92	26623.59
489.10	26848.29
489.28	27126.81
489.46	27428.74
489.64	27094.04
489.81	27840.67
489.99	28037.28
490.17	28238.56
490.35	28348.57
490.53	28334.53
490.70	28683.27
490.88	28732.42
491.06	28868.17
491.24	29099.88
491.41	29083.50
491.59	29390.11
491.77	29216.91
491.95	29766.93
492.13	29565.65
492.30	30431.65
492.48	29811.40
492.66	30338.02
492.84	30712.51
493.01	30675.06
493.19	30948.90
493.37	31257.85
493.54	31541.06
493.72	31667.45
493.90	32025.55
494.08	32205.77
494.25	32168.32
494.43	32332.16
494.61	32479.61
494.79	32865.80
494.96	32528.77
495.14	32847.08
495.32	33207.52
495.49	33160.71
495.67	33305.82
495.85	33708.40
496.02	33902.66
496.20	34164.80
496.38	34408.22
496.55	34176.50
496.73	35068.25
496.91	34672.70
497.09	34822.49
497.26	35225.06
497.44	35012.07
497.62	35239.11
497.79	35639.34
497.97	35669.76
498.14	36158.94
498.32	36383.63
498.50	36395.33
498.67	36533.42
498.85	36809.61
499.03	36957.06
499.20	37006.21
499.38	37301.12
499.56	37202.82
499.73	37240.26
499.91	37462.61
500.08	37455.59
500.26	37736.46
500.44	37717.73
500.61	37926.04
500.79	37853.48
500.97	38211.59
501.14	38543.94
501.32	38712.46
501.49	39002.69
501.67	39042.48
501.84	38852.89
502.02	39056.52
502.20	39384.19
502.37	39564.42
502.55	39599.52
502.72	39566.76
502.90	39704.85
503.07	39765.70
503.25	40119.12
503.43	40016.14
503.60	40133.17
503.78	40313.39
503.95	40289.98
504.13	40701.92
504.30	40905.54
504.48	41008.53
504.65	40954.69
504.83	41111.51
505.01	41106.83
505.18	41291.73
505.36	42040.70
505.53	41780.90
505.71	41975.17
505.88	41911.97
506.06	41497.70
506.23	42263.05
506.41	41984.53
506.58	42497.11
506.76	42307.52
506.93	42583.71
507.11	42726.48
507.28	42799.04
507.46	43077.56
507.63	42946.49
507.81	43133.73
507.98	42773.29
508.16	43466.09
508.33	43599.50
508.50	43655.67
508.68	43969.30
508.85	44430.39
509.03	44149.53
509.20	44397.62
509.38	44374.22
509.55	44744.02
509.73	44807.22
509.90	44973.39
510.08	45092.76
510.25	44505.29
510.42	45069.36
510.60	45539.80
510.77	45542.14
510.95	45626.40
511.12	45315.11
511.30	45392.35
511.47	45722.37
511.64	45839.39
511.82	46248.99
511.99	45925.99
512.17	46012.59
512.34	45598.32
512.51	46263.03
512.69	46749.86
512.86	46277.07
513.04	46852.84
513.21	47213.29
513.38	46618.79
513.56	47337.33
513.73	47229.67
513.90	46906.68
514.08	47327.97
514.25	47456.70
514.43	47704.80
514.60	47620.54
514.77	47676.71
514.95	47730.54
515.12	47395.85
515.29	47856.93
515.47	48013.75
515.64	48217.38
515.81	48320.36
515.99	48521.65
516.16	48622.29
516.33	48624.63
516.51	48678.46
516.68	48601.22
516.85	48467.81
517.03	49116.14
517.20	49059.97
517.37	49144.23
517.54	49109.12
517.72	49256.57
517.89	48891.45
518.06	49326.79
518.24	49471.90
518.41	49352.54
518.58	49195.72
518.75	49490.63
518.93	49607.65
519.10	49471.90
519.27	49979.80
519.45	50092.15
519.62	49918.95
519.79	49909.58
519.96	50178.75
520.14	49900.22
520.31	50143.64
520.48	50408.12
520.65	50218.53
520.83	50688.98
521.00	50862.18
521.17	51047.08
521.34	50623.45
521.52	50948.78
521.69	51089.21
521.86	51208.58
522.03	51313.90
522.20	51449.66
522.38	51505.83
522.55	51510.51
522.72	51592.43
522.89	51601.79
523.07	51838.18
523.24	51877.97
523.41	51873.29
523.58	51498.81
523.75	51786.69
523.92	51810.10
524.10	52306.29
524.27	52121.39
524.44	52348.42
524.61	52439.70
524.78	52128.41
524.96	52392.89
525.13	52554.39
525.30	52456.09
525.47	52530.98
525.64	52748.65
525.81	52746.31
525.98	52687.80
526.16	52879.72
526.33	53052.92
526.50	53066.97
526.67	52919.51
526.84	52839.93
527.01	52748.65
527.18	52982.71
527.36	53188.67
527.53	52804.83
527.70	53441.45
527.87	53315.06
528.04	53326.77
528.21	53361.87
528.38	53680.19
528.55	53595.93
528.72	53411.02
528.89	53724.66
529.07	53380.60
529.24	53565.50
529.41	53820.62
529.58	53640.40
529.75	53844.02
529.92	53883.81
530.09	54021.90
530.26	54045.31
530.43	54272.34
530.60	53837.00
530.77	54195.10
530.94	54403.41
531.11	54209.15
531.28	54232.55
531.46	54106.16
531.63	54365.96
531.80	54440.86
531.97	54593.00
532.14	54674.91
532.31	54487.67
532.48	54976.84
532.65	54843.43
532.82	54522.78
532.99	54885.56
533.16	54827.05
533.33	55098.55
533.50	55040.04
533.67	54862.16
533.84	54827.05
534.01	55072.81
534.18	55208.56
534.35	55210.90
534.52	55264.73
534.69	55484.74
534.86	55496.44
535.03	55393.46
535.20	55316.22
535.37	55407.50
535.54	55496.44
535.71	55161.75
535.88	55622.83
536.05	55772.63
536.22	55732.84
536.38	56046.47
536.55	55580.70
536.72	55746.88
536.89	55578.36
537.06	55674.32
537.23	55749.22
537.40	55810.07
537.57	55840.50
537.74	56013.70
537.91	56100.30
538.08	55929.44
538.25	55653.26
538.42	55938.80
538.59	56193.92
538.75	56100.30
538.92	56229.03
539.09	56203.28
539.26	56310.95
539.43	56074.55
539.60	56339.04
539.77	56371.80
539.94	56432.66
540.11	56507.55
540.28	56519.26
540.44	56491.17
540.61	56498.19
540.78	56252.44
540.95	56282.86
541.12	56423.29
541.29	56219.67
541.46	56633.94
541.62	56601.18
541.79	56769.69
541.96	56406.91
542.13	56495.85
542.30	56720.54
542.47	56856.29
542.63	57193.33
542.80	56685.43
542.97	57275.25
543.14	57158.22
543.31	57202.69
543.48	57380.57
543.64	57640.37
543.81	57460.15
543.98	57340.78
544.15	57399.30
544.32	57483.56
544.48	57647.39
544.65	57488.24
544.82	57675.48
544.99	57352.49
545.16	57773.78
545.32	57598.24
545.49	57628.67
545.66	57925.92
545.83	57750.38
546.00	57965.71
546.16	57743.36
546.33	58010.18
546.50	57553.77
546.67	57633.35
546.83	57350.15
547.00	57844.00
547.17	57853.36
547.34	57956.35
547.50	58028.90
547.67	58197.42
547.84	57998.48
548.00	58234.87
548.17	58422.11
548.34	58244.23
548.51	58501.69
548.67	58312.11
548.84	58227.85
549.01	58178.70
549.18	58468.92
549.34	58384.66
549.51	58281.68
549.68	58731.06
549.84	58450.20
550.01	58412.75
550.18	58429.13
550.34	58529.78
550.51	58567.23
550.68	58525.10
550.84	58468.92
551.01	58628.08
551.18	58553.18
551.34	58791.92
551.51	58585.95
551.68	58852.77
551.84	58616.38
552.01	58494.67
552.18	58817.66
552.34	58621.06
552.51	59007.25
552.68	58681.91
552.84	58585.95
553.01	59208.53
553.18	58878.52
553.34	58920.65
553.51	58787.24
553.67	58918.31
553.84	59215.55
554.01	59025.97
554.17	58951.07
554.34	59337.26
554.51	59119.59
554.67	59124.27
554.84	59164.06
555.00	59058.74
555.17	59182.79
555.33	59189.81
555.50	59135.98
555.67	59213.21
555.83	59075.12
556.00	59061.08
556.16	59508.12
556.33	59531.53
556.50	59187.47
556.66	59618.13
556.83	59236.62
556.99	59559.61
557.16	59510.46
557.32	59674.30
557.49	59877.93
557.65	59346.62
557.82	59580.68
557.98	59412.16
558.15	59330.24
558.32	59599.40
558.48	59456.63
558.65	59597.06
558.81	59587.70
558.98	59618.13
559.14	59732.81
559.31	59643.87
559.47	60081.55
559.64	59866.22
559.80	59840.48
559.97	59994.95
560.13	59627.49
560.30	59714.09
560.46	59889.63
560.63	59814.73
560.79	59615.79
560.96	59992.61
561.12	60030.06
561.29	59936.44
561.45	60221.98
561.61	59966.87
561.78	59992.61
561.94	60102.62
562.11	59709.41
562.27	60123.68
562.44	60041.76
562.60	60200.92
562.77	60090.91
562.93	59999.63
563.10	60151.77
563.26	60011.34
563.42	60449.02
563.59	60097.94
563.75	60362.42
563.92	59985.59
564.08	60301.56
564.24	60154.11
564.41	60268.79
564.57	60161.13
564.74	60252.41
564.90	60369.44
565.07	60081.55
565.23	60238.37
565.39	60336.67
565.56	60140.07
565.72	60221.98
565.88	60296.88
566.05	60339.01
566.21	60093.25
566.38	60376.46
566.54	60484.12
566.70	60519.23
566.87	60706.47
567.03	60100.28
567.19	60676.05
567.36	60383.48
567.52	60470.08
567.68	60664.35
567.85	60327.31
568.01	60467.74
568.17	60439.65
568.34	60378.80
568.50	60491.15
568.66	60479.44
568.83	60786.05
568.99	60243.05
569.15	60570.72
569.32	60561.36
569.48	60355.39
569.64	60535.62
569.81	60458.38
569.97	60512.21
570.13	60488.80
570.30	60371.78
570.46	60863.29
570.62	60570.72
570.78	60722.86
570.95	60680.73
571.11	60828.18
571.27	60769.67
571.43	60582.43
571.60	60856.27
571.76	60767.33
571.92	60734.56
572.09	60739.24
572.25	60610.51
572.41	60706.47
572.57	60743.92
572.74	60814.14
572.90	60830.52
573.06	61020.11
573.22	60697.11
573.38	60809.46
573.55	60807.12
573.71	60800.10
573.87	60669.03
574.03	60727.54
574.20	60802.44
574.36	60701.79
574.52	60882.02
574.68	60963.93
574.84	60800.10
575.01	60893.72
575.17	60718.18
575.33	60907.76
575.49	60889.04
575.65	60989.68
575.82	60910.10
575.98	60989.68
576.14	60823.50
576.30	60994.36
576.46	60828.18
576.62	60835.20
576.79	60973.30
576.95	60786.05
577.11	61001.38
577.27	60886.70
577.43	60910.10
577.59	60882.02
577.75	60809.46
577.92	60790.73
578.08	60849.25
578.24	60954.57
578.40	61059.90
578.56	61109.05
578.72	60992.02
578.88	61144.16
579.04	61052.87
579.21	61003.72
579.37	61022.45
579.53	61034.15
579.69	60865.63
579.85	60896.06
580.01	60917.12
580.17	60874.99
580.33	61317.35
580.49	61015.43
580.65	61141.81
580.82	61024.79
580.98	60917.12
581.14	60905.42
581.30	61066.92
581.46	60889.04
581.62	61050.53
581.78	60921.80
581.94	61169.90
582.10	61034.15
582.26	61240.12
582.42	61024.79
582.58	61057.56
582.74	60982.66
582.90	61064.58
583.06	61006.06
583.22	60989.68
583.38	61022.45
583.54	61078.62
583.70	61052.87
583.86	61087.98
584.02	60898.40
584.18	61406.30
584.34	61137.13
584.50	61172.24
584.66	60963.93
584.82	60919.46
584.98	61317.35
585.14	61195.65
585.30	60900.74
585.46	60989.68
585.62	60982.66
585.78	61289.27
585.94	60980.32
586.10	61338.42
586.26	61137.13
586.42	61169.90
586.58	61226.07
586.74	61125.43
586.90	61080.96
587.06	61080.96
587.22	61235.44
587.38	61181.60
587.54	61258.84
587.70	61425.02
587.86	61223.73
588.02	61172.24
588.18	61244.80
588.34	60959.25
588.49	61165.22
588.65	61172.24
588.81	61214.37
588.97	61237.78
589.13	61043.51
589.29	61418.00
589.45	61520.98
589.61	61434.38
589.77	61659.07
589.93	61406.30
590.08	61563.11
590.24	61296.29
590.40	61441.40
590.56	61560.77
590.72	61635.67
590.88	61268.20
591.04	61410.98
591.20	61883.76
591.35	61403.95
591.51	61649.71
591.67	61673.12
591.83	61539.71
591.99	61609.92
592.15	61595.88
592.31	61684.82
592.46	61602.90
592.62	61645.03
592.78	61478.85
592.94	61740.99
593.10	61485.87
593.26	61591.20
593.41	61614.60
593.57	61666.09
593.73	61621.62
593.89	61680.14
594.05	61733.97
594.20	61469.49
594.36	61738.65
594.52	61544.39
594.68	61635.67
594.84	61396.93
594.99	61733.97
595.15	61513.96
595.31	61776.10
595.47	61666.09
595.62	61558.43
595.78	61525.66
595.94	61717.59
596.10	61675.46
596.25	61750.35
596.41	61645.03
596.57	61556.09
596.73	61530.34
596.88	61909.51
597.04	61605.24
597.20	61736.31
597.36	61726.95
597.51	61928.23
597.67	61694.18
597.83	61549.07
597.99	61652.05
598.14	61881.42
598.30	61710.56
598.46	61633.33
598.61	62192.72
598.77	61645.03
598.93	61694.18
599.09	61696.52
599.24	62173.99
599.40	61839.29
599.56	61895.47
599.71	61949.30
599.87	62066.33
600.03	61979.73
600.18	61663.75
600.34	61879.08
600.50	61953.98
600.65	61790.14
600.81	62024.20
600.97	61783.12
601.12	62017.17
601.28	61731.63
601.44	61865.04
601.59	61853.34
601.75	61659.07
601.91	62155.27
602.06	61890.79
602.22	62038.24
602.37	62056.96
602.53	61855.68
602.69	61771.42
602.84	61965.68
603.00	61883.76
603.16	61970.36
603.31	61881.42
603.47	61886.10
603.62	61776.10
603.78	61872.06
603.94	61677.80
604.09	61881.42
604.25	62080.37
604.40	61886.10
604.56	61691.84
604.71	61956.32
604.87	61860.36
605.03	61815.89
605.18	61841.63
605.34	62035.90
605.49	61808.87
605.65	62082.71
605.80	61860.36
605.96	62103.77
606.12	61820.57
606.27	62101.43
606.43	61771.42
606.58	62099.09
606.74	61834.61
606.89	61719.93
607.05	62014.83
607.20	61979.73
607.36	61757.38
607.51	61790.14
607.67	61722.27
607.82	61708.22
607.98	61797.16
608.13	61834.61
608.29	61815.89
608.44	61820.57
608.60	61717.59
608.75	61820.57
608.91	61598.22
609.06	61738.65
609.22	61792.48
609.37	61666.09
609.53	61668.44
609.68	61642.69
609.84	61544.39
609.99	61605.24
610.15	61921.21
610.30	61790.14
610.46	61731.63
610.61	61565.45
610.76	61551.41
610.92	61815.89
611.07	61687.16
611.23	61595.88
611.38	61661.41
611.54	61485.87
611.69	61820.57
611.84	61731.63
612.00	61729.29
612.15	61759.72
612.31	61820.57
612.46	61462.47
612.62	61736.31
612.77	61413.32
612.92	61703.54
613.08	61563.11
613.23	61497.58
613.39	61483.53
613.54	61399.27
613.69	61808.87
613.85	61689.50
614.00	61701.20
614.15	61764.40
614.31	61415.66
614.46	61701.20
614.62	61499.92
614.77	61518.64
614.92	61502.26
615.08	61272.88
615.23	61371.19
615.38	61626.31
615.54	61523.32
615.69	61577.15
615.84	61567.79
616.00	61446.08
616.15	61347.78
616.30	61549.07
616.46	61396.93
616.61	61406.30
616.76	61429.70
616.92	61429.70
617.07	61506.94
617.22	61244.80
617.37	61375.87
617.53	61560.77
617.68	61368.85
617.83	61401.61
617.99	61448.42
618.14	61373.53
618.29	61300.97
618.45	61186.28
618.60	61249.48
618.75	61228.41
618.90	61160.54
619.06	61427.36
619.21	61336.08
619.36	61352.46
619.51	61347.78
619.67	61441.40
619.82	61120.75
619.97	61413.32
620.12	61071.60
620.28	61221.39
620.43	61338.42
620.58	61052.87
620.73	60985.00
620.89	61076.28
621.04	61249.48
621.19	61036.49
621.34	61116.07
621.49	61066.92
621.65	61064.58
621.80	61233.10
621.95	60980.32
622.10	61195.65
622.25	60992.02
622.41	61006.06
622.56	60851.59
622.71	60994.36
622.86	60905.42
623.01	60772.01
623.16	60830.52
623.32	61038.83
623.47	61106.71
623.62	61102.03
623.77	60807.12
623.92	60963.93
624.07	60898.40
624.23	61050.53
624.38	60989.68
624.53	60863.29
624.68	60720.52
624.83	60837.54
624.98	60853.93
625.13	60750.94
625.29	60781.37
625.44	60678.39
625.59	60687.75
625.74	60802.44
625.89	60664.35
626.04	60512.21
626.19	60552.00
626.34	60587.11
626.49	60390.50
626.65	60336.67
626.80	60722.86
626.95	60589.45
627.10	60491.15
627.25	60535.62
627.40	60678.39
627.55	60603.49
627.70	60549.66
627.85	60430.29
628.00	60547.32
628.15	60523.91
628.30	60341.35
628.45	60416.25
628.60	60453.70
628.76	60397.52
628.91	60275.82
629.06	60493.49
629.21	60324.97
629.36	60346.03
629.51	60273.48
629.66	60350.71
629.81	60037.08
629.96	60355.39
630.11	60339.01
630.26	60119.00
630.41	60392.84
630.56	60294.54
630.71	60308.58
630.86	60226.66
631.01	60158.79
631.16	60135.38
631.31	59980.91
631.46	59997.29
631.61	60018.36
631.76	60142.41
631.91	60128.36
632.06	60144.75
632.21	60013.68
632.36	59992.61
632.51	59688.34
632.66	59971.55
632.81	59868.56
632.96	60116.66
633.10	59927.08
633.25	60076.87
633.40	60046.44
633.55	60088.57
633.70	60037.08
633.85	59987.93
634.00	59884.95
634.15	59828.77
634.30	59791.33
634.45	59828.77
634.60	60018.36
634.75	60137.72
634.90	59725.79
635.05	59739.83
635.19	59898.99
635.34	59934.10
635.49	59767.92
635.64	59831.11
635.79	59662.60
635.94	59751.54
636.09	59749.20
636.24	59695.36
636.39	59620.47
636.53	59641.53
636.68	59512.80
636.83	59704.73
636.98	59681.32
637.13	59522.16
637.28	59578.34
637.43	59568.97
637.57	59580.68
637.72	59405.14
637.87	59456.63
638.02	59714.09
638.17	59571.32
638.32	59540.89
638.46	59437.90
638.61	59662.60
638.76	59374.71
638.91	59489.40
639.06	59423.86
639.20	59278.75
639.35	59091.51
639.50	59224.92
639.65	59578.34
639.80	59309.18
639.94	59260.02
640.09	59463.65
640.24	59002.56
640.39	59217.89
640.54	59187.47
640.68	59119.59
640.83	59072.78
640.98	59173.42
641.13	58965.12
641.27	59470.67
641.42	59056.40
641.57	59091.51
641.72	59089.16
641.86	58993.20
642.01	58890.22
642.16	59121.93
642.31	58838.73
642.45	59159.38
642.60	59037.67
642.75	59295.13
642.90	59281.09
643.04	59157.04
643.19	59189.81
643.34	58864.47
643.48	59131.29
643.63	59180.45
643.78	58838.73
643.93	59042.35
644.07	59103.21
644.22	58958.09
644.37	58555.52
644.51	58728.72
644.66	58836.39
644.81	58815.32
644.95	58841.07
645.10	58906.60
645.25	58745.11
645.39	58588.29
645.54	58693.61
645.69	58651.48
645.83	58742.77
645.98	58630.42
646.13	58628.08
646.27	58707.66
646.42	58588.29
646.57	58508.71
646.71	58763.83
646.86	58829.37
647.00	58726.38
647.15	58665.53
647.30	58562.54
647.44	58602.33
647.59	58686.59
647.74	58361.26
647.88	58616.38
648.03	58995.54
648.17	58653.82
648.32	58387.00
648.47	58717.02
648.61	58354.24
648.76	58607.01
648.90	58227.85
649.05	58431.47
649.20	58745.11
649.34	58508.71
649.49	58136.57
649.63	58782.55
649.78	58506.37
649.92	58340.19
650.07	58642.12
650.21	58262.96
650.36	58403.39
650.51	58213.80
650.65	58541.48
650.80	58323.81
650.94	58078.05
651.09	58101.46
651.23	57865.06
651.38	58152.95
651.52	57874.43
651.67	57937.62
651.81	57841.66
651.96	57822.93
652.10	57975.07
652.25	58190.40
652.39	57951.66
652.54	57722.29
652.68	57766.76
652.83	57825.28
652.97	57937.62
653.12	57748.04
653.26	57932.94
653.41	58113.16
653.55	58068.69
653.70	57946.98
653.84	58054.65
653.99	57790.17
654.13	57858.04
654.27	57773.78
654.42	57717.61
654.56	57764.42
654.71	57769.10
654.85	58010.18
655.00	57876.77
655.14	57645.05
655.29	57694.21
655.43	57558.45
655.57	57640.37
655.72	57645.05
655.86	57647.39
656.01	57696.55
656.15	57535.05
656.30	57497.60
656.44	57717.61
656.58	57640.37
656.73	57654.42
656.87	57518.67
657.01	57516.32
657.16	57762.08
657.30	57366.53
657.45	57546.75
657.59	57401.64
657.73	57148.86
657.88	57085.67
658.02	57277.59
658.16	57425.04
658.31	57104.39
658.45	57256.53
658.60	57251.84
658.74	57364.19
658.88	57357.17
659.03	57212.06
659.17	57017.79
659.31	56809.48
659.46	57071.62
659.60	57050.56
659.74	57284.61
659.89	56968.64
660.03	56956.94
660.17	57024.81
660.32	56680.75
660.46	56765.01
660.60	56978.00
660.74	57071.62
660.89	56776.72
661.03	56748.63
661.17	56570.75
661.32	56453.72
661.46	56814.16
661.60	56591.81
661.74	56629.26
661.89	56629.26
662.03	56404.57
662.17	56416.27
662.31	56535.64
662.46	56760.33
662.60	56427.98
662.74	56222.01
662.88	56252.44
663.03	56271.16
663.17	56493.51
663.31	55779.65
663.45	56102.64
663.60	55894.33
663.74	55571.34
663.88	55952.85
664.02	55938.80
664.17	56004.34
664.31	55826.46
664.45	55707.09
664.59	55936.46
664.73	55721.13
664.88	55803.05
665.02	55515.17
665.16	55772.63
665.30	55742.20
665.44	55608.79
665.59	55327.92
665.73	55412.18
665.87	55519.85
666.01	55449.63
666.15	55377.08
666.29	55150.04
666.44	55470.70
666.58	55215.58
666.72	55154.72
666.86	55283.45
667.00	54866.84
667.14	54653.85
667.28	54829.39
667.43	54845.77
667.57	54939.39
667.71	54993.23
667.85	54857.48
667.99	54887.90
668.13	54621.08
668.27	54487.67
668.41	54789.60
668.56	54529.80
668.70	54515.76
668.84	54412.77
668.98	54464.27
669.12	54553.21
669.26	54616.40
669.40	54490.01
669.54	54321.49
669.68	54501.71
669.82	54059.35
669.96	54169.36
670.10	54494.69
670.25	54440.86
670.39	53724.66
670.53	54003.18
670.67	53911.90
670.81	54059.35
670.95	53897.86
671.09	53605.29
671.23	53401.66
671.37	53783.17
671.51	53556.14
671.65	53710.61
671.79	53364.21
671.93	53116.12
672.07	53612.31
672.21	53279.96
672.35	53116.12
672.49	53066.97
672.63	53020.16
672.77	52940.58
672.91	52973.34
673.05	52928.87
673.19	52793.12
673.33	52683.12
673.47	52570.77
673.61	52931.22
673.75	52547.37
673.89	52107.35
674.03	52442.04
674.17	52203.31
674.31	52018.41
674.45	52041.81
674.59	51819.46
674.73	51929.47
674.87	51805.42
675.01	51634.56
675.15	51578.39
675.29	51821.80
675.43	52116.71
675.56	51739.88
675.70	51334.97
675.84	51145.39
675.98	50365.99
676.12	51524.55
676.26	51344.33
676.40	51030.70
676.54	50775.58
676.68	50850.48
676.82	49984.48
676.96	50270.03
677.10	50108.53
677.23	50199.81
677.37	49989.16
677.51	50529.83
677.65	49741.06
677.79	48748.68
677.93	49193.38
678.07	49378.28
678.21	49216.78
678.34	49069.33
678.48	49092.74
678.62	48898.47
678.76	49029.54
678.90	48811.87
679.04	49111.46
679.18	48849.32
679.31	47988.00
679.45	48369.51
679.59	48231.42
679.73	48315.68
679.87	48151.84
680.00	47821.83
680.14	47566.71
680.28	47203.92
680.42	47445.00
680.56	47365.42
680.70	47119.66
680.83	47079.88
680.97	46784.97
681.11	46948.81
681.25	46625.81
681.39	46824.76
681.52	46436.23
681.66	46270.05
681.80	45890.88
681.94	45792.58
682.07	46312.18
682.21	45745.77
682.35	45848.75
682.49	45743.43
682.62	45357.24
682.76	45879.18
682.90	45635.77
683.04	45408.73
683.17	44912.54
683.31	44669.12
683.45	44889.13
683.59	44828.28
683.72	44512.31
683.86	44526.35
684.00	44287.62
684.13	44318.04
684.27	43983.35
684.41	43800.79
684.55	44102.71
684.68	43721.21
684.82	43791.42
684.96	43192.25
685.09	43313.95
685.23	43161.82
685.37	42092.19
685.50	42136.66
685.64	42869.25
685.78	42464.34
685.91	42562.64
686.05	41890.91
686.19	41378.33
686.32	41965.81
686.46	41364.29
686.60	40828.30
686.73	41174.70
686.87	40914.90
687.01	41305.77
687.14	40996.82
687.28	40526.38
687.42	40360.20
687.55	40512.33
687.69	40570.85
687.82	40088.70
687.96	39924.86
688.10	40154.23
688.23	40369.56
688.37	39477.82
688.50	39108.01
688.64	39548.03
688.78	39129.08
688.91	38501.81
689.05	38759.27
689.18	38808.42
689.32	37933.06
689.46	37933.06
689.59	37813.70
689.73	38078.18
689.86	37827.74
690.00	37331.54
690.13	37811.35
690.27	37963.49
690.41	37668.58
690.54	37153.66
690.68	36858.76
690.81	37404.10
690.95	36905.57
691.08	36575.55
691.22	36191.70
691.35	36617.68
691.49	36554.49
691.62	36397.67
691.76	35838.28
691.89	35468.48
692.03	35323.36
692.16	35498.91
692.30	35559.76
692.43	35526.99
692.57	35257.83
692.70	34607.16
692.84	34799.08
692.97	34822.49
693.11	34565.03
693.24	34691.42
693.38	34291.19
693.51	33420.51
693.65	33902.66
693.78	33584.35
693.92	33450.94
694.05	33862.87
694.19	33488.38
694.32	33294.12
694.45	32732.39
694.59	33003.89
694.72	33027.30
694.86	32606.00
694.99	32811.97
695.13	32240.88
695.26	32240.88
695.39	31805.54
695.53	32393.01
695.66	31920.23
695.80	31487.23
695.93	31550.42
696.07	31075.29
696.20	30668.04
696.33	30953.58
696.47	31115.08
696.60	30944.22
696.73	30522.93
696.87	30822.51
697.00	30171.85
697.14	30178.87
697.27	30237.38
697.40	30031.41
697.54	30260.79
697.67	30080.56
697.80	29474.37
697.94	29263.72
698.07	29256.70
698.21	29226.27
698.34	28879.87
698.47	28734.76
698.61	28453.89
698.74	28926.68
698.87	28570.92
699.01	27946.00
699.14	28187.07
699.27	28376.66
699.40	28217.50
699.54	27978.76
699.67	28217.50
699.80	27866.42
699.94	27517.68
700.07	27653.43
700.20	27197.02
700.34	26707.85
700.47	26843.60
700.60	26441.03
700.73	26377.84
700.87	26059.52
701.00	25968.24
701.13	26164.85
701.26	26052.50
701.40	26054.84
701.53	26258.47
701.66	26012.71
701.79	25394.81
701.93	25191.19
702.06	25195.87
702.19	25177.14
702.32	25390.13
702.46	24964.15
702.59	24650.52
702.72	24311.14
702.85	24922.02
702.99	24566.26
703.12	24547.54
703.25	24173.05
703.38	23845.38
703.51	23903.89
703.65	23882.83
703.78	23634.73
703.91	23328.12
704.04	23608.98
704.17	23477.91
704.31	23199.39
704.44	22895.12
704.57	22857.67
704.70	22754.69
704.83	22670.43
704.96	22714.90
705.10	22555.74
705.23	22527.66
>>>>>End Processed Spectral Data<<<<<
