SpectraSuite Data File
++++++++++++++++++++++++++++++++++++
Date: Fri Oct 25 11:23:31 EDT 2013
User: price-jones
Dark Spectrum Present: No
Reference Spectrum Present: No
Number of Sampled Component Spectra: 1
Spectrometers: USB2+H05261
Integration Time (usec): 100000 (USB2+H05261)
Spectra Averaged: 1 (USB2+H05261)
Boxcar Smoothing: 0 (USB2+H05261)
Correct for Electrical Dark: No (USB2+H05261)
Strobe/Lamp Enabled: No (USB2+H05261)
Correct for Detector Non-linearity: No (USB2+H05261)
Correct for Stray Light: No (USB2+H05261)
Number of Pixels in Processed Spectrum: 2048
>>>>>Begin Processed Spectral Data<<<<<
365.73	248.10
365.92	248.10
366.12	248.10
366.32	189.58
366.52	152.13
366.72	88.94
366.91	145.11
367.11	65.54
367.31	72.56
367.51	60.85
367.70	105.32
367.90	21.06
368.10	175.54
368.30	126.39
368.49	126.39
368.69	173.20
368.89	208.31
369.09	142.77
369.28	117.03
369.48	135.75
369.68	170.86
369.87	191.92
370.07	152.13
370.27	191.92
370.47	276.18
370.66	540.66
370.86	540.66
371.06	674.07
371.25	643.65
371.45	617.90
371.65	685.78
371.84	702.16
372.04	718.54
372.24	697.48
372.44	725.57
372.63	671.73
372.83	727.91
373.03	777.06
373.22	746.63
373.42	788.76
373.62	741.95
373.81	866.00
374.01	826.21
374.21	807.48
374.40	758.33
374.60	823.87
374.79	791.10
374.99	812.17
375.19	833.23
375.38	800.46
375.58	800.46
375.78	781.74
375.97	880.04
376.17	952.60
376.37	947.92
376.56	844.93
376.76	812.17
376.95	858.98
377.15	807.48
377.35	910.47
377.54	873.02
377.74	844.93
377.93	802.80
378.13	952.60
378.33	968.98
378.52	866.00
378.72	959.62
378.91	912.81
379.11	889.40
379.31	952.60
379.50	947.92
379.70	966.64
379.89	1020.47
380.09	940.90
380.28	1006.43
380.48	1039.20
380.68	950.26
380.87	999.41
381.07	1013.45
381.26	947.92
381.46	1071.97
381.65	1076.65
381.85	1032.18
382.04	1137.50
382.24	990.05
382.43	968.98
382.63	1041.54
382.83	1083.67
383.02	1004.09
383.22	1116.44
383.41	1128.14
383.61	1074.31
383.80	1118.78
384.00	1146.86
384.19	1093.03
384.39	1146.86
384.58	1196.01
384.78	1198.35
384.97	1212.40
385.17	1210.06
385.36	1146.86
385.56	1151.54
385.75	1163.25
385.95	1172.61
386.14	1233.46
386.34	1210.06
386.53	1224.10
386.72	1224.10
386.92	1210.06
387.11	1303.68
387.31	1228.78
387.50	1184.31
387.70	1275.59
387.89	1348.15
388.09	1268.57
388.28	1324.74
388.48	1308.36
388.67	1256.87
388.86	1343.47
389.06	1263.89
389.25	1263.89
389.45	1315.38
389.64	1287.29
389.84	1348.15
390.03	1322.40
390.22	1394.96
390.42	1313.04
390.61	1430.07
390.81	1425.39
391.00	1446.45
391.19	1507.30
391.39	1416.02
391.58	1371.55
391.78	1458.15
391.97	1582.20
392.16	1502.62
392.36	1570.50
392.55	1504.96
392.75	1404.32
392.94	1371.55
393.13	1521.35
393.33	1547.09
393.52	1462.83
393.71	1558.80
393.91	1614.97
394.10	1575.18
394.29	1535.39
394.49	1586.88
394.68	1563.48
394.88	1708.59
395.07	1734.34
395.26	1657.10
395.46	1741.36
395.65	1734.34
395.84	1692.21
396.04	1837.32
396.23	1762.42
396.42	1741.36
396.62	1781.15
396.81	1827.96
397.00	1771.79
397.19	1846.68
397.39	1741.36
397.58	1736.68
397.77	1839.66
397.97	1858.39
398.16	1909.88
398.35	1881.79
398.55	1886.47
398.74	1867.75
398.93	1886.47
399.12	1900.52
399.32	1928.60
399.51	1893.49
399.70	1942.64
399.90	1961.37
400.09	1961.37
400.28	2090.10
400.47	2115.84
400.67	2069.03
400.86	2108.82
401.05	2143.93
401.24	2078.40
401.44	2188.40
401.63	2174.36
401.82	2211.81
402.01	2083.08
402.21	2197.76
402.40	2165.00
402.59	2263.30
402.78	2277.34
402.97	2120.53
403.17	2174.36
403.36	2258.62
403.55	2305.43
403.74	2401.39
403.93	2363.94
404.13	2403.73
404.32	2303.09
404.51	2422.45
404.70	2370.96
404.89	2289.04
405.09	2389.69
405.28	2469.27
405.47	2335.85
405.66	2427.14
405.85	2483.31
406.05	2424.80
406.24	2607.36
406.43	2506.71
406.62	2630.76
406.81	2626.08
407.00	2590.97
407.20	2527.78
407.39	2644.81
407.58	2717.36
407.77	2717.36
407.96	2698.64
408.15	2757.15
408.34	2738.43
408.54	2686.94
408.73	2810.98
408.92	2925.67
409.11	2928.01
409.30	3000.57
409.49	2916.31
409.68	3012.27
409.87	3007.59
410.07	2913.97
410.26	2885.88
410.45	3021.63
410.64	3136.32
410.83	3016.95
411.02	3122.27
411.21	3365.69
411.40	3190.15
411.59	3208.87
411.78	3187.81
411.98	3117.59
412.17	3370.37
412.36	3311.86
412.55	3353.99
412.74	3372.71
412.93	3454.63
413.12	3274.41
413.31	3442.93
413.50	3461.65
413.69	3648.90
413.88	3721.45
414.07	3566.98
414.26	3747.20
414.45	3658.26
414.64	3742.52
414.83	3765.92
415.02	3768.26
415.22	3822.09
415.41	3768.26
415.60	3901.67
415.79	3826.78
415.98	3974.23
416.17	3992.95
416.36	3964.87
416.55	3950.82
416.74	4124.02
416.93	4007.00
417.12	4053.81
417.31	4234.03
417.50	4156.79
417.69	4243.39
417.88	4306.59
418.07	4320.63
418.26	4224.67
418.45	4236.37
418.64	4482.13
418.83	4430.63
419.02	4514.89
419.21	4475.10
419.39	4641.28
419.58	4550.00
419.77	4458.72
419.96	4589.79
420.15	4463.40
420.34	4606.17
420.53	4468.08
420.72	4805.12
420.91	4746.61
421.10	4688.09
421.29	4741.93
421.48	4755.97
421.67	4711.50
421.86	4781.71
422.05	4807.46
422.24	4791.08
422.43	4760.65
422.61	4786.40
422.80	4936.19
422.99	4933.85
423.18	5053.22
423.37	5135.14
423.56	4983.00
423.75	4873.00
423.94	4943.21
424.13	4919.81
424.32	4873.00
424.50	4990.02
424.69	5093.01
424.88	5041.51
425.07	4926.83
425.26	4919.81
425.45	4844.91
425.64	5008.75
425.83	5020.45
426.01	5107.05
426.20	5200.67
426.39	5132.79
426.58	5050.88
426.77	5090.67
426.96	5139.82
427.15	5090.67
427.33	5107.05
427.52	5093.01
427.71	5301.31
427.90	5203.01
428.09	5203.01
428.28	5315.36
428.46	5371.53
428.65	5460.47
428.84	5619.63
429.03	5469.83
429.22	5383.23
429.40	5535.37
429.59	5432.38
429.78	5291.95
429.97	5210.03
430.16	5577.50
430.34	5472.17
430.53	5715.59
430.72	5701.54
430.91	5540.05
431.10	5568.13
431.28	5916.87
431.47	5839.64
431.66	5977.73
431.85	5923.90
432.03	5870.06
432.22	6008.16
432.41	5940.28
432.60	5923.90
432.79	5900.49
432.97	6087.73
433.16	5989.43
433.35	6043.26
433.54	6232.85
433.72	6279.66
433.91	6216.46
434.10	6059.65
434.28	6080.71
434.47	6202.42
434.66	6317.11
434.85	6445.84
435.03	6361.58
435.22	6087.73
435.41	6394.34
435.59	6253.91
435.78	6434.13
435.97	6366.26
436.16	6459.88
436.34	6473.92
436.53	6562.86
436.72	6670.53
436.90	6441.15
437.09	6565.20
437.28	6443.49
437.46	6761.81
437.65	6729.04
437.84	6719.68
438.02	6691.59
438.21	6724.36
438.40	6635.42
438.58	6897.56
438.77	7112.89
438.96	7091.82
439.14	7173.74
439.33	7108.21
439.52	7281.41
439.70	7288.43
439.89	7293.11
440.08	7461.63
440.26	7267.36
440.45	7524.82
440.63	7522.48
440.82	7681.64
441.01	7485.03
441.19	7681.64
441.38	7798.66
441.57	7756.54
441.75	7679.30
441.94	7971.86
442.12	7995.27
442.31	8147.40
442.50	8163.79
442.68	7992.93
442.87	8067.83
443.05	8084.21
443.24	8346.35
443.43	8119.32
443.61	8180.17
443.80	8580.40
443.98	8189.53
444.17	8011.65
444.35	8334.65
444.54	8512.53
444.73	8208.26
444.91	8423.59
445.10	8477.42
445.28	8383.80
445.47	8187.19
445.65	8507.85
445.84	8542.96
446.02	8601.47
446.21	8451.67
446.39	8482.10
446.58	8479.76
446.77	8552.32
446.95	8311.24
447.14	8456.36
447.32	8762.97
447.51	8674.03
447.69	8491.46
447.88	8629.56
448.06	8659.98
448.25	8566.36
448.43	8498.49
448.62	8547.64
448.80	8601.47
448.99	8524.23
449.17	8870.63
449.36	8571.04
449.54	8990.00
449.73	8964.25
449.91	8898.72
450.10	8842.54
450.28	9221.71
450.46	9032.13
450.65	9282.56
450.83	9212.35
451.02	9041.49
451.20	9160.86
451.39	9329.38
451.57	9238.09
451.76	9327.03
451.94	9359.80
452.13	9217.03
452.31	9289.59
452.49	9151.49
452.68	9378.53
452.86	9383.21
453.05	9561.09
453.23	9530.66
453.42	9533.00
453.60	9486.19
453.78	9549.39
453.97	9277.88
454.15	9516.62
454.34	9558.75
454.52	9734.29
454.70	9488.53
454.89	9741.31
455.07	9905.15
455.26	9806.84
455.44	9928.55
455.62	9776.42
455.81	9874.72
455.99	9834.93
456.17	9919.19
456.36	10148.56
456.54	10214.10
456.73	10260.91
456.91	10450.49
457.09	10389.64
457.28	10665.82
457.46	10251.55
457.64	10494.96
457.83	10504.32
458.01	10457.51
458.19	10710.29
458.38	10310.06
458.56	10415.38
458.74	10565.18
458.93	10707.95
459.11	10789.87
459.29	10808.59
459.48	10714.97
459.66	10920.94
459.84	10799.23
460.03	11178.40
460.21	11021.58
460.39	11052.01
460.57	11140.95
460.76	11117.54
460.94	11187.76
461.12	11220.53
461.31	11267.34
461.49	11260.32
461.67	11335.21
461.85	11412.45
462.04	11080.10
462.22	11749.49
462.40	11520.12
462.59	11613.74
462.77	11403.09
462.95	11536.50
463.13	11604.38
463.32	11644.17
463.50	11735.45
463.68	11800.98
463.86	11833.75
464.05	11721.40
464.23	11695.66
464.41	11817.36
464.59	11822.05
464.78	12049.08
464.96	11932.05
465.14	11843.11
465.32	12112.27
465.50	12210.57
465.69	12002.27
465.87	11934.39
466.05	12147.38
466.23	12194.19
466.41	12325.26
466.60	12414.20
466.78	12271.43
466.96	12201.21
467.14	12311.22
467.32	12358.03
467.51	12795.71
467.69	12280.79
467.87	12379.09
468.05	12659.96
468.23	12524.21
468.41	12533.57
468.60	12769.96
468.78	12666.98
468.96	12638.89
469.14	12849.54
469.32	13083.59
469.50	12489.10
469.69	13123.38
469.87	13303.60
470.05	13067.21
470.23	13231.05
470.41	13050.83
470.59	13181.90
470.77	13202.96
470.95	13535.32
471.14	13493.19
471.32	13116.36
471.50	13628.94
471.68	13731.92
471.86	13654.69
472.04	13764.69
472.22	13994.06
472.40	13752.99
472.58	14113.43
472.77	13877.04
472.95	14228.12
473.13	14525.36
473.31	14118.11
473.49	14214.07
473.67	14499.62
473.85	14251.52
474.03	14506.64
474.21	14803.89
474.39	14841.34
474.57	14719.63
474.75	14946.66
474.93	15051.99
475.12	14927.94
475.30	15108.16
475.48	14934.96
475.66	15372.64
475.84	15349.23
476.02	15272.00
476.20	15445.20
476.38	15927.35
476.56	16004.58
476.74	15915.64
476.92	15948.41
477.10	15882.88
477.28	15932.03
477.46	15936.71
477.64	16191.83
477.82	16664.61
478.00	16842.50
478.18	16702.06
478.36	16959.52
478.54	17315.28
478.72	17130.38
478.90	17247.41
479.08	17937.87
479.26	17685.09
479.44	17685.09
479.62	17963.61
479.80	17914.46
479.98	18284.26
480.16	18656.41
480.34	18171.92
480.52	18719.60
480.70	18520.66
480.88	18415.34
481.06	18560.45
481.24	18995.79
481.41	19297.72
481.59	19208.78
481.77	19845.40
481.95	19676.88
482.13	19623.05
482.31	19765.82
482.49	20285.42
482.67	20074.77
482.85	20570.97
483.03	20709.06
483.21	20823.75
483.39	20800.34
483.57	20779.28
483.74	21373.77
483.92	21523.57
484.10	21380.79
484.28	21675.70
484.46	22061.89
484.64	22375.52
484.82	21970.61
485.00	22317.01
485.18	23030.87
485.35	23061.30
485.53	23070.66
485.71	22934.91
485.89	23433.44
486.07	23187.69
486.25	23356.21
486.43	23850.06
486.61	23981.13
486.78	24369.66
486.96	24161.35
487.14	24903.30
487.32	24615.41
487.50	24821.38
487.68	24833.08
487.85	25097.56
488.03	25310.55
488.21	25848.88
488.39	26115.70
488.57	26387.20
488.75	26387.20
488.92	26778.07
489.10	27143.19
489.28	27175.96
489.46	27379.59
489.64	27089.36
489.81	27913.23
489.99	27751.73
490.17	27711.94
490.35	27957.70
490.53	28584.96
490.70	28484.32
490.88	28357.93
491.06	29240.31
491.24	28929.02
491.41	29069.45
491.59	29193.50
491.77	29408.83
491.95	29521.18
492.13	29933.11
492.30	30094.61
492.48	30125.04
492.66	30462.07
492.84	30452.71
493.01	31126.78
493.19	30761.66
493.37	31131.47
493.54	31452.12
493.72	31583.19
493.90	31555.10
494.08	31819.58
494.25	32149.60
494.43	32194.07
494.61	32191.73
494.79	32666.86
494.96	32367.27
495.14	32690.26
495.32	33317.53
495.49	33383.06
495.67	33186.46
495.85	33607.75
496.02	33989.26
496.20	34511.20
496.38	34415.24
496.55	34239.70
496.73	35250.81
496.91	34403.53
497.09	35171.23
497.26	35187.61
497.44	35115.06
497.62	35112.72
497.79	36184.68
497.97	35721.26
498.14	36341.50
498.32	36268.94
498.50	35985.74
498.67	36552.15
498.85	36795.56
499.03	36577.89
499.20	37013.23
499.38	37020.25
499.56	37141.96
499.73	37586.66
499.91	37542.19
500.08	38024.34
500.26	37570.28
500.44	37663.90
500.61	37865.19
500.79	37834.76
500.97	38604.80
501.14	39063.54
501.32	38735.87
501.49	38675.01
501.67	39339.72
501.84	39124.40
502.02	38995.67
502.20	38824.81
502.37	39541.01
502.55	39372.49
502.72	39810.17
502.90	39941.24
503.07	39770.38
503.25	39887.41
503.43	39463.77
503.60	40081.67
503.78	40624.68
503.95	40332.11
504.13	40442.12
504.30	40678.51
504.48	40655.11
504.65	40938.31
504.83	41230.88
505.01	41469.61
505.18	41214.49
505.36	41703.67
505.53	41404.08
505.71	41586.64
505.88	42150.71
506.06	41801.97
506.23	42108.58
506.41	41673.24
506.58	42052.41
506.76	42410.51
506.93	42305.18
507.11	42469.02
507.28	42698.39
507.46	42731.16
507.63	42827.12
507.81	43274.16
507.98	42869.25
508.16	43285.87
508.33	43606.52
508.50	44027.82
508.68	43569.07
508.85	44231.44
509.03	44362.51
509.20	44446.77
509.38	44575.50
509.55	44542.74
509.73	44608.27
509.90	45139.57
510.08	44959.35
510.25	44477.20
510.42	44732.32
510.60	44877.43
510.77	45741.09
510.95	45535.12
511.12	45186.38
511.30	44996.80
511.47	45921.31
511.64	45626.40
511.82	46284.09
511.99	45350.22
512.17	46349.63
512.34	45928.33
512.51	46635.17
512.69	46766.24
512.86	46218.56
513.04	47124.35
513.21	46803.69
513.38	46927.74
513.56	47370.10
513.73	46993.28
513.90	47470.75
514.08	47105.62
514.25	47271.80
514.43	47580.75
514.60	47697.78
514.77	47667.35
514.95	48191.63
515.12	47615.86
515.29	47782.04
515.47	48088.65
515.64	48016.09
515.81	48142.48
515.99	48205.67
516.16	48566.12
516.33	48355.47
516.51	48945.28
516.68	48591.86
516.85	49022.52
517.03	49134.87
517.20	49200.40
517.37	48774.42
517.54	48732.29
517.72	49368.92
517.89	49041.24
518.06	49354.88
518.24	49298.70
518.41	49537.44
518.58	49521.05
518.75	49296.36
518.93	49258.91
519.10	49441.48
519.27	49584.25
519.45	49928.31
519.62	50237.26
519.79	50092.15
519.96	50115.55
520.14	50302.79
520.31	49935.33
520.48	50571.96
520.65	50410.46
520.83	50717.07
521.00	50679.62
521.17	50653.87
521.34	51206.24
521.52	51079.85
521.69	50892.61
521.86	51089.21
522.03	51449.66
522.20	51290.50
522.38	51704.77
522.55	51271.78
522.72	51306.88
522.89	51442.63
523.07	51704.77
523.24	51379.44
523.41	51999.68
523.58	51725.84
523.75	52264.16
523.92	52322.68
524.10	52114.37
524.27	52163.52
524.44	52285.23
524.61	51999.68
524.78	52140.11
524.96	52168.20
525.13	52512.26
525.30	52582.48
525.47	52683.12
525.64	52629.29
525.81	52889.09
525.98	52750.99
526.16	52914.83
526.33	53006.11
526.50	53160.59
526.67	53195.70
526.84	53052.92
527.01	52907.81
527.18	52807.17
527.36	53139.52
527.53	53345.49
527.70	53818.28
527.87	53462.52
528.04	53219.10
528.21	53242.51
528.38	53439.11
528.55	53902.54
528.72	53544.44
528.89	53499.97
529.07	53399.32
529.24	53607.63
529.41	54045.31
529.58	53860.41
529.75	53616.99
529.92	53965.73
530.09	53776.15
530.26	54145.95
530.43	54204.47
530.60	53801.89
530.77	53855.73
530.94	54145.95
531.11	54113.19
531.28	54309.79
531.46	54227.87
531.63	54422.14
531.80	54344.90
531.97	54588.31
532.14	54763.85
532.31	54574.27
532.48	54838.75
532.65	54597.68
532.82	54717.04
532.99	54962.80
533.16	54869.18
533.33	54880.88
533.50	55051.74
533.67	55007.27
533.84	54866.84
534.01	54763.85
534.18	54986.21
534.35	55505.80
534.52	55133.66
534.69	55164.09
534.86	55224.94
535.03	55274.09
535.20	55260.05
535.37	55508.14
535.54	55421.55
535.71	55433.25
535.88	55608.79
536.05	55657.94
536.22	55608.79
536.38	55861.57
536.55	55786.67
536.72	55697.73
536.89	55639.22
537.06	55667.30
537.23	56048.81
537.40	55751.56
537.57	55800.71
537.74	56046.47
537.91	56086.26
538.08	56046.47
538.25	55765.60
538.42	55753.90
538.59	56280.52
538.75	55753.90
538.92	56121.37
539.09	56296.91
539.26	56175.20
539.43	56086.26
539.60	56051.15
539.77	56378.82
539.94	56699.48
540.11	56589.47
540.28	56570.75
540.44	56399.89
540.61	56652.67
540.78	56381.16
540.95	56339.04
541.12	56535.64
541.29	56629.26
541.46	56671.39
541.62	56662.03
541.79	56669.05
541.96	56636.28
542.13	56594.15
542.30	56863.32
542.47	57083.33
542.63	57080.98
542.80	57162.90
542.97	57212.06
543.14	57499.94
543.31	57415.68
543.48	57195.67
543.64	57708.25
543.81	57504.62
543.98	57469.51
544.15	57396.96
544.32	57689.52
544.48	57682.50
544.65	57476.54
544.82	57467.17
544.99	57460.15
545.16	57808.89
545.32	57429.72
545.49	57708.25
545.66	57904.85
545.83	57631.01
546.00	57855.70
546.16	57813.57
546.33	57666.12
546.50	57359.51
546.67	57853.36
546.83	57528.03
547.00	57939.96
547.17	57771.44
547.34	57975.07
547.50	58012.52
547.67	58176.36
547.84	58094.44
548.00	58106.14
548.17	58223.17
548.34	58281.68
548.51	58199.76
548.67	58391.68
548.84	58230.19
549.01	58216.14
549.18	58164.65
549.34	58391.68
549.51	58344.87
549.68	58450.20
549.84	58525.10
550.01	58454.88
550.18	58377.64
550.34	58410.41
550.51	58663.19
550.68	58700.64
550.84	58335.51
551.01	58691.27
551.18	58616.38
551.34	58841.07
551.51	58583.61
551.68	58754.47
551.84	58941.71
552.01	58599.99
552.18	58824.68
552.34	58581.27
552.51	58710.00
552.68	58581.27
552.84	58841.07
553.01	58997.88
553.18	58890.22
553.34	58862.13
553.51	58766.17
553.67	58805.96
553.84	59194.49
554.01	59100.87
554.17	59035.33
554.34	59194.49
554.51	59047.04
554.67	59306.83
554.84	58965.12
555.00	58953.41
555.17	59025.97
555.33	59236.62
555.50	59096.19
555.67	59234.28
555.83	59030.65
556.00	59271.73
556.16	59524.50
556.33	59440.24
556.50	59152.36
556.66	59543.23
556.83	59227.26
556.99	59655.57
557.16	59557.27
557.32	59524.50
557.49	59578.34
557.65	59100.87
557.82	59540.89
557.98	59379.39
558.15	59585.36
558.32	59566.63
558.48	59599.40
558.65	59671.96
558.81	59557.27
558.98	59552.59
559.14	59643.87
559.31	59826.43
559.47	59774.94
559.64	59763.24
559.80	59976.23
559.97	59824.09
560.13	59714.09
560.30	59863.88
560.46	59732.81
560.63	59884.95
560.79	59873.24
560.96	59784.30
561.12	60039.42
561.29	60046.44
561.45	59875.58
561.61	59891.97
561.78	59971.55
561.94	59906.01
562.11	59934.10
562.27	59976.23
562.44	59999.63
562.60	60231.35
562.77	60058.15
562.93	59835.80
563.10	60079.21
563.26	60027.72
563.42	60348.37
563.59	60259.43
563.75	60044.10
563.92	60097.94
564.08	60016.02
564.24	60317.95
564.41	60048.78
564.57	60369.44
564.74	60130.70
564.90	60346.03
565.07	60102.62
565.23	60247.73
565.39	60198.58
565.56	60374.12
565.72	60135.38
565.88	60247.73
566.05	60203.26
566.21	60231.35
566.38	60346.03
566.54	60221.98
566.70	60463.06
566.87	60404.55
567.03	60170.49
567.19	60481.78
567.36	60472.42
567.52	60238.37
567.68	60610.51
567.85	60615.19
568.01	60413.91
568.17	60423.27
568.34	60479.44
568.50	60329.65
568.66	60413.91
568.83	60610.51
568.99	60371.78
569.15	60353.05
569.32	60212.62
569.48	60549.66
569.64	60643.28
569.81	60463.06
569.97	60376.46
570.13	60626.90
570.30	60439.65
570.46	60619.88
570.62	60640.94
570.78	60474.76
570.95	60566.04
571.11	60800.10
571.27	60533.28
571.43	60514.55
571.60	60692.43
571.76	60542.64
571.92	60678.39
572.09	60516.89
572.25	60795.42
572.41	60598.81
572.57	60676.05
572.74	60797.76
572.90	60783.71
573.06	60856.27
573.22	60814.14
573.38	60640.94
573.55	60619.88
573.71	61027.13
573.87	60722.86
574.03	60566.04
574.20	60704.13
574.36	60664.35
574.52	60816.48
574.68	60928.83
574.84	61029.47
575.01	60926.49
575.17	60608.17
575.33	60912.44
575.49	60734.56
575.65	60933.51
575.82	60870.31
575.98	60692.43
576.14	61130.11
576.30	61123.09
576.46	60949.89
576.62	61050.53
576.79	60776.69
576.95	60743.92
577.11	60931.17
577.27	60814.14
577.43	60935.85
577.59	60980.32
577.75	60858.61
577.92	60903.08
578.08	60914.78
578.24	60821.16
578.40	60989.68
578.56	60928.83
578.72	60917.12
578.88	61022.45
579.04	61052.87
579.21	60956.91
579.37	61099.68
579.53	61165.22
579.69	60699.45
579.85	60956.91
580.01	60919.46
580.17	60914.78
580.33	61041.17
580.49	61235.44
580.65	60985.00
580.82	60912.44
580.98	60914.78
581.14	60914.78
581.30	60956.91
581.46	60977.98
581.62	60919.46
581.78	60877.33
581.94	61024.79
582.10	60947.55
582.26	60856.27
582.42	61083.30
582.58	60966.27
582.74	61043.51
582.90	61146.50
583.06	60989.68
583.22	61031.81
583.38	61064.58
583.54	61151.18
583.70	61034.15
583.86	61087.98
584.02	60961.59
584.18	61179.26
584.34	60914.78
584.50	61062.24
584.66	60949.89
584.82	60907.76
584.98	61113.73
585.14	61244.80
585.30	60926.49
585.46	61104.37
585.62	61059.90
585.78	61160.54
585.94	60966.27
586.10	61001.38
586.26	61275.22
586.42	61364.17
586.58	61338.42
586.74	61188.63
586.90	61080.96
587.06	60942.87
587.22	61347.78
587.38	61165.22
587.54	61242.46
587.70	61382.89
587.86	61247.14
588.02	61190.97
588.18	61263.52
588.34	61022.45
588.49	61219.05
588.65	61017.77
588.81	61207.35
588.97	61518.64
589.13	61158.20
589.29	61298.63
589.45	61415.66
589.61	61457.79
589.77	61567.79
589.93	61460.13
590.08	61401.61
590.24	61446.08
590.40	61616.94
590.56	61609.92
590.72	61483.53
590.88	61364.17
591.04	61476.51
591.20	61408.64
591.35	61457.79
591.51	61710.56
591.67	61422.68
591.83	61549.07
591.99	61371.19
592.15	61382.89
592.31	61389.91
592.46	61687.16
592.62	61579.49
592.78	61490.55
592.94	61647.37
593.10	61605.24
593.26	61535.02
593.41	61518.64
593.57	61476.51
593.73	61586.52
593.89	61726.95
594.05	61626.31
594.20	61635.67
594.36	61645.03
594.52	61654.39
594.68	61364.17
594.84	61408.64
594.99	61733.97
595.15	61497.58
595.31	61708.22
595.47	61441.40
595.62	61556.09
595.78	61684.82
595.94	61736.31
596.10	61923.55
596.25	61652.05
596.41	61797.16
596.57	61628.65
596.73	61687.16
596.88	61549.07
597.04	61560.77
597.20	61701.20
597.36	61946.96
597.51	61853.34
597.67	61677.80
597.83	61607.58
597.99	61757.38
598.14	61656.73
598.30	61904.83
598.46	61773.76
598.61	61867.38
598.77	61656.73
598.93	61762.06
599.09	61638.01
599.24	61888.45
599.40	62206.76
599.56	61759.72
599.71	61829.93
599.87	61888.45
600.03	61851.00
600.18	61715.25
600.34	61602.90
600.50	61883.76
600.65	61834.61
600.81	61928.23
600.97	61836.95
601.12	61776.10
601.28	61593.54
601.44	61715.25
601.59	61801.85
601.75	62042.92
601.91	61951.64
602.06	61944.62
602.22	62094.41
602.37	61757.38
602.53	61928.23
602.69	61659.07
602.84	61865.04
603.00	61890.79
603.16	61949.30
603.31	61755.03
603.47	61886.10
603.62	61883.76
603.78	61736.31
603.94	61565.45
604.09	61745.67
604.25	61783.12
604.40	61886.10
604.56	61858.02
604.71	62042.92
604.87	61804.19
605.03	61836.95
605.18	61584.18
605.34	61759.72
605.49	61712.91
605.65	61942.28
605.80	62010.15
605.96	61900.15
606.12	61946.96
606.27	61993.77
606.43	61792.48
606.58	61961.00
606.74	61808.87
606.89	61736.31
607.05	61918.87
607.20	61886.10
607.36	61647.37
607.51	61593.54
607.67	61773.76
607.82	61740.99
607.98	61762.06
608.13	61822.91
608.29	61874.40
608.44	61656.73
608.60	61546.73
608.75	61694.18
608.91	61736.31
609.06	61476.51
609.22	61811.21
609.37	61612.26
609.53	61719.93
609.68	61680.14
609.84	61588.86
609.99	61764.40
610.15	61801.85
610.30	61932.92
610.46	61499.92
610.61	61715.25
610.76	61661.41
610.92	61654.39
611.07	61584.18
611.23	61656.73
611.38	61733.97
611.54	61635.67
611.69	61710.56
611.84	61577.15
612.00	61694.18
612.15	61605.24
612.31	61581.84
612.46	61506.94
612.62	61703.54
612.77	61593.54
612.92	61663.75
613.08	61483.53
613.23	61497.58
613.39	61542.05
613.54	61645.03
613.69	61630.99
613.85	61399.27
614.00	61602.90
614.15	61771.42
614.31	61448.42
614.46	61558.43
614.62	61382.89
614.77	61605.24
614.92	61511.62
615.08	61406.30
615.23	61385.23
615.38	61647.37
615.54	61350.12
615.69	61406.30
615.84	61586.52
616.00	61600.56
616.15	61490.55
616.30	61352.46
616.46	61207.35
616.61	61343.10
616.76	61490.55
616.92	61181.60
617.07	61378.21
617.22	61413.32
617.37	61408.64
617.53	61462.47
617.68	61602.90
617.83	61240.12
617.99	61469.49
618.14	61228.41
618.29	61183.94
618.45	61006.06
618.60	61223.73
618.75	61090.32
618.90	60996.70
619.06	61357.14
619.21	61406.30
619.36	61352.46
619.51	61160.54
619.67	61102.03
619.82	61230.75
619.97	61258.84
620.12	60903.08
620.28	60912.44
620.43	61069.26
620.58	61111.39
620.73	60989.68
620.89	61125.43
621.04	61223.73
621.19	61003.72
621.34	61165.22
621.49	61010.74
621.65	60973.30
621.80	61186.28
621.95	61022.45
622.10	61123.09
622.25	60926.49
622.41	60987.34
622.56	60956.91
622.71	61031.81
622.86	60872.65
623.01	60853.93
623.16	60910.10
623.32	60701.79
623.47	60973.30
623.62	61158.20
623.77	60886.70
623.92	61001.38
624.07	60828.18
624.23	60905.42
624.38	60734.56
624.53	60865.63
624.68	60809.46
624.83	60839.89
624.98	60956.91
625.13	60364.76
625.29	60786.05
625.44	60633.92
625.59	60559.02
625.74	60699.45
625.89	60589.45
626.04	60556.68
626.19	60404.55
626.34	60610.51
626.49	60315.61
626.65	60416.25
626.80	60640.94
626.95	60505.19
627.10	60383.48
627.25	60348.37
627.40	60346.03
627.55	60449.02
627.70	60402.21
627.85	60582.43
628.00	60449.02
628.15	60434.97
628.30	60306.24
628.45	60390.50
628.60	60301.56
628.76	60392.84
628.91	60390.50
629.06	60413.91
629.21	60451.36
629.36	60266.45
629.51	60259.43
629.66	60254.75
629.81	60048.78
629.96	60055.81
630.11	60245.39
630.26	60362.42
630.41	60341.35
630.56	60331.99
630.71	60280.50
630.86	60147.09
631.01	60233.69
631.16	60233.69
631.31	60025.38
631.46	59810.05
631.61	60144.75
631.76	60154.11
631.91	60116.66
632.06	59973.89
632.21	60065.17
632.36	60011.34
632.51	59898.99
632.66	59976.23
632.81	59824.09
632.96	59931.76
633.10	60004.31
633.25	60062.83
633.40	60048.78
633.55	59948.14
633.70	59700.04
633.85	59810.05
634.00	59753.88
634.15	59870.90
634.30	59700.04
634.45	60069.85
634.60	59950.48
634.75	59927.08
634.90	59767.92
635.05	59859.20
635.19	59711.75
635.34	59807.71
635.49	59669.62
635.64	59957.50
635.79	59688.34
635.94	59934.10
636.09	59695.36
636.24	59585.36
636.39	59646.21
636.53	59831.11
636.68	59477.69
636.83	59709.41
636.98	59746.86
637.13	59454.29
637.28	59676.64
637.43	59641.53
637.57	59473.01
637.72	59412.16
637.87	59599.40
638.02	59365.35
638.17	59788.98
638.32	59639.19
638.46	59358.33
638.61	59248.32
638.76	59311.52
638.91	59351.30
639.06	59388.75
639.20	59290.45
639.35	59241.30
639.50	59135.98
639.65	59267.05
639.80	59402.80
639.94	59220.23
640.09	59353.65
640.24	59412.16
640.39	59150.02
640.54	59241.30
640.68	59288.11
640.83	59344.28
640.98	59040.01
641.13	59107.89
641.27	59423.86
641.42	58894.90
641.57	58993.20
641.72	59105.55
641.86	58948.73
642.01	58962.78
642.16	59007.25
642.31	58822.34
642.45	59150.02
642.60	58955.75
642.75	59257.68
642.90	59119.59
643.04	58920.65
643.19	59032.99
643.34	58855.11
643.48	58986.18
643.63	58798.94
643.78	58869.15
643.93	59018.95
644.07	59089.16
644.22	58766.17
644.37	58555.52
644.51	58693.61
644.66	58880.86
644.81	58649.14
644.95	58810.64
645.10	58908.94
645.25	58899.58
645.39	58710.00
645.54	58630.42
645.69	58525.10
645.83	58761.49
645.98	58494.67
646.13	58796.60
646.27	58578.93
646.42	58562.54
646.57	58529.78
646.71	58684.25
646.86	58801.28
647.00	58787.24
647.15	58595.31
647.30	58553.18
647.44	58440.84
647.59	58695.95
647.74	58564.88
647.88	58679.57
648.03	58567.23
648.17	58599.99
648.32	58312.11
648.47	58438.50
648.61	58534.46
648.76	58548.50
648.90	58429.13
649.05	58482.97
649.20	58555.52
649.34	58543.82
649.49	58422.11
649.63	58326.15
649.78	58585.95
649.92	58382.32
650.07	58417.43
650.21	58314.45
650.36	58131.89
650.51	58190.40
650.65	58482.97
650.80	58284.02
650.94	58178.70
651.09	57993.79
651.23	57867.40
651.38	58174.02
651.52	58005.50
651.67	58101.46
651.81	58099.12
651.96	58099.12
652.10	58056.99
652.25	58071.03
652.39	58246.57
652.54	57748.04
652.68	57689.52
652.83	57785.49
652.97	57663.78
653.12	57719.95
653.26	58117.84
653.41	58152.95
653.55	57872.09
653.70	57963.37
653.84	57829.96
653.99	57848.68
654.13	57511.64
654.27	57844.00
654.42	57703.57
654.56	57741.02
654.71	57825.28
654.85	57792.51
655.00	57846.34
655.14	57764.42
655.29	57741.02
655.43	57556.11
655.57	57731.65
655.72	57572.50
655.86	57579.52
656.01	57532.71
656.15	57687.18
656.30	57696.55
656.44	57907.19
656.58	57698.89
656.73	57495.26
656.87	57722.29
657.01	57696.55
657.16	57839.32
657.30	57289.29
657.45	57385.25
657.59	57415.68
657.73	57095.03
657.88	57092.69
658.02	57291.63
658.16	57317.38
658.31	57516.32
658.45	57235.46
658.60	57237.80
658.74	57078.64
658.88	57195.67
659.03	56877.36
659.17	56970.98
659.31	57256.53
659.46	56956.94
659.60	57008.43
659.74	56790.76
659.89	56741.61
660.03	56947.57
660.17	57176.95
660.32	56973.32
660.46	56781.40
660.60	56762.67
660.74	56825.87
660.89	56837.57
661.03	56694.80
661.17	56828.21
661.32	56383.51
661.46	56495.85
661.60	56732.25
661.74	56596.49
661.89	56442.02
662.03	56451.38
662.17	56636.28
662.31	56465.42
662.46	56858.63
662.60	56481.81
662.74	56369.46
662.88	56264.14
663.03	56037.11
663.17	56214.99
663.31	55978.59
663.45	56280.52
663.60	55969.23
663.74	55482.40
663.88	55854.54
664.02	55887.31
664.17	55955.19
664.31	55735.18
664.45	55662.62
664.59	55894.33
664.73	55948.17
664.88	55676.66
665.02	55262.39
665.16	55767.94
665.30	55430.91
665.44	55276.43
665.59	55391.12
665.73	55159.41
665.87	55330.26
666.01	55473.04
666.15	55351.33
666.29	55304.52
666.44	55384.10
666.58	54894.92
666.72	55229.62
666.86	54763.85
667.00	55395.80
667.14	54934.71
667.28	54923.01
667.43	54719.38
667.57	55091.53
667.71	54927.69
667.85	54850.45
667.99	54658.53
668.13	54710.02
668.27	54576.61
668.41	54969.82
668.56	54614.06
668.70	54763.85
668.84	54351.92
668.98	54265.32
669.12	54494.69
669.26	54539.16
669.40	54497.03
669.54	54340.22
669.68	54237.23
669.82	53970.41
669.96	54251.28
670.10	54410.43
670.25	54403.41
670.39	54169.36
670.53	53736.36
670.67	53567.84
670.81	54220.85
670.95	54045.31
671.09	53563.16
671.23	53497.62
671.37	53478.90
671.51	53558.48
671.65	53783.17
671.79	53291.66
671.93	53364.21
672.07	53633.38
672.21	53221.44
672.35	53109.10
672.49	52928.87
672.63	53095.05
672.77	52942.92
672.91	52788.44
673.05	52711.20
673.19	52814.19
673.33	52575.45
673.47	52390.55
673.61	52968.66
673.75	52889.09
673.89	52196.29
674.03	52076.92
674.17	52264.16
674.31	51796.06
674.45	51952.87
674.59	51732.86
674.73	51899.04
674.87	51875.63
675.01	51655.62
675.15	51835.84
675.29	51503.49
675.43	52011.38
675.56	51325.61
675.70	51075.17
675.84	50990.91
675.98	50328.54
676.12	51033.04
676.26	51290.50
676.40	50932.40
676.54	51049.42
676.68	51065.81
676.82	50260.66
676.96	50780.26
677.10	50216.19
677.23	50136.62
677.37	50059.38
677.51	49986.82
677.65	49998.52
677.79	48774.42
677.93	49146.57
678.07	49029.54
678.21	49326.79
678.34	49230.83
678.48	49027.20
678.62	48533.35
678.76	49031.88
678.90	48552.07
679.04	48566.12
679.18	48718.25
679.31	48140.14
679.45	47814.80
679.59	48404.62
679.73	48252.48
679.87	47775.02
680.00	47510.53
680.14	47519.90
680.28	47250.74
680.42	47360.74
680.56	47157.11
680.70	46710.07
680.83	46763.90
680.97	47133.71
681.11	47227.33
681.25	46473.68
681.39	46611.77
681.52	46845.82
681.66	46277.07
681.80	46075.79
681.94	46136.64
682.07	45909.61
682.21	45495.33
682.35	45722.37
682.49	45474.27
682.62	45432.14
682.76	45738.75
682.90	45083.40
683.04	45106.80
683.17	44577.84
683.31	44739.34
683.45	44435.07
683.59	44570.82
683.72	44107.40
683.86	44332.09
684.00	44641.04
684.13	43885.04
684.27	44170.59
684.41	44271.23
684.55	43819.51
684.68	43938.88
684.82	43627.59
684.96	43171.18
685.09	42848.19
685.23	42974.58
685.37	42525.19
685.50	42707.76
685.64	42745.20
685.78	42864.57
685.91	42653.92
686.05	42171.77
686.19	41546.85
686.32	41631.11
686.46	41294.07
686.60	41092.79
686.73	41081.08
686.87	40928.95
687.01	41486.00
687.14	41221.52
687.28	40697.24
687.42	40865.75
687.55	39962.31
687.69	40620.00
687.82	39737.62
687.96	39501.22
688.10	39966.99
688.23	39927.20
688.37	39580.80
688.50	39138.44
688.64	38972.26
688.78	39409.94
688.91	38827.15
689.05	38780.34
689.18	39068.22
689.32	38263.08
689.46	37656.88
689.59	38265.42
689.73	37443.89
689.86	37783.27
690.00	37144.30
690.13	37949.45
690.27	37502.40
690.41	37722.41
690.54	37125.58
690.68	37139.62
690.81	36737.05
690.95	36800.24
691.08	36886.84
691.22	36439.80
691.35	36247.88
691.49	36598.96
691.62	36086.38
691.76	36098.08
691.89	35569.12
692.03	35967.01
692.16	35215.70
692.30	34998.03
692.43	35175.91
692.57	34637.59
692.70	34555.67
692.84	34618.86
692.97	34682.06
693.11	34960.58
693.24	34515.88
693.38	34174.16
693.51	33802.02
693.65	34246.72
693.78	33677.97
693.92	33504.77
694.05	33507.11
694.19	33308.16
694.32	33640.52
694.45	33457.96
694.59	32959.42
694.72	32720.69
694.86	32369.61
694.99	32381.31
695.13	31807.88
695.26	32264.28
695.39	31910.86
695.53	32226.84
695.66	32135.56
695.80	31459.14
695.93	31501.27
696.07	31152.53
696.20	30485.48
696.33	30738.26
696.47	31110.40
696.60	30806.13
696.73	30333.34
696.87	30705.49
697.00	30279.51
697.14	30649.32
697.27	29961.20
697.40	30075.88
697.54	30125.04
697.67	29788.00
697.80	29511.81
697.94	29443.94
698.07	29270.74
698.21	28692.63
698.34	29118.60
698.47	28800.29
698.61	28304.10
698.74	28528.79
698.87	28645.82
699.01	28236.22
699.14	28140.26
699.27	28285.37
699.40	28002.17
699.54	28151.96
699.67	28247.93
699.80	27494.27
699.94	27342.14
700.07	27545.76
700.20	27339.80
700.34	26639.98
700.47	26607.21
700.60	26721.90
700.73	26164.85
700.87	26019.74
701.00	26073.57
701.13	26352.09
701.26	25947.18
701.40	26143.78
701.53	25937.82
701.66	26089.95
701.79	25465.03
701.93	25216.93
702.06	25062.46
702.19	25235.66
702.32	25420.56
702.46	24877.55
702.59	24411.79
702.72	24631.80
702.85	24549.88
702.99	24570.94
703.12	24383.70
703.25	23999.85
703.38	23824.31
703.51	24016.24
703.65	23686.22
703.78	23220.45
703.91	23260.24
704.04	23576.22
704.17	23370.25
704.31	23129.17
704.44	22640.00
704.57	22988.74
704.70	22700.86
704.83	22764.05
704.96	22469.14
705.10	22225.73
705.23	22300.62
>>>>>End Processed Spectral Data<<<<<
