SpectraSuite Data File
++++++++++++++++++++++++++++++++++++
Date: Fri Oct 25 11:23:30 EDT 2013
User: price-jones
Dark Spectrum Present: No
Reference Spectrum Present: No
Number of Sampled Component Spectra: 1
Spectrometers: USB2+H05261
Integration Time (usec): 100000 (USB2+H05261)
Spectra Averaged: 1 (USB2+H05261)
Boxcar Smoothing: 0 (USB2+H05261)
Correct for Electrical Dark: No (USB2+H05261)
Strobe/Lamp Enabled: No (USB2+H05261)
Correct for Detector Non-linearity: No (USB2+H05261)
Correct for Stray Light: No (USB2+H05261)
Number of Pixels in Processed Spectrum: 2048
>>>>>Begin Processed Spectral Data<<<<<
365.73	194.26
365.92	194.26
366.12	194.26
366.32	88.94
366.52	142.77
366.72	107.66
366.91	156.82
367.11	133.41
367.31	95.96
367.51	114.69
367.70	135.75
367.90	142.77
368.10	77.24
368.30	173.20
368.49	124.05
368.69	177.88
368.89	107.66
369.09	147.45
369.28	110.01
369.48	161.50
369.68	138.09
369.87	163.84
370.07	133.41
370.27	283.20
370.47	397.89
370.66	531.30
370.86	589.82
371.06	688.12
371.25	709.18
371.45	557.05
371.65	688.12
371.84	671.73
372.04	741.95
372.24	723.23
372.44	732.59
372.63	716.20
372.83	723.23
373.03	809.83
373.22	744.29
373.42	685.78
373.62	870.68
373.81	765.36
374.01	835.57
374.21	723.23
374.40	863.66
374.60	760.67
374.79	814.51
374.99	830.89
375.19	823.87
375.38	866.00
375.58	866.00
375.78	887.06
375.97	905.79
376.17	919.83
376.37	866.00
376.56	896.43
376.76	896.43
376.95	807.48
377.15	873.02
377.35	882.38
377.54	898.77
377.74	947.92
377.93	816.85
378.13	896.43
378.33	880.04
378.52	980.68
378.72	912.81
378.91	898.77
379.11	940.90
379.31	915.15
379.50	926.85
379.70	929.19
379.89	1055.58
380.09	926.85
380.28	971.32
380.48	997.07
380.68	971.32
380.87	1039.20
381.07	1015.79
381.26	983.02
381.46	1013.45
381.65	990.05
381.85	1043.88
382.04	1095.37
382.24	1053.24
382.43	983.02
382.63	1144.52
382.83	1041.54
383.02	1111.75
383.22	1144.52
383.41	999.41
383.61	1151.54
383.80	1090.69
384.00	1142.18
384.19	1165.59
384.39	1149.20
384.58	1102.39
384.78	1086.01
384.97	1125.80
385.17	1156.22
385.36	1137.50
385.56	1170.27
385.75	1163.25
385.95	1221.76
386.14	1219.42
386.34	1174.95
386.53	1226.44
386.72	1128.14
386.92	1228.78
387.11	1219.42
387.31	1203.04
387.50	1172.61
387.70	1245.16
387.89	1137.50
388.09	1228.78
388.28	1170.27
388.48	1247.51
388.67	1289.64
388.86	1343.47
389.06	1315.38
389.25	1320.06
389.45	1432.41
389.64	1324.74
389.84	1352.83
390.03	1427.73
390.22	1383.26
390.42	1458.15
390.61	1301.34
390.81	1357.51
391.00	1476.88
391.19	1409.00
391.39	1458.15
391.58	1425.39
391.78	1409.00
391.97	1530.71
392.16	1502.62
392.36	1568.16
392.55	1500.28
392.75	1568.16
392.94	1598.59
393.13	1528.37
393.33	1458.15
393.52	1654.76
393.71	1575.18
393.91	1577.52
394.10	1528.37
394.29	1607.95
394.49	1521.35
394.68	1607.95
394.88	1516.67
395.07	1647.74
395.26	1647.74
395.46	1722.63
395.65	1692.21
395.84	1727.32
396.04	1734.34
396.23	1820.94
396.42	1732.00
396.62	1732.00
396.81	1750.72
397.00	1802.21
397.19	1804.55
397.39	1799.87
397.58	1813.92
397.77	1762.42
397.97	1834.98
398.16	1708.59
398.35	1970.73
398.55	1823.28
398.74	1912.22
398.93	1954.35
399.12	1959.03
399.32	1912.22
399.51	1881.79
399.70	2026.90
399.90	1959.03
400.09	2017.54
400.28	1991.80
400.47	1937.96
400.67	2143.93
400.86	2064.35
401.05	2071.37
401.24	2120.53
401.44	2176.70
401.63	2146.27
401.82	2181.38
402.01	2054.99
402.21	2092.44
402.40	2223.51
402.59	2146.27
402.78	2267.98
402.97	2277.34
403.17	2232.87
403.36	2242.23
403.55	2265.64
403.74	2314.79
403.93	2356.92
404.13	2321.81
404.32	2335.85
404.51	2392.03
404.70	2340.54
404.89	2478.63
405.09	2532.46
405.28	2445.86
405.47	2464.58
405.66	2511.39
405.85	2495.01
406.05	2537.14
406.24	2562.89
406.43	2544.16
406.62	2567.57
406.81	2654.17
407.00	2567.57
407.20	2628.42
407.39	2712.68
407.58	2595.65
407.77	2715.02
407.96	2731.41
408.15	2729.06
408.34	2614.38
408.54	2733.75
408.73	2778.22
408.92	2663.53
409.11	2972.48
409.30	2869.50
409.49	2951.42
409.68	2890.56
409.87	2979.50
410.07	3021.63
410.26	2836.73
410.45	3052.06
410.64	3091.85
410.83	3133.98
411.02	3052.06
411.21	3187.81
411.40	3258.03
411.59	3185.47
411.78	3248.66
411.98	3089.51
412.17	3241.64
412.36	3260.37
412.55	3400.80
412.74	3314.20
412.93	3428.88
413.12	3431.23
413.31	3681.66
413.50	3485.06
413.69	3545.91
413.88	3686.34
414.07	3548.25
414.26	3674.64
414.45	3566.98
414.64	3590.38
414.83	3705.07
415.02	3779.97
415.22	3824.44
415.41	3698.05
415.60	3796.35
415.79	4011.68
415.98	3939.12
416.17	3997.64
416.36	4004.66
416.55	4060.83
416.74	4112.32
416.93	4196.58
417.12	4056.15
417.31	4187.22
417.50	4215.30
417.69	4329.99
417.88	4283.18
418.07	4119.34
418.26	4245.73
418.45	4484.47
418.64	4493.83
418.83	4358.08
419.02	4437.66
419.21	4601.49
419.39	4587.45
419.58	4585.11
419.77	4372.12
419.96	4650.64
420.15	4601.49
420.34	4505.53
420.53	4652.98
420.72	4709.16
420.91	4627.24
421.10	4702.14
421.29	4720.86
421.48	4770.01
421.67	4863.63
421.86	4870.65
422.05	4718.52
422.24	4723.20
422.43	4779.37
422.61	4784.06
422.80	4863.63
422.99	4929.17
423.18	4968.96
423.37	4833.21
423.56	4912.78
423.75	4959.60
423.94	4821.50
424.13	4634.26
424.32	4781.71
424.50	5046.20
424.69	5093.01
424.88	5114.07
425.07	4746.61
425.26	4863.63
425.45	4933.85
425.64	4924.49
425.83	4896.40
426.01	4947.89
426.20	4952.57
426.39	5004.07
426.58	4985.34
426.77	5233.44
426.96	5116.41
427.15	5095.35
427.33	5179.61
427.52	5259.18
427.71	5282.59
427.90	5163.22
428.09	5343.44
428.28	5338.76
428.46	5352.81
428.65	5441.75
428.84	5504.94
429.03	5406.64
429.22	5336.42
429.40	5467.49
429.59	5535.37
429.78	5343.44
429.97	5277.91
430.16	5502.60
430.34	5612.60
430.53	5607.92
430.72	5671.12
430.91	5734.31
431.10	5741.33
431.28	5797.51
431.47	5879.43
431.66	5764.74
431.85	5804.53
432.03	5966.03
432.22	6073.69
432.41	5907.51
432.60	5778.78
432.79	6029.22
432.97	5881.77
433.16	6122.84
433.35	5886.45
433.54	6015.18
433.72	6127.52
433.91	6047.94
434.10	6249.23
434.28	6111.14
434.47	6314.77
434.66	6218.80
434.85	6384.98
435.03	6413.07
435.22	6544.14
435.41	6392.00
435.59	6410.73
435.78	6342.85
435.97	6478.60
436.16	6534.78
436.34	6595.63
436.53	6565.20
436.72	6553.50
436.90	6377.96
437.09	6754.79
437.28	6541.80
437.46	6574.56
437.65	6679.89
437.84	6630.74
438.02	6743.08
438.21	6867.13
438.40	6733.72
438.58	6810.96
438.77	6932.67
438.96	6899.90
439.14	7227.57
439.33	7281.41
439.52	7239.28
439.70	7197.15
439.89	7295.45
440.08	7445.24
440.26	7304.81
440.45	7267.36
440.63	7424.18
440.82	7552.91
441.01	7595.04
441.19	7632.49
441.38	7669.94
441.57	7812.71
441.75	7700.36
441.94	7999.95
442.12	7868.88
442.31	7908.67
442.50	8173.15
442.68	7990.59
442.87	8016.33
443.05	8023.36
443.24	8124.00
443.43	8067.83
443.61	8203.58
443.80	8510.19
443.98	8011.65
444.17	7733.13
444.35	8226.98
444.54	8449.33
444.73	8346.35
444.91	8262.09
445.10	8439.97
445.28	8329.97
445.47	8353.37
445.65	8198.90
445.84	8355.71
446.02	8226.98
446.21	8344.01
446.39	8414.23
446.58	8372.10
446.77	8596.79
446.95	8297.20
447.14	8388.48
447.32	8542.96
447.51	8329.97
447.69	8444.65
447.88	8571.04
448.06	8463.38
448.25	8608.49
448.43	8657.64
448.62	8854.25
448.80	8716.16
448.99	8643.60
449.17	8685.73
449.36	8762.97
449.54	9067.24
449.73	9036.81
449.91	8915.10
450.10	9015.74
450.28	9107.02
450.46	9064.89
450.65	9156.18
450.83	9184.26
451.02	9107.02
451.20	9144.47
451.39	9186.60
451.57	9104.68
451.76	8980.64
451.94	9167.88
452.13	9294.27
452.31	9303.63
452.49	9195.96
452.68	9474.49
452.86	9327.03
453.05	9549.39
453.23	9652.37
453.42	9437.04
453.60	9390.23
453.78	9668.75
453.97	9533.00
454.15	9296.61
454.34	9432.36
454.52	9884.08
454.70	9825.57
454.89	9750.67
455.07	9645.35
455.26	9837.27
455.44	9874.72
455.62	9961.32
455.81	9933.23
455.99	10202.40
456.17	9963.66
456.36	9867.70
456.54	10181.33
456.73	10162.61
456.91	10331.12
457.09	10478.58
457.28	10410.70
457.46	10106.43
457.64	10546.45
457.83	10534.75
458.01	10483.26
458.19	10757.10
458.38	10602.63
458.56	10963.07
458.74	10707.95
458.93	10586.24
459.11	10686.89
459.29	10801.57
459.48	10686.89
459.66	10958.39
459.84	11136.27
460.03	11147.97
460.21	11185.42
460.39	10787.53
460.57	10995.84
460.76	10925.62
460.94	11040.31
461.12	11290.74
461.31	11103.50
461.49	11061.37
461.67	11194.78
461.85	11517.78
462.04	11438.20
462.22	11784.60
462.40	11712.04
462.59	11510.75
462.77	11342.24
462.95	11690.98
463.13	11836.09
463.32	11501.39
463.50	11576.29
463.68	11751.83
463.86	12030.35
464.05	11669.91
464.23	11850.13
464.41	12013.97
464.59	11630.12
464.78	12116.95
464.96	11723.74
465.14	11637.14
465.32	12098.23
465.50	12184.83
465.69	11995.25
465.87	12084.19
466.05	12147.38
466.23	12145.04
466.41	12194.19
466.60	12514.84
466.78	12152.06
466.96	12175.47
467.14	12475.06
467.32	12723.15
467.51	12418.88
467.69	12156.74
467.87	12458.67
468.05	12662.30
468.23	12458.67
468.41	12573.36
468.60	12652.94
468.78	12788.69
468.96	12676.34
469.14	12692.73
469.32	12982.95
469.50	12524.21
469.69	12964.23
469.87	13027.42
470.05	13071.89
470.23	12992.31
470.41	13261.48
470.59	13219.35
470.77	13256.79
470.95	13322.33
471.14	13481.49
471.32	13212.32
471.50	13614.90
471.68	13832.57
471.86	13647.66
472.04	13757.67
472.22	14202.37
472.40	13820.86
472.58	13834.91
472.77	14141.52
472.95	14232.80
473.13	14209.39
473.31	14178.97
473.49	14260.88
473.67	14274.93
473.85	14384.93
474.03	14520.68
474.21	14672.82
474.39	14682.18
474.57	14736.01
474.75	14831.97
474.93	14822.61
475.12	14930.28
475.30	15056.67
475.48	14827.29
475.66	15236.89
475.84	15435.83
476.02	15328.17
476.20	15475.62
476.38	15585.63
476.56	15871.17
476.74	16049.05
476.92	15639.46
477.10	15829.04
477.28	16126.29
477.46	16418.86
477.64	16182.46
477.82	16423.54
478.00	16884.62
478.18	17053.14
478.36	16879.94
478.54	17130.38
478.72	17301.24
478.90	17427.63
479.08	17474.44
479.26	17673.39
479.44	17432.31
479.62	18026.81
479.80	18106.38
479.98	18253.84
480.16	18630.66
480.34	18366.18
480.52	18628.32
480.70	18974.72
480.88	18462.15
481.06	18874.08
481.24	18806.20
481.41	19206.44
481.59	19360.91
481.77	19522.41
481.95	19751.78
482.13	19597.31
482.31	19545.81
482.49	20383.73
482.67	20081.80
482.85	20343.94
483.03	20652.89
483.21	20582.67
483.39	20821.41
483.57	20585.01
483.74	21106.95
483.92	21209.93
484.10	21481.44
484.28	21776.34
484.46	22019.76
484.64	22621.28
484.82	22122.74
485.00	22513.61
485.18	22525.32
485.35	22960.66
485.53	22904.48
485.71	23056.62
485.89	23356.21
486.07	23344.50
486.25	23358.55
486.43	24142.63
486.61	23946.02
486.78	24236.25
486.96	23922.62
487.14	24680.95
487.32	24751.17
487.50	24933.73
487.68	25120.97
487.85	25273.10
488.03	25687.38
488.21	25654.61
488.39	25656.95
488.57	26469.12
488.75	26136.76
488.92	26703.17
489.10	26923.18
489.28	26841.26
489.46	27171.28
489.64	26925.52
489.81	27620.66
489.99	27550.45
490.17	27910.89
490.35	28308.78
490.53	28100.47
490.70	28591.98
490.88	28332.18
491.06	28919.66
491.24	28954.77
491.41	28903.28
491.59	29207.55
491.77	29460.32
491.95	29460.32
492.13	29720.12
492.30	30099.29
492.48	29771.61
492.66	30150.78
492.84	30401.22
493.01	30628.25
493.19	30473.78
493.37	30871.67
493.54	31051.89
493.72	31419.35
493.90	32004.49
494.08	31866.39
494.25	31828.95
494.43	32020.87
494.61	31866.39
494.79	32678.56
494.96	32582.60
495.14	32673.88
495.32	33343.27
495.49	33181.77
495.67	32994.53
495.85	33600.73
496.02	33680.31
496.20	33666.27
496.38	34202.25
496.55	34593.12
496.73	35110.38
496.91	34487.79
497.09	34796.74
497.26	34920.79
497.44	34991.01
497.62	35431.03
497.79	35737.64
497.97	35489.54
498.14	35859.35
498.32	36030.21
498.50	36217.45
498.67	36671.51
498.85	36711.30
499.03	36659.81
499.20	36613.00
499.38	36996.85
499.56	36678.54
499.73	37001.53
499.91	37106.85
500.08	37900.29
500.26	37457.93
500.44	37902.64
500.61	38117.96
500.79	37710.71
500.97	38288.82
501.14	38539.26
501.32	38649.27
501.49	38841.19
501.67	38555.64
501.84	39063.54
502.02	38604.80
502.20	38693.74
502.37	39409.94
502.55	39384.19
502.72	39695.49
502.90	39335.04
503.07	39517.60
503.25	40257.21
503.43	39641.65
503.60	40030.18
503.78	40566.16
503.95	40257.21
504.13	40739.36
504.30	40655.11
504.48	40545.10
504.65	41195.77
504.83	41340.88
505.01	41918.99
505.18	41490.68
505.36	41645.15
505.53	41242.58
505.71	41806.65
505.88	41701.32
506.06	41652.17
506.23	42167.09
506.41	41820.69
506.58	42459.66
506.76	42234.97
506.93	42401.14
507.11	42174.11
507.28	42646.90
507.46	43077.56
507.63	43012.02
507.81	43248.42
507.98	42979.26
508.16	43405.23
508.33	43388.85
508.50	43477.79
508.68	43606.52
508.85	43480.13
509.03	44023.14
509.20	44182.29
509.38	43709.50
509.55	44416.35
509.73	44687.85
509.90	44664.44
510.08	44568.48
510.25	44729.98
510.42	44631.68
510.60	44704.23
510.77	45022.54
510.95	45638.11
511.12	45310.43
511.30	45160.64
511.47	45406.39
511.64	45696.62
511.82	46073.45
511.99	45446.18
512.17	46326.22
512.34	46017.27
512.51	46607.09
512.69	46473.68
512.86	46251.33
513.04	46677.30
513.21	46827.10
513.38	46941.78
513.56	46972.21
513.73	46923.06
513.90	46997.96
514.08	47077.54
514.25	47487.13
514.43	47409.89
514.60	47372.44
514.77	47175.84
514.95	47683.73
515.12	47421.59
515.29	47697.78
515.47	47866.30
515.64	48006.73
515.81	47924.81
515.99	48133.12
516.16	48795.49
516.33	48299.30
516.51	48449.09
516.68	48486.54
516.85	48538.03
517.03	48779.10
517.20	49184.02
517.37	48736.98
517.54	48797.83
517.72	49228.49
517.89	49092.74
518.06	49366.58
518.24	49308.07
518.41	49406.37
518.58	49448.50
518.75	49385.30
518.93	49729.36
519.10	49392.33
519.27	49844.05
519.45	49748.09
519.62	50185.77
519.79	50010.23
519.96	50230.24
520.14	50169.38
520.31	50045.33
520.48	50518.12
520.65	50344.92
520.83	51100.92
521.00	50508.76
521.17	50672.60
521.34	50766.22
521.52	50663.24
521.69	51189.86
521.86	51089.21
522.03	51091.55
522.20	51388.80
522.38	51435.61
522.55	51224.96
522.72	51449.66
522.89	51700.09
523.07	51880.31
523.24	51367.74
523.41	51744.56
523.58	51440.29
523.75	51550.30
523.92	52055.85
524.10	52341.40
524.27	52147.14
524.44	52348.42
524.61	52336.72
524.78	52226.71
524.96	52179.90
525.13	52648.01
525.30	52596.52
525.47	52669.08
525.64	52528.64
525.81	52655.03
525.98	52491.19
526.16	52456.09
526.33	52683.12
526.50	53109.10
526.67	52781.42
526.84	53052.92
527.01	52839.93
527.18	53038.88
527.36	53024.84
527.53	52966.32
527.70	53411.02
527.87	53485.92
528.04	53301.02
528.21	53085.69
528.38	53528.05
528.55	53766.79
528.72	53331.45
528.89	53495.28
529.07	53511.67
529.24	53495.28
529.41	53743.38
529.58	54000.84
529.75	53743.38
529.92	53865.09
530.09	53862.75
530.26	53675.51
530.43	54171.70
530.60	54024.25
530.77	53727.00
530.94	54162.34
531.11	53909.56
531.28	54131.91
531.46	54391.71
531.63	54307.45
531.80	54040.63
531.97	54485.33
532.14	54391.71
532.31	54490.01
532.48	54677.25
532.65	54651.51
532.82	54700.66
532.99	54553.21
533.16	54775.56
533.33	54803.64
533.50	55049.40
533.67	54649.17
533.84	54845.77
534.01	54899.61
534.18	55063.44
534.35	55400.48
534.52	54986.21
534.69	55253.03
534.86	55458.99
535.03	55185.15
535.20	55388.78
535.37	55402.82
535.54	55426.23
535.71	55175.79
535.88	55421.55
536.05	55435.59
536.22	55613.47
536.38	55650.92
536.55	55318.56
536.72	55805.39
536.89	55646.24
537.06	55739.86
537.23	55650.92
537.40	55231.96
537.57	55845.18
537.74	55985.61
537.91	55976.25
538.08	55915.40
538.25	55774.97
538.42	56037.11
538.59	56399.89
538.75	56020.72
538.92	55955.19
539.09	56306.27
539.26	56184.56
539.43	56086.26
539.60	56236.05
539.77	56081.58
539.94	56617.56
540.11	56404.57
540.28	56535.64
540.44	56261.80
540.61	56439.68
540.78	56612.88
540.95	56687.78
541.12	56378.82
541.29	56591.81
541.46	56608.20
541.62	56797.78
541.79	56893.74
541.96	56339.04
542.13	56610.54
542.30	56619.90
542.47	56928.85
542.63	57118.43
542.80	57024.81
542.97	57144.18
543.14	57202.69
543.31	57247.16
543.48	57319.72
543.64	57399.30
543.81	57345.47
543.98	57469.51
544.15	57317.38
544.32	57301.00
544.48	57696.55
544.65	57380.57
544.82	57553.77
544.99	57549.09
545.16	57801.87
545.32	57439.09
545.49	57542.07
545.66	57918.90
545.83	57638.03
546.00	57787.83
546.16	57654.42
546.33	57614.63
546.50	57673.14
546.67	57764.42
546.83	57537.39
547.00	57680.16
547.17	57705.91
547.34	57984.43
547.50	57855.70
547.67	58279.34
547.84	57989.11
548.00	58110.82
548.17	58300.40
548.34	58169.33
548.51	58326.15
548.67	58246.57
548.84	58389.34
549.01	58136.57
549.18	58071.03
549.34	58424.45
549.51	58300.40
549.68	58195.08
549.84	58534.46
550.01	58637.44
550.18	58518.07
550.34	58480.63
550.51	58426.79
550.68	58464.24
550.84	58291.04
551.01	58382.32
551.18	58578.93
551.34	58401.05
551.51	58691.27
551.68	58529.78
551.84	58543.82
552.01	58445.52
552.18	58838.73
552.34	58635.10
552.51	58642.12
552.68	58679.57
552.84	58710.00
553.01	58880.86
553.18	58841.07
553.34	59040.01
553.51	58820.00
553.67	58688.93
553.84	58955.75
554.01	59014.27
554.17	59058.74
554.34	58897.24
554.51	58967.46
554.67	59112.57
554.84	59114.91
555.00	59082.14
555.17	58953.41
555.33	59131.29
555.50	58899.58
555.67	59007.25
555.83	59070.44
556.00	59105.55
556.16	59611.10
556.33	59372.37
556.50	59421.52
556.66	59409.82
556.83	59348.96
556.99	59545.57
557.16	59351.30
557.32	59468.33
557.49	59632.17
557.65	59407.48
557.82	59519.82
557.98	59559.61
558.15	59482.37
558.32	59566.63
558.48	59494.08
558.65	59477.69
558.81	59657.91
558.98	59367.69
559.14	59512.80
559.31	59793.67
559.47	59721.11
559.64	59779.62
559.80	59863.88
559.97	59983.25
560.13	59711.75
560.30	59791.33
560.46	59863.88
560.63	59943.46
560.79	59800.69
560.96	59985.59
561.12	60016.02
561.29	59917.71
561.45	59868.56
561.61	59798.35
561.78	59840.48
561.94	59973.89
562.11	59931.76
562.27	59749.20
562.44	59938.78
562.60	60020.70
562.77	60023.04
562.93	59735.15
563.10	60111.98
563.26	60032.40
563.42	60348.37
563.59	59997.29
563.75	60111.98
563.92	59955.16
564.08	60032.40
564.24	60175.17
564.41	60142.41
564.57	60273.48
564.74	60151.77
564.90	60135.38
565.07	60299.22
565.23	60240.71
565.39	60273.48
565.56	60156.45
565.72	60261.77
565.88	60334.33
566.05	60184.54
566.21	60261.77
566.38	60207.94
566.54	60360.08
566.70	60339.01
566.87	60357.74
567.03	60411.57
567.19	60657.32
567.36	60484.12
567.52	60355.39
567.68	60580.09
567.85	60708.82
568.01	60250.07
568.17	60275.82
568.34	60521.57
568.50	60416.25
568.66	60324.97
568.83	60268.79
568.99	60507.53
569.15	60364.76
569.32	60470.08
569.48	60353.05
569.64	60402.21
569.81	60533.28
569.97	60334.33
570.13	60481.78
570.30	60308.58
570.46	60441.99
570.62	60570.72
570.78	60474.76
570.95	60530.93
571.11	60622.22
571.27	60669.03
571.43	60413.91
571.60	60556.68
571.76	60795.42
571.92	60554.34
572.09	60596.47
572.25	60718.18
572.41	60584.77
572.57	60720.52
572.74	60877.33
572.90	60624.56
573.06	60779.03
573.22	60788.39
573.38	60732.22
573.55	60528.59
573.71	60884.36
573.87	60720.52
574.03	60800.10
574.20	60552.00
574.36	60858.61
574.52	60631.58
574.68	60846.91
574.84	60942.87
575.01	60685.41
575.17	60877.33
575.33	60687.75
575.49	60786.05
575.65	60809.46
575.82	60804.78
575.98	60694.77
576.14	60865.63
576.30	60879.67
576.46	60807.12
576.62	60907.76
576.79	60697.11
576.95	60694.77
577.11	60846.91
577.27	60750.94
577.43	60800.10
577.59	60659.66
577.75	60935.85
577.92	60790.73
578.08	60945.21
578.24	60781.37
578.40	61179.26
578.56	61050.53
578.72	60898.40
578.88	61020.11
579.04	61095.00
579.21	60828.18
579.37	61111.39
579.53	61076.28
579.69	60767.33
579.85	60816.48
580.01	60917.12
580.17	60669.03
580.33	61139.47
580.49	60914.78
580.65	61158.20
580.82	60961.59
580.98	60921.80
581.14	60942.87
581.30	61097.34
581.46	60940.53
581.62	61130.11
581.78	60884.36
581.94	60999.04
582.10	61132.45
582.26	60896.06
582.42	61118.41
582.58	61261.18
582.74	60924.14
582.90	60945.21
583.06	61073.94
583.22	61034.15
583.38	61113.73
583.54	61116.07
583.70	61003.72
583.86	61125.43
584.02	60865.63
584.18	61104.37
584.34	61006.06
584.50	61050.53
584.66	60935.85
584.82	60772.01
584.98	61144.16
585.14	61230.75
585.30	60966.27
585.46	61090.32
585.62	61055.21
585.78	61216.71
585.94	60956.91
586.10	60959.25
586.26	61099.68
586.42	61120.75
586.58	61219.05
586.74	61242.46
586.90	61031.81
587.06	60856.27
587.22	61181.60
587.38	61024.79
587.54	61277.57
587.70	61240.12
587.86	61010.74
588.02	61200.33
588.18	61188.63
588.34	61080.96
588.49	60940.53
588.65	61041.17
588.81	61345.44
588.97	61263.52
589.13	61275.22
589.29	61312.67
589.45	61396.93
589.61	61183.94
589.77	61481.19
589.93	61441.40
590.08	61439.06
590.24	61471.83
590.40	61600.56
590.56	61523.32
590.72	61427.36
590.88	61172.24
591.04	61062.24
591.20	61485.87
591.35	61504.60
591.51	61652.05
591.67	61366.51
591.83	61474.17
591.99	61387.57
592.15	61535.02
592.31	61469.49
592.46	61630.99
592.62	61455.45
592.78	61354.80
592.94	61556.09
593.10	61432.04
593.26	61544.39
593.41	61635.67
593.57	61474.17
593.73	61717.59
593.89	61652.05
594.05	61616.94
594.20	61413.32
594.36	61605.24
594.52	61324.38
594.68	61418.00
594.84	61513.96
594.99	61675.46
595.15	61560.77
595.31	61532.68
595.47	61499.92
595.62	61415.66
595.78	61539.71
595.94	61740.99
596.10	61785.46
596.25	61666.09
596.41	61717.59
596.57	61659.07
596.73	61684.82
596.88	61520.98
597.04	61799.50
597.20	61818.23
597.36	61539.71
597.51	61841.63
597.67	61553.75
597.83	61324.38
597.99	61677.80
598.14	61787.80
598.30	61792.48
598.46	61668.44
598.61	61886.10
598.77	61656.73
598.93	61745.67
599.09	61834.61
599.24	61874.40
599.40	61733.97
599.56	61897.81
599.71	61755.03
599.87	61836.95
600.03	61595.88
600.18	61602.90
600.34	61783.12
600.50	61886.10
600.65	61680.14
600.81	61900.15
600.97	61822.91
601.12	61759.72
601.28	61509.28
601.44	61694.18
601.59	61907.17
601.75	61799.50
601.91	61841.63
602.06	61949.30
602.22	62035.90
602.37	61930.58
602.53	61956.32
602.69	61736.31
602.84	61666.09
603.00	61818.23
603.16	61874.40
603.31	62021.86
603.47	61801.85
603.62	61939.94
603.78	62066.33
603.94	61939.94
604.09	61879.08
604.25	61881.42
604.40	61855.68
604.56	61832.27
604.71	62042.92
604.87	61684.82
605.03	61792.48
605.18	61818.23
605.34	61895.47
605.49	61785.46
605.65	62014.83
605.80	61808.87
605.96	61783.12
606.12	61825.25
606.27	61759.72
606.43	61696.52
606.58	61965.68
606.74	61722.27
606.89	61790.14
607.05	61705.88
607.20	61748.01
607.36	61645.03
607.51	61623.96
607.67	61609.92
607.82	61708.22
607.98	61750.35
608.13	61846.32
608.29	61883.76
608.44	61762.06
608.60	61574.81
608.75	61712.91
608.91	61647.37
609.06	61422.68
609.22	61675.46
609.37	61609.92
609.53	61595.88
609.68	61619.28
609.84	61581.84
609.99	61712.91
610.15	61977.39
610.30	61813.55
610.46	61546.73
610.61	61640.35
610.76	61570.13
610.92	61621.62
611.07	61516.30
611.23	61614.60
611.38	61605.24
611.54	61581.84
611.69	61766.74
611.84	61546.73
612.00	61539.71
612.15	61581.84
612.31	61553.75
612.46	61481.19
612.62	61523.32
612.77	61410.98
612.92	61551.41
613.08	61474.17
613.23	61602.90
613.39	61520.98
613.54	61354.80
613.69	61619.28
613.85	61441.40
614.00	61577.15
614.15	61528.00
614.31	61469.49
614.46	61591.20
614.62	61315.01
614.77	61422.68
614.92	61525.66
615.08	61209.69
615.23	61247.14
615.38	61368.85
615.54	61441.40
615.69	61418.00
615.84	61340.76
616.00	61448.42
616.15	61216.71
616.30	61410.98
616.46	61307.99
616.61	61265.86
616.76	61322.04
616.92	61151.18
617.07	61366.51
617.22	61090.32
617.37	61312.67
617.53	61460.13
617.68	61588.86
617.83	61256.50
617.99	61144.16
618.14	61326.72
618.29	61331.40
618.45	61162.88
618.60	60938.19
618.75	61141.81
618.90	61085.64
619.06	61270.54
619.21	61212.03
619.36	61474.17
619.51	61394.59
619.67	61017.77
619.82	61069.26
619.97	61251.82
620.12	61022.45
620.28	61022.45
620.43	61144.16
620.58	60938.19
620.73	60938.19
620.89	61076.28
621.04	61200.33
621.19	60975.64
621.34	61073.94
621.49	60985.00
621.65	60973.30
621.80	60956.91
621.95	60910.10
622.10	60947.55
622.25	60858.61
622.41	60786.05
622.56	60818.82
622.71	61090.32
622.86	60638.60
623.01	60809.46
623.16	60657.32
623.32	61216.71
623.47	60830.52
623.62	60963.93
623.77	60867.97
623.92	60940.53
624.07	60914.78
624.23	60886.70
624.38	60767.33
624.53	60692.43
624.68	60729.88
624.83	60713.50
624.98	60631.58
625.13	60573.06
625.29	60484.12
625.44	60828.18
625.59	60512.21
625.74	60657.32
625.89	60561.36
626.04	60413.91
626.19	60357.74
626.34	60498.17
626.49	60355.39
626.65	60308.58
626.80	60645.62
626.95	60364.76
627.10	60266.45
627.25	60243.05
627.40	60261.77
627.55	60479.44
627.70	60233.69
627.85	60505.19
628.00	60191.56
628.15	60626.90
628.30	60427.95
628.45	60357.74
628.60	60355.39
628.76	60219.64
628.91	60444.33
629.06	60287.52
629.21	60334.33
629.36	60186.88
629.51	60158.79
629.66	60186.88
629.81	59826.43
629.96	60093.25
630.11	60079.21
630.26	60133.04
630.41	60205.60
630.56	60140.07
630.71	60149.43
630.86	60172.83
631.01	59978.57
631.16	60051.12
631.31	59798.35
631.46	59758.56
631.61	59898.99
631.76	60053.47
631.91	60097.94
632.06	60221.98
632.21	60072.19
632.36	59999.63
632.51	59807.71
632.66	59969.21
632.81	59833.46
632.96	60076.87
633.10	60039.42
633.25	59990.27
633.40	60018.36
633.55	59821.75
633.70	59796.01
633.85	59686.00
634.00	59643.87
634.15	59707.07
634.30	59721.11
634.45	59779.62
634.60	60020.70
634.75	59889.63
634.90	59662.60
635.05	59625.15
635.19	59697.70
635.34	59735.15
635.49	59735.15
635.64	59835.80
635.79	59646.21
635.94	59994.95
636.09	59613.44
636.24	59704.73
636.39	59671.96
636.53	59807.71
636.68	59634.51
636.83	59615.79
636.98	59901.33
637.13	59517.48
637.28	59477.69
637.43	59458.97
637.57	59629.83
637.72	59419.18
637.87	59664.94
638.02	59288.11
638.17	59409.82
638.32	59292.79
638.46	59421.52
638.61	59400.46
638.76	59227.26
638.91	59374.71
639.06	59245.98
639.20	59227.26
639.35	59229.60
639.50	59131.29
639.65	59330.24
639.80	59264.70
639.94	59138.32
640.09	59262.36
640.24	59381.73
640.39	59128.95
640.54	59360.67
640.68	59274.07
640.83	59224.92
640.98	59187.47
641.13	59112.57
641.27	59398.12
641.42	59180.45
641.57	58904.26
641.72	58967.46
641.86	59185.13
642.01	58789.58
642.16	58986.18
642.31	58845.75
642.45	59124.27
642.60	58934.69
642.75	59255.34
642.90	58873.84
643.04	59000.22
643.19	58852.77
643.34	58782.55
643.48	58937.03
643.63	59037.67
643.78	58639.78
643.93	58894.90
644.07	58803.62
644.22	58707.66
644.37	58592.97
644.51	58628.08
644.66	58656.17
644.81	58747.45
644.95	58679.57
645.10	58848.09
645.25	58684.25
645.39	58630.42
645.54	58625.74
645.69	58663.19
645.83	58518.07
645.98	58761.49
646.13	58543.82
646.27	58707.66
646.42	58653.82
646.57	58305.09
646.71	58625.74
646.86	58754.47
647.00	58721.70
647.15	58569.57
647.30	58625.74
647.44	58361.26
647.59	58667.87
647.74	58489.99
647.88	58518.07
648.03	58415.09
648.17	58604.67
648.32	58485.31
648.47	58480.63
648.61	58333.17
648.76	58450.20
648.90	58436.16
649.05	58443.18
649.20	58333.17
649.34	58258.27
649.49	58028.90
649.63	58431.47
649.78	58408.07
649.92	58501.69
650.07	58349.56
650.21	58213.80
650.36	58246.57
650.51	58394.03
650.65	58375.30
650.80	58426.79
650.94	57991.45
651.09	58066.35
651.23	57958.69
651.38	58035.92
651.52	58028.90
651.67	58056.99
651.81	57970.39
651.96	57944.64
652.10	58176.36
652.25	58064.01
652.39	57911.88
652.54	57719.95
652.68	57832.30
652.83	57722.29
652.97	57731.65
653.12	57663.78
653.26	57825.28
653.41	58152.95
653.55	57865.06
653.70	57822.93
653.84	57773.78
653.99	57654.42
654.13	57577.18
654.27	57570.16
654.42	57673.14
654.56	57544.41
654.71	57752.72
654.85	57724.63
655.00	57872.09
655.14	57745.70
655.29	57490.58
655.43	57750.38
655.57	57478.88
655.72	57638.03
655.86	57556.11
656.01	57581.86
656.15	57668.46
656.30	57525.69
656.44	57680.16
656.58	57588.88
656.73	57645.05
656.87	57443.77
657.01	57544.41
657.16	57418.02
657.30	57380.57
657.45	57256.53
657.59	57607.61
657.73	57258.87
657.88	57029.49
658.02	57223.76
658.16	57205.03
658.31	57092.69
658.45	57343.12
658.60	57221.42
658.74	57389.94
658.88	57282.27
659.03	56931.19
659.17	56919.49
659.31	57216.74
659.46	56947.57
659.60	56825.87
659.74	56860.97
659.89	56769.69
660.03	56898.42
660.17	56863.32
660.32	56917.15
660.46	56839.91
660.60	56559.05
660.74	56966.30
660.89	56750.97
661.03	56596.49
661.17	56439.68
661.32	56463.08
661.46	56437.34
661.60	56711.18
661.74	56617.56
661.89	56360.10
662.03	56692.46
662.17	56465.42
662.31	56346.06
662.46	56582.45
662.60	56289.88
662.74	56278.18
662.88	56016.04
663.03	56163.50
663.17	56130.73
663.31	55627.51
663.45	56109.66
663.60	56069.87
663.74	55697.73
663.88	55852.20
664.02	55866.25
664.17	55994.98
664.31	55796.03
664.45	55634.53
664.59	55646.24
664.73	55437.93
664.88	55779.65
665.02	55267.07
665.16	55569.00
665.30	55381.76
665.44	55491.76
665.59	55351.33
665.73	55353.67
665.87	55344.31
666.01	55545.59
666.15	55215.58
666.29	55466.02
666.44	55360.69
666.58	55140.68
666.72	55051.74
666.86	54855.14
667.00	55072.81
667.14	54578.95
667.28	54831.73
667.43	54892.58
667.57	55117.28
667.71	54770.88
667.85	54859.82
667.99	54405.75
668.13	54700.66
668.27	54452.56
668.41	54590.66
668.56	54300.43
668.70	54768.54
668.84	54564.91
668.98	54211.49
669.12	54637.47
669.26	54475.97
669.40	54330.86
669.54	54422.14
669.68	54164.68
669.82	54064.03
669.96	54265.32
670.10	54202.13
670.25	54120.21
670.39	53865.09
670.53	53734.02
670.67	53717.64
670.81	54127.23
670.95	53818.28
671.09	53762.11
671.23	53481.24
671.37	53844.02
671.51	53771.47
671.65	53663.80
671.79	53591.25
671.93	53181.65
672.07	53600.61
672.21	53183.99
672.35	52853.98
672.49	52947.60
672.63	52863.34
672.77	53036.54
672.91	52830.57
673.05	52837.59
673.19	52727.59
673.33	52631.63
673.47	52453.75
673.61	52753.33
673.75	52282.89
673.89	52268.84
674.03	52350.76
674.17	52023.09
674.31	51950.53
674.45	51924.78
674.59	51672.01
674.73	51992.66
674.87	52011.38
675.01	51206.24
675.15	51753.93
675.29	51580.73
675.43	51704.77
675.56	51353.69
675.70	51323.27
675.84	51114.96
675.98	50466.63
676.12	51011.98
676.26	51220.28
676.40	51227.31
676.54	50946.44
676.68	50719.41
676.82	49904.90
676.96	49897.88
677.10	50478.33
677.23	49869.79
677.37	49977.46
677.51	49844.05
677.65	49483.61
677.79	48851.66
677.93	49066.99
678.07	49324.45
678.21	49347.86
678.34	48926.56
678.48	48804.85
678.62	48664.42
678.76	49099.76
678.90	48671.44
679.04	48725.27
679.18	48835.28
679.31	48231.42
679.45	48093.33
679.59	48322.70
679.73	48591.86
679.87	47632.24
680.00	47573.73
680.14	47058.81
680.28	47288.18
680.42	47489.47
680.56	47166.48
680.70	46745.18
680.83	47016.68
680.97	46794.33
681.11	47365.42
681.25	46431.55
681.39	46618.79
681.52	46291.12
681.66	46323.88
681.80	46033.66
681.94	45923.65
682.07	45930.67
682.21	45354.90
682.35	45588.95
682.49	45347.88
682.62	45401.71
682.76	45675.55
682.90	45432.14
683.04	44889.13
683.17	44631.68
683.31	44318.04
683.45	44589.55
683.59	44516.99
683.72	44566.14
683.86	44172.93
684.00	44137.82
684.13	44076.97
684.27	43971.64
684.41	43679.08
684.55	44215.06
684.68	43676.74
684.82	43423.96
684.96	43372.47
685.09	42932.45
685.23	42607.11
685.37	42501.79
685.50	43016.71
685.64	42232.63
685.78	42834.14
685.91	42604.77
686.05	42277.10
686.19	41727.07
686.32	42005.59
686.46	40788.52
686.60	40767.45
686.73	40994.48
686.87	41338.54
687.01	41214.49
687.14	41104.49
687.28	40568.51
687.42	40383.60
687.55	40245.51
687.69	40250.19
687.82	40041.88
687.96	39882.73
688.10	39665.06
688.23	39784.43
688.37	39398.24
688.50	39021.41
688.64	39643.99
688.78	38990.98
688.91	38698.42
689.05	38567.35
689.18	38347.34
689.32	37970.51
689.46	37696.67
689.59	37989.24
689.73	38019.66
689.86	37589.00
690.00	37432.19
690.13	37748.16
690.27	37216.86
690.41	37446.23
690.54	37453.25
690.68	36657.47
690.81	36680.88
690.95	37106.85
691.08	36147.23
691.22	36086.38
691.35	36212.77
691.49	36488.95
691.62	36226.81
691.76	35854.67
691.89	35590.19
692.03	35606.57
692.16	35742.32
692.30	35285.92
692.43	35201.66
692.57	34948.88
692.70	34969.94
692.84	34712.49
692.97	34878.66
693.11	34586.10
693.24	34054.79
693.38	34139.05
693.51	33977.56
693.65	33766.91
693.78	33649.88
693.92	33544.56
694.05	33624.14
694.19	33209.86
694.32	33132.62
694.45	33242.63
694.59	32765.16
694.72	32603.66
694.86	32767.50
694.99	32264.28
695.13	32306.41
695.26	32161.30
695.39	31477.86
695.53	31960.02
695.66	31747.03
695.80	31360.84
695.93	31283.60
696.07	31372.54
696.20	30899.75
696.33	30714.85
696.47	30443.35
696.60	30581.44
696.73	30380.15
696.87	30597.82
697.00	29928.43
697.14	30000.99
697.27	30003.33
697.40	30141.42
697.54	29930.77
697.67	29776.30
697.80	29696.72
697.94	29057.75
698.07	29537.56
698.21	29067.11
698.34	28954.77
698.47	28577.94
698.61	28196.43
698.74	28512.41
698.87	28559.22
699.01	28203.46
699.14	28402.40
699.27	28065.36
699.40	28037.28
699.54	27873.44
699.67	27854.72
699.80	27772.80
699.94	27576.19
700.07	27520.02
700.20	27325.75
700.34	27028.51
700.47	26747.64
700.60	26717.22
700.73	26218.68
700.87	26136.76
701.00	26419.97
701.13	25804.41
701.26	25729.51
701.40	26031.44
701.53	25862.92
701.66	25893.35
701.79	24980.54
701.93	25184.16
702.06	25298.85
702.19	25137.35
702.32	25057.78
702.46	25085.86
702.59	24592.01
702.72	24800.32
702.85	24430.51
702.99	24369.66
703.12	24254.97
703.25	24140.29
703.38	23604.30
703.51	23690.90
703.65	23426.42
703.78	23407.70
703.91	23412.38
704.04	23396.00
704.17	23517.70
704.31	23192.37
704.44	22967.68
704.57	22766.39
704.70	22635.32
704.83	22799.16
704.96	22595.53
705.10	22087.64
705.23	22214.02
>>>>>End Processed Spectral Data<<<<<
