SpectraSuite Data File
++++++++++++++++++++++++++++++++++++
Date: Thu Oct 24 13:21:08 EDT 2013
User: stostad
Dark Spectrum Present: No
Reference Spectrum Present: No
Number of Sampled Component Spectra: 1
Spectrometers: USB2+H05261
Integration Time (usec): 100000 (USB2+H05261)
Spectra Averaged: 1 (USB2+H05261)
Boxcar Smoothing: 0 (USB2+H05261)
Correct for Electrical Dark: No (USB2+H05261)
Strobe/Lamp Enabled: No (USB2+H05261)
Correct for Detector Non-linearity: No (USB2+H05261)
Correct for Stray Light: No (USB2+H05261)
Number of Pixels in Processed Spectrum: 2048
>>>>>Begin Processed Spectral Data<<<<<
365.73	507.90
365.92	507.90
366.12	507.90
366.32	486.83
366.52	500.87
366.72	486.83
366.91	388.53
367.11	393.21
367.31	449.38
367.51	505.56
367.70	418.96
367.90	468.11
368.10	472.79
368.30	461.09
368.49	437.68
368.69	456.40
368.89	461.09
369.09	477.47
369.28	468.11
369.48	543.00
369.68	456.40
369.87	526.62
370.07	514.92
370.27	594.50
370.47	566.41
370.66	683.44
370.86	620.24
371.06	720.88
371.25	723.23
371.45	692.80
371.65	725.57
371.84	730.25
372.04	763.01
372.24	730.25
372.44	842.59
372.63	727.91
372.83	786.42
373.03	744.29
373.22	746.63
373.42	727.91
373.62	779.40
373.81	746.63
374.01	844.93
374.21	795.78
374.40	760.67
374.60	737.27
374.79	835.57
374.99	809.83
375.19	758.33
375.38	795.78
375.58	833.23
375.78	847.27
375.97	866.00
376.17	819.19
376.37	760.67
376.56	807.48
376.76	849.61
376.95	760.67
377.15	844.93
377.35	828.55
377.54	798.12
377.74	807.48
377.93	770.04
378.13	784.08
378.33	828.55
378.52	842.59
378.72	774.72
378.91	891.74
379.11	894.08
379.31	840.25
379.50	781.74
379.70	816.85
379.89	800.46
380.09	861.32
380.28	802.80
380.48	788.76
380.68	788.76
380.87	807.48
381.07	882.38
381.26	908.13
381.46	727.91
381.65	842.59
381.85	847.27
382.04	875.36
382.24	866.00
382.43	784.08
382.63	835.57
382.83	823.87
383.02	910.47
383.22	889.40
383.41	915.15
383.61	868.34
383.80	877.70
384.00	884.72
384.19	849.61
384.39	898.77
384.58	866.00
384.78	849.61
384.97	875.36
385.17	905.79
385.36	863.66
385.56	968.98
385.75	856.64
385.95	873.02
386.14	912.81
386.34	837.91
386.53	903.45
386.72	896.43
386.92	959.62
387.11	866.00
387.31	880.04
387.50	968.98
387.70	908.13
387.89	901.11
388.09	976.00
388.28	929.19
388.48	887.06
388.67	968.98
388.86	947.92
389.06	908.13
389.25	976.00
389.45	943.24
389.64	980.68
389.84	959.62
390.03	891.74
390.22	987.71
390.42	973.66
390.61	1022.81
390.81	1015.79
391.00	978.34
391.19	992.39
391.39	983.02
391.58	1053.24
391.78	1001.75
391.97	978.34
392.16	992.39
392.36	1027.50
392.55	973.66
392.75	964.30
392.94	950.26
393.13	1071.97
393.33	1067.28
393.52	1041.54
393.71	1006.43
393.91	1036.86
394.10	1046.22
394.29	1041.54
394.49	1109.41
394.68	1057.92
394.88	1018.13
395.07	1062.60
395.26	1118.78
395.46	1050.90
395.65	1067.28
395.84	1088.35
396.04	1177.29
396.23	1102.39
396.42	1090.69
396.62	1062.60
396.81	1097.71
397.00	1102.39
397.19	1107.07
397.39	1064.94
397.58	1114.10
397.77	1090.69
397.97	1130.48
398.16	1149.20
398.35	1158.57
398.55	1158.57
398.74	1109.41
398.93	1146.86
399.12	1109.41
399.32	1116.44
399.51	1083.67
399.70	1196.01
399.90	1163.25
400.09	1118.78
400.28	1165.59
400.47	1207.72
400.67	1123.46
400.86	1228.78
401.05	1287.29
401.24	1174.95
401.44	1268.57
401.63	1217.08
401.82	1226.44
402.01	1252.19
402.21	1226.44
402.40	1256.87
402.59	1270.91
402.78	1214.74
402.97	1228.78
403.17	1310.70
403.36	1231.12
403.55	1240.48
403.74	1324.74
403.93	1355.17
404.13	1329.42
404.32	1259.21
404.51	1359.85
404.70	1451.13
404.89	1291.98
405.09	1392.62
405.28	1362.19
405.47	1404.32
405.66	1338.79
405.85	1366.87
406.05	1430.07
406.24	1378.58
406.43	1324.74
406.62	1387.94
406.81	1399.64
407.00	1425.39
407.20	1378.58
407.39	1385.60
407.58	1394.96
407.77	1474.54
407.96	1490.92
408.15	1490.92
408.34	1504.96
408.54	1535.39
408.73	1486.24
408.92	1476.88
409.11	1516.67
409.30	1537.73
409.49	1535.39
409.68	1603.27
409.87	1572.84
410.07	1570.50
410.26	1600.93
410.45	1572.84
410.64	1554.12
410.83	1643.06
411.02	1467.52
411.21	1544.75
411.40	1610.29
411.59	1551.78
411.78	1692.21
411.98	1565.82
412.17	1612.63
412.36	1739.02
412.55	1703.91
412.74	1741.36
412.93	1708.59
413.12	1708.59
413.31	1736.68
413.50	1692.21
413.69	1736.68
413.88	1856.04
414.07	1799.87
414.26	1813.92
414.45	1778.81
414.64	1802.21
414.83	1867.75
415.02	1813.92
415.22	1839.66
415.41	1870.09
415.60	1846.68
415.79	1888.81
415.98	1912.22
416.17	1874.77
416.36	1923.92
416.55	1940.30
416.74	1872.43
416.93	1928.60
417.12	1994.14
417.31	1996.48
417.50	2005.84
417.69	1947.33
417.88	1980.09
418.07	1952.01
418.26	2054.99
418.45	2076.06
418.64	2059.67
418.83	2122.87
419.02	2017.54
419.21	2104.14
419.39	1975.41
419.58	2064.35
419.77	2083.08
419.96	2092.44
420.15	2165.00
420.34	2167.34
420.53	2162.66
420.72	2204.78
420.91	2115.84
421.10	2150.95
421.29	2246.91
421.48	2069.03
421.67	2113.50
421.86	2099.46
422.05	2200.10
422.24	2101.80
422.43	2270.32
422.61	2214.15
422.80	2174.36
422.99	2165.00
423.18	2200.10
423.37	2190.74
423.56	2298.41
423.75	2249.25
423.94	2193.08
424.13	2036.27
424.32	2141.59
424.50	2165.00
424.69	2392.03
424.88	2216.49
425.07	2160.31
425.26	2221.17
425.45	2085.42
425.64	2239.89
425.83	2251.60
426.01	2195.42
426.20	2251.60
426.39	2286.70
426.58	2249.25
426.77	2235.21
426.96	2239.89
427.15	2335.85
427.33	2265.64
427.52	2340.54
427.71	2321.81
427.90	2333.51
428.09	2275.00
428.28	2368.62
428.46	2211.81
428.65	2272.66
428.84	2427.14
429.03	2502.03
429.22	2382.67
429.40	2377.98
429.59	2286.70
429.78	2356.92
429.97	2230.53
430.16	2530.12
430.34	2403.73
430.53	2492.67
430.72	2487.99
430.91	2464.58
431.10	2466.92
431.28	2525.44
431.47	2562.89
431.66	2551.18
431.85	2431.82
432.03	2574.59
432.22	2649.49
432.41	2574.59
432.60	2476.29
432.79	2473.95
432.97	2410.75
433.16	2544.16
433.35	2569.91
433.54	2651.83
433.72	2602.68
433.91	2597.99
434.10	2649.49
434.28	2640.12
434.47	2525.44
434.66	2649.49
434.85	2712.68
435.03	2766.51
435.22	3023.97
435.41	3180.79
435.59	3143.34
435.78	2958.44
435.97	2885.88
436.16	2892.90
436.34	2787.58
436.53	2764.17
436.72	2759.49
436.90	2775.88
437.09	2745.45
437.28	2729.06
437.46	2675.23
437.65	2780.56
437.84	2855.45
438.02	2750.13
438.21	2775.88
438.40	2757.15
438.58	2920.99
438.77	2909.29
438.96	2958.44
439.14	2963.12
439.33	2951.42
439.52	2892.90
439.70	3016.95
439.89	3038.02
440.08	3014.61
440.26	2998.23
440.45	2923.33
440.63	3066.10
440.82	3084.83
441.01	3040.36
441.19	3152.70
441.38	3082.49
441.57	3077.80
441.75	3215.90
441.94	3150.36
442.12	3166.74
442.31	3185.47
442.50	3316.54
442.68	3180.79
442.87	3300.16
443.05	3323.56
443.24	3424.20
443.43	3192.49
443.61	3180.79
443.80	3349.31
443.98	3206.53
444.17	3201.85
444.35	3133.98
444.54	3365.69
444.73	3342.28
444.91	3316.54
445.10	3349.31
445.28	3391.44
445.47	3288.45
445.65	3286.11
445.84	3286.11
446.02	3361.01
446.21	3349.31
446.39	3344.63
446.58	3419.52
446.77	3398.46
446.95	3358.67
447.14	3368.03
447.32	3382.07
447.51	3447.61
447.69	3412.50
447.88	3379.73
448.06	3398.46
448.25	3417.18
448.43	3438.25
448.62	3307.18
448.80	3461.65
448.99	3456.97
449.17	3389.10
449.36	3405.48
449.54	3510.80
449.73	3595.06
449.91	3662.94
450.10	3494.42
450.28	3653.58
450.46	3592.72
450.65	3588.04
450.83	3538.89
451.02	3468.67
451.20	3623.15
451.39	3630.17
451.57	3581.02
451.76	3712.09
451.94	3669.96
452.13	3707.41
452.31	3669.96
452.49	3667.62
452.68	3679.32
452.86	3672.30
453.05	3714.43
453.23	3744.86
453.42	3658.26
453.60	3702.73
453.78	3789.33
453.97	3707.41
454.15	3662.94
454.34	3686.34
454.52	3730.81
454.70	3709.75
454.89	3730.81
455.07	3796.35
455.26	3775.28
455.44	3859.54
455.62	3808.05
455.81	3838.48
455.99	3878.27
456.17	3896.99
456.36	3904.01
456.54	3899.33
456.73	4067.85
456.91	4032.74
457.09	4084.23
457.28	3953.16
457.46	3939.12
457.64	4114.66
457.83	4173.18
458.01	4077.21
458.19	4219.99
458.38	4077.21
458.56	4051.47
458.74	4070.19
458.93	4058.49
459.11	4147.43
459.29	4182.54
459.48	4016.36
459.66	4016.36
459.84	4081.89
460.03	4311.27
460.21	4154.45
460.39	4079.55
460.57	4215.30
460.76	4229.35
460.94	4203.60
461.12	4245.73
461.31	4227.01
461.49	4224.67
461.67	4142.75
461.85	4304.25
462.04	4360.42
462.22	4545.32
462.40	4447.02
462.59	4411.91
462.77	4353.40
462.95	4411.91
463.13	4217.65
463.32	4344.03
463.50	4421.27
463.68	4418.93
463.86	4334.67
464.05	4456.38
464.23	4325.31
464.41	4407.23
464.59	4374.46
464.78	4512.55
464.96	4372.12
465.14	4252.75
465.32	4692.77
465.50	4540.64
465.69	4648.30
465.87	4472.76
466.05	4437.66
466.23	4456.38
466.41	4510.21
466.60	4622.56
466.78	4517.23
466.96	4641.28
467.14	4636.60
467.32	4660.01
467.51	4557.02
467.69	4699.80
467.87	4674.05
468.05	4760.65
468.23	4669.37
468.41	4575.75
468.60	4727.88
468.78	4580.43
468.96	4835.55
469.14	4802.78
469.32	4751.29
469.50	4631.92
469.69	4924.49
469.87	4858.95
470.05	4870.65
470.23	4887.04
470.41	4800.44
470.59	4889.38
470.77	4926.83
470.95	4755.97
471.14	4938.53
471.32	4760.65
471.50	4919.81
471.68	4936.19
471.86	4985.34
472.04	5090.67
472.22	5064.92
472.40	5048.54
472.58	5029.81
472.77	5160.88
472.95	5277.91
473.13	5198.33
473.31	5207.69
473.49	5179.61
473.67	5137.48
473.85	5254.50
474.03	5270.89
474.21	5284.93
474.39	5425.36
474.57	5348.12
474.75	5331.74
474.93	5556.43
475.12	5504.94
475.30	5348.12
475.48	5467.49
475.66	5593.88
475.84	5628.99
476.02	5547.07
476.20	5430.04
476.38	5650.05
476.56	5781.12
476.74	5675.80
476.92	5631.33
477.10	5661.76
477.28	5841.98
477.46	5703.89
477.64	5865.38
477.82	5930.92
478.00	6015.18
478.18	5907.51
478.36	6043.26
478.54	6024.54
478.72	6141.57
478.90	6169.65
479.08	6249.23
479.26	6279.66
479.44	6230.51
479.62	6389.66
479.80	6494.99
479.98	6441.15
480.16	6478.60
480.34	6544.14
480.52	6576.91
480.70	6410.73
480.88	6420.09
481.06	6525.41
481.24	6698.61
481.41	6878.83
481.59	6733.72
481.77	6960.75
481.95	6956.07
482.13	7056.72
482.31	6871.81
482.49	6890.54
482.67	7129.27
482.85	7192.47
483.03	7321.20
483.21	7297.79
483.39	7470.99
483.57	7077.78
483.74	7335.24
483.92	7428.86
484.10	7389.07
484.28	7461.63
484.46	7634.83
484.64	7742.49
484.82	7606.74
485.00	7793.98
485.18	7815.05
485.35	8081.87
485.53	8072.51
485.71	8184.85
485.89	8035.06
486.07	7974.21
486.25	8070.17
486.43	8121.66
486.61	8322.94
486.78	8416.57
486.96	8493.80
487.14	8456.36
487.32	8360.39
487.50	8592.11
487.68	8603.81
487.85	8692.75
488.03	8821.48
488.21	8711.47
488.39	8950.21
488.57	8990.00
488.75	8870.63
488.92	8915.10
489.10	8997.02
489.28	9217.03
489.46	9305.97
489.64	9411.29
489.81	9460.45
489.99	9472.15
490.17	9399.59
490.35	9455.76
490.53	9652.37
490.70	9682.80
490.88	9486.19
491.06	9783.44
491.24	9785.78
491.41	9713.22
491.59	9734.29
491.77	9923.87
491.95	10054.94
492.13	10073.67
492.30	10139.20
492.48	10010.47
492.66	10146.22
492.84	10216.44
493.01	10511.35
493.19	10200.05
493.37	10424.75
493.54	10326.44
493.72	10647.10
493.90	10478.58
494.08	10656.46
494.25	10656.46
494.43	10771.15
494.61	10710.29
494.79	11042.65
494.96	10970.09
495.14	10876.47
495.32	10850.72
495.49	11143.29
495.67	11248.61
495.85	11105.84
496.02	11250.96
496.20	11250.96
496.38	11440.54
496.55	11260.32
496.73	11742.47
496.91	11587.99
497.09	11637.14
497.26	11580.97
497.44	11812.68
497.62	11417.13
497.79	11805.66
497.97	11775.24
498.14	11836.09
498.32	11709.70
498.50	11957.80
498.67	11925.03
498.85	12070.14
499.03	12060.78
499.20	11831.41
499.38	12322.92
499.56	12212.92
499.73	12283.13
499.91	12245.68
500.08	12491.44
500.26	12381.43
500.44	12435.27
500.61	12498.46
500.79	12648.26
500.97	12503.14
501.14	12767.62
501.32	12599.10
501.49	12685.70
501.67	12615.49
501.84	13167.85
502.02	12905.71
502.20	12968.91
502.37	12798.05
502.55	12903.37
502.72	13102.32
502.90	13238.07
503.07	13149.13
503.25	13301.26
503.43	13118.70
503.60	13025.08
503.78	13394.89
503.95	13233.39
504.13	13184.24
504.30	13322.33
504.48	13673.41
504.65	13427.65
504.83	13422.97
505.01	13652.34
505.18	13282.54
505.36	13692.13
505.53	13631.28
505.71	13710.86
505.88	13680.43
506.06	13790.44
506.23	13940.23
506.41	13540.00
506.58	13839.59
506.76	13841.93
506.93	13652.34
507.11	14061.94
507.28	14078.32
507.46	14075.98
507.63	13965.98
507.81	14139.18
507.98	13940.23
508.16	14122.79
508.33	14218.75
508.50	14288.97
508.68	14668.14
508.85	14668.14
509.03	14548.77
509.20	14506.64
509.38	14473.87
509.55	14469.19
509.73	14471.53
509.90	15070.71
510.08	14532.39
510.25	14817.93
510.42	14736.01
510.60	14750.06
510.77	15070.71
510.95	14787.50
511.12	14846.02
511.30	15075.39
511.47	14937.30
511.64	14984.11
511.82	14991.13
511.99	15253.27
512.17	15220.50
512.34	15159.65
512.51	15276.68
512.69	15431.15
512.86	15314.13
513.04	15520.09
513.21	15405.41
513.38	15433.49
513.56	15396.04
513.73	15587.97
513.90	15257.95
514.08	15557.54
514.25	15763.51
514.43	15590.31
514.60	15578.61
514.77	15346.89
514.95	15552.86
515.12	15583.29
515.29	15866.49
515.47	15974.16
515.64	16077.14
515.81	15868.83
515.99	15896.92
516.16	16051.39
516.33	16137.99
516.51	16276.09
516.68	16046.71
516.85	16137.99
517.03	16130.97
517.20	16140.33
517.37	16212.89
517.54	16128.63
517.72	16203.53
517.89	16503.12
518.06	16393.11
518.24	16573.33
518.41	16287.79
518.58	16589.72
518.75	16236.30
518.93	16453.97
519.10	16191.83
519.27	16453.97
519.45	16517.16
519.62	16657.59
519.79	16772.28
519.96	16699.72
520.14	16643.55
520.31	16313.53
520.48	16706.74
520.65	16940.80
520.83	16816.75
521.00	17011.01
521.17	17355.07
521.34	17114.00
521.52	16858.88
521.69	17003.99
521.86	17034.42
522.03	16980.59
522.20	17057.82
522.38	17235.70
522.55	17479.12
522.72	17156.13
522.89	17472.10
523.07	17312.94
523.24	17329.33
523.41	17380.82
523.58	17432.31
523.75	17401.88
523.92	17350.39
524.10	17539.97
524.27	17584.44
524.44	17497.84
524.61	17692.11
524.78	17509.55
524.96	17680.41
525.13	17577.42
525.30	17673.39
525.47	17846.58
525.64	17607.85
525.81	18281.92
525.98	18024.47
526.16	17699.13
526.33	17689.77
526.50	18153.20
526.67	17827.86
526.84	18054.89
527.01	17781.05
527.18	17867.65
527.36	17935.53
527.53	18150.85
527.70	18207.03
527.87	18391.93
528.04	18139.15
528.21	18361.50
528.38	18101.70
528.55	18080.64
528.72	18490.23
528.89	18274.90
529.07	18010.42
529.24	18450.44
529.41	18420.02
529.58	18265.54
529.75	18558.11
529.92	18532.36
530.09	18471.51
530.26	18523.00
530.43	18562.79
530.60	18398.95
530.77	18867.06
530.94	18792.16
531.11	18848.33
531.28	18602.58
531.46	18710.24
531.63	18731.31
531.80	18633.00
531.97	18462.15
532.14	18932.59
532.31	18625.98
532.48	19049.62
532.65	18773.44
532.82	19019.19
532.99	19016.85
533.16	18878.76
533.33	18672.79
533.50	19119.84
533.67	19075.37
533.84	18803.86
534.01	18979.40
534.18	18838.97
534.35	19021.53
534.52	19077.71
534.69	19180.69
534.86	19295.38
535.03	19164.31
535.20	19351.55
535.37	19496.66
535.54	19421.77
535.71	19250.91
535.88	19389.00
536.05	19407.72
536.22	19456.87
536.38	19702.63
536.55	19503.68
536.72	19571.56
536.89	19793.91
537.06	19641.78
537.23	19779.87
537.40	19616.03
537.57	19419.42
537.74	19613.69
537.91	19702.63
538.08	19999.88
538.25	19527.09
538.42	19763.48
538.59	19566.88
538.75	19847.74
538.92	19864.13
539.09	19999.88
539.26	19833.70
539.43	19873.49
539.60	19859.45
539.77	20095.84
539.94	20152.01
540.11	20257.34
540.28	20294.79
540.44	20070.09
540.61	20367.34
540.78	20219.89
540.95	20400.11
541.12	20353.30
541.29	20524.16
541.46	20606.08
541.62	20837.79
541.79	20697.36
541.96	20563.95
542.13	20585.01
542.30	20170.74
542.47	20915.03
542.63	20917.37
542.80	21165.46
542.97	20868.22
543.14	21064.82
543.31	20673.95
543.48	21158.44
543.64	20968.86
543.81	21123.33
543.98	20933.75
544.15	20940.77
544.32	21064.82
544.48	21181.85
544.65	20964.18
544.82	21511.86
544.99	20744.17
545.16	21399.52
545.32	21092.91
545.49	21481.44
545.66	22047.85
545.83	22192.96
546.00	21876.99
546.16	21762.30
546.33	21752.94
546.50	21322.28
546.67	21352.71
546.83	21172.49
547.00	21226.32
547.17	21193.55
547.34	21167.80
547.50	21373.77
547.67	21432.29
547.84	21326.96
548.00	21387.82
548.17	21439.31
548.34	21359.73
548.51	21369.09
548.67	21649.96
548.84	21341.00
549.01	21544.63
549.18	21350.37
549.34	21774.00
549.51	21518.89
549.68	21710.81
549.84	21565.70
550.01	21378.45
550.18	21355.05
550.34	21420.58
550.51	21572.72
550.68	21500.16
550.84	21458.03
551.01	21128.02
551.18	21659.32
551.34	21490.80
551.51	21298.88
551.68	21294.19
551.84	21490.80
552.01	21118.65
552.18	21350.37
552.34	21441.65
552.51	21893.37
552.68	21305.90
552.84	21617.19
553.01	21546.97
553.18	21661.66
553.34	21696.77
553.51	21696.77
553.67	21488.46
553.84	21954.22
554.01	21556.33
554.17	21781.03
554.34	21549.31
554.51	21703.79
554.67	22029.12
554.84	21972.95
555.00	21401.86
555.17	21685.06
555.33	21942.52
555.50	21816.13
555.67	21621.87
555.83	21596.12
556.00	21898.05
556.16	21820.81
556.33	21811.45
556.50	21717.83
556.66	21965.93
556.83	21813.79
556.99	22209.34
557.16	21837.20
557.32	22183.60
557.49	22003.38
557.65	21907.41
557.82	21961.25
557.98	21963.59
558.15	21884.01
558.32	22094.66
558.48	22082.95
558.65	22494.89
558.81	22075.93
558.98	21900.39
559.14	21916.78
559.31	22104.02
559.47	22031.46
559.64	21874.65
559.80	21881.67
559.97	22082.95
560.13	21947.20
560.30	21853.58
560.46	22410.63
560.63	22202.32
560.79	22401.27
560.96	22293.60
561.12	22066.57
561.29	22242.11
561.45	22054.87
561.61	22155.51
561.78	22602.55
561.94	22335.73
562.11	22225.73
562.27	22394.25
562.44	22270.20
562.60	22478.50
562.77	22249.13
562.93	22457.44
563.10	22345.09
563.26	22167.21
563.42	22539.36
563.59	22396.59
563.75	22331.05
563.92	22396.59
564.08	22569.79
564.24	22422.33
564.41	22419.99
564.57	22429.35
564.74	22209.34
564.90	22284.24
565.07	22490.21
565.23	22717.24
565.39	22621.28
565.56	22518.29
565.72	22485.53
565.88	22288.92
566.05	22602.55
566.21	22464.46
566.38	22520.63
566.54	22480.85
566.70	22574.47
566.87	22354.46
567.03	22611.92
567.19	22941.93
567.36	22640.00
567.52	22347.44
567.68	22410.63
567.85	22312.33
568.01	22642.34
568.17	22412.97
568.34	22747.67
568.50	22923.21
568.66	22628.30
568.83	22733.62
568.99	22548.72
569.15	22462.12
569.32	22422.33
569.48	22614.26
569.64	22562.76
569.81	22628.30
569.97	22530.00
570.13	22590.85
570.30	22239.77
570.46	23007.47
570.62	22530.00
570.78	22527.66
570.95	22445.74
571.11	22684.47
571.27	22382.54
571.43	22431.69
571.60	22651.70
571.76	22614.26
571.92	22939.59
572.09	22642.34
572.25	22824.90
572.41	22869.37
572.57	23021.51
572.74	22815.54
572.90	22551.06
573.06	22848.31
573.22	22504.25
573.38	22897.46
573.55	22419.99
573.71	22897.46
573.87	22691.49
574.03	22401.27
574.20	22829.59
574.36	22757.03
574.52	22775.75
574.68	23051.94
574.84	22871.72
575.01	22822.56
575.17	23002.78
575.33	22794.48
575.49	23225.14
575.65	22637.66
575.82	23021.51
575.98	22644.68
576.14	22916.19
576.30	22906.82
576.46	22738.30
576.62	22773.41
576.79	23009.81
576.95	22803.84
577.11	22693.83
577.27	23138.54
577.43	23000.44
577.59	22979.38
577.75	22494.89
577.92	22824.90
578.08	23049.60
578.24	22742.99
578.40	23089.38
578.56	23131.51
578.72	22789.80
578.88	23484.94
579.04	23145.56
579.21	22857.67
579.37	23175.98
579.53	23096.41
579.69	22724.26
579.85	22986.40
580.01	22965.34
580.17	23159.60
580.33	22782.77
580.49	22871.72
580.65	22934.91
580.82	22654.05
580.98	23154.92
581.14	22930.23
581.30	22881.08
581.46	23075.34
581.62	23028.53
581.78	22824.90
581.94	22869.37
582.10	22822.56
582.26	22855.33
582.42	22965.34
582.58	22780.43
582.74	22955.97
582.90	23332.80
583.06	23014.49
583.22	22820.22
583.38	23255.56
583.54	22892.78
583.70	22787.46
583.86	23105.77
584.02	23332.80
584.18	22874.06
584.34	23005.13
584.50	22738.30
584.66	22815.54
584.82	22955.97
584.98	23026.19
585.14	22874.06
585.30	23110.45
585.46	23009.81
585.62	22883.42
585.78	23129.17
585.94	22838.95
586.10	22850.65
586.26	22541.70
586.42	23159.60
586.58	22927.89
586.74	23133.86
586.90	23194.71
587.06	23087.04
587.22	23180.67
587.38	23154.92
587.54	23084.70
587.70	23339.82
587.86	23250.88
588.02	23042.57
588.18	23178.33
588.34	23407.70
588.49	23435.78
588.65	23075.34
588.81	22939.59
588.97	22986.40
589.13	23084.70
589.29	23185.35
589.45	23103.43
589.61	23381.95
589.77	23297.69
589.93	23276.63
590.08	23058.96
590.24	23234.50
590.40	23012.15
590.56	23173.64
590.72	22742.99
590.88	22911.50
591.04	23089.38
591.20	23517.70
591.35	23073.00
591.51	23353.87
591.67	23442.81
591.83	23653.45
591.99	23274.29
592.15	22951.29
592.31	23094.07
592.46	23171.30
592.62	23285.99
592.78	22916.19
592.94	23473.23
593.10	22991.08
593.26	23410.04
593.41	23421.74
593.57	23618.35
593.73	23520.04
593.89	23620.69
594.05	23042.57
594.20	23482.59
594.36	23180.67
594.52	23421.74
594.68	22946.61
594.84	23386.63
594.99	23356.21
595.15	23325.78
595.31	23473.23
595.47	23374.93
595.62	23332.80
595.78	23199.39
595.94	23297.69
596.10	23087.04
596.25	23290.67
596.41	23152.58
596.57	23229.82
596.73	23257.90
596.88	23124.49
597.04	23337.48
597.20	22979.38
597.36	23253.22
597.51	23573.88
597.67	23349.18
597.83	23283.65
597.99	23042.57
598.14	23124.49
598.30	23339.82
598.46	23508.34
598.61	23255.56
598.77	23424.08
598.93	23311.74
599.09	23323.44
599.24	23538.77
599.40	23501.32
599.56	23377.27
599.71	23314.08
599.87	23295.35
600.03	23047.26
600.18	23594.94
600.34	23351.52
600.50	23370.25
600.65	23089.38
600.81	23510.68
600.97	23117.47
601.12	23384.29
601.28	23463.87
601.44	23201.73
601.59	23190.03
601.75	23016.83
601.91	23302.37
602.06	23250.88
602.22	23498.98
602.37	23138.54
602.53	23332.80
602.69	23234.50
602.84	23309.40
603.00	23410.04
603.16	23183.01
603.31	23379.61
603.47	23208.75
603.62	23302.37
603.78	23370.25
603.94	22930.23
604.09	23325.78
604.25	23138.54
604.40	23269.61
604.56	23129.17
604.71	23213.43
604.87	22845.97
605.03	23218.11
605.18	23290.67
605.34	23096.41
605.49	22895.12
605.65	23197.05
605.80	23360.89
605.96	23274.29
606.12	23091.73
606.27	23538.77
606.43	23513.02
606.58	23213.43
606.74	23398.34
606.89	22941.93
607.05	23131.51
607.20	22948.95
607.36	23330.46
607.51	23016.83
607.67	23346.84
607.82	23129.17
607.98	23164.28
608.13	22850.65
608.29	22855.33
608.44	23190.03
608.60	23126.83
608.75	23007.47
608.91	23372.59
609.06	23400.68
609.22	23089.38
609.37	22782.77
609.53	23009.81
609.68	23344.50
609.84	23126.83
609.99	23285.99
610.15	23197.05
610.30	23328.12
610.46	23730.69
610.61	23821.97
610.76	23889.85
610.92	23761.12
611.07	24027.94
611.23	24074.75
611.38	24601.37
611.54	24173.05
611.69	24222.20
611.84	23927.30
612.00	23992.83
612.15	23903.89
612.31	23894.53
612.46	23360.89
612.62	23325.78
612.77	23391.31
612.92	23175.98
613.08	23192.37
613.23	23204.07
613.39	23208.75
613.54	23407.70
613.69	23166.62
613.85	22871.72
614.00	23351.52
614.15	23285.99
614.31	22845.97
614.46	23637.07
614.62	23468.55
614.77	23049.60
614.92	23021.51
615.08	22909.16
615.23	22735.96
615.38	22836.61
615.54	22459.78
615.69	22710.22
615.84	22925.55
616.00	22735.96
616.15	22541.70
616.30	22836.61
616.46	22389.56
616.61	22228.07
616.76	22497.23
616.92	22459.78
617.07	22394.25
617.22	22845.97
617.37	22345.09
617.53	22597.87
617.68	22450.42
617.83	22419.99
617.99	22623.62
618.14	22944.27
618.29	22258.49
618.45	22408.29
618.60	22487.87
618.75	22106.36
618.90	22380.20
619.06	22443.40
619.21	22235.09
619.36	22207.00
619.51	22054.87
619.67	21937.84
619.82	22441.06
619.97	22361.48
620.12	22459.78
620.28	22277.22
620.43	22487.87
620.58	22551.06
620.73	22349.78
620.89	22419.99
621.04	22174.24
621.19	22176.58
621.34	22068.91
621.49	21968.27
621.65	22368.50
621.80	22515.95
621.95	22253.81
622.10	21891.03
622.25	22216.36
622.41	22085.30
622.56	21858.26
622.71	22068.91
622.86	22092.32
623.01	21902.73
623.16	22312.33
623.32	21979.97
623.47	22258.49
623.62	22015.08
623.77	22253.81
623.92	22101.68
624.07	22148.49
624.23	22232.75
624.38	22085.30
624.53	21972.95
624.68	22012.74
624.83	21972.95
624.98	21696.77
625.13	21853.58
625.29	22033.80
625.44	21846.56
625.59	22019.76
625.74	21757.62
625.89	21865.28
626.04	21792.73
626.19	21603.14
626.34	21738.90
626.49	21717.83
626.65	21598.46
626.80	21832.52
626.95	21724.85
627.10	21640.59
627.25	21476.76
627.40	21530.59
627.55	21493.14
627.70	21633.57
627.85	21490.80
628.00	21371.43
628.15	21451.01
628.30	21408.88
628.45	21432.29
628.60	21455.69
628.76	21172.49
628.91	21446.33
629.06	21364.41
629.21	21174.83
629.36	21308.24
629.51	21357.39
629.66	21289.51
629.81	21474.42
629.96	21458.03
630.11	21003.97
630.26	21319.94
630.41	21579.74
630.56	21429.94
630.71	21298.88
630.86	21441.65
631.01	21205.25
631.16	21226.32
631.31	21025.03
631.46	21177.17
631.61	21376.11
631.76	21284.83
631.91	21277.81
632.06	21015.67
632.21	20863.54
632.36	21027.37
632.51	21067.16
632.66	21191.21
632.81	20812.04
632.96	21170.15
633.10	20823.75
633.25	20802.68
633.40	20493.73
633.55	20805.02
633.70	20758.21
633.85	20449.26
634.00	21193.55
634.15	20730.12
634.30	20805.02
634.45	20767.57
634.60	21174.83
634.75	20772.25
634.90	21039.08
635.05	20933.75
635.19	20563.95
635.34	20746.51
635.49	20725.44
635.64	20795.66
635.79	20758.21
635.94	20379.04
636.09	20577.99
636.24	20580.33
636.39	20802.68
636.53	20627.14
636.68	20802.68
636.83	20416.49
636.98	20613.10
637.13	20208.19
637.28	20638.84
637.43	20287.76
637.57	20421.17
637.72	20372.02
637.87	20292.44
638.02	20376.70
638.17	20393.09
638.32	20046.69
638.46	20336.91
638.61	20397.77
638.76	20517.14
638.91	20285.42
639.06	20465.64
639.20	20657.57
639.35	20575.65
639.50	20418.83
639.65	20521.82
639.80	20395.43
639.94	20170.74
640.09	20168.40
640.24	20266.70
640.39	20144.99
640.54	20194.14
640.68	20217.55
640.83	20121.59
640.98	20255.00
641.13	19852.42
641.27	20112.22
641.42	20222.23
641.57	20240.95
641.72	20458.62
641.86	19936.68
642.01	19768.16
642.16	19974.13
642.31	19838.38
642.45	20245.63
642.60	20044.35
642.75	19992.86
642.90	20191.80
643.04	20217.55
643.19	20042.01
643.34	20215.21
643.48	20332.23
643.63	20163.72
643.78	19676.88
643.93	19906.26
644.07	19845.40
644.22	19950.73
644.37	19943.70
644.51	19779.87
644.66	19859.45
644.81	19999.88
644.95	19768.16
645.10	20030.30
645.25	19992.86
645.39	19967.11
645.54	19850.08
645.69	19873.49
645.83	19807.95
645.98	19917.96
646.13	19943.70
646.27	19852.42
646.42	19960.09
646.57	19651.14
646.71	19896.89
646.86	19740.08
647.00	19763.48
647.15	19618.37
647.30	19585.60
647.44	19871.15
647.59	19571.56
647.74	19513.05
647.88	19702.63
648.03	19702.63
648.17	19576.24
648.32	19138.56
648.47	19646.46
648.61	19396.02
648.76	19711.99
648.90	19534.11
649.05	19213.46
649.20	19721.35
649.34	19580.92
649.49	19253.25
649.63	19491.98
649.78	19592.62
649.92	19548.15
650.07	19763.48
650.21	19594.96
650.36	19461.55
650.51	19147.92
650.65	19447.51
650.80	19737.74
650.94	19580.92
651.09	19185.37
651.23	19417.08
651.38	19222.82
651.52	19278.99
651.67	19506.02
651.81	19634.75
651.96	19555.18
652.10	19295.38
652.25	19087.07
652.39	18869.40
652.54	18934.93
652.68	19070.68
652.83	18993.45
652.97	19192.39
653.12	19386.66
653.26	19508.37
653.41	19431.13
653.55	19356.23
653.70	19124.52
653.84	18991.11
653.99	19185.37
654.13	19103.45
654.27	18995.79
654.42	19108.13
654.56	19257.93
654.71	18958.34
654.85	18981.74
655.00	18927.91
655.14	18871.74
655.29	18501.93
655.43	18918.55
655.57	18878.76
655.72	18810.89
655.86	18970.04
656.01	18501.93
656.15	18520.66
656.30	18733.65
656.44	18878.76
656.58	18906.85
656.73	18927.91
656.87	18883.44
657.01	18473.85
657.16	18794.50
657.30	18551.09
657.45	18817.91
657.59	18478.53
657.73	18338.10
657.88	18651.73
658.02	18864.72
658.16	18572.15
658.31	18408.31
658.45	18665.77
658.60	18473.85
658.74	18441.08
658.88	18906.85
659.03	18609.60
659.17	18328.74
659.31	18354.48
659.46	18317.03
659.60	18476.19
659.74	18347.46
659.89	18408.31
660.03	18218.73
660.17	18410.65
660.32	18340.44
660.46	18310.01
660.60	18345.12
660.74	18176.60
660.89	18443.42
661.03	18132.13
661.17	18162.56
661.32	18026.81
661.46	18225.75
661.60	17919.14
661.74	18092.34
661.89	17933.18
662.03	18242.14
662.17	17923.82
662.31	17907.44
662.46	17731.90
662.60	17799.77
662.74	17884.03
662.88	17923.82
663.03	17523.59
663.17	17905.10
663.31	17743.60
663.45	17947.23
663.60	17511.89
663.74	17788.07
663.88	17673.39
664.02	17547.00
664.17	17823.18
664.31	17420.61
664.45	17404.22
664.59	17322.30
664.73	17399.54
664.88	17675.73
665.02	17638.28
665.16	17589.13
665.30	17497.84
665.44	17460.40
665.59	17317.62
665.73	17448.69
665.87	17329.33
666.01	17537.63
666.15	17149.11
666.29	17195.92
666.44	17181.87
666.58	17050.80
666.72	17064.85
666.86	17231.02
667.00	17132.72
667.14	17343.37
667.28	17046.12
667.43	16980.59
667.57	17315.28
667.71	17053.14
667.85	17027.40
667.99	17055.48
668.13	17291.88
668.27	16940.80
668.41	16678.66
668.56	16793.34
668.70	16563.97
668.84	16540.57
668.98	16416.52
669.12	16578.01
669.26	16774.62
669.40	16631.85
669.54	16795.68
669.68	16468.01
669.82	16524.18
669.96	16463.33
670.10	16355.66
670.25	16716.11
670.39	16570.99
670.53	16367.37
670.67	16358.00
670.81	16589.72
670.95	16367.37
671.09	16547.59
671.23	16269.06
671.37	16425.88
671.51	16273.74
671.65	16269.06
671.79	16004.58
671.93	16067.78
672.07	16369.71
672.21	15932.03
672.35	16065.44
672.49	16362.69
672.63	16051.39
672.77	16004.58
672.91	16095.86
673.05	15695.63
673.19	15791.59
673.33	15749.46
673.47	15578.61
673.61	15648.82
673.75	15674.57
673.89	15777.55
674.03	15419.45
674.17	15618.39
674.31	15583.29
674.45	15754.15
674.59	15573.92
674.73	15506.05
674.87	15683.93
675.01	15012.20
675.15	15534.14
675.29	15396.04
675.43	15508.39
675.56	15234.55
675.70	15194.76
675.84	14925.60
675.98	14750.06
676.12	14782.82
676.26	15496.69
676.40	15337.53
676.54	15288.38
676.68	15009.86
676.82	14796.87
676.96	14977.09
677.10	15119.86
677.23	14738.35
677.37	15061.35
677.51	14771.12
677.65	14843.68
677.79	14572.18
677.93	14441.11
678.07	14548.77
678.21	14389.61
678.34	14193.01
678.48	14022.15
678.62	14441.11
678.76	14356.85
678.90	14317.06
679.04	14207.05
679.18	14115.77
679.31	13977.68
679.45	14214.07
679.59	14139.18
679.73	14094.71
679.87	14040.87
680.00	13947.25
680.14	13860.65
680.28	13727.24
680.42	13785.76
680.56	13657.03
680.70	14031.51
680.83	13776.39
680.97	13855.97
681.11	13790.44
681.25	13488.51
681.39	13373.82
681.52	13486.17
681.66	13528.30
681.80	13547.02
681.94	13380.84
682.07	13394.89
682.21	13427.65
682.35	13493.19
682.49	13413.61
682.62	12999.34
682.76	13039.12
682.90	12982.95
683.04	13125.72
683.17	12919.76
683.31	13146.79
683.45	13277.86
683.59	13174.88
683.72	12816.77
683.86	13004.02
684.00	12964.23
684.13	12805.07
684.27	12772.30
684.41	12627.19
684.55	12564.00
684.68	12622.51
684.82	12568.68
684.96	12205.89
685.09	12439.95
685.23	12397.82
685.37	12879.97
685.50	12360.37
685.64	12276.11
685.78	12514.84
685.91	12446.97
686.05	12306.54
686.19	12175.47
686.32	11960.14
686.46	11997.59
686.60	11974.18
686.73	12245.68
686.87	12065.46
687.01	11941.41
687.14	12123.98
687.28	11772.89
687.42	11824.39
687.55	11620.76
687.69	11716.72
687.82	11833.75
687.96	11669.91
688.10	11400.75
688.23	11850.13
688.37	11655.87
688.50	11370.32
688.64	11316.49
688.78	11431.18
688.91	11403.09
689.05	11342.24
689.18	11112.86
689.32	11007.54
689.46	11063.71
689.59	11007.54
689.73	11110.52
689.86	11159.67
690.00	11119.89
690.13	10932.64
690.27	11129.25
690.41	11049.67
690.54	10691.57
690.68	10705.61
690.81	10869.45
690.95	11110.52
691.08	10869.45
691.22	10750.08
691.35	10581.56
691.49	10766.46
691.62	10911.58
691.76	10611.99
691.89	10717.31
692.03	10574.54
692.16	10691.57
692.30	10532.41
692.43	10541.77
692.57	10347.51
692.70	10380.28
692.84	10457.51
692.97	10361.55
693.11	10244.52
693.24	10078.35
693.38	10031.54
693.51	10052.60
693.65	9949.62
693.78	10246.87
693.92	10204.74
694.05	10139.20
694.19	10001.11
694.32	10083.03
694.45	10293.68
694.59	9966.00
694.72	9902.81
694.86	9736.63
694.99	9652.37
695.13	9771.74
695.26	9565.77
695.39	9699.18
695.53	9607.90
695.66	9640.67
695.80	9266.18
695.93	9387.89
696.07	9490.87
696.20	9495.55
696.33	9401.93
696.47	9226.39
696.60	9245.12
696.73	9294.27
696.87	9071.92
697.00	9256.82
697.14	9287.25
697.27	9081.28
697.40	8997.02
697.54	8926.80
697.67	8669.34
697.80	9062.55
697.94	8978.30
698.07	8741.90
698.21	8667.00
698.34	8650.62
698.47	8901.06
698.61	8685.73
698.74	8475.08
698.87	8842.54
699.01	8428.27
699.14	8645.94
699.27	8786.37
699.40	8901.06
699.54	8952.55
699.67	8559.34
699.80	8454.02
699.94	8119.32
700.07	8327.63
700.20	8175.49
700.34	8198.90
700.47	8264.43
700.60	8138.04
700.73	7976.55
700.87	8126.34
701.00	8079.53
701.13	8121.66
701.26	7903.99
701.40	7953.14
701.53	8102.93
701.66	7974.21
701.79	8037.40
701.93	8081.87
702.06	7948.46
702.19	7934.42
702.32	7850.16
702.46	7859.52
702.59	7695.68
702.72	7740.15
702.85	7665.25
702.99	7445.24
703.12	7473.33
703.25	7634.83
703.38	7503.76
703.51	7632.49
703.65	7569.29
703.78	7651.21
703.91	7463.97
704.04	7543.55
704.17	7391.41
704.31	7426.52
704.44	7255.66
704.57	7229.91
704.70	7222.89
704.83	7063.74
704.96	7190.13
705.10	7178.42
705.23	7342.26
>>>>>End Processed Spectral Data<<<<<
