SpectraSuite Data File
++++++++++++++++++++++++++++++++++++
Date: Thu Oct 24 13:21:04 EDT 2013
User: stostad
Dark Spectrum Present: No
Reference Spectrum Present: No
Number of Sampled Component Spectra: 1
Spectrometers: USB2+H05261
Integration Time (usec): 100000 (USB2+H05261)
Spectra Averaged: 1 (USB2+H05261)
Boxcar Smoothing: 0 (USB2+H05261)
Correct for Electrical Dark: No (USB2+H05261)
Strobe/Lamp Enabled: No (USB2+H05261)
Correct for Detector Non-linearity: No (USB2+H05261)
Correct for Stray Light: No (USB2+H05261)
Number of Pixels in Processed Spectrum: 2048
>>>>>Begin Processed Spectral Data<<<<<
365.73	571.09
365.92	571.09
366.12	571.09
366.32	550.03
366.52	416.62
366.72	550.03
366.91	418.96
367.11	409.59
367.31	519.60
367.51	425.98
367.70	451.72
367.90	411.93
368.10	489.17
368.30	442.36
368.49	428.32
368.69	519.60
368.89	477.47
369.09	514.92
369.28	463.43
369.48	493.85
369.68	531.30
369.87	540.66
370.07	496.19
370.27	500.87
370.47	554.71
370.66	599.18
370.86	702.16
371.06	779.40
371.25	669.39
371.45	730.25
371.65	678.76
371.84	692.80
372.04	767.70
372.24	767.70
372.44	732.59
372.63	711.52
372.83	720.88
373.03	760.67
373.22	704.50
373.42	718.54
373.62	755.99
373.81	784.08
374.01	795.78
374.21	854.30
374.40	791.10
374.60	765.36
374.79	793.44
374.99	760.67
375.19	840.25
375.38	816.85
375.58	798.12
375.78	795.78
375.97	877.70
376.17	870.68
376.37	851.96
376.56	833.23
376.76	739.61
376.95	842.59
377.15	779.40
377.35	800.46
377.54	821.53
377.74	795.78
377.93	753.65
378.13	798.12
378.33	755.99
378.52	849.61
378.72	858.98
378.91	887.06
379.11	779.40
379.31	866.00
379.50	800.46
379.70	760.67
379.89	828.55
380.09	844.93
380.28	842.59
380.48	891.74
380.68	802.80
380.87	870.68
381.07	873.02
381.26	798.12
381.46	851.96
381.65	835.57
381.85	889.40
382.04	837.91
382.24	802.80
382.43	795.78
382.63	847.27
382.83	819.19
383.02	863.66
383.22	903.45
383.41	854.30
383.61	826.21
383.80	882.38
384.00	788.76
384.19	856.64
384.39	840.25
384.58	781.74
384.78	891.74
384.97	798.12
385.17	889.40
385.36	814.51
385.56	926.85
385.75	887.06
385.95	903.45
386.14	952.60
386.34	830.89
386.53	891.74
386.72	943.24
386.92	898.77
387.11	891.74
387.31	873.02
387.50	936.21
387.70	931.53
387.89	875.36
388.09	847.27
388.28	802.80
388.48	861.32
388.67	887.06
388.86	891.74
389.06	882.38
389.25	983.02
389.45	940.90
389.64	856.64
389.84	931.53
390.03	919.83
390.22	896.43
390.42	926.85
390.61	926.85
390.81	983.02
391.00	968.98
391.19	1008.77
391.39	915.15
391.58	940.90
391.78	950.26
391.97	985.37
392.16	1029.84
392.36	971.32
392.55	1043.88
392.75	985.37
392.94	999.41
393.13	1011.11
393.33	912.81
393.52	1013.45
393.71	938.55
393.91	1006.43
394.10	1022.81
394.29	994.73
394.49	1050.90
394.68	922.17
394.88	978.34
395.07	1032.18
395.26	1027.50
395.46	1006.43
395.65	1064.94
395.84	1064.94
396.04	1067.28
396.23	1067.28
396.42	1001.75
396.62	1034.52
396.81	1055.58
397.00	997.07
397.19	1071.97
397.39	1020.47
397.58	1093.03
397.77	1102.39
397.97	1083.67
398.16	1109.41
398.35	1114.10
398.55	1078.99
398.74	1057.92
398.93	1086.01
399.12	1114.10
399.32	1074.31
399.51	1160.91
399.70	1153.88
399.90	1153.88
400.09	1149.20
400.28	1170.27
400.47	1132.82
400.67	1149.20
400.86	1153.88
401.05	1203.04
401.24	1249.85
401.44	1146.86
401.63	1235.80
401.82	1273.25
402.01	1097.71
402.21	1160.91
402.40	1172.61
402.59	1156.22
402.78	1188.99
402.97	1170.27
403.17	1235.80
403.36	1191.33
403.55	1186.65
403.74	1219.42
403.93	1245.16
404.13	1310.70
404.32	1320.06
404.51	1313.04
404.70	1245.16
404.89	1263.89
405.09	1266.23
405.28	1249.85
405.47	1336.45
405.66	1259.21
405.85	1320.06
406.05	1235.80
406.24	1270.91
406.43	1284.95
406.62	1343.47
406.81	1282.61
407.00	1296.66
407.20	1364.53
407.39	1308.36
407.58	1369.21
407.77	1334.11
407.96	1343.47
408.15	1420.71
408.34	1376.24
408.54	1369.21
408.73	1401.98
408.92	1373.89
409.11	1341.13
409.30	1430.07
409.49	1439.43
409.68	1383.26
409.87	1394.96
410.07	1465.18
410.26	1362.19
410.45	1462.83
410.64	1437.09
410.83	1474.54
411.02	1537.73
411.21	1469.86
411.40	1535.39
411.59	1500.28
411.78	1451.13
411.98	1495.60
412.17	1563.48
412.36	1535.39
412.55	1605.61
412.74	1516.67
412.93	1621.99
413.12	1640.72
413.31	1652.42
413.50	1610.29
413.69	1582.20
413.88	1647.74
414.07	1610.29
414.26	1624.33
414.45	1647.74
414.64	1659.44
414.83	1657.10
415.02	1680.50
415.22	1783.49
415.41	1743.70
415.60	1813.92
415.79	1844.34
415.98	1792.85
416.17	1687.53
416.36	1732.00
416.55	1701.57
416.74	1823.28
416.93	1774.13
417.12	1884.13
417.31	1827.96
417.50	1764.76
417.69	1809.23
417.88	1921.58
418.07	1851.36
418.26	1769.44
418.45	1802.21
418.64	1909.88
418.83	1963.71
419.02	1884.13
419.21	1895.83
419.39	1944.99
419.58	1893.49
419.77	1884.13
419.96	1909.88
420.15	1942.64
420.34	1907.54
420.53	1996.48
420.72	2040.95
420.91	2024.56
421.10	1898.17
421.29	2083.08
421.48	2094.78
421.67	1947.33
421.86	1905.20
422.05	1926.26
422.24	2047.97
422.43	1956.69
422.61	2036.27
422.80	1968.39
422.99	2066.69
423.18	2160.31
423.37	2043.29
423.56	2057.33
423.75	2076.06
423.94	2139.25
424.13	1961.37
424.32	1886.47
424.50	2076.06
424.69	2113.50
424.88	2125.21
425.07	2001.16
425.26	1996.48
425.45	2036.27
425.64	2062.01
425.83	2029.24
426.01	2005.84
426.20	1940.30
426.39	2066.69
426.58	2207.13
426.77	2083.08
426.96	2069.03
427.15	2003.50
427.33	2033.93
427.52	2008.18
427.71	2064.35
427.90	2118.18
428.09	2113.50
428.28	2174.36
428.46	2157.97
428.65	2179.04
428.84	2153.29
429.03	2279.68
429.22	2216.49
429.40	2155.63
429.59	2209.47
429.78	2209.47
429.97	2092.44
430.16	2209.47
430.34	2303.09
430.53	2279.68
430.72	2331.17
430.91	2335.85
431.10	2298.41
431.28	2275.00
431.47	2267.98
431.66	2347.56
431.85	2338.20
432.03	2434.16
432.22	2345.22
432.41	2333.51
432.60	2340.54
432.79	2377.98
432.97	2303.09
433.16	2340.54
433.35	2368.62
433.54	2298.41
433.72	2403.73
433.91	2286.70
434.10	2415.43
434.28	2410.75
434.47	2434.16
434.66	2452.88
434.85	2511.39
435.03	2590.97
435.22	2738.43
435.41	2930.35
435.59	2710.34
435.78	2745.45
435.97	2537.14
436.16	2511.39
436.34	2586.29
436.53	2490.33
436.72	2443.52
436.90	2537.14
437.09	2567.57
437.28	2569.91
437.46	2593.31
437.65	2548.84
437.84	2567.57
438.02	2525.44
438.21	2637.78
438.40	2607.36
438.58	2572.25
438.77	2656.51
438.96	2597.99
439.14	2553.52
439.33	2654.17
439.52	2612.04
439.70	2708.00
439.89	2675.23
440.08	2881.20
440.26	2764.17
440.45	2771.19
440.63	2801.62
440.82	2899.92
441.01	2780.56
441.19	2883.54
441.38	2860.13
441.57	2832.05
441.75	2818.00
441.94	2920.99
442.12	2977.16
442.31	2883.54
442.50	2974.82
442.68	2930.35
442.87	2972.48
443.05	2995.89
443.24	3054.40
443.43	3042.70
443.61	2895.24
443.80	3077.80
443.98	2918.65
444.17	2902.26
444.35	3070.78
444.54	3098.87
444.73	2953.76
444.91	3108.23
445.10	3059.08
445.28	3014.61
445.47	3035.67
445.65	3047.38
445.84	3056.74
446.02	2963.12
446.21	2991.20
446.39	3087.17
446.58	3026.31
446.77	3122.27
446.95	3021.63
447.14	3162.06
447.32	3077.80
447.51	3030.99
447.69	3002.91
447.88	3047.38
448.06	3056.74
448.25	3068.44
448.43	3159.72
448.62	3122.27
448.80	3094.19
448.99	3038.02
449.17	3096.53
449.36	3155.04
449.54	3077.80
449.73	3159.72
449.91	3330.58
450.10	3190.15
450.28	3150.36
450.46	3190.15
450.65	3236.96
450.83	3199.51
451.02	3204.19
451.20	3391.44
451.39	3297.81
451.57	3246.32
451.76	3138.66
451.94	3243.98
452.13	3265.05
452.31	3449.95
452.49	3225.26
452.68	3276.75
452.86	3304.84
453.05	3213.56
453.23	3251.00
453.42	3272.07
453.60	3365.69
453.78	3419.52
453.97	3398.46
454.15	3328.24
454.34	3325.90
454.52	3445.27
454.70	3440.59
454.89	3475.70
455.07	3419.52
455.26	3382.07
455.44	3461.65
455.62	3482.72
455.81	3452.29
455.99	3597.40
456.17	3527.19
456.36	3522.51
456.54	3503.78
456.73	3630.17
456.91	3644.21
457.09	3501.44
457.28	3616.13
457.46	3581.02
457.64	3639.53
457.83	3679.32
458.01	3541.23
458.19	3751.88
458.38	3564.64
458.56	3784.65
458.74	3765.92
458.93	3709.75
459.11	3592.72
459.29	3695.71
459.48	3721.45
459.66	3728.47
459.84	3700.39
460.03	3796.35
460.21	3789.33
460.39	3772.94
460.57	3674.64
460.76	3784.65
460.94	3794.01
461.12	3812.73
461.31	3906.35
461.49	3808.05
461.67	3880.61
461.85	3913.38
462.04	3833.80
462.22	4189.56
462.40	4030.40
462.59	3925.08
462.77	3925.08
462.95	3927.42
463.13	3822.09
463.32	3992.95
463.50	3971.89
463.68	3896.99
463.86	3782.31
464.05	3936.78
464.23	4014.02
464.41	4053.81
464.59	3845.50
464.78	4056.15
464.96	4135.73
465.14	3997.64
465.32	4011.68
465.50	4065.51
465.69	4224.67
465.87	4049.13
466.05	4109.98
466.23	4077.21
466.41	4152.11
466.60	4271.48
466.78	4117.00
466.96	4163.81
467.14	4222.33
467.32	4121.68
467.51	4217.65
467.69	4201.26
467.87	4210.62
468.05	4231.69
468.23	4189.56
468.41	4248.07
468.60	4308.93
468.78	4210.62
468.96	4212.96
469.14	4257.43
469.32	4416.59
469.50	4016.36
469.69	4236.37
469.87	4320.63
470.05	4329.99
470.23	4355.74
470.41	4362.76
470.59	4372.12
470.77	4458.72
470.95	4400.21
471.14	4421.27
471.32	4339.35
471.50	4456.38
471.68	4475.10
471.86	4610.86
472.04	4531.28
472.22	4519.57
472.40	4381.48
472.58	4582.77
472.77	4545.32
472.95	4655.33
473.13	4706.82
473.31	4636.60
473.49	4805.12
473.67	4526.60
473.85	4760.65
474.03	4762.99
474.21	4592.13
474.39	4868.31
474.57	4847.25
474.75	4819.16
474.93	4903.42
475.12	4894.06
475.30	5111.73
475.48	4950.23
475.66	4968.96
475.84	4971.30
476.02	5090.67
476.20	4957.25
476.38	5020.45
476.56	5177.26
476.74	5104.71
476.92	5102.37
477.10	5158.54
477.28	5039.17
477.46	5385.57
477.64	5261.52
477.82	5245.14
478.00	5591.54
478.18	5411.32
478.36	5444.09
478.54	5479.19
478.72	5497.92
478.90	5479.19
479.08	5643.03
479.26	5568.13
479.44	5638.35
479.62	5626.65
479.80	5863.04
479.98	5664.10
480.16	5853.68
480.34	5750.70
480.52	5909.85
480.70	5900.49
480.88	5881.77
481.06	5907.51
481.24	5949.64
481.41	5980.07
481.59	6167.31
481.77	5989.43
481.95	6186.04
482.13	6179.01
482.31	6108.80
482.49	6347.53
482.67	6317.11
482.85	6265.61
483.03	6434.13
483.21	6516.05
483.39	6532.44
483.57	6438.81
483.74	6607.33
483.92	6715.00
484.10	6572.22
484.28	6855.43
484.46	6817.98
484.64	6874.15
484.82	6717.34
485.00	6998.20
485.18	7145.66
485.35	7201.83
485.53	7133.95
485.71	7194.81
485.89	7213.53
486.07	7204.17
486.25	7110.55
486.43	7344.60
486.61	7262.68
486.78	7435.88
486.96	7592.70
487.14	7548.23
487.32	7548.23
487.50	7583.34
487.68	7808.03
487.85	7698.02
488.03	7793.98
488.21	7927.39
488.39	7901.65
488.57	7826.75
488.75	7953.14
488.92	8149.75
489.10	8051.44
489.28	8236.35
489.46	8292.52
489.64	8163.79
489.81	8266.77
489.99	8208.26
490.17	8278.47
490.35	8456.36
490.53	8631.90
490.70	8718.50
490.88	8575.72
491.06	8765.31
491.24	8439.97
491.41	8786.37
491.59	8870.63
491.77	8842.54
491.95	8734.88
492.13	8980.64
492.30	8910.42
492.48	8945.53
492.66	8945.53
492.84	9104.68
493.01	9233.41
493.19	9219.37
493.37	9336.40
493.54	9261.50
493.72	9284.91
493.90	9364.48
494.08	9610.24
494.25	9614.92
494.43	9521.30
494.61	9654.71
494.79	9755.35
494.96	9565.77
495.14	9458.10
495.32	9769.40
495.49	9832.59
495.67	10122.82
495.85	10085.37
496.02	10127.50
496.20	10139.20
496.38	10040.90
496.55	10181.33
496.73	10209.42
496.91	10108.77
497.09	10328.78
497.26	10338.15
497.44	10359.21
497.62	10209.42
497.79	10640.08
497.97	10576.88
498.14	10487.94
498.32	10658.80
498.50	10752.42
498.67	10649.44
498.85	10733.70
499.03	10740.72
499.20	10972.43
499.38	10803.91
499.56	10923.28
499.73	10696.25
499.91	10850.72
500.08	11007.54
500.26	10892.85
500.44	10937.32
500.61	11152.65
500.79	11005.20
500.97	10988.82
501.14	11571.61
501.32	11201.80
501.49	11229.89
501.67	11243.93
501.84	11470.97
502.02	11513.10
502.20	11611.40
502.37	11227.55
502.55	11342.24
502.72	11435.86
502.90	11438.20
503.07	11487.35
503.25	11545.86
503.43	11452.24
503.60	11410.11
503.78	11768.21
503.95	11667.57
504.13	11782.26
504.30	11672.25
504.48	11765.87
504.65	11889.92
504.83	12072.48
505.01	11946.09
505.18	12025.67
505.36	12049.08
505.53	11824.39
505.71	12210.57
505.88	12236.32
506.06	12215.26
506.23	12257.39
506.41	12105.25
506.58	12079.50
506.76	12451.65
506.93	12608.47
507.11	12278.45
507.28	12332.28
507.46	12512.50
507.63	12528.89
507.81	12601.44
507.98	12547.61
508.16	12627.19
508.33	12390.80
508.50	12524.21
508.68	12746.56
508.85	12922.10
509.03	12709.11
509.20	12844.86
509.38	12688.04
509.55	12973.59
509.73	12634.21
509.90	13088.28
510.08	12919.76
510.25	12870.61
510.42	13212.32
510.60	13181.90
510.77	13273.18
510.95	13235.73
511.12	13160.83
511.30	13149.13
511.47	13275.52
511.64	13177.22
511.82	13322.33
511.99	13315.31
512.17	13301.26
512.34	13472.12
512.51	13392.55
512.69	13621.92
512.86	13455.74
513.04	13657.03
513.21	13385.52
513.38	13530.64
513.56	13614.90
513.73	13687.45
513.90	13792.78
514.08	13745.97
514.25	13846.61
514.43	13724.90
514.60	13802.14
514.77	13987.04
514.95	13839.59
515.12	13785.76
515.29	13912.14
515.47	14169.60
515.64	14354.51
515.81	14169.60
515.99	14008.11
516.16	13991.72
516.33	14157.90
516.51	14270.25
516.68	14340.46
516.85	14614.30
517.03	14237.48
517.20	14246.84
517.37	14064.28
517.54	14197.69
517.72	14253.86
517.89	14448.13
518.06	14532.39
518.24	14548.77
518.41	14595.58
518.58	14284.29
518.75	14342.80
518.93	14450.47
519.10	14654.09
519.27	14459.83
519.45	14644.73
519.62	14511.32
519.79	14817.93
519.96	14813.25
520.14	14904.53
520.31	14698.56
520.48	15131.56
520.65	14794.53
520.83	15019.22
521.00	14941.98
521.17	14857.72
521.34	14888.15
521.52	15103.48
521.69	14993.47
521.86	15007.52
522.03	15208.80
522.20	15110.50
522.38	15213.48
522.55	15337.53
522.72	15276.68
522.89	15166.67
523.07	15433.49
523.24	15096.46
523.41	15503.71
523.58	15122.20
523.75	15466.26
523.92	15438.17
524.10	15641.80
524.27	15426.47
524.44	15609.03
524.61	15789.25
524.78	15171.35
524.96	15426.47
525.13	15824.36
525.30	15585.63
525.47	15786.91
525.64	15597.33
525.81	15712.02
525.98	15850.11
526.16	15534.14
526.33	15611.37
526.50	16128.63
526.67	15564.56
526.84	16020.97
527.01	15882.88
527.18	15880.53
527.36	15957.77
527.53	15733.08
527.70	15906.28
527.87	16229.27
528.04	16168.42
528.21	16346.30
528.38	16025.65
528.55	16184.80
528.72	16203.53
528.89	16070.12
529.07	16074.80
529.24	15838.41
529.41	16280.77
529.58	16578.01
529.75	16187.14
529.92	16334.60
530.09	16105.23
530.26	16130.97
530.43	16196.51
530.60	16098.20
530.77	16222.25
530.94	16578.01
531.11	16549.93
531.28	16835.47
531.46	16615.46
531.63	16463.33
531.80	16622.48
531.97	16435.24
532.14	16737.17
532.31	16388.43
532.48	16617.80
532.65	16613.12
532.82	16542.91
532.99	16512.48
533.16	16851.86
533.33	16676.32
533.50	16741.85
533.67	16608.44
533.84	16374.39
534.01	16554.61
534.18	16762.92
534.35	17062.51
534.52	16875.26
534.69	16872.92
534.86	16842.50
535.03	16470.35
535.20	16938.46
535.37	17003.99
535.54	17081.23
535.71	17050.80
535.88	17015.69
536.05	16959.52
536.22	17214.64
536.38	17214.64
536.55	17151.45
536.72	17071.87
536.89	16952.50
537.06	17172.51
537.23	17486.14
537.40	17212.30
537.57	17385.50
537.74	17142.08
537.91	17750.62
538.08	17387.84
538.25	17282.52
538.42	17291.88
538.59	17436.99
538.75	17373.80
538.92	17334.01
539.09	17179.53
539.26	17282.52
539.43	17366.78
539.60	17329.33
539.77	17348.05
539.94	17776.37
540.11	17563.38
540.28	17865.31
540.44	17668.70
540.61	17612.53
540.78	17572.74
540.95	17638.28
541.12	17846.58
541.29	18153.20
541.46	18267.88
541.62	18265.54
541.79	18523.00
541.96	18115.75
542.13	18211.71
542.30	18242.14
542.47	18279.58
542.63	18270.22
542.80	18354.48
542.97	18515.98
543.14	18628.32
543.31	18796.84
543.48	18501.93
543.64	18515.98
543.81	18649.39
543.98	18621.30
544.15	18412.99
544.32	18473.85
544.48	18581.51
544.65	18665.77
544.82	18427.04
544.99	18523.00
545.16	18359.16
545.32	18555.77
545.49	19082.39
545.66	19618.37
545.83	19564.54
546.00	19494.32
546.16	18874.08
546.33	19323.46
546.50	18530.02
546.67	18745.35
546.83	18656.41
547.00	18546.40
547.17	18441.08
547.34	18679.82
547.50	18560.45
547.67	18656.41
547.84	18813.23
548.00	18937.27
548.17	18806.20
548.34	19051.96
548.51	18728.97
548.67	18974.72
548.84	18806.20
549.01	18700.88
549.18	18956.00
549.34	18944.30
549.51	18766.42
549.68	19281.33
549.84	18745.35
550.01	19061.32
550.18	18698.54
550.34	18675.13
550.51	19084.73
550.68	18993.45
550.84	18684.50
551.01	18705.56
551.18	18731.31
551.34	18906.85
551.51	18951.32
551.68	18647.05
551.84	18766.42
552.01	18684.50
552.18	18965.36
552.34	18813.23
552.51	19281.33
552.68	18647.05
552.84	18778.12
553.01	19014.51
553.18	18796.84
553.34	18965.36
553.51	19183.03
553.67	19131.54
553.84	19283.67
554.01	19264.95
554.17	18869.40
554.34	19157.28
554.51	19051.96
554.67	18848.33
554.84	19262.61
555.00	19035.58
555.17	18923.23
555.33	18977.06
555.50	18888.12
555.67	19037.92
555.83	19372.61
556.00	18998.13
556.16	19199.41
556.33	19161.97
556.50	19108.13
556.66	19459.21
556.83	19051.96
556.99	19288.35
557.16	19503.68
557.32	19241.54
557.49	19592.62
557.65	19248.57
557.82	18958.34
557.98	19351.55
558.15	19103.45
558.32	19297.72
558.48	19302.40
558.65	19627.73
558.81	19433.47
558.98	19520.07
559.14	19489.64
559.31	19344.53
559.47	19442.83
559.64	19571.56
559.80	19400.70
559.97	19459.21
560.13	19342.19
560.30	19433.47
560.46	19513.05
560.63	19487.30
560.79	19609.01
560.96	19548.15
561.12	19271.97
561.29	19829.02
561.45	19119.84
561.61	19309.42
561.78	19765.82
561.94	19372.61
562.11	19740.08
562.27	19683.91
562.44	19606.67
562.60	19426.45
562.77	19543.47
562.93	19262.61
563.10	19665.18
563.26	19463.90
563.42	19538.79
563.59	19829.02
563.75	19419.42
563.92	19763.48
564.08	19641.78
564.24	19758.80
564.41	19473.26
564.57	19562.20
564.74	19278.99
564.90	19716.67
565.07	19740.08
565.23	19419.42
565.39	19527.09
565.56	19578.58
565.72	19803.27
565.88	19824.34
566.05	19782.21
566.21	19800.93
566.38	19779.87
566.54	19882.85
566.70	19634.75
566.87	19770.51
567.03	19616.03
567.19	19929.66
567.36	19861.79
567.52	19735.40
567.68	20042.01
567.85	19814.98
568.01	19728.38
568.17	19812.63
568.34	19852.42
568.50	20011.58
568.66	19817.32
568.83	19749.44
568.99	19463.90
569.15	20187.12
569.32	19772.85
569.48	19463.90
569.64	19805.61
569.81	19836.04
569.97	19681.56
570.13	19768.16
570.30	19852.42
570.46	20114.56
570.62	19873.49
570.78	19981.15
570.95	19599.65
571.11	19903.92
571.27	19861.79
571.43	19974.13
571.60	20121.59
571.76	19896.89
571.92	19798.59
572.09	19468.58
572.25	20042.01
572.41	20016.26
572.57	20009.24
572.74	20030.30
572.90	19948.39
573.06	19976.47
573.22	20144.99
573.38	19723.69
573.55	19639.44
573.71	20379.04
573.87	19976.47
574.03	20049.03
574.20	19817.32
574.36	20091.16
574.52	20100.52
574.68	19758.80
574.84	20042.01
575.01	19957.75
575.17	20196.48
575.33	19775.19
575.49	19936.68
575.65	20051.37
575.82	20219.89
575.98	19955.41
576.14	19967.11
576.30	20034.99
576.46	20107.54
576.62	19974.13
576.79	20086.48
576.95	20051.37
577.11	20020.94
577.27	20315.85
577.43	19957.75
577.59	19899.23
577.75	19810.29
577.92	19822.00
578.08	19896.89
578.24	19871.15
578.40	20107.54
578.56	19814.98
578.72	20208.19
578.88	20435.22
579.04	20212.87
579.21	20105.20
579.37	20250.32
579.53	19929.66
579.69	20357.98
579.85	19992.86
580.01	20130.95
580.17	20156.69
580.33	19967.11
580.49	20320.53
580.65	19885.19
580.82	20006.90
580.98	20006.90
581.14	19836.04
581.30	19861.79
581.46	20526.50
581.62	20053.71
581.78	20224.57
581.94	20116.90
582.10	20051.37
582.26	20159.03
582.42	20294.79
582.58	20175.42
582.74	20112.22
582.90	20077.12
583.06	20135.63
583.22	20215.21
583.38	20353.30
583.54	20374.36
583.70	20280.74
583.86	20292.44
584.02	20156.69
584.18	20266.70
584.34	19969.45
584.50	20215.21
584.66	20051.37
584.82	20320.53
584.98	20283.08
585.14	20039.67
585.30	20159.03
585.46	20299.47
585.62	20140.31
585.78	19967.11
585.94	20081.80
586.10	20170.74
586.26	20318.19
586.42	20365.00
586.58	20395.43
586.74	20189.46
586.90	20093.50
587.06	20299.47
587.22	20325.21
587.38	20161.37
587.54	20411.81
587.70	20285.42
587.86	20184.78
588.02	20243.29
588.18	20222.23
588.34	20493.73
588.49	20053.71
588.65	20542.88
588.81	20006.90
588.97	20203.50
589.13	20320.53
589.29	20334.57
589.45	20414.15
589.61	20306.49
589.77	20486.71
589.93	20149.67
590.08	20325.21
590.24	20528.84
590.40	20240.95
590.56	20238.61
590.72	20285.42
590.88	20058.39
591.04	20053.71
591.20	20393.09
591.35	20294.79
591.51	20561.61
591.67	20671.61
591.83	20425.86
591.99	20198.82
592.15	20210.53
592.31	20334.57
592.46	20133.29
592.62	20409.47
592.78	19988.18
592.94	20435.22
593.10	20315.85
593.26	20449.26
593.41	20542.88
593.57	20475.01
593.73	20585.01
593.89	20622.46
594.05	20315.85
594.20	20231.59
594.36	20334.57
594.52	20077.12
594.68	20271.38
594.84	19969.45
594.99	20470.33
595.15	20379.04
595.31	20491.39
595.47	20517.14
595.62	20046.69
595.78	20187.12
595.94	20264.36
596.10	20299.47
596.25	20327.55
596.41	20720.76
596.57	19988.18
596.73	20383.73
596.88	20362.66
597.04	20519.48
597.20	20531.18
597.36	20435.22
597.51	20318.19
597.67	20259.68
597.83	20224.57
597.99	20423.51
598.14	20226.91
598.30	20629.48
598.46	20631.82
598.61	20552.24
598.77	20521.82
598.93	20311.17
599.09	20622.46
599.24	20711.40
599.40	20416.49
599.56	20491.39
599.71	20484.37
599.87	20315.85
600.03	19920.30
600.18	20524.16
600.34	20163.72
600.50	19999.88
600.65	20486.71
600.81	20512.46
600.97	20449.26
601.12	20683.31
601.28	20500.75
601.44	20449.26
601.59	20208.19
601.75	20348.62
601.91	20629.48
602.06	20355.64
602.22	20238.61
602.37	20311.17
602.53	20304.15
602.69	20489.05
602.84	20376.70
603.00	20357.98
603.16	20292.44
603.31	20666.93
603.47	20327.55
603.62	20386.07
603.78	20240.95
603.94	20149.67
604.09	20472.67
604.25	20201.16
604.40	20088.82
604.56	20126.27
604.71	20287.76
604.87	20290.10
605.03	20383.73
605.18	20152.01
605.34	20348.62
605.49	20339.26
605.65	20175.42
605.80	20042.01
605.96	19971.79
606.12	20346.28
606.27	20414.15
606.43	20320.53
606.58	20547.56
606.74	20475.01
606.89	20362.66
607.05	20013.92
607.20	19910.94
607.36	20070.09
607.51	19934.34
607.67	20336.91
607.82	20475.01
607.98	20510.11
608.13	20166.06
608.29	20250.32
608.44	20079.46
608.60	20273.72
608.75	20498.41
608.91	20521.82
609.06	20205.84
609.22	20247.97
609.37	20236.27
609.53	20205.84
609.68	20074.77
609.84	20617.78
609.99	20285.42
610.15	20521.82
610.30	20547.56
610.46	20823.75
610.61	21064.82
610.76	21057.80
610.92	21376.11
611.07	21219.30
611.23	21163.12
611.38	21752.94
611.54	21186.53
611.69	20868.22
611.84	21006.31
612.00	20753.53
612.15	21076.52
612.31	20570.97
612.46	20741.83
612.62	20568.63
612.77	20561.61
612.92	20652.89
613.08	19946.05
613.23	20166.06
613.39	20173.08
613.54	20262.02
613.69	20327.55
613.85	20390.75
614.00	20472.67
614.15	20435.22
614.31	20189.46
614.46	20318.19
614.62	20425.86
614.77	19990.52
614.92	19861.79
615.08	20006.90
615.23	19955.41
615.38	20191.80
615.54	19997.54
615.69	19810.29
615.84	19908.60
616.00	19779.87
616.15	19885.19
616.30	19667.52
616.46	19754.12
616.61	19571.56
616.76	19653.48
616.92	19599.65
617.07	19637.09
617.22	19419.42
617.37	19499.00
617.53	19590.28
617.68	19700.29
617.83	19711.99
617.99	19859.45
618.14	19768.16
618.29	19555.18
618.45	19601.99
618.60	19852.42
618.75	19318.78
618.90	19405.38
619.06	19559.86
619.21	19321.12
619.36	19426.45
619.51	19424.11
619.67	19307.08
619.82	19323.46
619.97	19779.87
620.12	19541.13
620.28	19601.99
620.43	19489.64
620.58	19372.61
620.73	19491.98
620.89	19213.46
621.04	19213.46
621.19	19431.13
621.34	19246.23
621.49	19056.64
621.65	18888.12
621.80	19262.61
621.95	19208.78
622.10	19215.80
622.25	19143.24
622.41	19435.81
622.56	19424.11
622.71	19417.08
622.86	19136.22
623.01	19016.85
623.16	19117.50
623.32	19164.31
623.47	19398.36
623.62	19475.60
623.77	19145.58
623.92	19407.72
624.07	19346.87
624.23	19089.41
624.38	19473.26
624.53	19126.86
624.68	19278.99
624.83	19410.06
624.98	19194.73
625.13	18757.05
625.29	19098.77
625.44	18930.25
625.59	18923.23
625.74	18913.87
625.89	18953.66
626.04	18927.91
626.19	18771.10
626.34	19044.94
626.49	18850.67
626.65	19054.30
626.80	18843.65
626.95	18785.14
627.10	18677.48
627.25	18813.23
627.40	19005.15
627.55	18892.80
627.70	19087.07
627.85	19133.88
628.00	18668.11
628.15	18951.32
628.30	18686.84
628.45	18806.20
628.60	18672.79
628.76	18625.98
628.91	18771.10
629.06	18696.20
629.21	18965.36
629.36	18590.88
629.51	18497.25
629.66	18698.54
629.81	18618.96
629.96	18471.51
630.11	18642.37
630.26	18485.55
630.41	18675.13
630.56	18499.59
630.71	18916.21
630.86	18902.17
631.01	18618.96
631.16	18604.92
631.31	18693.86
631.46	18349.80
631.61	18515.98
631.76	18604.92
631.91	18445.76
632.06	18602.58
632.21	18604.92
632.36	18293.63
632.51	18422.36
632.66	18501.93
632.81	18359.16
632.96	18436.40
633.10	18176.60
633.25	18082.98
633.40	18001.06
633.55	18403.63
633.70	18534.70
633.85	18558.11
634.00	18572.15
634.15	18319.37
634.30	18120.43
634.45	18544.06
634.60	18391.93
634.75	18026.81
634.90	18302.99
635.05	18026.81
635.19	18153.20
635.34	18253.84
635.49	18045.53
635.64	18459.81
635.79	18164.90
635.94	18092.34
636.09	17855.95
636.24	18001.06
636.39	18132.13
636.53	17898.08
636.68	18246.82
636.83	18190.64
636.98	18230.43
637.13	17914.46
637.28	17907.44
637.43	18125.11
637.57	18134.47
637.72	17628.92
637.87	18024.47
638.02	17507.21
638.17	17867.65
638.32	17486.14
638.46	17689.77
638.61	17579.76
638.76	17884.03
638.91	18127.45
639.06	17965.95
639.20	18017.44
639.35	17909.78
639.50	17841.90
639.65	17895.74
639.80	17827.86
639.94	17839.56
640.09	17886.37
640.24	17816.16
640.39	17486.14
640.54	17731.90
640.68	17680.41
640.83	17708.49
640.98	17511.89
641.13	17451.03
641.27	17666.36
641.42	17649.98
641.57	17734.24
641.72	17682.75
641.86	17551.68
642.01	17310.60
642.16	17397.20
642.31	17741.26
642.45	17586.79
642.60	17518.91
642.75	17518.91
642.90	17802.11
643.04	17301.24
643.19	17303.58
643.34	17422.95
643.48	17537.63
643.63	17462.74
643.78	17266.13
643.93	17214.64
644.07	17172.51
644.22	17362.09
644.37	17179.53
644.51	17385.50
644.66	17502.53
644.81	17483.80
644.95	17322.30
645.10	17413.59
645.25	17312.94
645.39	17092.93
645.54	17151.45
645.69	17331.67
645.83	17441.67
645.98	17062.51
646.13	17245.07
646.27	17102.29
646.42	17411.25
646.57	17102.29
646.71	17186.55
646.86	17455.72
647.00	17369.12
647.15	17568.06
647.30	17149.11
647.44	17205.28
647.59	17202.94
647.74	16882.28
647.88	16893.99
648.03	17336.35
648.17	17046.12
648.32	16575.67
648.47	16915.05
648.61	16800.37
648.76	17057.82
648.90	16924.41
649.05	17088.25
649.20	16964.20
649.34	17224.00
649.49	17177.19
649.63	17315.28
649.78	17315.28
649.92	17142.08
650.07	17001.65
650.21	17146.76
650.36	16774.62
650.51	16847.18
650.65	16931.44
650.80	16966.54
650.94	17074.21
651.09	17027.40
651.23	16961.86
651.38	16863.56
651.52	16606.10
651.67	17029.74
651.81	16767.60
651.96	16917.39
652.10	16893.99
652.25	16739.51
652.39	16519.50
652.54	16580.36
652.68	16404.81
652.83	16690.36
652.97	16512.48
653.12	16751.21
653.26	16599.08
653.41	17025.06
653.55	16706.74
653.70	16631.85
653.84	16776.96
653.99	16678.66
654.13	16629.51
654.27	16652.91
654.42	16772.28
654.56	16538.23
654.71	16554.61
654.85	16830.79
655.00	16685.68
655.14	16592.06
655.29	16498.44
655.43	16468.01
655.57	16638.87
655.72	16315.87
655.86	16592.06
656.01	16381.41
656.15	16430.56
656.30	16606.10
656.44	16418.86
656.58	16711.42
656.73	16704.40
656.87	16276.09
657.01	16390.77
657.16	16360.34
657.30	16119.27
657.45	16086.50
657.59	16262.04
657.73	16231.62
657.88	16137.99
658.02	16542.91
658.16	16194.17
658.31	16180.12
658.45	16259.70
658.60	16049.05
658.74	15765.85
658.88	16081.82
659.03	16058.42
659.17	16039.69
659.31	16009.26
659.46	16039.69
659.60	15854.79
659.74	15733.08
659.89	15983.52
660.03	15822.02
660.17	15733.08
660.32	15908.62
660.46	15620.74
660.60	16067.78
660.74	16025.65
660.89	16004.58
661.03	15702.65
661.17	15800.96
661.32	15660.52
661.46	16121.61
661.60	15873.51
661.74	15676.91
661.89	15410.09
662.03	15641.80
662.17	15665.21
662.31	15445.20
662.46	15693.29
662.60	15405.41
662.74	15672.23
662.88	15477.96
663.03	15653.50
663.17	15578.61
663.31	15440.51
663.45	15428.81
663.60	15499.03
663.74	15382.00
663.88	15477.96
664.02	15370.30
664.17	15377.32
664.31	15257.95
664.45	15220.50
664.59	15332.85
664.73	15145.61
664.88	15286.04
665.02	15096.46
665.16	15236.89
665.30	15267.31
665.44	15323.49
665.59	15040.28
665.73	15091.77
665.87	14972.41
666.01	15250.93
666.15	14871.76
666.29	14960.70
666.44	15185.40
666.58	14993.47
666.72	15030.92
666.86	15000.49
667.00	15396.04
667.14	14773.46
667.28	14626.01
667.43	14883.47
667.57	15019.22
667.71	14916.23
667.85	15000.49
667.99	14970.07
668.13	14881.13
668.27	14843.68
668.41	14710.27
668.56	14581.54
668.70	14661.12
668.84	14689.20
668.98	14661.12
669.12	14626.01
669.26	14707.93
669.40	14377.91
669.54	14471.53
669.68	14562.81
669.82	14480.89
669.96	14558.13
670.10	14427.06
670.25	14597.92
670.39	14382.59
670.53	14253.86
670.67	14471.53
670.81	14588.56
670.95	14413.02
671.09	14450.47
671.23	14190.67
671.37	14471.53
671.51	14333.44
671.65	14352.16
671.79	13991.72
671.93	14024.49
672.07	14099.39
672.21	14176.62
672.35	13994.06
672.49	14038.53
672.63	13973.00
672.77	14190.67
672.91	14075.98
673.05	13699.16
673.19	13692.13
673.33	13554.04
673.47	13422.97
673.61	13909.80
673.75	13771.71
673.89	13816.18
674.03	13486.17
674.17	13652.34
674.31	13811.50
674.45	13839.59
674.59	13816.18
674.73	13855.97
674.87	13401.91
675.01	13811.50
675.15	13584.47
675.29	13518.93
675.43	13551.70
675.56	13509.57
675.70	13528.30
675.84	13235.73
675.98	12875.29
676.12	12959.55
676.26	13165.51
676.40	13408.93
676.54	12982.95
676.68	13022.74
676.82	12884.65
676.96	13060.19
677.10	12835.50
677.23	13076.57
677.37	13006.36
677.51	12964.23
677.65	12781.67
677.79	12776.98
677.93	12779.32
678.07	12727.83
678.21	12835.50
678.34	12533.57
678.48	12512.50
678.62	12599.10
678.76	12713.79
678.90	12430.59
679.04	12400.16
679.18	12315.90
679.31	12339.30
679.45	12252.70
679.59	12250.36
679.73	12226.96
679.87	12229.30
680.00	12184.83
680.14	12020.99
680.28	12025.67
680.42	12046.74
680.56	12154.40
680.70	12081.85
680.83	12025.67
680.97	12074.82
681.11	12140.36
681.25	11712.04
681.39	11707.36
681.52	11822.05
681.66	11962.48
681.80	11765.87
681.94	11918.01
682.07	11822.05
682.21	11751.83
682.35	11639.48
682.49	11555.22
682.62	11595.01
682.76	11428.84
682.90	11358.62
683.04	11541.18
683.17	11253.30
683.31	11580.97
683.45	11241.59
683.59	11475.65
683.72	11494.37
683.86	11379.68
684.00	11272.02
684.13	11286.06
684.27	11105.84
684.41	11021.58
684.55	10888.17
684.68	11187.76
684.82	11066.05
684.96	10832.00
685.09	10780.51
685.23	10958.39
685.37	10869.45
685.50	11080.10
685.64	10951.37
685.78	10902.22
685.91	10899.87
686.05	10902.22
686.19	10562.84
686.32	10614.33
686.46	10576.88
686.60	10743.06
686.73	10761.78
686.87	10518.37
687.01	10551.14
687.14	10602.63
687.28	10560.50
687.42	10363.89
687.55	10314.74
687.69	10448.15
687.82	10274.95
687.96	10307.72
688.10	10317.08
688.23	10382.62
688.37	10071.33
688.50	10190.69
688.64	10092.39
688.78	10050.26
688.91	9947.28
689.05	9984.73
689.18	9825.57
689.32	9790.46
689.46	9699.18
689.59	9937.91
689.73	9975.36
689.86	9673.43
690.00	9713.22
690.13	9813.87
690.27	9577.47
690.41	9631.30
690.54	9600.88
690.68	9687.48
690.81	9722.59
690.95	9563.43
691.08	9523.64
691.22	9408.95
691.35	9345.76
691.49	9554.07
691.62	9338.74
691.76	9380.87
691.89	9282.56
692.03	9329.38
692.16	9102.34
692.30	9392.57
692.43	9188.94
692.57	8975.95
692.70	8947.87
692.84	9025.11
692.97	8879.99
693.11	8938.51
693.24	8943.19
693.38	8854.25
693.51	8805.10
693.65	9036.81
693.78	8847.22
693.92	8936.17
694.05	8751.26
694.19	8648.28
694.32	8791.05
694.45	8758.28
694.59	8697.43
694.72	8753.60
694.86	8627.21
694.99	8631.90
695.13	8245.71
695.26	8449.33
695.39	8358.05
695.53	8512.53
695.66	8264.43
695.80	8367.42
695.93	8308.90
696.07	8177.83
696.20	8292.52
696.33	8208.26
696.47	8072.51
696.60	8091.23
696.73	8051.44
696.87	8077.19
697.00	8140.38
697.14	8133.36
697.27	7962.50
697.40	7971.86
697.54	7866.54
697.67	7803.35
697.80	7665.25
697.94	7808.03
698.07	7719.09
698.21	7810.37
698.34	7693.34
698.47	7527.16
698.61	7573.97
698.74	7646.53
698.87	7702.70
699.01	7583.34
699.14	7581.00
699.27	7538.87
699.40	7761.22
699.54	7466.31
699.67	7527.16
699.80	7389.07
699.94	7335.24
700.07	7227.57
700.20	7332.90
700.34	7222.89
700.47	7323.54
700.60	7417.16
700.73	7014.59
700.87	7286.09
701.00	6909.26
701.13	6925.65
701.26	7089.48
701.40	6981.82
701.53	6843.73
701.66	6923.30
701.79	6970.12
701.93	7077.78
702.06	7040.33
702.19	6986.50
702.32	7007.56
702.46	6705.63
702.59	6710.32
702.72	6682.23
702.85	6705.63
702.99	6518.39
703.12	6504.35
703.25	6464.56
703.38	6665.85
703.51	6579.25
703.65	6534.78
703.78	6656.48
703.91	6546.48
704.04	6621.38
704.17	6619.04
704.31	6485.62
704.44	6403.71
704.57	6384.98
704.70	6434.13
704.83	6244.55
704.96	6282.00
705.10	6289.02
705.23	6270.30
>>>>>End Processed Spectral Data<<<<<
