SpectraSuite Data File
++++++++++++++++++++++++++++++++++++
Date: Thu Oct 24 13:20:59 EDT 2013
User: stostad
Dark Spectrum Present: No
Reference Spectrum Present: No
Number of Sampled Component Spectra: 1
Spectrometers: USB2+H05261
Integration Time (usec): 100000 (USB2+H05261)
Spectra Averaged: 1 (USB2+H05261)
Boxcar Smoothing: 0 (USB2+H05261)
Correct for Electrical Dark: No (USB2+H05261)
Strobe/Lamp Enabled: No (USB2+H05261)
Correct for Detector Non-linearity: No (USB2+H05261)
Correct for Stray Light: No (USB2+H05261)
Number of Pixels in Processed Spectrum: 2048
>>>>>Begin Processed Spectral Data<<<<<
365.73	550.03
365.92	550.03
366.12	550.03
366.32	482.15
366.52	411.93
366.72	433.00
366.91	418.96
367.11	442.36
367.31	430.66
367.51	369.80
367.70	421.30
367.90	458.74
368.10	472.79
368.30	477.47
368.49	491.51
368.69	454.06
368.89	463.43
369.09	465.77
369.28	491.51
369.48	458.74
369.68	442.36
369.87	491.51
370.07	557.05
370.27	503.22
370.47	617.90
370.66	496.19
370.86	559.39
371.06	580.45
371.25	638.97
371.45	627.26
371.65	617.90
371.84	589.82
372.04	627.26
372.24	580.45
372.44	669.39
372.63	634.29
372.83	587.47
373.03	580.45
373.22	667.05
373.42	622.58
373.62	634.29
373.81	638.97
374.01	650.67
374.21	660.03
374.40	704.50
374.60	683.44
374.79	585.13
374.99	638.97
375.19	608.54
375.38	592.16
375.58	648.33
375.78	641.31
375.97	650.67
376.17	755.99
376.37	664.71
376.56	608.54
376.76	561.73
376.95	624.92
377.15	664.71
377.35	629.60
377.54	631.94
377.74	629.60
377.93	629.60
378.13	589.82
378.33	631.94
378.52	671.73
378.72	662.37
378.91	624.92
379.11	631.94
379.31	662.37
379.50	578.11
379.70	599.18
379.89	615.56
380.09	587.47
380.28	615.56
380.48	627.26
380.68	585.13
380.87	599.18
381.07	587.47
381.26	734.93
381.46	566.41
381.65	592.16
381.85	683.44
382.04	571.09
382.24	631.94
382.43	594.50
382.63	585.13
382.83	624.92
383.02	662.37
383.22	627.26
383.41	678.76
383.61	653.01
383.80	634.29
384.00	660.03
384.19	610.88
384.39	615.56
384.58	582.79
384.78	627.26
384.97	613.22
385.17	580.45
385.36	660.03
385.56	624.92
385.75	603.86
385.95	629.60
386.14	634.29
386.34	610.88
386.53	601.52
386.72	596.84
386.92	599.18
387.11	641.31
387.31	641.31
387.50	610.88
387.70	521.94
387.89	540.66
388.09	552.37
388.28	653.01
388.48	599.18
388.67	613.22
388.86	676.41
389.06	554.71
389.25	573.43
389.45	594.50
389.64	660.03
389.84	660.03
390.03	580.45
390.22	526.62
390.42	606.20
390.61	634.29
390.81	615.56
391.00	671.73
391.19	653.01
391.39	655.35
391.58	610.88
391.78	594.50
391.97	571.09
392.16	627.26
392.36	613.22
392.55	643.65
392.75	615.56
392.94	603.86
393.13	622.58
393.33	631.94
393.52	538.32
393.71	608.54
393.91	648.33
394.10	559.39
394.29	634.29
394.49	655.35
394.68	634.29
394.88	685.78
395.07	683.44
395.26	648.33
395.46	692.80
395.65	582.79
395.84	585.13
396.04	599.18
396.23	636.63
396.42	653.01
396.62	613.22
396.81	615.56
397.00	528.96
397.19	617.90
397.39	669.39
397.58	653.01
397.77	608.54
397.97	653.01
398.16	702.16
398.35	589.82
398.55	641.31
398.74	669.39
398.93	653.01
399.12	608.54
399.32	587.47
399.51	674.07
399.70	613.22
399.90	662.37
400.09	650.67
400.28	624.92
400.47	624.92
400.67	620.24
400.86	634.29
401.05	645.99
401.24	695.14
401.44	613.22
401.63	631.94
401.82	613.22
402.01	587.47
402.21	608.54
402.40	575.77
402.59	606.20
402.78	645.99
402.97	624.92
403.17	643.65
403.36	697.48
403.55	648.33
403.74	634.29
403.93	657.69
404.13	662.37
404.32	657.69
404.51	653.01
404.70	662.37
404.89	636.63
405.09	603.86
405.28	603.86
405.47	589.82
405.66	631.94
405.85	629.60
406.05	660.03
406.24	631.94
406.43	624.92
406.62	692.80
406.81	617.90
407.00	617.90
407.20	634.29
407.39	589.82
407.58	540.66
407.77	657.69
407.96	699.82
408.15	641.31
408.34	617.90
408.54	601.52
408.73	657.69
408.92	660.03
409.11	629.60
409.30	599.18
409.49	615.56
409.68	585.13
409.87	678.76
410.07	631.94
410.26	617.90
410.45	573.43
410.64	599.18
410.83	671.73
411.02	641.31
411.21	634.29
411.40	629.60
411.59	634.29
411.78	636.63
411.98	624.92
412.17	601.52
412.36	620.24
412.55	557.05
412.74	653.01
412.93	683.44
413.12	624.92
413.31	631.94
413.50	720.88
413.69	645.99
413.88	648.33
414.07	613.22
414.26	580.45
414.45	610.88
414.64	669.39
414.83	620.24
415.02	613.22
415.22	617.90
415.41	688.12
415.60	615.56
415.79	615.56
415.98	650.67
416.17	608.54
416.36	550.03
416.55	578.11
416.74	627.26
416.93	660.03
417.12	613.22
417.31	629.60
417.50	645.99
417.69	564.07
417.88	617.90
418.07	592.16
418.26	571.09
418.45	660.03
418.64	641.31
418.83	718.54
419.02	624.92
419.21	582.79
419.39	671.73
419.58	578.11
419.77	634.29
419.96	681.10
420.15	613.22
420.34	573.43
420.53	645.99
420.72	655.35
420.91	631.94
421.10	638.97
421.29	667.05
421.48	622.58
421.67	655.35
421.86	664.71
422.05	554.71
422.24	589.82
422.43	674.07
422.61	674.07
422.80	617.90
422.99	631.94
423.18	582.79
423.37	697.48
423.56	716.20
423.75	620.24
423.94	655.35
424.13	683.44
424.32	587.47
424.50	683.44
424.69	571.09
424.88	681.10
425.07	580.45
425.26	631.94
425.45	695.14
425.64	657.69
425.83	629.60
426.01	695.14
426.20	585.13
426.39	580.45
426.58	601.52
426.77	664.71
426.96	634.29
427.15	664.71
427.33	662.37
427.52	669.39
427.71	592.16
427.90	603.86
428.09	622.58
428.28	655.35
428.46	657.69
428.65	678.76
428.84	615.56
429.03	711.52
429.22	571.09
429.40	580.45
429.59	561.73
429.78	671.73
429.97	674.07
430.16	613.22
430.34	685.78
430.53	606.20
430.72	624.92
430.91	636.63
431.10	697.48
431.28	624.92
431.47	617.90
431.66	603.86
431.85	683.44
432.03	648.33
432.22	688.12
432.41	599.18
432.60	676.41
432.79	629.60
432.97	592.16
433.16	627.26
433.35	657.69
433.54	624.92
433.72	627.26
433.91	667.05
434.10	585.13
434.28	634.29
434.47	674.07
434.66	690.46
434.85	706.84
435.03	725.57
435.22	987.71
435.41	1153.88
435.59	1078.99
435.78	917.49
435.97	798.12
436.16	802.80
436.34	667.05
436.53	669.39
436.72	660.03
436.90	606.20
437.09	648.33
437.28	662.37
437.46	645.99
437.65	657.69
437.84	678.76
438.02	667.05
438.21	653.01
438.40	636.63
438.58	617.90
438.77	648.33
438.96	678.76
439.14	643.65
439.33	655.35
439.52	645.99
439.70	674.07
439.89	674.07
440.08	622.58
440.26	552.37
440.45	634.29
440.63	688.12
440.82	643.65
441.01	636.63
441.19	653.01
441.38	596.84
441.57	624.92
441.75	615.56
441.94	631.94
442.12	613.22
442.31	631.94
442.50	613.22
442.68	624.92
442.87	596.84
443.05	603.86
443.24	641.31
443.43	664.71
443.61	657.69
443.80	650.67
443.98	657.69
444.17	676.41
444.35	664.71
444.54	624.92
444.73	704.50
444.91	643.65
445.10	655.35
445.28	676.41
445.47	706.84
445.65	664.71
445.84	706.84
446.02	645.99
446.21	594.50
446.39	603.86
446.58	697.48
446.77	622.58
446.95	589.82
447.14	599.18
447.32	641.31
447.51	580.45
447.69	645.99
447.88	585.13
448.06	645.99
448.25	655.35
448.43	636.63
448.62	592.16
448.80	608.54
448.99	638.97
449.17	615.56
449.36	631.94
449.54	653.01
449.73	645.99
449.91	638.97
450.10	650.67
450.28	737.27
450.46	615.56
450.65	615.56
450.83	653.01
451.02	624.92
451.20	662.37
451.39	648.33
451.57	601.52
451.76	608.54
451.94	667.05
452.13	653.01
452.31	641.31
452.49	648.33
452.68	671.73
452.86	578.11
453.05	610.88
453.23	699.82
453.42	706.84
453.60	674.07
453.78	683.44
453.97	657.69
454.15	620.24
454.34	592.16
454.52	648.33
454.70	676.41
454.89	608.54
455.07	589.82
455.26	674.07
455.44	629.60
455.62	643.65
455.81	653.01
455.99	615.56
456.17	664.71
456.36	711.52
456.54	594.50
456.73	648.33
456.91	631.94
457.09	683.44
457.28	699.82
457.46	669.39
457.64	636.63
457.83	643.65
458.01	596.84
458.19	622.58
458.38	585.13
458.56	622.58
458.74	601.52
458.93	653.01
459.11	669.39
459.29	643.65
459.48	660.03
459.66	617.90
459.84	688.12
460.03	645.99
460.21	690.46
460.39	741.95
460.57	655.35
460.76	608.54
460.94	627.26
461.12	655.35
461.31	645.99
461.49	669.39
461.67	596.84
461.85	634.29
462.04	599.18
462.22	917.49
462.40	660.03
462.59	683.44
462.77	627.26
462.95	650.67
463.13	641.31
463.32	650.67
463.50	667.05
463.68	573.43
463.86	617.90
464.05	645.99
464.23	669.39
464.41	660.03
464.59	601.52
464.78	564.07
464.96	627.26
465.14	727.91
465.32	610.88
465.50	622.58
465.69	648.33
465.87	657.69
466.05	624.92
466.23	645.99
466.41	657.69
466.60	667.05
466.78	643.65
466.96	627.26
467.14	648.33
467.32	671.73
467.51	645.99
467.69	631.94
467.87	655.35
468.05	657.69
468.23	648.33
468.41	706.84
468.60	587.47
468.78	617.90
468.96	615.56
469.14	657.69
469.32	674.07
469.50	662.37
469.69	641.31
469.87	599.18
470.05	613.22
470.23	660.03
470.41	613.22
470.59	601.52
470.77	596.84
470.95	669.39
471.14	615.56
471.32	667.05
471.50	638.97
471.68	681.10
471.86	699.82
472.04	624.92
472.22	655.35
472.40	648.33
472.58	674.07
472.77	681.10
472.95	685.78
473.13	629.60
473.31	645.99
473.49	638.97
473.67	622.58
473.85	620.24
474.03	662.37
474.21	688.12
474.39	681.10
474.57	683.44
474.75	587.47
474.93	636.63
475.12	622.58
475.30	550.03
475.48	601.52
475.66	629.60
475.84	667.05
476.02	634.29
476.20	697.48
476.38	615.56
476.56	629.60
476.74	622.58
476.92	648.33
477.10	645.99
477.28	697.48
477.46	622.58
477.64	690.46
477.82	683.44
478.00	697.48
478.18	629.60
478.36	692.80
478.54	657.69
478.72	624.92
478.90	713.86
479.08	622.58
479.26	709.18
479.44	650.67
479.62	603.86
479.80	610.88
479.98	638.97
480.16	662.37
480.34	671.73
480.52	688.12
480.70	662.37
480.88	657.69
481.06	653.01
481.24	716.20
481.41	599.18
481.59	683.44
481.77	629.60
481.95	678.76
482.13	681.10
482.31	631.94
482.49	594.50
482.67	641.31
482.85	636.63
483.03	692.80
483.21	622.58
483.39	606.20
483.57	674.07
483.74	767.70
483.92	699.82
484.10	702.16
484.28	676.41
484.46	683.44
484.64	695.14
484.82	732.59
485.00	713.86
485.18	685.78
485.35	784.08
485.53	709.18
485.71	697.48
485.89	660.03
486.07	662.37
486.25	732.59
486.43	777.06
486.61	774.72
486.78	781.74
486.96	770.04
487.14	720.88
487.32	725.57
487.50	699.82
487.68	737.27
487.85	798.12
488.03	746.63
488.21	763.01
488.39	669.39
488.57	669.39
488.75	716.20
488.92	814.51
489.10	741.95
489.28	624.92
489.46	678.76
489.64	725.57
489.81	695.14
489.99	706.84
490.17	702.16
490.35	741.95
490.53	711.52
490.70	678.76
490.88	730.25
491.06	720.88
491.24	718.54
491.41	772.38
491.59	723.23
491.77	678.76
491.95	716.20
492.13	688.12
492.30	674.07
492.48	638.97
492.66	739.61
492.84	641.31
493.01	629.60
493.19	737.27
493.37	697.48
493.54	741.95
493.72	716.20
493.90	720.88
494.08	784.08
494.25	713.86
494.43	718.54
494.61	720.88
494.79	615.56
494.96	636.63
495.14	645.99
495.32	601.52
495.49	727.91
495.67	634.29
495.85	653.01
496.02	645.99
496.20	697.48
496.38	697.48
496.55	610.88
496.73	692.80
496.91	692.80
497.09	655.35
497.26	727.91
497.44	688.12
497.62	746.63
497.79	650.67
497.97	692.80
498.14	678.76
498.32	723.23
498.50	638.97
498.67	587.47
498.85	620.24
499.03	674.07
499.20	683.44
499.38	653.01
499.56	706.84
499.73	690.46
499.91	674.07
500.08	674.07
500.26	669.39
500.44	720.88
500.61	669.39
500.79	669.39
500.97	718.54
501.14	704.50
501.32	657.69
501.49	699.82
501.67	620.24
501.84	599.18
502.02	627.26
502.20	678.76
502.37	681.10
502.55	713.86
502.72	617.90
502.90	589.82
503.07	697.48
503.25	699.82
503.43	638.97
503.60	627.26
503.78	641.31
503.95	667.05
504.13	657.69
504.30	627.26
504.48	662.37
504.65	643.65
504.83	669.39
505.01	648.33
505.18	631.94
505.36	678.76
505.53	648.33
505.71	648.33
505.88	674.07
506.06	645.99
506.23	645.99
506.41	692.80
506.58	550.03
506.76	664.71
506.93	608.54
507.11	692.80
507.28	634.29
507.46	545.34
507.63	653.01
507.81	650.67
507.98	692.80
508.16	645.99
508.33	596.84
508.50	615.56
508.68	662.37
508.85	676.41
509.03	627.26
509.20	676.41
509.38	645.99
509.55	648.33
509.73	685.78
509.90	631.94
510.08	624.92
510.25	655.35
510.42	585.13
510.60	585.13
510.77	676.41
510.95	641.31
511.12	571.09
511.30	697.48
511.47	610.88
511.64	643.65
511.82	690.46
511.99	664.71
512.17	660.03
512.34	667.05
512.51	697.48
512.69	685.78
512.86	723.23
513.04	702.16
513.21	655.35
513.38	638.97
513.56	662.37
513.73	664.71
513.90	662.37
514.08	624.92
514.25	561.73
514.43	596.84
514.60	615.56
514.77	594.50
514.95	676.41
515.12	683.44
515.29	671.73
515.47	613.22
515.64	641.31
515.81	664.71
515.99	662.37
516.16	746.63
516.33	655.35
516.51	662.37
516.68	643.65
516.85	674.07
517.03	669.39
517.20	753.65
517.37	578.11
517.54	690.46
517.72	683.44
517.89	617.90
518.06	671.73
518.24	692.80
518.41	730.25
518.58	629.60
518.75	688.12
518.93	643.65
519.10	664.71
519.27	669.39
519.45	699.82
519.62	653.01
519.79	655.35
519.96	650.67
520.14	624.92
520.31	606.20
520.48	631.94
520.65	662.37
520.83	702.16
521.00	664.71
521.17	706.84
521.34	695.14
521.52	645.99
521.69	617.90
521.86	606.20
522.03	622.58
522.20	629.60
522.38	655.35
522.55	606.20
522.72	695.14
522.89	622.58
523.07	615.56
523.24	671.73
523.41	683.44
523.58	624.92
523.75	627.26
523.92	599.18
524.10	634.29
524.27	683.44
524.44	662.37
524.61	727.91
524.78	653.01
524.96	699.82
525.13	648.33
525.30	648.33
525.47	671.73
525.64	690.46
525.81	713.86
525.98	641.31
526.16	669.39
526.33	627.26
526.50	678.76
526.67	643.65
526.84	582.79
527.01	613.22
527.18	674.07
527.36	603.86
527.53	645.99
527.70	664.71
527.87	657.69
528.04	674.07
528.21	706.84
528.38	667.05
528.55	631.94
528.72	660.03
528.89	622.58
529.07	589.82
529.24	627.26
529.41	685.78
529.58	732.59
529.75	657.69
529.92	704.50
530.09	667.05
530.26	645.99
530.43	678.76
530.60	624.92
530.77	704.50
530.94	624.92
531.11	624.92
531.28	720.88
531.46	676.41
531.63	718.54
531.80	627.26
531.97	685.78
532.14	723.23
532.31	634.29
532.48	643.65
532.65	706.84
532.82	650.67
532.99	610.88
533.16	650.67
533.33	713.86
533.50	664.71
533.67	718.54
533.84	660.03
534.01	650.67
534.18	641.31
534.35	641.31
534.52	674.07
534.69	695.14
534.86	702.16
535.03	601.52
535.20	657.69
535.37	683.44
535.54	716.20
535.71	662.37
535.88	725.57
536.05	627.26
536.22	706.84
536.38	713.86
536.55	711.52
536.72	683.44
536.89	653.01
537.06	685.78
537.23	704.50
537.40	730.25
537.57	730.25
537.74	758.33
537.91	709.18
538.08	706.84
538.25	798.12
538.42	725.57
538.59	814.51
538.75	751.31
538.92	744.29
539.09	753.65
539.26	793.44
539.43	795.78
539.60	828.55
539.77	854.30
539.94	856.64
540.11	887.06
540.28	936.21
540.44	971.32
540.61	957.28
540.78	957.28
540.95	1071.97
541.12	1144.52
541.29	1198.35
541.46	1291.98
541.62	1357.51
541.79	1299.00
541.96	1240.48
542.13	1310.70
542.30	1362.19
542.47	1228.78
542.63	1149.20
542.80	1156.22
542.97	1226.44
543.14	1224.10
543.31	1104.73
543.48	1186.65
543.64	1186.65
543.81	1184.31
543.98	1261.55
544.15	1165.59
544.32	1233.46
544.48	1205.38
544.65	1188.99
544.82	1142.18
544.99	1188.99
545.16	1184.31
545.32	1270.91
545.49	1561.14
545.66	1940.30
545.83	2115.84
546.00	1961.37
546.16	1753.06
546.33	1455.81
546.50	1240.48
546.67	1249.85
546.83	1104.73
547.00	1027.50
547.17	1076.65
547.34	929.19
547.50	980.68
547.67	992.39
547.84	912.81
548.00	931.53
548.17	945.58
548.34	945.58
548.51	847.27
548.67	940.90
548.84	880.04
549.01	840.25
549.18	877.70
549.34	877.70
549.51	938.55
549.68	870.68
549.84	884.72
550.01	751.31
550.18	938.55
550.34	873.02
550.51	823.87
550.68	898.77
550.84	931.53
551.01	891.74
551.18	746.63
551.34	770.04
551.51	746.63
551.68	767.70
551.84	819.19
552.01	798.12
552.18	774.72
552.34	774.72
552.51	688.12
552.68	709.18
552.84	718.54
553.01	798.12
553.18	753.65
553.34	770.04
553.51	730.25
553.67	784.08
553.84	744.29
554.01	763.01
554.17	711.52
554.34	734.93
554.51	723.23
554.67	699.82
554.84	723.23
555.00	692.80
555.17	706.84
555.33	732.59
555.50	739.61
555.67	681.10
555.83	641.31
556.00	699.82
556.16	793.44
556.33	702.16
556.50	664.71
556.66	662.37
556.83	681.10
556.99	664.71
557.16	713.86
557.32	643.65
557.49	653.01
557.65	702.16
557.82	753.65
557.98	683.44
558.15	587.47
558.32	648.33
558.48	617.90
558.65	690.46
558.81	699.82
558.98	660.03
559.14	683.44
559.31	653.01
559.47	697.48
559.64	657.69
559.80	629.60
559.97	655.35
560.13	662.37
560.30	702.16
560.46	676.41
560.63	634.29
560.79	638.97
560.96	653.01
561.12	711.52
561.29	643.65
561.45	688.12
561.61	685.78
561.78	690.46
561.94	697.48
562.11	683.44
562.27	669.39
562.44	655.35
562.60	662.37
562.77	655.35
562.93	667.05
563.10	688.12
563.26	653.01
563.42	676.41
563.59	566.41
563.75	692.80
563.92	657.69
564.08	748.97
564.24	582.79
564.41	676.41
564.57	669.39
564.74	603.86
564.90	723.23
565.07	629.60
565.23	617.90
565.39	678.76
565.56	674.07
565.72	667.05
565.88	657.69
566.05	624.92
566.21	676.41
566.38	641.31
566.54	596.84
566.70	669.39
566.87	660.03
567.03	653.01
567.19	634.29
567.36	678.76
567.52	603.86
567.68	702.16
567.85	713.86
568.01	564.07
568.17	564.07
568.34	650.67
568.50	711.52
568.66	695.14
568.83	753.65
568.99	634.29
569.15	671.73
569.32	751.31
569.48	664.71
569.64	648.33
569.81	725.57
569.97	638.97
570.13	613.22
570.30	685.78
570.46	671.73
570.62	678.76
570.78	692.80
570.95	617.90
571.11	720.88
571.27	688.12
571.43	617.90
571.60	655.35
571.76	709.18
571.92	676.41
572.09	692.80
572.25	669.39
572.41	575.77
572.57	594.50
572.74	744.29
572.90	683.44
573.06	720.88
573.22	671.73
573.38	638.97
573.55	627.26
573.71	664.71
573.87	634.29
574.03	669.39
574.20	711.52
574.36	657.69
574.52	692.80
574.68	678.76
574.84	664.71
575.01	690.46
575.17	683.44
575.33	648.33
575.49	650.67
575.65	610.88
575.82	704.50
575.98	678.76
576.14	702.16
576.30	739.61
576.46	784.08
576.62	910.47
576.79	903.45
576.95	947.92
577.11	795.78
577.27	751.31
577.43	772.38
577.59	725.57
577.75	781.74
577.92	688.12
578.08	678.76
578.24	641.31
578.40	730.25
578.56	823.87
578.72	891.74
578.88	938.55
579.04	858.98
579.21	823.87
579.37	807.48
579.53	706.84
579.69	772.38
579.85	774.72
580.01	774.72
580.17	781.74
580.33	795.78
580.49	685.78
580.65	730.25
580.82	739.61
580.98	681.10
581.14	690.46
581.30	681.10
581.46	716.20
581.62	718.54
581.78	699.82
581.94	753.65
582.10	751.31
582.26	781.74
582.42	685.78
582.58	814.51
582.74	711.52
582.90	760.67
583.06	748.97
583.22	763.01
583.38	807.48
583.54	791.10
583.70	786.42
583.86	807.48
584.02	812.17
584.18	788.76
584.34	800.46
584.50	760.67
584.66	704.50
584.82	760.67
584.98	748.97
585.14	809.83
585.30	755.99
585.46	767.70
585.62	727.91
585.78	732.59
585.94	739.61
586.10	744.29
586.26	730.25
586.42	746.63
586.58	844.93
586.74	833.23
586.90	823.87
587.06	894.08
587.22	849.61
587.38	917.49
587.54	858.98
587.70	912.81
587.86	840.25
588.02	777.06
588.18	753.65
588.34	774.72
588.49	662.37
588.65	744.29
588.81	739.61
588.97	662.37
589.13	681.10
589.29	699.82
589.45	763.01
589.61	774.72
589.77	678.76
589.93	669.39
590.08	734.93
590.24	723.23
590.40	739.61
590.56	727.91
590.72	753.65
590.88	629.60
591.04	695.14
591.20	823.87
591.35	767.70
591.51	795.78
591.67	716.20
591.83	777.06
591.99	802.80
592.15	779.40
592.31	828.55
592.46	737.27
592.62	828.55
592.78	856.64
592.94	812.17
593.10	833.23
593.26	873.02
593.41	793.44
593.57	784.08
593.73	699.82
593.89	716.20
594.05	770.04
594.20	704.50
594.36	692.80
594.52	711.52
594.68	725.57
594.84	692.80
594.99	760.67
595.15	699.82
595.31	671.73
595.47	748.97
595.62	676.41
595.78	650.67
595.94	732.59
596.10	725.57
596.25	734.93
596.41	716.20
596.57	695.14
596.73	746.63
596.88	660.03
597.04	655.35
597.20	664.71
597.36	711.52
597.51	746.63
597.67	650.67
597.83	744.29
597.99	713.86
598.14	683.44
598.30	741.95
598.46	711.52
598.61	725.57
598.77	755.99
598.93	767.70
599.09	772.38
599.24	751.31
599.40	723.23
599.56	779.40
599.71	800.46
599.87	791.10
600.03	753.65
600.18	732.59
600.34	699.82
600.50	748.97
600.65	763.01
600.81	709.18
600.97	704.50
601.12	716.20
601.28	727.91
601.44	660.03
601.59	702.16
601.75	676.41
601.91	676.41
602.06	685.78
602.22	720.88
602.37	695.14
602.53	657.69
602.69	664.71
602.84	697.48
603.00	674.07
603.16	706.84
603.31	681.10
603.47	695.14
603.62	606.20
603.78	620.24
603.94	751.31
604.09	669.39
604.25	720.88
604.40	692.80
604.56	685.78
604.71	711.52
604.87	692.80
605.03	690.46
605.18	669.39
605.34	641.31
605.49	685.78
605.65	683.44
605.80	713.86
605.96	688.12
606.12	676.41
606.27	734.93
606.43	718.54
606.58	697.48
606.74	695.14
606.89	758.33
607.05	695.14
607.20	716.20
607.36	683.44
607.51	685.78
607.67	720.88
607.82	676.41
607.98	784.08
608.13	793.44
608.29	746.63
608.44	741.95
608.60	753.65
608.75	706.84
608.91	798.12
609.06	877.70
609.22	863.66
609.37	842.59
609.53	858.98
609.68	919.83
609.84	868.34
609.99	1039.20
610.15	1076.65
610.30	1214.74
610.46	1341.13
610.61	1462.83
610.76	1680.50
610.92	2008.18
611.07	2225.85
611.23	2382.67
611.38	2230.53
611.54	2113.50
611.69	1973.07
611.84	1802.21
612.00	1521.35
612.15	1502.62
612.31	1287.29
612.46	1259.21
612.62	1270.91
612.77	1249.85
612.92	1139.84
613.08	1193.67
613.23	1179.63
613.39	1081.33
613.54	1067.28
613.69	1071.97
613.85	1041.54
614.00	992.39
614.15	1086.01
614.31	961.96
614.46	1057.92
614.62	1018.13
614.77	987.71
614.92	954.94
615.08	990.05
615.23	889.40
615.38	880.04
615.54	828.55
615.69	849.61
615.84	868.34
616.00	805.14
616.15	758.33
616.30	748.97
616.46	723.23
616.61	767.70
616.76	795.78
616.92	781.74
617.07	755.99
617.22	805.14
617.37	737.27
617.53	695.14
617.68	676.41
617.83	718.54
617.99	688.12
618.14	695.14
618.29	692.80
618.45	791.10
618.60	779.40
618.75	746.63
618.90	753.65
619.06	746.63
619.21	744.29
619.36	711.52
619.51	697.48
619.67	739.61
619.82	753.65
619.97	781.74
620.12	720.88
620.28	779.40
620.43	774.72
620.58	734.93
620.73	692.80
620.89	676.41
621.04	753.65
621.19	713.86
621.34	702.16
621.49	755.99
621.65	739.61
621.80	716.20
621.95	744.29
622.10	720.88
622.25	748.97
622.41	706.84
622.56	653.01
622.71	755.99
622.86	833.23
623.01	732.59
623.16	802.80
623.32	678.76
623.47	753.65
623.62	720.88
623.77	697.48
623.92	734.93
624.07	809.83
624.23	648.33
624.38	725.57
624.53	737.27
624.68	781.74
624.83	774.72
624.98	746.63
625.13	713.86
625.29	767.70
625.44	727.91
625.59	718.54
625.74	777.06
625.89	664.71
626.04	746.63
626.19	643.65
626.34	755.99
626.49	676.41
626.65	758.33
626.80	685.78
626.95	723.23
627.10	699.82
627.25	758.33
627.40	699.82
627.55	786.42
627.70	713.86
627.85	748.97
628.00	751.31
628.15	709.18
628.30	709.18
628.45	744.29
628.60	688.12
628.76	786.42
628.91	702.16
629.06	732.59
629.21	706.84
629.36	716.20
629.51	713.86
629.66	746.63
629.81	727.91
629.96	755.99
630.11	753.65
630.26	713.86
630.41	734.93
630.56	774.72
630.71	723.23
630.86	812.17
631.01	767.70
631.16	851.96
631.31	870.68
631.46	779.40
631.61	809.83
631.76	748.97
631.91	704.50
632.06	737.27
632.21	718.54
632.36	709.18
632.51	688.12
632.66	697.48
632.81	662.37
632.96	631.94
633.10	641.31
633.25	711.52
633.40	634.29
633.55	706.84
633.70	653.01
633.85	662.37
634.00	594.50
634.15	599.18
634.30	781.74
634.45	645.99
634.60	617.90
634.75	650.67
634.90	674.07
635.05	683.44
635.19	648.33
635.34	674.07
635.49	653.01
635.64	603.86
635.79	594.50
635.94	685.78
636.09	671.73
636.24	631.94
636.39	610.88
636.53	688.12
636.68	704.50
636.83	601.52
636.98	641.31
637.13	669.39
637.28	683.44
637.43	678.76
637.57	645.99
637.72	657.69
637.87	657.69
638.02	671.73
638.17	660.03
638.32	690.46
638.46	660.03
638.61	674.07
638.76	655.35
638.91	610.88
639.06	615.56
639.20	711.52
639.35	645.99
639.50	603.86
639.65	662.37
639.80	683.44
639.94	718.54
640.09	669.39
640.24	671.73
640.39	669.39
640.54	648.33
640.68	688.12
640.83	624.92
640.98	702.16
641.13	650.67
641.27	624.92
641.42	627.26
641.57	671.73
641.72	664.71
641.86	641.31
642.01	713.86
642.16	662.37
642.31	620.24
642.45	622.58
642.60	610.88
642.75	613.22
642.90	725.57
643.04	643.65
643.19	695.14
643.34	636.63
643.48	585.13
643.63	692.80
643.78	645.99
643.93	676.41
644.07	664.71
644.22	681.10
644.37	664.71
644.51	683.44
644.66	669.39
644.81	704.50
644.95	695.14
645.10	653.01
645.25	660.03
645.39	688.12
645.54	585.13
645.69	678.76
645.83	650.67
645.98	706.84
646.13	706.84
646.27	660.03
646.42	580.45
646.57	631.94
646.71	587.47
646.86	718.54
647.00	636.63
647.15	713.86
647.30	667.05
647.44	662.37
647.59	655.35
647.74	617.90
647.88	645.99
648.03	645.99
648.17	617.90
648.32	641.31
648.47	669.39
648.61	622.58
648.76	610.88
648.90	667.05
649.05	674.07
649.20	655.35
649.34	641.31
649.49	667.05
649.63	643.65
649.78	664.71
649.92	669.39
650.07	678.76
650.21	725.57
650.36	704.50
650.51	599.18
650.65	671.73
650.80	636.63
650.94	725.57
651.09	697.48
651.23	702.16
651.38	734.93
651.52	720.88
651.67	713.86
651.81	648.33
651.96	634.29
652.10	695.14
652.25	709.18
652.39	655.35
652.54	657.69
652.68	655.35
652.83	706.84
652.97	627.26
653.12	688.12
653.26	650.67
653.41	706.84
653.55	631.94
653.70	596.84
653.84	678.76
653.99	690.46
654.13	667.05
654.27	592.16
654.42	664.71
654.56	669.39
654.71	669.39
654.85	645.99
655.00	629.60
655.14	650.67
655.29	624.92
655.43	683.44
655.57	587.47
655.72	685.78
655.86	709.18
656.01	624.92
656.15	643.65
656.30	674.07
656.44	638.97
656.58	575.77
656.73	592.16
656.87	622.58
657.01	617.90
657.16	676.41
657.30	578.11
657.45	641.31
657.59	620.24
657.73	678.76
657.88	648.33
658.02	697.48
658.16	638.97
658.31	585.13
658.45	634.29
658.60	601.52
658.74	638.97
658.88	615.56
659.03	627.26
659.17	643.65
659.31	617.90
659.46	702.16
659.60	704.50
659.74	571.09
659.89	692.80
660.03	718.54
660.17	634.29
660.32	645.99
660.46	739.61
660.60	645.99
660.74	641.31
660.89	589.82
661.03	636.63
661.17	566.41
661.32	620.24
661.46	678.76
661.60	674.07
661.74	690.46
661.89	725.57
662.03	678.76
662.17	702.16
662.31	641.31
662.46	636.63
662.60	692.80
662.74	671.73
662.88	662.37
663.03	716.20
663.17	755.99
663.31	702.16
663.45	695.14
663.60	690.46
663.74	573.43
663.88	594.50
664.02	699.82
664.17	615.56
664.31	641.31
664.45	667.05
664.59	690.46
664.73	601.52
664.88	655.35
665.02	662.37
665.16	660.03
665.30	674.07
665.44	674.07
665.59	671.73
665.73	664.71
665.87	634.29
666.01	676.41
666.15	631.94
666.29	667.05
666.44	692.80
666.58	688.12
666.72	566.41
666.86	636.63
667.00	664.71
667.14	653.01
667.28	617.90
667.43	599.18
667.57	748.97
667.71	706.84
667.85	674.07
667.99	669.39
668.13	657.69
668.27	627.26
668.41	575.77
668.56	631.94
668.70	664.71
668.84	702.16
668.98	683.44
669.12	697.48
669.26	671.73
669.40	767.70
669.54	716.20
669.68	678.76
669.82	655.35
669.96	557.05
670.10	608.54
670.25	645.99
670.39	648.33
670.53	610.88
670.67	638.97
670.81	657.69
670.95	660.03
671.09	655.35
671.23	671.73
671.37	704.50
671.51	594.50
671.65	648.33
671.79	629.60
671.93	599.18
672.07	653.01
672.21	660.03
672.35	543.00
672.49	627.26
672.63	678.76
672.77	671.73
672.91	622.58
673.05	674.07
673.19	674.07
673.33	638.97
673.47	727.91
673.61	634.29
673.75	653.01
673.89	643.65
674.03	688.12
674.17	734.93
674.31	648.33
674.45	653.01
674.59	709.18
674.73	578.11
674.87	657.69
675.01	617.90
675.15	655.35
675.29	667.05
675.43	669.39
675.56	718.54
675.70	599.18
675.84	624.92
675.98	697.48
676.12	638.97
676.26	636.63
676.40	592.16
676.54	620.24
676.68	662.37
676.82	599.18
676.96	650.67
677.10	638.97
677.23	655.35
677.37	638.97
677.51	674.07
677.65	697.48
677.79	566.41
677.93	655.35
678.07	617.90
678.21	657.69
678.34	667.05
678.48	615.56
678.62	634.29
678.76	660.03
678.90	648.33
679.04	582.79
679.18	634.29
679.31	662.37
679.45	552.37
679.59	610.88
679.73	664.71
679.87	699.82
680.00	627.26
680.14	587.47
680.28	695.14
680.42	685.78
680.56	660.03
680.70	641.31
680.83	627.26
680.97	589.82
681.11	557.05
681.25	653.01
681.39	636.63
681.52	615.56
681.66	608.54
681.80	653.01
681.94	627.26
682.07	669.39
682.21	683.44
682.35	629.60
682.49	662.37
682.62	648.33
682.76	650.67
682.90	641.31
683.04	688.12
683.17	617.90
683.31	678.76
683.45	692.80
683.59	674.07
683.72	674.07
683.86	610.88
684.00	645.99
684.13	638.97
684.27	653.01
684.41	683.44
684.55	683.44
684.68	669.39
684.82	638.97
684.96	655.35
685.09	655.35
685.23	552.37
685.37	629.60
685.50	629.60
685.64	660.03
685.78	653.01
685.91	653.01
686.05	704.50
686.19	678.76
686.32	662.37
686.46	631.94
686.60	617.90
686.73	669.39
686.87	664.71
687.01	643.65
687.14	636.63
687.28	638.97
687.42	692.80
687.55	653.01
687.69	655.35
687.82	620.24
687.96	671.73
688.10	582.79
688.23	606.20
688.37	566.41
688.50	636.63
688.64	662.37
688.78	601.52
688.91	641.31
689.05	674.07
689.18	650.67
689.32	660.03
689.46	589.82
689.59	653.01
689.73	629.60
689.86	657.69
690.00	695.14
690.13	601.52
690.27	629.60
690.41	631.94
690.54	671.73
690.68	615.56
690.81	657.69
690.95	622.58
691.08	641.31
691.22	650.67
691.35	650.67
691.49	634.29
691.62	702.16
691.76	603.86
691.89	564.07
692.03	688.12
692.16	552.37
692.30	645.99
692.43	657.69
692.57	510.24
692.70	641.31
692.84	603.86
692.97	641.31
693.11	664.71
693.24	629.60
693.38	662.37
693.51	671.73
693.65	564.07
693.78	617.90
693.92	580.45
694.05	664.71
694.19	650.67
694.32	636.63
694.45	676.41
694.59	690.46
694.72	615.56
694.86	606.20
694.99	603.86
695.13	709.18
695.26	631.94
695.39	627.26
695.53	667.05
695.66	690.46
695.80	650.67
695.93	699.82
696.07	613.22
696.20	641.31
696.33	634.29
696.47	664.71
696.60	622.58
696.73	660.03
696.87	685.78
697.00	746.63
697.14	655.35
697.27	606.20
697.40	617.90
697.54	594.50
697.67	638.97
697.80	627.26
697.94	674.07
698.07	650.67
698.21	688.12
698.34	657.69
698.47	662.37
698.61	638.97
698.74	603.86
698.87	634.29
699.01	571.09
699.14	592.16
699.27	692.80
699.40	631.94
699.54	561.73
699.67	636.63
699.80	660.03
699.94	638.97
700.07	615.56
700.20	629.60
700.34	634.29
700.47	624.92
700.60	645.99
700.73	622.58
700.87	664.71
701.00	641.31
701.13	683.44
701.26	641.31
701.40	629.60
701.53	620.24
701.66	641.31
701.79	592.16
701.93	641.31
702.06	653.01
702.19	585.13
702.32	713.86
702.46	589.82
702.59	624.92
702.72	582.79
702.85	627.26
702.99	648.33
703.12	634.29
703.25	582.79
703.38	559.39
703.51	674.07
703.65	573.43
703.78	561.73
703.91	585.13
704.04	657.69
704.17	606.20
704.31	615.56
704.44	601.52
704.57	676.41
704.70	568.75
704.83	629.60
704.96	620.24
705.10	655.35
705.23	608.54
>>>>>End Processed Spectral Data<<<<<
