SpectraSuite Data File
++++++++++++++++++++++++++++++++++++
Date: Thu Oct 24 13:21:01 EDT 2013
User: stostad
Dark Spectrum Present: No
Reference Spectrum Present: No
Number of Sampled Component Spectra: 1
Spectrometers: USB2+H05261
Integration Time (usec): 100000 (USB2+H05261)
Spectra Averaged: 1 (USB2+H05261)
Boxcar Smoothing: 0 (USB2+H05261)
Correct for Electrical Dark: No (USB2+H05261)
Strobe/Lamp Enabled: No (USB2+H05261)
Correct for Detector Non-linearity: No (USB2+H05261)
Correct for Stray Light: No (USB2+H05261)
Number of Pixels in Processed Spectrum: 2048
>>>>>Begin Processed Spectral Data<<<<<
365.73	554.71
365.92	554.71
366.12	554.71
366.32	500.87
366.52	440.02
366.72	489.17
366.91	472.79
367.11	409.59
367.31	416.62
367.51	447.04
367.70	447.04
367.90	451.72
368.10	428.32
368.30	519.60
368.49	411.93
368.69	479.81
368.89	388.53
369.09	458.74
369.28	486.83
369.48	475.13
369.68	545.34
369.87	482.15
370.07	559.39
370.27	507.90
370.47	573.43
370.66	528.96
370.86	538.32
371.06	580.45
371.25	578.11
371.45	533.64
371.65	559.39
371.84	545.34
372.04	578.11
372.24	573.43
372.44	615.56
372.63	638.97
372.83	674.07
373.03	624.92
373.22	594.50
373.42	645.99
373.62	615.56
373.81	660.03
374.01	629.60
374.21	709.18
374.40	631.94
374.60	683.44
374.79	587.47
374.99	641.31
375.19	627.26
375.38	664.71
375.58	660.03
375.78	650.67
375.97	580.45
376.17	667.05
376.37	662.37
376.56	681.10
376.76	681.10
376.95	657.69
377.15	578.11
377.35	606.20
377.54	617.90
377.74	636.63
377.93	617.90
378.13	627.26
378.33	613.22
378.52	645.99
378.72	599.18
378.91	582.79
379.11	613.22
379.31	634.29
379.50	580.45
379.70	608.54
379.89	718.54
380.09	559.39
380.28	561.73
380.48	655.35
380.68	547.69
380.87	578.11
381.07	606.20
381.26	655.35
381.46	723.23
381.65	683.44
381.85	615.56
382.04	568.75
382.24	592.16
382.43	603.86
382.63	580.45
382.83	676.41
383.02	643.65
383.22	695.14
383.41	627.26
383.61	650.67
383.80	587.47
384.00	643.65
384.19	615.56
384.39	599.18
384.58	624.92
384.78	624.92
384.97	695.14
385.17	587.47
385.36	564.07
385.56	613.22
385.75	653.01
385.95	608.54
386.14	596.84
386.34	533.64
386.53	589.82
386.72	636.63
386.92	631.94
387.11	667.05
387.31	634.29
387.50	573.43
387.70	667.05
387.89	624.92
388.09	638.97
388.28	559.39
388.48	601.52
388.67	599.18
388.86	655.35
389.06	617.90
389.25	634.29
389.45	571.09
389.64	631.94
389.84	641.31
390.03	606.20
390.22	622.58
390.42	561.73
390.61	592.16
390.81	636.63
391.00	613.22
391.19	615.56
391.39	578.11
391.58	620.24
391.78	653.01
391.97	660.03
392.16	587.47
392.36	585.13
392.55	653.01
392.75	622.58
392.94	664.71
393.13	615.56
393.33	645.99
393.52	603.86
393.71	589.82
393.91	650.67
394.10	650.67
394.29	571.09
394.49	706.84
394.68	627.26
394.88	634.29
395.07	594.50
395.26	631.94
395.46	608.54
395.65	617.90
395.84	671.73
396.04	641.31
396.23	643.65
396.42	629.60
396.62	667.05
396.81	636.63
397.00	716.20
397.19	592.16
397.39	645.99
397.58	540.66
397.77	643.65
397.97	596.84
398.16	566.41
398.35	578.11
398.55	681.10
398.74	648.33
398.93	599.18
399.12	631.94
399.32	622.58
399.51	592.16
399.70	596.84
399.90	564.07
400.09	571.09
400.28	681.10
400.47	645.99
400.67	592.16
400.86	624.92
401.05	568.75
401.24	655.35
401.44	655.35
401.63	624.92
401.82	613.22
402.01	615.56
402.21	608.54
402.40	601.52
402.59	629.60
402.78	582.79
402.97	683.44
403.17	601.52
403.36	631.94
403.55	660.03
403.74	615.56
403.93	697.48
404.13	739.61
404.32	681.10
404.51	638.97
404.70	667.05
404.89	692.80
405.09	669.39
405.28	608.54
405.47	664.71
405.66	594.50
405.85	645.99
406.05	650.67
406.24	629.60
406.43	627.26
406.62	664.71
406.81	674.07
407.00	643.65
407.20	706.84
407.39	608.54
407.58	622.58
407.77	650.67
407.96	610.88
408.15	674.07
408.34	641.31
408.54	627.26
408.73	643.65
408.92	636.63
409.11	662.37
409.30	594.50
409.49	645.99
409.68	648.33
409.87	648.33
410.07	622.58
410.26	561.73
410.45	627.26
410.64	624.92
410.83	622.58
411.02	592.16
411.21	629.60
411.40	660.03
411.59	608.54
411.78	564.07
411.98	589.82
412.17	578.11
412.36	557.05
412.55	571.09
412.74	641.31
412.93	650.67
413.12	624.92
413.31	653.01
413.50	669.39
413.69	594.50
413.88	641.31
414.07	589.82
414.26	645.99
414.45	636.63
414.64	615.56
414.83	645.99
415.02	622.58
415.22	606.20
415.41	648.33
415.60	657.69
415.79	645.99
415.98	615.56
416.17	543.00
416.36	641.31
416.55	547.69
416.74	653.01
416.93	688.12
417.12	617.90
417.31	622.58
417.50	592.16
417.69	629.60
417.88	629.60
418.07	655.35
418.26	669.39
418.45	554.71
418.64	603.86
418.83	664.71
419.02	638.97
419.21	594.50
419.39	566.41
419.58	657.69
419.77	629.60
419.96	674.07
420.15	575.77
420.34	554.71
420.53	674.07
420.72	702.16
420.91	627.26
421.10	697.48
421.29	674.07
421.48	636.63
421.67	674.07
421.86	699.82
422.05	655.35
422.24	681.10
422.43	690.46
422.61	601.52
422.80	660.03
422.99	550.03
423.18	624.92
423.37	592.16
423.56	688.12
423.75	580.45
423.94	594.50
424.13	636.63
424.32	671.73
424.50	610.88
424.69	629.60
424.88	662.37
425.07	559.39
425.26	638.97
425.45	587.47
425.64	615.56
425.83	706.84
426.01	674.07
426.20	585.13
426.39	620.24
426.58	653.01
426.77	638.97
426.96	622.58
427.15	566.41
427.33	629.60
427.52	622.58
427.71	629.60
427.90	683.44
428.09	643.65
428.28	648.33
428.46	695.14
428.65	690.46
428.84	643.65
429.03	664.71
429.22	627.26
429.40	653.01
429.59	690.46
429.78	636.63
429.97	603.86
430.16	557.05
430.34	685.78
430.53	636.63
430.72	685.78
430.91	596.84
431.10	608.54
431.28	638.97
431.47	662.37
431.66	638.97
431.85	655.35
432.03	671.73
432.22	678.76
432.41	629.60
432.60	571.09
432.79	683.44
432.97	561.73
433.16	629.60
433.35	655.35
433.54	615.56
433.72	594.50
433.91	645.99
434.10	634.29
434.28	671.73
434.47	678.76
434.66	706.84
434.85	667.05
435.03	777.06
435.22	1027.50
435.41	1128.14
435.59	1041.54
435.78	947.92
435.97	847.27
436.16	774.72
436.34	720.88
436.53	613.22
436.72	669.39
436.90	667.05
437.09	709.18
437.28	561.73
437.46	638.97
437.65	645.99
437.84	624.92
438.02	634.29
438.21	702.16
438.40	657.69
438.58	638.97
438.77	730.25
438.96	610.88
439.14	636.63
439.33	683.44
439.52	603.86
439.70	706.84
439.89	608.54
440.08	648.33
440.26	664.71
440.45	645.99
440.63	603.86
440.82	645.99
441.01	627.26
441.19	645.99
441.38	690.46
441.57	645.99
441.75	662.37
441.94	589.82
442.12	592.16
442.31	636.63
442.50	624.92
442.68	582.79
442.87	653.01
443.05	601.52
443.24	716.20
443.43	648.33
443.61	697.48
443.80	650.67
443.98	627.26
444.17	566.41
444.35	662.37
444.54	638.97
444.73	688.12
444.91	678.76
445.10	631.94
445.28	620.24
445.47	681.10
445.65	660.03
445.84	678.76
446.02	636.63
446.21	739.61
446.39	615.56
446.58	653.01
446.77	671.73
446.95	571.09
447.14	638.97
447.32	653.01
447.51	669.39
447.69	713.86
447.88	657.69
448.06	648.33
448.25	645.99
448.43	653.01
448.62	606.20
448.80	615.56
448.99	601.52
449.17	681.10
449.36	587.47
449.54	653.01
449.73	660.03
449.91	676.41
450.10	571.09
450.28	746.63
450.46	685.78
450.65	610.88
450.83	697.48
451.02	671.73
451.20	655.35
451.39	603.86
451.57	615.56
451.76	634.29
451.94	596.84
452.13	711.52
452.31	610.88
452.49	594.50
452.68	671.73
452.86	650.67
453.05	678.76
453.23	660.03
453.42	608.54
453.60	655.35
453.78	657.69
453.97	620.24
454.15	638.97
454.34	739.61
454.52	629.60
454.70	669.39
454.89	690.46
455.07	660.03
455.26	601.52
455.44	617.90
455.62	697.48
455.81	615.56
455.99	575.77
456.17	662.37
456.36	566.41
456.54	615.56
456.73	662.37
456.91	622.58
457.09	685.78
457.28	678.76
457.46	622.58
457.64	650.67
457.83	688.12
458.01	610.88
458.19	636.63
458.38	641.31
458.56	566.41
458.74	645.99
458.93	596.84
459.11	709.18
459.29	641.31
459.48	678.76
459.66	643.65
459.84	608.54
460.03	755.99
460.21	603.86
460.39	660.03
460.57	702.16
460.76	603.86
460.94	573.43
461.12	753.65
461.31	634.29
461.49	678.76
461.67	667.05
461.85	699.82
462.04	650.67
462.22	985.37
462.40	650.67
462.59	697.48
462.77	648.33
462.95	603.86
463.13	603.86
463.32	620.24
463.50	678.76
463.68	702.16
463.86	653.01
464.05	657.69
464.23	629.60
464.41	711.52
464.59	617.90
464.78	620.24
464.96	627.26
465.14	608.54
465.32	578.11
465.50	676.41
465.69	641.31
465.87	638.97
466.05	660.03
466.23	610.88
466.41	629.60
466.60	697.48
466.78	634.29
466.96	622.58
467.14	667.05
467.32	620.24
467.51	608.54
467.69	648.33
467.87	645.99
468.05	638.97
468.23	671.73
468.41	702.16
468.60	697.48
468.78	744.29
468.96	688.12
469.14	608.54
469.32	688.12
469.50	674.07
469.69	638.97
469.87	615.56
470.05	622.58
470.23	655.35
470.41	648.33
470.59	613.22
470.77	645.99
470.95	676.41
471.14	617.90
471.32	564.07
471.50	711.52
471.68	669.39
471.86	578.11
472.04	617.90
472.22	678.76
472.40	631.94
472.58	648.33
472.77	631.94
472.95	575.77
473.13	678.76
473.31	648.33
473.49	615.56
473.67	627.26
473.85	608.54
474.03	655.35
474.21	617.90
474.39	645.99
474.57	674.07
474.75	660.03
474.93	573.43
475.12	690.46
475.30	676.41
475.48	571.09
475.66	676.41
475.84	683.44
476.02	697.48
476.20	676.41
476.38	636.63
476.56	758.33
476.74	622.58
476.92	645.99
477.10	704.50
477.28	662.37
477.46	702.16
477.64	643.65
477.82	620.24
478.00	643.65
478.18	638.97
478.36	608.54
478.54	655.35
478.72	692.80
478.90	613.22
479.08	617.90
479.26	695.14
479.44	622.58
479.62	674.07
479.80	678.76
479.98	699.82
480.16	653.01
480.34	650.67
480.52	587.47
480.70	622.58
480.88	674.07
481.06	610.88
481.24	631.94
481.41	674.07
481.59	617.90
481.77	697.48
481.95	653.01
482.13	688.12
482.31	702.16
482.49	624.92
482.67	697.48
482.85	674.07
483.03	676.41
483.21	655.35
483.39	676.41
483.57	695.14
483.74	638.97
483.92	713.86
484.10	699.82
484.28	643.65
484.46	706.84
484.64	678.76
484.82	674.07
485.00	678.76
485.18	653.01
485.35	681.10
485.53	744.29
485.71	662.37
485.89	702.16
486.07	716.20
486.25	770.04
486.43	716.20
486.61	685.78
486.78	690.46
486.96	678.76
487.14	688.12
487.32	711.52
487.50	732.59
487.68	692.80
487.85	704.50
488.03	690.46
488.21	755.99
488.39	678.76
488.57	688.12
488.75	746.63
488.92	777.06
489.10	734.93
489.28	748.97
489.46	704.50
489.64	788.76
489.81	641.31
489.99	688.12
490.17	748.97
490.35	709.18
490.53	725.57
490.70	624.92
490.88	702.16
491.06	716.20
491.24	730.25
491.41	744.29
491.59	634.29
491.77	763.01
491.95	699.82
492.13	697.48
492.30	704.50
492.48	617.90
492.66	678.76
492.84	669.39
493.01	688.12
493.19	676.41
493.37	655.35
493.54	699.82
493.72	725.57
493.90	662.37
494.08	610.88
494.25	669.39
494.43	671.73
494.61	760.67
494.79	653.01
494.96	667.05
495.14	723.23
495.32	643.65
495.49	695.14
495.67	664.71
495.85	667.05
496.02	699.82
496.20	725.57
496.38	737.27
496.55	662.37
496.73	681.10
496.91	674.07
497.09	674.07
497.26	695.14
497.44	692.80
497.62	720.88
497.79	711.52
497.97	627.26
498.14	669.39
498.32	674.07
498.50	716.20
498.67	622.58
498.85	653.01
499.03	653.01
499.20	664.71
499.38	650.67
499.56	615.56
499.73	697.48
499.91	650.67
500.08	681.10
500.26	610.88
500.44	690.46
500.61	636.63
500.79	671.73
500.97	688.12
501.14	716.20
501.32	704.50
501.49	657.69
501.67	653.01
501.84	627.26
502.02	720.88
502.20	678.76
502.37	690.46
502.55	620.24
502.72	669.39
502.90	599.18
503.07	585.13
503.25	599.18
503.43	671.73
503.60	667.05
503.78	695.14
503.95	636.63
504.13	627.26
504.30	697.48
504.48	655.35
504.65	638.97
504.83	732.59
505.01	610.88
505.18	613.22
505.36	676.41
505.53	648.33
505.71	688.12
505.88	629.60
506.06	631.94
506.23	636.63
506.41	662.37
506.58	643.65
506.76	662.37
506.93	676.41
507.11	669.39
507.28	657.69
507.46	594.50
507.63	631.94
507.81	645.99
507.98	578.11
508.16	664.71
508.33	617.90
508.50	699.82
508.68	660.03
508.85	667.05
509.03	683.44
509.20	702.16
509.38	704.50
509.55	653.01
509.73	664.71
509.90	575.77
510.08	645.99
510.25	657.69
510.42	678.76
510.60	650.67
510.77	655.35
510.95	653.01
511.12	636.63
511.30	608.54
511.47	681.10
511.64	613.22
511.82	709.18
511.99	678.76
512.17	695.14
512.34	634.29
512.51	617.90
512.69	582.79
512.86	727.91
513.04	615.56
513.21	613.22
513.38	664.71
513.56	624.92
513.73	582.79
513.90	601.52
514.08	636.63
514.25	566.41
514.43	650.67
514.60	615.56
514.77	683.44
514.95	709.18
515.12	638.97
515.29	596.84
515.47	589.82
515.64	638.97
515.81	650.67
515.99	641.31
516.16	636.63
516.33	730.25
516.51	662.37
516.68	629.60
516.85	688.12
517.03	613.22
517.20	636.63
517.37	648.33
517.54	636.63
517.72	594.50
517.89	496.19
518.06	594.50
518.24	631.94
518.41	690.46
518.58	631.94
518.75	594.50
518.93	627.26
519.10	634.29
519.27	706.84
519.45	615.56
519.62	629.60
519.79	660.03
519.96	688.12
520.14	631.94
520.31	650.67
520.48	629.60
520.65	681.10
520.83	610.88
521.00	678.76
521.17	638.97
521.34	599.18
521.52	711.52
521.69	615.56
521.86	624.92
522.03	674.07
522.20	716.20
522.38	622.58
522.55	683.44
522.72	660.03
522.89	631.94
523.07	685.78
523.24	650.67
523.41	594.50
523.58	599.18
523.75	631.94
523.92	617.90
524.10	688.12
524.27	634.29
524.44	706.84
524.61	713.86
524.78	669.39
524.96	664.71
525.13	573.43
525.30	653.01
525.47	681.10
525.64	653.01
525.81	655.35
525.98	631.94
526.16	660.03
526.33	662.37
526.50	669.39
526.67	615.56
526.84	599.18
527.01	667.05
527.18	617.90
527.36	718.54
527.53	608.54
527.70	662.37
527.87	660.03
528.04	727.91
528.21	678.76
528.38	620.24
528.55	674.07
528.72	683.44
528.89	638.97
529.07	643.65
529.24	699.82
529.41	627.26
529.58	688.12
529.75	702.16
529.92	643.65
530.09	660.03
530.26	678.76
530.43	692.80
530.60	695.14
530.77	674.07
530.94	678.76
531.11	690.46
531.28	655.35
531.46	538.32
531.63	613.22
531.80	674.07
531.97	667.05
532.14	594.50
532.31	697.48
532.48	664.71
532.65	681.10
532.82	681.10
532.99	725.57
533.16	655.35
533.33	669.39
533.50	760.67
533.67	704.50
533.84	650.67
534.01	699.82
534.18	620.24
534.35	671.73
534.52	645.99
534.69	671.73
534.86	631.94
535.03	648.33
535.20	699.82
535.37	650.67
535.54	664.71
535.71	702.16
535.88	718.54
536.05	695.14
536.22	613.22
536.38	664.71
536.55	629.60
536.72	688.12
536.89	681.10
537.06	737.27
537.23	690.46
537.40	720.88
537.57	678.76
537.74	720.88
537.91	751.31
538.08	779.40
538.25	755.99
538.42	772.38
538.59	781.74
538.75	704.50
538.92	767.70
539.09	847.27
539.26	725.57
539.43	823.87
539.60	854.30
539.77	877.70
539.94	891.74
540.11	898.77
540.28	929.19
540.44	926.85
540.61	973.66
540.78	954.94
540.95	1083.67
541.12	1177.29
541.29	1214.74
541.46	1252.19
541.62	1259.21
541.79	1254.53
541.96	1334.11
542.13	1329.42
542.30	1266.23
542.47	1188.99
542.63	1188.99
542.80	1212.40
542.97	1163.25
543.14	1200.69
543.31	1261.55
543.48	1235.80
543.64	1144.52
543.81	1217.08
543.98	1179.63
544.15	1226.44
544.32	1188.99
544.48	1174.95
544.65	1144.52
544.82	1188.99
544.99	1109.41
545.16	1181.97
545.32	1334.11
545.49	1488.58
545.66	1970.73
545.83	2193.08
546.00	2036.27
546.16	1685.19
546.33	1519.01
546.50	1369.21
546.67	1270.91
546.83	1097.71
547.00	1008.77
547.17	959.62
547.34	1013.45
547.50	1020.47
547.67	924.51
547.84	922.17
548.00	945.58
548.17	880.04
548.34	887.06
548.51	922.17
548.67	887.06
548.84	887.06
549.01	929.19
549.18	877.70
549.34	924.51
549.51	877.70
549.68	950.26
549.84	835.57
550.01	891.74
550.18	966.64
550.34	863.66
550.51	870.68
550.68	837.91
550.84	690.46
551.01	812.17
551.18	833.23
551.34	870.68
551.51	727.91
551.68	816.85
551.84	856.64
552.01	784.08
552.18	770.04
552.34	772.38
552.51	690.46
552.68	807.48
552.84	723.23
553.01	781.74
553.18	727.91
553.34	695.14
553.51	706.84
553.67	725.57
553.84	741.95
554.01	758.33
554.17	697.48
554.34	713.86
554.51	669.39
554.67	627.26
554.84	594.50
555.00	718.54
555.17	685.78
555.33	657.69
555.50	667.05
555.67	657.69
555.83	653.01
556.00	638.97
556.16	795.78
556.33	727.91
556.50	711.52
556.66	671.73
556.83	645.99
556.99	690.46
557.16	671.73
557.32	674.07
557.49	645.99
557.65	671.73
557.82	669.39
557.98	678.76
558.15	606.20
558.32	655.35
558.48	699.82
558.65	676.41
558.81	638.97
558.98	650.67
559.14	617.90
559.31	660.03
559.47	650.67
559.64	671.73
559.80	648.33
559.97	704.50
560.13	627.26
560.30	620.24
560.46	678.76
560.63	706.84
560.79	709.18
560.96	685.78
561.12	678.76
561.29	585.13
561.45	667.05
561.61	664.71
561.78	713.86
561.94	660.03
562.11	585.13
562.27	610.88
562.44	608.54
562.60	674.07
562.77	669.39
562.93	727.91
563.10	606.20
563.26	678.76
563.42	650.67
563.59	631.94
563.75	617.90
563.92	683.44
564.08	571.09
564.24	650.67
564.41	725.57
564.57	650.67
564.74	596.84
564.90	624.92
565.07	657.69
565.23	697.48
565.39	720.88
565.56	706.84
565.72	622.58
565.88	624.92
566.05	638.97
566.21	692.80
566.38	660.03
566.54	648.33
566.70	653.01
566.87	664.71
567.03	606.20
567.19	653.01
567.36	697.48
567.52	636.63
567.68	781.74
567.85	645.99
568.01	603.86
568.17	664.71
568.34	599.18
568.50	704.50
568.66	667.05
568.83	669.39
568.99	566.41
569.15	678.76
569.32	617.90
569.48	596.84
569.64	657.69
569.81	692.80
569.97	596.84
570.13	629.60
570.30	657.69
570.46	589.82
570.62	683.44
570.78	648.33
570.95	636.63
571.11	638.97
571.27	667.05
571.43	643.65
571.60	601.52
571.76	601.52
571.92	662.37
572.09	624.92
572.25	713.86
572.41	638.97
572.57	629.60
572.74	739.61
572.90	681.10
573.06	613.22
573.22	678.76
573.38	669.39
573.55	643.65
573.71	645.99
573.87	674.07
574.03	620.24
574.20	727.91
574.36	695.14
574.52	606.20
574.68	615.56
574.84	601.52
575.01	669.39
575.17	685.78
575.33	676.41
575.49	674.07
575.65	657.69
575.82	669.39
575.98	704.50
576.14	690.46
576.30	741.95
576.46	793.44
576.62	861.32
576.79	919.83
576.95	978.34
577.11	823.87
577.27	821.53
577.43	751.31
577.59	786.42
577.75	704.50
577.92	713.86
578.08	674.07
578.24	631.94
578.40	748.97
578.56	847.27
578.72	908.13
578.88	992.39
579.04	819.19
579.21	807.48
579.37	779.40
579.53	777.06
579.69	826.21
579.85	788.76
580.01	809.83
580.17	748.97
580.33	709.18
580.49	720.88
580.65	709.18
580.82	692.80
580.98	704.50
581.14	692.80
581.30	772.38
581.46	772.38
581.62	709.18
581.78	763.01
581.94	720.88
582.10	758.33
582.26	758.33
582.42	777.06
582.58	849.61
582.74	795.78
582.90	767.70
583.06	772.38
583.22	760.67
583.38	753.65
583.54	809.83
583.70	774.72
583.86	849.61
584.02	798.12
584.18	770.04
584.34	781.74
584.50	753.65
584.66	734.93
584.82	795.78
584.98	833.23
585.14	816.85
585.30	739.61
585.46	725.57
585.62	690.46
585.78	723.23
585.94	718.54
586.10	777.06
586.26	781.74
586.42	791.10
586.58	828.55
586.74	828.55
586.90	880.04
587.06	926.85
587.22	844.93
587.38	866.00
587.54	870.68
587.70	849.61
587.86	835.57
588.02	873.02
588.18	791.10
588.34	765.36
588.49	746.63
588.65	763.01
588.81	786.42
588.97	730.25
589.13	697.48
589.29	711.52
589.45	800.46
589.61	699.82
589.77	760.67
589.93	758.33
590.08	730.25
590.24	690.46
590.40	660.03
590.56	847.27
590.72	713.86
590.88	655.35
591.04	765.36
591.20	737.27
591.35	793.44
591.51	720.88
591.67	716.20
591.83	727.91
591.99	812.17
592.15	751.31
592.31	784.08
592.46	711.52
592.62	819.19
592.78	802.80
592.94	777.06
593.10	842.59
593.26	795.78
593.41	837.91
593.57	784.08
593.73	791.10
593.89	763.01
594.05	690.46
594.20	671.73
594.36	786.42
594.52	685.78
594.68	706.84
594.84	711.52
594.99	706.84
595.15	695.14
595.31	709.18
595.47	702.16
595.62	655.35
595.78	716.20
595.94	758.33
596.10	695.14
596.25	634.29
596.41	692.80
596.57	737.27
596.73	800.46
596.88	683.44
597.04	725.57
597.20	662.37
597.36	650.67
597.51	711.52
597.67	669.39
597.83	683.44
597.99	706.84
598.14	638.97
598.30	784.08
598.46	772.38
598.61	727.91
598.77	758.33
598.93	638.97
599.09	744.29
599.24	751.31
599.40	725.57
599.56	774.72
599.71	683.44
599.87	702.16
600.03	748.97
600.18	688.12
600.34	760.67
600.50	711.52
600.65	746.63
600.81	720.88
600.97	711.52
601.12	641.31
601.28	681.10
601.44	657.69
601.59	606.20
601.75	678.76
601.91	676.41
602.06	667.05
602.22	713.86
602.37	629.60
602.53	660.03
602.69	634.29
602.84	676.41
603.00	746.63
603.16	732.59
603.31	753.65
603.47	706.84
603.62	674.07
603.78	655.35
603.94	660.03
604.09	699.82
604.25	697.48
604.40	730.25
604.56	723.23
604.71	683.44
604.87	716.20
605.03	683.44
605.18	643.65
605.34	723.23
605.49	730.25
605.65	674.07
605.80	636.63
605.96	671.73
606.12	657.69
606.27	727.91
606.43	676.41
606.58	748.97
606.74	784.08
606.89	692.80
607.05	681.10
607.20	767.70
607.36	767.70
607.51	723.23
607.67	779.40
607.82	739.61
607.98	662.37
608.13	760.67
608.29	765.36
608.44	760.67
608.60	807.48
608.75	732.59
608.91	774.72
609.06	884.72
609.22	858.98
609.37	777.06
609.53	889.40
609.68	884.72
609.84	992.39
609.99	1029.84
610.15	1020.47
610.30	1153.88
610.46	1317.72
610.61	1460.49
610.76	1722.63
610.92	2026.90
611.07	2136.91
611.23	2317.13
611.38	2235.21
611.54	2066.69
611.69	1916.90
611.84	1792.85
612.00	1612.63
612.15	1439.43
612.31	1252.19
612.46	1273.25
612.62	1224.10
612.77	1226.44
612.92	1130.48
613.08	1130.48
613.23	1118.78
613.39	1074.31
613.54	1015.79
613.69	1088.35
613.85	1057.92
614.00	999.41
614.15	1029.84
614.31	945.58
614.46	1043.88
614.62	992.39
614.77	976.00
614.92	997.07
615.08	1008.77
615.23	854.30
615.38	882.38
615.54	828.55
615.69	875.36
615.84	851.96
616.00	779.40
616.15	746.63
616.30	739.61
616.46	828.55
616.61	795.78
616.76	753.65
616.92	758.33
617.07	798.12
617.22	791.10
617.37	746.63
617.53	765.36
617.68	725.57
617.83	781.74
617.99	816.85
618.14	751.31
618.29	795.78
618.45	746.63
618.60	734.93
618.75	779.40
618.90	805.14
619.06	695.14
619.21	781.74
619.36	699.82
619.51	763.01
619.67	674.07
619.82	683.44
619.97	746.63
620.12	713.86
620.28	688.12
620.43	709.18
620.58	751.31
620.73	720.88
620.89	739.61
621.04	770.04
621.19	784.08
621.34	645.99
621.49	774.72
621.65	727.91
621.80	751.31
621.95	718.54
622.10	777.06
622.25	718.54
622.41	711.52
622.56	737.27
622.71	723.23
622.86	711.52
623.01	716.20
623.16	716.20
623.32	788.76
623.47	746.63
623.62	699.82
623.77	741.95
623.92	699.82
624.07	697.48
624.23	760.67
624.38	669.39
624.53	798.12
624.68	777.06
624.83	732.59
624.98	777.06
625.13	690.46
625.29	748.97
625.44	753.65
625.59	748.97
625.74	777.06
625.89	746.63
626.04	732.59
626.19	760.67
626.34	788.76
626.49	697.48
626.65	685.78
626.80	720.88
626.95	671.73
627.10	688.12
627.25	685.78
627.40	688.12
627.55	753.65
627.70	692.80
627.85	737.27
628.00	732.59
628.15	702.16
628.30	725.57
628.45	645.99
628.60	730.25
628.76	688.12
628.91	751.31
629.06	681.10
629.21	657.69
629.36	763.01
629.51	727.91
629.66	678.76
629.81	765.36
629.96	678.76
630.11	739.61
630.26	755.99
630.41	674.07
630.56	866.00
630.71	833.23
630.86	844.93
631.01	870.68
631.16	760.67
631.31	835.57
631.46	858.98
631.61	774.72
631.76	765.36
631.91	788.76
632.06	688.12
632.21	737.27
632.36	676.41
632.51	774.72
632.66	676.41
632.81	580.45
632.96	730.25
633.10	678.76
633.25	706.84
633.40	638.97
633.55	631.94
633.70	664.71
633.85	685.78
634.00	688.12
634.15	645.99
634.30	657.69
634.45	629.60
634.60	653.01
634.75	641.31
634.90	653.01
635.05	676.41
635.19	580.45
635.34	727.91
635.49	603.86
635.64	655.35
635.79	655.35
635.94	631.94
636.09	650.67
636.24	690.46
636.39	676.41
636.53	645.99
636.68	657.69
636.83	636.63
636.98	622.58
637.13	643.65
637.28	631.94
637.43	636.63
637.57	662.37
637.72	716.20
637.87	695.14
638.02	603.86
638.17	622.58
638.32	636.63
638.46	620.24
638.61	690.46
638.76	688.12
638.91	596.84
639.06	643.65
639.20	711.52
639.35	704.50
639.50	638.97
639.65	660.03
639.80	599.18
639.94	669.39
640.09	674.07
640.24	655.35
640.39	638.97
640.54	716.20
640.68	643.65
640.83	716.20
640.98	657.69
641.13	669.39
641.27	681.10
641.42	636.63
641.57	697.48
641.72	641.31
641.86	613.22
642.01	636.63
642.16	669.39
642.31	631.94
642.45	720.88
642.60	660.03
642.75	669.39
642.90	660.03
643.04	629.60
643.19	667.05
643.34	631.94
643.48	655.35
643.63	641.31
643.78	608.54
643.93	669.39
644.07	692.80
644.22	629.60
644.37	655.35
644.51	685.78
644.66	669.39
644.81	638.97
644.95	615.56
645.10	730.25
645.25	688.12
645.39	631.94
645.54	592.16
645.69	606.20
645.83	634.29
645.98	723.23
646.13	699.82
646.27	720.88
646.42	681.10
646.57	634.29
646.71	594.50
646.86	601.52
647.00	716.20
647.15	603.86
647.30	645.99
647.44	622.58
647.59	690.46
647.74	688.12
647.88	641.31
648.03	634.29
648.17	634.29
648.32	594.50
648.47	645.99
648.61	645.99
648.76	648.33
648.90	578.11
649.05	697.48
649.20	624.92
649.34	655.35
649.49	685.78
649.63	629.60
649.78	667.05
649.92	606.20
650.07	608.54
650.21	704.50
650.36	746.63
650.51	674.07
650.65	720.88
650.80	669.39
650.94	697.48
651.09	660.03
651.23	678.76
651.38	622.58
651.52	660.03
651.67	697.48
651.81	662.37
651.96	697.48
652.10	641.31
652.25	617.90
652.39	650.67
652.54	671.73
652.68	638.97
652.83	667.05
652.97	704.50
653.12	657.69
653.26	610.88
653.41	716.20
653.55	643.65
653.70	620.24
653.84	650.67
653.99	645.99
654.13	671.73
654.27	667.05
654.42	634.29
654.56	660.03
654.71	615.56
654.85	683.44
655.00	699.82
655.14	594.50
655.29	631.94
655.43	638.97
655.57	599.18
655.72	688.12
655.86	662.37
656.01	592.16
656.15	678.76
656.30	697.48
656.44	620.24
656.58	606.20
656.73	669.39
656.87	627.26
657.01	606.20
657.16	641.31
657.30	669.39
657.45	603.86
657.59	608.54
657.73	601.52
657.88	627.26
658.02	711.52
658.16	667.05
658.31	634.29
658.45	648.33
658.60	671.73
658.74	617.90
658.88	716.20
659.03	601.52
659.17	547.69
659.31	645.99
659.46	620.24
659.60	622.58
659.74	671.73
659.89	662.37
660.03	638.97
660.17	662.37
660.32	702.16
660.46	657.69
660.60	645.99
660.74	622.58
660.89	631.94
661.03	629.60
661.17	676.41
661.32	636.63
661.46	643.65
661.60	622.58
661.74	620.24
661.89	620.24
662.03	603.86
662.17	655.35
662.31	697.48
662.46	697.48
662.60	601.52
662.74	645.99
662.88	695.14
663.03	692.80
663.17	678.76
663.31	685.78
663.45	669.39
663.60	566.41
663.74	603.86
663.88	617.90
664.02	636.63
664.17	622.58
664.31	636.63
664.45	648.33
664.59	674.07
664.73	648.33
664.88	629.60
665.02	610.88
665.16	638.97
665.30	603.86
665.44	631.94
665.59	645.99
665.73	669.39
665.87	617.90
666.01	636.63
666.15	655.35
666.29	650.67
666.44	711.52
666.58	699.82
666.72	580.45
666.86	676.41
667.00	692.80
667.14	667.05
667.28	638.97
667.43	585.13
667.57	603.86
667.71	603.86
667.85	653.01
667.99	622.58
668.13	547.69
668.27	643.65
668.41	664.71
668.56	641.31
668.70	748.97
668.84	653.01
668.98	571.09
669.12	552.37
669.26	692.80
669.40	657.69
669.54	678.76
669.68	631.94
669.82	631.94
669.96	613.22
670.10	667.05
670.25	676.41
670.39	664.71
670.53	683.44
670.67	613.22
670.81	636.63
670.95	568.75
671.09	662.37
671.23	657.69
671.37	706.84
671.51	678.76
671.65	662.37
671.79	653.01
671.93	627.26
672.07	620.24
672.21	692.80
672.35	634.29
672.49	645.99
672.63	657.69
672.77	617.90
672.91	622.58
673.05	669.39
673.19	664.71
673.33	631.94
673.47	629.60
673.61	636.63
673.75	655.35
673.89	648.33
674.03	610.88
674.17	692.80
674.31	723.23
674.45	622.58
674.59	554.71
674.73	589.82
674.87	655.35
675.01	660.03
675.15	676.41
675.29	664.71
675.43	596.84
675.56	653.01
675.70	615.56
675.84	596.84
675.98	636.63
676.12	531.30
676.26	667.05
676.40	645.99
676.54	627.26
676.68	627.26
676.82	648.33
676.96	594.50
677.10	589.82
677.23	617.90
677.37	531.30
677.51	582.79
677.65	660.03
677.79	615.56
677.93	645.99
678.07	685.78
678.21	559.39
678.34	645.99
678.48	610.88
678.62	674.07
678.76	617.90
678.90	601.52
679.04	704.50
679.18	641.31
679.31	667.05
679.45	662.37
679.59	669.39
679.73	617.90
679.87	582.79
680.00	638.97
680.14	713.86
680.28	660.03
680.42	634.29
680.56	744.29
680.70	638.97
680.83	545.34
680.97	617.90
681.11	566.41
681.25	573.43
681.39	627.26
681.52	690.46
681.66	669.39
681.80	681.10
681.94	636.63
682.07	683.44
682.21	671.73
682.35	695.14
682.49	645.99
682.62	603.86
682.76	603.86
682.90	711.52
683.04	629.60
683.17	627.26
683.31	641.31
683.45	671.73
683.59	608.54
683.72	641.31
683.86	564.07
684.00	645.99
684.13	660.03
684.27	671.73
684.41	641.31
684.55	624.92
684.68	660.03
684.82	587.47
684.96	610.88
685.09	676.41
685.23	603.86
685.37	648.33
685.50	650.67
685.64	690.46
685.78	643.65
685.91	641.31
686.05	620.24
686.19	662.37
686.32	685.78
686.46	669.39
686.60	622.58
686.73	664.71
686.87	732.59
687.01	706.84
687.14	662.37
687.28	671.73
687.42	734.93
687.55	627.26
687.69	653.01
687.82	685.78
687.96	641.31
688.10	662.37
688.23	664.71
688.37	664.71
688.50	636.63
688.64	669.39
688.78	660.03
688.91	643.65
689.05	624.92
689.18	643.65
689.32	648.33
689.46	636.63
689.59	641.31
689.73	669.39
689.86	594.50
690.00	664.71
690.13	716.20
690.27	662.37
690.41	650.67
690.54	648.33
690.68	636.63
690.81	681.10
690.95	685.78
691.08	608.54
691.22	603.86
691.35	674.07
691.49	678.76
691.62	566.41
691.76	606.20
691.89	589.82
692.03	613.22
692.16	657.69
692.30	622.58
692.43	624.92
692.57	575.77
692.70	636.63
692.84	671.73
692.97	629.60
693.11	594.50
693.24	622.58
693.38	603.86
693.51	674.07
693.65	561.73
693.78	657.69
693.92	629.60
694.05	648.33
694.19	610.88
694.32	599.18
694.45	627.26
694.59	655.35
694.72	620.24
694.86	566.41
694.99	688.12
695.13	620.24
695.26	676.41
695.39	660.03
695.53	634.29
695.66	681.10
695.80	592.16
695.93	638.97
696.07	678.76
696.20	606.20
696.33	711.52
696.47	692.80
696.60	641.31
696.73	655.35
696.87	627.26
697.00	634.29
697.14	627.26
697.27	650.67
697.40	692.80
697.54	561.73
697.67	603.86
697.80	557.05
697.94	650.67
698.07	671.73
698.21	571.09
698.34	704.50
698.47	650.67
698.61	594.50
698.74	631.94
698.87	641.31
699.01	671.73
699.14	601.52
699.27	634.29
699.40	753.65
699.54	599.18
699.67	592.16
699.80	622.58
699.94	643.65
700.07	594.50
700.20	596.84
700.34	587.47
700.47	592.16
700.60	617.90
700.73	601.52
700.87	564.07
701.00	627.26
701.13	557.05
701.26	645.99
701.40	631.94
701.53	690.46
701.66	596.84
701.79	653.01
701.93	587.47
702.06	587.47
702.19	690.46
702.32	613.22
702.46	575.77
702.59	638.97
702.72	596.84
702.85	627.26
702.99	568.75
703.12	655.35
703.25	645.99
703.38	657.69
703.51	643.65
703.65	622.58
703.78	662.37
703.91	667.05
704.04	622.58
704.17	622.58
704.31	650.67
704.44	627.26
704.57	568.75
704.70	690.46
704.83	681.10
704.96	664.71
705.10	641.31
705.23	617.90
>>>>>End Processed Spectral Data<<<<<
