SpectraSuite Data File
++++++++++++++++++++++++++++++++++++
Date: Thu Oct 24 13:21:23 EDT 2013
User: stostad
Dark Spectrum Present: No
Reference Spectrum Present: No
Number of Sampled Component Spectra: 1
Spectrometers: USB2+H05261
Integration Time (usec): 100000 (USB2+H05261)
Spectra Averaged: 1 (USB2+H05261)
Boxcar Smoothing: 0 (USB2+H05261)
Correct for Electrical Dark: No (USB2+H05261)
Strobe/Lamp Enabled: No (USB2+H05261)
Correct for Detector Non-linearity: No (USB2+H05261)
Correct for Stray Light: No (USB2+H05261)
Number of Pixels in Processed Spectrum: 2048
>>>>>Begin Processed Spectral Data<<<<<
365.73	580.45
365.92	580.45
366.12	580.45
366.32	472.79
366.52	461.09
366.72	491.51
366.91	458.74
367.11	411.93
367.31	510.24
367.51	442.36
367.70	477.47
367.90	486.83
368.10	465.77
368.30	540.66
368.49	386.19
368.69	540.66
368.89	383.85
369.09	528.96
369.28	451.72
369.48	519.60
369.68	535.98
369.87	559.39
370.07	533.64
370.27	545.34
370.47	681.10
370.66	880.04
370.86	926.85
371.06	999.41
371.25	1006.43
371.45	992.39
371.65	940.90
371.84	936.21
372.04	915.15
372.24	987.71
372.44	987.71
372.63	1097.71
372.83	1006.43
373.03	1064.94
373.22	1078.99
373.42	1067.28
373.62	1050.90
373.81	1121.12
374.01	1118.78
374.21	1137.50
374.40	1074.31
374.60	1118.78
374.79	1158.57
374.99	1191.33
375.19	1109.41
375.38	1135.16
375.58	1100.05
375.78	1170.27
375.97	1123.46
376.17	1193.67
376.37	1116.44
376.56	1128.14
376.76	1116.44
376.95	1144.52
377.15	1196.01
377.35	1303.68
377.54	1238.14
377.74	1165.59
377.93	1151.54
378.13	1231.12
378.33	1186.65
378.52	1196.01
378.72	1247.51
378.91	1198.35
379.11	1270.91
379.31	1310.70
379.50	1263.89
379.70	1254.53
379.89	1291.98
380.09	1275.59
380.28	1313.04
380.48	1280.27
380.68	1186.65
380.87	1277.93
381.07	1289.64
381.26	1327.08
381.46	1291.98
381.65	1378.58
381.85	1409.00
382.04	1343.47
382.24	1401.98
382.43	1348.15
382.63	1427.73
382.83	1350.49
383.02	1369.21
383.22	1369.21
383.41	1376.24
383.61	1411.34
383.80	1444.11
384.00	1423.05
384.19	1404.32
384.39	1315.38
384.58	1432.41
384.78	1479.22
384.97	1451.13
385.17	1472.20
385.36	1420.71
385.56	1409.00
385.75	1495.60
385.95	1434.75
386.14	1444.11
386.34	1418.36
386.53	1537.73
386.72	1502.62
386.92	1413.68
387.11	1472.20
387.31	1420.71
387.50	1467.52
387.70	1537.73
387.89	1612.63
388.09	1533.05
388.28	1540.07
388.48	1511.99
388.67	1547.09
388.86	1561.14
389.06	1680.50
389.25	1596.25
389.45	1652.42
389.64	1619.65
389.84	1565.82
390.03	1612.63
390.22	1661.78
390.42	1619.65
390.61	1589.22
390.81	1720.29
391.00	1666.46
391.19	1729.66
391.39	1748.38
391.58	1654.76
391.78	1748.38
391.97	1743.70
392.16	1699.23
392.36	1764.76
392.55	1785.83
392.75	1797.53
392.94	1750.72
393.13	1788.17
393.33	1748.38
393.52	1849.02
393.71	1769.44
393.91	1732.00
394.10	1902.86
394.29	1811.57
394.49	1849.02
394.68	1952.01
394.88	1834.98
395.07	1921.58
395.26	1956.69
395.46	1919.24
395.65	1968.39
395.84	1942.64
396.04	2026.90
396.23	1963.71
396.42	1928.60
396.62	2047.97
396.81	1998.82
397.00	2038.61
397.19	2132.23
397.39	2010.52
397.58	2008.18
397.77	2108.82
397.97	2078.40
398.16	2125.21
398.35	2111.16
398.55	2101.80
398.74	2057.33
398.93	2153.29
399.12	2160.31
399.32	2071.37
399.51	2207.13
399.70	2186.06
399.90	2272.66
400.09	2150.95
400.28	2165.00
400.47	2310.11
400.67	2331.17
400.86	2326.49
401.05	2267.98
401.24	2282.02
401.44	2490.33
401.63	2457.56
401.82	2368.62
402.01	2282.02
402.21	2335.85
402.40	2448.20
402.59	2314.79
402.78	2499.69
402.97	2438.84
403.17	2539.48
403.36	2518.42
403.55	2473.95
403.74	2670.55
403.93	2572.25
404.13	2612.04
404.32	2649.49
404.51	2609.70
404.70	2698.64
404.89	2642.46
405.09	2642.46
405.28	2693.96
405.47	2754.81
405.66	2684.59
405.85	2609.70
406.05	2661.19
406.24	2724.38
406.43	2700.98
406.62	2747.79
406.81	2834.39
407.00	2736.09
407.20	2822.69
407.39	2818.00
407.58	2768.85
407.77	2813.32
407.96	2913.97
408.15	2899.92
408.34	2928.01
408.54	2970.14
408.73	2937.37
408.92	3066.10
409.11	3000.57
409.30	3042.70
409.49	3077.80
409.68	3030.99
409.87	3063.76
410.07	3159.72
410.26	3213.56
410.45	3103.55
410.64	3232.28
410.83	3218.24
411.02	3351.65
411.21	3293.13
411.40	3309.52
411.59	3407.82
411.78	3328.24
411.98	3375.05
412.17	3379.73
412.36	3407.82
412.55	3478.04
412.74	3651.24
412.93	3487.40
413.12	3433.57
413.31	3637.19
413.50	3454.63
413.69	3644.21
413.88	3669.96
414.07	3646.55
414.26	3641.87
414.45	3700.39
414.64	3936.78
414.83	3934.44
415.02	3960.19
415.22	3801.03
415.41	4030.40
415.60	4037.42
415.79	3997.64
415.98	4004.66
416.17	4107.64
416.36	4030.40
416.55	4060.83
416.74	4109.98
416.93	4140.41
417.12	4294.88
417.31	4215.30
417.50	4248.07
417.69	4325.31
417.88	4334.67
418.07	4269.14
418.26	4376.80
418.45	4587.45
418.64	4400.21
418.83	4372.12
419.02	4617.88
419.21	4678.73
419.39	4442.34
419.58	4456.38
419.77	4524.26
419.96	4643.62
420.15	4594.47
420.34	4582.77
420.53	4697.46
420.72	4725.54
420.91	4629.58
421.10	4739.58
421.29	4744.27
421.48	4720.86
421.67	4788.74
421.86	4781.71
422.05	4828.53
422.24	4779.37
422.43	4910.44
422.61	4999.38
422.80	4891.72
422.99	4922.15
423.18	4898.74
423.37	5050.88
423.56	4945.55
423.75	4990.02
423.94	4889.38
424.13	4688.09
424.32	4713.84
424.50	4992.36
424.69	5050.88
424.88	4847.25
425.07	4793.42
425.26	4980.66
425.45	5025.13
425.64	4784.06
425.83	5102.37
426.01	5067.26
426.20	4919.81
426.39	5181.95
426.58	5018.11
426.77	4938.53
426.96	5076.62
427.15	5069.60
427.33	5149.18
427.52	5104.71
427.71	4997.04
427.90	5184.29
428.09	5366.85
428.28	5256.84
428.46	5287.27
428.65	5289.61
428.84	5401.96
429.03	5413.66
429.22	5238.12
429.40	5483.88
429.59	5390.25
429.78	5373.87
429.97	5310.68
430.16	5497.92
430.34	5621.97
430.53	5680.48
430.72	5610.26
430.91	5500.26
431.10	5528.35
431.28	5621.97
431.47	5685.16
431.66	5657.07
431.85	5753.04
432.03	5907.51
432.22	5872.40
432.41	5839.64
432.60	5853.68
432.79	5933.26
432.97	5991.77
433.16	5982.41
433.35	5839.64
433.54	6010.50
433.72	6078.37
433.91	5846.66
434.10	5959.00
434.28	5907.51
434.47	6204.76
434.66	6134.54
434.85	6033.90
435.03	6326.47
435.22	6438.81
435.41	6485.62
435.59	6326.47
435.78	6424.77
435.97	6516.05
436.16	6438.81
436.34	6176.67
436.53	6375.62
436.72	6396.68
436.90	6258.59
437.09	6448.18
437.28	6445.84
437.46	6546.48
437.65	6401.37
437.84	6661.16
438.02	6539.46
438.21	6445.84
438.40	6658.82
438.58	6927.99
438.77	6754.79
438.96	6736.06
439.14	6965.43
439.33	7016.93
439.52	7159.70
439.70	7164.38
439.89	7220.55
440.08	7047.35
440.26	7225.23
440.45	7119.91
440.63	7311.83
440.82	7365.67
441.01	7339.92
441.19	7339.92
441.38	7473.33
441.57	7496.74
441.75	7620.78
441.94	7709.72
442.12	7513.12
442.31	7597.38
442.50	7854.84
442.68	7716.75
442.87	7906.33
443.05	7920.37
443.24	7915.69
443.43	7978.89
443.61	8028.04
443.80	8196.56
443.98	7639.51
444.17	7744.83
444.35	7976.55
444.54	8243.37
444.73	8049.10
444.91	8037.40
445.10	7960.16
445.28	7873.56
445.47	7885.26
445.65	7995.27
445.84	8135.70
446.02	8177.83
446.21	8142.72
446.39	8067.83
446.58	8308.90
446.77	8318.26
446.95	8081.87
447.14	8205.92
447.32	8259.75
447.51	8032.72
447.69	8219.96
447.88	8425.93
448.06	8210.60
448.25	8273.79
448.43	8121.66
448.62	8231.66
448.80	8121.66
448.99	8353.37
449.17	8339.33
449.36	8514.87
449.54	8542.96
449.73	8732.54
449.91	8664.66
450.10	8521.89
450.28	8915.10
450.46	8762.97
450.65	8706.79
450.83	8620.19
451.02	8650.62
451.20	8959.57
451.39	8702.11
451.57	8882.33
451.76	8727.86
451.94	8767.65
452.13	8769.99
452.31	9172.56
452.49	8931.48
452.68	8879.99
452.86	9167.88
453.05	9027.45
453.23	9146.81
453.42	9046.17
453.60	9153.84
453.78	9170.22
453.97	8966.59
454.15	9160.86
454.34	8947.87
454.52	9249.80
454.70	9331.72
454.89	9053.19
455.07	9434.70
455.26	9533.00
455.44	9551.73
455.62	9518.96
455.81	9399.59
455.99	9528.32
456.17	9628.96
456.36	9385.55
456.54	9624.28
456.73	9703.86
456.91	9928.55
457.09	9949.62
457.28	10024.51
457.46	10064.30
457.64	9935.57
457.83	10054.94
458.01	10155.58
458.19	10359.21
458.38	9860.68
458.56	10164.95
458.74	10298.36
458.93	10188.35
459.11	10272.61
459.29	10200.05
459.48	10150.90
459.66	10286.65
459.84	10441.13
460.03	10560.50
460.21	10422.41
460.39	10501.98
460.57	10534.75
460.76	10457.51
460.94	10726.68
461.12	10721.99
461.31	10799.23
461.49	10721.99
461.67	10824.98
461.85	10834.34
462.04	10710.29
462.22	11211.17
462.40	11012.22
462.59	10974.77
462.77	10944.34
462.95	10972.43
463.13	10834.34
463.32	11007.54
463.50	11171.38
463.68	11243.93
463.86	11246.27
464.05	10974.77
464.23	10977.11
464.41	11279.04
464.59	11147.97
464.78	11562.25
464.96	11459.26
465.14	11185.42
465.32	11449.90
465.50	11520.12
465.69	11382.03
465.87	11470.97
466.05	11515.44
466.23	11353.94
466.41	11634.80
466.60	11824.39
466.78	11693.32
466.96	11566.93
467.14	11651.19
467.32	12049.08
467.51	11843.11
467.69	11571.61
467.87	11840.77
468.05	11889.92
468.23	11918.01
468.41	11592.67
468.60	12046.74
468.78	12128.66
468.96	12105.25
469.14	12114.61
469.32	12479.74
469.50	12035.03
469.69	12058.44
469.87	12245.68
470.05	12521.87
470.23	12655.28
470.41	12456.33
470.59	12580.38
470.77	12456.33
470.95	12716.13
471.14	12849.54
471.32	12482.08
471.50	12879.97
471.68	12924.44
471.86	12744.22
472.04	12912.74
472.22	13322.33
472.40	13231.05
472.58	13064.87
472.77	13394.89
472.95	13177.22
473.13	13661.71
473.31	13502.55
473.49	13586.81
473.67	13273.18
473.85	13280.20
474.03	13930.87
474.21	13687.45
474.39	13767.03
474.57	13797.46
474.75	13961.30
474.93	14230.46
475.12	14188.33
475.30	14249.18
475.48	14190.67
475.66	14190.67
475.84	14193.01
476.02	14445.79
476.20	14623.67
476.38	14988.79
476.56	15187.74
476.74	15042.62
476.92	14934.96
477.10	14867.08
477.28	15531.80
477.46	15412.43
477.64	15180.71
477.82	15686.27
478.00	15768.19
478.18	16037.35
478.36	15866.49
478.54	16325.24
478.72	16126.29
478.90	16180.12
479.08	16636.53
479.26	16926.75
479.44	16709.08
479.62	16954.84
479.80	17039.10
479.98	17284.86
480.16	17703.81
480.34	17233.36
480.52	17259.11
480.70	17493.16
480.88	17624.23
481.06	17554.02
481.24	17771.69
481.41	18120.43
481.59	18242.14
481.77	18251.50
481.95	18394.27
482.13	18534.70
482.31	18373.21
482.49	18953.66
482.67	19019.19
482.85	19077.71
483.03	19307.08
483.21	19468.58
483.39	19840.72
483.57	19489.64
483.74	19812.63
483.92	20114.56
484.10	19992.86
484.28	20606.08
484.46	20622.46
484.64	21338.66
484.82	20938.43
485.00	21006.31
485.18	21249.72
485.35	21647.61
485.53	21436.97
485.71	21600.80
485.89	22010.40
486.07	21830.18
486.25	21944.86
486.43	22211.68
486.61	22345.09
486.78	22565.10
486.96	22878.74
487.14	22986.40
487.32	22869.37
487.50	23550.47
487.68	23391.31
487.85	23821.97
488.03	23929.64
488.21	24130.92
488.39	24341.57
488.57	24280.72
488.75	24655.20
488.92	24671.59
489.10	24690.31
489.28	25088.20
489.46	25462.69
489.64	25462.69
489.81	25844.20
489.99	25436.94
490.17	26071.23
490.35	26272.51
490.53	26476.14
490.70	26361.45
490.88	26686.79
491.06	26803.82
491.24	26979.36
491.41	26874.03
491.59	27445.12
491.77	27688.54
491.95	27840.67
492.13	27765.78
492.30	27826.63
492.48	27924.93
492.66	28491.34
492.84	28706.67
493.01	28599.01
493.19	28781.57
493.37	28879.87
493.54	28671.56
493.72	29666.29
493.90	29280.10
494.08	29649.91
494.25	30132.06
494.43	29858.21
494.61	30022.05
494.79	30429.30
494.96	29921.41
495.14	30721.87
495.32	31133.81
495.49	30883.37
495.67	30838.90
495.85	31484.89
496.02	31297.64
496.20	31683.83
496.38	31550.42
496.55	32091.09
496.73	32744.09
496.91	32168.32
497.09	32678.56
497.26	32158.96
497.44	32863.46
497.62	32662.18
497.79	33415.83
497.97	33179.43
498.14	33509.45
498.32	33329.23
498.50	33600.73
498.67	33951.81
498.85	33869.89
499.03	34122.67
499.20	34476.09
499.38	34459.71
499.56	34590.78
499.73	34817.81
499.91	34693.76
500.08	34974.63
500.26	34319.28
500.44	35084.63
500.61	35342.09
500.79	35803.17
500.97	35381.88
501.14	36357.88
501.32	35833.60
501.49	35868.71
501.67	36163.62
501.84	36481.93
502.02	36217.45
502.20	36184.68
502.37	36301.71
502.55	36598.96
502.72	36631.72
502.90	36643.43
503.07	36692.58
503.25	37099.83
503.43	37200.47
503.60	37216.86
503.78	37427.51
503.95	37233.24
504.13	37914.34
504.30	37338.57
504.48	37928.38
504.65	38253.72
504.83	38223.29
505.01	38852.89
505.18	38691.40
505.36	38768.63
505.53	38447.98
505.71	38550.96
505.88	39173.55
506.06	38422.23
506.23	39145.46
506.41	38932.47
506.58	39489.52
506.76	39070.56
506.93	39669.74
507.11	39590.16
507.28	39480.16
507.46	40027.84
507.63	39526.97
507.81	40189.34
507.98	39992.73
508.16	39880.39
508.33	40238.49
508.50	40903.20
508.68	40844.69
508.85	40699.58
509.03	40767.45
509.20	40828.30
509.38	41605.36
509.55	41298.75
509.73	41064.70
509.90	42038.36
510.08	41422.80
510.25	41172.36
510.42	41989.21
510.60	42036.02
510.77	42068.79
510.95	42490.09
511.12	42038.36
511.30	42373.06
511.47	42337.95
511.64	42679.67
511.82	42742.86
511.99	42487.74
512.17	42803.72
512.34	42948.83
512.51	43487.15
512.69	43203.95
512.86	43580.78
513.04	43423.96
513.21	43430.98
513.38	43782.06
513.56	43470.77
513.73	43370.13
513.90	44388.26
514.08	43793.76
514.25	44318.04
514.43	44137.82
514.60	44226.76
514.77	44360.17
514.95	44582.52
515.12	44287.62
515.29	44666.78
515.47	44603.59
515.64	45076.38
515.81	44809.56
515.99	45118.51
516.16	45083.40
516.33	45104.46
516.51	45701.30
516.68	45485.97
516.85	45570.23
517.03	45902.59
517.20	45865.14
517.37	45656.83
517.54	45965.78
517.72	46153.02
517.89	45979.82
518.06	46487.72
518.24	45921.31
518.41	46237.28
518.58	46419.84
518.75	46361.33
518.93	46185.79
519.10	46480.70
519.27	46689.01
519.45	46906.68
519.62	46848.16
519.79	47489.47
519.96	47098.60
520.14	47047.11
520.31	46864.55
520.48	47547.98
520.65	47435.64
520.83	47522.24
521.00	48013.75
521.17	47632.24
521.34	47957.58
521.52	47742.25
521.69	47592.45
521.86	47894.38
522.03	47856.93
522.20	48004.39
522.38	48308.66
522.55	48655.06
522.72	48325.04
522.89	48484.20
523.07	48996.77
523.24	48322.70
523.41	48893.79
523.58	48374.19
523.75	48884.43
523.92	48573.14
524.10	48999.12
524.27	49258.91
524.44	49408.71
524.61	49645.10
524.78	49111.46
524.96	49343.17
525.13	49729.36
525.30	49785.54
525.47	50115.55
525.64	50003.20
525.81	49902.56
525.98	49989.16
526.16	49478.92
526.33	49518.71
526.50	50115.55
526.67	50087.46
526.84	50475.99
527.01	50415.14
527.18	50595.36
527.36	50548.55
527.53	50770.90
527.70	50803.67
527.87	51047.08
528.04	50501.74
528.21	51309.22
528.38	50761.54
528.55	51026.02
528.72	50810.69
528.89	51489.45
529.07	50866.86
529.24	50770.90
529.41	50939.42
529.58	51501.15
529.75	51330.29
529.92	51693.07
530.09	51447.32
530.26	51220.28
530.43	51435.61
530.60	51381.78
530.77	51622.86
530.94	52025.43
531.11	51363.06
531.28	51807.76
531.46	51697.75
531.63	51915.42
531.80	52030.11
531.97	51906.06
532.14	51774.99
532.31	51938.83
532.48	52289.91
532.65	52428.00
532.82	52100.32
532.99	52158.84
533.16	52119.05
533.33	52275.87
533.50	52502.90
533.67	52868.02
533.84	52512.26
534.01	52650.35
534.18	52648.01
534.35	52844.62
534.52	52842.27
534.69	52912.49
534.86	52664.39
535.03	52538.01
535.20	52694.82
535.37	53099.73
535.54	53118.46
535.71	52952.28
535.88	53340.81
536.05	53024.84
536.22	53181.65
536.38	53219.10
536.55	53176.97
536.72	52750.99
536.89	53392.30
537.06	53593.59
537.23	53902.54
537.40	53525.71
537.57	53502.31
537.74	53254.21
537.91	54005.52
538.08	53528.05
538.25	53624.01
538.42	53876.79
538.59	54042.97
538.75	53605.29
538.92	54057.01
539.09	53851.05
539.26	54019.56
539.43	53902.54
539.60	54319.15
539.77	53921.26
539.94	54244.26
540.11	54258.30
540.28	54401.07
540.44	54209.15
540.61	54389.37
540.78	54335.54
540.95	54295.75
541.12	54506.40
541.29	54375.33
541.46	54873.86
541.62	54712.36
541.79	54864.50
541.96	54480.65
542.13	54518.10
542.30	54593.00
542.47	54864.50
542.63	54742.79
542.80	55042.38
542.97	55288.13
543.14	55515.17
543.31	55061.10
543.48	55325.58
543.64	55423.89
543.81	55442.61
543.98	55171.11
544.15	55440.27
544.32	55569.00
544.48	55875.61
544.65	55590.06
544.82	55430.91
544.99	55454.31
545.16	55475.38
545.32	55686.03
545.49	55887.31
545.66	56004.34
545.83	55819.44
546.00	56156.47
546.16	55824.12
546.33	56046.47
546.50	55524.53
546.67	55793.69
546.83	55463.67
547.00	55599.43
547.17	55660.28
547.34	55697.73
547.50	55983.27
547.67	56465.42
547.84	56126.05
548.00	56346.06
548.17	56240.73
548.34	56058.17
548.51	56427.98
548.67	56175.20
548.84	56336.69
549.01	56479.47
549.18	56350.74
549.34	56119.02
549.51	56320.31
549.68	56493.51
549.84	56523.94
550.01	56528.62
550.18	56229.03
550.34	56229.03
550.51	56350.74
550.68	56472.45
550.84	56378.82
551.01	56715.86
551.18	56411.59
551.34	56189.24
551.51	56437.34
551.68	56650.33
551.84	56540.32
552.01	56446.70
552.18	56603.52
552.34	56533.30
552.51	57036.51
552.68	56788.42
552.84	56903.10
553.01	56872.68
553.18	56870.34
553.34	56926.51
553.51	56739.27
553.67	56736.93
553.84	57158.22
554.01	57308.02
554.17	57020.13
554.34	57125.46
554.51	56898.42
554.67	57200.35
554.84	57066.94
555.00	56828.21
555.17	56921.83
555.33	56947.57
555.50	57024.81
555.67	57172.27
555.83	57169.93
556.00	57233.12
556.16	57394.62
556.33	57155.88
556.50	57151.20
556.66	57258.87
556.83	57179.29
556.99	57502.28
557.16	57261.21
557.32	57808.89
557.49	57670.80
557.65	57263.55
557.82	57425.04
557.98	57528.03
558.15	57530.37
558.32	57567.82
558.48	57125.46
558.65	57560.79
558.81	57738.68
558.98	57673.14
559.14	57762.08
559.31	57432.07
559.47	57703.57
559.64	57794.85
559.80	57888.47
559.97	57776.12
560.13	57640.37
560.30	57663.78
560.46	57853.36
560.63	57759.74
560.79	58117.84
560.96	57923.58
561.12	57834.64
561.29	57680.16
561.45	57778.46
561.61	57855.70
561.78	57757.40
561.94	57851.02
562.11	58122.52
562.27	57942.30
562.44	58159.97
562.60	57942.30
562.77	58195.08
562.93	57923.58
563.10	58206.78
563.26	57766.76
563.42	58117.84
563.59	58038.26
563.75	58314.45
563.92	58145.93
564.08	58028.90
564.24	58288.70
564.41	57975.07
564.57	58176.36
564.74	58129.54
564.90	58150.61
565.07	58363.60
565.23	58255.93
565.39	58314.45
565.56	58525.10
565.72	58461.90
565.88	58550.84
566.05	58333.17
566.21	58300.40
566.38	58089.76
566.54	58143.59
566.70	58532.12
566.87	58749.79
567.03	58241.89
567.19	58674.89
567.36	58827.02
567.52	58529.78
567.68	58342.53
567.85	58485.31
568.01	58452.54
568.17	58489.99
568.34	58419.77
568.50	58672.55
568.66	58534.46
568.83	58679.57
568.99	58677.23
569.15	58541.48
569.32	58653.82
569.48	58464.24
569.64	58370.62
569.81	58412.75
569.97	58480.63
570.13	58419.77
570.30	58560.20
570.46	58740.42
570.62	58710.00
570.78	58726.38
570.95	58433.81
571.11	58817.66
571.27	58464.24
571.43	58710.00
571.60	58609.35
571.76	58770.85
571.92	58876.18
572.09	58911.28
572.25	58756.81
572.41	58621.06
572.57	58859.79
572.74	58960.44
572.90	58803.62
573.06	59014.27
573.22	58782.55
573.38	58508.71
573.55	58892.56
573.71	59047.04
573.87	59030.65
574.03	58745.11
574.20	58897.24
574.36	58829.37
574.52	58864.47
574.68	58735.74
574.84	58918.31
575.01	58922.99
575.17	58789.58
575.33	58733.40
575.49	58913.62
575.65	59049.38
575.82	59150.02
575.98	58859.79
576.14	59147.68
576.30	59124.27
576.46	58906.60
576.62	58775.53
576.79	58873.84
576.95	58653.82
577.11	59166.40
577.27	59135.98
577.43	59044.69
577.59	58939.37
577.75	59040.01
577.92	58841.07
578.08	58894.90
578.24	58632.76
578.40	58901.92
578.56	58993.20
578.72	58869.15
578.88	59082.14
579.04	59164.06
579.21	59147.68
579.37	59304.49
579.53	59147.68
579.69	58798.94
579.85	58948.73
580.01	59096.19
580.17	59049.38
580.33	59278.75
580.49	59105.55
580.65	59339.60
580.82	59168.74
580.98	59117.25
581.14	59283.43
581.30	59199.17
581.46	59093.85
581.62	59037.67
581.78	58906.60
581.94	59269.39
582.10	58658.51
582.26	59077.46
582.42	59147.68
582.58	58962.78
582.74	59091.51
582.90	59182.79
583.06	59096.19
583.22	59082.14
583.38	59091.51
583.54	59103.21
583.70	59070.44
583.86	59143.00
584.02	59311.52
584.18	59316.20
584.34	59245.98
584.50	59311.52
584.66	59140.66
584.82	59040.01
584.98	59185.13
585.14	59290.45
585.30	59131.29
585.46	59353.65
585.62	58930.01
585.78	59117.25
585.94	59086.82
586.10	59114.91
586.26	59213.21
586.42	59316.20
586.58	59313.86
586.74	59351.30
586.90	59213.21
587.06	59203.85
587.22	59217.89
587.38	59199.17
587.54	59487.06
587.70	59739.83
587.86	59355.99
588.02	59604.08
588.18	59433.22
588.34	59330.24
588.49	59398.12
588.65	59311.52
588.81	59400.46
588.97	59524.50
589.13	59461.31
589.29	59615.79
589.45	59489.40
589.61	59620.47
589.77	59540.89
589.93	59503.44
590.08	59554.93
590.24	59704.73
590.40	59662.60
590.56	59587.70
590.72	59641.53
590.88	59269.39
591.04	59428.54
591.20	59674.30
591.35	59760.90
591.51	59959.84
591.67	59861.54
591.83	59838.14
591.99	59620.47
592.15	59590.04
592.31	59559.61
592.46	59760.90
592.62	59363.01
592.78	59559.61
592.94	59683.66
593.10	59573.66
593.26	59962.18
593.41	59786.64
593.57	59798.35
593.73	59784.30
593.89	59980.91
594.05	59655.57
594.20	59681.32
594.36	59543.23
594.52	59627.49
594.68	59587.70
594.84	59643.87
594.99	59927.08
595.15	59615.79
595.31	59922.40
595.47	59894.31
595.62	59870.90
595.78	59814.73
595.94	59718.77
596.10	59728.13
596.25	59732.81
596.41	59751.54
596.57	59480.03
596.73	59821.75
596.88	59524.50
597.04	59936.44
597.20	59821.75
597.36	59891.97
597.51	59817.07
597.67	59749.20
597.83	59643.87
597.99	59917.71
598.14	59735.15
598.30	59742.17
598.46	59564.29
598.61	59786.64
598.77	59749.20
598.93	60090.91
599.09	59917.71
599.24	60243.05
599.40	59990.27
599.56	59835.80
599.71	59765.58
599.87	59922.40
600.03	59964.52
600.18	59767.92
600.34	59671.96
600.50	59873.24
600.65	59877.93
600.81	60292.20
600.97	60004.31
601.12	60090.91
601.28	59859.20
601.44	59920.05
601.59	59824.09
601.75	59728.13
601.91	60114.32
602.06	59732.81
602.22	59859.20
602.37	59964.52
602.53	59969.21
602.69	59973.89
602.84	60018.36
603.00	59983.25
603.16	60032.40
603.31	60006.65
603.47	59744.51
603.62	59847.50
603.78	60048.78
603.94	59898.99
604.09	59849.84
604.25	59725.79
604.40	59950.48
604.56	59854.52
604.71	60165.81
604.87	60018.36
605.03	59903.67
605.18	59910.69
605.34	59817.07
605.49	59812.39
605.65	59833.46
605.80	59821.75
605.96	60219.64
606.12	60186.88
606.27	60247.73
606.43	59931.76
606.58	60289.86
606.74	59915.37
606.89	59948.14
607.05	60079.21
607.20	59891.97
607.36	59938.78
607.51	59884.95
607.67	59870.90
607.82	59744.51
607.98	59936.44
608.13	59910.69
608.29	59796.01
608.44	59936.44
608.60	59760.90
608.75	59938.78
608.91	59952.82
609.06	59683.66
609.22	60009.00
609.37	59613.44
609.53	59920.05
609.68	59908.35
609.84	59901.33
609.99	59966.87
610.15	59959.84
610.30	60030.06
610.46	59796.01
610.61	59880.27
610.76	60055.81
610.92	60137.72
611.07	60196.24
611.23	59994.95
611.38	60236.03
611.54	60072.19
611.69	59910.69
611.84	60226.66
612.00	60238.37
612.15	59882.61
612.31	60030.06
612.46	60016.02
612.62	59922.40
612.77	60027.72
612.92	60055.81
613.08	59702.38
613.23	59877.93
613.39	59870.90
613.54	59711.75
613.69	59906.01
613.85	59742.17
614.00	59840.48
614.15	60212.62
614.31	59936.44
614.46	59781.96
614.62	59903.67
614.77	59648.55
614.92	59894.31
615.08	59573.66
615.23	59629.83
615.38	59517.48
615.54	59140.66
615.69	59412.16
615.84	59447.27
616.00	59590.04
616.15	59540.89
616.30	59524.50
616.46	59814.73
616.61	59622.81
616.76	59426.20
616.92	59281.09
617.07	59175.76
617.22	59398.12
617.37	59126.61
617.53	59316.20
617.68	59325.56
617.83	59463.65
617.99	59587.70
618.14	59580.68
618.29	59505.78
618.45	59407.48
618.60	59414.50
618.75	59311.52
618.90	59267.05
619.06	58937.03
619.21	58911.28
619.36	59070.44
619.51	59140.66
619.67	58829.37
619.82	58873.84
619.97	59372.37
620.12	59398.12
620.28	59217.89
620.43	59189.81
620.58	59334.92
620.73	59220.23
620.89	58965.12
621.04	59161.72
621.19	59105.55
621.34	59208.53
621.49	59028.31
621.65	59068.10
621.80	59489.40
621.95	58958.09
622.10	59253.00
622.25	59227.26
622.41	59189.81
622.56	58981.50
622.71	59051.72
622.86	58897.24
623.01	58930.01
623.16	59119.59
623.32	58829.37
623.47	58817.66
623.62	59004.91
623.77	58993.20
623.92	59014.27
624.07	58686.59
624.23	58904.26
624.38	58890.22
624.53	58953.41
624.68	58934.69
624.83	59051.72
624.98	58841.07
625.13	58625.74
625.29	58525.10
625.44	58820.00
625.59	58616.38
625.74	58482.97
625.89	58639.78
626.04	58614.04
626.19	58951.07
626.34	58749.79
626.49	58702.98
626.65	58628.08
626.80	58805.96
626.95	58405.73
627.10	58511.05
627.25	58206.78
627.40	58417.43
627.55	58412.75
627.70	58436.16
627.85	58464.24
628.00	58497.01
628.15	58635.10
628.30	58239.55
628.45	58546.16
628.60	58749.79
628.76	58377.64
628.91	58618.72
629.06	58279.34
629.21	58396.37
629.36	58417.43
629.51	58504.03
629.66	58555.52
629.81	58302.74
629.96	58405.73
630.11	58298.06
630.26	58333.17
630.41	58335.51
630.56	58330.83
630.71	58408.07
630.86	58246.57
631.01	58539.14
631.16	58368.28
631.31	58085.07
631.46	58019.54
631.61	57874.43
631.76	58239.55
631.91	58440.84
632.06	58108.48
632.21	58019.54
632.36	58302.74
632.51	58141.25
632.66	58468.92
632.81	58066.35
632.96	58028.90
633.10	57989.11
633.25	57745.70
633.40	57722.29
633.55	57963.37
633.70	57715.27
633.85	57780.81
634.00	58080.39
634.15	57874.43
634.30	57907.19
634.45	57965.71
634.60	57853.36
634.75	58052.31
634.90	57659.10
635.05	57790.17
635.19	57626.33
635.34	58066.35
635.49	57623.99
635.64	57921.24
635.79	57499.94
635.94	57773.78
636.09	57619.31
636.24	57600.58
636.39	57804.21
636.53	57705.91
636.68	57464.83
636.83	57588.88
636.98	57556.11
637.13	57396.96
637.28	57684.84
637.43	57586.54
637.57	57275.25
637.72	57254.18
637.87	57464.83
638.02	57436.75
638.17	57602.92
638.32	57406.32
638.46	57088.01
638.61	57474.20
638.76	57598.24
638.91	57439.09
639.06	57612.29
639.20	57429.72
639.35	57546.75
639.50	57146.52
639.65	57305.68
639.80	57118.43
639.94	57181.63
640.09	57183.97
640.24	57286.95
640.39	57272.91
640.54	57071.62
640.68	57331.42
640.83	57036.51
640.98	57125.46
641.13	56994.39
641.27	57263.55
641.42	56802.46
641.57	56687.78
641.72	57085.67
641.86	57069.28
642.01	56633.94
642.16	56926.51
642.31	56657.35
642.45	57102.05
642.60	56839.91
642.75	56954.60
642.90	57148.86
643.04	56903.10
643.19	57099.71
643.34	57289.29
643.48	57233.12
643.63	56825.87
643.78	57022.47
643.93	56683.09
644.07	56746.29
644.22	56753.31
644.37	56559.05
644.51	56748.63
644.66	56914.81
644.81	56790.76
644.95	57088.01
645.10	56765.01
645.25	56875.02
645.39	56952.26
645.54	57043.54
645.69	56603.52
645.83	56540.32
645.98	56502.87
646.13	56615.22
646.27	56891.40
646.42	56425.64
646.57	56582.45
646.71	56629.26
646.86	56535.64
647.00	56699.48
647.15	56533.30
647.30	56697.14
647.44	56727.56
647.59	56743.95
647.74	56449.04
647.88	56427.98
648.03	56259.46
648.17	56175.20
648.32	56116.68
648.47	56250.09
648.61	56315.63
648.76	56282.86
648.90	56324.99
649.05	56420.95
649.20	56163.50
649.34	56409.25
649.49	56402.23
649.63	56559.05
649.78	56472.45
649.92	55999.66
650.07	56530.96
650.21	55938.80
650.36	56086.26
650.51	55810.07
650.65	55800.71
650.80	55894.33
650.94	55763.26
651.09	55884.97
651.23	56100.30
651.38	55969.23
651.52	55861.57
651.67	55943.48
651.81	56189.24
651.96	56313.29
652.10	56163.50
652.25	55838.16
652.39	55980.93
652.54	56154.13
652.68	56112.00
652.83	55964.55
652.97	56058.17
653.12	55882.63
653.26	55842.84
653.41	56135.41
653.55	55971.57
653.70	55959.87
653.84	55763.26
653.99	55674.32
654.13	55583.04
654.27	55889.65
654.42	55838.16
654.56	55798.37
654.71	55580.70
654.85	55543.25
655.00	55606.45
655.14	55360.69
655.29	55569.00
655.43	55339.63
655.57	55011.95
655.72	55351.33
655.86	55517.51
656.01	55407.50
656.15	55597.09
656.30	55489.42
656.44	55407.50
656.58	55437.93
656.73	55571.34
656.87	55100.89
657.01	55444.95
657.16	55524.53
657.30	55105.57
657.45	55339.63
657.59	55454.31
657.73	55014.29
657.88	54927.69
658.02	55136.00
658.16	55398.14
658.31	55255.37
658.45	55229.62
658.60	55178.13
658.74	55346.65
658.88	55114.94
659.03	54824.71
659.17	54925.35
659.31	54691.30
659.46	54756.83
659.60	54717.04
659.74	54859.82
659.89	54780.24
660.03	55136.00
660.17	54869.18
660.32	54899.61
660.46	54742.79
660.60	54541.50
660.74	54665.55
660.89	54497.03
661.03	54267.66
661.17	54403.41
661.32	54232.55
661.46	54108.50
661.60	54356.60
661.74	54262.98
661.89	54410.43
662.03	54106.16
662.17	54031.27
662.31	53928.28
662.46	54096.80
662.60	54150.63
662.74	54005.52
662.88	53829.98
663.03	54096.80
663.17	54110.85
663.31	54005.52
663.45	53958.71
663.60	53911.90
663.74	53682.53
663.88	53862.75
664.02	53951.69
664.17	53654.44
664.31	52963.98
664.45	53277.61
664.59	53577.20
664.73	53829.98
664.88	53577.20
665.02	53137.18
665.16	53717.64
665.30	53427.41
665.44	53626.35
665.59	53064.63
665.73	53481.24
665.87	53247.19
666.01	53017.82
666.15	53102.07
666.29	53010.79
666.44	52992.07
666.58	52849.30
666.72	52399.91
666.86	52797.80
667.00	52587.16
667.14	52968.66
667.28	52797.80
667.43	52818.87
667.57	52858.66
667.71	52828.23
667.85	52547.37
667.99	52669.08
668.13	52530.98
668.27	52205.65
668.41	52292.25
668.56	51774.99
668.70	52245.44
668.84	51997.34
668.98	51711.80
669.12	52081.60
669.26	52306.29
669.40	51901.38
669.54	51821.80
669.68	51971.60
669.82	52161.18
669.96	52271.18
670.10	51952.87
670.25	52109.69
670.39	51660.30
670.53	51241.35
670.67	51175.81
670.81	51367.74
670.95	50976.87
671.09	51121.98
671.23	51311.56
671.37	51304.54
671.51	51487.10
671.65	51217.94
671.79	50988.57
671.93	50885.59
672.07	51201.56
672.21	51292.84
672.35	50955.80
672.49	50770.90
672.63	50326.20
672.77	50684.30
672.91	50775.58
673.05	49956.39
673.19	50078.10
673.33	50248.96
673.47	50050.02
673.61	50071.08
673.75	50424.50
673.89	50349.60
674.03	50202.15
674.17	49516.37
674.31	49736.38
674.45	50007.89
674.59	49790.22
674.73	49738.72
674.87	49382.96
675.01	49532.76
675.15	49490.63
675.29	49640.42
675.43	49605.31
675.56	48816.55
675.70	49125.50
675.84	49177.00
675.98	47384.15
676.12	49043.59
676.26	49146.57
676.40	48378.87
676.54	48615.27
676.68	48598.88
676.82	48390.58
676.96	48184.61
677.10	48163.54
677.23	48189.29
677.37	47838.21
677.51	48105.03
677.65	47665.01
677.79	47103.28
677.93	47037.75
678.07	47346.70
678.21	46539.21
678.34	46590.70
678.48	46454.95
678.62	46658.58
678.76	46913.70
678.90	46012.59
679.04	47281.16
679.18	47159.45
679.31	46485.38
679.45	46300.48
679.59	46138.98
679.73	46773.27
679.87	45446.18
680.00	45471.93
680.14	45654.49
680.28	45626.40
680.42	45385.33
680.56	45532.78
680.70	44559.12
680.83	44734.66
680.97	44919.56
681.11	45095.10
681.25	44694.87
681.39	45031.91
681.52	45045.95
681.66	44332.09
681.80	44243.15
681.94	43753.97
682.07	44348.47
682.21	44069.95
682.35	44006.75
682.49	44086.33
682.62	43639.29
682.76	43480.13
682.90	43395.87
683.04	43271.82
683.17	43042.45
683.31	43100.97
683.45	42946.49
683.59	42763.93
683.72	42677.33
683.86	42630.52
684.00	42272.42
684.13	42370.72
684.27	42127.30
684.41	42127.30
684.55	42270.08
684.68	42845.85
684.82	41935.38
684.96	41544.51
685.09	41596.00
685.23	41200.45
685.37	41303.43
685.50	41064.70
685.64	41436.84
685.78	40973.42
685.91	41242.58
686.05	40893.84
686.19	40561.48
686.32	40975.76
686.46	40737.02
686.60	40472.54
686.73	40636.38
686.87	40264.24
687.01	40327.43
687.14	40016.14
687.28	39648.68
687.42	40147.21
687.55	39735.27
687.69	39601.86
687.82	39086.95
687.96	38878.64
688.10	38864.60
688.23	38913.75
688.37	39129.08
688.50	38646.93
688.64	38419.89
688.78	38925.45
688.91	38389.47
689.05	38597.77
689.18	38239.67
689.32	37654.54
689.46	38195.20
689.59	37881.57
689.73	37703.69
689.86	37464.96
690.00	37134.94
690.13	37273.03
690.27	37029.62
690.41	36975.78
690.54	36376.61
690.68	36999.19
690.81	36591.94
690.95	36690.24
691.08	36233.83
691.22	36222.13
691.35	35681.47
691.49	36561.51
691.62	35737.64
691.76	35082.29
691.89	35419.33
692.03	36077.02
692.16	35676.79
692.30	35119.74
692.43	35262.51
692.57	35028.46
692.70	34682.06
692.84	34555.67
692.97	34590.78
693.11	34349.70
693.24	34349.70
693.38	34588.44
693.51	34433.96
693.65	34204.59
693.78	33804.36
693.92	33804.36
694.05	33984.58
694.19	33373.70
694.32	33586.69
694.45	33818.40
694.59	33347.95
694.72	32732.39
694.86	32355.57
694.99	32123.85
695.13	32486.64
695.26	32135.56
695.39	31562.12
695.53	32407.06
695.66	32091.09
695.80	32123.85
695.93	31955.33
696.07	32058.32
696.20	31665.11
696.33	31887.46
696.47	31765.75
696.60	31136.15
696.73	30483.14
696.87	31138.49
697.00	30962.95
697.14	31154.87
697.27	30726.55
697.40	30529.95
697.54	30679.74
697.67	29933.11
697.80	29659.27
697.94	29834.81
698.07	30171.85
698.21	29979.92
698.34	29717.78
698.47	29617.14
698.61	29481.39
698.74	29429.90
698.87	29673.31
699.01	29287.12
699.14	29303.51
699.27	29450.96
699.40	29076.48
699.54	29268.40
699.67	28659.86
699.80	28886.89
699.94	28910.30
700.07	28203.46
700.20	27651.09
700.34	27906.21
700.47	27445.12
700.60	27913.23
700.73	27765.78
700.87	27236.81
701.00	27372.57
701.13	27459.16
701.26	27229.79
701.40	27255.54
701.53	26637.64
701.66	26724.24
701.79	26960.63
701.93	26403.58
702.06	26476.14
702.19	26169.53
702.32	26214.00
702.46	26244.43
702.59	26164.85
702.72	25888.67
702.85	26026.76
702.99	25738.87
703.12	25149.06
703.25	25425.24
703.38	25692.06
703.51	25385.45
703.65	25350.34
703.78	24971.18
703.91	25020.33
704.04	25099.90
704.17	24879.89
704.31	24580.31
704.44	24786.27
704.57	24528.81
704.70	24154.33
704.83	23735.37
704.96	24147.31
705.10	23756.44
705.23	23882.83
>>>>>End Processed Spectral Data<<<<<
