SpectraSuite Data File
++++++++++++++++++++++++++++++++++++
Date: Thu Oct 24 13:21:23 EDT 2013
User: stostad
Dark Spectrum Present: No
Reference Spectrum Present: No
Number of Sampled Component Spectra: 1
Spectrometers: USB2+H05261
Integration Time (usec): 100000 (USB2+H05261)
Spectra Averaged: 1 (USB2+H05261)
Boxcar Smoothing: 0 (USB2+H05261)
Correct for Electrical Dark: No (USB2+H05261)
Strobe/Lamp Enabled: No (USB2+H05261)
Correct for Detector Non-linearity: No (USB2+H05261)
Correct for Stray Light: No (USB2+H05261)
Number of Pixels in Processed Spectrum: 2048
>>>>>Begin Processed Spectral Data<<<<<
365.73	557.05
365.92	557.05
366.12	557.05
366.32	435.34
366.52	503.22
366.72	447.04
366.91	468.11
367.11	496.19
367.31	437.68
367.51	505.56
367.70	500.87
367.90	470.45
368.10	475.13
368.30	435.34
368.49	383.85
368.69	468.11
368.89	463.43
369.09	458.74
369.28	526.62
369.48	463.43
369.68	571.09
369.87	496.19
370.07	540.66
370.27	491.51
370.47	603.86
370.66	938.55
370.86	868.34
371.06	1013.45
371.25	966.64
371.45	877.70
371.65	1055.58
371.84	964.30
372.04	954.94
372.24	987.71
372.44	917.49
372.63	992.39
372.83	1025.15
373.03	1041.54
373.22	1128.14
373.42	1111.75
373.62	1046.22
373.81	1093.03
374.01	1067.28
374.21	1083.67
374.40	1086.01
374.60	1004.09
374.79	1020.47
374.99	1172.61
375.19	1149.20
375.38	1130.48
375.58	1104.73
375.78	1128.14
375.97	1242.82
376.17	1294.32
376.37	1167.93
376.56	1160.91
376.76	1149.20
376.95	1217.08
377.15	1174.95
377.35	1212.40
377.54	1196.01
377.74	1188.99
377.93	1203.04
378.13	1174.95
378.33	1203.04
378.52	1193.67
378.72	1254.53
378.91	1263.89
379.11	1144.52
379.31	1345.81
379.50	1146.86
379.70	1299.00
379.89	1217.08
380.09	1207.72
380.28	1275.59
380.48	1282.61
380.68	1186.65
380.87	1259.21
381.07	1317.72
381.26	1345.81
381.46	1352.83
381.65	1352.83
381.85	1343.47
382.04	1355.17
382.24	1371.55
382.43	1455.81
382.63	1324.74
382.83	1357.51
383.02	1376.24
383.22	1383.26
383.41	1434.75
383.61	1404.32
383.80	1392.62
384.00	1327.08
384.19	1366.87
384.39	1425.39
384.58	1416.02
384.78	1409.00
384.97	1453.47
385.17	1507.30
385.36	1427.73
385.56	1444.11
385.75	1434.75
385.95	1458.15
386.14	1549.43
386.34	1535.39
386.53	1519.01
386.72	1511.99
386.92	1582.20
387.11	1490.92
387.31	1495.60
387.50	1533.05
387.70	1533.05
387.89	1483.90
388.09	1565.82
388.28	1544.75
388.48	1549.43
388.67	1556.46
388.86	1626.67
389.06	1577.52
389.25	1612.63
389.45	1603.27
389.64	1647.74
389.84	1652.42
390.03	1689.87
390.22	1654.76
390.42	1589.22
390.61	1696.89
390.81	1739.02
391.00	1769.44
391.19	1696.89
391.39	1680.50
391.58	1734.34
391.78	1743.70
391.97	1750.72
392.16	1724.97
392.36	1767.10
392.55	1685.19
392.75	1830.30
392.94	1834.98
393.13	1750.72
393.33	1788.17
393.52	1870.09
393.71	1767.10
393.91	1837.32
394.10	1818.60
394.29	1886.47
394.49	1820.94
394.68	1914.56
394.88	1928.60
395.07	1867.75
395.26	1891.15
395.46	1961.37
395.65	1914.56
395.84	1933.28
396.04	2083.08
396.23	1968.39
396.42	2010.52
396.62	2031.58
396.81	1996.48
397.00	2008.18
397.19	1949.67
397.39	2019.88
397.58	1970.73
397.77	2052.65
397.97	2069.03
398.16	2134.57
398.35	2120.53
398.55	2059.67
398.74	2129.89
398.93	2260.96
399.12	2181.38
399.32	2157.97
399.51	2223.51
399.70	2263.30
399.90	2286.70
400.09	2260.96
400.28	2263.30
400.47	2298.41
400.67	2317.13
400.86	2356.92
401.05	2352.24
401.24	2333.51
401.44	2312.45
401.63	2413.09
401.82	2356.92
402.01	2366.28
402.21	2473.95
402.40	2523.10
402.59	2331.17
402.78	2401.39
402.97	2464.58
403.17	2408.41
403.36	2487.99
403.55	2551.18
403.74	2623.74
403.93	2537.14
404.13	2588.63
404.32	2532.46
404.51	2593.31
404.70	2635.44
404.89	2583.95
405.09	2647.15
405.28	2665.87
405.47	2619.06
405.66	2740.77
405.85	2729.06
406.05	2722.04
406.24	2752.47
406.43	2853.11
406.62	2864.82
406.81	2853.11
407.00	2731.41
407.20	2773.53
407.39	2813.32
407.58	2972.48
407.77	2928.01
407.96	2881.20
408.15	3047.38
408.34	2970.14
408.54	2944.39
408.73	3068.44
408.92	3045.04
409.11	2977.16
409.30	3084.83
409.49	3061.42
409.68	3087.17
409.87	3215.90
410.07	3150.36
410.26	3133.98
410.45	3199.51
410.64	3304.84
410.83	3307.18
411.02	3251.00
411.21	3389.10
411.40	3353.99
411.59	3410.16
411.78	3279.09
411.98	3379.73
412.17	3424.20
412.36	3435.91
412.55	3595.06
412.74	3555.27
412.93	3524.85
413.12	3524.85
413.31	3709.75
413.50	3660.60
413.69	3676.98
413.88	3716.77
414.07	3686.34
414.26	3815.07
414.45	3801.03
414.64	3796.35
414.83	3985.93
415.02	3892.31
415.22	4011.68
415.41	4070.19
415.60	4124.02
415.79	4128.70
415.98	4107.64
416.17	4135.73
416.36	4142.75
416.55	4121.68
416.74	4119.34
416.93	4194.24
417.12	4219.99
417.31	4280.84
417.50	4287.86
417.69	4566.39
417.88	4414.25
418.07	4404.89
418.26	4329.99
418.45	4379.14
418.64	4620.22
418.83	4489.15
419.02	4479.79
419.21	4669.37
419.39	4512.55
419.58	4638.94
419.77	4479.79
419.96	4608.51
420.15	4737.24
420.34	4531.28
420.53	4748.95
420.72	4711.50
420.91	4912.78
421.10	4868.31
421.29	4891.72
421.48	4767.67
421.67	4868.31
421.86	4882.36
422.05	4870.65
422.24	4896.40
422.43	4917.47
422.61	5015.77
422.80	5186.63
422.99	5121.09
423.18	5055.56
423.37	5027.47
423.56	5139.82
423.75	4915.12
423.94	5004.07
424.13	4585.11
424.32	4774.69
424.50	5142.16
424.69	5224.08
424.88	5055.56
425.07	5181.95
425.26	4973.64
425.45	5076.62
425.64	4997.04
425.83	5085.98
426.01	5055.56
426.20	5121.09
426.39	5235.78
426.58	5160.88
426.77	5238.12
426.96	5263.86
427.15	5146.84
427.33	5341.10
427.52	5266.21
427.71	5198.33
427.90	5217.05
428.09	5334.08
428.28	5451.11
428.46	5355.15
428.65	5359.83
428.84	5488.56
429.03	5577.50
429.22	5362.17
429.40	5434.72
429.59	5586.86
429.78	5427.70
429.97	5324.72
430.16	5614.95
430.34	5387.91
430.53	5509.62
430.72	5633.67
430.91	5502.60
431.10	5633.67
431.28	5680.48
431.47	5788.14
431.66	5713.25
431.85	5755.38
432.03	5956.66
432.22	5921.56
432.41	5980.07
432.60	5823.25
432.79	5832.62
432.97	6076.03
433.16	5900.49
433.35	5923.90
433.54	6120.50
433.72	6113.48
433.91	6155.61
434.10	6338.17
434.28	5970.71
434.47	6293.70
434.66	6239.87
434.85	6244.55
435.03	6345.19
435.22	6527.75
435.41	6654.14
435.59	6539.46
435.78	6668.19
435.97	6211.78
436.16	6511.37
436.34	6443.49
436.53	6392.00
436.72	6502.01
436.90	6382.64
437.09	6623.72
437.28	6455.20
437.46	6445.84
437.65	6511.37
437.84	6665.85
438.02	6647.12
438.21	6752.45
438.40	6672.87
438.58	6942.03
438.77	6974.80
438.96	6958.41
439.14	7089.48
439.33	7101.19
439.52	7084.80
439.70	7049.69
439.89	7258.00
440.08	7180.76
440.26	7190.13
440.45	7208.85
440.63	7435.88
440.82	7609.08
441.01	7417.16
441.19	7417.16
441.38	7515.46
441.57	7510.78
441.75	7721.43
441.94	7763.56
442.12	7840.79
442.31	7801.01
442.50	7845.48
442.68	7999.95
442.87	7791.64
443.05	8053.78
443.24	8170.81
443.43	7997.61
443.61	7962.50
443.80	8210.60
443.98	7805.69
444.17	7449.93
444.35	7709.72
444.54	8107.62
444.73	8156.77
444.91	8198.90
445.10	8383.80
445.28	8140.38
445.47	8039.74
445.65	8226.98
445.84	8119.32
446.02	8210.60
446.21	8133.36
446.39	8367.42
446.58	8226.98
446.77	8329.97
446.95	8084.21
447.14	8308.90
447.32	8400.18
447.51	8313.58
447.69	8250.39
447.88	8395.50
448.06	8231.66
448.25	8248.05
448.43	8552.32
448.62	8376.78
448.80	8386.14
448.99	8306.56
449.17	8674.03
449.36	8491.46
449.54	8718.50
449.73	8739.56
449.91	8807.44
450.10	8547.64
450.28	8802.75
450.46	8940.85
450.65	8786.37
450.83	8826.16
451.02	8917.44
451.20	8966.59
451.39	8751.26
451.57	8905.74
451.76	8922.12
451.94	9050.85
452.13	8968.93
452.31	8999.36
452.49	8936.17
452.68	9198.31
452.86	9139.79
453.05	9415.98
453.23	9177.24
453.42	9097.66
453.60	8966.59
453.78	9212.35
453.97	9116.39
454.15	9284.91
454.34	9390.23
454.52	9537.68
454.70	9430.02
454.89	9523.64
455.07	9453.42
455.26	9474.49
455.44	9687.48
455.62	9661.73
455.81	9713.22
455.99	9533.00
456.17	9558.75
456.36	9785.78
456.54	9856.00
456.73	9944.94
456.91	9942.60
457.09	10218.78
457.28	9989.41
457.46	9966.00
457.64	10008.13
457.83	10171.97
458.01	9973.02
458.19	10314.74
458.38	10239.84
458.56	10375.59
458.74	10335.81
458.93	10509.01
459.11	10504.32
459.29	10377.94
459.48	10525.39
459.66	10375.59
459.84	10583.90
460.03	10686.89
460.21	10883.49
460.39	10600.29
460.57	10792.21
460.76	10637.73
460.94	10733.70
461.12	11103.50
461.31	10731.36
461.49	10824.98
461.67	10892.85
461.85	10899.87
462.04	10848.38
462.22	11400.75
462.40	11150.31
462.59	11040.31
462.77	11164.36
462.95	11342.24
463.13	11218.19
463.32	11007.54
463.50	11363.30
463.68	11506.07
463.86	11475.65
464.05	11304.79
464.23	11260.32
464.41	11377.34
464.59	11353.94
464.78	11744.81
464.96	11543.52
465.14	11433.52
465.32	11330.53
465.50	11669.91
465.69	11740.13
465.87	11700.34
466.05	11613.74
466.23	11686.29
466.41	11810.34
466.60	11974.18
466.78	11796.30
466.96	11793.96
467.14	11775.24
467.32	11932.05
467.51	12042.06
467.69	11693.32
467.87	12098.23
468.05	12210.57
468.23	11868.86
468.41	11941.41
468.60	11950.78
468.78	12208.23
468.96	12072.48
469.14	12318.24
469.32	12493.78
469.50	12191.85
469.69	12449.31
469.87	12334.62
470.05	12662.30
470.23	12423.56
470.41	12549.95
470.59	12428.24
470.77	12575.70
470.95	12622.51
471.14	12973.59
471.32	12891.67
471.50	12812.09
471.68	12854.22
471.86	12858.90
472.04	13170.19
472.22	13518.93
472.40	13224.03
472.58	13107.00
472.77	13586.81
472.95	13188.92
473.13	13792.78
473.31	13514.25
473.49	13701.50
473.67	13458.08
473.85	13731.92
474.03	13958.96
474.21	14164.92
474.39	13914.48
474.57	14059.60
474.75	14363.87
474.93	14513.66
475.12	14209.39
475.30	14429.40
475.48	14174.28
475.66	14457.49
475.84	14422.38
476.02	14775.80
476.20	14501.96
476.38	14970.07
476.56	15302.42
476.74	15110.50
476.92	15061.35
477.10	15056.67
477.28	15594.99
477.46	15379.66
477.64	15447.54
477.82	15925.00
478.00	15971.82
478.18	15843.09
478.36	16065.44
478.54	16386.09
478.72	16266.72
478.90	16769.94
479.08	16926.75
479.26	16901.01
479.44	16945.48
479.62	17137.40
479.80	17160.81
479.98	17097.61
480.16	17944.89
480.34	17429.97
480.52	17912.12
480.70	17757.64
480.88	17640.62
481.06	17813.82
481.24	17930.84
481.41	18153.20
481.59	18122.77
481.77	18560.45
481.95	18553.43
482.13	18951.32
482.31	18878.76
482.49	19143.24
482.67	19061.32
482.85	19168.99
483.03	19548.15
483.21	19646.46
483.39	19868.81
483.57	19868.81
483.74	20058.39
483.92	20346.28
484.10	20428.20
484.28	20779.28
484.46	20957.16
484.64	21195.89
484.82	20620.12
485.00	21188.87
485.18	21462.71
485.35	21813.79
485.53	21855.92
485.71	21766.98
485.89	22115.72
486.07	21996.35
486.25	22162.53
486.43	22141.47
486.61	22604.89
486.78	22803.84
486.96	22939.59
487.14	23351.52
487.32	23054.28
487.50	23482.59
487.68	23576.22
487.85	24046.66
488.03	24430.51
488.21	24474.98
488.39	24617.75
488.57	24643.50
488.75	25135.01
488.92	24786.27
489.10	25336.30
489.28	25041.39
489.46	25853.56
489.64	25750.57
489.81	26153.15
489.99	25989.31
490.17	26462.10
490.35	26742.96
490.53	26962.97
490.70	27101.06
490.88	26424.65
491.06	27339.80
491.24	27239.15
491.41	27377.25
491.59	27613.64
491.77	28137.92
491.95	28060.68
492.13	27974.08
492.30	28210.48
492.48	28615.39
492.66	28264.31
492.84	28905.62
493.01	29266.06
493.19	29153.71
493.37	29266.06
493.54	29266.06
493.72	29647.57
493.90	29432.24
494.08	29816.08
494.25	30309.94
494.43	30251.42
494.61	30153.12
494.79	30803.79
494.96	30384.83
495.14	30466.75
495.32	31143.17
495.49	31168.91
495.67	31426.37
495.85	31751.71
496.02	31765.75
496.20	31845.33
496.38	32168.32
496.55	32081.72
496.73	32589.62
496.91	32624.73
497.09	32943.04
497.26	32538.13
497.44	33301.14
497.62	33022.62
497.79	33872.23
497.97	33577.33
498.14	34256.08
498.32	34246.72
498.50	34092.24
498.67	34611.84
498.85	34693.76
499.03	34569.71
499.20	34759.30
499.38	34841.21
499.56	34448.00
499.73	35129.10
499.91	34937.18
500.08	35742.32
500.26	35274.21
500.44	35512.95
500.61	36020.84
500.79	35524.65
500.97	35978.72
501.14	36570.87
501.32	36411.71
501.49	36077.02
501.67	36891.52
501.84	36453.84
502.02	36788.54
502.20	36854.08
502.37	37064.72
502.55	37055.36
502.72	37315.16
502.90	37504.74
503.07	37722.41
503.25	37151.32
503.43	37654.54
503.60	37752.84
503.78	37900.29
503.95	38068.81
504.13	37579.64
504.30	38171.80
504.48	37762.20
504.65	38607.14
504.83	38976.94
505.01	39243.76
505.18	38979.28
505.36	39208.65
505.53	38902.04
505.71	39234.40
505.88	39519.95
506.06	39473.13
506.23	39431.01
506.41	39332.70
506.58	39915.50
506.76	39622.93
506.93	40261.90
507.11	39557.39
507.28	40273.60
507.46	40573.19
507.63	40603.61
507.81	40954.69
507.98	39985.71
508.16	40421.05
508.33	41095.13
508.50	41163.00
508.68	41371.31
508.85	41221.52
509.03	41050.66
509.20	41392.37
509.38	41869.84
509.55	41773.88
509.73	41851.12
509.90	42089.85
510.08	42188.16
510.25	42223.26
510.42	42438.59
510.60	42405.83
510.77	42450.30
510.95	42712.44
511.12	43129.05
511.30	42902.02
511.47	43447.36
511.64	43096.28
511.82	43124.37
511.99	43569.07
512.17	43220.33
512.34	43622.90
512.51	44083.99
512.69	43789.08
512.86	43878.02
513.04	44208.04
513.21	44039.52
513.38	44238.47
513.56	44144.84
513.73	44114.42
513.90	44236.12
514.08	44456.14
514.25	44875.09
514.43	44999.14
514.60	44659.76
514.77	44877.43
514.95	45254.26
515.12	44847.00
515.29	44921.90
515.47	45722.37
515.64	45663.85
515.81	45530.44
515.99	45553.85
516.16	45656.83
516.33	45593.64
516.51	46302.82
516.68	46281.75
516.85	45921.31
517.03	46251.33
517.20	46461.97
517.37	46309.84
517.54	46726.46
517.72	45909.61
517.89	46426.87
518.06	47201.58
518.24	46768.58
518.41	46855.18
518.58	47037.75
518.75	46719.43
518.93	47243.71
519.10	46731.14
519.27	47171.16
519.45	47222.65
519.62	47473.09
519.79	47760.97
519.96	47636.92
520.14	47821.83
520.31	47482.45
520.48	47447.34
520.65	47562.03
520.83	47990.34
521.00	48156.52
521.17	48264.19
521.34	48381.21
521.52	48233.76
521.69	48538.03
521.86	48451.43
522.03	48664.42
522.20	49013.16
522.38	49057.63
522.55	49123.16
522.72	48928.90
522.89	48835.28
523.07	49460.20
523.24	48835.28
523.41	49542.12
523.58	49048.27
523.75	49904.90
523.92	49677.87
524.10	49741.06
524.27	50136.62
524.44	49897.88
524.61	49897.88
524.78	49830.01
524.96	49858.09
525.13	49921.29
525.30	49916.61
525.47	50588.34
525.64	49993.84
525.81	50373.01
525.98	50309.82
526.16	50277.05
526.33	50153.00
526.50	50600.04
526.67	50443.23
526.84	51093.89
527.01	50941.76
527.18	50876.22
527.36	51182.84
527.53	50698.34
527.70	50869.20
527.87	51344.33
528.04	51091.55
528.21	51302.20
528.38	51402.85
528.55	51716.48
528.72	51114.96
528.89	51742.22
529.07	51302.20
529.24	51016.66
529.41	51697.75
529.58	51821.80
529.75	51760.95
529.92	51728.18
530.09	51716.48
530.26	51770.31
530.43	51859.25
530.60	51550.30
530.77	51987.98
530.94	52507.58
531.11	52353.10
531.28	52299.27
531.46	52275.87
531.63	52315.65
531.80	52233.74
531.97	52217.35
532.14	52413.96
532.31	52481.83
532.48	52914.83
532.65	52715.89
532.82	52718.23
532.99	52711.20
533.16	52432.68
533.33	52746.31
533.50	52846.96
533.67	52729.93
533.84	52858.66
534.01	53008.45
534.18	52741.63
534.35	53432.09
534.52	53345.49
534.69	53305.70
534.86	53045.90
535.03	53198.04
535.20	53343.15
535.37	53542.10
535.54	53628.69
535.71	53457.84
535.88	53389.96
536.05	53731.68
536.22	53661.46
536.38	53567.84
536.55	53801.89
536.72	53801.89
536.89	53640.40
537.06	54049.99
537.23	54115.53
537.40	54054.67
537.57	53897.86
537.74	54026.59
537.91	53928.28
538.08	54089.78
538.25	54024.25
538.42	54272.34
538.59	54429.16
538.75	54183.40
538.92	54361.28
539.09	54375.33
539.26	54417.46
539.43	54405.75
539.60	54468.95
539.77	54344.90
539.94	54841.09
540.11	54546.18
540.28	54721.72
540.44	54630.44
540.61	54543.84
540.78	54827.05
540.95	54829.39
541.12	54492.35
541.29	54726.41
541.46	54951.10
541.62	55157.06
541.79	55035.36
541.96	54695.98
542.13	55037.70
542.30	54873.86
542.47	55124.30
542.63	55196.85
542.80	55253.03
542.97	55646.24
543.14	55817.10
543.31	55571.34
543.48	55686.03
543.64	55618.15
543.81	55784.33
543.98	55793.69
544.15	55676.66
544.32	55576.02
544.48	55999.66
544.65	55669.64
544.82	56156.47
544.99	55746.88
545.16	56006.68
545.32	55744.54
545.49	56144.77
545.66	56444.36
545.83	56175.20
546.00	56512.23
546.16	56495.85
546.33	56191.58
546.50	56011.36
546.67	56285.20
546.83	55657.94
547.00	56168.18
547.17	56030.08
547.34	56032.42
547.50	56519.26
547.67	56757.99
547.84	56563.73
548.00	56891.40
548.17	56699.48
548.34	56336.69
548.51	56486.49
548.67	56610.54
548.84	56460.74
549.01	56409.25
549.18	56617.56
549.34	56767.35
549.51	56580.11
549.68	56753.31
549.84	56825.87
550.01	56676.07
550.18	56636.28
550.34	56872.68
550.51	56753.31
550.68	56793.10
550.84	56678.41
551.01	56994.39
551.18	56954.60
551.34	56676.07
551.51	56750.97
551.68	57041.20
551.84	56837.57
552.01	57027.15
552.18	56748.63
552.34	56900.76
552.51	57190.99
552.68	57200.35
552.84	57401.64
553.01	57249.50
553.18	57193.33
553.34	57347.81
553.51	57130.14
553.67	57120.77
553.84	57403.98
554.01	57673.14
554.17	57680.16
554.34	57609.95
554.51	57485.90
554.67	57497.60
554.84	57326.74
555.00	57165.24
555.17	57373.55
555.33	57427.38
555.50	57418.02
555.67	57621.65
555.83	57425.04
556.00	57563.14
556.16	58007.84
556.33	57565.48
556.50	57518.67
556.66	57799.53
556.83	57701.23
556.99	57733.99
557.16	57890.81
557.32	57799.53
557.49	58155.29
557.65	57881.45
557.82	57897.83
557.98	57982.09
558.15	57729.31
558.32	58056.99
558.48	57605.26
558.65	58049.97
558.81	58134.23
558.98	58099.12
559.14	57944.64
559.31	57895.49
559.47	58068.69
559.64	58085.07
559.80	57979.75
559.97	58026.56
560.13	58024.22
560.30	58080.39
560.46	58171.67
560.63	58330.83
560.79	58492.33
560.96	58260.62
561.12	58248.91
561.29	58302.74
561.45	58354.24
561.61	58241.89
561.78	58202.10
561.94	58372.96
562.11	58616.38
562.27	58363.60
562.44	58319.13
562.60	58344.87
562.77	58017.20
562.93	58440.84
563.10	58461.90
563.26	58141.25
563.42	58478.28
563.59	58394.03
563.75	58316.79
563.92	58560.20
564.08	58550.84
564.24	58553.18
564.41	58585.95
564.57	58592.97
564.74	58665.53
564.90	58581.27
565.07	58595.31
565.23	58686.59
565.39	58583.61
565.56	58857.45
565.72	58698.30
565.88	58560.20
566.05	58478.28
566.21	58553.18
566.38	58637.44
566.54	58438.50
566.70	58646.80
566.87	58934.69
567.03	58824.68
567.19	59121.93
567.36	59054.06
567.52	58965.12
567.68	58653.82
567.85	58831.71
568.01	58925.33
568.17	58958.09
568.34	58960.44
568.50	58728.72
568.66	58866.81
568.83	59070.44
568.99	58770.85
569.15	58798.94
569.32	59002.56
569.48	58937.03
569.64	58864.47
569.81	58707.66
569.97	58873.84
570.13	59014.27
570.30	58869.15
570.46	58820.00
570.62	58981.50
570.78	59121.93
570.95	58946.39
571.11	58922.99
571.27	58908.94
571.43	58855.11
571.60	58955.75
571.76	58939.37
571.92	59072.78
572.09	59164.06
572.25	59168.74
572.41	59199.17
572.57	59271.73
572.74	59269.39
572.90	59079.80
573.06	59138.32
573.22	58827.02
573.38	59175.76
573.55	59175.76
573.71	59159.38
573.87	59203.85
574.03	59145.34
574.20	59260.02
574.36	59199.17
574.52	59227.26
574.68	59112.57
574.84	59114.91
575.01	59171.08
575.17	59241.30
575.33	59171.08
575.49	59187.47
575.65	59325.56
575.82	59269.39
575.98	59117.25
576.14	59515.14
576.30	59260.02
576.46	59215.55
576.62	59173.42
576.79	59131.29
576.95	59161.72
577.11	59330.24
577.27	59421.52
577.43	59194.49
577.59	59297.47
577.75	59391.09
577.92	59082.14
578.08	59267.05
578.24	59334.92
578.40	59351.30
578.56	59414.50
578.72	59400.46
578.88	59590.04
579.04	59760.90
579.21	59341.94
579.37	59594.72
579.53	59412.16
579.69	59201.51
579.85	59363.01
580.01	59114.91
580.17	59461.31
580.33	59494.08
580.49	59402.80
580.65	59489.40
580.82	59437.90
580.98	59468.33
581.14	59480.03
581.30	59716.43
581.46	59456.63
581.62	59250.66
581.78	59196.83
581.94	59461.31
582.10	59409.82
582.26	59573.66
582.42	59613.44
582.58	59409.82
582.74	59576.00
582.90	59248.32
583.06	59526.84
583.22	59428.54
583.38	59355.99
583.54	59393.43
583.70	59529.19
583.86	59632.17
584.02	59643.87
584.18	59728.13
584.34	59571.32
584.50	59810.05
584.66	59604.08
584.82	59458.97
584.98	59363.01
585.14	59494.08
585.30	59550.25
585.46	59517.48
585.62	59477.69
585.78	59662.60
585.94	59494.08
586.10	59578.34
586.26	59597.06
586.42	59767.92
586.58	59739.83
586.74	59517.48
586.90	59323.22
587.06	59594.72
587.22	60001.97
587.38	59634.51
587.54	59920.05
587.70	60001.97
587.86	59650.89
588.02	59781.96
588.18	60037.08
588.34	59746.86
588.49	59781.96
588.65	59718.77
588.81	59732.81
588.97	59796.01
589.13	59770.26
589.29	59784.30
589.45	59952.82
589.61	59976.23
589.77	59990.27
589.93	59788.98
590.08	60128.36
590.24	60013.68
590.40	60100.28
590.56	60102.62
590.72	59788.98
590.88	59671.96
591.04	59711.75
591.20	60133.04
591.35	60011.34
591.51	60259.43
591.67	59962.18
591.83	60336.67
591.99	59854.52
592.15	59931.76
592.31	59936.44
592.46	59678.98
592.62	59700.04
592.78	60025.38
592.94	59882.61
593.10	59908.35
593.26	60147.09
593.41	60205.60
593.57	60308.58
593.73	60037.08
593.89	60226.66
594.05	59824.09
594.20	60121.34
594.36	60130.70
594.52	59814.73
594.68	59917.71
594.84	59873.24
594.99	60198.58
595.15	60076.87
595.31	60369.44
595.47	60273.48
595.62	60287.52
595.78	60104.96
595.94	60025.38
596.10	60048.78
596.25	60023.04
596.41	59990.27
596.57	60027.72
596.73	59901.33
596.88	60123.68
597.04	60385.82
597.20	60116.66
597.36	60331.99
597.51	60245.39
597.67	60041.76
597.83	60086.23
597.99	60250.07
598.14	60275.82
598.30	60163.47
598.46	60100.28
598.61	60444.33
598.77	60149.43
598.93	60243.05
599.09	60123.68
599.24	60336.67
599.40	60205.60
599.56	60137.72
599.71	60198.58
599.87	60360.08
600.03	60303.90
600.18	60252.41
600.34	60109.64
600.50	60331.99
600.65	60301.56
600.81	60577.75
600.97	60420.93
601.12	60350.71
601.28	60310.92
601.44	60111.98
601.59	60135.38
601.75	60168.15
601.91	60289.86
602.06	60060.49
602.22	60060.49
602.37	60247.73
602.53	60186.88
602.69	60427.95
602.84	60383.48
603.00	60416.25
603.16	60371.78
603.31	60275.82
603.47	60268.79
603.62	60126.02
603.78	60315.61
603.94	60434.97
604.09	60339.01
604.25	60210.28
604.40	60081.55
604.56	60149.43
604.71	60135.38
604.87	60334.33
605.03	60383.48
605.18	60097.94
605.34	60072.19
605.49	60109.64
605.65	60116.66
605.80	60247.73
605.96	60439.65
606.12	60247.73
606.27	60381.14
606.43	60324.97
606.58	60608.17
606.74	60458.38
606.89	60481.78
607.05	60383.48
607.20	60182.19
607.36	60004.31
607.51	60177.51
607.67	60240.71
607.82	60264.11
607.98	60224.32
608.13	60289.86
608.29	60341.35
608.44	60018.36
608.60	60147.09
608.75	60186.88
608.91	60233.69
609.06	60079.21
609.22	60411.57
609.37	60074.53
609.53	60282.84
609.68	60362.42
609.84	60259.43
609.99	60205.60
610.15	60247.73
610.30	60460.72
610.46	60060.49
610.61	60236.03
610.76	60505.19
610.92	60395.18
611.07	60549.66
611.23	60339.01
611.38	60554.34
611.54	60339.01
611.69	60507.53
611.84	60449.02
612.00	60266.45
612.15	60257.09
612.31	60261.77
612.46	60076.87
612.62	60315.61
612.77	60081.55
612.92	60238.37
613.08	60023.04
613.23	60086.23
613.39	60048.78
613.54	59817.07
613.69	60196.24
613.85	60217.30
614.00	60331.99
614.15	60322.63
614.31	60257.09
614.46	60175.17
614.62	59894.31
614.77	59894.31
614.92	59978.57
615.08	59817.07
615.23	59875.58
615.38	59796.01
615.54	59578.34
615.69	59786.64
615.84	59938.78
616.00	60074.53
616.15	60053.47
616.30	60083.89
616.46	59805.37
616.61	59985.59
616.76	59955.16
616.92	59405.14
617.07	59636.85
617.22	59807.71
617.37	59583.02
617.53	59498.76
617.68	59564.29
617.83	59683.66
617.99	59931.76
618.14	60034.74
618.29	59873.24
618.45	59725.79
618.60	59901.33
618.75	59517.48
618.90	59639.19
619.06	59505.78
619.21	59316.20
619.36	59545.57
619.51	59543.23
619.67	59421.52
619.82	59473.01
619.97	59803.03
620.12	59484.72
620.28	59554.93
620.43	59627.49
620.58	59793.67
620.73	59536.21
620.89	59365.35
621.04	59526.84
621.19	59597.06
621.34	59337.26
621.49	59203.85
621.65	59185.13
621.80	59627.49
621.95	59318.54
622.10	59334.92
622.25	59627.49
622.41	59360.67
622.56	59435.56
622.71	59360.67
622.86	59187.47
623.01	59377.05
623.16	59171.08
623.32	59304.49
623.47	59281.09
623.62	59515.14
623.77	59409.82
623.92	59288.11
624.07	59002.56
624.23	59433.22
624.38	59491.74
624.53	59203.85
624.68	59236.62
624.83	59501.10
624.98	59082.14
625.13	59084.48
625.29	58990.86
625.44	59075.12
625.59	58831.71
625.74	58932.35
625.89	58869.15
626.04	59047.04
626.19	59040.01
626.34	59000.22
626.49	59215.55
626.65	59161.72
626.80	59032.99
626.95	58663.19
627.10	58728.72
627.25	58871.49
627.40	58602.33
627.55	58698.30
627.70	58752.13
627.85	58993.20
628.00	58625.74
628.15	58953.41
628.30	58768.51
628.45	58801.28
628.60	58747.45
628.76	58677.23
628.91	58894.90
629.06	58679.57
629.21	58548.50
629.36	58508.71
629.51	58688.93
629.66	58766.17
629.81	58522.76
629.96	58653.82
630.11	58609.35
630.26	58805.96
630.41	58773.19
630.56	58562.54
630.71	58457.22
630.86	58686.59
631.01	58658.51
631.16	58658.51
631.31	58569.57
631.46	58234.87
631.61	58307.43
631.76	58286.36
631.91	58494.67
632.06	58494.67
632.21	58450.20
632.36	58461.90
632.51	58370.62
632.66	58553.18
632.81	58232.53
632.96	58522.76
633.10	58185.72
633.25	58293.38
633.40	58244.23
633.55	58269.98
633.70	57958.69
633.85	58122.52
634.00	58108.48
634.15	58293.38
634.30	58155.29
634.45	58258.27
634.60	58255.93
634.75	58415.09
634.90	58054.65
635.05	57932.94
635.19	58010.18
635.34	58281.68
635.49	58103.80
635.64	58159.97
635.79	57939.96
635.94	57984.43
636.09	57991.45
636.24	57921.24
636.39	58073.37
636.53	58199.76
636.68	58033.58
636.83	57822.93
636.98	58206.78
637.13	57712.93
637.28	57710.59
637.43	57773.78
637.57	57801.87
637.72	57436.75
637.87	57783.15
638.02	58028.90
638.17	57738.68
638.32	57776.12
638.46	57530.37
638.61	57918.90
638.76	57822.93
638.91	57986.77
639.06	57886.13
639.20	57783.15
639.35	58054.65
639.50	57698.89
639.65	57703.57
639.80	57598.24
639.94	57668.46
640.09	57710.59
640.24	57467.17
640.39	57659.10
640.54	57584.20
640.68	57448.45
640.83	57359.51
640.98	57310.36
641.13	57418.02
641.27	57296.31
641.42	57118.43
641.57	57301.00
641.72	57233.12
641.86	57132.48
642.01	57104.39
642.16	57308.02
642.31	57209.71
642.45	57401.64
642.60	57010.77
642.75	57382.91
642.90	57439.09
643.04	57167.58
643.19	57258.87
643.34	57551.43
643.48	57408.66
643.63	57329.08
643.78	57181.63
643.93	57221.42
644.07	56940.55
644.22	57331.42
644.37	56940.55
644.51	56985.02
644.66	57181.63
644.81	57380.57
644.95	57029.49
645.10	57240.14
645.25	57336.10
645.39	57284.61
645.54	57179.29
645.69	56889.06
645.83	57013.11
645.98	56748.63
646.13	57073.96
646.27	56804.80
646.42	56610.54
646.57	56795.44
646.71	57041.20
646.86	56956.94
647.00	57148.86
647.15	57172.27
647.30	56952.26
647.44	57052.90
647.59	57090.35
647.74	56757.99
647.88	56804.80
648.03	56772.03
648.17	56685.43
648.32	56556.70
648.47	56399.89
648.61	56233.71
648.76	56570.75
648.90	56605.86
649.05	56502.87
649.20	56711.18
649.34	56655.01
649.49	56774.37
649.63	56999.07
649.78	56699.48
649.92	56348.40
650.07	56889.06
650.21	56041.79
650.36	56465.42
650.51	56133.07
650.65	56427.98
650.80	56282.86
650.94	56104.98
651.09	56360.10
651.23	56404.57
651.38	56214.99
651.52	56533.30
651.67	56481.81
651.81	56308.61
651.96	56427.98
652.10	56156.47
652.25	56320.31
652.39	56346.06
652.54	56133.07
652.68	56236.05
652.83	56336.69
652.97	56149.45
653.12	56339.04
653.26	56332.01
653.41	56488.83
653.55	56154.13
653.70	56039.45
653.84	56360.10
653.99	55828.80
654.13	55753.90
654.27	56109.66
654.42	56292.22
654.56	55908.38
654.71	55833.48
654.85	56128.39
655.00	56060.51
655.14	55723.47
655.29	55770.28
655.43	55580.70
655.57	55688.37
655.72	55756.24
655.86	56072.21
656.01	55627.51
656.15	55756.24
656.30	55913.06
656.44	55707.09
656.58	55877.95
656.73	55819.44
656.87	55519.85
657.01	55709.43
657.16	55421.55
657.30	55887.31
657.45	55650.92
657.59	55264.73
657.73	55377.08
657.88	55110.25
658.02	55547.93
658.16	55604.11
658.31	55402.82
658.45	55643.90
658.60	55739.86
658.74	55522.19
658.88	55334.95
659.03	55103.23
659.17	55051.74
659.31	55133.66
659.46	54962.80
659.60	54915.99
659.74	55189.83
659.89	55150.04
660.03	54866.84
660.17	55313.88
660.32	55246.00
660.46	55016.63
660.60	54927.69
660.74	55152.38
660.89	54841.09
661.03	54543.84
661.17	54625.76
661.32	54490.01
661.46	54614.06
661.60	54560.23
661.74	54513.42
661.89	54506.40
662.03	54609.38
662.17	54181.06
662.31	54485.33
662.46	54520.44
662.60	54440.86
662.74	54380.01
662.88	54209.15
663.03	54372.99
663.17	54490.01
663.31	54120.21
663.45	54412.77
663.60	54253.62
663.74	53956.37
663.88	54155.32
664.02	54167.02
664.17	54028.93
664.31	54005.52
664.45	53682.53
664.59	54073.40
664.73	54143.61
664.88	54014.88
665.02	53612.31
665.16	53642.74
665.30	54014.88
665.44	54122.55
665.59	53258.89
665.73	53757.42
665.87	53717.64
666.01	53242.51
666.15	53429.75
666.29	53464.86
666.44	53396.98
666.58	53104.41
666.72	53048.24
666.86	53511.67
667.00	53024.84
667.14	53078.67
667.28	53219.10
667.43	53183.99
667.57	53368.90
667.71	53368.90
667.85	53305.70
667.99	53179.31
668.13	52877.38
668.27	52683.12
668.41	52666.73
668.56	52591.84
668.70	52629.29
668.84	52530.98
668.98	52172.88
669.12	52268.84
669.26	52690.14
669.40	52285.23
669.54	52538.01
669.68	52229.05
669.82	52423.32
669.96	52509.92
670.10	52435.02
670.25	52495.88
670.39	51941.17
670.53	51800.74
670.67	51826.48
670.81	52023.09
670.95	51587.75
671.09	51774.99
671.23	51863.93
671.37	51838.18
671.51	51821.80
671.65	51683.71
671.79	51646.26
671.93	51494.13
672.07	51608.81
672.21	51566.68
672.35	51349.01
672.49	51517.53
672.63	51159.43
672.77	51341.99
672.91	50976.87
673.05	50784.94
673.19	50295.77
673.33	50691.32
673.47	50232.58
673.61	50899.63
673.75	50354.29
673.89	50445.57
674.03	50326.20
674.17	50387.05
674.31	50440.89
674.45	50705.37
674.59	50703.03
674.73	50412.80
674.87	49902.56
675.01	50082.78
675.15	49895.54
675.29	49989.16
675.43	49673.19
675.56	49577.23
675.70	49385.30
675.84	49375.94
675.98	48292.27
676.12	49368.92
676.26	49368.92
676.40	48854.00
676.54	48940.60
676.68	49148.91
676.82	48406.96
676.96	48868.05
677.10	48554.41
677.23	47929.49
677.37	48694.85
677.51	48322.70
677.65	48622.29
677.79	47728.20
677.93	47487.13
678.07	47342.02
678.21	46494.74
678.34	47051.79
678.48	46976.89
678.62	46777.95
678.76	47185.20
678.90	46941.78
679.04	47234.35
679.18	47599.47
679.31	46969.87
679.45	46958.17
679.59	46679.64
679.73	46532.19
679.87	46344.95
680.00	46171.75
680.14	45872.16
680.28	46138.98
680.42	45385.33
680.56	46124.94
680.70	45270.64
680.83	45275.32
680.97	45429.80
681.11	45469.59
681.25	45205.11
681.39	45338.52
681.52	45546.82
681.66	44935.95
681.80	45001.48
681.94	44589.55
682.07	44641.04
682.21	44669.12
682.35	44547.42
682.49	44903.18
682.62	44247.83
682.76	44135.48
682.90	43798.44
683.04	44004.41
683.17	43487.15
683.31	43335.02
683.45	44062.93
683.59	42944.15
683.72	43115.01
683.86	42873.93
684.00	43086.92
684.13	42733.50
684.27	42808.40
684.41	42618.81
684.55	42752.23
684.68	42909.04
684.82	42773.29
684.96	42391.78
685.09	42096.88
685.23	41528.13
685.37	41771.54
685.50	41811.33
685.64	41486.00
685.78	41467.27
685.91	41282.37
686.05	41624.09
686.19	40921.93
686.32	41010.87
686.46	41191.09
686.60	41195.77
686.73	40996.82
686.87	40584.89
687.01	40577.87
687.14	40587.23
687.28	40219.77
687.42	40526.38
687.55	40025.50
687.69	39908.47
687.82	39562.08
687.96	39831.24
688.10	39667.40
688.23	39821.87
688.37	39477.82
688.50	38614.16
688.64	38651.61
688.78	39014.39
688.91	38445.64
689.05	39028.43
689.18	39033.11
689.32	38251.38
689.46	38515.86
689.59	38251.38
689.73	38490.11
689.86	37411.12
690.00	37298.78
690.13	37642.84
690.27	37205.16
690.41	37511.77
690.54	37071.75
690.68	37455.59
690.81	37221.54
690.95	37006.21
691.08	36966.42
691.22	36671.51
691.35	36512.36
691.49	36587.25
691.62	36037.23
691.76	35899.14
691.89	35929.56
692.03	35803.17
692.16	35938.93
692.30	35849.99
692.43	35187.61
692.57	35419.33
692.70	35000.37
692.84	35192.30
692.97	34602.48
693.11	34899.73
693.24	34878.66
693.38	34579.07
693.51	34738.23
693.65	34939.52
693.78	34445.66
693.92	34513.54
694.05	33853.51
694.19	33928.41
694.32	34017.35
694.45	34298.21
694.59	33720.10
694.72	33542.22
694.86	33172.41
694.99	32531.11
695.13	32219.81
695.26	32725.37
695.39	32280.67
695.53	32638.77
695.66	32727.71
695.80	32563.87
695.93	32257.26
696.07	32287.69
696.20	32222.16
696.33	32107.47
696.47	32041.93
696.60	31662.77
696.73	31938.95
696.87	31349.14
697.00	31236.79
697.14	31264.88
697.27	31079.97
697.40	30972.31
697.54	30904.43
697.67	30080.56
697.80	30218.66
697.94	30050.14
698.07	30078.22
698.21	30115.67
698.34	30323.98
698.47	30153.12
698.61	29853.53
698.74	29392.45
698.87	29699.06
699.01	29687.36
699.14	29645.23
699.27	29237.97
699.40	29792.68
699.54	29429.90
699.67	28872.85
699.80	28781.57
699.94	28844.76
700.07	28343.89
700.20	28048.98
700.34	28252.61
700.47	27894.50
700.60	28154.30
700.73	28144.94
700.87	27915.57
701.00	27632.36
701.13	27379.59
701.26	27395.97
701.40	27477.89
701.53	27051.91
701.66	27402.99
701.79	27318.73
701.93	26969.99
702.06	26759.34
702.19	26670.40
702.32	26574.44
702.46	26698.49
702.59	26026.76
702.72	26249.11
702.85	25687.38
702.99	25731.85
703.12	25137.35
703.25	25675.68
703.38	25614.82
703.51	25869.94
703.65	25589.08
703.78	25397.15
703.91	25240.34
704.04	25453.33
704.17	24870.53
704.31	24725.42
704.44	24702.01
704.57	25135.01
704.70	24379.02
704.83	24339.23
704.96	24313.48
705.10	24500.73
705.23	24159.01
>>>>>End Processed Spectral Data<<<<<
