SpectraSuite Data File
++++++++++++++++++++++++++++++++++++
Date: Thu Oct 24 13:21:25 EDT 2013
User: stostad
Dark Spectrum Present: No
Reference Spectrum Present: No
Number of Sampled Component Spectra: 1
Spectrometers: USB2+H05261
Integration Time (usec): 100000 (USB2+H05261)
Spectra Averaged: 1 (USB2+H05261)
Boxcar Smoothing: 0 (USB2+H05261)
Correct for Electrical Dark: No (USB2+H05261)
Strobe/Lamp Enabled: No (USB2+H05261)
Correct for Detector Non-linearity: No (USB2+H05261)
Correct for Stray Light: No (USB2+H05261)
Number of Pixels in Processed Spectrum: 2048
>>>>>Begin Processed Spectral Data<<<<<
365.73	528.96
365.92	528.96
366.12	528.96
366.32	491.51
366.52	456.40
366.72	512.58
366.91	449.38
367.11	470.45
367.31	461.09
367.51	454.06
367.70	510.24
367.90	468.11
368.10	423.64
368.30	444.70
368.49	468.11
368.69	468.11
368.89	503.22
369.09	479.81
369.28	507.90
369.48	491.51
369.68	486.83
369.87	540.66
370.07	550.03
370.27	624.92
370.47	643.65
370.66	940.90
370.86	1032.18
371.06	999.41
371.25	1013.45
371.45	926.85
371.65	971.32
371.84	968.98
372.04	971.32
372.24	943.24
372.44	910.47
372.63	1032.18
372.83	1020.47
373.03	1090.69
373.22	1057.92
373.42	1013.45
373.62	990.05
373.81	1057.92
374.01	1050.90
374.21	1121.12
374.40	1053.24
374.60	1083.67
374.79	1172.61
374.99	1139.84
375.19	1083.67
375.38	1163.25
375.58	1158.57
375.78	1165.59
375.97	1116.44
376.17	1151.54
376.37	1167.93
376.56	1212.40
376.76	1188.99
376.95	1203.04
377.15	1284.95
377.35	1203.04
377.54	1167.93
377.74	1224.10
377.93	1170.27
378.13	1196.01
378.33	1249.85
378.52	1196.01
378.72	1191.33
378.91	1184.31
379.11	1235.80
379.31	1226.44
379.50	1203.04
379.70	1331.76
379.89	1277.93
380.09	1228.78
380.28	1369.21
380.48	1322.40
380.68	1263.89
380.87	1359.85
381.07	1275.59
381.26	1291.98
381.46	1373.89
381.65	1397.30
381.85	1324.74
382.04	1362.19
382.24	1280.27
382.43	1331.76
382.63	1348.15
382.83	1378.58
383.02	1308.36
383.22	1371.55
383.41	1399.64
383.61	1352.83
383.80	1385.60
384.00	1313.04
384.19	1437.09
384.39	1425.39
384.58	1336.45
384.78	1380.92
384.97	1490.92
385.17	1526.03
385.36	1416.02
385.56	1444.11
385.75	1535.39
385.95	1507.30
386.14	1453.47
386.34	1432.41
386.53	1467.52
386.72	1467.52
386.92	1526.03
387.11	1490.92
387.31	1572.84
387.50	1467.52
387.70	1462.83
387.89	1537.73
388.09	1507.30
388.28	1570.50
388.48	1607.95
388.67	1565.82
388.86	1533.05
389.06	1577.52
389.25	1633.69
389.45	1568.16
389.64	1640.72
389.84	1600.93
390.03	1701.57
390.22	1687.53
390.42	1678.16
390.61	1624.33
390.81	1647.74
391.00	1666.46
391.19	1666.46
391.39	1664.12
391.58	1659.44
391.78	1717.95
391.97	1750.72
392.16	1781.15
392.36	1886.47
392.55	1753.06
392.75	1816.26
392.94	1776.47
393.13	1792.85
393.33	1715.61
393.52	1795.19
393.71	1827.96
393.91	1905.20
394.10	1834.98
394.29	1739.02
394.49	1842.00
394.68	1879.45
394.88	1778.81
395.07	1998.82
395.26	1926.26
395.46	1895.83
395.65	1937.96
395.84	1935.62
396.04	2031.58
396.23	2052.65
396.42	1898.17
396.62	1989.46
396.81	2045.63
397.00	2008.18
397.19	1912.22
397.39	1907.54
397.58	2106.48
397.77	1994.14
397.97	2209.47
398.16	2050.31
398.35	2122.87
398.55	2190.74
398.74	2197.76
398.93	2218.83
399.12	2286.70
399.32	2153.29
399.51	2197.76
399.70	2211.81
399.90	2155.63
400.09	2256.28
400.28	2214.15
400.47	2230.53
400.67	2450.54
400.86	2387.35
401.05	2267.98
401.24	2211.81
401.44	2291.38
401.63	2305.43
401.82	2424.80
402.01	2373.30
402.21	2319.47
402.40	2462.24
402.59	2422.45
402.78	2434.16
402.97	2438.84
403.17	2513.74
403.36	2553.52
403.55	2513.74
403.74	2614.38
403.93	2581.61
404.13	2574.59
404.32	2616.72
404.51	2541.82
404.70	2586.29
404.89	2567.57
405.09	2644.81
405.28	2736.09
405.47	2658.85
405.66	2710.34
405.85	2775.88
406.05	2689.28
406.24	2689.28
406.43	2736.09
406.62	2726.72
406.81	2895.24
407.00	2827.37
407.20	2726.72
407.39	2841.41
407.58	2885.88
407.77	2988.86
407.96	2988.86
408.15	2855.45
408.34	2932.69
408.54	2998.23
408.73	2974.82
408.92	2935.03
409.11	3019.29
409.30	3176.11
409.49	3047.38
409.68	3089.51
409.87	3136.32
410.07	3197.17
410.26	3145.68
410.45	3157.38
410.64	3255.69
410.83	3164.40
411.02	3274.41
411.21	3361.01
411.40	3330.58
411.59	3316.54
411.78	3281.43
411.98	3400.80
412.17	3314.20
412.36	3405.48
412.55	3442.93
412.74	3452.29
412.93	3550.59
413.12	3468.67
413.31	3829.12
413.50	3581.02
413.69	3555.27
413.88	3772.94
414.07	3819.75
414.26	3712.09
414.45	3852.52
414.64	3782.31
414.83	3880.61
415.02	3971.89
415.22	3861.88
415.41	4023.38
415.60	4002.32
415.79	3941.46
415.98	4032.74
416.17	4058.49
416.36	4053.81
416.55	4119.34
416.74	4102.96
416.93	4147.43
417.12	4084.23
417.31	4219.99
417.50	4322.97
417.69	4346.37
417.88	4285.52
418.07	4390.84
418.26	4095.94
418.45	4477.44
418.64	4599.15
418.83	4372.12
419.02	4491.49
419.21	4514.89
419.39	4802.78
419.58	4610.86
419.77	4550.00
419.96	4587.45
420.15	4603.83
420.34	4627.24
420.53	4692.77
420.72	4613.20
420.91	4758.31
421.10	4585.11
421.29	4784.06
421.48	4685.75
421.67	4615.54
421.86	4812.14
422.05	4903.42
422.24	4741.93
422.43	4774.69
422.61	4828.53
422.80	4898.74
422.99	4889.38
423.18	4849.59
423.37	5116.41
423.56	5067.26
423.75	4863.63
423.94	4894.06
424.13	4704.48
424.32	4842.57
424.50	4922.15
424.69	5114.07
424.88	4959.60
425.07	5067.26
425.26	4844.91
425.45	4931.51
425.64	4924.49
425.83	4924.49
426.01	4915.12
426.20	5015.77
426.39	4987.68
426.58	5018.11
426.77	5114.07
426.96	5167.90
427.15	5144.50
427.33	5174.92
427.52	5121.09
427.71	5240.46
427.90	5301.31
428.09	5359.83
428.28	5268.55
428.46	5242.80
428.65	5320.04
428.84	5380.89
429.03	5423.02
429.22	5224.08
429.40	5451.11
429.59	5432.38
429.78	5387.91
429.97	5142.16
430.16	5416.00
430.34	5544.73
430.53	5600.90
430.72	5628.99
430.91	5643.03
431.10	5572.82
431.28	5605.58
431.47	5760.06
431.66	5671.12
431.85	5834.96
432.03	5830.27
432.22	5930.92
432.41	5809.21
432.60	5830.27
432.79	5774.10
432.97	6003.47
433.16	5949.64
433.35	5893.47
433.54	5921.56
433.72	6136.88
433.91	5937.94
434.10	6083.05
434.28	6036.24
434.47	6146.25
434.66	5966.03
434.85	6083.05
435.03	6326.47
435.22	6326.47
435.41	6576.91
435.59	6509.03
435.78	6441.15
435.97	6700.95
436.16	6382.64
436.34	6115.82
436.53	6366.26
436.72	6415.41
436.90	6256.25
437.09	6499.67
437.28	6228.17
437.46	6427.11
437.65	6480.94
437.84	6630.74
438.02	6609.67
438.21	6715.00
438.40	6408.39
438.58	6750.10
438.77	6944.37
438.96	6883.52
439.14	7016.93
439.33	6988.84
439.52	6890.54
439.70	6913.94
439.89	6981.82
440.08	7133.95
440.26	7063.74
440.45	7115.23
440.63	7152.68
440.82	7281.41
441.01	7375.03
441.19	7382.05
441.38	7428.86
441.57	7379.71
441.75	7522.48
441.94	7716.75
442.12	7691.00
442.31	7836.11
442.50	7775.26
442.68	7648.87
442.87	7754.19
443.05	7896.97
443.24	7976.55
443.43	7925.05
443.61	7946.12
443.80	7988.25
443.98	7784.62
444.17	7566.95
444.35	7831.43
444.54	8133.36
444.73	7976.55
444.91	7969.52
445.10	8189.53
445.28	8180.17
445.47	8030.38
445.65	8107.62
445.84	8163.79
446.02	8112.30
446.21	8049.10
446.39	8095.91
446.58	8135.70
446.77	8088.89
446.95	7913.35
447.14	8187.19
447.32	8266.77
447.51	8128.68
447.69	8002.29
447.88	8203.58
448.06	8093.57
448.25	8147.40
448.43	8425.93
448.62	8241.03
448.80	8315.92
448.99	8608.49
449.17	8489.12
449.36	8442.31
449.54	8468.06
449.73	8507.85
449.91	8568.70
450.10	8678.71
450.28	8727.86
450.46	8603.81
450.65	8648.28
450.83	8704.45
451.02	8678.71
451.20	8762.97
451.39	8800.41
451.57	8982.98
451.76	8772.33
451.94	8784.03
452.13	8936.17
452.31	8973.61
452.49	8903.40
452.68	9158.52
452.86	8971.27
453.05	9018.08
453.23	9179.58
453.42	9050.85
453.60	9029.79
453.78	9273.20
453.97	9074.26
454.15	9029.79
454.34	9034.47
454.52	9453.42
454.70	9341.08
454.89	9277.88
455.07	9310.65
455.26	9305.97
455.44	9586.83
455.62	9561.09
455.81	9469.81
455.99	9558.75
456.17	9488.53
456.36	9776.42
456.54	9549.39
456.73	9907.49
456.91	10019.83
457.09	9724.93
457.28	10017.49
457.46	9933.23
457.64	10129.84
457.83	9975.36
458.01	10015.15
458.19	10450.49
458.38	10097.07
458.56	10239.84
458.74	10300.70
458.93	10284.31
459.11	10050.26
459.29	10160.27
459.48	10443.47
459.66	10345.17
459.84	10312.40
460.03	10569.86
460.21	10441.13
460.39	10448.15
460.57	10406.02
460.76	10611.99
460.94	10569.86
461.12	10572.20
461.31	10717.31
461.49	10616.67
461.67	10750.08
461.85	10979.45
462.04	10684.55
462.22	11105.84
462.40	11040.31
462.59	10888.17
462.77	10918.60
462.95	10850.72
463.13	11007.54
463.32	11171.38
463.50	11098.82
463.68	10988.82
463.86	11274.36
464.05	11000.52
464.23	10906.90
464.41	11232.23
464.59	11157.33
464.78	11440.54
464.96	11463.94
465.14	11218.19
465.32	11494.37
465.50	11475.65
465.69	11599.70
465.87	11548.20
466.05	11569.27
466.23	11578.63
466.41	11375.00
466.60	11672.25
466.78	11412.45
466.96	11475.65
467.14	11606.72
467.32	11662.89
467.51	11679.27
467.69	11662.89
467.87	11721.40
468.05	11913.33
468.23	11698.00
468.41	11524.80
468.60	12088.87
468.78	12006.95
468.96	12184.83
469.14	12016.31
469.32	12294.83
469.50	11889.92
469.69	12107.59
469.87	12311.22
470.05	12205.89
470.23	12189.51
470.41	12519.53
470.59	12524.21
470.77	12573.36
470.95	12313.56
471.14	12706.77
471.32	12779.32
471.50	12882.31
471.68	12725.49
471.86	12922.10
472.04	12802.73
472.22	13200.62
472.40	12842.52
472.58	12901.03
472.77	13046.15
472.95	13125.72
473.13	13650.00
473.31	13029.76
473.49	13551.70
473.67	13373.82
473.85	13472.12
474.03	13951.93
474.21	13844.27
474.39	13919.17
474.57	13706.18
474.75	14108.75
474.93	13926.19
475.12	14239.82
475.30	14185.99
475.48	14169.60
475.66	14640.05
475.84	14291.31
476.02	14422.38
476.20	14305.35
476.38	14733.67
476.56	15030.92
476.74	14878.79
476.92	14780.48
477.10	15147.95
477.28	15213.48
477.46	15286.04
477.64	15246.25
477.82	15791.59
478.00	15740.10
478.18	15908.62
478.36	15704.99
478.54	16334.60
478.72	16093.52
478.90	16304.17
479.08	16421.20
479.26	16634.19
479.44	16854.20
479.62	16842.50
479.80	16767.60
479.98	17238.05
480.16	17294.22
480.34	16987.61
480.52	17549.34
480.70	17249.75
480.88	17308.26
481.06	17495.50
481.24	17722.54
481.41	17991.70
481.59	18148.51
481.77	18160.22
481.95	18333.42
482.13	18513.64
482.31	18775.78
482.49	18834.29
482.67	18672.79
482.85	19168.99
483.03	19218.14
483.21	19346.87
483.39	19618.37
483.57	19747.10
483.74	19716.67
483.92	20184.78
484.10	19946.05
484.28	20266.70
484.46	20465.64
484.64	20842.47
484.82	20479.69
485.00	20788.64
485.18	21106.95
485.35	21507.18
485.53	21324.62
485.71	21568.04
485.89	22080.61
486.07	21790.39
486.25	22106.36
486.43	22499.57
486.61	22347.44
486.78	22831.93
486.96	22644.68
487.14	22860.01
487.32	23187.69
487.50	23105.77
487.68	23473.23
487.85	23946.02
488.03	23791.55
488.21	24360.30
488.39	24107.52
488.57	24329.87
488.75	24456.26
488.92	24762.87
489.10	24805.00
489.28	24952.45
489.46	25551.63
489.64	25369.07
489.81	25619.50
489.99	25741.21
490.17	26038.46
490.35	26576.78
490.53	26462.10
490.70	26462.10
490.88	26300.60
491.06	27023.83
491.24	26951.27
491.41	27108.08
491.59	27573.85
491.77	27232.13
491.95	27777.48
492.13	27873.44
492.30	28222.18
492.48	27786.84
492.66	28070.04
492.84	28491.34
493.01	28540.49
493.19	28580.28
493.37	28980.51
493.54	28814.34
493.72	29116.26
493.90	29193.50
494.08	29537.56
494.25	30071.20
494.43	29830.13
494.61	30153.12
494.79	30429.30
494.96	30237.38
495.14	30843.58
495.32	30422.28
495.49	30789.75
495.67	30749.96
495.85	30801.45
496.02	30993.37
496.20	31405.31
496.38	31803.20
496.55	31503.61
496.73	32837.72
496.91	32229.18
497.09	32407.06
497.26	32453.87
497.44	32643.45
497.62	32678.56
497.79	33329.23
497.97	33137.30
498.14	33675.63
498.32	33670.95
498.50	33872.23
498.67	33919.04
498.85	33921.38
499.03	33783.29
499.20	34536.94
499.38	34429.28
499.56	34279.49
499.73	34396.51
499.91	34782.70
500.08	34993.35
500.26	34827.17
500.44	35049.52
500.61	35562.10
500.79	35377.20
500.97	35323.36
501.14	35770.41
501.32	35381.88
501.49	35496.56
501.67	35716.58
501.84	35665.08
502.02	36208.09
502.20	36512.36
502.37	36437.46
502.55	36355.54
502.72	36458.52
502.90	36636.41
503.07	36765.14
503.25	36737.05
503.43	36978.12
503.60	37205.16
503.78	37607.73
503.95	37221.54
504.13	37385.38
504.30	37773.91
504.48	37565.60
504.65	37853.48
504.83	38225.63
505.01	38326.27
505.18	38178.82
505.36	38712.46
505.53	38471.39
505.71	38726.50
505.88	38700.76
506.06	38618.84
506.23	39147.80
506.41	38602.46
506.58	39000.35
506.76	39016.73
506.93	39683.78
507.11	39192.27
507.28	39955.29
507.46	40098.06
507.63	40226.79
507.81	39955.29
507.98	39974.01
508.16	40130.83
508.33	40011.46
508.50	40435.10
508.68	40657.45
508.85	40786.18
509.03	40807.24
509.20	40407.01
509.38	41158.32
509.55	41200.45
509.73	41209.81
509.90	41120.87
510.08	41507.06
510.25	41467.27
510.42	41654.51
510.60	41790.27
510.77	41855.80
510.95	41801.97
511.12	41738.77
511.30	42410.51
511.47	42820.10
511.64	42871.59
511.82	42796.70
511.99	42368.38
512.17	42960.53
512.34	43098.62
512.51	43416.94
512.69	43438.00
512.86	43442.68
513.04	43805.47
513.21	43335.02
513.38	43351.40
513.56	43824.19
513.73	43246.08
513.90	44123.78
514.08	43966.96
514.25	44484.22
514.43	43985.69
514.60	44261.87
514.77	44030.16
514.95	44451.45
515.12	44170.59
515.29	44201.02
515.47	44905.52
515.64	45317.45
515.81	44825.94
515.99	45102.12
516.16	45020.20
516.33	45109.14
516.51	45621.72
516.68	45200.43
516.85	45698.96
517.03	45574.91
517.20	45794.92
517.37	45750.45
517.54	45720.02
517.72	45661.51
517.89	45942.38
518.06	45883.86
518.24	45975.14
518.41	46167.07
518.58	45972.80
518.75	46047.70
518.93	46546.23
519.10	46347.29
519.27	46237.28
519.45	46511.13
519.62	46906.68
519.79	46630.49
519.96	47019.02
520.14	46726.46
520.31	46677.30
520.48	47360.74
520.65	47255.42
520.83	47590.11
521.00	47966.94
521.17	47674.37
521.34	47988.00
521.52	48060.56
521.69	47480.11
521.86	47894.38
522.03	48004.39
522.20	48470.15
522.38	48163.54
522.55	48409.30
522.72	48341.42
522.89	48259.51
523.07	48416.32
523.24	48706.55
523.41	48758.04
523.58	48706.55
523.75	48587.18
523.92	48973.37
524.10	49179.34
524.27	49104.44
524.44	49085.72
524.61	49165.29
524.78	49287.00
524.96	49450.84
525.13	49219.13
525.30	49682.55
525.47	50138.96
525.64	49474.24
525.81	49989.16
525.98	49642.76
526.16	49219.13
526.33	49565.52
526.50	50527.48
526.67	50061.72
526.84	50192.79
527.01	50398.76
527.18	50370.67
527.36	50403.44
527.53	50354.29
527.70	50464.29
527.87	50609.40
528.04	50614.08
528.21	51016.66
528.38	51023.68
528.55	50829.41
528.72	50623.45
528.89	50773.24
529.07	50901.97
529.24	50609.40
529.41	51339.65
529.58	51040.06
529.75	51164.11
529.92	51281.14
530.09	51098.58
530.26	51096.24
530.43	51098.58
530.60	51002.61
530.77	51199.22
530.94	51700.09
531.11	51484.76
531.28	51779.67
531.46	51510.51
531.63	51786.69
531.80	51475.40
531.97	51917.76
532.14	52044.15
532.31	52140.11
532.48	52261.82
532.65	52172.88
532.82	52044.15
532.99	52222.03
533.16	51821.80
533.33	52376.51
533.50	52488.85
533.67	51885.00
533.84	52135.43
534.01	52287.57
534.18	52442.04
534.35	53052.92
534.52	52846.96
534.69	52729.93
534.86	52790.78
535.03	52165.86
535.20	52743.97
535.37	52821.21
535.54	53141.86
535.71	53195.70
535.88	53043.56
536.05	53176.97
536.22	53291.66
536.38	53305.70
536.55	53055.26
536.72	53296.34
536.89	52795.46
537.06	53413.37
537.23	53523.37
537.40	53408.68
537.57	53595.93
537.74	53198.04
537.91	53729.34
538.08	53708.27
538.25	53436.77
538.42	53764.45
538.59	53925.94
538.75	53778.49
538.92	53668.48
539.09	53811.26
539.26	53893.18
539.43	53717.64
539.60	53811.26
539.77	53787.85
539.94	54356.60
540.11	54274.68
540.28	54199.79
540.44	53977.43
540.61	54157.66
540.78	53965.73
540.95	54220.85
541.12	54288.73
541.29	54389.37
541.46	54424.48
541.62	54616.40
541.79	54733.43
541.96	54335.54
542.13	54333.20
542.30	54777.90
542.47	54555.55
542.63	54527.46
542.80	54897.27
542.97	55157.06
543.14	55281.11
543.31	55246.00
543.48	55098.55
543.64	55313.88
543.81	55363.03
543.98	55248.35
544.15	55386.44
544.32	55554.96
544.48	55538.57
544.65	55547.93
544.82	55473.04
544.99	55159.41
545.16	55791.35
545.32	55576.02
545.49	55669.64
545.66	55721.13
545.83	56041.79
546.00	55910.72
546.16	55875.61
546.33	56023.06
546.50	55365.37
546.67	55739.86
546.83	55374.73
547.00	55646.24
547.17	55449.63
547.34	55760.92
547.50	56018.38
547.67	56069.87
547.84	56250.09
548.00	56200.94
548.17	56245.41
548.34	55929.44
548.51	56275.84
548.67	56189.24
548.84	56097.96
549.01	56065.19
549.18	56158.81
549.34	56130.73
549.51	56156.47
549.68	56444.36
549.84	56200.94
550.01	56418.61
550.18	56254.78
550.34	56102.64
550.51	56151.79
550.68	56474.79
550.84	56392.87
551.01	56713.52
551.18	56296.91
551.34	56474.79
551.51	56514.58
551.68	56566.07
551.84	56404.57
552.01	56229.03
552.18	56573.09
552.34	56516.92
552.51	56715.86
552.68	56537.98
552.84	56818.84
553.01	56966.30
553.18	57020.13
553.34	56671.39
553.51	56736.93
553.67	56652.67
553.84	56968.64
554.01	57017.79
554.17	57209.71
554.34	57155.88
554.51	57146.52
554.67	57003.75
554.84	56996.73
555.00	56610.54
555.17	56750.97
555.33	57242.48
555.50	56982.68
555.67	57174.61
555.83	57099.71
556.00	57298.65
556.16	57621.65
556.33	57476.54
556.50	57279.93
556.66	57036.51
556.83	57003.75
556.99	57305.68
557.16	57443.77
557.32	57422.70
557.49	57813.57
557.65	57359.51
557.82	57277.59
557.98	57380.57
558.15	57183.97
558.32	57506.96
558.48	57357.17
558.65	57668.46
558.81	57446.11
558.98	57694.21
559.14	57588.88
559.31	57396.96
559.47	57436.75
559.64	57701.23
559.80	57539.73
559.97	57846.34
560.13	57560.79
560.30	57633.35
560.46	57682.50
560.63	57771.44
560.79	57876.77
560.96	57879.11
561.12	57862.72
561.29	57638.03
561.45	57544.41
561.61	57593.56
561.78	57572.50
561.94	57886.13
562.11	58078.05
562.27	58010.18
562.44	58272.32
562.60	58181.04
562.77	58101.46
562.93	57829.96
563.10	58035.92
563.26	57970.39
563.42	58192.74
563.59	57975.07
563.75	57907.19
563.92	57855.70
564.08	58117.84
564.24	58040.60
564.41	57961.03
564.57	57916.56
564.74	57893.15
564.90	58012.52
565.07	58190.40
565.23	58181.04
565.39	58258.27
565.56	58379.98
565.72	58040.60
565.88	58302.74
566.05	58188.06
566.21	58054.65
566.38	57832.30
566.54	57975.07
566.70	58480.63
566.87	58602.33
567.03	58382.32
567.19	58726.38
567.36	58595.31
567.52	58351.90
567.68	58438.50
567.85	58169.33
568.01	58525.10
568.17	58415.09
568.34	58611.70
568.50	58363.60
568.66	58553.18
568.83	58536.80
568.99	58506.37
569.15	58403.39
569.32	58391.68
569.48	58356.58
569.64	58321.47
569.81	58417.43
569.97	58356.58
570.13	58541.48
570.30	58382.32
570.46	58333.17
570.62	58361.26
570.78	58398.71
570.95	58370.62
571.11	58635.10
571.27	58452.54
571.43	58246.57
571.60	58394.03
571.76	58335.51
571.92	58539.14
572.09	58560.20
572.25	58798.94
572.41	58740.42
572.57	58677.23
572.74	58777.87
572.90	58651.48
573.06	58445.52
573.22	58567.23
573.38	58649.14
573.55	58609.35
573.71	58710.00
573.87	58864.47
574.03	58752.13
574.20	58761.49
574.36	58635.10
574.52	58836.39
574.68	58607.01
574.84	58698.30
575.01	58628.08
575.17	58784.90
575.33	58862.13
575.49	58663.19
575.65	58845.75
575.82	58829.37
575.98	58712.34
576.14	58927.67
576.30	58913.62
576.46	58738.08
576.62	58717.02
576.79	58782.55
576.95	58588.29
577.11	58848.09
577.27	58686.59
577.43	58890.22
577.59	58745.11
577.75	58789.58
577.92	58649.14
578.08	58845.75
578.24	58848.09
578.40	58759.15
578.56	58960.44
578.72	58827.02
578.88	59143.00
579.04	58976.82
579.21	58873.84
579.37	58878.52
579.53	58890.22
579.69	58951.07
579.85	59068.10
580.01	59187.47
580.17	58890.22
580.33	58925.33
580.49	59224.92
580.65	59100.87
580.82	59096.19
580.98	59021.29
581.14	58894.90
581.30	59056.40
581.46	58798.94
581.62	59056.40
581.78	58930.01
581.94	58920.65
582.10	58834.05
582.26	59143.00
582.42	59040.01
582.58	59128.95
582.74	58995.54
582.90	59100.87
583.06	59215.55
583.22	58845.75
583.38	59070.44
583.54	58993.20
583.70	58948.73
583.86	59124.27
584.02	59112.57
584.18	59157.04
584.34	59103.21
584.50	59245.98
584.66	58979.16
584.82	58937.03
584.98	59245.98
585.14	58969.80
585.30	59014.27
585.46	59152.36
585.62	58871.49
585.78	59135.98
585.94	59128.95
586.10	58880.86
586.26	59283.43
586.42	59348.96
586.58	59276.41
586.74	59084.48
586.90	59004.91
587.06	58883.20
587.22	59330.24
587.38	59117.25
587.54	59180.45
587.70	59250.66
587.86	59264.70
588.02	59262.36
588.18	59463.65
588.34	59295.13
588.49	59194.49
588.65	59049.38
588.81	59145.34
588.97	59250.66
589.13	59475.35
589.29	59393.43
589.45	59458.97
589.61	59423.86
589.77	59501.10
589.93	59339.60
590.08	59409.82
590.24	59503.44
590.40	59463.65
590.56	59531.53
590.72	59346.62
590.88	59267.05
591.04	59332.58
591.20	59690.68
591.35	59477.69
591.51	59774.94
591.67	59550.25
591.83	59576.00
591.99	59508.12
592.15	59414.50
592.31	59566.63
592.46	59461.31
592.62	59423.86
592.78	59391.09
592.94	59442.59
593.10	59351.30
593.26	59884.95
593.41	59538.55
593.57	59866.22
593.73	59484.72
593.89	59737.49
594.05	59503.44
594.20	59444.93
594.36	59557.27
594.52	59475.35
594.68	59585.36
594.84	59398.12
594.99	59978.57
595.15	59599.40
595.31	59819.41
595.47	59639.19
595.62	59657.91
595.78	59477.69
595.94	59646.21
596.10	59540.89
596.25	59358.33
596.41	59505.78
596.57	59475.35
596.73	59578.34
596.88	59704.73
597.04	59678.98
597.20	59810.05
597.36	59435.56
597.51	59627.49
597.67	59540.89
597.83	59494.08
597.99	59751.54
598.14	59550.25
598.30	59660.26
598.46	59592.38
598.61	59845.16
598.77	59487.06
598.93	59657.91
599.09	59620.47
599.24	59952.82
599.40	59779.62
599.56	59744.51
599.71	59803.03
599.87	59941.12
600.03	59796.01
600.18	59742.17
600.34	59788.98
600.50	59779.62
600.65	59812.39
600.81	60259.43
600.97	60060.49
601.12	59796.01
601.28	59964.52
601.44	59938.78
601.59	59880.27
601.75	59257.68
601.91	59866.22
602.06	59730.47
602.22	59725.79
602.37	59875.58
602.53	59753.88
602.69	59812.39
602.84	59714.09
603.00	59859.20
603.16	59948.14
603.31	59772.60
603.47	59484.72
603.62	59615.79
603.78	59707.07
603.94	59606.42
604.09	59742.17
604.25	59753.88
604.40	59531.53
604.56	59807.71
604.71	60046.44
604.87	59990.27
605.03	59690.68
605.18	59629.83
605.34	59756.22
605.49	59398.12
605.65	59739.83
605.80	59648.55
605.96	59737.49
606.12	59894.31
606.27	60266.45
606.43	59681.32
606.58	60076.87
606.74	59945.80
606.89	59936.44
607.05	59751.54
607.20	59646.21
607.36	59531.53
607.51	59732.81
607.67	59522.16
607.82	59859.20
607.98	59739.83
608.13	59646.21
608.29	59751.54
608.44	59817.07
608.60	59606.42
608.75	59840.48
608.91	59667.28
609.06	59554.93
609.22	59894.31
609.37	59447.27
609.53	59470.67
609.68	59580.68
609.84	59568.97
609.99	59889.63
610.15	59622.81
610.30	59700.04
610.46	59678.98
610.61	59765.58
610.76	59990.27
610.92	59992.61
611.07	59774.94
611.23	59723.45
611.38	59845.16
611.54	60009.00
611.69	60030.06
611.84	59812.39
612.00	59744.51
612.15	59601.74
612.31	59868.56
612.46	59714.09
612.62	59693.02
612.77	59779.62
612.92	59908.35
613.08	59463.65
613.23	59491.74
613.39	59554.93
613.54	59559.61
613.69	59906.01
613.85	59648.55
614.00	59777.28
614.15	59913.03
614.31	59852.18
614.46	59667.28
614.62	59543.23
614.77	59592.38
614.92	59447.27
615.08	59468.33
615.23	59447.27
615.38	59400.46
615.54	59374.71
615.69	59229.60
615.84	59131.29
616.00	59592.38
616.15	59316.20
616.30	59372.37
616.46	59550.25
616.61	59325.56
616.76	59341.94
616.92	58967.46
617.07	59222.58
617.22	59103.21
617.37	58988.52
617.53	59056.40
617.68	59124.27
617.83	58974.48
617.99	59419.18
618.14	59508.12
618.29	59363.01
618.45	59243.64
618.60	59238.96
618.75	59061.08
618.90	58946.39
619.06	58841.07
619.21	58766.17
619.36	58908.94
619.51	58707.66
619.67	58695.95
619.82	58852.77
619.97	59096.19
620.12	58993.20
620.28	59007.25
620.43	59028.31
620.58	59135.98
620.73	59159.38
620.89	58848.09
621.04	58997.88
621.19	58972.14
621.34	58731.06
621.49	58754.47
621.65	58674.89
621.80	59065.76
621.95	59180.45
622.10	59152.36
622.25	58913.62
622.41	58738.08
622.56	58590.63
622.71	58988.52
622.86	58808.30
623.01	58585.95
623.16	58471.26
623.32	58475.94
623.47	58866.81
623.62	58796.60
623.77	58738.08
623.92	58798.94
624.07	58880.86
624.23	58880.86
624.38	58857.45
624.53	58693.61
624.68	58602.33
624.83	58763.83
624.98	58621.06
625.13	58293.38
625.29	58590.63
625.44	58440.84
625.59	58281.68
625.74	58340.19
625.89	58372.96
626.04	58529.78
626.19	58396.37
626.34	58447.86
626.49	58489.99
626.65	58436.16
626.80	58417.43
626.95	58267.64
627.10	58190.40
627.25	58188.06
627.40	58164.65
627.55	58019.54
627.70	58040.60
627.85	58225.51
628.00	57904.85
628.15	58124.86
628.30	58115.50
628.45	58340.19
628.60	58286.36
628.76	58124.86
628.91	58085.07
629.06	58248.91
629.21	57963.37
629.36	58082.73
629.51	58012.52
629.66	58204.44
629.81	57855.70
629.96	57965.71
630.11	57975.07
630.26	58248.91
630.41	58223.17
630.56	57869.75
630.71	58253.59
630.86	58103.80
631.01	58026.56
631.16	58148.27
631.31	57928.26
631.46	57932.94
631.61	57804.21
631.76	57881.45
631.91	57998.48
632.06	57839.32
632.21	57916.56
632.36	57841.66
632.51	57499.94
632.66	57846.34
632.81	57799.53
632.96	57907.19
633.10	57766.76
633.25	57488.24
633.40	57579.52
633.55	57808.89
633.70	57179.29
633.85	57408.66
634.00	57324.40
634.15	57712.93
634.30	57729.31
634.45	57645.05
634.60	57841.66
634.75	57755.06
634.90	57336.10
635.05	57661.44
635.19	57647.39
635.34	57539.73
635.49	57633.35
635.64	57434.41
635.79	57312.70
635.94	57420.36
636.09	57242.48
636.24	57418.02
636.39	57523.35
636.53	57457.81
636.68	57368.87
636.83	57425.04
636.98	57221.42
637.13	57343.12
637.28	57319.72
637.43	57165.24
637.57	57223.76
637.72	56992.04
637.87	57233.12
638.02	57137.16
638.17	57340.78
638.32	57085.67
638.46	56898.42
638.61	57134.82
638.76	57052.90
638.91	57090.35
639.06	57219.08
639.20	57677.82
639.35	57052.90
639.50	57111.41
639.65	57059.92
639.80	57059.92
639.94	56938.21
640.09	56933.53
640.24	56849.27
640.39	56938.21
640.54	56968.64
640.68	57008.43
640.83	57055.24
640.98	56856.29
641.13	56388.19
641.27	56989.70
641.42	56376.48
641.57	56673.73
641.72	56657.35
641.86	56664.37
642.01	56474.79
642.16	56561.39
642.31	56519.26
642.45	56809.48
642.60	56507.55
642.75	56783.74
642.90	56626.92
643.04	56718.20
643.19	56673.73
643.34	56844.59
643.48	56816.50
643.63	56521.60
643.78	56460.74
643.93	56238.39
644.07	56577.77
644.22	56264.14
644.37	56430.32
644.51	56552.02
644.66	56292.22
644.81	56479.47
644.95	56519.26
645.10	56584.79
645.25	56465.42
645.39	56622.24
645.54	56474.79
645.69	56467.76
645.83	56505.21
645.98	56336.69
646.13	56348.40
646.27	56320.31
646.42	55903.70
646.57	56114.34
646.71	56062.85
646.86	56149.45
647.00	56383.51
647.15	56552.02
647.30	56449.04
647.44	56383.51
647.59	56526.28
647.74	56002.00
647.88	56350.74
648.03	56285.20
648.17	55618.15
648.32	55791.35
648.47	55896.67
648.61	55819.44
648.76	56018.38
648.90	55721.13
649.05	55952.85
649.20	55924.76
649.34	56074.55
649.49	56058.17
649.63	56355.42
649.78	56051.15
649.92	55859.23
650.07	56109.66
650.21	56016.04
650.36	55707.09
650.51	55533.89
650.65	55529.21
650.80	55620.49
650.94	55646.24
651.09	55519.85
651.23	55660.28
651.38	56011.36
651.52	55550.27
651.67	55442.61
651.81	55751.56
651.96	55896.67
652.10	55735.18
652.25	55580.70
652.39	55463.67
652.54	55381.76
652.68	55496.44
652.83	55224.94
652.97	55510.49
653.12	55622.83
653.26	55959.87
653.41	55910.72
653.55	55491.76
653.70	55416.86
653.84	55454.31
653.99	55367.71
654.13	55477.72
654.27	55456.65
654.42	55557.30
654.56	55140.68
654.71	55292.82
654.85	55339.63
655.00	55494.10
655.14	54824.71
655.29	55168.77
655.43	55044.72
655.57	55047.06
655.72	55166.43
655.86	54848.11
656.01	55084.51
656.15	54852.80
656.30	55079.83
656.44	55356.01
656.58	55334.95
656.73	55229.62
656.87	55138.34
657.01	54976.84
657.16	54859.82
657.30	55023.65
657.45	54848.11
657.59	54674.91
657.73	54656.19
657.88	54808.32
658.02	54981.52
658.16	54923.01
658.31	54705.34
658.45	54745.13
658.60	54646.83
658.74	54574.27
658.88	54607.04
659.03	54571.93
659.17	54333.20
659.31	54237.23
659.46	54642.15
659.60	54351.92
659.74	54382.35
659.89	54202.13
660.03	54302.77
660.17	54248.94
660.32	54232.55
660.46	54260.64
660.60	54293.41
660.74	54190.42
660.89	53682.53
661.03	53656.78
661.17	53935.30
661.32	53797.21
661.46	53841.68
661.60	53757.42
661.74	53586.57
661.89	53633.38
662.03	54092.12
662.17	53396.98
662.31	53808.92
662.46	53661.46
662.60	53240.17
662.74	53343.15
662.88	53677.85
663.03	53801.89
663.17	53743.38
663.31	53574.86
663.45	53731.68
663.60	53394.64
663.74	53226.12
663.88	53462.52
664.02	53399.32
664.17	53247.19
664.31	52858.66
664.45	52907.81
664.59	52896.11
664.73	53155.91
664.88	53289.32
665.02	52912.49
665.16	52940.58
665.30	53048.24
665.44	52617.58
665.59	52638.65
665.73	52907.81
665.87	52776.74
666.01	52500.56
666.15	52336.72
666.29	52608.22
666.44	52598.86
666.58	51980.96
666.72	52273.52
666.86	52486.51
667.00	52451.41
667.14	52044.15
667.28	52467.79
667.43	51892.02
667.57	52470.13
667.71	52069.90
667.85	52041.81
667.99	52182.24
668.13	52100.32
668.27	51906.06
668.41	51784.35
668.56	51789.03
668.70	51395.82
668.84	51447.32
668.98	51320.93
669.12	51353.69
669.26	51810.10
669.40	51985.64
669.54	51948.19
669.68	51341.99
669.82	51349.01
669.96	51849.89
670.10	51707.12
670.25	51550.30
670.39	50721.75
670.53	50766.22
670.67	50843.46
670.81	51276.46
670.95	50440.89
671.09	50908.99
671.23	50857.50
671.37	50791.97
671.51	50955.80
671.65	50946.44
671.79	50515.78
671.93	50768.56
672.07	50305.13
672.21	50349.60
672.35	50122.57
672.49	50148.32
672.63	50295.77
672.77	49991.50
672.91	50057.04
673.05	49581.91
673.19	49270.62
673.33	49322.11
673.47	49464.88
673.61	49570.21
673.75	49605.31
673.89	49820.64
674.03	49619.36
674.17	49326.79
674.31	49544.46
674.45	49207.42
674.59	49425.09
674.73	49626.38
674.87	49411.05
675.01	48617.61
675.15	49172.31
675.29	48942.94
675.43	48493.56
675.56	48547.39
675.70	48257.17
675.84	48577.82
675.98	47199.24
676.12	48355.47
676.26	48479.52
676.40	47934.17
676.54	47835.87
676.68	47573.73
676.82	46670.28
676.96	47346.70
677.10	47423.93
677.23	47171.16
677.37	47885.02
677.51	47260.10
677.65	46960.51
677.79	46366.01
677.93	45808.96
678.07	46333.24
678.21	45989.19
678.34	46316.86
678.48	45963.44
678.62	45942.38
678.76	45940.04
678.90	45954.08
679.04	46136.64
679.18	46085.15
679.31	45172.34
679.45	45483.63
679.59	46052.38
679.73	45837.05
679.87	45067.02
680.00	44790.83
680.14	44919.56
680.28	44737.00
680.42	44823.60
680.56	45067.02
680.70	44474.86
680.83	44250.17
680.97	44175.27
681.11	44584.86
681.25	44226.76
681.39	44509.97
681.52	43653.33
681.66	43955.26
681.80	43456.73
681.94	43590.14
682.07	43276.51
682.21	43480.13
682.35	43772.70
682.49	43761.00
682.62	43206.29
682.76	42871.59
682.90	42939.47
683.04	42548.60
683.17	42462.00
683.31	42195.18
683.45	42801.38
683.59	42122.62
683.72	42010.28
683.86	41926.02
684.00	41242.58
684.13	41514.08
684.27	41207.47
684.41	41251.94
684.55	41467.27
684.68	41546.85
684.82	41441.53
684.96	41181.73
685.09	41368.97
685.23	40514.67
685.37	41127.89
685.50	40650.42
685.64	40762.77
685.78	40121.46
685.91	40610.64
686.05	39604.20
686.19	39636.97
686.32	40282.96
686.46	39728.25
686.60	39864.00
686.73	39945.92
686.87	39704.85
687.01	39903.79
687.14	39220.36
687.28	38733.53
687.42	39480.16
687.55	38916.09
687.69	39208.65
687.82	38202.22
687.96	38265.42
688.10	38302.87
688.23	38267.76
688.37	38153.07
688.50	37343.25
688.64	37617.09
688.78	37820.72
688.91	37729.44
689.05	37844.12
689.18	37509.43
689.32	36980.46
689.46	37469.64
689.59	37102.17
689.73	36935.99
689.86	36404.69
690.00	36163.62
690.13	35922.54
690.27	36348.52
690.41	36030.21
690.54	35646.36
690.68	35615.93
690.81	36041.91
690.95	36294.69
691.08	35487.20
691.22	34939.52
691.35	35295.28
691.49	35590.19
691.62	35484.86
691.76	34960.58
691.89	35124.42
692.03	35161.87
692.16	34536.94
692.30	34595.46
692.43	34157.78
692.57	34560.35
692.70	34155.44
692.84	34436.30
692.97	33656.90
693.11	33844.15
693.24	33841.81
693.38	33439.23
693.51	33916.70
693.65	33532.86
693.78	33270.72
693.92	33214.54
694.05	32999.21
694.19	32456.21
694.32	32613.02
694.45	32898.57
694.59	32393.01
694.72	32620.05
694.86	31702.56
694.99	31791.50
695.13	31292.96
695.26	31459.14
695.39	31433.39
695.53	31653.40
695.66	31695.53
695.80	30937.20
695.93	31370.20
696.07	30998.06
696.20	31051.89
696.33	31164.23
696.47	30511.22
696.60	30735.92
696.73	30333.34
696.87	30462.07
697.00	30267.81
697.14	30323.98
697.27	30022.05
697.40	30319.30
697.54	29795.02
697.67	29387.77
697.80	28877.53
697.94	29465.00
698.07	29029.66
698.21	28849.44
698.34	29020.30
698.47	28821.36
698.61	28786.25
698.74	28919.66
698.87	28713.69
699.01	28720.71
699.14	28716.03
699.27	28577.94
699.40	28261.97
699.54	28570.92
699.67	28013.87
699.80	28308.78
699.94	27840.67
700.07	27665.13
700.20	27281.28
700.34	27065.96
700.47	27332.78
700.60	27330.44
700.73	26995.74
700.87	26740.62
701.00	26352.09
701.13	26604.87
701.26	26352.09
701.40	26415.29
701.53	26314.64
701.66	26281.88
701.79	26115.70
701.93	25961.22
702.06	25628.87
702.19	26237.41
702.32	26001.01
702.46	25287.15
702.59	25458.01
702.72	25186.50
702.85	24800.32
702.99	25184.16
703.12	24666.91
703.25	24982.88
703.38	24896.28
703.51	24772.23
703.65	24467.96
703.78	24472.64
703.91	24393.06
704.04	24460.94
704.17	24308.80
704.31	24463.28
704.44	23995.17
704.57	23798.57
704.70	23463.87
704.83	23304.71
704.96	23538.77
705.10	23653.45
705.23	23412.38
>>>>>End Processed Spectral Data<<<<<
