SpectraSuite Data File
++++++++++++++++++++++++++++++++++++
Date: Thu Oct 24 13:21:13 EDT 2013
User: stostad
Dark Spectrum Present: No
Reference Spectrum Present: No
Number of Sampled Component Spectra: 1
Spectrometers: USB2+H05261
Integration Time (usec): 100000 (USB2+H05261)
Spectra Averaged: 1 (USB2+H05261)
Boxcar Smoothing: 0 (USB2+H05261)
Correct for Electrical Dark: No (USB2+H05261)
Strobe/Lamp Enabled: No (USB2+H05261)
Correct for Detector Non-linearity: No (USB2+H05261)
Correct for Stray Light: No (USB2+H05261)
Number of Pixels in Processed Spectrum: 2048
>>>>>Begin Processed Spectral Data<<<<<
365.73	571.09
365.92	571.09
366.12	571.09
366.32	559.39
366.52	489.17
366.72	397.89
366.91	416.62
367.11	571.09
367.31	360.44
367.51	465.77
367.70	414.27
367.90	463.43
368.10	449.38
368.30	442.36
368.49	456.40
368.69	433.00
368.89	444.70
369.09	512.58
369.28	547.69
369.48	477.47
369.68	538.32
369.87	475.13
370.07	444.70
370.27	554.71
370.47	568.75
370.66	685.78
370.86	751.31
371.06	695.14
371.25	755.99
371.45	791.10
371.65	748.97
371.84	763.01
372.04	739.61
372.24	699.82
372.44	746.63
372.63	753.65
372.83	748.97
373.03	683.44
373.22	774.72
373.42	819.19
373.62	779.40
373.81	800.46
374.01	835.57
374.21	753.65
374.40	784.08
374.60	816.85
374.79	723.23
374.99	828.55
375.19	791.10
375.38	863.66
375.58	784.08
375.78	791.10
375.97	814.51
376.17	847.27
376.37	807.48
376.56	770.04
376.76	734.93
376.95	788.76
377.15	770.04
377.35	777.06
377.54	816.85
377.74	844.93
377.93	868.34
378.13	795.78
378.33	833.23
378.52	760.67
378.72	788.76
378.91	823.87
379.11	833.23
379.31	739.61
379.50	795.78
379.70	816.85
379.89	844.93
380.09	842.59
380.28	812.17
380.48	877.70
380.68	847.27
380.87	840.25
381.07	861.32
381.26	819.19
381.46	858.98
381.65	898.77
381.85	840.25
382.04	800.46
382.24	898.77
382.43	763.01
382.63	812.17
382.83	788.76
383.02	856.64
383.22	737.27
383.41	849.61
383.61	837.91
383.80	805.14
384.00	863.66
384.19	772.38
384.39	746.63
384.58	851.96
384.78	926.85
384.97	887.06
385.17	877.70
385.36	854.30
385.56	884.72
385.75	866.00
385.95	912.81
386.14	866.00
386.34	926.85
386.53	877.70
386.72	943.24
386.92	858.98
387.11	828.55
387.31	847.27
387.50	908.13
387.70	919.83
387.89	856.64
388.09	980.68
388.28	858.98
388.48	908.13
388.67	880.04
388.86	978.34
389.06	940.90
389.25	898.77
389.45	847.27
389.64	922.17
389.84	915.15
390.03	910.47
390.22	961.96
390.42	905.79
390.61	922.17
390.81	950.26
391.00	938.55
391.19	1025.15
391.39	947.92
391.58	985.37
391.78	894.08
391.97	1020.47
392.16	917.49
392.36	945.58
392.55	985.37
392.75	1046.22
392.94	992.39
393.13	945.58
393.33	1053.24
393.52	966.64
393.71	992.39
393.91	1008.77
394.10	1001.75
394.29	971.32
394.49	1055.58
394.68	992.39
394.88	1074.31
395.07	1001.75
395.26	1011.11
395.46	1034.52
395.65	1036.86
395.84	1027.50
396.04	1088.35
396.23	1074.31
396.42	1121.12
396.62	978.34
396.81	1095.37
397.00	1093.03
397.19	1118.78
397.39	1116.44
397.58	1104.73
397.77	1064.94
397.97	1135.16
398.16	1132.82
398.35	1100.05
398.55	1130.48
398.74	1076.65
398.93	1151.54
399.12	1118.78
399.32	1078.99
399.51	1097.71
399.70	1109.41
399.90	1160.91
400.09	1151.54
400.28	1135.16
400.47	1128.14
400.67	1198.35
400.86	1247.51
401.05	1165.59
401.24	1212.40
401.44	1172.61
401.63	1261.55
401.82	1121.12
402.01	1193.67
402.21	1254.53
402.40	1240.48
402.59	1167.93
402.78	1203.04
402.97	1263.89
403.17	1181.97
403.36	1256.87
403.55	1186.65
403.74	1373.89
403.93	1336.45
404.13	1308.36
404.32	1336.45
404.51	1242.82
404.70	1343.47
404.89	1263.89
405.09	1320.06
405.28	1364.53
405.47	1376.24
405.66	1249.85
405.85	1284.95
406.05	1315.38
406.24	1350.49
406.43	1341.13
406.62	1352.83
406.81	1387.94
407.00	1453.47
407.20	1425.39
407.39	1373.89
407.58	1446.45
407.77	1434.75
407.96	1500.28
408.15	1472.20
408.34	1493.26
408.54	1502.62
408.73	1406.66
408.92	1416.02
409.11	1528.37
409.30	1434.75
409.49	1554.12
409.68	1556.46
409.87	1451.13
410.07	1563.48
410.26	1500.28
410.45	1537.73
410.64	1472.20
410.83	1526.03
411.02	1509.65
411.21	1582.20
411.40	1596.25
411.59	1626.67
411.78	1626.67
411.98	1582.20
412.17	1563.48
412.36	1565.82
412.55	1612.63
412.74	1675.82
412.93	1636.03
413.12	1626.67
413.31	1654.76
413.50	1703.91
413.69	1790.51
413.88	1778.81
414.07	1806.89
414.26	1699.23
414.45	1717.95
414.64	1820.94
414.83	1755.40
415.02	1750.72
415.22	1865.41
415.41	1839.66
415.60	1776.47
415.79	1783.49
415.98	1893.49
416.17	1905.20
416.36	1872.43
416.55	1813.92
416.74	1874.77
416.93	1888.81
417.12	1944.99
417.31	1905.20
417.50	1989.46
417.69	1930.94
417.88	2008.18
418.07	1921.58
418.26	2024.56
418.45	1935.62
418.64	2064.35
418.83	2062.01
419.02	2045.63
419.21	2033.93
419.39	2087.76
419.58	2076.06
419.77	2019.88
419.96	2172.02
420.15	2045.63
420.34	2083.08
420.53	2118.18
420.72	2134.57
420.91	2139.25
421.10	2122.87
421.29	2270.32
421.48	2097.12
421.67	2150.95
421.86	2139.25
422.05	2155.63
422.24	2078.40
422.43	2125.21
422.61	2040.95
422.80	2134.57
422.99	2207.13
423.18	2139.25
423.37	2181.38
423.56	2209.47
423.75	2129.89
423.94	2078.40
424.13	2026.90
424.32	2108.82
424.50	2157.97
424.69	2204.78
424.88	2197.76
425.07	2338.20
425.26	2239.89
425.45	2195.42
425.64	2139.25
425.83	2176.70
426.01	2239.89
426.20	2225.85
426.39	2162.66
426.58	2225.85
426.77	2244.57
426.96	2239.89
427.15	2246.91
427.33	2237.55
427.52	2324.15
427.71	2310.11
427.90	2424.80
428.09	2368.62
428.28	2342.88
428.46	2396.71
428.65	2265.64
428.84	2356.92
429.03	2392.03
429.22	2380.32
429.40	2333.51
429.59	2347.56
429.78	2221.17
429.97	2221.17
430.16	2380.32
430.34	2434.16
430.53	2356.92
430.72	2410.75
430.91	2457.56
431.10	2389.69
431.28	2438.84
431.47	2452.88
431.66	2420.11
431.85	2354.58
432.03	2499.69
432.22	2518.42
432.41	2471.61
432.60	2499.69
432.79	2513.74
432.97	2497.35
433.16	2459.90
433.35	2471.61
433.54	2544.16
433.72	2546.50
433.91	2569.91
434.10	2619.06
434.28	2619.06
434.47	2593.31
434.66	2626.08
434.85	2682.25
435.03	2883.54
435.22	3054.40
435.41	3162.06
435.59	3040.36
435.78	2885.88
435.97	2846.09
436.16	2799.28
436.34	2729.06
436.53	2689.28
436.72	2693.96
436.90	2628.42
437.09	2818.00
437.28	2649.49
437.46	2754.81
437.65	2796.94
437.84	2808.64
438.02	2745.45
438.21	2710.34
438.40	2712.68
438.58	2878.86
438.77	2909.29
438.96	2958.44
439.14	2864.82
439.33	2853.11
439.52	2883.54
439.70	2885.88
439.89	2993.55
440.08	2977.16
440.26	3021.63
440.45	2904.60
440.63	3077.80
440.82	3066.10
441.01	3012.27
441.19	3094.19
441.38	3021.63
441.57	3112.91
441.75	3096.53
441.94	3143.34
442.12	3084.83
442.31	3180.79
442.50	3148.02
442.68	3108.23
442.87	3185.47
443.05	3122.27
443.24	3215.90
443.43	3286.11
443.61	3236.96
443.80	3330.58
443.98	3220.58
444.17	2979.50
444.35	3225.26
444.54	3339.94
444.73	3361.01
444.91	3262.71
445.10	3445.27
445.28	3253.34
445.47	3255.69
445.65	3293.13
445.84	3288.45
446.02	3304.84
446.21	3398.46
446.39	3372.71
446.58	3290.79
446.77	3375.05
446.95	3265.05
447.14	3300.16
447.32	3344.63
447.51	3389.10
447.69	3356.33
447.88	3328.24
448.06	3300.16
448.25	3339.94
448.43	3384.41
448.62	3262.71
448.80	3251.00
448.99	3353.99
449.17	3335.26
449.36	3342.28
449.54	3384.41
449.73	3421.86
449.91	3471.01
450.10	3405.48
450.28	3433.57
450.46	3466.33
450.65	3496.76
450.83	3534.21
451.02	3501.44
451.20	3576.34
451.39	3496.76
451.57	3604.42
451.76	3417.18
451.94	3487.40
452.13	3536.55
452.31	3669.96
452.49	3555.27
452.68	3585.70
452.86	3543.57
453.05	3606.77
453.23	3651.24
453.42	3597.40
453.60	3527.19
453.78	3672.30
453.97	3620.81
454.15	3562.30
454.34	3592.72
454.52	3667.62
454.70	3651.24
454.89	3651.24
455.07	3662.94
455.26	3744.86
455.44	3810.39
455.62	3672.30
455.81	3749.54
455.99	3737.84
456.17	3873.59
456.36	3742.52
456.54	3829.12
456.73	3843.16
456.91	3997.64
457.09	3880.61
457.28	3969.55
457.46	3922.74
457.64	3955.51
457.83	3981.25
458.01	3927.42
458.19	4184.88
458.38	3864.22
458.56	3936.78
458.74	3948.48
458.93	4023.38
459.11	3955.51
459.29	4056.15
459.48	4009.34
459.66	4077.21
459.84	4004.66
460.03	4133.39
460.21	4039.76
460.39	4049.13
460.57	4039.76
460.76	4131.05
460.94	4203.60
461.12	4126.36
461.31	4098.28
461.49	4205.94
461.67	4238.71
461.85	4210.62
462.04	4238.71
462.22	4524.26
462.40	4402.55
462.59	4348.72
462.77	4238.71
462.95	4304.25
463.13	4337.01
463.32	4358.08
463.50	4271.48
463.68	4245.73
463.86	4262.12
464.05	4149.77
464.23	4308.93
464.41	4229.35
464.59	4215.30
464.78	4430.63
464.96	4287.86
465.14	4393.19
465.32	4461.06
465.50	4362.76
465.69	4383.82
465.87	4442.34
466.05	4355.74
466.23	4423.61
466.41	4454.04
466.60	4465.74
466.78	4344.03
466.96	4395.53
467.14	4458.72
467.32	4528.94
467.51	4606.17
467.69	4435.32
467.87	4430.63
468.05	4601.49
468.23	4503.19
468.41	4435.32
468.60	4470.42
468.78	4500.85
468.96	4643.62
469.14	4442.34
469.32	4652.98
469.50	4500.85
469.69	4617.88
469.87	4880.02
470.05	4791.08
470.23	4706.82
470.41	4767.67
470.59	4819.16
470.77	4746.61
470.95	4695.11
471.14	4767.67
471.32	4704.48
471.50	4751.29
471.68	4720.86
471.86	4947.89
472.04	4943.21
472.22	4919.81
472.40	4786.40
472.58	5027.47
472.77	4746.61
472.95	4966.62
473.13	5170.24
473.31	4964.28
473.49	5013.43
473.67	4994.70
473.85	5116.41
474.03	5219.39
474.21	5184.29
474.39	5280.25
474.57	5301.31
474.75	5121.09
474.93	5172.58
475.12	5322.38
475.30	5298.97
475.48	5233.44
475.66	5240.46
475.84	5338.76
476.02	5317.70
476.20	5493.24
476.38	5420.68
476.56	5556.43
476.74	5392.59
476.92	5561.11
477.10	5570.48
477.28	5762.40
477.46	5577.50
477.64	5746.02
477.82	5687.50
478.00	5923.90
478.18	5858.36
478.36	5771.76
478.54	5959.00
478.72	6017.52
478.90	5966.03
479.08	6033.90
479.26	6033.90
479.44	6059.65
479.62	6251.57
479.80	6160.29
479.98	6113.48
480.16	6361.58
480.34	6413.07
480.52	6487.96
480.70	6380.30
480.88	6164.97
481.06	6420.09
481.24	6473.92
481.41	6466.90
481.59	6579.25
481.77	6546.48
481.95	6600.31
482.13	6740.74
482.31	6722.02
482.49	6612.01
482.67	6853.09
482.85	6869.47
483.03	7037.99
483.21	6923.30
483.39	6981.82
483.57	7129.27
483.74	7138.63
483.92	7143.32
484.10	7276.73
484.28	7215.87
484.46	7265.02
484.64	7545.89
484.82	7360.98
485.00	7459.29
485.18	7520.14
485.35	7669.94
485.53	7861.86
485.71	7583.34
485.89	7698.02
486.07	7789.30
486.25	7829.09
486.43	7847.82
486.61	8021.02
486.78	8100.59
486.96	8042.08
487.14	8257.41
487.32	8229.32
487.50	8262.09
487.68	8461.04
487.85	8458.70
488.03	8491.46
488.21	8468.06
488.39	8627.21
488.57	8386.14
488.75	8725.52
488.92	8587.43
489.10	8772.33
489.28	8683.39
489.46	8994.68
489.64	8943.19
489.81	9151.49
489.99	9067.24
490.17	9097.66
490.35	9327.03
490.53	9158.52
490.70	9362.14
490.88	9062.55
491.06	9329.38
491.24	9483.85
491.41	9336.40
491.59	9591.52
491.77	9533.00
491.95	9589.17
492.13	9612.58
492.30	10026.86
492.48	9820.89
492.66	9872.38
492.84	9769.40
493.01	10125.16
493.19	10005.79
493.37	9858.34
493.54	10040.90
493.72	10228.14
493.90	10059.62
494.08	10389.64
494.25	10312.40
494.43	10160.27
494.61	10464.54
494.79	10537.09
494.96	10499.64
495.14	10380.28
495.32	10815.62
495.49	10677.52
495.67	10754.76
495.85	10810.93
496.02	10911.58
496.20	10729.02
496.38	10637.73
496.55	10944.34
496.73	11243.93
496.91	11332.87
497.09	11213.51
497.26	11169.04
497.44	11059.03
497.62	11269.68
497.79	11309.47
497.97	11332.87
498.14	11545.86
498.32	11683.95
498.50	11541.18
498.67	11625.44
498.85	11700.34
499.03	11625.44
499.20	11637.14
499.38	11669.91
499.56	11604.38
499.73	11985.88
499.91	11789.28
500.08	11871.20
500.26	12088.87
500.44	12004.61
500.61	12140.36
500.79	12049.08
500.97	12016.31
501.14	12587.40
501.32	12163.76
501.49	12182.49
501.67	12084.19
501.84	12180.15
502.02	12287.81
502.20	12353.35
502.37	12580.38
502.55	12470.37
502.72	12306.54
502.90	12573.36
503.07	12463.35
503.25	12566.34
503.43	12400.16
503.60	12713.79
503.78	12868.27
503.95	12929.12
504.13	12896.35
504.30	12774.64
504.48	13020.40
504.65	12961.89
504.83	13165.51
505.01	13149.13
505.18	12786.35
505.36	13095.30
505.53	12996.99
505.71	13022.74
505.88	13160.83
506.06	13099.98
506.23	13181.90
506.41	13022.74
506.58	13270.84
506.76	13228.71
506.93	13252.11
507.11	13287.22
507.28	13558.72
507.46	13582.13
507.63	13458.08
507.81	13540.00
507.98	13497.87
508.16	13455.74
508.33	13593.83
508.50	13795.12
508.68	13668.73
508.85	13837.25
509.03	13907.46
509.20	13860.65
509.38	14085.34
509.55	13973.00
509.73	14281.95
509.90	14150.88
510.08	14300.67
510.25	14097.05
510.42	14181.31
510.60	14160.24
510.77	14221.10
510.95	14340.46
511.12	14398.98
511.30	14267.91
511.47	14361.53
511.64	14714.95
511.82	14497.28
511.99	14431.74
512.17	14508.98
512.34	14497.28
512.51	14754.74
512.69	14604.94
512.86	14698.56
513.04	14806.23
513.21	14532.39
513.38	14616.65
513.56	14707.93
513.73	14747.72
513.90	14792.19
514.08	14946.66
514.25	15019.22
514.43	14979.43
514.60	15080.07
514.77	15204.12
514.95	15080.07
515.12	15019.22
515.29	15302.42
515.47	15199.44
515.64	15353.91
515.81	15056.67
515.99	15187.74
516.16	15297.74
516.33	15484.98
516.51	15454.56
516.68	15417.11
516.85	15414.77
517.03	15466.26
517.20	15719.04
517.37	15255.61
517.54	15477.96
517.72	15627.76
517.89	15950.75
518.06	15587.97
518.24	15777.55
518.41	15756.49
518.58	15646.48
518.75	15496.69
518.93	15632.44
519.10	15644.14
519.27	15683.93
519.45	15878.19
519.62	15892.24
519.79	15803.30
519.96	16149.70
520.14	16109.91
520.31	15927.35
520.48	16173.10
520.65	15805.64
520.83	16252.68
521.00	16376.73
521.17	16154.38
521.34	16177.78
521.52	16079.48
521.69	16353.32
521.86	16325.24
522.03	15971.82
522.20	16177.78
522.38	16189.49
522.55	16528.86
522.72	16365.03
522.89	16287.79
523.07	16334.60
523.24	16477.37
523.41	16475.03
523.58	16578.01
523.75	16570.99
523.92	16549.93
524.10	16620.14
524.27	16893.99
524.44	16531.20
524.61	17025.06
524.78	16910.37
524.96	16908.03
525.13	16837.81
525.30	17284.86
525.47	17273.15
525.64	16957.18
525.81	17254.43
525.98	17128.04
526.16	16957.18
526.33	16828.45
526.50	17298.90
526.67	17195.92
526.84	17191.23
527.01	17060.16
527.18	17254.43
527.36	17177.19
527.53	17209.96
527.70	17434.65
527.87	17308.26
528.04	17568.06
528.21	17207.62
528.38	17467.42
528.55	17207.62
528.72	17228.68
528.89	17252.09
529.07	17596.15
529.24	17334.01
529.41	17610.19
529.58	17460.40
529.75	17439.33
529.92	17963.61
530.09	17619.55
530.26	17364.43
530.43	17708.49
530.60	17422.95
530.77	17771.69
530.94	17436.99
531.11	17680.41
531.28	17795.09
531.46	17893.40
531.63	17905.10
531.80	17462.74
531.97	17855.95
532.14	17968.29
532.31	17996.38
532.48	17830.20
532.65	18359.16
532.82	18082.98
532.99	17755.30
533.16	18106.38
533.33	18153.20
533.50	18244.48
533.67	18181.28
533.84	18286.61
534.01	18300.65
534.18	18384.91
534.35	18333.42
534.52	18125.11
534.69	18551.09
534.86	18260.86
535.03	18092.34
535.20	18185.96
535.37	18359.16
535.54	18490.23
535.71	18326.39
535.88	18588.53
536.05	18579.17
536.22	18593.22
536.38	18693.86
536.55	18625.98
536.72	18602.58
536.89	18735.99
537.06	18761.73
537.23	18747.69
537.40	18752.37
537.57	18597.90
537.74	18864.72
537.91	18902.17
538.08	18787.48
538.25	18967.70
538.42	18757.05
538.59	18958.34
538.75	18630.66
538.92	18792.16
539.09	18897.49
539.26	18902.17
539.43	18890.46
539.60	18963.02
539.77	19133.88
539.94	19075.37
540.11	19002.81
540.28	19431.13
540.44	19218.14
540.61	19002.81
540.78	19274.31
540.95	19606.67
541.12	19604.33
541.29	19365.59
541.46	19775.19
541.62	19576.24
541.79	19744.76
541.96	19681.56
542.13	19943.70
542.30	19566.88
542.47	19634.75
542.63	19740.08
542.80	19496.66
542.97	20032.65
543.14	19976.47
543.31	20049.03
543.48	19772.85
543.64	20278.40
543.81	19983.49
543.98	19833.70
544.15	19920.30
544.32	19988.18
544.48	20060.73
544.65	19840.72
544.82	20072.43
544.99	19915.62
545.16	20252.66
545.32	20095.84
545.49	20634.16
545.66	21095.25
545.83	21102.27
546.00	21064.82
546.16	20685.65
546.33	20465.64
546.50	20144.99
546.67	20175.42
546.83	20095.84
547.00	20114.56
547.17	19878.17
547.34	19843.06
547.50	20222.23
547.67	20210.53
547.84	20430.54
548.00	20386.07
548.17	20624.80
548.34	20067.75
548.51	20152.01
548.67	19936.68
548.84	20418.83
549.01	20219.89
549.18	20215.21
549.34	20215.21
549.51	20435.22
549.68	20187.12
549.84	20365.00
550.01	20393.09
550.18	20381.38
550.34	20554.58
550.51	20390.75
550.68	20489.05
550.84	20049.03
551.01	20088.82
551.18	20271.38
551.34	20128.61
551.51	20493.73
551.68	20233.93
551.84	20285.42
552.01	20229.25
552.18	20376.70
552.34	20552.24
552.51	20650.55
552.68	20100.52
552.84	20255.00
553.01	20011.58
553.18	20830.77
553.34	20606.08
553.51	20439.90
553.67	20475.01
553.84	20423.51
554.01	20767.57
554.17	20535.86
554.34	20683.31
554.51	20725.44
554.67	20549.90
554.84	20423.51
555.00	20191.80
555.17	20142.65
555.33	20545.22
555.50	20479.69
555.67	20360.32
555.83	20620.12
556.00	20673.95
556.16	20945.45
556.33	20606.08
556.50	20585.01
556.66	20655.23
556.83	20629.48
556.99	20795.66
557.16	20624.80
557.32	21062.48
557.49	20741.83
557.65	20648.21
557.82	20718.42
557.98	20624.80
558.15	20549.90
558.32	20987.58
558.48	20606.08
558.65	20879.92
558.81	20870.56
558.98	20929.07
559.14	20812.04
559.31	21010.99
559.47	20690.34
559.64	20807.36
559.80	20716.08
559.97	20966.52
560.13	20870.56
560.30	20737.15
560.46	21013.33
560.63	21118.65
560.79	20823.75
560.96	21074.18
561.12	20868.22
561.29	20643.52
561.45	21118.65
561.61	21104.61
561.78	21015.67
561.94	21181.85
562.11	21259.09
562.27	21149.08
562.44	20915.03
562.60	21071.84
562.77	20954.82
562.93	20905.66
563.10	21170.15
563.26	20943.11
563.42	21125.68
563.59	21053.12
563.75	20900.98
563.92	21411.22
564.08	21188.87
564.24	21259.09
564.41	21326.96
564.57	20994.61
564.74	20968.86
564.90	21474.42
565.07	21116.31
565.23	21039.08
565.39	21280.15
565.56	21202.91
565.72	21172.49
565.88	21270.79
566.05	21055.46
566.21	21404.20
566.38	21235.68
566.54	21282.49
566.70	21146.74
566.87	21490.80
567.03	21095.25
567.19	21076.52
567.36	21364.41
567.52	21252.06
567.68	21259.09
567.85	21193.55
568.01	21202.91
568.17	21312.92
568.34	21362.07
568.50	21205.25
568.66	21111.63
568.83	21156.10
568.99	21205.25
569.15	21179.51
569.32	21301.22
569.48	21074.18
569.64	21516.54
569.81	20996.95
569.97	21102.27
570.13	21326.96
570.30	21144.40
570.46	21261.43
570.62	21460.37
570.78	21366.75
570.95	21167.80
571.11	21397.18
571.27	21270.79
571.43	21338.66
571.60	21198.23
571.76	21163.12
571.92	21359.73
572.09	21062.48
572.25	21352.71
572.41	21460.37
572.57	21284.83
572.74	21516.54
572.90	21495.48
573.06	21385.47
573.22	21490.80
573.38	21624.21
573.55	21188.87
573.71	21179.51
573.87	21226.32
574.03	21413.56
574.20	21668.68
574.36	21139.72
574.52	21156.10
574.68	21572.72
574.84	21750.60
575.01	21163.12
575.17	21350.37
575.33	21497.82
575.49	21298.88
575.65	21366.75
575.82	21692.08
575.98	21277.81
576.14	21535.27
576.30	21626.55
576.46	21561.02
576.62	21612.51
576.79	21645.27
576.95	21659.32
577.11	21582.08
577.27	21474.42
577.43	21689.74
577.59	21408.88
577.75	21362.07
577.92	21186.53
578.08	21401.86
578.24	21326.96
578.40	21511.86
578.56	21553.99
578.72	21731.87
578.88	21977.63
579.04	21820.81
579.21	21546.97
579.37	21682.72
579.53	21479.10
579.69	21553.99
579.85	21635.91
580.01	21853.58
580.17	21458.03
580.33	21394.84
580.49	21769.32
580.65	21680.38
580.82	21502.50
580.98	21373.77
581.14	21357.39
581.30	21507.18
581.46	21310.58
581.62	21214.62
581.78	21006.31
581.94	21378.45
582.10	21568.04
582.26	21500.16
582.42	21434.63
582.58	21331.64
582.74	21652.30
582.90	21287.17
583.06	21469.73
583.22	21383.13
583.38	21532.93
583.54	21844.22
583.70	21617.19
583.86	21458.03
584.02	21226.32
584.18	21385.47
584.34	21371.43
584.50	21448.67
584.66	21207.59
584.82	21397.18
584.98	21324.62
585.14	21582.08
585.30	21455.69
585.46	21446.33
585.62	21514.20
585.78	21816.13
585.94	21546.97
586.10	21535.27
586.26	21436.97
586.42	21462.71
586.58	21755.28
586.74	21593.78
586.90	21273.13
587.06	21387.82
587.22	21872.31
587.38	21525.91
587.54	21736.56
587.70	21940.18
587.86	21844.22
588.02	21834.86
588.18	21699.11
588.34	21614.85
588.49	21881.67
588.65	21692.08
588.81	21458.03
588.97	21755.28
589.13	21235.68
589.29	21799.75
589.45	21635.91
589.61	21504.84
589.77	21392.50
589.93	21867.63
590.08	21788.05
590.24	21549.31
590.40	21750.60
590.56	21713.15
590.72	21642.93
590.88	21511.86
591.04	21338.66
591.20	21724.85
591.35	21914.44
591.51	21895.71
591.67	21902.73
591.83	21825.50
591.99	21521.23
592.15	21865.28
592.31	21546.97
592.46	21673.36
592.62	21738.90
592.78	21956.57
592.94	21874.65
593.10	21596.12
593.26	21710.81
593.41	21905.07
593.57	21720.17
593.73	21542.29
593.89	22012.74
594.05	21628.89
594.20	21603.14
594.36	21596.12
594.52	21710.81
594.68	21687.40
594.84	21521.23
594.99	21991.67
595.15	21504.84
595.31	21720.17
595.47	21441.65
595.62	21645.27
595.78	21645.27
595.94	21717.83
596.10	22176.58
596.25	21624.21
596.41	21797.41
596.57	21706.13
596.73	21907.41
596.88	21432.29
597.04	21879.33
597.20	21792.73
597.36	22054.87
597.51	22153.17
597.67	21553.99
597.83	21633.57
597.99	21418.24
598.14	21837.20
598.30	21745.92
598.46	21539.95
598.61	21841.88
598.77	21879.33
598.93	21659.32
599.09	21612.51
599.24	22036.14
599.40	21759.96
599.56	21947.20
599.71	21907.41
599.87	21909.75
600.03	21736.56
600.18	21816.13
600.34	21546.97
600.50	21596.12
600.65	21682.72
600.81	21891.03
600.97	21851.24
601.12	21947.20
601.28	21792.73
601.44	21680.38
601.59	21734.21
601.75	21436.97
601.91	21771.66
602.06	21511.86
602.22	21703.79
602.37	21514.20
602.53	22038.48
602.69	21757.62
602.84	21532.93
603.00	21907.41
603.16	22106.36
603.31	21792.73
603.47	21685.06
603.62	21710.81
603.78	21537.61
603.94	21399.52
604.09	21633.57
604.25	21809.11
604.40	21834.86
604.56	21558.67
604.71	21656.98
604.87	21408.88
605.03	21937.84
605.18	21635.91
605.34	21668.68
605.49	21303.56
605.65	21467.39
605.80	21689.74
605.96	21649.96
606.12	21841.88
606.27	21942.52
606.43	21797.41
606.58	21621.87
606.74	21575.06
606.89	21713.15
607.05	21600.80
607.20	21465.05
607.36	21549.31
607.51	21589.10
607.67	21497.82
607.82	21525.91
607.98	21458.03
608.13	21476.76
608.29	21429.94
608.44	21525.91
608.60	21708.47
608.75	21708.47
608.91	21472.07
609.06	21490.80
609.22	21551.65
609.37	21542.29
609.53	21703.79
609.68	21603.14
609.84	21544.63
609.99	21759.96
610.15	21933.16
610.30	21867.63
610.46	22036.14
610.61	22295.94
610.76	22668.09
610.92	22649.36
611.07	22881.08
611.23	22836.61
611.38	22941.93
611.54	22602.55
611.69	22794.48
611.84	22314.67
612.00	22237.43
612.15	22092.32
612.31	22029.12
612.46	21996.35
612.62	21902.73
612.77	21776.34
612.92	21411.22
613.08	21598.46
613.23	21539.95
613.39	21245.04
613.54	21483.78
613.69	21411.22
613.85	21254.40
614.00	21769.32
614.15	21727.19
614.31	21322.28
614.46	21401.86
614.62	21624.21
614.77	20985.24
614.92	21317.60
615.08	21291.85
615.23	21319.94
615.38	21490.80
615.54	21027.37
615.69	20889.28
615.84	21029.71
616.00	21301.22
616.15	21036.74
616.30	20996.95
616.46	21067.16
616.61	20980.56
616.76	20737.15
616.92	20702.04
617.07	21043.76
617.22	21027.37
617.37	20753.53
617.53	20947.79
617.68	20844.81
617.83	20966.52
617.99	21261.43
618.14	21036.74
618.29	20952.48
618.45	20723.10
618.60	21125.68
618.75	20711.40
618.90	20372.02
619.06	20800.34
619.21	20629.48
619.36	20830.77
619.51	20699.70
619.67	20250.32
619.82	20608.42
619.97	20634.16
620.12	20676.29
620.28	20638.84
620.43	20563.95
620.58	20854.17
620.73	20680.97
620.89	21102.27
621.04	20568.63
621.19	20669.27
621.34	20699.70
621.49	20819.07
621.65	20781.62
621.80	20746.51
621.95	20500.75
622.10	20652.89
622.25	20671.61
622.41	20690.34
622.56	20709.06
622.71	20851.83
622.86	20608.42
623.01	20510.11
623.16	20353.30
623.32	20491.39
623.47	20549.90
623.62	20276.06
623.77	20519.48
623.92	20355.64
624.07	20379.04
624.23	20577.99
624.38	20631.82
624.53	20620.12
624.68	20386.07
624.83	20259.68
624.98	20451.60
625.13	20278.40
625.29	20456.28
625.44	20439.90
625.59	20004.56
625.74	20142.65
625.89	20102.86
626.04	20217.55
626.19	20112.22
626.34	20025.62
626.49	20013.92
626.65	19924.98
626.80	20217.55
626.95	19955.41
627.10	19953.07
627.25	19800.93
627.40	20039.67
627.55	20084.14
627.70	19885.19
627.85	20006.90
628.00	19946.05
628.15	19988.18
628.30	19822.00
628.45	20144.99
628.60	19873.49
628.76	19819.66
628.91	19829.02
629.06	19693.27
629.21	19714.33
629.36	19749.44
629.51	19749.44
629.66	19852.42
629.81	19637.09
629.96	19686.25
630.11	19784.55
630.26	19772.85
630.41	19943.70
630.56	20025.62
630.71	19957.75
630.86	19658.16
631.01	19924.98
631.16	19943.70
631.31	19550.49
631.46	19286.01
631.61	19854.76
631.76	19768.16
631.91	19847.74
632.06	19793.91
632.21	19431.13
632.36	19501.34
632.51	19487.30
632.66	19585.60
632.81	19552.84
632.96	19751.78
633.10	19665.18
633.25	19372.61
633.40	19157.28
633.55	19349.21
633.70	19178.35
633.85	19295.38
634.00	19569.22
634.15	19405.38
634.30	19080.05
634.45	19351.55
634.60	19697.95
634.75	19370.27
634.90	19417.08
635.05	19119.84
635.19	19365.59
635.34	19428.79
635.49	19129.20
635.64	19309.42
635.79	19396.02
635.94	19510.71
636.09	19005.15
636.24	19290.70
636.39	18972.38
636.53	19606.67
636.68	18988.77
636.83	19339.85
636.98	19218.14
637.13	19178.35
637.28	19042.60
637.43	19122.18
637.57	19063.66
637.72	18888.12
637.87	19002.81
638.02	18967.70
638.17	18972.38
638.32	18855.36
638.46	18796.84
638.61	19222.82
638.76	19108.13
638.91	19262.61
639.06	19037.92
639.20	19253.25
639.35	18871.74
639.50	18642.37
639.65	18787.48
639.80	18820.25
639.94	18885.78
640.09	18707.90
640.24	18909.19
640.39	18934.93
640.54	18803.86
640.68	18621.30
640.83	19070.68
640.98	18637.69
641.13	18663.43
641.27	18555.77
641.42	18717.26
641.57	18607.26
641.72	18647.05
641.86	18670.45
642.01	18307.67
642.16	18520.66
642.31	18649.39
642.45	18579.17
642.60	18537.04
642.75	18675.13
642.90	18654.07
643.04	18497.25
643.19	18483.21
643.34	18813.23
643.48	18743.01
643.63	18417.68
643.78	18321.71
643.93	18649.39
644.07	18185.96
644.22	18204.69
644.37	18036.17
644.51	18625.98
644.66	18623.64
644.81	18532.36
644.95	18539.38
645.10	18178.94
645.25	18647.05
645.39	18476.19
645.54	18471.51
645.69	18621.30
645.83	18562.79
645.98	18209.37
646.13	18317.03
646.27	18462.15
646.42	18104.04
646.57	18293.63
646.71	18113.41
646.86	18054.89
647.00	18286.61
647.15	18291.29
647.30	18298.31
647.44	18466.83
647.59	18068.94
647.74	18132.13
647.88	18157.88
648.03	18200.01
648.17	18167.24
648.32	17923.82
648.47	17809.14
648.61	17865.31
648.76	18038.51
648.90	18324.05
649.05	18429.38
649.20	18171.92
649.34	17912.12
649.49	18174.26
649.63	18356.82
649.78	17987.02
649.92	18003.40
650.07	18370.86
650.21	18059.57
650.36	17902.76
650.51	17834.88
650.65	18169.58
650.80	18115.75
650.94	18185.96
651.09	17776.37
651.23	17502.53
651.38	17839.56
651.52	18092.34
651.67	18017.44
651.81	17851.27
651.96	17832.54
652.10	17827.86
652.25	17954.25
652.39	17685.09
652.54	17448.69
652.68	17652.32
652.83	17692.11
652.97	17511.89
653.12	17579.76
653.26	17841.90
653.41	17879.35
653.55	17830.20
653.70	17685.09
653.84	17790.41
653.99	17647.64
654.13	17657.00
654.27	17900.42
654.42	17745.94
654.56	17598.49
654.71	17568.06
654.85	17603.17
655.00	17657.00
655.14	17233.36
655.29	17209.96
655.43	17565.72
655.57	17310.60
655.72	17322.30
655.86	17329.33
656.01	17458.06
656.15	17181.87
656.30	17439.33
656.44	17226.34
656.58	17322.30
656.73	17048.46
656.87	17317.62
657.01	16987.61
657.16	17392.52
657.30	17326.99
657.45	17322.30
657.59	17319.96
657.73	17369.12
657.88	17521.25
658.02	17235.70
658.16	17359.75
658.31	17202.94
658.45	17209.96
658.60	17081.23
658.74	17111.66
658.88	17130.38
659.03	17357.41
659.17	17205.28
659.31	17043.78
659.46	17090.59
659.60	17317.62
659.74	17167.83
659.89	16950.16
660.03	16840.15
660.17	17114.00
660.32	16954.84
660.46	16922.07
660.60	16938.46
660.74	16954.84
660.89	16767.60
661.03	16507.80
661.17	16758.24
661.32	16673.98
661.46	16961.86
661.60	16652.91
661.74	16741.85
661.89	16842.50
662.03	16692.70
662.17	16891.65
662.31	16783.98
662.46	16484.39
662.60	16472.69
662.74	16592.06
662.88	16421.20
663.03	16760.58
663.17	16793.34
663.31	16486.73
663.45	16245.66
663.60	16549.93
663.74	16528.86
663.88	16360.34
664.02	16397.79
664.17	16435.24
664.31	15943.73
664.45	16070.12
664.59	16266.72
664.73	16421.20
664.88	16320.56
665.02	16163.74
665.16	16519.50
665.30	16245.66
665.44	15971.82
665.59	16224.59
665.73	16376.73
665.87	15882.88
666.01	15985.86
666.15	16264.38
666.29	15988.20
666.44	15838.41
666.58	15875.85
666.72	15822.02
666.86	15747.12
667.00	15983.52
667.14	15534.14
667.28	15602.01
667.43	15735.42
667.57	15742.44
667.71	15782.23
667.85	15726.06
667.99	15470.94
668.13	15531.80
668.27	15765.85
668.41	15520.09
668.56	15281.36
668.70	15627.76
668.84	15353.91
668.98	15555.20
669.12	15309.44
669.26	15566.90
669.40	15414.77
669.54	15590.31
669.68	15283.70
669.82	15538.82
669.96	15229.87
670.10	15583.29
670.25	15456.90
670.39	15428.81
670.53	15145.61
670.67	15197.10
670.81	15293.06
670.95	15096.46
671.09	14934.96
671.23	15169.01
671.37	15431.15
671.51	15365.62
671.65	15124.54
671.79	14895.17
671.93	14745.38
672.07	15073.05
672.21	15122.20
672.35	14696.22
672.49	14944.32
672.63	15016.88
672.77	14817.93
672.91	14761.76
673.05	14640.05
673.19	14911.55
673.33	14604.94
673.47	14623.67
673.61	14258.54
673.75	14342.80
673.89	14314.72
674.03	14314.72
674.17	14389.61
674.31	14567.49
674.45	14546.43
674.59	14520.68
674.73	14420.04
674.87	14286.63
675.01	14127.47
675.15	14071.30
675.29	14305.35
675.43	14209.39
675.56	14511.32
675.70	14115.77
675.84	14307.69
675.98	13750.65
676.12	13877.04
676.26	14169.60
676.40	13710.86
676.54	13767.03
676.68	13802.14
676.82	13865.33
676.96	13841.93
677.10	13994.06
677.23	13666.39
677.37	13900.44
677.51	13692.13
677.65	13568.09
677.79	13474.46
677.93	13296.58
678.07	13472.12
678.21	13228.71
678.34	13263.82
678.48	13177.22
678.62	13172.54
678.76	13109.34
678.90	13355.10
679.04	13362.12
679.18	13099.98
679.31	12896.35
679.45	13057.85
679.59	12840.18
679.73	12973.59
679.87	12989.97
680.00	13060.19
680.14	12957.21
680.28	12730.17
680.42	12697.41
680.56	12489.10
680.70	12674.00
680.83	12786.35
680.97	12704.43
681.11	12674.00
681.25	12865.92
681.39	12578.04
681.52	12580.38
681.66	12723.15
681.80	12629.53
681.94	12891.67
682.07	12517.18
682.21	12571.02
682.35	12336.96
682.49	12564.00
682.62	12248.02
682.76	12044.40
682.90	12046.74
683.04	12049.08
683.17	12128.66
683.31	12063.12
683.45	11871.20
683.59	11927.37
683.72	11707.36
683.86	11831.41
684.00	11971.84
684.13	11749.49
684.27	11866.52
684.41	11789.28
684.55	11672.25
684.68	11737.79
684.82	11508.41
684.96	11522.46
685.09	11597.35
685.23	11751.83
685.37	11627.78
685.50	11513.10
685.64	11555.22
685.78	11477.99
685.91	11477.99
686.05	11297.77
686.19	11162.01
686.32	11470.97
686.46	11241.59
686.60	10984.13
686.73	11325.85
686.87	11211.17
687.01	11145.63
687.14	11314.15
687.28	11176.06
687.42	10988.82
687.55	10911.58
687.69	11152.65
687.82	10857.75
687.96	10906.90
688.10	11063.71
688.23	10862.43
688.37	10740.72
688.50	10614.33
688.64	10808.59
688.78	10506.66
688.91	10457.51
689.05	10441.13
689.18	10485.60
689.32	10289.00
689.46	10305.38
689.59	10619.01
689.73	10237.50
689.86	10478.58
690.00	10228.14
690.13	10441.13
690.27	10171.97
690.41	10153.24
690.54	9987.07
690.68	10026.86
690.81	10071.33
690.95	10113.45
691.08	10054.94
691.22	10005.79
691.35	10024.51
691.49	10113.45
691.62	9893.44
691.76	9701.52
691.89	9851.31
692.03	9769.40
692.16	9577.47
692.30	9647.69
692.43	9764.72
692.57	9713.22
692.70	9645.35
692.84	9563.43
692.97	9437.04
693.11	9507.26
693.24	9387.89
693.38	9266.18
693.51	9270.86
693.65	9312.99
693.78	9320.01
693.92	9341.08
694.05	9254.48
694.19	9291.93
694.32	9355.12
694.45	9334.06
694.59	9123.41
694.72	9116.39
694.86	8931.48
694.99	8835.52
695.13	8879.99
695.26	8835.52
695.39	8610.83
695.53	8709.13
695.66	8842.54
695.80	8629.56
695.93	8674.03
696.07	8830.84
696.20	8730.20
696.33	8786.37
696.47	8725.52
696.60	8482.10
696.73	8421.25
696.87	8374.44
697.00	8699.77
697.14	8472.74
697.27	8198.90
697.40	8131.02
697.54	8145.06
697.67	8149.75
697.80	8372.10
697.94	8208.26
698.07	8222.30
698.21	8077.19
698.34	8121.66
698.47	7906.33
698.61	8018.68
698.74	7988.25
698.87	8126.34
699.01	8046.76
699.14	7971.86
699.27	7939.10
699.40	8039.74
699.54	7765.90
699.67	7843.14
699.80	7934.42
699.94	7754.19
700.07	7581.00
700.20	7616.10
700.34	7536.52
700.47	7786.96
700.60	7726.11
700.73	7707.38
700.87	7492.05
701.00	7536.52
701.13	7424.18
701.26	7349.28
701.40	7372.69
701.53	7274.38
701.66	7564.61
701.79	7344.60
701.93	7552.91
702.06	7360.98
702.19	7225.23
702.32	7213.53
702.46	7176.08
702.59	7365.67
702.72	7124.59
702.85	7162.04
702.99	6981.82
703.12	6993.52
703.25	6991.18
703.38	7009.90
703.51	6951.39
703.65	6958.41
703.78	6874.15
703.91	6932.67
704.04	7030.97
704.17	7002.88
704.31	7047.35
704.44	6815.64
704.57	6775.85
704.70	6773.51
704.83	6677.55
704.96	6616.69
705.10	6663.51
705.23	6607.33
>>>>>End Processed Spectral Data<<<<<
