SpectraSuite Data File
++++++++++++++++++++++++++++++++++++
Date: Thu Oct 24 13:21:13 EDT 2013
User: stostad
Dark Spectrum Present: No
Reference Spectrum Present: No
Number of Sampled Component Spectra: 1
Spectrometers: USB2+H05261
Integration Time (usec): 100000 (USB2+H05261)
Spectra Averaged: 1 (USB2+H05261)
Boxcar Smoothing: 0 (USB2+H05261)
Correct for Electrical Dark: No (USB2+H05261)
Strobe/Lamp Enabled: No (USB2+H05261)
Correct for Detector Non-linearity: No (USB2+H05261)
Correct for Stray Light: No (USB2+H05261)
Number of Pixels in Processed Spectrum: 2048
>>>>>Begin Processed Spectral Data<<<<<
365.73	535.98
365.92	535.98
366.12	535.98
366.32	440.02
366.52	416.62
366.72	510.24
366.91	468.11
367.11	463.43
367.31	428.32
367.51	503.22
367.70	388.53
367.90	484.49
368.10	400.23
368.30	472.79
368.49	524.28
368.69	463.43
368.89	465.77
369.09	486.83
369.28	477.47
369.48	493.85
369.68	491.51
369.87	531.30
370.07	507.90
370.27	538.32
370.47	526.62
370.66	641.31
370.86	706.84
371.06	711.52
371.25	739.61
371.45	624.92
371.65	737.27
371.84	695.14
372.04	718.54
372.24	788.76
372.44	734.93
372.63	718.54
372.83	828.55
373.03	786.42
373.22	695.14
373.42	819.19
373.62	683.44
373.81	706.84
374.01	713.86
374.21	772.38
374.40	760.67
374.60	784.08
374.79	802.80
374.99	746.63
375.19	692.80
375.38	763.01
375.58	774.72
375.78	814.51
375.97	720.88
376.17	774.72
376.37	772.38
376.56	809.83
376.76	805.14
376.95	760.67
377.15	809.83
377.35	784.08
377.54	809.83
377.74	819.19
377.93	767.70
378.13	844.93
378.33	814.51
378.52	755.99
378.72	786.42
378.91	774.72
379.11	882.38
379.31	777.06
379.50	746.63
379.70	816.85
379.89	805.14
380.09	753.65
380.28	751.31
380.48	753.65
380.68	788.76
380.87	777.06
381.07	788.76
381.26	819.19
381.46	781.74
381.65	788.76
381.85	844.93
382.04	760.67
382.24	807.48
382.43	812.17
382.63	777.06
382.83	802.80
383.02	842.59
383.22	851.96
383.41	772.38
383.61	861.32
383.80	758.33
384.00	823.87
384.19	702.16
384.39	847.27
384.58	802.80
384.78	821.53
384.97	816.85
385.17	870.68
385.36	800.46
385.56	868.34
385.75	788.76
385.95	828.55
386.14	840.25
386.34	793.44
386.53	847.27
386.72	755.99
386.92	889.40
387.11	912.81
387.31	830.89
387.50	863.66
387.70	882.38
387.89	863.66
388.09	826.21
388.28	828.55
388.48	816.85
388.67	957.28
388.86	905.79
389.06	844.93
389.25	858.98
389.45	821.53
389.64	880.04
389.84	924.51
390.03	835.57
390.22	901.11
390.42	929.19
390.61	891.74
390.81	990.05
391.00	1013.45
391.19	910.47
391.39	952.60
391.58	957.28
391.78	823.87
391.97	926.85
392.16	866.00
392.36	896.43
392.55	917.49
392.75	936.21
392.94	938.55
393.13	929.19
393.33	901.11
393.52	952.60
393.71	1008.77
393.91	964.30
394.10	1036.86
394.29	919.83
394.49	922.17
394.68	959.62
394.88	971.32
395.07	1008.77
395.26	943.24
395.46	999.41
395.65	1104.73
395.84	978.34
396.04	1004.09
396.23	1018.13
396.42	1011.11
396.62	971.32
396.81	987.71
397.00	1100.05
397.19	926.85
397.39	1029.84
397.58	1013.45
397.77	1029.84
397.97	1039.20
398.16	1001.75
398.35	1064.94
398.55	1008.77
398.74	1022.81
398.93	1081.33
399.12	1121.12
399.32	1032.18
399.51	1036.86
399.70	968.98
399.90	1097.71
400.09	1095.37
400.28	1090.69
400.47	1137.50
400.67	1172.61
400.86	1046.22
401.05	1064.94
401.24	1123.46
401.44	1149.20
401.63	1074.31
401.82	1116.44
402.01	1086.01
402.21	1172.61
402.40	1107.07
402.59	1139.84
402.78	1149.20
402.97	1132.82
403.17	1142.18
403.36	1214.74
403.55	1165.59
403.74	1158.57
403.93	1163.25
404.13	1327.08
404.32	1289.64
404.51	1188.99
404.70	1282.61
404.89	1181.97
405.09	1188.99
405.28	1203.04
405.47	1198.35
405.66	1196.01
405.85	1249.85
406.05	1352.83
406.24	1296.66
406.43	1245.16
406.62	1219.42
406.81	1371.55
407.00	1303.68
407.20	1214.74
407.39	1291.98
407.58	1345.81
407.77	1420.71
407.96	1352.83
408.15	1357.51
408.34	1387.94
408.54	1303.68
408.73	1378.58
408.92	1399.64
409.11	1350.49
409.30	1441.77
409.49	1324.74
409.68	1430.07
409.87	1331.76
410.07	1343.47
410.26	1364.53
410.45	1390.28
410.64	1423.05
410.83	1406.66
411.02	1385.60
411.21	1411.34
411.40	1423.05
411.59	1458.15
411.78	1427.73
411.98	1453.47
412.17	1465.18
412.36	1448.79
412.55	1490.92
412.74	1575.18
412.93	1591.56
413.12	1600.93
413.31	1624.33
413.50	1570.50
413.69	1614.97
413.88	1645.40
414.07	1654.76
414.26	1579.86
414.45	1762.42
414.64	1551.78
414.83	1699.23
415.02	1671.14
415.22	1680.50
415.41	1577.52
415.60	1645.40
415.79	1614.97
415.98	1687.53
416.17	1708.59
416.36	1657.10
416.55	1629.01
416.74	1727.32
416.93	1785.83
417.12	1722.63
417.31	1715.61
417.50	1729.66
417.69	1825.62
417.88	1891.15
418.07	1774.13
418.26	1816.26
418.45	1818.60
418.64	1893.49
418.83	1853.70
419.02	1825.62
419.21	1827.96
419.39	1823.28
419.58	1806.89
419.77	1884.13
419.96	1830.30
420.15	1902.86
420.34	1886.47
420.53	1874.77
420.72	1968.39
420.91	1895.83
421.10	1898.17
421.29	1959.03
421.48	1956.69
421.67	1977.75
421.86	1994.14
422.05	1898.17
422.24	1998.82
422.43	1944.99
422.61	1928.60
422.80	2019.88
422.99	2008.18
423.18	1893.49
423.37	1980.09
423.56	1963.71
423.75	1989.46
423.94	1893.49
424.13	1891.15
424.32	1949.67
424.50	2118.18
424.69	2085.42
424.88	2101.80
425.07	2019.88
425.26	2045.63
425.45	2012.86
425.64	2010.52
425.83	1994.14
426.01	1998.82
426.20	1970.73
426.39	1975.41
426.58	2066.69
426.77	1980.09
426.96	2010.52
427.15	2043.29
427.33	2059.67
427.52	2029.24
427.71	2001.16
427.90	2122.87
428.09	2172.02
428.28	2059.67
428.46	2066.69
428.65	2038.61
428.84	2083.08
429.03	2176.70
429.22	2167.34
429.40	2195.42
429.59	2186.06
429.78	2115.84
429.97	2115.84
430.16	2092.44
430.34	2237.55
430.53	2162.66
430.72	2218.83
430.91	2186.06
431.10	2176.70
431.28	2312.45
431.47	2146.27
431.66	2197.76
431.85	2157.97
432.03	2249.25
432.22	2249.25
432.41	2190.74
432.60	2237.55
432.79	2324.15
432.97	2265.64
433.16	2289.04
433.35	2272.66
433.54	2289.04
433.72	2324.15
433.91	2300.75
434.10	2326.49
434.28	2380.32
434.47	2359.26
434.66	2459.90
434.85	2478.63
435.03	2469.27
435.22	2677.57
435.41	2906.95
435.59	2792.26
435.78	2651.83
435.97	2642.46
436.16	2537.14
436.34	2387.35
436.53	2560.55
436.72	2487.99
436.90	2422.45
437.09	2469.27
437.28	2349.90
437.46	2408.41
437.65	2476.29
437.84	2422.45
438.02	2392.03
438.21	2548.84
438.40	2623.74
438.58	2644.81
438.77	2579.27
438.96	2567.57
439.14	2637.78
439.33	2719.70
439.52	2581.61
439.70	2574.59
439.89	2640.12
440.08	2726.72
440.26	2708.00
440.45	2541.82
440.63	2696.30
440.82	2693.96
441.01	2609.70
441.19	2766.51
441.38	2785.24
441.57	2827.37
441.75	2818.00
441.94	2757.15
442.12	2855.45
442.31	2906.95
442.50	2775.88
442.68	2867.16
442.87	2815.66
443.05	2818.00
443.24	2843.75
443.43	2876.52
443.61	2799.28
443.80	2946.73
443.98	2801.62
444.17	2775.88
444.35	2913.97
444.54	2885.88
444.73	2906.95
444.91	2853.11
445.10	2939.71
445.28	2984.18
445.47	2881.20
445.65	2883.54
445.84	2836.73
446.02	2918.65
446.21	2981.84
446.39	2991.20
446.58	2923.33
446.77	2904.60
446.95	2928.01
447.14	2986.52
447.32	3033.33
447.51	2867.16
447.69	3148.02
447.88	2951.42
448.06	2925.67
448.25	3012.27
448.43	3026.31
448.62	2956.10
448.80	2923.33
448.99	2965.46
449.17	2988.86
449.36	2970.14
449.54	3101.21
449.73	2937.37
449.91	3197.17
450.10	3075.46
450.28	3129.30
450.46	3150.36
450.65	3091.85
450.83	3148.02
451.02	3028.65
451.20	3145.68
451.39	3117.59
451.57	3199.51
451.76	2995.89
451.94	3183.13
452.13	3145.68
452.31	3262.71
452.49	3143.34
452.68	3330.58
452.86	3197.17
453.05	3286.11
453.23	3087.17
453.42	3129.30
453.60	3164.40
453.78	3262.71
453.97	3190.15
454.15	3339.94
454.34	3183.13
454.52	3159.72
454.70	3176.11
454.89	3358.67
455.07	3267.39
455.26	3295.47
455.44	3410.16
455.62	3239.30
455.81	3377.39
455.99	3431.23
456.17	3379.73
456.36	3412.50
456.54	3363.35
456.73	3398.46
456.91	3368.03
457.09	3471.01
457.28	3543.57
457.46	3433.57
457.64	3410.16
457.83	3515.48
458.01	3449.95
458.19	3466.33
458.38	3421.86
458.56	3592.72
458.74	3648.90
458.93	3625.49
459.11	3564.64
459.29	3499.10
459.48	3595.06
459.66	3508.46
459.84	3676.98
460.03	3658.26
460.21	3674.64
460.39	3609.11
460.57	3744.86
460.76	3707.41
460.94	3625.49
461.12	3669.96
461.31	3590.38
461.49	3676.98
461.67	3737.84
461.85	3684.00
462.04	3801.03
462.22	3969.55
462.40	3808.05
462.59	3751.88
462.77	3826.78
462.95	3861.88
463.13	3569.32
463.32	3829.12
463.50	3796.35
463.68	3822.09
463.86	3751.88
464.05	3639.53
464.23	3948.48
464.41	3824.44
464.59	3875.93
464.78	3843.16
464.96	3810.39
465.14	3871.25
465.32	3854.86
465.50	3925.08
465.69	3920.40
465.87	3911.04
466.05	3985.93
466.23	3941.46
466.41	3829.12
466.60	3927.42
466.78	3927.42
466.96	3911.04
467.14	4011.68
467.32	4091.26
467.51	3946.14
467.69	3754.22
467.87	4056.15
468.05	3964.87
468.23	3920.40
468.41	4053.81
468.60	3957.85
468.78	4032.74
468.96	4030.40
469.14	4098.28
469.32	4077.21
469.50	4072.53
469.69	4131.05
469.87	4095.94
470.05	4189.56
470.23	4159.13
470.41	4093.60
470.59	4341.69
470.77	4142.75
470.95	4145.09
471.14	4271.48
471.32	4114.66
471.50	4091.26
471.68	4156.79
471.86	4315.95
472.04	4301.90
472.22	4432.97
472.40	4358.08
472.58	4479.79
472.77	4219.99
472.95	4442.34
473.13	4475.10
473.31	4339.35
473.49	4407.23
473.67	4428.29
473.85	4461.06
474.03	4596.81
474.21	4503.19
474.39	4622.56
474.57	4521.92
474.75	4599.15
474.93	4667.03
475.12	4578.09
475.30	4676.39
475.48	4685.75
475.66	4667.03
475.84	4610.86
476.02	4674.05
476.20	4622.56
476.38	4781.71
476.56	4938.53
476.74	4767.67
476.92	4865.97
477.10	4929.17
477.28	4854.27
477.46	4887.04
477.64	4858.95
477.82	4978.32
478.00	5008.75
478.18	5097.69
478.36	5078.96
478.54	5085.98
478.72	5298.97
478.90	5235.78
479.08	5322.38
479.26	5348.12
479.44	5329.40
479.62	5425.36
479.80	5460.47
479.98	5401.96
480.16	5425.36
480.34	5408.98
480.52	5628.99
480.70	5638.35
480.88	5490.90
481.06	5610.26
481.24	5657.07
481.41	5640.69
481.59	5844.32
481.77	5811.55
481.95	5806.87
482.13	5921.56
482.31	5914.53
482.49	6017.52
482.67	5811.55
482.85	6122.84
483.03	6038.58
483.21	6132.20
483.39	6274.98
483.57	5944.96
483.74	6188.38
483.92	6204.76
484.10	6230.51
484.28	6370.94
484.46	6511.37
484.64	6483.28
484.82	6574.56
485.00	6464.56
485.18	6766.49
485.35	6963.09
485.53	6698.61
485.71	6768.83
485.89	6773.51
486.07	6909.26
486.25	6913.94
486.43	6890.54
486.61	7054.37
486.78	7021.61
486.96	7162.04
487.14	7042.67
487.32	7073.10
487.50	7150.34
487.68	7260.34
487.85	7300.13
488.03	7417.16
488.21	7454.61
488.39	7470.99
488.57	7585.68
488.75	7646.53
488.92	7433.54
489.10	7632.49
489.28	7674.62
489.46	7791.64
489.64	7964.84
489.81	7978.89
489.99	7782.28
490.17	7925.05
490.35	7971.86
490.53	8180.17
490.70	8266.77
490.88	8006.97
491.06	8100.59
491.24	8250.39
491.41	8198.90
491.59	8315.92
491.77	8325.29
491.95	8463.38
492.13	8339.33
492.30	8428.27
492.48	8461.04
492.66	8638.92
492.84	8557.00
493.01	8720.84
493.19	8547.64
493.37	8514.87
493.54	8769.99
493.72	8655.30
493.90	8716.16
494.08	8894.04
494.25	8842.54
494.43	8922.12
494.61	9020.42
494.79	8999.36
494.96	8975.95
495.14	9298.95
495.32	9338.74
495.49	9207.67
495.67	9303.63
495.85	9308.31
496.02	9420.66
496.20	9554.07
496.38	9666.41
496.55	9563.43
496.73	9476.83
496.91	9762.37
497.09	9600.88
497.26	9666.41
497.44	9731.95
497.62	9598.54
497.79	9687.48
497.97	9942.60
498.14	9909.83
498.32	9937.91
498.50	9804.50
498.67	10019.83
498.85	10054.94
499.03	9968.34
499.20	10249.21
499.38	10150.90
499.56	10291.34
499.73	10384.96
499.91	10270.27
500.08	10415.38
500.26	10249.21
500.44	10406.02
500.61	10366.23
500.79	10476.24
500.97	10619.01
501.14	10560.50
501.32	10537.09
501.49	10581.56
501.67	10698.59
501.84	10789.87
502.02	10752.42
502.20	10752.42
502.37	10733.70
502.55	10892.85
502.72	10574.54
502.90	10874.13
503.07	11026.26
503.25	10771.15
503.43	10843.70
503.60	11059.03
503.78	10984.13
503.95	10930.30
504.13	10986.47
504.30	10930.30
504.48	10995.84
504.65	11318.83
504.83	11288.40
505.01	11211.17
505.18	11211.17
505.36	11218.19
505.53	11147.97
505.71	11131.59
505.88	11426.50
506.06	11236.91
506.23	11370.32
506.41	11269.68
506.58	11520.12
506.76	11257.98
506.93	11501.39
507.11	11536.50
507.28	11585.65
507.46	11463.94
507.63	11660.55
507.81	11805.66
507.98	11566.93
508.16	11644.17
508.33	11775.24
508.50	11782.26
508.68	11892.26
508.85	11957.80
509.03	11901.62
509.20	11908.65
509.38	12142.70
509.55	11995.25
509.73	11889.92
509.90	12107.59
510.08	12105.25
510.25	12217.60
510.42	12053.76
510.60	12194.19
510.77	12414.20
510.95	12383.77
511.12	12039.72
511.30	12418.88
511.47	12580.38
511.64	12301.86
511.82	12400.16
511.99	12231.64
512.17	12519.53
512.34	12304.20
512.51	12666.98
512.69	12704.43
512.86	12566.34
513.04	12634.21
513.21	12585.06
513.38	12688.04
513.56	12622.51
513.73	12545.27
513.90	12999.34
514.08	12781.67
514.25	13102.32
514.43	12971.25
514.60	13013.38
514.77	12879.97
514.95	12964.23
515.12	13149.13
515.29	12688.04
515.47	13348.08
515.64	12994.65
515.81	13050.83
515.99	13135.09
516.16	13444.04
516.33	13357.44
516.51	13078.91
516.68	13074.23
516.85	13280.20
517.03	13366.80
517.20	13352.76
517.37	13209.98
517.54	13434.68
517.72	13123.38
517.89	13132.75
518.06	13455.74
518.24	13579.79
518.41	13717.88
518.58	13523.62
518.75	13413.61
518.93	13511.91
519.10	13406.59
519.27	13685.11
519.45	13575.11
519.62	13497.87
519.79	13699.16
519.96	13626.60
520.14	13626.60
520.31	13736.60
520.48	13776.39
520.65	13968.32
520.83	14080.66
521.00	13891.08
521.17	13844.27
521.34	13902.78
521.52	14029.17
521.69	13879.38
521.86	13851.29
522.03	14040.87
522.20	14003.43
522.38	14181.31
522.55	14104.07
522.72	14253.86
522.89	14368.55
523.07	14115.77
523.24	14225.78
523.41	14122.79
523.58	14204.71
523.75	14375.57
523.92	14223.44
524.10	14434.08
524.27	14539.41
524.44	14017.47
524.61	14480.89
524.78	14469.19
524.96	14567.49
525.13	14232.80
525.30	14721.97
525.47	14579.20
525.64	14118.11
525.81	14668.14
525.98	14623.67
526.16	14682.18
526.33	14752.40
526.50	14642.39
526.67	14743.03
526.84	14689.20
527.01	14745.38
527.18	14544.09
527.36	14609.62
527.53	14623.67
527.70	15171.35
527.87	15014.54
528.04	14808.57
528.21	14890.49
528.38	15302.42
528.55	15073.05
528.72	14712.61
528.89	14796.87
529.07	15073.05
529.24	14895.17
529.41	14855.38
529.58	15150.29
529.75	15101.14
529.92	15295.40
530.09	14960.70
530.26	14829.63
530.43	15103.48
530.60	14913.89
530.77	14897.51
530.94	15012.20
531.11	15084.75
531.28	15124.54
531.46	15037.94
531.63	15274.34
531.80	15358.60
531.97	15321.15
532.14	15438.17
532.31	15339.87
532.48	15513.07
532.65	15140.93
532.82	15367.96
532.99	15463.92
533.16	15555.20
533.33	15461.58
533.50	15449.88
533.67	15545.84
533.84	15447.54
534.01	15564.56
534.18	15496.69
534.35	15908.62
534.52	15676.91
534.69	15791.59
534.86	15496.69
535.03	15552.86
535.20	15611.37
535.37	15733.08
535.54	15695.63
535.71	15665.21
535.88	15917.98
536.05	15515.41
536.22	15789.25
536.38	16156.72
536.55	15819.68
536.72	15712.02
536.89	15955.43
537.06	15969.48
537.23	15967.13
537.40	15712.02
537.57	15777.55
537.74	16081.82
537.91	15901.60
538.08	16032.67
538.25	15838.41
538.42	15833.72
538.59	16456.31
538.75	15836.06
538.92	16088.84
539.09	16112.25
539.26	16135.65
539.43	15999.90
539.60	16362.69
539.77	16175.44
539.94	16585.04
540.11	16210.55
540.28	16322.90
540.44	16669.30
540.61	16500.78
540.78	16573.33
540.95	16514.82
541.12	16973.56
541.29	16601.42
541.46	16985.27
541.62	16966.54
541.79	16816.75
541.96	16931.44
542.13	16783.98
542.30	16943.14
542.47	16985.27
542.63	16767.60
542.80	16840.15
542.97	17310.60
543.14	17111.66
543.31	17348.05
543.48	17036.76
543.64	17228.68
543.81	17074.21
543.98	17177.19
544.15	16924.41
544.32	17364.43
544.48	17261.45
544.65	17301.24
544.82	17205.28
544.99	17102.29
545.16	17233.36
545.32	17600.83
545.49	17886.37
545.66	18380.23
545.83	18457.46
546.00	18214.05
546.16	17865.31
546.33	17741.26
546.50	17537.63
546.67	17525.93
546.83	16936.12
547.00	17212.30
547.17	17123.36
547.34	17205.28
547.50	17034.42
547.67	17032.08
547.84	17399.54
548.00	17296.56
548.17	17373.80
548.34	17252.09
548.51	17500.19
548.67	17509.55
548.84	17294.22
549.01	17116.34
549.18	17310.60
549.34	17577.42
549.51	17289.54
549.68	17343.37
549.84	17226.34
550.01	17092.93
550.18	17235.70
550.34	17034.42
550.51	17458.06
550.68	17530.61
550.84	17191.23
551.01	17310.60
551.18	17069.53
551.34	17142.08
551.51	17305.92
551.68	17263.79
551.84	17111.66
552.01	17444.01
552.18	17284.86
552.34	17408.90
552.51	17429.97
552.68	17497.84
552.84	17610.19
553.01	17366.78
553.18	17493.16
553.34	17497.84
553.51	17179.53
553.67	17504.87
553.84	17415.93
554.01	17596.15
554.17	17394.86
554.34	17565.72
554.51	17329.33
554.67	17380.82
554.84	17231.02
555.00	17303.58
555.17	17331.67
555.33	17214.64
555.50	17167.83
555.67	17530.61
555.83	17685.09
556.00	17596.15
556.16	17804.46
556.33	17341.03
556.50	17390.18
556.66	17493.16
556.83	17338.69
556.99	17724.88
557.16	17652.32
557.32	17661.68
557.49	17614.87
557.65	17373.80
557.82	17511.89
557.98	17694.45
558.15	17511.89
558.32	17706.15
558.48	17214.64
558.65	17884.03
558.81	17514.23
558.98	17818.50
559.14	18073.62
559.31	17474.44
559.47	17661.68
559.64	17717.86
559.80	17537.63
559.97	17504.87
560.13	17425.29
560.30	17657.00
560.46	17790.41
560.63	17638.28
560.79	17954.25
560.96	17713.17
561.12	17727.22
561.29	17556.36
561.45	17703.81
561.61	18068.94
561.78	18061.91
561.94	18005.74
562.11	17738.92
562.27	17844.24
562.44	17703.81
562.60	18045.53
562.77	17624.23
562.93	17759.98
563.10	17610.19
563.26	17507.21
563.42	18012.76
563.59	17907.44
563.75	17860.63
563.92	17827.86
564.08	17790.41
564.24	17956.59
564.41	18141.49
564.57	17837.22
564.74	17619.55
564.90	18031.49
565.07	18019.78
565.23	17926.16
565.39	18008.08
565.56	17984.68
565.72	17898.08
565.88	17905.10
566.05	17825.52
566.21	17785.73
566.38	17565.72
566.54	17635.94
566.70	18111.07
566.87	18223.41
567.03	18251.50
567.19	18050.21
567.36	18073.62
567.52	18040.85
567.68	17848.93
567.85	17720.20
568.01	18054.89
568.17	17839.56
568.34	18097.02
568.50	18022.12
568.66	17825.52
568.83	18064.25
568.99	18108.72
569.15	17958.93
569.32	17916.80
569.48	18017.44
569.64	17891.06
569.81	17912.12
569.97	17610.19
570.13	18127.45
570.30	17736.58
570.46	18017.44
570.62	18029.15
570.78	17942.55
570.95	17923.82
571.11	18431.72
571.27	18080.64
571.43	17951.91
571.60	18305.33
571.76	18085.32
571.92	18146.17
572.09	18164.90
572.25	18335.76
572.41	17855.95
572.57	18017.44
572.74	17923.82
572.90	18068.94
573.06	17853.61
573.22	18368.52
573.38	18099.36
573.55	17820.84
573.71	18260.86
573.87	18040.85
574.03	18075.96
574.20	17867.65
574.36	18251.50
574.52	18094.68
574.68	18010.42
574.84	18015.10
575.01	17942.55
575.17	18293.63
575.33	18125.11
575.49	17954.25
575.65	18104.04
575.82	17982.34
575.98	18075.96
576.14	18420.02
576.30	18331.08
576.46	18494.91
576.62	17912.12
576.79	18157.88
576.95	18078.30
577.11	18382.57
577.27	18132.13
577.43	18225.75
577.59	17984.68
577.75	18319.37
577.92	17701.47
578.08	17867.65
578.24	18211.71
578.40	18122.77
578.56	18466.83
578.72	18216.39
578.88	18625.98
579.04	18256.18
579.21	18363.84
579.37	18417.68
579.53	18225.75
579.69	18181.28
579.85	17972.97
580.01	18253.84
580.17	18200.01
580.33	18087.66
580.49	18171.92
580.65	18188.30
580.82	18047.87
580.98	18188.30
581.14	18033.83
581.30	18057.23
581.46	18260.86
581.62	18178.94
581.78	18134.47
581.94	17989.36
582.10	18132.13
582.26	18258.52
582.42	17923.82
582.58	17905.10
582.74	18122.77
582.90	18188.30
583.06	18459.81
583.22	18157.88
583.38	18167.24
583.54	18307.67
583.70	18029.15
583.86	18298.31
584.02	18253.84
584.18	18029.15
584.34	18181.28
584.50	18310.01
584.66	17944.89
584.82	18017.44
584.98	18075.96
585.14	18097.02
585.30	18127.45
585.46	18099.36
585.62	17865.31
585.78	18310.01
585.94	18284.26
586.10	18155.54
586.26	18342.78
586.42	18317.03
586.58	18501.93
586.74	18291.29
586.90	18375.55
587.06	18251.50
587.22	18497.25
587.38	18398.95
587.54	18176.60
587.70	18370.86
587.86	18331.08
588.02	18211.71
588.18	18132.13
588.34	18148.51
588.49	18167.24
588.65	18300.65
588.81	18380.23
588.97	18375.55
589.13	18157.88
589.29	18214.05
589.45	18148.51
589.61	18265.54
589.77	18366.18
589.93	18141.49
590.08	18207.03
590.24	18326.39
590.40	18295.97
590.56	18363.84
590.72	18321.71
590.88	18057.23
591.04	17860.63
591.20	18436.40
591.35	18097.02
591.51	18487.89
591.67	18417.68
591.83	18132.13
591.99	18728.97
592.15	18415.34
592.31	18328.74
592.46	18448.10
592.62	18207.03
592.78	18427.04
592.94	18565.13
593.10	18492.57
593.26	18354.48
593.41	18558.11
593.57	18312.35
593.73	18190.64
593.89	18312.35
594.05	18310.01
594.20	18197.67
594.36	18223.41
594.52	18087.66
594.68	18382.57
594.84	18038.51
594.99	18059.57
595.15	18356.82
595.31	18361.50
595.47	18356.82
595.62	18352.14
595.78	18298.31
595.94	18092.34
596.10	18532.36
596.25	17994.04
596.41	18075.96
596.57	18043.19
596.73	18310.01
596.88	18090.00
597.04	17940.21
597.20	18373.21
597.36	18487.89
597.51	18427.04
597.67	18246.82
597.83	18136.81
597.99	18532.36
598.14	18518.32
598.30	18492.57
598.46	18394.27
598.61	18609.60
598.77	18218.73
598.93	18401.29
599.09	18335.76
599.24	18630.66
599.40	18553.43
599.56	18251.50
599.71	18307.67
599.87	18267.88
600.03	18066.60
600.18	18207.03
600.34	18408.31
600.50	18202.35
600.65	18197.67
600.81	18408.31
600.97	18424.70
601.12	18295.97
601.28	18244.48
601.44	18569.81
601.59	18256.18
601.75	17888.71
601.91	18366.18
602.06	18195.32
602.22	18216.39
602.37	18548.75
602.53	18223.41
602.69	18452.78
602.84	18237.45
603.00	18298.31
603.16	18373.21
603.31	18263.20
603.47	17956.59
603.62	17738.92
603.78	18403.63
603.94	18111.07
604.09	18141.49
604.25	18087.66
604.40	18214.05
604.56	18279.58
604.71	18209.37
604.87	18174.26
605.03	18270.22
605.18	18022.12
605.34	18279.58
605.49	17895.74
605.65	17902.76
605.80	18061.91
605.96	18178.94
606.12	18192.98
606.27	18368.52
606.43	18171.92
606.58	18043.19
606.74	18389.59
606.89	18050.21
607.05	18300.65
607.20	18040.85
607.36	18071.28
607.51	17937.87
607.67	18192.98
607.82	18256.18
607.98	17994.04
608.13	18253.84
608.29	18366.18
608.44	17944.89
608.60	18108.72
608.75	18328.74
608.91	18221.07
609.06	18005.74
609.22	18483.21
609.37	18251.50
609.53	18174.26
609.68	18202.35
609.84	18445.76
609.99	18492.57
610.15	18064.25
610.30	18380.23
610.46	18625.98
610.61	18967.70
610.76	19248.57
610.92	19332.82
611.07	19211.12
611.23	19475.60
611.38	19381.98
611.54	18960.68
611.69	19190.05
611.84	18951.32
612.00	18679.82
612.15	18686.84
612.31	18757.05
612.46	18347.46
612.62	18579.17
612.77	18335.76
612.92	18026.81
613.08	17752.96
613.23	18288.95
613.39	18113.41
613.54	18216.39
613.69	18310.01
613.85	18164.90
614.00	18139.15
614.15	18288.95
614.31	18113.41
614.46	18185.96
614.62	18164.90
614.77	17947.23
614.92	17968.29
615.08	17865.31
615.23	17759.98
615.38	17778.71
615.54	17832.54
615.69	17848.93
615.84	17947.23
616.00	17881.69
616.15	17776.37
616.30	17820.84
616.46	17532.95
616.61	17687.43
616.76	17465.08
616.92	17399.54
617.07	17544.66
617.22	17376.14
617.37	17380.82
617.53	17659.34
617.68	17720.20
617.83	17486.14
617.99	17521.25
618.14	17582.10
618.29	17273.15
618.45	17413.59
618.60	17603.17
618.75	17331.67
618.90	17605.51
619.06	17621.89
619.21	17252.09
619.36	17303.58
619.51	16992.29
619.67	17266.13
619.82	17474.44
619.97	17394.86
620.12	17228.68
620.28	17270.81
620.43	17394.86
620.58	17289.54
620.73	17158.47
620.89	17535.29
621.04	17362.09
621.19	17235.70
621.34	17317.62
621.49	17247.41
621.65	17291.88
621.80	17474.44
621.95	17146.76
622.10	17170.17
622.25	17207.62
622.41	17270.81
622.56	17011.01
622.71	16877.60
622.86	17228.68
623.01	17083.57
623.16	17039.10
623.32	17018.04
623.47	16915.05
623.62	17083.57
623.77	16847.18
623.92	17144.42
624.07	17308.26
624.23	17085.91
624.38	17228.68
624.53	17018.04
624.68	17088.25
624.83	16915.05
624.98	17041.44
625.13	16788.66
625.29	17111.66
625.44	16898.67
625.59	16760.58
625.74	16816.75
625.89	17064.85
626.04	16751.21
626.19	16805.05
626.34	16727.81
626.49	16645.89
626.65	16884.62
626.80	16919.73
626.95	16769.94
627.10	16594.40
627.25	16346.30
627.40	16760.58
627.55	16671.64
627.70	16613.12
627.85	16854.20
628.00	16837.81
628.15	16786.32
628.30	16496.10
628.45	16863.56
628.60	16465.67
628.76	16669.30
628.91	16746.53
629.06	16638.87
629.21	16748.87
629.36	16503.12
629.51	16781.64
629.66	16587.38
629.81	16367.37
629.96	16566.31
630.11	16526.52
630.26	16725.47
630.41	16542.91
630.56	16629.51
630.71	16774.62
630.86	16692.70
631.01	16659.93
631.16	16587.38
631.31	16514.82
631.46	16367.37
631.61	16166.08
631.76	16437.58
631.91	16079.48
632.06	16353.32
632.21	15878.19
632.36	16306.51
632.51	16168.42
632.66	16276.09
632.81	15880.53
632.96	16292.47
633.10	16308.85
633.25	16278.43
633.40	16154.38
633.55	16027.99
633.70	15843.09
633.85	16449.28
634.00	16084.16
634.15	16505.46
634.30	15955.43
634.45	16130.97
634.60	16280.77
634.75	16123.95
634.90	16238.64
635.05	16156.72
635.19	15992.88
635.34	16196.51
635.49	16180.12
635.64	16240.98
635.79	16224.59
635.94	15854.79
636.09	16102.89
636.24	15709.68
636.39	16222.25
636.53	16233.96
636.68	15892.24
636.83	16121.61
636.98	16170.76
637.13	16002.24
637.28	15950.75
637.43	15822.02
637.57	15765.85
637.72	15721.38
637.87	15815.00
638.02	15836.06
638.17	15714.36
638.32	15812.66
638.46	15583.29
638.61	15985.86
638.76	15824.36
638.91	15971.82
639.06	16114.59
639.20	16149.70
639.35	15604.35
639.50	15777.55
639.65	15969.48
639.80	15515.41
639.94	15810.32
640.09	15859.47
640.24	15817.34
640.39	15824.36
640.54	15700.31
640.68	15719.04
640.83	15735.42
640.98	15543.50
641.13	15501.37
641.27	15632.44
641.42	15534.14
641.57	15859.47
641.72	15915.64
641.86	15501.37
642.01	15452.22
642.16	15461.58
642.31	15477.96
642.45	15342.21
642.60	15311.78
642.75	15503.71
642.90	15679.25
643.04	15470.94
643.19	15527.11
643.34	15597.33
643.48	15496.69
643.63	15225.18
643.78	15150.29
643.93	15382.00
644.07	15159.65
644.22	15026.24
644.37	15414.77
644.51	15059.01
644.66	15276.68
644.81	15288.38
644.95	15389.02
645.10	15534.14
645.25	15524.77
645.39	15407.75
645.54	15433.49
645.69	15169.01
645.83	15580.95
645.98	15342.21
646.13	15147.95
646.27	15426.47
646.42	15190.08
646.57	15456.90
646.71	15150.29
646.86	15157.31
647.00	15421.79
647.15	15412.43
647.30	15428.81
647.44	15494.35
647.59	15260.29
647.74	15035.60
647.88	14977.09
648.03	15075.39
648.17	14888.15
648.32	14974.75
648.47	14995.81
648.61	15077.73
648.76	15215.82
648.90	14939.64
649.05	15110.50
649.20	15190.08
649.34	14871.76
649.49	15035.60
649.63	15129.22
649.78	15154.97
649.92	14754.74
650.07	15407.75
650.21	15063.69
650.36	15136.24
650.51	14817.93
650.65	15124.54
650.80	15049.64
650.94	14883.47
651.09	15101.14
651.23	14644.73
651.38	14923.26
651.52	14909.21
651.67	15030.92
651.81	14904.53
651.96	14897.51
652.10	15005.17
652.25	14909.21
652.39	15047.30
652.54	14841.34
652.68	15019.22
652.83	14827.29
652.97	15248.59
653.12	15091.77
653.26	14803.89
653.41	15080.07
653.55	14925.60
653.70	14824.95
653.84	14745.38
653.99	14792.19
654.13	14874.10
654.27	14656.43
654.42	14794.53
654.56	14476.21
654.71	14712.61
654.85	14731.33
655.00	14698.56
655.14	14572.18
655.29	14190.67
655.43	14862.40
655.57	14450.47
655.72	14520.68
655.86	14672.82
656.01	14253.86
656.15	14925.60
656.30	14523.02
656.44	14567.49
656.58	14429.40
656.73	14696.22
656.87	14642.39
657.01	14443.45
657.16	14471.53
657.30	14548.77
657.45	14366.21
657.59	14604.94
657.73	14370.89
657.88	14104.07
658.02	14317.06
658.16	14572.18
658.31	14740.69
658.45	14366.21
658.60	14295.99
658.74	14459.83
658.88	14359.19
659.03	14352.16
659.17	14300.67
659.31	13989.38
659.46	14207.05
659.60	13991.72
659.74	14200.03
659.89	14038.53
660.03	14230.46
660.17	14202.37
660.32	14293.65
660.46	14122.79
660.60	14087.68
660.74	14253.86
660.89	14174.28
661.03	13724.90
661.17	13930.87
661.32	14057.26
661.46	13855.97
661.60	13926.19
661.74	13987.04
661.89	13944.91
662.03	13678.09
662.17	13745.97
662.31	13905.12
662.46	13984.70
662.60	13879.38
662.74	13731.92
662.88	13973.00
663.03	13429.99
663.17	13860.65
663.31	13727.24
663.45	13804.48
663.60	13699.16
663.74	13703.84
663.88	13635.96
664.02	13816.18
664.17	13540.00
664.31	13525.96
664.45	13408.93
664.59	13530.64
664.73	13671.07
664.88	13460.42
665.02	13308.29
665.16	13486.17
665.30	13521.27
665.44	13247.43
665.59	13397.23
665.73	13338.71
665.87	13420.63
666.01	13425.31
666.15	13535.32
666.29	13184.24
666.44	13202.96
666.58	13238.07
666.72	13116.36
666.86	13207.64
667.00	13252.11
667.14	12882.31
667.28	13018.06
667.43	13334.03
667.57	13135.09
667.71	13270.84
667.85	12954.87
667.99	13074.23
668.13	13193.60
668.27	13088.28
668.41	12847.20
668.56	12589.74
668.70	12992.31
668.84	12973.59
668.98	12889.33
669.12	12840.18
669.26	13099.98
669.40	13289.56
669.54	12713.79
669.68	12954.87
669.82	12933.80
669.96	12919.76
670.10	12734.85
670.25	12966.57
670.39	12847.20
670.53	12709.11
670.67	12671.66
670.81	12882.31
670.95	12894.01
671.09	12683.36
671.23	12849.54
671.37	12545.27
671.51	12784.01
671.65	12486.76
671.79	12453.99
671.93	12528.89
672.07	12631.87
672.21	12613.15
672.35	12163.76
672.49	12449.31
672.63	12601.44
672.77	12409.52
672.91	12278.45
673.05	12226.96
673.19	12292.49
673.33	12299.52
673.47	12306.54
673.61	12077.16
673.75	12053.76
673.89	12112.27
674.03	12030.35
674.17	12016.31
674.31	12091.21
674.45	12166.10
674.59	12198.87
674.73	11896.94
674.87	12046.74
675.01	11903.96
675.15	11782.26
675.29	11887.58
675.43	11754.17
675.56	11915.67
675.70	11674.59
675.84	11709.70
675.98	11194.78
676.12	11634.80
676.26	11583.31
676.40	11517.78
676.54	11948.43
676.68	11653.53
676.82	11499.05
676.96	11473.31
677.10	11602.04
677.23	11587.99
677.37	11618.42
677.51	11538.84
677.65	11267.34
677.79	11204.14
677.93	11138.61
678.07	11159.67
678.21	11091.80
678.34	10998.18
678.48	10970.09
678.62	11007.54
678.76	10850.72
678.90	10942.00
679.04	11101.16
679.18	11012.22
679.31	10792.21
679.45	10981.79
679.59	10878.81
679.73	10642.42
679.87	10771.15
680.00	10881.15
680.14	10766.46
680.28	10541.77
680.42	10808.59
680.56	10902.22
680.70	10499.64
680.83	10429.43
680.97	10782.85
681.11	10860.09
681.25	10757.10
681.39	10827.32
681.52	10469.22
681.66	10593.26
681.80	10551.14
681.94	10637.73
682.07	10424.75
682.21	10427.09
682.35	10408.36
682.49	10251.55
682.62	10178.99
682.76	10228.14
682.90	10059.62
683.04	10104.09
683.17	10146.22
683.31	10267.93
683.45	10216.44
683.59	10078.35
683.72	9851.31
683.86	9888.76
684.00	9902.81
684.13	9851.31
684.27	9928.55
684.41	9811.53
684.55	9867.70
684.68	9715.56
684.82	9809.19
684.96	9593.86
685.09	9795.14
685.23	9837.27
685.37	9790.46
685.50	9982.38
685.64	9781.10
685.78	9645.35
685.91	9659.39
686.05	9415.98
686.19	9444.06
686.32	9289.59
686.46	9366.82
686.60	9320.01
686.73	9418.32
686.87	9268.52
687.01	9399.59
687.14	9495.55
687.28	9247.46
687.42	9210.01
687.55	9116.39
687.69	9184.26
687.82	8997.02
687.96	9060.21
688.10	9008.72
688.23	9064.89
688.37	8971.27
688.50	8940.85
688.64	8879.99
688.78	9078.94
688.91	8884.67
689.05	8898.72
689.18	8762.97
689.32	8603.81
689.46	8854.25
689.59	8578.06
689.73	8741.90
689.86	8669.34
690.00	8631.90
690.13	8762.97
690.27	8512.53
690.41	8610.83
690.54	8301.88
690.68	8505.51
690.81	8620.19
690.95	8383.80
691.08	8276.13
691.22	8255.07
691.35	8390.82
691.49	8217.62
691.62	8156.77
691.76	8320.60
691.89	8334.65
692.03	8215.28
692.16	8056.12
692.30	8081.87
692.43	8346.35
692.57	8042.08
692.70	8030.38
692.84	8098.25
692.97	8077.19
693.11	8084.21
693.24	8121.66
693.38	7716.75
693.51	7758.88
693.65	7880.58
693.78	8006.97
693.92	7941.44
694.05	7871.22
694.19	7798.66
694.32	7932.08
694.45	7829.09
694.59	7843.14
694.72	7683.98
694.86	7541.21
694.99	7449.93
695.13	7384.39
695.26	7494.40
695.39	7382.05
695.53	7426.52
695.66	7424.18
695.80	7386.73
695.93	7311.83
696.07	7246.30
696.20	7407.80
696.33	7286.09
696.47	7258.00
696.60	7197.15
696.73	7218.21
696.87	7185.44
697.00	7124.59
697.14	6904.58
697.27	6965.43
697.40	6995.86
697.54	7108.21
697.67	6944.37
697.80	7007.56
697.94	6871.81
698.07	6853.09
698.21	6958.41
698.34	6956.07
698.47	6853.09
698.61	6834.36
698.74	6766.49
698.87	6733.72
699.01	6747.76
699.14	6715.00
699.27	6590.95
699.40	6647.12
699.54	6658.82
699.67	6705.63
699.80	6647.12
699.94	6534.78
700.07	6686.91
700.20	6527.75
700.34	6382.64
700.47	6392.00
700.60	6429.45
700.73	6497.33
700.87	6230.51
701.00	6293.70
701.13	6179.01
701.26	6307.74
701.40	6368.60
701.53	6256.25
701.66	6200.08
701.79	6232.85
701.93	6200.08
702.06	6101.78
702.19	6155.61
702.32	5879.43
702.46	6080.71
702.59	6005.81
702.72	6087.73
702.85	5881.77
702.99	5961.34
703.12	6024.54
703.25	5879.43
703.38	5909.85
703.51	5930.92
703.65	5930.92
703.78	5767.08
703.91	5914.53
704.04	5837.30
704.17	5853.68
704.31	5757.72
704.44	5680.48
704.57	5746.02
704.70	5537.71
704.83	5612.60
704.96	5540.05
705.10	5736.65
705.23	5621.97
>>>>>End Processed Spectral Data<<<<<
