SpectraSuite Data File
++++++++++++++++++++++++++++++++++++
Date: Thu Oct 24 13:21:24 EDT 2013
User: stostad
Dark Spectrum Present: No
Reference Spectrum Present: No
Number of Sampled Component Spectra: 1
Spectrometers: USB2+H05261
Integration Time (usec): 100000 (USB2+H05261)
Spectra Averaged: 1 (USB2+H05261)
Boxcar Smoothing: 0 (USB2+H05261)
Correct for Electrical Dark: No (USB2+H05261)
Strobe/Lamp Enabled: No (USB2+H05261)
Correct for Detector Non-linearity: No (USB2+H05261)
Correct for Stray Light: No (USB2+H05261)
Number of Pixels in Processed Spectrum: 2048
>>>>>Begin Processed Spectral Data<<<<<
365.73	578.11
365.92	578.11
366.12	578.11
366.32	465.77
366.52	482.15
366.72	482.15
366.91	475.13
367.11	477.47
367.31	510.24
367.51	430.66
367.70	451.72
367.90	449.38
368.10	435.34
368.30	496.19
368.49	477.47
368.69	493.85
368.89	470.45
369.09	526.62
369.28	510.24
369.48	477.47
369.68	573.43
369.87	582.79
370.07	531.30
370.27	517.26
370.47	608.54
370.66	903.45
370.86	983.02
371.06	994.73
371.25	978.34
371.45	973.66
371.65	1020.47
371.84	884.72
372.04	968.98
372.24	1046.22
372.44	1029.84
372.63	1001.75
372.83	1029.84
373.03	1046.22
373.22	1055.58
373.42	1060.26
373.62	1111.75
373.81	1132.82
374.01	1060.26
374.21	1196.01
374.40	1144.52
374.60	1060.26
374.79	1132.82
374.99	1121.12
375.19	1146.86
375.38	1083.67
375.58	1095.37
375.78	1163.25
375.97	1090.69
376.17	1144.52
376.37	1191.33
376.56	1132.82
376.76	1196.01
376.95	1158.57
377.15	1076.65
377.35	1165.59
377.54	1277.93
377.74	1231.12
377.93	1184.31
378.13	1142.18
378.33	1174.95
378.52	1284.95
378.72	1238.14
378.91	1203.04
379.11	1294.32
379.31	1177.29
379.50	1259.21
379.70	1256.87
379.89	1221.76
380.09	1233.46
380.28	1282.61
380.48	1329.42
380.68	1231.12
380.87	1186.65
381.07	1254.53
381.26	1289.64
381.46	1287.29
381.65	1350.49
381.85	1324.74
382.04	1369.21
382.24	1355.17
382.43	1310.70
382.63	1303.68
382.83	1341.13
383.02	1404.32
383.22	1259.21
383.41	1313.04
383.61	1434.75
383.80	1329.42
384.00	1425.39
384.19	1366.87
384.39	1385.60
384.58	1385.60
384.78	1397.30
384.97	1483.90
385.17	1540.07
385.36	1465.18
385.56	1385.60
385.75	1521.35
385.95	1437.09
386.14	1458.15
386.34	1528.37
386.53	1469.86
386.72	1490.92
386.92	1521.35
387.11	1490.92
387.31	1458.15
387.50	1458.15
387.70	1511.99
387.89	1537.73
388.09	1444.11
388.28	1549.43
388.48	1577.52
388.67	1568.16
388.86	1575.18
389.06	1610.29
389.25	1607.95
389.45	1586.88
389.64	1554.12
389.84	1675.82
390.03	1579.86
390.22	1696.89
390.42	1675.82
390.61	1673.48
390.81	1636.03
391.00	1708.59
391.19	1762.42
391.39	1657.10
391.58	1706.25
391.78	1715.61
391.97	1661.78
392.16	1699.23
392.36	1797.53
392.55	1741.36
392.75	1739.02
392.94	1799.87
393.13	1771.79
393.33	1776.47
393.52	1762.42
393.71	1799.87
393.91	1818.60
394.10	1790.51
394.29	1879.45
394.49	1797.53
394.68	1863.07
394.88	1909.88
395.07	1856.04
395.26	1842.00
395.46	1865.41
395.65	1928.60
395.84	1919.24
396.04	2001.16
396.23	2057.33
396.42	1935.62
396.62	1973.07
396.81	1963.71
397.00	2003.50
397.19	2057.33
397.39	2029.24
397.58	2005.84
397.77	2010.52
397.97	2090.10
398.16	2066.69
398.35	2087.76
398.55	1977.75
398.74	2113.50
398.93	2146.27
399.12	2120.53
399.32	2015.20
399.51	2071.37
399.70	2134.57
399.90	2186.06
400.09	2221.17
400.28	2221.17
400.47	2169.68
400.67	2235.21
400.86	2260.96
401.05	2289.04
401.24	2291.38
401.44	2296.07
401.63	2354.58
401.82	2389.69
402.01	2345.22
402.21	2452.88
402.40	2368.62
402.59	2448.20
402.78	2396.71
402.97	2450.54
403.17	2523.10
403.36	2441.18
403.55	2434.16
403.74	2525.44
403.93	2572.25
404.13	2544.16
404.32	2520.76
404.51	2588.63
404.70	2581.61
404.89	2516.08
405.09	2637.78
405.28	2637.78
405.47	2759.49
405.66	2668.21
405.85	2665.87
406.05	2677.57
406.24	2806.30
406.43	2820.35
406.62	2773.53
406.81	2843.75
407.00	2801.62
407.20	2794.60
407.39	2696.30
407.58	2782.90
407.77	2923.33
407.96	2918.65
408.15	2923.33
408.34	2850.77
408.54	3047.38
408.73	2796.94
408.92	2953.76
409.11	3019.29
409.30	3096.53
409.49	3000.57
409.68	3110.57
409.87	3080.14
410.07	3141.00
410.26	3194.83
410.45	3234.62
410.64	3251.00
410.83	3318.88
411.02	3258.03
411.21	3227.60
411.40	3400.80
411.59	3321.22
411.78	3251.00
411.98	3384.41
412.17	3524.85
412.36	3471.01
412.55	3496.76
412.74	3545.91
412.93	3487.40
413.12	3428.88
413.31	3517.83
413.50	3712.09
413.69	3581.02
413.88	3648.90
414.07	3712.09
414.26	3768.26
414.45	3742.52
414.64	3700.39
414.83	3707.41
415.02	3885.29
415.22	3892.31
415.41	3990.61
415.60	3934.44
415.79	3925.08
415.98	4053.81
416.17	4138.07
416.36	4102.96
416.55	4016.36
416.74	4175.52
416.93	4128.70
417.12	4215.30
417.31	4248.07
417.50	4252.75
417.69	4219.99
417.88	4397.87
418.07	4184.88
418.26	4315.95
418.45	4397.87
418.64	4498.51
418.83	4484.47
419.02	4552.34
419.21	4531.28
419.39	4514.89
419.58	4423.61
419.77	4393.19
419.96	4479.79
420.15	4610.86
420.34	4564.04
420.53	4655.33
420.72	4594.47
420.91	4795.76
421.10	4610.86
421.29	4847.25
421.48	4727.88
421.67	4643.62
421.86	4550.00
422.05	4791.08
422.24	4929.17
422.43	4791.08
422.61	4880.02
422.80	4929.17
422.99	4905.76
423.18	4912.78
423.37	5041.51
423.56	5043.85
423.75	4908.10
423.94	4751.29
424.13	4596.81
424.32	4772.35
424.50	4882.36
424.69	5095.35
424.88	4875.34
425.07	4861.29
425.26	4959.60
425.45	4933.85
425.64	4772.35
425.83	4943.21
426.01	5050.88
426.20	5109.39
426.39	4936.19
426.58	5041.51
426.77	4987.68
426.96	4980.66
427.15	5296.63
427.33	5121.09
427.52	5109.39
427.71	5205.35
427.90	5224.08
428.09	5308.34
428.28	5268.55
428.46	5383.23
428.65	5355.15
428.84	5444.09
429.03	5378.55
429.22	5303.65
429.40	5455.79
429.59	5296.63
429.78	5357.49
429.97	5245.14
430.16	5369.19
430.34	5420.68
430.53	5645.37
430.72	5638.35
430.91	5596.22
431.10	5600.90
431.28	5694.52
431.47	5640.69
431.66	5694.52
431.85	5568.13
432.03	5701.54
432.22	5870.06
432.41	5804.53
432.60	5753.04
432.79	5863.04
432.97	5970.71
433.16	5846.66
433.35	5844.32
433.54	5973.05
433.72	5921.56
433.91	5970.71
434.10	5982.41
434.28	5961.34
434.47	6010.50
434.66	6169.65
434.85	6181.35
435.03	6106.46
435.22	6274.98
435.41	6497.33
435.59	6438.81
435.78	6354.55
435.97	6464.56
436.16	6310.08
436.34	6368.60
436.53	6384.98
436.72	6401.37
436.90	6289.02
437.09	6675.21
437.28	6214.12
437.46	6265.61
437.65	6462.22
437.84	6511.37
438.02	6558.18
438.21	6684.57
438.40	6492.65
438.58	6806.28
438.77	6878.83
438.96	6808.62
439.14	6874.15
439.33	6773.51
439.52	7019.27
439.70	6888.20
439.89	7311.83
440.08	7246.30
440.26	7290.77
440.45	7056.72
440.63	7272.04
440.82	7438.22
441.01	7222.89
441.19	7391.41
441.38	7421.84
441.57	7358.64
441.75	7501.42
441.94	7758.88
442.12	7665.25
442.31	7604.40
442.50	7658.23
442.68	7733.13
442.87	7702.70
443.05	7896.97
443.24	7974.21
443.43	7934.42
443.61	7791.64
443.80	8264.43
443.98	7569.29
444.17	7543.55
444.35	7866.54
444.54	7981.23
444.73	7817.39
444.91	8030.38
445.10	8060.80
445.28	7981.23
445.47	8084.21
445.65	8009.31
445.84	7992.93
446.02	8135.70
446.21	8025.70
446.39	7971.86
446.58	8121.66
446.77	8187.19
446.95	7705.04
447.14	8297.20
447.32	8297.20
447.51	8093.57
447.69	8149.75
447.88	8152.09
448.06	8264.43
448.25	8322.94
448.43	8203.58
448.62	8170.81
448.80	8252.73
448.99	8180.17
449.17	8124.00
449.36	8322.94
449.54	8477.42
449.73	8500.83
449.91	8617.85
450.10	8592.11
450.28	8575.72
450.46	8772.33
450.65	8699.77
450.83	8805.10
451.02	8709.13
451.20	8924.46
451.39	8751.26
451.57	8634.24
451.76	8795.73
451.94	8924.46
452.13	8924.46
452.31	8872.97
452.49	8809.78
452.68	9001.70
452.86	8842.54
453.05	8997.02
453.23	9078.94
453.42	9062.55
453.60	8915.10
453.78	9013.40
453.97	9186.60
454.15	9128.09
454.34	9053.19
454.52	9252.14
454.70	9273.20
454.89	9252.14
455.07	9310.65
455.26	9418.32
455.44	9406.61
455.62	9406.61
455.81	9385.55
455.99	9504.92
456.17	9628.96
456.36	9631.30
456.54	9586.83
456.73	9596.20
456.91	9865.36
457.09	9809.19
457.28	9989.41
457.46	9863.02
457.64	10115.80
457.83	9914.51
458.01	9806.84
458.19	10298.36
458.38	10171.97
458.56	10317.08
458.74	10120.48
458.93	10178.99
459.11	10136.86
459.29	10480.92
459.48	10186.01
459.66	10230.48
459.84	10244.52
460.03	10630.71
460.21	10516.03
460.39	10548.79
460.57	10434.11
460.76	10609.65
460.94	10672.84
461.12	10623.69
461.31	10654.12
461.49	10574.54
461.67	10621.35
461.85	10768.80
462.04	10619.01
462.22	11169.04
462.40	11068.39
462.59	11019.24
462.77	10932.64
462.95	10834.34
463.13	10995.84
463.32	11070.73
463.50	10977.11
463.68	10981.79
463.86	11047.33
464.05	11119.89
464.23	10925.62
464.41	11379.68
464.59	10881.15
464.78	11646.51
464.96	11403.09
465.14	11311.81
465.32	11424.15
465.50	11218.19
465.69	11248.61
465.87	11620.76
466.05	11412.45
466.23	11307.13
466.41	11651.19
466.60	11730.76
466.78	11702.68
466.96	11810.34
467.14	11543.52
467.32	11510.75
467.51	11934.39
467.69	11492.03
467.87	11695.66
468.05	11892.26
468.23	11754.17
468.41	11749.49
468.60	11747.15
468.78	11775.24
468.96	11997.59
469.14	12191.85
469.32	11908.65
469.50	11845.45
469.69	12278.45
469.87	12339.30
470.05	12339.30
470.23	12484.42
470.41	12346.33
470.59	12411.86
470.77	12297.17
470.95	12664.64
471.14	12638.89
471.32	12451.65
471.50	12732.51
471.68	12786.35
471.86	12514.84
472.04	13004.02
472.22	13027.42
472.40	12982.95
472.58	12945.50
472.77	13064.87
472.95	13317.65
473.13	13460.42
473.31	12877.63
473.49	13238.07
473.67	13151.47
473.85	13462.76
474.03	13902.78
474.21	13540.00
474.39	13657.03
474.57	13760.01
474.75	14211.73
474.93	14080.66
475.12	13862.99
475.30	14237.48
475.48	14054.92
475.66	14312.38
475.84	14038.53
476.02	14583.88
476.20	14473.87
476.38	14586.22
476.56	14960.70
476.74	14726.65
476.92	14604.94
477.10	14782.82
477.28	14857.72
477.46	15054.33
477.64	15459.24
477.82	15424.13
478.00	15733.08
478.18	15721.38
478.36	15770.53
478.54	15932.03
478.72	16046.71
478.90	16233.96
479.08	16194.17
479.26	16446.94
479.44	16528.86
479.62	16681.00
479.80	16926.75
479.98	16788.66
480.16	17305.92
480.34	17102.29
480.52	17355.07
480.70	17364.43
480.88	17448.69
481.06	17612.53
481.24	17657.00
481.41	17783.39
481.59	18038.51
481.77	18380.23
481.95	18068.94
482.13	18015.10
482.31	18375.55
482.49	18658.75
482.67	18838.97
482.85	19213.46
483.03	19183.03
483.21	19229.84
483.39	19524.75
483.57	19396.02
483.74	19634.75
483.92	19950.73
484.10	19723.69
484.28	20622.46
484.46	20608.42
484.64	20718.42
484.82	20343.94
485.00	20549.90
485.18	21406.54
485.35	21568.04
485.53	21001.63
485.71	21542.29
485.89	22040.82
486.07	21717.83
486.25	21647.61
486.43	22017.42
486.61	22244.45
486.78	22490.21
486.96	22431.69
487.14	22656.39
487.32	23035.55
487.50	23126.83
487.68	23056.62
487.85	23562.17
488.03	23915.59
488.21	24128.58
488.39	24074.75
488.57	23978.79
488.75	24264.33
488.92	24360.30
489.10	24790.95
489.28	24884.58
489.46	25572.69
489.64	25376.09
489.81	25516.52
489.99	25301.19
490.17	25757.60
490.35	26075.91
490.53	26146.12
490.70	26190.59
490.88	26160.17
491.06	26965.31
491.24	26712.53
491.41	27197.02
491.59	27150.21
491.77	27402.99
491.95	27669.81
492.13	27618.32
492.30	27538.74
492.48	27728.33
492.66	27831.31
492.84	28397.72
493.01	28491.34
493.19	28360.27
493.37	28830.72
493.54	28664.54
493.72	28893.91
493.90	28779.23
494.08	29422.87
494.25	29823.11
494.43	29450.96
494.61	29982.26
494.79	29993.97
494.96	30263.13
495.14	30377.81
495.32	30419.94
495.49	30885.71
495.67	30731.23
495.85	31049.55
496.02	31129.12
496.20	31068.27
496.38	31583.19
496.55	31812.56
496.73	32439.82
496.91	31971.72
497.09	32320.46
497.26	32203.43
497.44	32191.73
497.62	32404.72
497.79	32926.66
497.97	32730.05
498.14	33237.95
498.32	33610.09
498.50	33928.41
498.67	33254.33
498.85	33462.64
499.03	33834.78
499.20	33872.23
499.38	34132.03
499.56	34220.97
499.73	34007.98
499.91	34651.63
500.08	34930.16
500.26	34443.32
500.44	34820.15
500.61	34955.90
500.79	35276.55
500.97	35363.15
501.14	35840.62
501.32	35211.02
501.49	35309.32
501.67	35812.54
501.84	36016.16
502.02	36037.23
502.20	36301.71
502.37	36130.85
502.55	36053.61
502.72	36226.81
502.90	36137.87
503.07	36304.05
503.25	36456.18
503.43	36390.65
503.60	37008.55
503.78	37167.71
503.95	37308.14
504.13	37088.13
504.30	37663.90
504.48	37387.72
504.65	37811.35
504.83	38220.95
505.01	38328.61
505.18	38499.47
505.36	38506.49
505.53	38038.39
505.71	38754.59
505.88	38656.29
506.06	38550.96
506.23	38705.44
506.41	39098.65
506.58	39012.05
506.76	39161.84
506.93	39440.37
507.11	39339.72
507.28	39749.32
507.46	39536.33
507.63	39966.99
507.81	40215.08
507.98	39402.92
508.16	39592.50
508.33	39667.40
508.50	40002.10
508.68	40318.07
508.85	40388.28
509.03	40442.12
509.20	40463.18
509.38	40767.45
509.55	41010.87
509.73	40765.11
509.90	41195.77
510.08	41375.99
510.25	41132.57
510.42	41434.50
510.60	41572.60
510.77	41869.84
510.95	42183.48
511.12	41720.05
511.30	41937.72
511.47	42253.69
511.64	42195.18
511.82	42183.48
511.99	42309.86
512.17	42092.19
512.34	42508.81
512.51	42841.17
512.69	42857.55
512.86	43449.70
513.04	43667.37
513.21	42911.38
513.38	42909.04
513.56	43409.92
513.73	43435.66
513.90	43852.28
514.08	43732.91
514.25	43775.04
514.43	43817.17
514.60	43992.71
514.77	44105.06
514.95	44147.18
515.12	44250.17
515.29	44151.87
515.47	44406.98
515.64	44807.22
515.81	44755.72
515.99	44914.88
516.16	44957.01
516.33	45104.46
516.51	45256.60
516.68	45015.52
516.85	45296.39
517.03	45680.24
517.20	45500.01
517.37	45827.69
517.54	45338.52
517.72	45509.38
517.89	45610.02
518.06	46099.19
518.24	46078.13
518.41	45888.54
518.58	45900.25
518.75	45574.91
518.93	46347.29
519.10	46038.34
519.27	46546.23
519.45	46497.08
519.62	46401.12
519.79	46597.73
519.96	46637.51
520.14	46724.11
520.31	46539.21
520.48	46843.48
520.65	46941.78
520.83	47222.65
521.00	47606.50
521.17	47278.82
521.34	47117.32
521.52	47704.80
521.69	47365.42
521.86	47456.70
522.03	47973.96
522.20	48030.13
522.38	48168.22
522.55	48046.52
522.72	48191.63
522.89	48065.24
523.07	48729.95
523.24	48013.75
523.41	48449.09
523.58	48198.65
523.75	48416.32
523.92	48175.25
524.10	48917.20
524.27	49181.68
524.44	48928.90
524.61	48938.26
524.78	48933.58
524.96	49151.25
525.13	49191.04
525.30	49799.58
525.47	49572.55
525.64	49272.96
525.81	49207.42
525.98	49546.80
526.16	49059.97
526.33	49684.89
526.50	50042.99
526.67	49944.69
526.84	50155.34
527.01	49834.69
527.18	50302.79
527.36	49914.26
527.53	50272.37
527.70	50497.06
527.87	50611.74
528.04	50279.39
528.21	50567.27
528.38	50349.60
528.55	50855.16
528.72	50433.86
528.89	50520.46
529.07	50628.13
529.24	50218.53
529.41	51056.45
529.58	50864.52
529.75	50838.78
529.92	51002.61
530.09	50855.16
530.26	50951.12
530.43	50766.22
530.60	50986.23
530.77	50827.07
530.94	51175.81
531.11	51208.58
531.28	51456.68
531.46	51566.68
531.63	51395.82
531.80	51433.27
531.97	51540.94
532.14	51906.06
532.31	51334.97
532.48	52060.54
532.65	52079.26
532.82	51718.82
532.99	51868.61
533.16	51660.30
533.33	52198.63
533.50	52376.51
533.67	52041.81
533.84	52107.35
534.01	52247.78
534.18	52074.58
534.35	52875.04
534.52	52210.33
534.69	52491.19
534.86	52229.05
535.03	52425.66
535.20	52638.65
535.37	52694.82
535.54	52921.85
535.71	52669.08
535.88	53031.86
536.05	52750.99
536.22	52800.15
536.38	52736.95
536.55	52837.59
536.72	53240.17
536.89	53221.44
537.06	53296.34
537.23	53464.86
537.40	53073.99
537.57	53343.15
537.74	53240.17
537.91	53616.99
538.08	53291.66
538.25	53212.08
538.42	53399.32
538.59	53521.03
538.75	53249.53
538.92	53616.99
539.09	53773.81
539.26	53506.99
539.43	53729.34
539.60	53497.62
539.77	53567.84
539.94	54358.94
540.11	53998.50
540.28	54389.37
540.44	53858.07
540.61	54094.46
540.78	54066.38
540.95	54106.16
541.12	54185.74
541.29	53961.05
541.46	54075.74
541.62	54361.28
541.79	54340.22
541.96	54092.12
542.13	54258.30
542.30	54293.41
542.47	54351.92
542.63	54536.82
542.80	54590.66
542.97	54988.55
543.14	55011.95
543.31	55173.45
543.48	54667.89
543.64	55313.88
543.81	55192.17
543.98	54972.16
544.15	54948.76
544.32	55126.64
544.48	55419.20
544.65	55206.22
544.82	55103.23
544.99	54948.76
545.16	55182.81
545.32	55302.18
545.49	55498.78
545.66	55620.49
545.83	55634.53
546.00	56041.79
546.16	55456.65
546.33	55599.43
546.50	55564.32
546.67	55374.73
546.83	55224.94
547.00	55463.67
547.17	55281.11
547.34	55531.55
547.50	55547.93
547.67	55852.20
547.84	55999.66
548.00	55969.23
548.17	56041.79
548.34	55889.65
548.51	55805.39
548.67	55931.78
548.84	56023.06
549.01	55875.61
549.18	55962.21
549.34	55765.60
549.51	55899.01
549.68	56175.20
549.84	55976.25
550.01	55999.66
550.18	55781.99
550.34	55952.85
550.51	56039.45
550.68	56039.45
550.84	55997.32
551.01	56336.69
551.18	56095.62
551.34	55936.46
551.51	55973.91
551.68	56310.95
551.84	55987.95
552.01	56058.17
552.18	56477.13
552.34	56427.98
552.51	56542.66
552.68	56250.09
552.84	56416.27
553.01	56692.46
553.18	56446.70
553.34	56701.82
553.51	56420.95
553.67	56516.92
553.84	57045.88
554.01	57013.11
554.17	56809.48
554.34	56884.38
554.51	56842.25
554.67	56762.67
554.84	56633.94
555.00	56699.48
555.17	56722.88
555.33	56903.10
555.50	56505.21
555.67	56825.87
555.83	57071.62
556.00	56996.73
556.16	56942.89
556.33	56947.57
556.50	57020.13
556.66	57109.07
556.83	56772.03
556.99	57085.67
557.16	57336.10
557.32	57301.00
557.49	57532.71
557.65	57099.71
557.82	57179.29
557.98	57130.14
558.15	57055.24
558.32	57216.74
558.48	57345.47
558.65	57361.85
558.81	57394.62
558.98	57453.13
559.14	57490.58
559.31	57301.00
559.47	57521.01
559.64	57429.72
559.80	57375.89
559.97	57340.78
560.13	57265.89
560.30	57546.75
560.46	57654.42
560.63	57673.14
560.79	57893.15
560.96	57733.99
561.12	57689.52
561.29	57640.37
561.45	57570.16
561.61	57712.93
561.78	57502.28
561.94	57858.04
562.11	57900.17
562.27	57743.36
562.44	57560.79
562.60	57593.56
562.77	57247.16
562.93	57628.67
563.10	57900.17
563.26	57563.14
563.42	57895.49
563.59	57771.44
563.75	57822.93
563.92	57785.49
564.08	57815.91
564.24	57874.43
564.41	57836.98
564.57	57794.85
564.74	57729.31
564.90	57773.78
565.07	57930.60
565.23	57762.08
565.39	57991.45
565.56	58199.76
565.72	58017.20
565.88	57862.72
566.05	58108.48
566.21	57970.39
566.38	57858.04
566.54	57836.98
566.70	58176.36
566.87	58244.23
567.03	58003.16
567.19	58468.92
567.36	58288.70
567.52	58059.33
567.68	58033.58
567.85	58218.49
568.01	58237.21
568.17	58159.97
568.34	58251.25
568.50	58354.24
568.66	58117.84
568.83	58274.66
568.99	58375.30
569.15	58237.21
569.32	58255.93
569.48	58183.38
569.64	58134.23
569.81	57982.09
569.97	58169.33
570.13	58321.47
570.30	57986.77
570.46	58234.87
570.62	58344.87
570.78	57961.03
570.95	58141.25
571.11	58384.66
571.27	58379.98
571.43	58108.48
571.60	58258.27
571.76	58209.12
571.92	58356.58
572.09	58408.07
572.25	58604.67
572.41	58660.85
572.57	58337.85
572.74	58501.69
572.90	58248.91
573.06	58197.42
573.22	58155.29
573.38	58337.85
573.55	58337.85
573.71	58651.48
573.87	58487.65
574.03	58220.83
574.20	58684.25
574.36	58410.41
574.52	58347.21
574.68	58670.21
574.84	58642.12
575.01	58585.95
575.17	58731.06
575.33	58438.50
575.49	58365.94
575.65	58576.59
575.82	58485.31
575.98	58651.48
576.14	58536.80
576.30	58663.19
576.46	58312.11
576.62	58482.97
576.79	58464.24
576.95	58232.53
577.11	58644.46
577.27	58728.72
577.43	58789.58
577.59	58656.17
577.75	58459.56
577.92	58204.44
578.08	58604.67
578.24	58464.24
578.40	58576.59
578.56	58658.51
578.72	58642.12
578.88	58843.41
579.04	58848.09
579.21	58873.84
579.37	58749.79
579.53	58740.42
579.69	58595.31
579.85	58740.42
580.01	58990.86
580.17	58431.47
580.33	58721.70
580.49	58721.70
580.65	58810.64
580.82	58632.76
580.98	58724.04
581.14	58707.66
581.30	58871.49
581.46	58791.92
581.62	58915.96
581.78	58667.87
581.94	58745.11
582.10	58562.54
582.26	58873.84
582.42	58705.32
582.58	58794.26
582.74	58890.22
582.90	58770.85
583.06	58740.42
583.22	58777.87
583.38	58824.68
583.54	58656.17
583.70	58763.83
583.86	58735.74
584.02	58796.60
584.18	58930.01
584.34	58745.11
584.50	58890.22
584.66	58815.32
584.82	58794.26
584.98	59079.80
585.14	58644.46
585.30	58866.81
585.46	58843.41
585.62	58658.51
585.78	59049.38
585.94	58679.57
586.10	58958.09
586.26	59079.80
586.42	58862.13
586.58	58801.28
586.74	58768.51
586.90	58749.79
587.06	58904.26
587.22	59049.38
587.38	58852.77
587.54	59187.47
587.70	59332.58
587.86	59091.51
588.02	59166.40
588.18	59061.08
588.34	59126.61
588.49	59028.31
588.65	58824.68
588.81	59063.42
588.97	58899.58
589.13	59040.01
589.29	59007.25
589.45	58997.88
589.61	59016.61
589.77	59491.74
589.93	59105.55
590.08	59295.13
590.24	59327.90
590.40	58869.15
590.56	59276.41
590.72	59098.53
590.88	59042.35
591.04	59091.51
591.20	59414.50
591.35	59154.70
591.51	59374.71
591.67	59477.69
591.83	59325.56
591.99	59260.02
592.15	59070.44
592.31	59201.51
592.46	59355.99
592.62	59154.70
592.78	59175.76
592.94	59353.65
593.10	59084.48
593.26	59538.55
593.41	59412.16
593.57	59348.96
593.73	59285.77
593.89	59398.12
594.05	59192.15
594.20	59140.66
594.36	59498.76
594.52	59175.76
594.68	59264.70
594.84	59363.01
594.99	59625.15
595.15	59557.27
595.31	59599.40
595.47	59487.06
595.62	59318.54
595.78	59363.01
595.94	59470.67
596.10	59007.25
596.25	59093.85
596.41	59283.43
596.57	59262.36
596.73	59379.39
596.88	59388.75
597.04	59489.40
597.20	59505.78
597.36	59257.68
597.51	59351.30
597.67	59112.57
597.83	59217.89
597.99	59400.46
598.14	59416.84
598.30	59337.26
598.46	59505.78
598.61	59379.39
598.77	59365.35
598.93	59419.18
599.09	59243.64
599.24	59524.50
599.40	59344.28
599.56	59447.27
599.71	59430.88
599.87	59447.27
600.03	59477.69
600.18	59674.30
600.34	59449.61
600.50	59536.21
600.65	59419.18
600.81	59657.91
600.97	59807.71
601.12	59653.23
601.28	59414.50
601.44	59524.50
601.59	59421.52
601.75	59292.79
601.91	59756.22
602.06	59276.41
602.22	59494.08
602.37	59473.01
602.53	59632.17
602.69	59587.70
602.84	59442.59
603.00	59824.09
603.16	59559.61
603.31	59545.57
603.47	59330.24
603.62	59168.74
603.78	59456.63
603.94	59433.22
604.09	59447.27
604.25	59550.25
604.40	59454.29
604.56	59234.28
604.71	59678.98
604.87	59489.40
605.03	59552.59
605.18	59447.27
605.34	59611.10
605.49	59262.36
605.65	59590.04
605.80	59332.58
605.96	59676.64
606.12	59620.47
606.27	59669.62
606.43	59629.83
606.58	59800.69
606.74	59419.18
606.89	59587.70
607.05	59461.31
607.20	59585.36
607.36	59192.15
607.51	59339.60
607.67	59463.65
607.82	59339.60
607.98	59538.55
608.13	59700.04
608.29	59365.35
608.44	59449.61
608.60	59316.20
608.75	59632.17
608.91	59470.67
609.06	59250.66
609.22	59538.55
609.37	59028.31
609.53	59416.84
609.68	59386.41
609.84	59318.54
609.99	59545.57
610.15	59311.52
610.30	59648.55
610.46	59426.20
610.61	59627.49
610.76	59611.10
610.92	59732.81
611.07	59512.80
611.23	59505.78
611.38	59742.17
611.54	59622.81
611.69	59711.75
611.84	59561.95
612.00	59583.02
612.15	59473.01
612.31	59676.64
612.46	59667.28
612.62	59423.86
612.77	59299.81
612.92	59477.69
613.08	59295.13
613.23	59311.52
613.39	59316.20
613.54	59341.94
613.69	59463.65
613.85	59351.30
614.00	59451.95
614.15	59620.47
614.31	59234.28
614.46	59416.84
614.62	59217.89
614.77	59171.08
614.92	59171.08
615.08	59068.10
615.23	59086.82
615.38	59016.61
615.54	59072.78
615.69	59224.92
615.84	59035.33
616.00	59215.55
616.15	59377.05
616.30	59100.87
616.46	59105.55
616.61	59086.82
616.76	58773.19
616.92	58831.71
617.07	58913.62
617.22	58745.11
617.37	58529.78
617.53	58876.18
617.68	58738.08
617.83	58803.62
617.99	59121.93
618.14	59077.46
618.29	58913.62
618.45	58855.11
618.60	58850.43
618.75	58740.42
618.90	58443.18
619.06	58487.65
619.21	58302.74
619.36	58482.97
619.51	58663.19
619.67	58389.34
619.82	58808.30
619.97	58944.05
620.12	58834.05
620.28	58724.04
620.43	58892.56
620.58	58780.21
620.73	58791.92
620.89	58597.65
621.04	58684.25
621.19	58794.26
621.34	58426.79
621.49	58429.13
621.65	58487.65
621.80	58691.27
621.95	58649.14
622.10	58901.92
622.25	58679.57
622.41	58674.89
622.56	58571.91
622.71	58426.79
622.86	58728.72
623.01	58234.87
623.16	58298.06
623.32	58314.45
623.47	58539.14
623.62	58515.73
623.77	58515.73
623.92	58108.48
624.07	58316.79
624.23	58258.27
624.38	58513.39
624.53	58389.34
624.68	58379.98
624.83	58527.44
624.98	58157.63
625.13	58096.78
625.29	58234.87
625.44	58220.83
625.59	58064.01
625.74	58319.13
625.89	57993.79
626.04	57977.41
626.19	58206.78
626.34	58237.21
626.49	58251.25
626.65	58185.72
626.80	58291.04
626.95	57928.26
627.10	57815.91
627.25	57883.79
627.40	58117.84
627.55	57755.06
627.70	57937.62
627.85	57876.77
628.00	57748.04
628.15	57956.35
628.30	57652.08
628.45	57902.51
628.60	57979.75
628.76	58024.22
628.91	57867.40
629.06	58000.82
629.21	57553.77
629.36	57862.72
629.51	58059.33
629.66	57785.49
629.81	57652.08
629.96	57560.79
630.11	57799.53
630.26	57986.77
630.41	57797.19
630.56	57488.24
630.71	57776.12
630.86	57801.87
631.01	57724.63
631.16	57752.72
631.31	57317.38
631.46	57296.31
631.61	57518.67
631.76	57502.28
631.91	57476.54
632.06	57544.41
632.21	57373.55
632.36	57286.95
632.51	57495.26
632.66	57387.60
632.81	57453.13
632.96	57521.01
633.10	57446.11
633.25	57380.57
633.40	57265.89
633.55	57436.75
633.70	57228.44
633.85	57118.43
634.00	57282.27
634.15	57350.15
634.30	57378.23
634.45	57354.83
634.60	57106.73
634.75	57102.05
634.90	57181.63
635.05	57148.86
635.19	57247.16
635.34	57193.33
635.49	57031.83
635.64	57291.63
635.79	56940.55
635.94	56978.00
636.09	57228.44
636.24	57069.28
636.39	57134.82
636.53	57223.76
636.68	56865.66
636.83	57010.77
636.98	57183.97
637.13	56598.83
637.28	56839.91
637.43	56694.80
637.57	57045.88
637.72	56708.84
637.87	56615.22
638.02	56853.95
638.17	57017.79
638.32	56767.35
638.46	56406.91
638.61	56704.16
638.76	56755.65
638.91	56875.02
639.06	56701.82
639.20	56790.76
639.35	56914.81
639.50	56734.59
639.65	56769.69
639.80	56755.65
639.94	56542.66
640.09	56624.58
640.24	56715.86
640.39	56528.62
640.54	56327.33
640.68	56633.94
640.83	56554.36
640.98	56404.57
641.13	56301.59
641.27	56446.70
641.42	56189.24
641.57	56072.21
641.72	56193.92
641.86	56334.35
642.01	55810.07
642.16	56182.22
642.31	56133.07
642.45	56278.18
642.60	56261.80
642.75	56360.10
642.90	56528.62
643.04	56481.81
643.19	56303.93
643.34	56121.37
643.48	56528.62
643.63	56292.22
643.78	56301.59
643.93	55803.05
644.07	55962.21
644.22	55908.38
644.37	55852.20
644.51	55980.93
644.66	56058.17
644.81	55870.93
644.95	56219.67
645.10	56229.03
645.25	56210.31
645.39	56273.50
645.54	56233.71
645.69	55889.65
645.83	55908.38
645.98	55639.22
646.13	56086.26
646.27	55903.70
646.42	55927.10
646.57	55889.65
646.71	55943.48
646.86	55767.94
647.00	55999.66
647.15	56163.50
647.30	56161.15
647.44	56086.26
647.59	55868.59
647.74	55772.63
647.88	55430.91
648.03	55688.37
648.17	55674.32
648.32	55285.79
648.47	55753.90
648.61	55419.20
648.76	55388.78
648.90	55543.25
649.05	55578.36
649.20	55276.43
649.34	55573.68
649.49	55700.07
649.63	55629.85
649.78	55859.23
649.92	55128.98
650.07	55966.89
650.21	55433.25
650.36	55559.64
650.51	55033.02
650.65	55508.14
650.80	55381.76
650.94	55231.96
651.09	55126.64
651.23	55243.66
651.38	55112.59
651.52	55299.84
651.67	55564.32
651.81	55571.34
651.96	55494.10
652.10	55320.90
652.25	55021.31
652.39	55171.11
652.54	55260.05
652.68	55103.23
652.83	55210.90
652.97	55084.51
653.12	55056.42
653.26	55185.15
653.41	55330.26
653.55	55292.82
653.70	54873.86
653.84	55255.37
653.99	54770.88
654.13	54887.90
654.27	54955.78
654.42	55114.94
654.56	54593.00
654.71	54705.34
654.85	55096.21
655.00	54836.41
655.14	54447.88
655.29	54639.81
655.43	54677.25
655.57	54305.11
655.72	54417.46
655.86	54721.72
656.01	54728.75
656.15	54609.38
656.30	54983.86
656.44	54768.54
656.58	55023.65
656.73	54808.32
656.87	54813.01
657.01	54536.82
657.16	54450.22
657.30	54466.61
657.45	54342.56
657.59	54504.06
657.73	54031.27
657.88	54302.77
658.02	54349.58
658.16	54344.90
658.31	54480.65
658.45	54497.03
658.60	54501.71
658.74	54473.63
658.88	54101.48
659.03	53811.26
659.17	54012.54
659.31	54136.59
659.46	53614.65
659.60	53860.41
659.74	53839.34
659.89	53776.15
660.03	53956.37
660.17	54314.47
660.32	53523.37
660.46	53579.54
660.60	53848.71
660.74	53663.80
660.89	53783.17
661.03	53469.54
661.17	53357.19
661.32	53207.40
661.46	53696.57
661.60	53354.85
661.74	53406.34
661.89	53490.60
662.03	53645.08
662.17	53357.19
662.31	53139.52
662.46	53237.83
662.60	53148.88
662.74	53078.67
662.88	52942.92
663.03	52985.05
663.17	53371.24
663.31	53289.32
663.45	53392.30
663.60	52793.12
663.74	52636.31
663.88	52692.48
664.02	52451.41
664.17	52722.91
664.31	52409.28
664.45	52486.51
664.59	52563.75
664.73	52556.73
664.88	52956.96
665.02	51936.49
665.16	52495.88
665.30	52367.15
665.44	52385.87
665.59	52332.04
665.73	52275.87
665.87	51985.64
666.01	52140.11
666.15	52041.81
666.29	51987.98
666.44	51945.85
666.58	51732.86
666.72	51547.96
666.86	51791.37
667.00	51810.10
667.14	51264.75
667.28	51915.42
667.43	51632.22
667.57	51805.42
667.71	51744.56
667.85	51522.21
667.99	51634.56
668.13	50913.67
668.27	51386.46
668.41	51508.17
668.56	51292.84
668.70	51075.17
668.84	50906.65
668.98	50681.96
669.12	51021.34
669.26	50974.53
669.40	50649.19
669.54	50939.42
669.68	50908.99
669.82	50700.68
669.96	50885.59
670.10	50798.99
670.25	50969.85
670.39	50726.43
670.53	50253.64
670.67	49954.05
670.81	50351.94
670.95	49886.18
671.09	49661.49
671.23	50050.02
671.37	49752.77
671.51	50138.96
671.65	50026.61
671.79	49986.82
671.93	50377.69
672.07	49895.54
672.21	49904.90
672.35	49186.36
672.49	49591.27
672.63	49279.98
672.77	49507.01
672.91	49525.74
673.05	49017.84
673.19	49090.40
673.33	49177.00
673.47	48975.71
673.61	49003.80
673.75	49036.56
673.89	49237.85
674.03	49062.31
674.17	48655.06
674.31	48589.52
674.45	48994.43
674.59	48624.63
674.73	48318.02
674.87	48486.54
675.01	48481.86
675.15	48219.72
675.29	48114.39
675.43	47859.27
675.56	47924.81
675.70	47391.17
675.84	47501.17
675.98	46564.96
676.12	47342.02
676.26	47508.19
676.40	47452.02
676.54	47374.78
676.68	47227.33
676.82	46878.59
676.96	47426.28
677.10	46916.04
677.23	46696.03
677.37	46799.01
677.51	46300.48
677.65	46464.32
677.79	46066.42
677.93	45818.33
678.07	46150.68
678.21	45434.48
678.34	45546.82
678.48	45160.64
678.62	45120.85
678.76	45090.42
678.90	45647.47
679.04	45544.48
679.18	45387.67
679.31	44601.25
679.45	44889.13
679.59	45230.85
679.73	44666.78
679.87	44795.51
680.00	44039.52
680.14	44360.17
680.28	44030.16
680.42	43831.21
680.56	44498.26
680.70	43564.39
680.83	43438.00
680.97	43941.22
681.11	43599.50
681.25	43192.25
681.39	43313.95
681.52	43096.28
681.66	43445.02
681.80	42946.49
681.94	42656.26
682.07	42995.64
682.21	42663.28
682.35	42515.83
682.49	43173.52
682.62	42522.85
682.76	42553.28
682.90	42359.02
683.04	41766.86
683.17	41691.96
683.31	41656.85
683.45	42246.67
683.59	41326.84
683.72	41521.10
683.86	41045.97
684.00	40257.21
684.13	41148.96
684.27	40786.18
684.41	40680.85
684.55	40779.15
684.68	41233.22
684.82	40121.46
684.96	40252.53
685.09	40297.00
685.23	39859.32
685.37	40231.47
685.50	40390.62
685.64	39957.63
685.78	39328.02
685.91	39625.27
686.05	39660.38
686.19	38817.78
686.32	39105.67
686.46	39068.22
686.60	39213.34
686.73	39084.61
686.87	39002.69
687.01	38988.64
687.14	38202.22
687.28	38218.61
687.42	37989.24
687.55	38129.67
687.69	38452.66
687.82	37694.33
687.96	37518.79
688.10	37708.37
688.23	37675.60
688.37	37560.92
688.50	36959.40
688.64	37020.25
688.78	37326.86
688.91	37289.42
689.05	36903.23
689.18	36243.20
689.32	35922.54
689.46	36191.70
689.59	36748.75
689.73	35854.67
689.86	35981.06
690.00	35756.36
690.13	35821.90
690.27	35758.70
690.41	35620.61
690.54	35056.54
690.68	35112.72
690.81	35529.33
690.95	35765.73
691.08	35096.33
691.22	35271.87
691.35	34728.87
691.49	35150.17
691.62	34522.90
691.76	34319.28
691.89	34260.76
692.03	34644.61
692.16	34302.89
692.30	33986.92
692.43	33750.52
692.57	33500.09
692.70	33689.67
692.84	33614.77
692.97	33600.73
693.11	33254.33
693.24	33034.32
693.38	33151.35
693.51	32818.99
693.65	32685.58
693.78	32861.12
693.92	32746.44
694.05	32493.66
694.19	31700.22
694.32	32184.71
694.45	32161.30
694.59	32095.77
694.72	31519.99
694.86	31136.15
694.99	31173.60
695.13	30925.50
695.26	31351.48
695.39	30771.02
695.53	31180.62
695.66	31061.25
695.80	30464.41
695.93	30747.62
696.07	30569.74
696.20	30665.70
696.33	30604.84
696.47	30412.92
696.60	29937.79
696.73	30349.73
696.87	30277.17
697.00	29898.00
697.14	29701.40
697.27	29844.17
697.40	29411.17
697.54	29020.30
697.67	28863.49
697.80	28507.72
697.94	28599.01
698.07	28254.95
698.21	28514.75
698.34	28577.94
698.47	28446.87
698.61	27803.22
698.74	27887.48
698.87	28402.40
699.01	28149.62
699.14	27962.38
699.27	27955.36
699.40	28109.83
699.54	28287.71
699.67	27835.99
699.80	27688.54
699.94	27257.88
700.07	26920.84
700.20	26602.53
700.34	26565.08
700.47	26651.68
700.60	26611.89
700.73	26862.33
700.87	26431.67
701.00	26057.18
701.13	25752.91
701.26	25785.68
701.40	25673.34
701.53	25963.56
701.66	25734.19
701.79	25703.76
701.93	25813.77
702.06	25518.86
702.19	25256.72
702.32	25434.60
702.46	24774.57
702.59	24563.92
702.72	24517.11
702.85	24603.71
702.99	24645.84
703.12	24467.96
703.25	24489.03
703.38	24680.95
703.51	24208.16
703.65	23929.64
703.78	24016.24
703.91	23857.08
704.04	23934.32
704.17	24259.65
704.31	23814.95
704.44	23412.38
704.57	23686.22
704.70	23302.37
704.83	23054.28
704.96	23150.24
705.10	23105.77
705.23	23014.49
>>>>>End Processed Spectral Data<<<<<
