SpectraSuite Data File
++++++++++++++++++++++++++++++++++++
Date: Thu Oct 24 13:21:38 EDT 2013
User: stostad
Dark Spectrum Present: No
Reference Spectrum Present: No
Number of Sampled Component Spectra: 1
Spectrometers: USB2+H05261
Integration Time (usec): 100000 (USB2+H05261)
Spectra Averaged: 1 (USB2+H05261)
Boxcar Smoothing: 0 (USB2+H05261)
Correct for Electrical Dark: No (USB2+H05261)
Strobe/Lamp Enabled: No (USB2+H05261)
Correct for Detector Non-linearity: No (USB2+H05261)
Correct for Stray Light: No (USB2+H05261)
Number of Pixels in Processed Spectrum: 2048
>>>>>Begin Processed Spectral Data<<<<<
365.73	528.96
365.92	528.96
366.12	528.96
366.32	575.77
366.52	482.15
366.72	482.15
366.91	468.11
367.11	503.22
367.31	521.94
367.51	486.83
367.70	517.26
367.90	491.51
368.10	425.98
368.30	519.60
368.49	500.87
368.69	491.51
368.89	510.24
369.09	503.22
369.28	557.05
369.48	550.03
369.68	517.26
369.87	552.37
370.07	575.77
370.27	535.98
370.47	802.80
370.66	1193.67
370.86	1228.78
371.06	1315.38
371.25	1240.48
371.45	1284.95
371.65	1291.98
371.84	1249.85
372.04	1343.47
372.24	1310.70
372.44	1385.60
372.63	1301.34
372.83	1324.74
373.03	1416.02
373.22	1420.71
373.42	1348.15
373.62	1434.75
373.81	1362.19
374.01	1516.67
374.21	1488.58
374.40	1490.92
374.60	1612.63
374.79	1497.94
374.99	1582.20
375.19	1507.30
375.38	1530.71
375.58	1504.96
375.78	1544.75
375.97	1584.54
376.17	1624.33
376.37	1605.61
376.56	1598.59
376.76	1617.31
376.95	1586.88
377.15	1654.76
377.35	1593.90
377.54	1603.27
377.74	1671.14
377.93	1680.50
378.13	1600.93
378.33	1703.91
378.52	1626.67
378.72	1666.46
378.91	1727.32
379.11	1724.97
379.31	1668.80
379.50	1739.02
379.70	1778.81
379.89	1739.02
380.09	1666.46
380.28	1762.42
380.48	1877.11
380.68	1739.02
380.87	1746.04
381.07	1893.49
381.26	1750.72
381.46	1818.60
381.65	1870.09
381.85	1748.38
382.04	1774.13
382.24	1825.62
382.43	1837.32
382.63	1926.26
382.83	1891.15
383.02	1888.81
383.22	1956.69
383.41	1926.26
383.61	2019.88
383.80	2012.86
384.00	2003.50
384.19	1961.37
384.39	1961.37
384.58	2054.99
384.78	2022.22
384.97	2029.24
385.17	2003.50
385.36	1968.39
385.56	2146.27
385.75	2113.50
385.95	2132.23
386.14	2118.18
386.34	2052.65
386.53	2132.23
386.72	2108.82
386.92	2197.76
387.11	2230.53
387.31	2242.23
387.50	2073.71
387.70	2202.44
387.89	2289.04
388.09	2258.62
388.28	2307.77
388.48	2179.04
388.67	2310.11
388.86	2242.23
389.06	2249.25
389.25	2385.01
389.45	2375.64
389.64	2377.98
389.84	2385.01
390.03	2527.78
390.22	2415.43
390.42	2464.58
390.61	2342.88
390.81	2469.27
391.00	2427.14
391.19	2438.84
391.39	2509.05
391.58	2602.68
391.78	2616.72
391.97	2579.27
392.16	2518.42
392.36	2583.95
392.55	2588.63
392.75	2708.00
392.94	2684.59
393.13	2626.08
393.33	2677.57
393.52	2647.15
393.71	2691.62
393.91	2736.09
394.10	2759.49
394.29	2757.15
394.49	2789.92
394.68	2768.85
394.88	2775.88
395.07	2834.39
395.26	2853.11
395.46	2953.76
395.65	2981.84
395.84	2864.82
396.04	3066.10
396.23	2935.03
396.42	3014.61
396.62	2904.60
396.81	3061.42
397.00	3126.96
397.19	2974.82
397.39	3014.61
397.58	3026.31
397.77	3119.93
397.97	3169.09
398.16	3136.32
398.35	3192.49
398.55	3321.22
398.74	3178.45
398.93	3314.20
399.12	3377.39
399.32	3183.13
399.51	3403.14
399.70	3407.82
399.90	3323.56
400.09	3445.27
400.28	3379.73
400.47	3414.84
400.67	3438.25
400.86	3475.70
401.05	3370.37
401.24	3428.88
401.44	3487.40
401.63	3461.65
401.82	3513.14
402.01	3445.27
402.21	3389.10
402.40	3611.45
402.59	3669.96
402.78	3620.81
402.97	3770.60
403.17	3777.62
403.36	3737.84
403.55	3857.20
403.74	3737.84
403.93	3866.56
404.13	3859.54
404.32	3918.06
404.51	3957.85
404.70	3918.06
404.89	3829.12
405.09	4011.68
405.28	3922.74
405.47	4056.15
405.66	4095.94
405.85	4074.87
406.05	4081.89
406.24	4189.56
406.43	4257.43
406.62	4400.21
406.81	4360.42
407.00	4109.98
407.20	4196.58
407.39	4095.94
407.58	4395.53
407.77	4428.29
407.96	4339.35
408.15	4432.97
408.34	4180.20
408.54	4425.95
408.73	4470.42
408.92	4526.60
409.11	4571.07
409.30	4620.22
409.49	4566.39
409.68	4615.54
409.87	4627.24
410.07	4678.73
410.26	4655.33
410.45	4786.40
410.64	5008.75
410.83	4868.31
411.02	4997.04
411.21	4938.53
411.40	4999.38
411.59	5043.85
411.78	5015.77
411.98	5116.41
412.17	5083.64
412.36	5111.73
412.55	5146.84
412.74	5261.52
412.93	5303.65
413.12	5289.61
413.31	5493.24
413.50	5385.57
413.69	5427.70
413.88	5568.13
414.07	5577.50
414.26	5650.05
414.45	5650.05
414.64	5673.46
414.83	5872.40
415.02	5834.96
415.22	5909.85
415.41	6017.52
415.60	5916.87
415.79	6022.20
415.98	6059.65
416.17	6099.44
416.36	5959.00
416.55	6047.94
416.74	6443.49
416.93	6108.80
417.12	6218.80
417.31	6335.83
417.50	6459.88
417.69	6490.31
417.88	6586.27
418.07	6719.68
418.26	6478.60
418.45	6558.18
418.64	6810.96
418.83	6920.96
419.02	6700.95
419.21	6944.37
419.39	6785.21
419.58	6768.83
419.77	6911.60
419.96	6778.19
420.15	6869.47
420.34	7019.27
420.53	6848.41
420.72	7091.82
420.91	7126.93
421.10	7199.49
421.29	7248.64
421.48	7047.35
421.67	7281.41
421.86	7105.87
422.05	7232.26
422.24	7204.17
422.43	7260.34
422.61	7524.82
422.80	7318.86
422.99	7447.58
423.18	7447.58
423.37	7499.08
423.56	7536.52
423.75	7412.48
423.94	7162.04
424.13	6944.37
424.32	7002.88
424.50	7585.68
424.69	7482.69
424.88	7653.55
425.07	7468.65
425.26	7318.86
425.45	7454.61
425.64	7384.39
425.83	7592.70
426.01	7508.44
426.20	7606.74
426.39	7669.94
426.58	7681.64
426.77	7562.27
426.96	7674.62
427.15	7749.51
427.33	7817.39
427.52	7728.45
427.71	7948.46
427.90	7920.37
428.09	7833.77
428.28	8058.46
428.46	7906.33
428.65	7943.78
428.84	8252.73
429.03	8161.45
429.22	7889.95
429.40	8292.52
429.59	8142.72
429.78	7908.67
429.97	7911.01
430.16	8259.75
430.34	8446.99
430.53	8521.89
430.72	8514.87
430.91	8301.88
431.10	8304.22
431.28	8659.98
431.47	8557.00
431.66	8793.39
431.85	8786.37
432.03	8844.88
432.22	8978.30
432.41	8758.28
432.60	8849.57
432.79	8879.99
432.97	8908.08
433.16	9076.60
433.35	8966.59
433.54	9242.78
433.72	8982.98
433.91	8964.25
434.10	9235.75
434.28	9191.28
434.47	9467.47
434.66	9334.06
434.85	9345.76
435.03	9621.94
435.22	9521.30
435.41	9905.15
435.59	9776.42
435.78	9614.92
435.97	10083.03
436.16	9645.35
436.34	9701.52
436.53	9764.72
436.72	10183.67
436.90	9713.22
437.09	9785.78
437.28	9827.91
437.46	9839.61
437.65	9841.95
437.84	10178.99
438.02	10101.75
438.21	10115.80
438.40	10047.92
438.58	10377.94
438.77	10335.81
438.96	10349.85
439.14	10747.74
439.33	10719.65
439.52	10829.66
439.70	10712.63
439.89	10860.09
440.08	10761.78
440.26	11169.04
440.45	10930.30
440.63	11295.43
440.82	11318.83
441.01	11248.61
441.19	11569.27
441.38	11496.71
441.57	11602.04
441.75	11728.42
441.94	11782.26
442.12	11772.89
442.31	11929.71
442.50	12018.65
442.68	12016.31
442.87	12025.67
443.05	12081.85
443.24	12346.33
443.43	12264.41
443.61	12315.90
443.80	12519.53
443.98	11939.07
444.17	11726.08
444.35	12044.40
444.54	12498.46
444.73	12432.93
444.91	12098.23
445.10	12564.00
445.28	12283.13
445.47	12332.28
445.65	12493.78
445.84	12659.96
446.02	12730.17
446.21	12531.23
446.39	12545.27
446.58	12821.45
446.77	12578.04
446.95	12341.64
447.14	12379.09
447.32	12821.45
447.51	12643.57
447.69	12521.87
447.88	12765.28
448.06	12484.42
448.25	12613.15
448.43	12877.63
448.62	12807.41
448.80	12746.56
448.99	12758.26
449.17	12980.61
449.36	13032.10
449.54	12908.05
449.73	13366.80
449.91	13444.04
450.10	13331.69
450.28	13542.34
450.46	13710.86
450.65	13495.53
450.83	13633.62
451.02	13516.59
451.20	13839.59
451.39	13668.73
451.57	13685.11
451.76	13394.89
451.94	13434.68
452.13	14090.02
452.31	13825.54
452.49	14038.53
452.68	14129.81
452.86	14307.69
453.05	14104.07
453.23	14171.94
453.42	14080.66
453.60	14017.47
453.78	14164.92
453.97	13970.66
454.15	14073.64
454.34	14036.19
454.52	14527.71
454.70	14448.13
454.89	14279.61
455.07	14738.35
455.26	14714.95
455.44	14846.02
455.62	14668.14
455.81	14799.21
455.99	14941.98
456.17	14885.81
456.36	14960.70
456.54	15145.61
456.73	15538.82
456.91	15517.75
457.09	15604.35
457.28	15700.31
457.46	15466.26
457.64	15730.74
457.83	15716.70
458.01	15646.48
458.19	15976.50
458.38	15735.42
458.56	15981.18
458.74	15950.75
458.93	16126.29
459.11	16023.31
459.29	16027.99
459.48	16236.30
459.66	16109.91
459.84	16346.30
460.03	16472.69
460.21	16575.67
460.39	16631.85
460.57	16475.03
460.76	16372.05
460.94	16704.40
461.12	16884.62
461.31	16922.07
461.49	16849.52
461.67	16821.43
461.85	16912.71
462.04	16812.07
462.22	17310.60
462.40	17558.70
462.59	17092.93
462.77	17078.89
462.95	17518.91
463.13	17696.79
463.32	17535.29
463.50	17500.19
463.68	17483.80
463.86	17748.28
464.05	17537.63
464.23	17619.55
464.41	17661.68
464.59	17455.72
464.78	18164.90
464.96	17764.67
465.14	17734.24
465.32	18054.89
465.50	18396.61
465.69	18438.74
465.87	18354.48
466.05	18022.12
466.23	18221.07
466.41	18277.24
466.60	18541.72
466.78	18291.29
466.96	18200.01
467.14	18314.69
467.32	18225.75
467.51	18787.48
467.69	18141.49
467.87	18408.31
468.05	18946.64
468.23	18403.63
468.41	18476.19
468.60	18848.33
468.78	19136.22
468.96	19042.60
469.14	19365.59
469.32	19426.45
469.50	19068.34
469.69	19414.74
469.87	19475.60
470.05	19819.66
470.23	19644.12
470.41	19620.71
470.59	19988.18
470.77	19618.37
470.95	19838.38
471.14	20231.59
471.32	20013.92
471.50	20318.19
471.68	20339.26
471.86	20313.51
472.04	20882.26
472.22	21057.80
472.40	20861.19
472.58	20734.81
472.77	20877.58
472.95	21018.01
473.13	21874.65
473.31	21310.58
473.49	21376.11
473.67	21144.40
473.85	21305.90
474.03	21888.69
474.21	22101.68
474.39	21986.99
474.57	21848.90
474.75	22445.74
474.93	22377.86
475.12	22398.93
475.30	22764.05
475.48	22527.66
475.66	22572.13
475.84	23030.87
476.02	23555.15
476.20	23185.35
476.38	23662.82
476.56	24046.66
476.74	24159.01
476.92	23882.83
477.10	23985.81
477.28	24538.18
477.46	24023.26
477.64	24634.14
477.82	24992.24
478.00	25502.48
478.18	25331.62
478.36	25687.38
478.54	25970.58
478.72	25984.63
478.90	26223.36
479.08	26398.90
479.26	26429.33
479.44	26941.91
479.62	26705.51
479.80	27117.45
479.98	27077.66
480.16	28182.39
480.34	27133.83
480.52	27847.69
480.70	27793.86
480.88	27761.09
481.06	28271.33
481.24	28093.45
481.41	28528.79
481.59	28917.32
481.77	29429.90
481.95	29544.58
482.13	29888.64
482.31	29701.40
482.49	30387.18
482.67	29930.77
482.85	30686.76
483.03	30899.75
483.21	31512.97
483.39	31637.02
483.57	31541.06
483.74	31461.48
483.92	32304.07
484.10	31821.92
484.28	33123.26
484.46	32849.42
484.64	33624.14
484.82	32697.28
485.00	33682.65
485.18	34148.42
485.35	34242.04
485.53	34525.24
485.71	34679.72
485.89	35431.03
486.07	35140.80
486.25	34974.63
486.43	35386.56
486.61	36032.55
486.78	36196.38
486.96	36741.73
487.14	36954.72
487.32	36727.69
487.50	37455.59
487.68	37736.46
487.85	38242.01
488.03	38492.45
488.21	38904.38
488.39	38731.18
488.57	39257.81
488.75	39749.32
488.92	39559.73
489.10	40006.78
489.28	39922.52
489.46	40905.54
489.64	40542.76
489.81	41425.14
489.99	41223.86
490.17	41654.51
490.35	41565.57
490.53	42267.73
490.70	42855.21
490.88	42066.45
491.06	42583.71
491.24	42880.95
491.41	43320.98
491.59	43985.69
491.77	44100.37
491.95	44371.88
492.13	44804.88
492.30	44629.34
492.48	45155.96
492.66	44968.71
492.84	44917.22
493.01	45815.99
493.19	45823.01
493.37	46073.45
493.54	46534.53
493.72	46534.53
493.90	46689.01
494.08	47150.09
494.25	47686.07
494.43	47402.87
494.61	47971.62
494.79	47711.82
494.96	47910.77
495.14	48404.62
495.32	48617.61
495.49	49074.01
495.67	49155.93
495.85	49333.81
496.02	49577.23
496.20	50274.71
496.38	49654.47
496.55	49928.31
496.73	50775.58
496.91	50101.51
497.09	50712.39
497.26	50740.47
497.44	50843.46
497.62	51133.68
497.79	51318.59
497.97	51344.33
498.14	51915.42
498.32	52130.75
498.50	51938.83
498.67	52243.10
498.85	52355.44
499.03	52369.49
499.20	52739.29
499.38	52896.11
499.56	52996.75
499.73	53221.44
499.91	53567.84
500.08	53666.14
500.26	53237.83
500.44	53212.08
500.61	53862.75
500.79	53808.92
500.97	53951.69
501.14	54328.52
501.32	54312.13
501.49	54164.68
501.67	54478.31
501.84	54354.26
502.02	54780.24
502.20	54773.22
502.37	55159.41
502.55	54883.22
502.72	55121.96
502.90	55182.81
503.07	55297.50
503.25	55405.16
503.43	55206.22
503.60	55489.42
503.78	55721.13
503.95	55529.21
504.13	55915.40
504.30	55957.53
504.48	55583.04
504.65	55969.23
504.83	56411.59
505.01	56278.18
505.18	56528.62
505.36	56425.64
505.53	56662.03
505.71	56708.84
505.88	56757.99
506.06	56961.62
506.23	57052.90
506.41	56924.17
506.58	57017.79
506.76	57045.88
506.93	57059.92
507.11	57474.20
507.28	57352.49
507.46	57387.60
507.63	57666.12
507.81	57743.36
507.98	57495.26
508.16	57792.51
508.33	57780.81
508.50	58113.16
508.68	58080.39
508.85	58307.43
509.03	58305.09
509.20	58401.05
509.38	58244.23
509.55	58602.33
509.73	58794.26
509.90	58906.60
510.08	58670.21
510.25	58592.97
510.42	58901.92
510.60	59054.06
510.77	59018.95
510.95	59451.95
511.12	59096.19
511.30	59330.24
511.47	59571.32
511.64	59405.14
511.82	59592.38
511.99	59372.37
512.17	59709.41
512.34	59552.59
512.51	60060.49
512.69	59910.69
512.86	60062.83
513.04	60254.75
513.21	60119.00
513.38	60097.94
513.56	60177.51
513.73	60193.90
513.90	60339.01
514.08	60303.90
514.25	60528.59
514.43	60573.06
514.60	60498.17
514.77	60500.51
514.95	60683.07
515.12	60704.13
515.29	60863.29
515.47	61052.87
515.64	61146.50
515.81	61057.56
515.99	60947.55
516.16	61268.20
516.33	60982.66
516.51	61415.66
516.68	61375.87
516.85	61324.38
517.03	61602.90
517.20	61743.33
517.37	61331.40
517.54	61530.34
517.72	61509.28
517.89	61715.25
518.06	61787.80
518.24	61811.21
518.41	61820.57
518.58	61745.67
518.75	61656.73
518.93	61961.00
519.10	61867.38
519.27	62220.80
519.45	62227.82
519.62	62513.37
519.79	62473.58
519.96	62403.36
520.14	62426.77
520.31	62281.66
520.48	62464.22
520.65	62482.94
520.83	62775.51
521.00	62735.72
521.17	62812.96
521.34	62929.98
521.52	62843.38
521.69	62880.83
521.86	62859.77
522.03	63175.74
522.20	63297.45
522.38	63213.19
522.55	63351.28
522.72	63384.05
522.89	63215.53
523.07	63292.77
523.24	63419.16
523.41	63194.46
523.58	63231.91
523.75	63683.64
523.92	63463.63
524.10	63547.89
524.27	63674.27
524.44	63725.77
524.61	63868.54
524.78	63716.40
524.96	63861.52
525.13	64048.76
525.30	64247.71
525.47	64151.74
525.64	64053.44
525.81	64170.47
525.98	64257.07
526.16	64147.06
526.33	64226.64
526.50	64364.73
526.67	64362.39
526.84	64479.42
527.01	64467.72
527.18	64633.89
527.36	64495.80
527.53	64390.48
527.70	64755.60
527.87	64708.79
528.04	64793.05
528.21	64879.65
528.38	64750.92
528.55	64860.93
528.72	64734.54
528.89	64832.84
529.07	64704.11
529.24	64987.31
529.41	65034.13
529.58	65015.40
529.75	65055.19
529.92	65055.19
530.09	65151.15
530.26	65130.09
530.43	65078.60
530.60	65001.36
530.77	65059.87
530.94	65371.16
531.11	65448.40
531.28	65350.10
531.46	65434.36
531.63	65535.00
531.80	65331.37
531.97	65535.00
532.14	65535.00
532.31	65483.51
532.48	65535.00
532.65	65535.00
532.82	65535.00
532.99	65535.00
533.16	65535.00
533.33	65535.00
533.50	65535.00
533.67	65535.00
533.84	65535.00
534.01	65535.00
534.18	65535.00
534.35	65535.00
534.52	65535.00
534.69	65535.00
534.86	65535.00
535.03	65535.00
535.20	65535.00
535.37	65535.00
535.54	65535.00
535.71	65535.00
535.88	65535.00
536.05	65535.00
536.22	65535.00
536.38	65535.00
536.55	65535.00
536.72	65535.00
536.89	65535.00
537.06	65535.00
537.23	65535.00
537.40	65535.00
537.57	65535.00
537.74	65535.00
537.91	65535.00
538.08	65535.00
538.25	65535.00
538.42	65535.00
538.59	65535.00
538.75	65535.00
538.92	65535.00
539.09	65535.00
539.26	65535.00
539.43	65535.00
539.60	65535.00
539.77	65535.00
539.94	65535.00
540.11	65535.00
540.28	65535.00
540.44	65535.00
540.61	65535.00
540.78	65535.00
540.95	65535.00
541.12	65535.00
541.29	65535.00
541.46	65535.00
541.62	65535.00
541.79	65535.00
541.96	65535.00
542.13	65535.00
542.30	65535.00
542.47	65535.00
542.63	65535.00
542.80	65535.00
542.97	65535.00
543.14	65535.00
543.31	65535.00
543.48	65535.00
543.64	65535.00
543.81	65535.00
543.98	65535.00
544.15	65535.00
544.32	65535.00
544.48	65535.00
544.65	65535.00
544.82	65535.00
544.99	65535.00
545.16	65535.00
545.32	65535.00
545.49	65535.00
545.66	65535.00
545.83	65535.00
546.00	65535.00
546.16	65535.00
546.33	65535.00
546.50	65535.00
546.67	65535.00
546.83	65535.00
547.00	65535.00
547.17	65535.00
547.34	65535.00
547.50	65535.00
547.67	65535.00
547.84	65535.00
548.00	65535.00
548.17	65535.00
548.34	65535.00
548.51	65535.00
548.67	65535.00
548.84	65535.00
549.01	65535.00
549.18	65535.00
549.34	65535.00
549.51	65535.00
549.68	65535.00
549.84	65535.00
550.01	65535.00
550.18	65535.00
550.34	65535.00
550.51	65535.00
550.68	65535.00
550.84	65535.00
551.01	65535.00
551.18	65535.00
551.34	65535.00
551.51	65535.00
551.68	65535.00
551.84	65535.00
552.01	65535.00
552.18	65535.00
552.34	65535.00
552.51	65535.00
552.68	65535.00
552.84	65535.00
553.01	65535.00
553.18	65535.00
553.34	65535.00
553.51	65535.00
553.67	65535.00
553.84	65535.00
554.01	65535.00
554.17	65535.00
554.34	65535.00
554.51	65535.00
554.67	65535.00
554.84	65535.00
555.00	65535.00
555.17	65535.00
555.33	65535.00
555.50	65535.00
555.67	65535.00
555.83	65535.00
556.00	65535.00
556.16	65535.00
556.33	65535.00
556.50	65535.00
556.66	65535.00
556.83	65535.00
556.99	65535.00
557.16	65535.00
557.32	65535.00
557.49	65535.00
557.65	65535.00
557.82	65535.00
557.98	65535.00
558.15	65535.00
558.32	65535.00
558.48	65535.00
558.65	65535.00
558.81	65535.00
558.98	65535.00
559.14	65535.00
559.31	65535.00
559.47	65535.00
559.64	65535.00
559.80	65535.00
559.97	65535.00
560.13	65535.00
560.30	65535.00
560.46	65535.00
560.63	65535.00
560.79	65535.00
560.96	65535.00
561.12	65535.00
561.29	65535.00
561.45	65535.00
561.61	65535.00
561.78	65535.00
561.94	65535.00
562.11	65535.00
562.27	65535.00
562.44	65535.00
562.60	65535.00
562.77	65535.00
562.93	65535.00
563.10	65535.00
563.26	65535.00
563.42	65535.00
563.59	65535.00
563.75	65535.00
563.92	65535.00
564.08	65535.00
564.24	65535.00
564.41	65535.00
564.57	65535.00
564.74	65535.00
564.90	65535.00
565.07	65535.00
565.23	65535.00
565.39	65535.00
565.56	65535.00
565.72	65535.00
565.88	65535.00
566.05	65535.00
566.21	65535.00
566.38	65535.00
566.54	65535.00
566.70	65535.00
566.87	65535.00
567.03	65535.00
567.19	65535.00
567.36	65535.00
567.52	65535.00
567.68	65535.00
567.85	65535.00
568.01	65535.00
568.17	65535.00
568.34	65535.00
568.50	65535.00
568.66	65535.00
568.83	65535.00
568.99	65535.00
569.15	65535.00
569.32	65535.00
569.48	65535.00
569.64	65535.00
569.81	65535.00
569.97	65535.00
570.13	65535.00
570.30	65535.00
570.46	65535.00
570.62	65535.00
570.78	65535.00
570.95	65535.00
571.11	65535.00
571.27	65535.00
571.43	65535.00
571.60	65535.00
571.76	65535.00
571.92	65535.00
572.09	65535.00
572.25	65535.00
572.41	65535.00
572.57	65535.00
572.74	65535.00
572.90	65535.00
573.06	65535.00
573.22	65535.00
573.38	65535.00
573.55	65535.00
573.71	65535.00
573.87	65535.00
574.03	65535.00
574.20	65535.00
574.36	65535.00
574.52	65535.00
574.68	65535.00
574.84	65535.00
575.01	65535.00
575.17	65535.00
575.33	65535.00
575.49	65535.00
575.65	65535.00
575.82	65535.00
575.98	65535.00
576.14	65535.00
576.30	65535.00
576.46	65535.00
576.62	65535.00
576.79	65535.00
576.95	65535.00
577.11	65535.00
577.27	65535.00
577.43	65535.00
577.59	65535.00
577.75	65535.00
577.92	65535.00
578.08	65535.00
578.24	65535.00
578.40	65535.00
578.56	65535.00
578.72	65535.00
578.88	65535.00
579.04	65535.00
579.21	65535.00
579.37	65535.00
579.53	65535.00
579.69	65535.00
579.85	65535.00
580.01	65535.00
580.17	65535.00
580.33	65535.00
580.49	65535.00
580.65	65535.00
580.82	65535.00
580.98	65535.00
581.14	65535.00
581.30	65535.00
581.46	65535.00
581.62	65535.00
581.78	65535.00
581.94	65535.00
582.10	65535.00
582.26	65535.00
582.42	65535.00
582.58	65535.00
582.74	65535.00
582.90	65535.00
583.06	65535.00
583.22	65535.00
583.38	65535.00
583.54	65535.00
583.70	65535.00
583.86	65535.00
584.02	65535.00
584.18	65535.00
584.34	65535.00
584.50	65535.00
584.66	65535.00
584.82	65535.00
584.98	65535.00
585.14	65535.00
585.30	65535.00
585.46	65535.00
585.62	65535.00
585.78	65535.00
585.94	65535.00
586.10	65535.00
586.26	65535.00
586.42	65535.00
586.58	65535.00
586.74	65535.00
586.90	65535.00
587.06	65535.00
587.22	65535.00
587.38	65535.00
587.54	65535.00
587.70	65535.00
587.86	65535.00
588.02	65535.00
588.18	65535.00
588.34	65535.00
588.49	65535.00
588.65	65535.00
588.81	65535.00
588.97	65535.00
589.13	65535.00
589.29	65535.00
589.45	65535.00
589.61	65535.00
589.77	65535.00
589.93	65535.00
590.08	65535.00
590.24	65535.00
590.40	65535.00
590.56	65535.00
590.72	65535.00
590.88	65535.00
591.04	65535.00
591.20	65535.00
591.35	65535.00
591.51	65535.00
591.67	65535.00
591.83	65535.00
591.99	65535.00
592.15	65535.00
592.31	65535.00
592.46	65535.00
592.62	65535.00
592.78	65535.00
592.94	65535.00
593.10	65535.00
593.26	65535.00
593.41	65535.00
593.57	65535.00
593.73	65535.00
593.89	65535.00
594.05	65535.00
594.20	65535.00
594.36	65535.00
594.52	65535.00
594.68	65535.00
594.84	65535.00
594.99	65535.00
595.15	65535.00
595.31	65535.00
595.47	65535.00
595.62	65535.00
595.78	65535.00
595.94	65535.00
596.10	65535.00
596.25	65535.00
596.41	65535.00
596.57	65535.00
596.73	65535.00
596.88	65535.00
597.04	65535.00
597.20	65535.00
597.36	65535.00
597.51	65535.00
597.67	65535.00
597.83	65535.00
597.99	65535.00
598.14	65535.00
598.30	65535.00
598.46	65535.00
598.61	65535.00
598.77	65535.00
598.93	65535.00
599.09	65535.00
599.24	65535.00
599.40	65535.00
599.56	65535.00
599.71	65535.00
599.87	65535.00
600.03	65535.00
600.18	65535.00
600.34	65535.00
600.50	65535.00
600.65	65535.00
600.81	65535.00
600.97	65535.00
601.12	65535.00
601.28	65535.00
601.44	65535.00
601.59	65535.00
601.75	65535.00
601.91	65535.00
602.06	65535.00
602.22	65535.00
602.37	65535.00
602.53	65535.00
602.69	65535.00
602.84	65535.00
603.00	65535.00
603.16	65535.00
603.31	65535.00
603.47	65535.00
603.62	65535.00
603.78	65535.00
603.94	65535.00
604.09	65535.00
604.25	65535.00
604.40	65535.00
604.56	65535.00
604.71	65535.00
604.87	65535.00
605.03	65535.00
605.18	65535.00
605.34	65535.00
605.49	65535.00
605.65	65535.00
605.80	65535.00
605.96	65535.00
606.12	65535.00
606.27	65535.00
606.43	65535.00
606.58	65535.00
606.74	65535.00
606.89	65535.00
607.05	65535.00
607.20	65535.00
607.36	65535.00
607.51	65535.00
607.67	65535.00
607.82	65535.00
607.98	65535.00
608.13	65535.00
608.29	65535.00
608.44	65535.00
608.60	65535.00
608.75	65535.00
608.91	65535.00
609.06	65535.00
609.22	65535.00
609.37	65535.00
609.53	65535.00
609.68	65535.00
609.84	65535.00
609.99	65535.00
610.15	65535.00
610.30	65535.00
610.46	65535.00
610.61	65535.00
610.76	65535.00
610.92	65535.00
611.07	65535.00
611.23	65535.00
611.38	65535.00
611.54	65535.00
611.69	65535.00
611.84	65535.00
612.00	65535.00
612.15	65535.00
612.31	65535.00
612.46	65535.00
612.62	65535.00
612.77	65535.00
612.92	65535.00
613.08	65535.00
613.23	65535.00
613.39	65535.00
613.54	65535.00
613.69	65535.00
613.85	65535.00
614.00	65535.00
614.15	65535.00
614.31	65535.00
614.46	65535.00
614.62	65535.00
614.77	65535.00
614.92	65535.00
615.08	65535.00
615.23	65535.00
615.38	65535.00
615.54	65535.00
615.69	65535.00
615.84	65535.00
616.00	65535.00
616.15	65535.00
616.30	65535.00
616.46	65535.00
616.61	65535.00
616.76	65535.00
616.92	65535.00
617.07	65535.00
617.22	65535.00
617.37	65535.00
617.53	65535.00
617.68	65535.00
617.83	65535.00
617.99	65535.00
618.14	65535.00
618.29	65535.00
618.45	65535.00
618.60	65535.00
618.75	65535.00
618.90	65535.00
619.06	65535.00
619.21	65535.00
619.36	65535.00
619.51	65535.00
619.67	65535.00
619.82	65535.00
619.97	65535.00
620.12	65535.00
620.28	65535.00
620.43	65535.00
620.58	65535.00
620.73	65535.00
620.89	65535.00
621.04	65535.00
621.19	65535.00
621.34	65535.00
621.49	65535.00
621.65	65535.00
621.80	65535.00
621.95	65535.00
622.10	65535.00
622.25	65535.00
622.41	65535.00
622.56	65535.00
622.71	65535.00
622.86	65535.00
623.01	65535.00
623.16	65535.00
623.32	65535.00
623.47	65535.00
623.62	65535.00
623.77	65535.00
623.92	65535.00
624.07	65535.00
624.23	65535.00
624.38	65535.00
624.53	65535.00
624.68	65535.00
624.83	65535.00
624.98	65535.00
625.13	65535.00
625.29	65535.00
625.44	65535.00
625.59	65535.00
625.74	65535.00
625.89	65535.00
626.04	65535.00
626.19	65535.00
626.34	65535.00
626.49	65535.00
626.65	65535.00
626.80	65535.00
626.95	65535.00
627.10	65535.00
627.25	65535.00
627.40	65535.00
627.55	65535.00
627.70	65535.00
627.85	65535.00
628.00	65535.00
628.15	65535.00
628.30	65535.00
628.45	65535.00
628.60	65535.00
628.76	65535.00
628.91	65535.00
629.06	65535.00
629.21	65535.00
629.36	65535.00
629.51	65535.00
629.66	65535.00
629.81	65535.00
629.96	65535.00
630.11	65535.00
630.26	65535.00
630.41	65535.00
630.56	65535.00
630.71	65535.00
630.86	65535.00
631.01	65535.00
631.16	65535.00
631.31	65535.00
631.46	65535.00
631.61	65535.00
631.76	65535.00
631.91	65535.00
632.06	65535.00
632.21	65535.00
632.36	65535.00
632.51	65535.00
632.66	65535.00
632.81	65535.00
632.96	65535.00
633.10	65535.00
633.25	65535.00
633.40	65535.00
633.55	65535.00
633.70	65535.00
633.85	65535.00
634.00	65535.00
634.15	65535.00
634.30	65535.00
634.45	65535.00
634.60	65535.00
634.75	65535.00
634.90	65535.00
635.05	65535.00
635.19	65535.00
635.34	65535.00
635.49	65535.00
635.64	65535.00
635.79	65535.00
635.94	65535.00
636.09	65535.00
636.24	65535.00
636.39	65535.00
636.53	65535.00
636.68	65535.00
636.83	65535.00
636.98	65535.00
637.13	65535.00
637.28	65535.00
637.43	65535.00
637.57	65535.00
637.72	65535.00
637.87	65535.00
638.02	65535.00
638.17	65535.00
638.32	65535.00
638.46	65535.00
638.61	65535.00
638.76	65535.00
638.91	65535.00
639.06	65535.00
639.20	65535.00
639.35	65535.00
639.50	65535.00
639.65	65535.00
639.80	65535.00
639.94	65535.00
640.09	65535.00
640.24	65535.00
640.39	65535.00
640.54	65535.00
640.68	65535.00
640.83	65535.00
640.98	65535.00
641.13	65535.00
641.27	65535.00
641.42	65535.00
641.57	65535.00
641.72	65535.00
641.86	65535.00
642.01	65535.00
642.16	65535.00
642.31	65535.00
642.45	65535.00
642.60	65535.00
642.75	65535.00
642.90	65535.00
643.04	65535.00
643.19	65535.00
643.34	65535.00
643.48	65535.00
643.63	65535.00
643.78	65535.00
643.93	65535.00
644.07	65535.00
644.22	65535.00
644.37	65535.00
644.51	65535.00
644.66	65535.00
644.81	65535.00
644.95	65535.00
645.10	65535.00
645.25	65535.00
645.39	65535.00
645.54	65535.00
645.69	65535.00
645.83	65535.00
645.98	65535.00
646.13	65535.00
646.27	65535.00
646.42	65535.00
646.57	65535.00
646.71	65535.00
646.86	65535.00
647.00	65535.00
647.15	65535.00
647.30	65535.00
647.44	65535.00
647.59	65535.00
647.74	65535.00
647.88	65535.00
648.03	65535.00
648.17	65535.00
648.32	65535.00
648.47	65535.00
648.61	65535.00
648.76	65535.00
648.90	65535.00
649.05	65535.00
649.20	65535.00
649.34	65535.00
649.49	65535.00
649.63	65535.00
649.78	65535.00
649.92	65535.00
650.07	65535.00
650.21	65535.00
650.36	65535.00
650.51	65535.00
650.65	65535.00
650.80	65535.00
650.94	65535.00
651.09	65535.00
651.23	65535.00
651.38	65535.00
651.52	65535.00
651.67	65535.00
651.81	65535.00
651.96	65535.00
652.10	65535.00
652.25	65535.00
652.39	65535.00
652.54	65535.00
652.68	65535.00
652.83	65535.00
652.97	65535.00
653.12	65535.00
653.26	65535.00
653.41	65535.00
653.55	65535.00
653.70	65535.00
653.84	65535.00
653.99	65535.00
654.13	65535.00
654.27	65535.00
654.42	65535.00
654.56	65535.00
654.71	65535.00
654.85	65535.00
655.00	65535.00
655.14	65535.00
655.29	65535.00
655.43	65535.00
655.57	65535.00
655.72	65535.00
655.86	65535.00
656.01	65535.00
656.15	65535.00
656.30	65535.00
656.44	65535.00
656.58	65535.00
656.73	65535.00
656.87	65535.00
657.01	65535.00
657.16	65535.00
657.30	65535.00
657.45	65535.00
657.59	65535.00
657.73	65535.00
657.88	65535.00
658.02	65535.00
658.16	65535.00
658.31	65535.00
658.45	65535.00
658.60	65535.00
658.74	65535.00
658.88	65535.00
659.03	65535.00
659.17	65535.00
659.31	65535.00
659.46	65535.00
659.60	65535.00
659.74	65535.00
659.89	65535.00
660.03	65535.00
660.17	65535.00
660.32	65535.00
660.46	65535.00
660.60	65535.00
660.74	65535.00
660.89	65535.00
661.03	65535.00
661.17	65535.00
661.32	65535.00
661.46	65535.00
661.60	65535.00
661.74	65535.00
661.89	65535.00
662.03	65535.00
662.17	65535.00
662.31	65535.00
662.46	65535.00
662.60	65535.00
662.74	65535.00
662.88	65535.00
663.03	65535.00
663.17	65535.00
663.31	65535.00
663.45	65535.00
663.60	65535.00
663.74	65535.00
663.88	65535.00
664.02	65535.00
664.17	65535.00
664.31	65535.00
664.45	65535.00
664.59	65535.00
664.73	65535.00
664.88	65535.00
665.02	65535.00
665.16	65535.00
665.30	65535.00
665.44	65535.00
665.59	65535.00
665.73	65535.00
665.87	65535.00
666.01	65535.00
666.15	65535.00
666.29	65535.00
666.44	65535.00
666.58	65535.00
666.72	65535.00
666.86	65535.00
667.00	65535.00
667.14	65535.00
667.28	65535.00
667.43	65535.00
667.57	65535.00
667.71	65535.00
667.85	65535.00
667.99	65535.00
668.13	65535.00
668.27	65535.00
668.41	65535.00
668.56	65535.00
668.70	65535.00
668.84	65535.00
668.98	65535.00
669.12	65535.00
669.26	65535.00
669.40	65535.00
669.54	65535.00
669.68	65535.00
669.82	65535.00
669.96	65535.00
670.10	65535.00
670.25	65535.00
670.39	65535.00
670.53	65535.00
670.67	65535.00
670.81	65535.00
670.95	65535.00
671.09	65535.00
671.23	65535.00
671.37	65535.00
671.51	65535.00
671.65	65535.00
671.79	65535.00
671.93	65535.00
672.07	65535.00
672.21	65535.00
672.35	65535.00
672.49	65535.00
672.63	65535.00
672.77	65535.00
672.91	65535.00
673.05	65535.00
673.19	65535.00
673.33	65535.00
673.47	65535.00
673.61	65535.00
673.75	65535.00
673.89	65535.00
674.03	65535.00
674.17	65535.00
674.31	65535.00
674.45	65535.00
674.59	65535.00
674.73	65535.00
674.87	65535.00
675.01	65535.00
675.15	65535.00
675.29	65535.00
675.43	65535.00
675.56	65497.55
675.70	65535.00
675.84	65446.06
675.98	64612.83
676.12	65317.33
676.26	65535.00
676.40	65446.06
676.54	65172.22
676.68	65003.70
676.82	64612.83
676.96	64828.16
677.10	64938.16
677.23	64774.33
677.37	64905.40
677.51	64898.37
677.65	64465.38
677.79	64446.65
677.93	64472.40
678.07	64397.50
678.21	64128.34
678.34	64315.58
678.48	64154.08
678.62	63856.84
678.76	63952.80
678.90	63791.30
679.04	64093.23
679.18	64083.87
679.31	63898.97
679.45	63847.47
679.59	63613.42
679.73	63751.51
679.87	63847.47
680.00	63732.79
680.14	63384.05
680.28	63278.72
680.42	63126.59
680.56	63042.33
680.70	62929.98
680.83	63227.23
680.97	63004.88
681.11	63290.43
681.25	63077.44
681.39	63217.87
681.52	63021.26
681.66	63021.26
681.80	62805.94
681.94	62796.57
682.07	62817.64
682.21	62635.08
682.35	62487.62
682.49	62319.10
682.62	62185.69
682.76	62141.22
682.90	62150.59
683.04	62017.17
683.17	61750.35
683.31	61675.46
683.45	61759.72
683.59	61834.61
683.72	61897.81
683.86	61712.91
684.00	61502.26
684.13	61516.30
684.27	61769.08
684.41	61502.26
684.55	61256.50
684.68	61059.90
684.82	61102.03
684.96	61083.30
685.09	60874.99
685.23	60706.47
685.37	60697.11
685.50	60544.98
685.64	60306.24
685.78	60364.76
685.91	60453.70
686.05	60474.76
686.19	60250.07
686.32	60329.65
686.46	60273.48
686.60	59922.40
686.73	60282.84
686.87	60128.36
687.01	60271.14
687.14	59903.67
687.28	59751.54
687.42	59767.92
687.55	59515.14
687.69	59468.33
687.82	59283.43
687.96	59103.21
688.10	58901.92
688.23	59009.59
688.37	59035.33
688.50	59021.29
688.64	59047.04
688.78	58955.75
688.91	58728.72
689.05	58801.28
689.18	58621.06
689.32	58218.49
689.46	58281.68
689.59	58106.14
689.73	58286.36
689.86	58323.81
690.00	58012.52
690.13	58010.18
690.27	57528.03
690.41	57621.65
690.54	57425.04
690.68	57364.19
690.81	57350.15
690.95	57305.68
691.08	57214.40
691.22	57212.06
691.35	57102.05
691.49	57258.87
691.62	57261.21
691.76	57158.22
691.89	57059.92
692.03	56608.20
692.16	56542.66
692.30	56596.49
692.43	56245.41
692.57	55906.04
692.70	56271.16
692.84	55957.53
692.97	55552.62
693.11	55791.35
693.24	55592.40
693.38	55606.45
693.51	55524.53
693.65	55267.07
693.78	55473.04
693.92	55545.59
694.05	55475.38
694.19	55491.76
694.32	55348.99
694.45	54791.94
694.59	54787.26
694.72	54550.87
694.86	54288.73
694.99	54134.25
695.13	53956.37
695.26	53965.73
695.39	53506.99
695.53	53471.88
695.66	53401.66
695.80	53308.04
695.93	53375.92
696.07	53155.91
696.20	52940.58
696.33	53029.52
696.47	52882.06
696.60	52736.95
696.73	53223.78
696.87	53048.24
697.00	52900.79
697.14	52659.71
697.27	52126.07
697.40	51803.08
697.54	51774.99
697.67	51398.16
697.80	51278.80
697.94	51473.06
698.07	50782.60
698.21	50773.24
698.34	50583.66
698.47	50714.73
698.61	50394.07
698.74	50300.45
698.87	50087.46
699.01	49755.11
699.14	50122.57
699.27	49979.80
699.40	50188.11
699.54	49462.54
699.67	49347.86
699.80	49230.83
699.94	49001.46
700.07	49212.10
700.20	48643.35
700.34	48406.96
700.47	48741.66
700.60	48062.90
700.73	48170.57
700.87	47908.43
701.00	47243.71
701.13	47735.23
701.26	47683.73
701.40	47665.01
701.53	47665.01
701.66	47400.53
701.79	46511.13
701.93	46677.30
702.06	46267.71
702.19	46351.97
702.32	46080.47
702.46	46052.38
702.59	45511.72
702.72	45507.04
702.85	45261.28
702.99	45635.77
703.12	45408.73
703.25	44589.55
703.38	44596.57
703.51	43938.88
703.65	44191.65
703.78	43971.64
703.91	43690.78
704.04	43505.88
704.17	43709.50
704.31	43566.73
704.44	43742.27
704.57	43896.75
704.70	43629.93
704.83	43370.13
704.96	43117.35
705.10	42974.58
705.23	42721.80
>>>>>End Processed Spectral Data<<<<<
