SpectraSuite Data File
++++++++++++++++++++++++++++++++++++
Date: Thu Oct 24 13:21:39 EDT 2013
User: stostad
Dark Spectrum Present: No
Reference Spectrum Present: No
Number of Sampled Component Spectra: 1
Spectrometers: USB2+H05261
Integration Time (usec): 100000 (USB2+H05261)
Spectra Averaged: 1 (USB2+H05261)
Boxcar Smoothing: 0 (USB2+H05261)
Correct for Electrical Dark: No (USB2+H05261)
Strobe/Lamp Enabled: No (USB2+H05261)
Correct for Detector Non-linearity: No (USB2+H05261)
Correct for Stray Light: No (USB2+H05261)
Number of Pixels in Processed Spectrum: 2048
>>>>>Begin Processed Spectral Data<<<<<
365.73	545.34
365.92	545.34
366.12	545.34
366.32	470.45
366.52	491.51
366.72	447.04
366.91	425.98
367.11	503.22
367.31	379.17
367.51	461.09
367.70	451.72
367.90	493.85
368.10	465.77
368.30	465.77
368.49	435.34
368.69	514.92
368.89	535.98
369.09	416.62
369.28	557.05
369.48	573.43
369.68	543.00
369.87	519.60
370.07	505.56
370.27	585.13
370.47	833.23
370.66	1193.67
370.86	1280.27
371.06	1186.65
371.25	1261.55
371.45	1301.34
371.65	1268.57
371.84	1355.17
372.04	1247.51
372.24	1261.55
372.44	1376.24
372.63	1334.11
372.83	1409.00
373.03	1392.62
373.22	1357.51
373.42	1413.68
373.62	1383.26
373.81	1446.45
374.01	1448.79
374.21	1458.15
374.40	1497.94
374.60	1507.30
374.79	1458.15
374.99	1504.96
375.19	1465.18
375.38	1483.90
375.58	1549.43
375.78	1462.83
375.97	1544.75
376.17	1551.78
376.37	1500.28
376.56	1579.86
376.76	1528.37
376.95	1486.24
377.15	1504.96
377.35	1565.82
377.54	1579.86
377.74	1617.31
377.93	1502.62
378.13	1661.78
378.33	1659.44
378.52	1533.05
378.72	1544.75
378.91	1713.27
379.11	1666.46
379.31	1743.70
379.50	1717.95
379.70	1790.51
379.89	1650.08
380.09	1727.32
380.28	1811.57
380.48	1778.81
380.68	1795.19
380.87	1708.59
381.07	1923.92
381.26	1860.73
381.46	1792.85
381.65	1874.77
381.85	1827.96
382.04	1886.47
382.24	1809.23
382.43	1846.68
382.63	1820.94
382.83	1839.66
383.02	1926.26
383.22	1839.66
383.41	1926.26
383.61	1954.35
383.80	1926.26
384.00	1919.24
384.19	1984.77
384.39	1987.11
384.58	2094.78
384.78	2008.18
384.97	2076.06
385.17	2003.50
385.36	2001.16
385.56	2078.40
385.75	2024.56
385.95	2087.76
386.14	2069.03
386.34	2026.90
386.53	2108.82
386.72	2115.84
386.92	2183.72
387.11	2043.29
387.31	2101.80
387.50	2122.87
387.70	2064.35
387.89	2172.02
388.09	2228.19
388.28	2150.95
388.48	2221.17
388.67	2193.08
388.86	2209.47
389.06	2286.70
389.25	2277.34
389.45	2181.38
389.64	2209.47
389.84	2275.00
390.03	2279.68
390.22	2403.73
390.42	2342.88
390.61	2427.14
390.81	2476.29
391.00	2424.80
391.19	2413.09
391.39	2448.20
391.58	2349.90
391.78	2448.20
391.97	2485.65
392.16	2401.39
392.36	2539.48
392.55	2527.78
392.75	2574.59
392.94	2586.29
393.13	2647.15
393.33	2555.86
393.52	2661.19
393.71	2649.49
393.91	2672.89
394.10	2546.50
394.29	2574.59
394.49	2626.08
394.68	2752.47
394.88	2637.78
395.07	2827.37
395.26	2813.32
395.46	2703.32
395.65	2876.52
395.84	2801.62
396.04	2935.03
396.23	2867.16
396.42	2869.50
396.62	2920.99
396.81	2888.22
397.00	2895.24
397.19	3052.06
397.39	3056.74
397.58	2942.05
397.77	2953.76
397.97	3155.04
398.16	3108.23
398.35	3084.83
398.55	3070.78
398.74	3133.98
398.93	3215.90
399.12	3126.96
399.32	3122.27
399.51	3155.04
399.70	3321.22
399.90	3243.98
400.09	3138.66
400.28	3330.58
400.47	3314.20
400.67	3337.60
400.86	3267.39
401.05	3342.28
401.24	3187.81
401.44	3393.78
401.63	3393.78
401.82	3288.45
402.01	3384.41
402.21	3426.54
402.40	3503.78
402.59	3534.21
402.78	3375.05
402.97	3590.38
403.17	3569.32
403.36	3686.34
403.55	3569.32
403.74	3761.24
403.93	3758.90
404.13	3784.65
404.32	3815.07
404.51	3651.24
404.70	3733.15
404.89	3768.26
405.09	3829.12
405.28	3911.04
405.47	3904.01
405.66	3826.78
405.85	4117.00
406.05	3983.59
406.24	4046.79
406.43	4025.72
406.62	4044.45
406.81	4112.32
407.00	3976.57
407.20	3850.18
407.39	4028.06
407.58	4147.43
407.77	4210.62
407.96	4294.88
408.15	4236.37
408.34	4351.06
408.54	4400.21
408.73	4369.78
408.92	4299.56
409.11	4503.19
409.30	4386.16
409.49	4472.76
409.68	4510.21
409.87	4402.55
410.07	4557.02
410.26	4535.96
410.45	4456.38
410.64	4667.03
410.83	4643.62
411.02	4737.24
411.21	4837.89
411.40	4774.69
411.59	4732.56
411.78	4805.12
411.98	4755.97
412.17	4926.83
412.36	5057.90
412.55	5015.77
412.74	5116.41
412.93	5242.80
413.12	5114.07
413.31	5245.14
413.50	5139.82
413.69	5226.42
413.88	5369.19
414.07	5352.81
414.26	5420.68
414.45	5577.50
414.64	5521.32
414.83	5526.00
415.02	5544.73
415.22	5628.99
415.41	5640.69
415.60	5734.31
415.79	5738.99
415.98	5921.56
416.17	5994.11
416.36	5755.38
416.55	5872.40
416.74	5959.00
416.93	5982.41
417.12	6136.88
417.31	6038.58
417.50	6113.48
417.69	6319.45
417.88	6258.59
418.07	6293.70
418.26	6363.92
418.45	6539.46
418.64	6541.80
418.83	6499.67
419.02	6331.15
419.21	6633.08
419.39	6590.95
419.58	6675.21
419.77	6595.63
419.96	6679.89
420.15	6686.91
420.34	6698.61
420.53	6850.75
420.72	6892.88
420.91	6768.83
421.10	6855.43
421.29	6965.43
421.48	6829.68
421.67	6986.50
421.86	7021.61
422.05	6965.43
422.24	7115.23
422.43	7267.36
422.61	7342.26
422.80	7124.59
422.99	7159.70
423.18	7030.97
423.37	7232.26
423.56	7115.23
423.75	7265.02
423.94	7054.37
424.13	6590.95
424.32	6937.35
424.50	7145.66
424.69	7520.14
424.88	7307.15
425.07	7267.36
425.26	7122.25
425.45	7328.22
425.64	7159.70
425.83	7220.55
426.01	7300.13
426.20	7339.92
426.39	7236.94
426.58	7323.54
426.77	7391.41
426.96	7536.52
427.15	7517.80
427.33	7606.74
427.52	7478.01
427.71	7454.61
427.90	7559.93
428.09	7515.46
428.28	7786.96
428.46	7824.41
428.65	7796.32
428.84	8035.06
429.03	8065.49
429.22	7651.21
429.40	7957.82
429.59	8002.29
429.78	7714.41
429.97	7648.87
430.16	8013.99
430.34	8203.58
430.53	7932.08
430.72	8255.07
430.91	8035.06
431.10	8098.25
431.28	8273.79
431.47	8313.58
431.66	8400.18
431.85	8327.63
432.03	8582.74
432.22	8578.06
432.41	8505.51
432.60	8320.60
432.79	8779.35
432.97	8489.12
433.16	8662.32
433.35	8772.33
433.54	8781.69
433.72	8823.82
433.91	8704.45
434.10	8840.20
434.28	8903.40
434.47	8917.44
434.66	8926.80
434.85	8966.59
435.03	9298.95
435.22	9252.14
435.41	9645.35
435.59	9322.35
435.78	9533.00
435.97	9413.63
436.16	9320.01
436.34	9090.64
436.53	9334.06
436.72	9561.09
436.90	9287.25
437.09	9577.47
437.28	9469.81
437.46	9511.94
437.65	9652.37
437.84	9778.76
438.02	9795.14
438.21	9837.27
438.40	9661.73
438.58	10015.15
438.77	10216.44
438.96	10036.22
439.14	10207.08
439.33	10296.02
439.52	10438.79
439.70	10401.34
439.89	10551.14
440.08	10623.69
440.26	10778.17
440.45	10614.33
440.63	10743.06
440.82	11066.05
441.01	11047.33
441.19	10745.40
441.38	11070.73
441.57	11119.89
441.75	11250.96
441.94	11407.77
442.12	11356.28
442.31	11346.92
442.50	11389.05
442.68	11316.49
442.87	11536.50
443.05	11520.12
443.24	11686.29
443.43	11688.64
443.61	11978.86
443.80	12109.93
443.98	11456.92
444.17	11110.52
444.35	11742.47
444.54	11843.11
444.73	11873.54
444.91	11754.17
445.10	12236.32
445.28	12131.00
445.47	11688.64
445.65	11815.02
445.84	12091.21
446.02	12236.32
446.21	12091.21
446.39	12023.33
446.58	12416.54
446.77	12175.47
446.95	11939.07
447.14	12304.20
447.32	12339.30
447.51	12109.93
447.69	12032.69
447.88	12182.49
448.06	12257.39
448.25	12299.52
448.43	12414.20
448.62	12341.64
448.80	12187.17
448.99	12407.18
449.17	12456.33
449.36	12564.00
449.54	12620.17
449.73	13043.81
449.91	12961.89
450.10	12889.33
450.28	12910.40
450.46	12879.97
450.65	13008.70
450.83	13062.53
451.02	12798.05
451.20	13497.87
451.39	13408.93
451.57	13020.40
451.76	13071.89
451.94	13322.33
452.13	13462.76
452.31	13429.99
452.49	13415.95
452.68	13373.82
452.86	13537.66
453.05	13664.05
453.23	13521.27
453.42	13427.65
453.60	13329.35
453.78	13717.88
453.97	13694.47
454.15	13626.60
454.34	13579.79
454.52	14029.17
454.70	13879.38
454.89	13738.94
455.07	14148.54
455.26	14019.81
455.44	14373.23
455.62	14270.25
455.81	14457.49
455.99	14312.38
456.17	14359.19
456.36	14513.66
456.54	14569.83
456.73	14970.07
456.91	15211.14
457.09	14850.70
457.28	15056.67
457.46	15051.99
457.64	15077.73
457.83	15356.25
458.01	15101.14
458.19	15531.80
458.38	15213.48
458.56	15391.36
458.74	15356.25
458.93	15272.00
459.11	15892.24
459.29	15302.42
459.48	15742.44
459.66	15543.50
459.84	15641.80
460.03	15758.83
460.21	15826.70
460.39	15882.88
460.57	16070.12
460.76	16336.94
460.94	15878.19
461.12	16070.12
461.31	16081.82
461.49	15953.09
461.67	15934.37
461.85	16805.05
462.04	16308.85
462.22	16812.07
462.40	16809.73
462.59	16521.84
462.77	16210.55
462.95	16622.48
463.13	16849.52
463.32	16699.72
463.50	17142.08
463.68	16971.22
463.86	17050.80
464.05	16908.03
464.23	16957.18
464.41	17055.48
464.59	16861.22
464.78	17680.41
464.96	17128.04
465.14	16999.31
465.32	17500.19
465.50	17242.73
465.69	17745.94
465.87	17837.22
466.05	17638.28
466.23	17795.09
466.41	17678.07
466.60	17933.18
466.78	17612.53
466.96	17649.98
467.14	17886.37
467.32	18033.83
467.51	18132.13
467.69	17776.37
467.87	18064.25
468.05	18033.83
468.23	17806.80
468.41	17851.27
468.60	18232.77
468.78	18164.90
468.96	18277.24
469.14	18644.71
469.32	18888.12
469.50	18401.29
469.69	18974.72
469.87	18803.86
470.05	19068.34
470.23	18944.30
470.41	18977.06
470.59	19264.95
470.77	19131.54
470.95	19028.56
471.14	19611.35
471.32	19014.51
471.50	19536.45
471.68	19377.30
471.86	19803.27
472.04	19924.98
472.22	20416.49
472.40	19674.54
472.58	19765.82
472.77	20147.33
472.95	20496.07
473.13	20947.79
473.31	20535.86
473.49	20355.64
473.67	20521.82
473.85	20875.24
474.03	21158.44
474.21	21216.96
474.39	21277.81
474.57	21544.63
474.75	21764.64
474.93	21671.02
475.12	21582.08
475.30	22045.51
475.48	21848.90
475.66	22340.41
475.84	22101.68
476.02	22384.88
476.20	22300.62
476.38	23103.43
476.56	23175.98
476.74	23012.15
476.92	22845.97
477.10	22939.59
477.28	23506.00
477.46	23594.94
477.64	23655.79
477.82	24135.60
478.00	24840.11
478.18	24311.14
478.36	24868.19
478.54	24423.49
478.72	25015.65
478.90	25074.16
479.08	25462.69
479.26	25455.67
479.44	25764.62
479.62	26031.44
479.80	25916.75
479.98	26305.28
480.16	27433.42
480.34	26698.49
480.52	27012.12
480.70	26918.50
480.88	26754.66
481.06	27129.15
481.24	27332.78
481.41	27866.42
481.59	28231.54
481.77	28535.81
481.95	28414.10
482.13	28826.04
482.31	28734.76
482.49	29408.83
482.67	29226.27
482.85	29544.58
483.03	29312.87
483.21	30429.30
483.39	30686.76
483.57	29947.15
483.74	30560.37
483.92	30841.24
484.10	31150.19
484.28	31805.54
484.46	32112.15
484.64	32636.43
484.82	31985.76
485.00	32540.47
485.18	32446.85
485.35	33373.70
485.53	32882.19
485.71	33766.91
485.89	34377.79
486.07	33795.00
486.25	34103.95
486.43	34506.52
486.61	34349.70
486.78	35236.77
486.96	35360.81
487.14	35828.92
487.32	35739.98
487.50	35728.28
487.68	36397.67
487.85	37048.34
488.03	36704.28
488.21	37778.59
488.39	37713.05
488.57	38014.98
488.75	38068.81
488.92	38234.99
489.10	38667.99
489.28	38981.62
489.46	39393.56
489.64	39660.38
489.81	40081.67
489.99	40264.24
490.17	40872.78
490.35	40879.80
490.53	40837.67
490.70	41483.66
490.88	41216.83
491.06	41696.64
491.24	42050.06
491.41	41972.83
491.59	42073.47
491.77	42312.20
491.95	42492.43
492.13	43159.48
492.30	43430.98
492.48	43557.37
492.66	43716.53
492.84	43964.62
493.01	44348.47
493.19	44402.30
493.37	44678.49
493.54	44147.18
493.72	45366.60
493.90	45162.98
494.08	45813.65
494.25	46274.73
494.43	46396.44
494.61	46747.52
494.79	46770.93
494.96	46663.26
495.14	47028.38
495.32	47522.24
495.49	47152.43
495.67	48046.52
495.85	48603.56
496.02	48193.97
496.20	48776.76
496.38	48900.81
496.55	48804.85
496.73	49429.77
496.91	49350.20
497.09	49607.65
497.26	49673.19
497.44	49495.31
497.62	49712.98
497.79	50429.18
497.97	50370.67
498.14	50777.92
498.32	50941.76
498.50	50880.91
498.67	51569.02
498.85	51070.49
499.03	51133.68
499.20	51384.12
499.38	51718.82
499.56	52107.35
499.73	52135.43
499.91	51922.44
500.08	52154.16
500.26	51856.91
500.44	52736.95
500.61	52839.93
500.79	52657.37
500.97	52692.48
501.14	52963.98
501.32	53191.01
501.49	53001.43
501.67	53483.58
501.84	53546.78
502.02	53518.69
502.20	54059.35
502.37	53937.65
502.55	54042.97
502.72	53759.76
502.90	54216.17
503.07	54038.29
503.25	54103.82
503.43	54152.97
503.60	54518.10
503.78	54597.68
503.95	54560.23
504.13	54782.58
504.30	55208.56
504.48	54803.64
504.65	55058.76
504.83	55444.95
505.01	55442.61
505.18	55178.13
505.36	55566.66
505.53	55498.78
505.71	55798.37
505.88	55608.79
506.06	55739.86
506.23	55847.52
506.41	55753.90
506.58	56151.79
506.76	56074.55
506.93	56346.06
507.11	56474.79
507.28	56556.70
507.46	56500.53
507.63	56519.26
507.81	57022.47
507.98	56542.66
508.16	56800.12
508.33	56898.42
508.50	57378.23
508.68	57352.49
508.85	57633.35
509.03	57205.03
509.20	57432.07
509.38	57560.79
509.55	57436.75
509.73	57647.39
509.90	57858.04
510.08	57853.36
510.25	57963.37
510.42	57890.81
510.60	58155.29
510.77	58330.83
510.95	58513.39
511.12	58192.74
511.30	58487.65
511.47	58443.18
511.64	58595.31
511.82	58688.93
511.99	58595.31
512.17	58965.12
512.34	58948.73
512.51	59063.42
512.69	59133.63
512.86	59143.00
513.04	59370.03
513.21	59114.91
513.38	59185.13
513.56	59393.43
513.73	59213.21
513.90	59487.06
514.08	59365.35
514.25	59765.58
514.43	59709.41
514.60	59728.13
514.77	59683.66
514.95	59931.76
515.12	59788.98
515.29	59915.37
515.47	60413.91
515.64	60275.82
515.81	60126.02
515.99	60360.08
516.16	60376.46
516.33	60055.81
516.51	60521.57
516.68	60465.40
516.85	60552.00
517.03	60559.02
517.20	60727.54
517.37	60575.40
517.54	60601.15
517.72	60748.60
517.89	60814.14
518.06	60856.27
518.24	60898.40
518.41	60994.36
518.58	61057.56
518.75	61050.53
518.93	61066.92
519.10	60839.89
519.27	61408.64
519.45	61581.84
519.62	61434.38
519.79	61499.92
519.96	61546.73
520.14	61579.49
520.31	61352.46
520.48	61797.16
520.65	61790.14
520.83	61843.98
521.00	61956.32
521.17	61874.40
521.34	61879.08
521.52	62056.96
521.69	61970.36
521.86	62089.73
522.03	62106.12
522.20	62401.02
522.38	62548.48
522.55	62564.86
522.72	62581.24
522.89	62326.13
523.07	62733.38
523.24	62431.45
523.41	62606.99
523.58	62606.99
523.75	62922.96
523.92	62972.11
524.10	62841.04
524.27	62819.98
524.44	62948.71
524.61	63025.95
524.78	62967.43
524.96	63082.12
525.13	63164.04
525.30	63231.91
525.47	63550.23
525.64	63377.03
525.81	63332.56
525.98	63337.24
526.16	63313.83
526.33	63412.13
526.50	63650.87
526.67	63559.59
526.84	63704.70
527.01	63723.43
527.18	63571.29
527.36	63578.31
527.53	63634.48
527.70	63997.27
527.87	63938.75
528.04	63997.27
528.21	64004.29
528.38	63913.01
528.55	64226.64
528.72	63913.01
528.89	64058.12
529.07	64097.91
529.24	64023.01
529.41	64355.37
529.58	64292.18
529.75	64233.66
529.92	64491.12
530.09	64521.55
530.26	64451.33
530.43	64324.94
530.60	64193.87
530.77	64404.52
530.94	64519.21
531.11	64568.36
531.28	64612.83
531.46	64619.85
531.63	64757.94
531.80	64633.89
531.97	64849.22
532.14	64800.07
532.31	64924.12
532.48	64935.82
532.65	64992.00
532.82	64956.89
532.99	65148.81
533.16	65137.11
533.33	65158.17
533.50	65160.51
533.67	65307.97
533.84	65216.69
534.01	65326.69
534.18	65406.27
534.35	65535.00
534.52	65268.18
534.69	65499.89
534.86	65352.44
535.03	65186.26
535.20	65509.25
535.37	65535.00
535.54	65535.00
535.71	65535.00
535.88	65535.00
536.05	65535.00
536.22	65535.00
536.38	65535.00
536.55	65535.00
536.72	65535.00
536.89	65535.00
537.06	65535.00
537.23	65535.00
537.40	65535.00
537.57	65535.00
537.74	65535.00
537.91	65535.00
538.08	65535.00
538.25	65535.00
538.42	65535.00
538.59	65535.00
538.75	65535.00
538.92	65535.00
539.09	65535.00
539.26	65535.00
539.43	65535.00
539.60	65535.00
539.77	65535.00
539.94	65535.00
540.11	65535.00
540.28	65535.00
540.44	65535.00
540.61	65535.00
540.78	65535.00
540.95	65535.00
541.12	65535.00
541.29	65535.00
541.46	65535.00
541.62	65535.00
541.79	65535.00
541.96	65535.00
542.13	65535.00
542.30	65535.00
542.47	65535.00
542.63	65535.00
542.80	65535.00
542.97	65535.00
543.14	65535.00
543.31	65535.00
543.48	65535.00
543.64	65535.00
543.81	65535.00
543.98	65535.00
544.15	65535.00
544.32	65535.00
544.48	65535.00
544.65	65535.00
544.82	65535.00
544.99	65535.00
545.16	65535.00
545.32	65535.00
545.49	65535.00
545.66	65535.00
545.83	65535.00
546.00	65535.00
546.16	65535.00
546.33	65535.00
546.50	65535.00
546.67	65535.00
546.83	65535.00
547.00	65535.00
547.17	65535.00
547.34	65535.00
547.50	65535.00
547.67	65535.00
547.84	65535.00
548.00	65535.00
548.17	65535.00
548.34	65535.00
548.51	65535.00
548.67	65535.00
548.84	65535.00
549.01	65535.00
549.18	65535.00
549.34	65535.00
549.51	65535.00
549.68	65535.00
549.84	65535.00
550.01	65535.00
550.18	65535.00
550.34	65535.00
550.51	65535.00
550.68	65535.00
550.84	65535.00
551.01	65535.00
551.18	65535.00
551.34	65535.00
551.51	65535.00
551.68	65535.00
551.84	65535.00
552.01	65535.00
552.18	65535.00
552.34	65535.00
552.51	65535.00
552.68	65535.00
552.84	65535.00
553.01	65535.00
553.18	65535.00
553.34	65535.00
553.51	65535.00
553.67	65535.00
553.84	65535.00
554.01	65535.00
554.17	65535.00
554.34	65535.00
554.51	65535.00
554.67	65535.00
554.84	65535.00
555.00	65535.00
555.17	65535.00
555.33	65535.00
555.50	65535.00
555.67	65535.00
555.83	65535.00
556.00	65535.00
556.16	65535.00
556.33	65535.00
556.50	65535.00
556.66	65535.00
556.83	65535.00
556.99	65535.00
557.16	65535.00
557.32	65535.00
557.49	65535.00
557.65	65535.00
557.82	65535.00
557.98	65535.00
558.15	65535.00
558.32	65535.00
558.48	65535.00
558.65	65535.00
558.81	65535.00
558.98	65535.00
559.14	65535.00
559.31	65535.00
559.47	65535.00
559.64	65535.00
559.80	65535.00
559.97	65535.00
560.13	65535.00
560.30	65535.00
560.46	65535.00
560.63	65535.00
560.79	65535.00
560.96	65535.00
561.12	65535.00
561.29	65535.00
561.45	65535.00
561.61	65535.00
561.78	65535.00
561.94	65535.00
562.11	65535.00
562.27	65535.00
562.44	65535.00
562.60	65535.00
562.77	65535.00
562.93	65535.00
563.10	65535.00
563.26	65535.00
563.42	65535.00
563.59	65535.00
563.75	65535.00
563.92	65535.00
564.08	65535.00
564.24	65535.00
564.41	65535.00
564.57	65535.00
564.74	65535.00
564.90	65535.00
565.07	65535.00
565.23	65535.00
565.39	65535.00
565.56	65535.00
565.72	65535.00
565.88	65535.00
566.05	65535.00
566.21	65535.00
566.38	65535.00
566.54	65535.00
566.70	65535.00
566.87	65535.00
567.03	65535.00
567.19	65535.00
567.36	65535.00
567.52	65535.00
567.68	65535.00
567.85	65535.00
568.01	65535.00
568.17	65535.00
568.34	65535.00
568.50	65535.00
568.66	65535.00
568.83	65535.00
568.99	65535.00
569.15	65535.00
569.32	65535.00
569.48	65535.00
569.64	65535.00
569.81	65535.00
569.97	65535.00
570.13	65535.00
570.30	65535.00
570.46	65535.00
570.62	65535.00
570.78	65535.00
570.95	65535.00
571.11	65535.00
571.27	65535.00
571.43	65535.00
571.60	65535.00
571.76	65535.00
571.92	65535.00
572.09	65535.00
572.25	65535.00
572.41	65535.00
572.57	65535.00
572.74	65535.00
572.90	65535.00
573.06	65535.00
573.22	65535.00
573.38	65535.00
573.55	65535.00
573.71	65535.00
573.87	65535.00
574.03	65535.00
574.20	65535.00
574.36	65535.00
574.52	65535.00
574.68	65535.00
574.84	65535.00
575.01	65535.00
575.17	65535.00
575.33	65535.00
575.49	65535.00
575.65	65535.00
575.82	65535.00
575.98	65535.00
576.14	65535.00
576.30	65535.00
576.46	65535.00
576.62	65535.00
576.79	65535.00
576.95	65535.00
577.11	65535.00
577.27	65535.00
577.43	65535.00
577.59	65535.00
577.75	65535.00
577.92	65535.00
578.08	65535.00
578.24	65535.00
578.40	65535.00
578.56	65535.00
578.72	65535.00
578.88	65535.00
579.04	65535.00
579.21	65535.00
579.37	65535.00
579.53	65535.00
579.69	65535.00
579.85	65535.00
580.01	65535.00
580.17	65535.00
580.33	65535.00
580.49	65535.00
580.65	65535.00
580.82	65535.00
580.98	65535.00
581.14	65535.00
581.30	65535.00
581.46	65535.00
581.62	65535.00
581.78	65535.00
581.94	65535.00
582.10	65535.00
582.26	65535.00
582.42	65535.00
582.58	65535.00
582.74	65535.00
582.90	65535.00
583.06	65535.00
583.22	65535.00
583.38	65535.00
583.54	65535.00
583.70	65535.00
583.86	65535.00
584.02	65535.00
584.18	65535.00
584.34	65535.00
584.50	65535.00
584.66	65535.00
584.82	65535.00
584.98	65535.00
585.14	65535.00
585.30	65535.00
585.46	65535.00
585.62	65535.00
585.78	65535.00
585.94	65535.00
586.10	65535.00
586.26	65535.00
586.42	65535.00
586.58	65535.00
586.74	65535.00
586.90	65535.00
587.06	65535.00
587.22	65535.00
587.38	65535.00
587.54	65535.00
587.70	65535.00
587.86	65535.00
588.02	65535.00
588.18	65535.00
588.34	65535.00
588.49	65535.00
588.65	65535.00
588.81	65535.00
588.97	65535.00
589.13	65535.00
589.29	65535.00
589.45	65535.00
589.61	65535.00
589.77	65535.00
589.93	65535.00
590.08	65535.00
590.24	65535.00
590.40	65535.00
590.56	65535.00
590.72	65535.00
590.88	65535.00
591.04	65535.00
591.20	65535.00
591.35	65535.00
591.51	65535.00
591.67	65535.00
591.83	65535.00
591.99	65535.00
592.15	65535.00
592.31	65535.00
592.46	65535.00
592.62	65535.00
592.78	65535.00
592.94	65535.00
593.10	65535.00
593.26	65535.00
593.41	65535.00
593.57	65535.00
593.73	65535.00
593.89	65535.00
594.05	65535.00
594.20	65535.00
594.36	65535.00
594.52	65535.00
594.68	65535.00
594.84	65535.00
594.99	65535.00
595.15	65535.00
595.31	65535.00
595.47	65535.00
595.62	65535.00
595.78	65535.00
595.94	65535.00
596.10	65535.00
596.25	65535.00
596.41	65535.00
596.57	65535.00
596.73	65535.00
596.88	65535.00
597.04	65535.00
597.20	65535.00
597.36	65535.00
597.51	65535.00
597.67	65535.00
597.83	65535.00
597.99	65535.00
598.14	65535.00
598.30	65535.00
598.46	65535.00
598.61	65535.00
598.77	65535.00
598.93	65535.00
599.09	65535.00
599.24	65535.00
599.40	65535.00
599.56	65535.00
599.71	65535.00
599.87	65535.00
600.03	65535.00
600.18	65535.00
600.34	65535.00
600.50	65535.00
600.65	65535.00
600.81	65535.00
600.97	65535.00
601.12	65535.00
601.28	65535.00
601.44	65535.00
601.59	65535.00
601.75	65535.00
601.91	65535.00
602.06	65535.00
602.22	65535.00
602.37	65535.00
602.53	65535.00
602.69	65535.00
602.84	65535.00
603.00	65535.00
603.16	65535.00
603.31	65535.00
603.47	65535.00
603.62	65535.00
603.78	65535.00
603.94	65535.00
604.09	65535.00
604.25	65535.00
604.40	65535.00
604.56	65535.00
604.71	65535.00
604.87	65535.00
605.03	65535.00
605.18	65535.00
605.34	65535.00
605.49	65535.00
605.65	65535.00
605.80	65535.00
605.96	65535.00
606.12	65535.00
606.27	65535.00
606.43	65535.00
606.58	65535.00
606.74	65535.00
606.89	65535.00
607.05	65535.00
607.20	65535.00
607.36	65535.00
607.51	65535.00
607.67	65535.00
607.82	65535.00
607.98	65535.00
608.13	65535.00
608.29	65535.00
608.44	65535.00
608.60	65535.00
608.75	65535.00
608.91	65535.00
609.06	65535.00
609.22	65535.00
609.37	65535.00
609.53	65535.00
609.68	65535.00
609.84	65535.00
609.99	65535.00
610.15	65535.00
610.30	65535.00
610.46	65535.00
610.61	65535.00
610.76	65535.00
610.92	65535.00
611.07	65535.00
611.23	65535.00
611.38	65535.00
611.54	65535.00
611.69	65535.00
611.84	65535.00
612.00	65535.00
612.15	65535.00
612.31	65535.00
612.46	65535.00
612.62	65535.00
612.77	65535.00
612.92	65535.00
613.08	65535.00
613.23	65535.00
613.39	65535.00
613.54	65535.00
613.69	65535.00
613.85	65535.00
614.00	65535.00
614.15	65535.00
614.31	65535.00
614.46	65535.00
614.62	65535.00
614.77	65535.00
614.92	65535.00
615.08	65535.00
615.23	65535.00
615.38	65535.00
615.54	65535.00
615.69	65535.00
615.84	65535.00
616.00	65535.00
616.15	65535.00
616.30	65535.00
616.46	65535.00
616.61	65535.00
616.76	65535.00
616.92	65535.00
617.07	65535.00
617.22	65535.00
617.37	65535.00
617.53	65535.00
617.68	65535.00
617.83	65535.00
617.99	65535.00
618.14	65535.00
618.29	65535.00
618.45	65535.00
618.60	65535.00
618.75	65535.00
618.90	65535.00
619.06	65535.00
619.21	65535.00
619.36	65535.00
619.51	65535.00
619.67	65535.00
619.82	65535.00
619.97	65535.00
620.12	65535.00
620.28	65535.00
620.43	65535.00
620.58	65535.00
620.73	65535.00
620.89	65535.00
621.04	65535.00
621.19	65535.00
621.34	65535.00
621.49	65535.00
621.65	65535.00
621.80	65535.00
621.95	65535.00
622.10	65535.00
622.25	65535.00
622.41	65535.00
622.56	65535.00
622.71	65535.00
622.86	65535.00
623.01	65535.00
623.16	65535.00
623.32	65535.00
623.47	65535.00
623.62	65535.00
623.77	65535.00
623.92	65535.00
624.07	65535.00
624.23	65535.00
624.38	65535.00
624.53	65535.00
624.68	65535.00
624.83	65535.00
624.98	65535.00
625.13	65535.00
625.29	65535.00
625.44	65535.00
625.59	65535.00
625.74	65535.00
625.89	65535.00
626.04	65535.00
626.19	65535.00
626.34	65535.00
626.49	65535.00
626.65	65535.00
626.80	65535.00
626.95	65535.00
627.10	65535.00
627.25	65535.00
627.40	65535.00
627.55	65535.00
627.70	65535.00
627.85	65535.00
628.00	65535.00
628.15	65535.00
628.30	65535.00
628.45	65535.00
628.60	65535.00
628.76	65535.00
628.91	65535.00
629.06	65535.00
629.21	65535.00
629.36	65535.00
629.51	65535.00
629.66	65535.00
629.81	65535.00
629.96	65535.00
630.11	65535.00
630.26	65535.00
630.41	65535.00
630.56	65535.00
630.71	65535.00
630.86	65535.00
631.01	65535.00
631.16	65535.00
631.31	65535.00
631.46	65535.00
631.61	65535.00
631.76	65535.00
631.91	65535.00
632.06	65535.00
632.21	65535.00
632.36	65535.00
632.51	65535.00
632.66	65535.00
632.81	65535.00
632.96	65535.00
633.10	65535.00
633.25	65535.00
633.40	65535.00
633.55	65535.00
633.70	65535.00
633.85	65535.00
634.00	65535.00
634.15	65535.00
634.30	65535.00
634.45	65535.00
634.60	65535.00
634.75	65535.00
634.90	65535.00
635.05	65535.00
635.19	65535.00
635.34	65535.00
635.49	65535.00
635.64	65535.00
635.79	65535.00
635.94	65535.00
636.09	65535.00
636.24	65535.00
636.39	65535.00
636.53	65535.00
636.68	65535.00
636.83	65535.00
636.98	65535.00
637.13	65535.00
637.28	65535.00
637.43	65535.00
637.57	65535.00
637.72	65535.00
637.87	65535.00
638.02	65535.00
638.17	65535.00
638.32	65535.00
638.46	65535.00
638.61	65535.00
638.76	65535.00
638.91	65535.00
639.06	65535.00
639.20	65535.00
639.35	65535.00
639.50	65535.00
639.65	65535.00
639.80	65535.00
639.94	65535.00
640.09	65535.00
640.24	65535.00
640.39	65535.00
640.54	65535.00
640.68	65535.00
640.83	65535.00
640.98	65535.00
641.13	65535.00
641.27	65535.00
641.42	65535.00
641.57	65535.00
641.72	65535.00
641.86	65535.00
642.01	65535.00
642.16	65535.00
642.31	65535.00
642.45	65535.00
642.60	65535.00
642.75	65535.00
642.90	65535.00
643.04	65535.00
643.19	65535.00
643.34	65535.00
643.48	65535.00
643.63	65535.00
643.78	65535.00
643.93	65535.00
644.07	65535.00
644.22	65535.00
644.37	65535.00
644.51	65535.00
644.66	65535.00
644.81	65535.00
644.95	65535.00
645.10	65535.00
645.25	65535.00
645.39	65535.00
645.54	65535.00
645.69	65535.00
645.83	65535.00
645.98	65535.00
646.13	65535.00
646.27	65535.00
646.42	65535.00
646.57	65535.00
646.71	65535.00
646.86	65535.00
647.00	65535.00
647.15	65535.00
647.30	65535.00
647.44	65535.00
647.59	65535.00
647.74	65535.00
647.88	65535.00
648.03	65535.00
648.17	65535.00
648.32	65535.00
648.47	65535.00
648.61	65535.00
648.76	65535.00
648.90	65535.00
649.05	65535.00
649.20	65535.00
649.34	65535.00
649.49	65535.00
649.63	65535.00
649.78	65535.00
649.92	65535.00
650.07	65535.00
650.21	65535.00
650.36	65535.00
650.51	65535.00
650.65	65535.00
650.80	65535.00
650.94	65535.00
651.09	65535.00
651.23	65535.00
651.38	65535.00
651.52	65535.00
651.67	65535.00
651.81	65535.00
651.96	65535.00
652.10	65535.00
652.25	65535.00
652.39	65535.00
652.54	65535.00
652.68	65535.00
652.83	65535.00
652.97	65535.00
653.12	65535.00
653.26	65535.00
653.41	65535.00
653.55	65535.00
653.70	65535.00
653.84	65535.00
653.99	65535.00
654.13	65535.00
654.27	65535.00
654.42	65535.00
654.56	65535.00
654.71	65535.00
654.85	65535.00
655.00	65535.00
655.14	65535.00
655.29	65535.00
655.43	65535.00
655.57	65535.00
655.72	65535.00
655.86	65535.00
656.01	65535.00
656.15	65535.00
656.30	65535.00
656.44	65535.00
656.58	65535.00
656.73	65535.00
656.87	65535.00
657.01	65535.00
657.16	65535.00
657.30	65535.00
657.45	65535.00
657.59	65535.00
657.73	65535.00
657.88	65535.00
658.02	65535.00
658.16	65535.00
658.31	65535.00
658.45	65535.00
658.60	65535.00
658.74	65535.00
658.88	65535.00
659.03	65535.00
659.17	65535.00
659.31	65535.00
659.46	65535.00
659.60	65535.00
659.74	65535.00
659.89	65535.00
660.03	65535.00
660.17	65535.00
660.32	65535.00
660.46	65535.00
660.60	65535.00
660.74	65535.00
660.89	65535.00
661.03	65535.00
661.17	65535.00
661.32	65535.00
661.46	65535.00
661.60	65535.00
661.74	65535.00
661.89	65535.00
662.03	65535.00
662.17	65535.00
662.31	65535.00
662.46	65535.00
662.60	65535.00
662.74	65535.00
662.88	65535.00
663.03	65535.00
663.17	65535.00
663.31	65535.00
663.45	65535.00
663.60	65535.00
663.74	65535.00
663.88	65535.00
664.02	65535.00
664.17	65535.00
664.31	65535.00
664.45	65535.00
664.59	65535.00
664.73	65535.00
664.88	65535.00
665.02	65535.00
665.16	65535.00
665.30	65535.00
665.44	65535.00
665.59	65535.00
665.73	65535.00
665.87	65535.00
666.01	65535.00
666.15	65535.00
666.29	65535.00
666.44	65535.00
666.58	65535.00
666.72	65535.00
666.86	65535.00
667.00	65535.00
667.14	65535.00
667.28	65535.00
667.43	65535.00
667.57	65535.00
667.71	65535.00
667.85	65535.00
667.99	65535.00
668.13	65535.00
668.27	65535.00
668.41	65535.00
668.56	65535.00
668.70	65535.00
668.84	65535.00
668.98	65535.00
669.12	65535.00
669.26	65535.00
669.40	65535.00
669.54	65535.00
669.68	65535.00
669.82	65535.00
669.96	65535.00
670.10	65535.00
670.25	65535.00
670.39	65535.00
670.53	65535.00
670.67	65535.00
670.81	65535.00
670.95	65535.00
671.09	65535.00
671.23	65535.00
671.37	65535.00
671.51	65535.00
671.65	65535.00
671.79	65535.00
671.93	65535.00
672.07	65488.19
672.21	65535.00
672.35	65535.00
672.49	65535.00
672.63	65535.00
672.77	65535.00
672.91	65441.38
673.05	65375.84
673.19	65176.90
673.33	65130.09
673.47	65073.91
673.61	65326.69
673.75	65162.85
673.89	65167.54
674.03	65076.26
674.17	65071.57
674.31	65158.17
674.45	64961.57
674.59	65106.68
674.73	65052.85
674.87	64992.00
675.01	64814.12
675.15	64858.59
675.29	64741.56
675.43	64870.29
675.56	64863.27
675.70	64587.08
675.84	64509.85
675.98	63695.34
676.12	64264.09
676.26	64582.40
676.40	64399.84
676.54	64317.92
676.68	64397.50
676.82	63667.25
676.96	63997.27
677.10	64198.55
677.23	64058.12
677.37	63770.24
677.51	64041.74
677.65	63700.02
677.79	63440.22
677.93	63681.30
678.07	63543.20
678.21	63496.39
678.34	63255.32
678.48	63234.25
678.62	62988.50
678.76	63114.89
678.90	63044.67
679.04	62880.83
679.18	63042.33
679.31	62932.32
679.45	62850.41
679.59	62845.72
679.73	63042.33
679.87	62892.54
680.00	62691.25
680.14	62660.82
680.28	62316.76
680.42	62307.40
680.56	62370.60
680.70	62171.65
680.83	62155.27
680.97	62106.12
681.11	62195.06
681.25	62007.81
681.39	61956.32
681.52	61932.92
681.66	61925.89
681.80	61829.93
681.94	62190.37
682.07	61862.70
682.21	61630.99
682.35	61647.37
682.49	61307.99
682.62	61237.78
682.76	61291.61
682.90	61165.22
683.04	61036.49
683.17	60896.06
683.31	60839.89
683.45	61020.11
683.59	60755.63
683.72	60610.51
683.86	60509.87
684.00	60486.46
684.13	60753.29
684.27	60636.26
684.41	60341.35
684.55	60189.22
684.68	60142.41
684.82	60044.10
684.96	59929.42
685.09	59777.28
685.23	59777.28
685.37	59407.48
685.50	59473.01
685.64	59320.88
685.78	59421.52
685.91	59400.46
686.05	59370.03
686.19	59217.89
686.32	59545.57
686.46	59157.04
686.60	58801.28
686.73	58789.58
686.87	59082.14
687.01	59030.65
687.14	58855.11
687.28	58468.92
687.42	58588.29
687.55	58232.53
687.69	58513.39
687.82	58045.29
687.96	58220.83
688.10	58150.61
688.23	58019.54
688.37	57958.69
688.50	57841.66
688.64	57860.38
688.78	58014.86
688.91	57441.43
689.05	57593.56
689.18	57579.52
689.32	56968.64
689.46	57099.71
689.59	57207.37
689.73	57228.44
689.86	57088.01
690.00	57113.75
690.13	56844.59
690.27	56633.94
690.41	56444.36
690.54	56205.62
690.68	56149.45
690.81	56055.83
690.95	56266.48
691.08	56313.29
691.22	56224.35
691.35	56163.50
691.49	56294.56
691.62	56238.39
691.76	56207.97
691.89	55648.58
692.03	55489.42
692.16	55306.86
692.30	55381.76
692.43	55075.15
692.57	54862.16
692.70	54911.31
692.84	54590.66
692.97	54218.51
693.11	54588.31
693.24	54094.46
693.38	54183.40
693.51	54113.19
693.65	54286.39
693.78	54174.04
693.92	54129.57
694.05	54227.87
694.19	53993.82
694.32	53944.67
694.45	53563.16
694.59	53301.02
694.72	53123.14
694.86	53123.14
694.99	52697.16
695.13	52449.06
695.26	52516.94
695.39	52133.09
695.53	52313.31
695.66	52301.61
695.80	51756.27
695.93	51987.98
696.07	51742.22
696.20	51498.81
696.33	51084.53
696.47	51391.14
696.60	51421.57
696.73	51618.17
696.87	51505.83
697.00	51187.52
697.14	51278.80
697.27	50731.11
697.40	50518.12
697.54	50445.57
697.67	49968.10
697.80	49434.45
697.94	49722.34
698.07	49034.22
698.21	48671.44
698.34	48919.54
698.47	48971.03
698.61	49010.82
698.74	49071.67
698.87	48509.94
699.01	48158.86
699.14	48397.60
699.27	47952.90
699.40	48154.18
699.54	48238.44
699.67	47751.61
699.80	47643.94
699.94	47316.27
700.07	47721.18
700.20	47213.29
700.34	46557.94
700.47	46461.97
700.60	46323.88
700.73	46223.24
700.87	45642.79
701.00	45696.62
701.13	45820.67
701.26	45968.12
701.40	45806.62
701.53	45727.05
701.66	45544.48
701.79	45408.73
701.93	44935.95
702.06	44776.79
702.19	43936.54
702.32	44395.28
702.46	44472.52
702.59	43784.40
702.72	43370.13
702.85	43653.33
702.99	43601.84
703.12	42969.90
703.25	42986.28
703.38	42684.35
703.51	42607.11
703.65	42171.77
703.78	41902.61
703.91	41757.50
704.04	42239.65
704.17	41523.44
704.31	41191.09
704.44	41659.20
704.57	41626.43
704.70	41890.91
704.83	40950.01
704.96	41443.87
705.10	40788.52
705.23	40811.92
>>>>>End Processed Spectral Data<<<<<
