SpectraSuite Data File
++++++++++++++++++++++++++++++++++++
Date: Thu Oct 24 13:21:06 EDT 2013
User: stostad
Dark Spectrum Present: No
Reference Spectrum Present: No
Number of Sampled Component Spectra: 1
Spectrometers: USB2+H05261
Integration Time (usec): 100000 (USB2+H05261)
Spectra Averaged: 1 (USB2+H05261)
Boxcar Smoothing: 0 (USB2+H05261)
Correct for Electrical Dark: No (USB2+H05261)
Strobe/Lamp Enabled: No (USB2+H05261)
Correct for Detector Non-linearity: No (USB2+H05261)
Correct for Stray Light: No (USB2+H05261)
Number of Pixels in Processed Spectrum: 2048
>>>>>Begin Processed Spectral Data<<<<<
365.73	564.07
365.92	564.07
366.12	564.07
366.32	512.58
366.52	491.51
366.72	535.98
366.91	521.94
367.11	444.70
367.31	458.74
367.51	425.98
367.70	454.06
367.90	470.45
368.10	456.40
368.30	526.62
368.49	468.11
368.69	524.28
368.89	447.04
369.09	479.81
369.28	477.47
369.48	472.79
369.68	484.49
369.87	517.26
370.07	514.92
370.27	531.30
370.47	608.54
370.66	669.39
370.86	781.74
371.06	697.48
371.25	741.95
371.45	718.54
371.65	702.16
371.84	716.20
372.04	725.57
372.24	702.16
372.44	765.36
372.63	828.55
372.83	711.52
373.03	723.23
373.22	770.04
373.42	777.06
373.62	732.59
373.81	765.36
374.01	767.70
374.21	807.48
374.40	744.29
374.60	863.66
374.79	781.74
374.99	781.74
375.19	807.48
375.38	791.10
375.58	774.72
375.78	851.96
375.97	784.08
376.17	786.42
376.37	786.42
376.56	809.83
376.76	809.83
376.95	814.51
377.15	903.45
377.35	802.80
377.54	802.80
377.74	830.89
377.93	861.32
378.13	842.59
378.33	854.30
378.52	805.14
378.72	781.74
378.91	837.91
379.11	807.48
379.31	812.17
379.50	863.66
379.70	856.64
379.89	809.83
380.09	779.40
380.28	791.10
380.48	779.40
380.68	837.91
380.87	800.46
381.07	807.48
381.26	858.98
381.46	863.66
381.65	856.64
381.85	788.76
382.04	809.83
382.24	908.13
382.43	840.25
382.63	858.98
382.83	866.00
383.02	891.74
383.22	821.53
383.41	798.12
383.61	959.62
383.80	828.55
384.00	809.83
384.19	826.21
384.39	926.85
384.58	840.25
384.78	875.36
384.97	840.25
385.17	870.68
385.36	837.91
385.56	950.26
385.75	891.74
385.95	894.08
386.14	903.45
386.34	898.77
386.53	884.72
386.72	863.66
386.92	980.68
387.11	898.77
387.31	940.90
387.50	851.96
387.70	976.00
387.89	926.85
388.09	891.74
388.28	891.74
388.48	931.53
388.67	999.41
388.86	999.41
389.06	919.83
389.25	947.92
389.45	917.49
389.64	922.17
389.84	1001.75
390.03	910.47
390.22	947.92
390.42	912.81
390.61	940.90
390.81	1064.94
391.00	992.39
391.19	1032.18
391.39	1008.77
391.58	1001.75
391.78	915.15
391.97	936.21
392.16	957.28
392.36	1020.47
392.55	968.98
392.75	1008.77
392.94	1053.24
393.13	1008.77
393.33	1034.52
393.52	1011.11
393.71	1086.01
393.91	983.02
394.10	1025.15
394.29	994.73
394.49	1006.43
394.68	1088.35
394.88	1071.97
395.07	1041.54
395.26	1062.60
395.46	1025.15
395.65	997.07
395.84	1036.86
396.04	1142.18
396.23	1041.54
396.42	1081.33
396.62	1128.14
396.81	1076.65
397.00	1083.67
397.19	1039.20
397.39	1086.01
397.58	1151.54
397.77	1156.22
397.97	1210.06
398.16	1144.52
398.35	1093.03
398.55	1029.84
398.74	1205.38
398.93	1149.20
399.12	1090.69
399.32	1135.16
399.51	1123.46
399.70	1184.31
399.90	1226.44
400.09	1146.86
400.28	1235.80
400.47	1156.22
400.67	1123.46
400.86	1146.86
401.05	1177.29
401.24	1245.16
401.44	1207.72
401.63	1240.48
401.82	1177.29
402.01	1266.23
402.21	1196.01
402.40	1256.87
402.59	1224.10
402.78	1240.48
402.97	1273.25
403.17	1277.93
403.36	1249.85
403.55	1235.80
403.74	1296.66
403.93	1313.04
404.13	1327.08
404.32	1231.12
404.51	1385.60
404.70	1317.72
404.89	1348.15
405.09	1378.58
405.28	1299.00
405.47	1327.08
405.66	1310.70
405.85	1399.64
406.05	1331.76
406.24	1406.66
406.43	1320.06
406.62	1430.07
406.81	1423.05
407.00	1331.76
407.20	1406.66
407.39	1385.60
407.58	1406.66
407.77	1418.36
407.96	1495.60
408.15	1448.79
408.34	1437.09
408.54	1416.02
408.73	1497.94
408.92	1458.15
409.11	1490.92
409.30	1516.67
409.49	1474.54
409.68	1526.03
409.87	1483.90
410.07	1535.39
410.26	1511.99
410.45	1460.49
410.64	1504.96
410.83	1572.84
411.02	1514.33
411.21	1586.88
411.40	1542.41
411.59	1607.95
411.78	1537.73
411.98	1586.88
412.17	1638.38
412.36	1671.14
412.55	1652.42
412.74	1671.14
412.93	1722.63
413.12	1703.91
413.31	1746.04
413.50	1689.87
413.69	1678.16
413.88	1687.53
414.07	1760.08
414.26	1699.23
414.45	1774.13
414.64	1626.67
414.83	1774.13
415.02	1785.83
415.22	1806.89
415.41	1785.83
415.60	1834.98
415.79	1802.21
415.98	1928.60
416.17	1846.68
416.36	1818.60
416.55	1867.75
416.74	1809.23
416.93	1846.68
417.12	1912.22
417.31	1914.56
417.50	1966.05
417.69	1963.71
417.88	1912.22
418.07	1865.41
418.26	1888.81
418.45	1968.39
418.64	2017.54
418.83	2031.58
419.02	2017.54
419.21	1937.96
419.39	1900.52
419.58	2036.27
419.77	2036.27
419.96	2052.65
420.15	1987.11
420.34	1998.82
420.53	2008.18
420.72	1975.41
420.91	2083.08
421.10	2076.06
421.29	2005.84
421.48	2085.42
421.67	2080.74
421.86	2181.38
422.05	2090.10
422.24	2073.71
422.43	2155.63
422.61	2073.71
422.80	2097.12
422.99	2211.81
423.18	2148.61
423.37	2176.70
423.56	2183.72
423.75	2176.70
423.94	2087.76
424.13	2015.20
424.32	2045.63
424.50	2251.60
424.69	2209.47
424.88	2165.00
425.07	2221.17
425.26	2040.95
425.45	2094.78
425.64	2101.80
425.83	2139.25
426.01	2157.97
426.20	2188.40
426.39	2125.21
426.58	2221.17
426.77	2225.85
426.96	2256.28
427.15	2167.34
427.33	2193.08
427.52	2197.76
427.71	2228.19
427.90	2209.47
428.09	2345.22
428.28	2228.19
428.46	2338.20
428.65	2284.36
428.84	2377.98
429.03	2296.07
429.22	2286.70
429.40	2272.66
429.59	2324.15
429.78	2253.94
429.97	2267.98
430.16	2242.23
430.34	2401.39
430.53	2445.86
430.72	2403.73
430.91	2429.48
431.10	2396.71
431.28	2310.11
431.47	2480.97
431.66	2413.09
431.85	2455.22
432.03	2490.33
432.22	2518.42
432.41	2480.97
432.60	2335.85
432.79	2499.69
432.97	2485.65
433.16	2509.05
433.35	2499.69
433.54	2539.48
433.72	2466.92
433.91	2403.73
434.10	2602.68
434.28	2544.16
434.47	2614.38
434.66	2621.40
434.85	2569.91
435.03	2700.98
435.22	2913.97
435.41	2991.20
435.59	3016.95
435.78	3035.67
435.97	2841.41
436.16	2686.94
436.34	2595.65
436.53	2649.49
436.72	2733.75
436.90	2698.64
437.09	2733.75
437.28	2614.38
437.46	2672.89
437.65	2696.30
437.84	2715.02
438.02	2693.96
438.21	2733.75
438.40	2724.38
438.58	2745.45
438.77	2853.11
438.96	2745.45
439.14	2942.05
439.33	2759.49
439.52	2848.43
439.70	2972.48
439.89	2857.79
440.08	2918.65
440.26	3035.67
440.45	2970.14
440.63	2958.44
440.82	3000.57
441.01	3061.42
441.19	3061.42
441.38	3061.42
441.57	3178.45
441.75	3098.87
441.94	2974.82
442.12	3138.66
442.31	3183.13
442.50	3197.17
442.68	2995.89
442.87	3164.40
443.05	3248.66
443.24	3241.64
443.43	3178.45
443.61	3052.06
443.80	3150.36
443.98	3159.72
444.17	3038.02
444.35	3206.53
444.54	3169.09
444.73	3197.17
444.91	3192.49
445.10	3094.19
445.28	3157.38
445.47	3405.48
445.65	3239.30
445.84	3356.33
446.02	3274.41
446.21	3190.15
446.39	3386.76
446.58	3384.41
446.77	3251.00
446.95	3218.24
447.14	3225.26
447.32	3386.76
447.51	3253.34
447.69	3318.88
447.88	3215.90
448.06	3297.81
448.25	3307.18
448.43	3262.71
448.62	3382.07
448.80	3314.20
448.99	3384.41
449.17	3309.52
449.36	3316.54
449.54	3365.69
449.73	3342.28
449.91	3442.93
450.10	3379.73
450.28	3433.57
450.46	3407.82
450.65	3478.04
450.83	3485.06
451.02	3478.04
451.20	3442.93
451.39	3405.48
451.57	3456.97
451.76	3323.56
451.94	3602.08
452.13	3513.14
452.31	3499.10
452.49	3431.23
452.68	3534.21
452.86	3426.54
453.05	3494.42
453.23	3672.30
453.42	3524.85
453.60	3517.83
453.78	3517.83
453.97	3548.25
454.15	3620.81
454.34	3592.72
454.52	3578.68
454.70	3679.32
454.89	3618.47
455.07	3735.50
455.26	3674.64
455.44	3770.60
455.62	3716.77
455.81	3705.07
455.99	3686.34
456.17	3712.09
456.36	3817.41
456.54	3868.91
456.73	3749.54
456.91	3920.40
457.09	3726.13
457.28	3946.14
457.46	3878.27
457.64	3906.35
457.83	3901.67
458.01	3798.69
458.19	4025.72
458.38	3967.21
458.56	3901.67
458.74	3962.53
458.93	3852.52
459.11	3999.98
459.29	3985.93
459.48	3906.35
459.66	3922.74
459.84	3920.40
460.03	4023.38
460.21	4016.36
460.39	3997.64
460.57	4105.30
460.76	4032.74
460.94	4334.67
461.12	4198.92
461.31	4102.96
461.49	4021.04
461.67	4198.92
461.85	4234.03
462.04	4088.92
462.22	4421.27
462.40	4189.56
462.59	4255.09
462.77	4175.52
462.95	4351.06
463.13	4212.96
463.32	4219.99
463.50	4154.45
463.68	4329.99
463.86	4365.10
464.05	4135.73
464.23	4344.03
464.41	4318.29
464.59	4145.09
464.78	4407.23
464.96	4461.06
465.14	4397.87
465.32	4325.31
465.50	4269.14
465.69	4435.32
465.87	4442.34
466.05	4421.27
466.23	4437.66
466.41	4348.72
466.60	4432.97
466.78	4404.89
466.96	4365.10
467.14	4430.63
467.32	4418.93
467.51	4531.28
467.69	4428.29
467.87	4430.63
468.05	4442.34
468.23	4627.24
468.41	4404.89
468.60	4510.21
468.78	4559.36
468.96	4594.47
469.14	4578.09
469.32	4550.00
469.50	4568.73
469.69	4622.56
469.87	4758.31
470.05	4704.48
470.23	4772.35
470.41	4664.69
470.59	4730.22
470.77	4718.52
470.95	4823.84
471.14	4741.93
471.32	4671.71
471.50	4716.18
471.68	4851.93
471.86	4828.53
472.04	4690.43
472.22	4931.51
472.40	4945.55
472.58	4882.36
472.77	4922.15
472.95	4990.02
473.13	4952.57
473.31	4854.27
473.49	5102.37
473.67	5018.11
473.85	5174.92
474.03	5095.35
474.21	5039.17
474.39	5233.44
474.57	5100.03
474.75	5313.02
474.93	5320.04
475.12	5085.98
475.30	5266.21
475.48	5104.71
475.66	5310.68
475.84	5313.02
476.02	5338.76
476.20	5425.36
476.38	5371.53
476.56	5453.45
476.74	5357.49
476.92	5392.59
477.10	5654.73
477.28	5535.37
477.46	5535.37
477.64	5603.24
477.82	5591.54
478.00	5827.93
478.18	5680.48
478.36	5834.96
478.54	5895.81
478.72	5909.85
478.90	6122.84
479.08	6024.54
479.26	6113.48
479.44	6078.37
479.62	6099.44
479.80	6085.39
479.98	6092.41
480.16	6260.93
480.34	6214.12
480.52	6242.21
480.70	6445.84
480.88	6441.15
481.06	6256.25
481.24	6469.24
481.41	6612.01
481.59	6628.40
481.77	6619.04
481.95	6766.49
482.13	6759.47
482.31	6703.29
482.49	6754.79
482.67	6686.91
482.85	6850.75
483.03	7115.23
483.21	6923.30
483.39	7103.53
483.57	6832.02
483.74	7075.44
483.92	7150.34
484.10	7103.53
484.28	7321.20
484.46	7211.19
484.64	7557.59
484.82	7325.88
485.00	7520.14
485.18	7496.74
485.35	7616.10
485.53	7552.91
485.71	7538.87
485.89	7742.49
486.07	7740.15
486.25	7878.24
486.43	7686.32
486.61	8058.46
486.78	7892.29
486.96	7990.59
487.14	8161.45
487.32	7997.61
487.50	8292.52
487.68	8301.88
487.85	8306.56
488.03	8421.25
488.21	8711.47
488.39	8468.06
488.57	8636.58
488.75	8699.77
488.92	8681.05
489.10	8725.52
489.28	8807.44
489.46	8858.93
489.64	8922.12
489.81	9081.28
489.99	9018.08
490.17	9116.39
490.35	9437.04
490.53	9348.10
490.70	9462.79
490.88	9284.91
491.06	9387.89
491.24	9411.29
491.41	9434.70
491.59	9509.60
491.77	9722.59
491.95	9783.44
492.13	9563.43
492.30	9554.07
492.48	9631.30
492.66	9895.78
492.84	9827.91
493.01	9923.87
493.19	9975.36
493.37	10174.31
493.54	10036.22
493.72	10209.42
493.90	10078.35
494.08	10153.24
494.25	10303.04
494.43	10139.20
494.61	10438.79
494.79	10539.43
494.96	10235.16
495.14	10480.92
495.32	10745.40
495.49	10462.19
495.67	10651.78
495.85	10745.40
496.02	10665.82
496.20	10836.68
496.38	10977.11
496.55	10773.49
496.73	11117.54
496.91	11246.27
497.09	11187.76
497.26	11288.40
497.44	11276.70
497.62	11042.65
497.79	11239.25
497.97	11283.72
498.14	11424.15
498.32	11515.44
498.50	11573.95
498.67	11435.86
498.85	11590.33
499.03	11632.46
499.20	11730.76
499.38	11723.74
499.56	11817.36
499.73	11812.68
499.91	11679.27
500.08	11946.09
500.26	11627.78
500.44	11868.86
500.61	11772.89
500.79	11950.78
500.97	12180.15
501.14	12194.19
501.32	12140.36
501.49	12126.32
501.67	12444.63
501.84	12365.05
502.02	12585.06
502.20	12580.38
502.37	12463.35
502.55	12510.16
502.72	12346.33
502.90	12421.22
503.07	12482.08
503.25	12634.21
503.43	12257.39
503.60	12526.55
503.78	12704.43
503.95	12578.04
504.13	12603.78
504.30	12816.77
504.48	12762.94
504.65	12894.01
504.83	13060.19
505.01	13217.01
505.18	12926.78
505.36	13191.26
505.53	13111.68
505.71	13221.69
505.88	13097.64
506.06	13146.79
506.23	13380.84
506.41	13205.30
506.58	13186.58
506.76	13296.58
506.93	13469.78
507.11	13266.16
507.28	13537.66
507.46	13579.79
507.63	13504.89
507.81	13635.96
507.98	13584.47
508.16	13547.02
508.33	13795.12
508.50	13752.99
508.68	13837.25
508.85	13914.48
509.03	13774.05
509.20	13745.97
509.38	14010.45
509.55	13893.42
509.73	14188.33
509.90	13928.53
510.08	13951.93
510.25	14022.15
510.42	13963.64
510.60	14195.35
510.77	14164.92
510.95	14321.74
511.12	14244.50
511.30	14476.21
511.47	14214.07
511.64	14324.08
511.82	14391.95
511.99	14417.70
512.17	14361.53
512.34	14581.54
512.51	14754.74
512.69	14899.85
512.86	14909.21
513.04	14787.50
513.21	14963.04
513.38	14686.86
513.56	15077.73
513.73	14883.47
513.90	14827.29
514.08	15054.33
514.25	14984.11
514.43	15152.63
514.60	15124.54
514.77	14899.85
514.95	14864.74
515.12	15295.40
515.29	15126.88
515.47	15236.89
515.64	15204.12
515.81	15513.07
515.99	15243.91
516.16	15199.44
516.33	15412.43
516.51	15529.45
516.68	15344.55
516.85	15641.80
517.03	15592.65
517.20	15459.24
517.37	15482.64
517.54	15482.64
517.72	15506.05
517.89	15688.61
518.06	15742.44
518.24	15484.98
518.41	15667.55
518.58	15482.64
518.75	15583.29
518.93	15800.96
519.10	15772.87
519.27	15833.72
519.45	15815.00
519.62	15871.17
519.79	15999.90
519.96	15793.94
520.14	16161.40
520.31	15744.78
520.48	15840.75
520.65	15775.21
520.83	16402.47
521.00	16432.90
521.17	16240.98
521.34	16229.27
521.52	16147.36
521.69	16166.08
521.86	16482.05
522.03	16376.73
522.20	16299.49
522.38	16226.93
522.55	16664.61
522.72	16531.20
522.89	16350.98
523.07	16865.90
523.24	16922.07
523.41	16690.36
523.58	16748.87
523.75	16805.05
523.92	16898.67
524.10	16596.74
524.27	16865.90
524.44	16704.40
524.61	17071.87
524.78	16964.20
524.96	16870.58
525.13	17273.15
525.30	17018.04
525.47	17006.33
525.64	16725.47
525.81	17053.14
525.98	17025.06
526.16	17027.40
526.33	17242.73
526.50	17270.81
526.67	17092.93
526.84	17046.12
527.01	17259.11
527.18	17626.57
527.36	17425.29
527.53	17598.49
527.70	17439.33
527.87	17106.98
528.04	17654.66
528.21	17832.54
528.38	17575.08
528.55	17497.84
528.72	17406.56
528.89	17514.23
529.07	17511.89
529.24	17357.41
529.41	17516.57
529.58	17575.08
529.75	17994.04
529.92	17855.95
530.09	17783.39
530.26	17970.63
530.43	17523.59
530.60	17745.94
530.77	17806.80
530.94	18192.98
531.11	17764.67
531.28	17792.75
531.46	18054.89
531.63	17888.71
531.80	17554.02
531.97	18059.57
532.14	18097.02
532.31	17703.81
532.48	18228.09
532.65	18195.32
532.82	18218.73
532.99	18148.51
533.16	18008.08
533.33	18214.05
533.50	18625.98
533.67	18225.75
533.84	18302.99
534.01	18045.53
534.18	18064.25
534.35	18434.06
534.52	18483.21
534.69	18455.12
534.86	18333.42
535.03	18106.38
535.20	18586.19
535.37	18410.65
535.54	18534.70
535.71	18246.82
535.88	18553.43
536.05	18721.95
536.22	18735.99
536.38	18576.83
536.55	18775.78
536.72	18644.71
536.89	18923.23
537.06	18703.22
537.23	18801.52
537.40	19066.00
537.57	18618.96
537.74	18633.00
537.91	19047.28
538.08	18878.76
538.25	18726.63
538.42	18579.17
538.59	18909.19
538.75	18799.18
538.92	18977.06
539.09	19161.97
539.26	19005.15
539.43	19115.16
539.60	19183.03
539.77	19178.35
539.94	18951.32
540.11	19339.85
540.28	19286.01
540.44	19283.67
540.61	19372.61
540.78	19342.19
540.95	19096.43
541.12	19335.17
541.29	19721.35
541.46	19885.19
541.62	19826.68
541.79	19798.59
541.96	19878.17
542.13	20013.92
542.30	19950.73
542.47	19864.13
542.63	19709.65
542.80	20039.67
542.97	20013.92
543.14	20109.88
543.31	20189.46
543.48	20039.67
543.64	20170.74
543.81	20219.89
543.98	20208.19
544.15	20346.28
544.32	20142.65
544.48	20554.58
544.65	20224.57
544.82	20175.42
544.99	20121.59
545.16	20201.16
545.32	20386.07
545.49	20994.61
545.66	20877.58
545.83	21284.83
546.00	21032.05
546.16	21039.08
546.33	20648.21
546.50	20725.44
546.67	20610.76
546.83	20142.65
547.00	20269.04
547.17	20315.85
547.34	20189.46
547.50	20397.77
547.67	20959.50
547.84	20018.60
548.00	20294.79
548.17	20577.99
548.34	20608.42
548.51	20793.32
548.67	20386.07
548.84	20606.08
549.01	20425.86
549.18	20278.40
549.34	20622.46
549.51	20671.61
549.68	20650.55
549.84	20470.33
550.01	20650.55
550.18	20386.07
550.34	20467.98
550.51	20360.32
550.68	20676.29
550.84	20201.16
551.01	20854.17
551.18	20577.99
551.34	20430.54
551.51	20570.97
551.68	20599.05
551.84	20262.02
552.01	20690.34
552.18	20730.12
552.34	21010.99
552.51	20875.24
552.68	20592.03
552.84	20418.83
553.01	20657.57
553.18	20833.11
553.34	21053.12
553.51	20891.62
553.67	20765.23
553.84	21025.03
554.01	20964.18
554.17	20924.39
554.34	20900.98
554.51	20851.83
554.67	20933.75
554.84	20805.02
555.00	20929.07
555.17	20814.38
555.33	20746.51
555.50	21027.37
555.67	20556.93
555.83	20772.25
556.00	20538.20
556.16	20971.20
556.33	21078.86
556.50	20957.16
556.66	20755.87
556.83	20615.44
556.99	20800.34
557.16	21174.83
557.32	21008.65
557.49	21252.06
557.65	20968.86
557.82	21092.91
557.98	20842.47
558.15	20884.60
558.32	21200.57
558.48	20936.09
558.65	21284.83
558.81	21247.38
558.98	20861.19
559.14	21406.54
559.31	21113.97
559.47	21062.48
559.64	21165.46
559.80	21202.91
559.97	21046.10
560.13	21245.04
560.30	21266.11
560.46	21214.62
560.63	21319.94
560.79	21280.15
560.96	21120.99
561.12	21160.78
561.29	21109.29
561.45	21336.32
561.61	21081.21
561.78	21205.25
561.94	21315.26
562.11	21570.38
562.27	21266.11
562.44	21378.45
562.60	21539.95
562.77	21139.72
562.93	21228.66
563.10	21694.43
563.26	21123.33
563.42	21481.44
563.59	21184.19
563.75	21692.08
563.92	21572.72
564.08	21355.05
564.24	21530.59
564.41	21106.95
564.57	21523.57
564.74	21455.69
564.90	21582.08
565.07	21413.56
565.23	21441.65
565.39	21474.42
565.56	21649.96
565.72	21366.75
565.88	21617.19
566.05	21497.82
566.21	21404.20
566.38	21142.06
566.54	21357.39
566.70	21551.65
566.87	21734.21
567.03	21832.52
567.19	21692.08
567.36	21956.57
567.52	21827.84
567.68	21823.16
567.85	21481.44
568.01	21626.55
568.17	21568.04
568.34	21818.47
568.50	21647.61
568.66	22047.85
568.83	21738.90
568.99	21680.38
569.15	21436.97
569.32	21771.66
569.48	21699.11
569.64	21528.25
569.81	21774.00
569.97	21343.35
570.13	21467.39
570.30	21390.16
570.46	21827.84
570.62	21521.23
570.78	21820.81
570.95	21682.72
571.11	21612.51
571.27	21521.23
571.43	21596.12
571.60	21319.94
571.76	21607.83
571.92	22211.68
572.09	21788.05
572.25	22033.80
572.41	21867.63
572.57	22108.70
572.74	22164.87
572.90	21729.53
573.06	22012.74
573.22	21888.69
573.38	21713.15
573.55	21596.12
573.71	21834.86
573.87	21535.27
574.03	21750.60
574.20	21722.51
574.36	21881.67
574.52	21841.88
574.68	21736.56
574.84	21853.58
575.01	21696.77
575.17	22214.02
575.33	21577.40
575.49	21776.34
575.65	21458.03
575.82	21912.10
575.98	22237.43
576.14	22024.44
576.30	22181.26
576.46	21713.15
576.62	22008.06
576.79	21865.28
576.95	21841.88
577.11	21998.70
577.27	22029.12
577.43	21935.50
577.59	21928.48
577.75	21785.71
577.92	21666.34
578.08	21624.21
578.24	21832.52
578.40	21696.77
578.56	22181.26
578.72	22209.34
578.88	22167.21
579.04	22066.57
579.21	21893.37
579.37	22361.48
579.53	22373.18
579.69	21891.03
579.85	21979.97
580.01	22244.45
580.17	22178.92
580.33	21942.52
580.49	21928.48
580.65	22024.44
580.82	21961.25
580.98	21820.81
581.14	22012.74
581.30	21972.95
581.46	21916.78
581.62	21907.41
581.78	22097.00
581.94	22029.12
582.10	21766.98
582.26	21865.28
582.42	21809.11
582.58	22169.55
582.74	22251.47
582.90	22178.92
583.06	21975.29
583.22	21652.30
583.38	21860.60
583.54	21963.59
583.70	22080.61
583.86	22082.95
584.02	21940.18
584.18	21940.18
584.34	21900.39
584.50	21797.41
584.66	22017.42
584.82	22160.19
584.98	22057.21
585.14	21799.75
585.30	22284.24
585.46	21944.86
585.62	22024.44
585.78	21942.52
585.94	21884.01
586.10	22094.66
586.26	22258.49
586.42	22118.06
586.58	22092.32
586.74	22190.62
586.90	22272.54
587.06	22171.89
587.22	22118.06
587.38	22115.72
587.54	22045.51
587.70	22405.95
587.86	22237.43
588.02	22228.07
588.18	22363.82
588.34	22192.96
588.49	22106.36
588.65	22384.88
588.81	22291.26
588.97	22345.09
589.13	21989.33
589.29	22260.84
589.45	22129.77
589.61	22293.60
589.77	22469.14
589.93	21947.20
590.08	22221.05
590.24	22499.57
590.40	22106.36
590.56	22204.66
590.72	22026.78
590.88	21996.35
591.04	22260.84
591.20	22405.95
591.35	22106.36
591.51	22270.20
591.67	22412.97
591.83	22331.05
591.99	22380.20
592.15	22017.42
592.31	22195.30
592.46	22057.21
592.62	21795.07
592.78	22284.24
592.94	21968.27
593.10	22319.35
593.26	22546.38
593.41	22368.50
593.57	22604.89
593.73	22436.38
593.89	22455.10
594.05	22029.12
594.20	22097.00
594.36	22478.50
594.52	22256.15
594.68	22054.87
594.84	22097.00
594.99	22078.27
595.15	21937.84
595.31	22394.25
595.47	22319.35
595.62	22155.51
595.78	22267.86
595.94	22319.35
596.10	22366.16
596.25	22010.40
596.41	21979.97
596.57	22122.74
596.73	22122.74
596.88	22270.20
597.04	22036.14
597.20	21970.61
597.36	22309.99
597.51	22654.05
597.67	22225.73
597.83	22012.74
597.99	22204.66
598.14	22394.25
598.30	22419.99
598.46	22548.72
598.61	22352.12
598.77	22398.93
598.93	22340.41
599.09	22349.78
599.24	22773.41
599.40	22394.25
599.56	22562.76
599.71	22452.76
599.87	22293.60
600.03	22134.45
600.18	22251.47
600.34	22171.89
600.50	22356.80
600.65	21954.22
600.81	22171.89
600.97	22349.78
601.12	22473.82
601.28	22485.53
601.44	22295.94
601.59	21996.35
601.75	22202.32
601.91	22354.46
602.06	21979.97
602.22	22396.59
602.37	22089.98
602.53	21968.27
602.69	22731.28
602.84	22302.96
603.00	22742.99
603.16	22408.29
603.31	22291.26
603.47	22171.89
603.62	21944.86
603.78	22153.17
603.94	22237.43
604.09	22342.75
604.25	22183.60
604.40	22008.06
604.56	22197.64
604.71	22363.82
604.87	22164.87
605.03	22305.31
605.18	22450.42
605.34	22190.62
605.49	21954.22
605.65	22038.48
605.80	21837.20
605.96	22115.72
606.12	22518.29
606.27	22295.94
606.43	22331.05
606.58	22356.80
606.74	22335.73
606.89	22125.08
607.05	22185.94
607.20	21743.58
607.36	21837.20
607.51	22246.79
607.67	21933.16
607.82	22302.96
607.98	22370.84
608.13	21968.27
608.29	21975.29
608.44	22101.68
608.60	22113.38
608.75	22232.75
608.91	22326.37
609.06	22209.34
609.22	22511.27
609.37	21977.63
609.53	21900.39
609.68	21802.09
609.84	21998.70
609.99	22106.36
610.15	22178.92
610.30	22408.29
610.46	22754.69
610.61	22808.52
610.76	23126.83
610.92	23283.65
611.07	23307.05
611.23	23185.35
611.38	23468.55
611.54	23005.13
611.69	23061.30
611.84	23211.09
612.00	22965.34
612.15	23044.91
612.31	22724.26
612.46	22499.57
612.62	22403.61
612.77	22225.73
612.92	22188.28
613.08	22448.08
613.23	22167.21
613.39	21914.44
613.54	22111.04
613.69	22017.42
613.85	22160.19
614.00	22057.21
614.15	22040.82
614.31	22087.64
614.46	22101.68
614.62	22122.74
614.77	21937.84
614.92	21970.61
615.08	21886.35
615.23	22092.32
615.38	21996.35
615.54	21724.85
615.69	21680.38
615.84	21708.47
616.00	21776.34
616.15	21790.39
616.30	22075.93
616.46	21539.95
616.61	21614.85
616.76	21781.03
616.92	21589.10
617.07	21701.45
617.22	21563.36
617.37	21458.03
617.53	21694.43
617.68	21766.98
617.83	21514.20
617.99	21766.98
618.14	21610.17
618.29	21446.33
618.45	21443.99
618.60	21579.74
618.75	21488.46
618.90	21067.16
619.06	21223.98
619.21	21111.63
619.36	21401.86
619.51	21432.29
619.67	21106.95
619.82	21481.44
619.97	21394.84
620.12	21142.06
620.28	21324.62
620.43	21640.59
620.58	21420.58
620.73	21319.94
620.89	21259.09
621.04	21060.14
621.19	21277.81
621.34	21137.38
621.49	20837.79
621.65	20959.50
621.80	21207.59
621.95	20744.17
622.10	21263.77
622.25	20877.58
622.41	21113.97
622.56	20884.60
622.71	20905.66
622.86	20971.20
623.01	21020.35
623.16	20758.21
623.32	21245.04
623.47	21081.21
623.62	20952.48
623.77	21238.02
623.92	21010.99
624.07	21333.98
624.23	21151.42
624.38	21338.66
624.53	20996.95
624.68	20730.12
624.83	21088.23
624.98	20828.43
625.13	20755.87
625.29	20999.29
625.44	20830.77
625.59	20690.34
625.74	20929.07
625.89	20905.66
626.04	20802.68
626.19	20475.01
626.34	20664.59
626.49	20844.81
626.65	20306.49
626.80	20470.33
626.95	20798.00
627.10	20683.31
627.25	20428.20
627.40	20362.66
627.55	20631.82
627.70	20713.74
627.85	20353.30
628.00	20528.84
628.15	20666.93
628.30	20798.00
628.45	20294.79
628.60	20634.16
628.76	20386.07
628.91	20360.32
629.06	20688.00
629.21	20304.15
629.36	20460.96
629.51	20191.80
629.66	20709.06
629.81	20723.10
629.96	20372.02
630.11	20226.91
630.26	20552.24
630.41	20655.23
630.56	20142.65
630.71	20695.02
630.86	20816.72
631.01	20362.66
631.16	20332.23
631.31	20084.14
631.46	20135.63
631.61	20311.17
631.76	20091.16
631.91	20264.36
632.06	20196.48
632.21	20231.59
632.36	20116.90
632.51	20079.46
632.66	20023.28
632.81	20053.71
632.96	20116.90
633.10	19901.58
633.25	19791.57
633.40	19793.91
633.55	19995.20
633.70	19920.30
633.85	20063.07
634.00	20013.92
634.15	20037.33
634.30	19983.49
634.45	19793.91
634.60	20074.77
634.75	20060.73
634.90	19962.43
635.05	20088.82
635.19	19899.23
635.34	19847.74
635.49	20027.96
635.64	20126.27
635.79	19564.54
635.94	19805.61
636.09	19414.74
636.24	19667.52
636.39	19545.81
636.53	20100.52
636.68	19770.51
636.83	19616.03
636.98	19658.16
637.13	19697.95
637.28	19515.39
637.43	19449.85
637.57	20051.37
637.72	19499.00
637.87	19786.89
638.02	19651.14
638.17	19543.47
638.32	19412.40
638.46	19253.25
638.61	19503.68
638.76	19405.38
638.91	19651.14
639.06	19541.13
639.20	19555.18
639.35	19728.38
639.50	19604.33
639.65	19754.12
639.80	19676.88
639.94	19424.11
640.09	19384.32
640.24	19421.77
640.39	19660.50
640.54	19513.05
640.68	19033.24
640.83	19290.70
640.98	19183.03
641.13	19082.39
641.27	19276.65
641.42	19307.08
641.57	19330.48
641.72	19442.83
641.86	19098.77
642.01	18965.36
642.16	19211.12
642.31	19133.88
642.45	19721.35
642.60	19159.63
642.75	19384.32
642.90	19325.80
643.04	19094.09
643.19	18815.57
643.34	19143.24
643.48	19206.44
643.63	19653.48
643.78	19051.96
643.93	18640.03
644.07	18988.77
644.22	18625.98
644.37	18775.78
644.51	18813.23
644.66	18696.20
644.81	19122.18
644.95	19241.54
645.10	19145.58
645.25	19070.68
645.39	18792.16
645.54	19126.86
645.69	18857.70
645.83	18913.87
645.98	19260.27
646.13	18834.29
646.27	18932.59
646.42	18867.06
646.57	18911.53
646.71	18857.70
646.86	18682.16
647.00	19103.45
647.15	18965.36
647.30	18958.34
647.44	18979.40
647.59	18616.62
647.74	18611.94
647.88	18785.14
648.03	18689.18
648.17	18387.25
648.32	18499.59
648.47	18537.04
648.61	18691.52
648.76	18843.65
648.90	18752.37
649.05	18808.54
649.20	18759.39
649.34	18750.03
649.49	18609.60
649.63	18813.23
649.78	18810.89
649.92	18618.96
650.07	19021.53
650.21	18506.62
650.36	18588.53
650.51	18513.64
650.65	18499.59
650.80	18883.44
650.94	18845.99
651.09	18773.44
651.23	18534.70
651.38	18412.99
651.52	18466.83
651.67	18494.91
651.81	18235.11
651.96	18338.10
652.10	18567.47
652.25	18394.27
652.39	18607.26
652.54	18075.96
652.68	18075.96
652.83	18352.14
652.97	18232.77
653.12	18169.58
653.26	18377.89
653.41	18476.19
653.55	18487.89
653.70	18424.70
653.84	18272.56
653.99	17916.80
654.13	18148.51
654.27	18258.52
654.42	18150.85
654.56	18270.22
654.71	18380.23
654.85	18113.41
655.00	18157.88
655.14	18071.28
655.29	17642.96
655.43	18036.17
655.57	17907.44
655.72	17965.95
655.86	18246.82
656.01	18129.79
656.15	18181.28
656.30	18003.40
656.44	18162.56
656.58	18031.49
656.73	17994.04
656.87	18017.44
657.01	17954.25
657.16	17963.61
657.30	17781.05
657.45	17664.02
657.59	18108.72
657.73	17930.84
657.88	17661.68
658.02	17916.80
658.16	18192.98
658.31	17879.35
658.45	17624.23
658.60	17490.82
658.74	17516.57
658.88	17692.11
659.03	17570.40
659.17	17635.94
659.31	17710.83
659.46	17659.34
659.60	17862.97
659.74	17460.40
659.89	17441.67
660.03	17633.60
660.17	17371.46
660.32	17282.52
660.46	17404.22
660.60	17247.41
660.74	17827.86
660.89	17706.15
661.03	17411.25
661.17	17369.12
661.32	17666.36
661.46	17563.38
661.60	17310.60
661.74	17053.14
661.89	17228.68
662.03	17034.42
662.17	16924.41
662.31	16901.01
662.46	17158.47
662.60	17287.20
662.74	16893.99
662.88	17020.38
663.03	17015.69
663.17	17085.91
663.31	16964.20
663.45	17280.18
663.60	16779.30
663.74	16783.98
663.88	16783.98
664.02	16837.81
664.17	16936.12
664.31	16723.13
664.45	16547.59
664.59	16315.87
664.73	16521.84
664.88	16826.11
665.02	16688.02
665.16	16596.74
665.30	16617.80
665.44	16622.48
665.59	16435.24
665.73	16746.53
665.87	16184.80
666.01	16629.51
666.15	16720.79
666.29	16638.87
666.44	16613.12
666.58	16304.17
666.72	16259.70
666.86	16458.65
667.00	16512.48
667.14	16304.17
667.28	16039.69
667.43	16582.70
667.57	16372.05
667.71	16465.67
667.85	16512.48
667.99	16397.79
668.13	16147.36
668.27	16219.91
668.41	16156.72
668.56	15962.45
668.70	16091.18
668.84	15852.45
668.98	15737.76
669.12	16030.33
669.26	15957.77
669.40	15548.18
669.54	16004.58
669.68	15896.92
669.82	15604.35
669.96	16049.05
670.10	15672.23
670.25	15683.93
670.39	15939.05
670.53	15484.98
670.67	15590.31
670.81	15948.41
670.95	15927.35
671.09	15520.09
671.23	15716.70
671.37	15599.67
671.51	15899.26
671.65	15829.04
671.79	15517.75
671.93	15477.96
672.07	15428.81
672.21	15424.13
672.35	15311.78
672.49	15456.90
672.63	14941.98
672.77	15028.58
672.91	15351.57
673.05	15077.73
673.19	15159.65
673.33	14862.40
673.47	14986.45
673.61	14995.81
673.75	15187.74
673.89	15051.99
674.03	14860.06
674.17	14843.68
674.31	15021.56
674.45	15183.06
674.59	14897.51
674.73	15138.58
674.87	15012.20
675.01	14824.95
675.15	14516.00
675.29	14909.21
675.43	14626.01
675.56	14642.39
675.70	14473.87
675.84	14401.32
675.98	13855.97
676.12	14349.82
676.26	14476.21
676.40	14303.01
676.54	14415.36
676.68	14492.60
676.82	14352.16
676.96	14396.64
677.10	14553.45
677.23	14038.53
677.37	14183.65
677.51	14244.50
677.65	14202.37
677.79	14111.09
677.93	13743.63
678.07	13942.57
678.21	14071.30
678.34	13778.73
678.48	13729.58
678.62	13785.76
678.76	13731.92
678.90	13390.20
679.04	13820.86
679.18	13406.59
679.31	13305.95
679.45	13151.47
679.59	13607.87
679.73	13448.72
679.87	13727.24
680.00	13427.65
680.14	13397.23
680.28	13371.48
680.42	13282.54
680.56	13132.75
680.70	13174.88
680.83	13172.54
680.97	12779.32
681.11	13219.35
681.25	12690.38
681.39	12805.07
681.52	12992.31
681.66	13006.36
681.80	13027.42
681.94	12884.65
682.07	12849.54
682.21	12805.07
682.35	12753.58
682.49	12816.77
682.62	12751.24
682.76	12582.72
682.90	12746.56
683.04	12393.14
683.17	12423.56
683.31	12608.47
683.45	12453.99
683.59	12456.33
683.72	12540.59
683.86	12346.33
684.00	12430.59
684.13	12418.88
684.27	12294.83
684.41	12058.44
684.55	12156.74
684.68	12170.79
684.82	11967.16
684.96	11667.57
685.09	12065.46
685.23	11995.25
685.37	12051.42
685.50	11981.20
685.64	12112.27
685.78	11873.54
685.91	11805.66
686.05	11749.49
686.19	11716.72
686.32	11662.89
686.46	11482.67
686.60	11438.20
686.73	11613.74
686.87	11410.11
687.01	11735.45
687.14	11501.39
687.28	11393.73
687.42	11346.92
687.55	11232.23
687.69	11171.38
687.82	11257.98
687.96	11417.13
688.10	11314.15
688.23	11077.76
688.37	11239.25
688.50	10794.55
688.64	11110.52
688.78	11012.22
688.91	11068.39
689.05	10846.04
689.18	10714.97
689.32	10876.47
689.46	10895.19
689.59	10750.08
689.73	10656.46
689.86	10544.11
690.00	10768.80
690.13	10806.25
690.27	10537.09
690.41	10647.10
690.54	10487.94
690.68	10370.91
690.81	10548.79
690.95	10462.19
691.08	10307.72
691.22	10317.08
691.35	9975.36
691.49	10235.16
691.62	10478.58
691.76	10054.94
691.89	10132.18
692.03	10010.47
692.16	10015.15
692.30	10183.67
692.43	9895.78
692.57	10008.13
692.70	9940.26
692.84	9998.77
692.97	9685.14
693.11	9635.99
693.24	9687.48
693.38	9668.75
693.51	9577.47
693.65	9722.59
693.78	9717.90
693.92	9666.41
694.05	9799.82
694.19	9708.54
694.32	9727.27
694.45	9638.33
694.59	9535.34
694.72	9378.53
694.86	9228.73
694.99	9144.47
695.13	9345.76
695.26	9165.54
695.39	9207.67
695.53	9210.01
695.66	9252.14
695.80	9008.72
695.93	9004.04
696.07	8990.00
696.20	9109.36
696.33	8877.65
696.47	8964.25
696.60	9097.66
696.73	8894.04
696.87	8966.59
697.00	8606.15
697.14	8753.60
697.27	8791.05
697.40	8514.87
697.54	8442.31
697.67	8552.32
697.80	8580.40
697.94	8465.72
698.07	8402.52
698.21	8528.91
698.34	8486.78
698.47	8334.65
698.61	8023.36
698.74	8351.03
698.87	8297.20
699.01	8229.32
699.14	8287.84
699.27	8372.10
699.40	8418.91
699.54	8182.51
699.67	8056.12
699.80	8313.58
699.94	7941.44
700.07	7894.63
700.20	7786.96
700.34	7772.92
700.47	8006.97
700.60	7957.82
700.73	7840.79
700.87	7737.81
701.00	7578.65
701.13	7840.79
701.26	7768.24
701.40	7658.23
701.53	7625.47
701.66	7693.34
701.79	7583.34
701.93	7779.94
702.06	7482.69
702.19	7705.04
702.32	7494.40
702.46	7412.48
702.59	7438.22
702.72	7297.79
702.85	7255.66
702.99	7353.96
703.12	7234.60
703.25	7052.03
703.38	7314.17
703.51	7316.51
703.65	7417.16
703.78	7236.94
703.91	7157.36
704.04	7309.49
704.17	6953.73
704.31	6995.86
704.44	6864.79
704.57	6937.35
704.70	6911.60
704.83	6689.25
704.96	6834.36
705.10	6956.07
705.23	6810.96
>>>>>End Processed Spectral Data<<<<<
