SpectraSuite Data File
++++++++++++++++++++++++++++++++++++
Date: Fri Oct 04 11:48:46 GMT-05:00 2013
User: price-jones
Dark Spectrum Present: No
Reference Spectrum Present: No
Number of Sampled Component Spectra: 1
Spectrometers: USB2+H05261
Integration Time (usec): 100000 (USB2+H05261)
Spectra Averaged: 1 (USB2+H05261)
Boxcar Smoothing: 0 (USB2+H05261)
Correct for Electrical Dark: No (USB2+H05261)
Strobe/Lamp Enabled: No (USB2+H05261)
Correct for Detector Non-linearity: No (USB2+H05261)
Correct for Stray Light: No (USB2+H05261)
Number of Pixels in Processed Spectrum: 2048
>>>>>Begin Processed Spectral Data<<<<<
365.73	67.88
365.92	67.88
366.12	67.88
366.32	14.04
366.52	0.00
366.72	0.00
366.91	0.00
367.11	4.68
367.31	0.00
367.51	0.00
367.70	0.00
367.90	0.00
368.10	0.00
368.30	0.00
368.49	0.00
368.69	0.00
368.89	0.00
369.09	0.00
369.28	0.00
369.48	0.00
369.68	0.00
369.87	0.00
370.07	0.00
370.27	23.41
370.47	79.58
370.66	318.31
370.86	315.97
371.06	428.32
371.25	330.02
371.45	332.36
371.65	423.64
371.84	383.85
372.04	402.57
372.24	461.09
372.44	442.36
372.63	402.57
372.83	493.85
373.03	456.40
373.22	400.23
373.42	472.79
373.62	498.53
373.81	524.28
374.01	510.24
374.21	472.79
374.40	486.83
374.60	526.62
374.79	596.84
374.99	472.79
375.19	587.47
375.38	500.87
375.58	512.58
375.78	624.92
375.97	575.77
376.17	547.69
376.37	615.56
376.56	585.13
376.76	552.37
376.95	571.09
377.15	564.07
377.35	615.56
377.54	638.97
377.74	571.09
377.93	582.79
378.13	629.60
378.33	641.31
378.52	627.26
378.72	629.60
378.91	564.07
379.11	589.82
379.31	599.18
379.50	643.65
379.70	692.80
379.89	594.50
380.09	543.00
380.28	617.90
380.48	660.03
380.68	657.69
380.87	676.41
381.07	634.29
381.26	683.44
381.46	641.31
381.65	711.52
381.85	643.65
382.04	655.35
382.24	678.76
382.43	748.97
382.63	660.03
382.83	674.07
383.02	685.78
383.22	732.59
383.41	751.31
383.61	816.85
383.80	692.80
384.00	868.34
384.19	781.74
384.39	723.23
384.58	723.23
384.78	784.08
384.97	819.19
385.17	856.64
385.36	809.83
385.56	826.21
385.75	779.40
385.95	812.17
386.14	809.83
386.34	758.33
386.53	896.43
386.72	854.30
386.92	884.72
387.11	758.33
387.31	840.25
387.50	849.61
387.70	891.74
387.89	882.38
388.09	856.64
388.28	938.55
388.48	1011.11
388.67	950.26
388.86	919.83
389.06	837.91
389.25	973.66
389.45	915.15
389.64	1022.81
389.84	933.87
390.03	966.64
390.22	1032.18
390.42	987.71
390.61	971.32
390.81	940.90
391.00	992.39
391.19	1001.75
391.39	1069.62
391.58	1013.45
391.78	945.58
391.97	1034.52
392.16	1074.31
392.36	1111.75
392.55	1121.12
392.75	1006.43
392.94	1025.15
393.13	999.41
393.33	1034.52
393.52	1125.80
393.71	1130.48
393.91	1196.01
394.10	1060.26
394.29	1139.84
394.49	1074.31
394.68	1261.55
394.88	1191.33
395.07	1221.76
395.26	1186.65
395.46	1210.06
395.65	1329.42
395.84	1170.27
396.04	1380.92
396.23	1284.95
396.42	1334.11
396.62	1277.93
396.81	1252.19
397.00	1366.87
397.19	1268.57
397.39	1287.29
397.58	1334.11
397.77	1425.39
397.97	1427.73
398.16	1320.06
398.35	1427.73
398.55	1345.81
398.74	1420.71
398.93	1441.77
399.12	1448.79
399.32	1446.45
399.51	1376.24
399.70	1439.43
399.90	1448.79
400.09	1441.77
400.28	1610.29
400.47	1565.82
400.67	1504.96
400.86	1619.65
401.05	1486.24
401.24	1591.56
401.44	1565.82
401.63	1540.07
401.82	1654.76
402.01	1584.54
402.21	1675.82
402.40	1650.08
402.59	1696.89
402.78	1776.47
402.97	1739.02
403.17	1621.99
403.36	1783.49
403.55	1846.68
403.74	1643.06
403.93	1790.51
404.13	1736.68
404.32	1806.89
404.51	1818.60
404.70	1844.34
404.89	1888.81
405.09	1795.19
405.28	1930.94
405.47	1916.90
405.66	1977.75
405.85	2045.63
406.05	1886.47
406.24	2104.14
406.43	2050.31
406.62	1982.43
406.81	2090.10
407.00	2059.67
407.20	2141.59
407.39	2097.12
407.58	2115.84
407.77	2223.51
407.96	2195.42
408.15	2216.49
408.34	2235.21
408.54	2167.34
408.73	2279.68
408.92	2223.51
409.11	2300.75
409.30	2338.20
409.49	2345.22
409.68	2284.36
409.87	2361.60
410.07	2434.16
410.26	2408.41
410.45	2387.35
410.64	2478.63
410.83	2593.31
411.02	2471.61
411.21	2534.80
411.40	2473.95
411.59	2574.59
411.78	2532.46
411.98	2541.82
412.17	2605.02
412.36	2644.81
412.55	2672.89
412.74	2789.92
412.93	2787.58
413.12	2764.17
413.31	2855.45
413.50	2810.98
413.69	3016.95
413.88	2972.48
414.07	2942.05
414.26	3049.72
414.45	2993.55
414.64	2956.10
414.83	3101.21
415.02	3169.09
415.22	3052.06
415.41	3241.64
415.60	3243.98
415.79	3232.28
415.98	3225.26
416.17	3225.26
416.36	3328.24
416.55	3353.99
416.74	3370.37
416.93	3344.63
417.12	3447.61
417.31	3515.48
417.50	3435.91
417.69	3529.53
417.88	3618.47
418.07	3583.36
418.26	3618.47
418.45	3618.47
418.64	3709.75
418.83	3777.62
419.02	3651.24
419.21	3606.77
419.39	3873.59
419.58	3716.77
419.77	3716.77
419.96	3712.09
420.15	3691.02
420.34	3705.07
420.53	3808.05
420.72	3901.67
420.91	4028.06
421.10	3929.76
421.29	3875.93
421.48	3936.78
421.67	4021.04
421.86	4042.11
422.05	3988.27
422.24	4014.02
422.43	4070.19
422.61	4046.79
422.80	4138.07
422.99	4210.62
423.18	4140.41
423.37	4224.67
423.56	4189.56
423.75	4011.68
423.94	4077.21
424.13	4011.68
424.32	3854.86
424.50	4173.18
424.69	4142.75
424.88	4381.48
425.07	4067.85
425.26	4189.56
425.45	4044.45
425.64	4187.22
425.83	4128.70
426.01	4194.24
426.20	4154.45
426.39	4180.20
426.58	4257.43
426.77	4294.88
426.96	4322.97
427.15	4170.83
427.33	4423.61
427.52	4208.28
427.71	4353.40
427.90	4332.33
428.09	4379.14
428.28	4440.00
428.46	4344.03
428.65	4613.20
428.84	4755.97
429.03	4657.67
429.22	4538.30
429.40	4692.77
429.59	4692.77
429.78	4533.62
429.97	4425.95
430.16	4652.98
430.34	4837.89
430.53	4636.60
430.72	4671.71
430.91	4760.65
431.10	4739.58
431.28	4858.95
431.47	4770.01
431.66	4861.29
431.85	4753.63
432.03	4959.60
432.22	5067.26
432.41	4926.83
432.60	4992.36
432.79	4940.87
432.97	5107.05
433.16	5085.98
433.35	5076.62
433.54	5186.63
433.72	5158.54
433.91	5149.18
434.10	5184.29
434.28	5179.61
434.47	5188.97
434.66	5455.79
434.85	5247.48
435.03	5296.63
435.22	5270.89
435.41	5678.14
435.59	5280.25
435.78	5392.59
435.97	5460.47
436.16	5320.04
436.34	5310.68
436.53	5497.92
436.72	5530.69
436.90	5327.06
437.09	5643.03
437.28	5399.62
437.46	5528.35
437.65	5760.06
437.84	5703.89
438.02	5593.88
438.21	5743.67
438.40	5767.08
438.58	5949.64
438.77	5893.47
438.96	5909.85
439.14	5921.56
439.33	6040.92
439.52	6054.97
439.70	6113.48
439.89	6312.42
440.08	6356.90
440.26	6319.45
440.45	6300.72
440.63	6321.79
440.82	6506.69
441.01	6363.92
441.19	6487.96
441.38	6597.97
441.57	6459.88
441.75	6431.79
441.94	6541.80
442.12	6710.32
442.31	6904.58
442.50	6754.79
442.68	6803.94
442.87	6806.28
443.05	6829.68
443.24	6944.37
443.43	6958.41
443.61	6988.84
443.80	7265.02
443.98	6836.70
444.17	6747.76
444.35	6972.46
444.54	7131.61
444.73	7035.65
444.91	6988.84
445.10	7054.37
445.28	7012.24
445.47	7201.83
445.65	6911.60
445.84	7119.91
446.02	7138.63
446.21	7047.35
446.39	6916.28
446.58	7169.06
446.77	7129.27
446.95	7098.84
447.14	7070.76
447.32	7171.40
447.51	7140.97
447.69	7133.95
447.88	7386.73
448.06	7286.09
448.25	7215.87
448.43	7101.19
448.62	7250.98
448.80	7260.34
448.99	7211.19
449.17	7258.00
449.36	7375.03
449.54	7449.93
449.73	7536.52
449.91	7674.62
450.10	7707.38
450.28	7609.08
450.46	7576.31
450.65	7667.60
450.83	7744.83
451.02	7618.44
451.20	7829.09
451.39	7756.54
451.57	7653.55
451.76	7735.47
451.94	7962.50
452.13	7922.71
452.31	7779.94
452.49	7880.58
452.68	7887.61
452.86	7939.10
453.05	8016.33
453.23	8072.51
453.42	7941.44
453.60	7819.73
453.78	8229.32
453.97	7899.31
454.15	8002.29
454.34	8067.83
454.52	8248.05
454.70	8163.79
454.89	8140.38
455.07	8173.15
455.26	8482.10
455.44	8292.52
455.62	8519.55
455.81	8552.32
455.99	8351.03
456.17	8421.25
456.36	8409.54
456.54	8491.46
456.73	8592.11
456.91	8795.73
457.09	8650.62
457.28	9050.85
457.46	8741.90
457.64	8692.75
457.83	9046.17
458.01	8613.17
458.19	8997.02
458.38	9046.17
458.56	9259.16
458.74	9069.58
458.93	8999.36
459.11	9055.53
459.29	8929.14
459.48	9320.01
459.66	8868.29
459.84	9158.52
460.03	9467.47
460.21	9294.27
460.39	9167.88
460.57	9160.86
460.76	9343.42
460.94	9329.38
461.12	9507.26
461.31	9408.95
461.49	9280.22
461.67	9399.59
461.85	9717.90
462.04	9415.98
462.22	10235.16
462.40	9717.90
462.59	9432.36
462.77	9696.84
462.95	9664.07
463.13	9818.55
463.32	9680.46
463.50	10047.92
463.68	9813.87
463.86	9968.34
464.05	9914.51
464.23	9757.69
464.41	9998.77
464.59	9886.42
464.78	10090.05
464.96	10066.64
465.14	10029.20
465.32	10071.33
465.50	10434.11
465.69	10232.82
465.87	10244.52
466.05	10417.72
466.23	10478.58
466.41	10319.42
466.60	10462.19
466.78	10281.97
466.96	10391.98
467.14	10349.85
467.32	10373.25
467.51	10672.84
467.69	10326.44
467.87	10326.44
468.05	10342.83
468.23	10483.26
468.41	10335.81
468.60	10710.29
468.78	10714.97
468.96	10635.39
469.14	10988.82
469.32	10857.75
469.50	10693.91
469.69	10993.50
469.87	11110.52
470.05	11047.33
470.23	11070.73
470.41	11019.24
470.59	11098.82
470.77	10920.94
470.95	11276.70
471.14	11140.95
471.32	11407.77
471.50	11688.64
471.68	11550.54
471.86	11503.73
472.04	11721.40
472.22	11693.32
472.40	11597.35
472.58	11639.48
472.77	11953.12
472.95	12023.33
473.13	12212.92
473.31	11892.26
473.49	12081.85
473.67	12147.38
473.85	12168.45
474.03	12334.62
474.21	12145.04
474.39	12388.46
474.57	12472.71
474.75	12662.30
474.93	12657.62
475.12	12823.80
475.30	12697.41
475.48	12744.22
475.66	12931.46
475.84	12716.13
476.02	13202.96
476.20	12905.71
476.38	13179.56
476.56	13481.49
476.74	13612.56
476.92	13352.76
477.10	13462.76
477.28	13638.30
477.46	13673.41
477.64	13806.82
477.82	13984.70
478.00	14073.64
478.18	14370.89
478.36	14611.96
478.54	14382.59
478.72	14607.28
478.90	14621.33
479.08	14775.80
479.26	14747.72
479.44	15159.65
479.62	15028.58
479.80	15143.27
479.98	15241.57
480.16	15351.57
480.34	15419.45
480.52	15723.72
480.70	16011.60
480.88	15662.86
481.06	15925.00
481.24	16306.51
481.41	16123.95
481.59	16229.27
481.77	16556.95
481.95	16435.24
482.13	16809.73
482.31	16610.78
482.49	17071.87
482.67	16783.98
482.85	17062.51
483.03	17371.46
483.21	17612.53
483.39	17734.24
483.57	17722.54
483.74	17699.13
483.92	17928.50
484.10	17940.21
484.28	18331.08
484.46	18838.97
484.64	19033.24
484.82	18466.83
485.00	18906.85
485.18	19164.31
485.35	19286.01
485.53	19346.87
485.71	19365.59
485.89	19796.25
486.07	19662.84
486.25	19948.39
486.43	20065.41
486.61	20219.89
486.78	20613.10
486.96	20262.02
487.14	20879.92
487.32	21050.78
487.50	20910.35
487.68	21130.36
487.85	21535.27
488.03	21743.58
488.21	22125.08
488.39	21703.79
488.57	22045.51
488.75	22319.35
488.92	22565.10
489.10	22522.98
489.28	22518.29
489.46	22881.08
489.64	23035.55
489.81	23484.94
489.99	23545.79
490.17	23454.51
490.35	23833.68
490.53	23943.68
490.70	24058.37
490.88	23922.62
491.06	24577.97
491.24	24547.54
491.41	24002.19
491.59	24652.86
491.77	24915.00
491.95	25214.59
492.13	25069.48
492.30	25266.08
492.48	25525.88
492.66	25434.60
492.84	25406.52
493.01	25982.29
493.19	26181.23
493.37	26298.26
493.54	26249.11
493.72	26436.35
493.90	26817.86
494.08	27065.96
494.25	27080.00
494.43	27454.48
494.61	27555.13
494.79	27477.89
494.96	27398.31
495.14	27201.71
495.32	27793.86
495.49	27819.61
495.67	28554.54
495.85	28797.95
496.02	28683.27
496.20	29050.73
496.38	28758.16
496.55	28596.67
496.73	29436.92
496.91	29448.62
497.09	29483.73
497.26	29942.47
497.44	29486.07
497.62	30043.12
497.79	30202.27
497.97	30012.69
498.14	30817.83
498.32	30780.39
498.50	31049.55
498.67	30827.20
498.85	31016.78
499.03	31082.31
499.20	30993.37
499.38	31117.42
499.56	31351.48
499.73	31861.71
499.91	31878.10
500.08	31941.29
500.26	31716.60
500.44	32268.97
500.61	32135.56
500.79	32313.44
500.97	32786.22
501.14	32947.72
501.32	32870.48
501.49	32802.61
501.67	32945.38
501.84	33097.52
502.02	32402.38
502.20	33146.67
502.37	33275.40
502.55	33502.43
502.72	33425.19
502.90	33462.64
503.07	33296.46
503.25	33942.45
503.43	33797.34
503.60	34059.48
503.78	33970.54
503.95	34387.15
504.13	34448.00
504.30	34448.00
504.48	34085.22
504.65	34834.19
504.83	34850.58
505.01	35501.25
505.18	35035.48
505.36	35613.59
505.53	34991.01
505.71	35086.97
505.88	35405.28
506.06	35323.36
506.23	35878.07
506.41	35943.61
506.58	36453.84
506.76	35934.24
506.93	35896.80
507.11	36306.39
507.28	36037.23
507.46	36254.90
507.63	36608.32
507.81	36280.64
507.98	36278.30
508.16	36762.79
508.33	36907.91
508.50	36992.17
508.68	37081.11
508.85	37783.27
509.03	36921.95
509.20	37834.76
509.38	37659.22
509.55	38206.90
509.73	37951.79
509.90	37799.65
510.08	37731.78
510.25	37947.11
510.42	38279.46
510.60	38295.85
510.77	38174.14
510.95	38527.56
511.12	38508.83
511.30	38836.51
511.47	38969.92
511.64	39358.45
511.82	39342.06
511.99	39533.99
512.17	39494.20
512.34	39098.65
512.51	39285.89
512.69	39489.52
512.86	39445.05
513.04	39985.71
513.21	40238.49
513.38	40374.24
513.56	40371.90
513.73	40322.75
513.90	40631.70
514.08	40165.93
514.25	40584.89
514.43	40252.53
514.60	40715.96
514.77	41184.07
514.95	41310.46
515.12	41125.55
515.29	40563.82
515.47	40987.46
515.64	41631.11
515.81	41832.39
515.99	41638.13
516.16	41656.85
516.33	41596.00
516.51	41930.70
516.68	40914.90
516.85	41467.27
517.03	42082.83
517.20	42878.61
517.37	42628.18
517.54	42836.48
517.72	42682.01
517.89	42054.75
518.06	42347.31
518.24	42445.62
518.41	42621.16
518.58	42583.71
518.75	42972.24
518.93	43283.53
519.10	42927.77
519.27	43185.22
519.45	43124.37
519.62	43152.46
519.79	43402.89
519.96	43239.06
520.14	43412.26
520.31	43756.32
520.48	44161.23
520.65	43812.49
520.83	43981.01
521.00	44107.40
521.17	43931.86
521.34	44264.21
521.52	44378.90
521.69	44002.07
521.86	44835.30
522.03	44498.26
522.20	44720.62
522.38	45041.27
522.55	44985.10
522.72	44945.31
522.89	45258.94
523.07	45425.12
523.24	45268.30
523.41	44900.84
523.58	45102.12
523.75	45523.42
523.92	45254.26
524.10	45408.73
524.27	45916.63
524.44	46216.22
524.61	46195.15
524.78	46113.23
524.96	45755.13
525.13	46057.06
525.30	46017.27
525.47	46167.07
525.64	46319.20
525.81	46415.16
525.98	46611.77
526.16	46986.25
526.33	46653.90
526.50	46403.46
526.67	46251.33
526.84	46780.29
527.01	46550.91
527.18	46813.05
527.36	47234.35
527.53	47405.21
527.70	47171.16
527.87	47215.63
528.04	47250.74
528.21	47021.36
528.38	47187.54
528.55	47309.25
528.72	47246.05
528.89	47267.12
529.07	47613.52
529.24	47297.55
529.41	47800.76
529.58	47700.12
529.75	47484.79
529.92	47903.74
530.09	48004.39
530.26	48177.59
530.43	47739.91
530.60	47962.26
530.77	47997.37
530.94	48203.33
531.11	47969.28
531.28	47835.87
531.46	47924.81
531.63	48095.67
531.80	48800.17
531.97	48549.73
532.14	48596.54
532.31	49001.46
532.48	48165.88
532.65	48715.91
532.82	48566.12
532.99	48673.78
533.16	48828.26
533.33	49045.93
533.50	49333.81
533.67	49090.40
533.84	49052.95
534.01	49277.64
534.18	48816.55
534.35	49336.15
534.52	49397.01
534.69	49710.64
534.86	49645.10
535.03	49577.23
535.20	49450.84
535.37	49825.32
535.54	49565.52
535.71	49443.82
535.88	49574.89
536.05	49900.22
536.22	49844.05
536.38	50169.38
536.55	49989.16
536.72	49916.61
536.89	49801.92
537.06	50019.59
537.23	50387.05
537.40	49745.75
537.57	50251.30
537.74	50131.93
537.91	50686.64
538.08	50471.31
538.25	50143.64
538.42	50616.43
538.59	50639.83
538.75	50525.14
538.92	50459.61
539.09	50883.25
539.26	50653.87
539.43	50536.85
539.60	50857.50
539.77	50791.97
539.94	51030.70
540.11	50742.81
540.28	50831.75
540.44	50880.91
540.61	51004.95
540.78	51302.20
540.95	50934.74
541.12	51283.48
541.29	50904.31
541.46	51239.01
541.62	50883.25
541.79	51213.26
541.96	51107.94
542.13	51454.34
542.30	51508.17
542.47	51716.48
542.63	51433.27
542.80	51660.30
542.97	51756.27
543.14	51810.10
543.31	51948.19
543.48	51966.91
543.64	52325.02
543.81	52023.09
543.98	52259.48
544.15	52346.08
544.32	52336.72
544.48	52313.31
544.65	52095.64
544.82	52121.39
544.99	52147.14
545.16	52308.63
545.32	52058.20
545.49	52538.01
545.66	52566.09
545.83	52617.58
546.00	52725.25
546.16	52563.75
546.33	52062.88
546.50	51924.78
546.67	52521.62
546.83	52142.45
547.00	52612.90
547.17	52519.28
547.34	52891.43
547.50	52547.37
547.67	52896.11
547.84	52729.93
548.00	52926.53
548.17	53228.46
548.34	52750.99
548.51	53212.08
548.67	53050.58
548.84	53228.46
549.01	53102.07
549.18	53081.01
549.34	53134.84
549.51	52823.55
549.68	53073.99
549.84	52914.83
550.01	53221.44
550.18	52980.37
550.34	53301.02
550.51	53380.60
550.68	53504.65
550.84	53118.46
551.01	53286.98
551.18	53006.11
551.34	53132.50
551.51	53656.78
551.68	53326.77
551.84	53642.74
552.01	53705.93
552.18	53907.22
552.34	53469.54
552.51	53820.62
552.68	53616.99
552.84	53682.53
553.01	53818.28
553.18	53750.40
553.34	53528.05
553.51	53701.25
553.67	53783.17
553.84	54223.19
554.01	54087.44
554.17	53673.16
554.34	53705.93
554.51	54057.01
554.67	54085.10
554.84	54382.35
555.00	54169.36
555.17	54138.93
555.33	53928.28
555.50	53888.49
555.67	54209.15
555.83	54066.38
556.00	54216.17
556.16	54415.11
556.33	54106.16
556.50	54326.17
556.66	54351.92
556.83	54291.07
556.99	54459.58
557.16	54375.33
557.32	54328.52
557.49	54494.69
557.65	54220.85
557.82	54295.75
557.98	54555.55
558.15	54391.71
558.32	54529.80
558.48	54490.01
558.65	54068.72
558.81	54845.77
558.98	54784.92
559.14	54611.72
559.31	54436.18
559.47	54480.65
559.64	54728.75
559.80	54499.37
559.97	54820.03
560.13	54358.94
560.30	54714.70
560.46	54768.54
560.63	54953.44
560.79	54883.22
560.96	54616.40
561.12	54644.49
561.29	54958.12
561.45	55004.93
561.61	54869.18
561.78	55030.68
561.94	54564.91
562.11	55072.81
562.27	55009.61
562.44	54621.08
562.60	54915.99
562.77	54981.52
562.93	54796.62
563.10	55182.81
563.26	54937.05
563.42	55285.79
563.59	54927.69
563.75	55049.40
563.92	55131.32
564.08	54866.84
564.24	55014.29
564.41	54857.48
564.57	54908.97
564.74	54871.52
564.90	55112.59
565.07	55136.00
565.23	55283.45
565.39	55229.62
565.56	55187.49
565.72	55079.83
565.88	55140.68
566.05	55185.15
566.21	54925.35
566.38	55049.40
566.54	55215.58
566.70	55271.75
566.87	55442.61
567.03	55150.04
567.19	55480.06
567.36	55311.54
567.52	55145.36
567.68	55508.14
567.85	55196.85
568.01	55292.82
568.17	55480.06
568.34	55653.26
568.50	55505.80
568.66	55316.22
568.83	55491.76
568.99	55536.23
569.15	55458.99
569.32	55276.43
569.48	55068.12
569.64	55533.89
569.81	55299.84
569.97	55339.63
570.13	55557.30
570.30	55283.45
570.46	55515.17
570.62	55505.80
570.78	55430.91
570.95	55379.42
571.11	55304.52
571.27	55327.92
571.43	55253.03
571.60	55742.20
571.76	55381.76
571.92	55552.62
572.09	55594.74
572.25	55494.10
572.41	55503.46
572.57	55538.57
572.74	55789.01
572.90	55571.34
573.06	55601.77
573.22	55613.47
573.38	55817.10
573.55	55576.02
573.71	55749.22
573.87	55793.69
574.03	55702.41
574.20	55737.52
574.36	55503.46
574.52	55501.12
574.68	55561.98
574.84	55777.31
575.01	55796.03
575.17	55735.18
575.33	55573.68
575.49	55505.80
575.65	56053.49
575.82	55744.54
575.98	55835.82
576.14	55664.96
576.30	55728.16
576.46	55767.94
576.62	55650.92
576.79	55601.77
576.95	55388.78
577.11	55838.16
577.27	55693.05
577.43	55842.84
577.59	55739.86
577.75	55718.79
577.92	55660.28
578.08	55662.62
578.24	55583.04
578.40	55704.75
578.56	55845.18
578.72	55590.06
578.88	55884.97
579.04	56095.62
579.21	55697.73
579.37	55772.63
579.53	56006.68
579.69	55702.41
579.85	55875.61
580.01	55772.63
580.17	55758.58
580.33	55861.57
580.49	55760.92
580.65	56172.86
580.82	55908.38
580.98	56100.30
581.14	55852.20
581.30	55714.11
581.46	55571.34
581.62	55758.58
581.78	55646.24
581.94	55863.91
582.10	56002.00
582.26	55973.91
582.42	55817.10
582.58	55957.53
582.74	56058.17
582.90	55962.21
583.06	55891.99
583.22	55765.60
583.38	55859.23
583.54	55948.17
583.70	56065.19
583.86	56006.68
584.02	55791.35
584.18	56055.83
584.34	56151.79
584.50	56093.28
584.66	56109.66
584.82	55622.83
584.98	55739.86
585.14	55884.97
585.30	55697.73
585.46	55695.39
585.62	55763.26
585.78	56048.81
585.94	56053.49
586.10	55927.10
586.26	55817.10
586.42	56081.58
586.58	55814.76
586.74	55667.30
586.90	55875.61
587.06	55924.76
587.22	55856.88
587.38	55765.60
587.54	56252.44
587.70	56233.71
587.86	56278.18
588.02	56165.84
588.18	56268.82
588.34	56222.01
588.49	56285.20
588.65	55966.89
588.81	55964.55
588.97	55884.97
589.13	56011.36
589.29	55971.57
589.45	56163.50
589.61	56165.84
589.77	56217.33
589.93	56250.09
590.08	56191.58
590.24	56144.77
590.40	56282.86
590.56	56463.08
590.72	56020.72
590.88	55835.82
591.04	56107.32
591.20	56418.61
591.35	56285.20
591.51	56678.41
591.67	56332.01
591.83	56502.87
591.99	56453.72
592.15	56261.80
592.31	56266.48
592.46	56439.68
592.62	56102.64
592.78	56357.76
592.94	56437.34
593.10	56303.93
593.26	56481.81
593.41	56355.42
593.57	56495.85
593.73	56350.74
593.89	56514.58
594.05	56179.88
594.20	56285.20
594.36	56371.80
594.52	56165.84
594.68	56006.68
594.84	56282.86
594.99	56207.97
595.15	56264.14
595.31	56706.50
595.47	56570.75
595.62	56540.32
595.78	56390.53
595.94	56322.65
596.10	56009.02
596.25	56273.50
596.41	56493.51
596.57	56285.20
596.73	56226.69
596.88	56364.78
597.04	56456.06
597.20	56601.18
597.36	56535.64
597.51	56631.60
597.67	56086.26
597.83	56165.84
597.99	56250.09
598.14	56205.62
598.30	56245.41
598.46	56540.32
598.61	56493.51
598.77	56516.92
598.93	56493.51
599.09	56608.20
599.24	56423.29
599.40	56470.11
599.56	56460.74
599.71	56203.28
599.87	56250.09
600.03	56147.11
600.18	56444.36
600.34	56584.79
600.50	56353.08
600.65	56561.39
600.81	56474.79
600.97	56633.94
601.12	56474.79
601.28	56619.90
601.44	56399.89
601.59	56404.57
601.75	56556.70
601.91	56678.41
602.06	56378.82
602.22	56360.10
602.37	56444.36
602.53	56339.04
602.69	56598.83
602.84	56266.48
603.00	56500.53
603.16	56537.98
603.31	56685.43
603.47	56334.35
603.62	56280.52
603.78	56568.41
603.94	56442.02
604.09	56535.64
604.25	56388.19
604.40	56399.89
604.56	56509.89
604.71	56739.27
604.87	56552.02
605.03	56566.07
605.18	56580.11
605.34	56336.69
605.49	56315.63
605.65	56247.75
605.80	56271.16
605.96	56210.31
606.12	56467.76
606.27	56360.10
606.43	56486.49
606.58	56495.85
606.74	56456.06
606.89	56640.96
607.05	56467.76
607.20	56493.51
607.36	56226.69
607.51	56470.11
607.67	56032.42
607.82	55934.12
607.98	56133.07
608.13	56233.71
608.29	56231.37
608.44	56184.56
608.60	56240.73
608.75	56416.27
608.91	56317.97
609.06	56170.52
609.22	56189.24
609.37	55884.97
609.53	56219.67
609.68	56308.61
609.84	56186.90
609.99	55910.72
610.15	56116.68
610.30	56207.97
610.46	56306.27
610.61	56158.81
610.76	56224.35
610.92	56285.20
611.07	56109.66
611.23	55793.69
611.38	55962.21
611.54	55950.51
611.69	56212.65
611.84	56051.15
612.00	56147.11
612.15	55987.95
612.31	56254.78
612.46	56119.02
612.62	56353.08
612.77	55957.53
612.92	56285.20
613.08	55950.51
613.23	56041.79
613.39	55796.03
613.54	55826.46
613.69	55964.55
613.85	56006.68
614.00	55735.18
614.15	55964.55
614.31	55969.23
614.46	56140.09
614.62	55899.01
614.77	55826.46
614.92	56069.87
615.08	55870.93
615.23	56086.26
615.38	55751.56
615.54	55765.60
615.69	55503.46
615.84	55866.25
616.00	55927.10
616.15	55571.34
616.30	55903.70
616.46	55948.17
616.61	56100.30
616.76	56069.87
616.92	55662.62
617.07	55847.52
617.22	55519.85
617.37	55564.32
617.53	55737.52
617.68	55662.62
617.83	55634.53
617.99	55470.70
618.14	55831.14
618.29	55751.56
618.45	55805.39
618.60	55711.77
618.75	55557.30
618.90	55585.38
619.06	55482.40
619.21	55379.42
619.36	55409.84
619.51	55496.44
619.67	55215.58
619.82	55407.50
619.97	55667.30
620.12	55339.63
620.28	55468.36
620.43	55299.84
620.58	55304.52
620.73	55852.20
620.89	55643.90
621.04	55557.30
621.19	55229.62
621.34	55274.09
621.49	54953.44
621.65	54967.48
621.80	55196.85
621.95	55042.38
622.10	55033.02
622.25	55241.32
622.41	55089.19
622.56	55269.41
622.71	55281.11
622.86	54918.33
623.01	55093.87
623.16	55028.34
623.32	54962.80
623.47	54766.20
623.62	54763.85
623.77	54883.22
623.92	54834.07
624.07	54948.76
624.23	55189.83
624.38	55210.90
624.53	55161.75
624.68	55426.23
624.83	55278.77
624.98	55042.38
625.13	54915.99
625.29	55140.68
625.44	55044.72
625.59	54681.94
625.74	54574.27
625.89	54691.30
626.04	54770.88
626.19	54908.97
626.34	54644.49
626.49	54611.72
626.65	54852.80
626.80	54885.56
626.95	54660.87
627.10	54417.46
627.25	54475.97
627.40	54578.95
627.55	54543.84
627.70	54089.78
627.85	54253.62
628.00	54597.68
628.15	54227.87
628.30	54452.56
628.45	54099.14
628.60	54464.27
628.76	54253.62
628.91	54508.74
629.06	54520.44
629.21	54372.99
629.36	54363.62
629.51	54436.18
629.66	54316.81
629.81	54298.09
629.96	54019.56
630.11	54478.31
630.26	53963.39
630.41	54136.59
630.56	54038.29
630.71	54223.19
630.86	54234.89
631.01	53844.02
631.16	54225.53
631.31	54024.25
631.46	53638.06
631.61	54052.33
631.76	54054.67
631.91	53818.28
632.06	54028.93
632.21	53689.55
632.36	53949.35
632.51	53755.08
632.66	53893.18
632.81	53909.56
632.96	53984.46
633.10	54040.63
633.25	53907.22
633.40	53989.14
633.55	53867.43
633.70	53806.58
633.85	53787.85
634.00	53577.20
634.15	53471.88
634.30	53867.43
634.45	53448.47
634.60	53932.96
634.75	54005.52
634.90	53511.67
635.05	53680.19
635.19	53670.82
635.34	53701.25
635.49	53790.19
635.64	53525.71
635.79	53411.02
635.94	53577.20
636.09	53558.48
636.24	53186.33
636.39	52884.40
636.53	53593.59
636.68	53235.48
636.83	53546.78
636.98	53579.54
637.13	53263.57
637.28	53436.77
637.43	53352.51
637.57	53354.85
637.72	53462.52
637.87	53312.72
638.02	53488.26
638.17	53464.86
638.32	53345.49
638.46	53209.74
638.61	52725.25
638.76	53076.33
638.91	53102.07
639.06	53113.78
639.20	53205.06
639.35	52989.73
639.50	53331.45
639.65	53207.40
639.80	53333.79
639.94	52809.51
640.09	53144.20
640.24	52879.72
640.39	52832.91
640.54	52650.35
640.68	52629.29
640.83	52545.03
640.98	52135.43
641.13	52322.68
641.27	52985.05
641.42	52804.83
641.57	52502.90
641.72	52732.27
641.86	52921.85
642.01	52477.15
642.16	52575.45
642.31	52500.56
642.45	52542.69
642.60	52334.38
642.75	52484.17
642.90	52748.65
643.04	52673.76
643.19	52282.89
643.34	52519.28
643.48	52509.92
643.63	52554.39
643.78	52364.81
643.93	52727.59
644.07	52809.51
644.22	52395.23
644.37	52243.10
644.51	52353.10
644.66	52355.44
644.81	52100.32
644.95	52591.84
645.10	52083.94
645.25	52432.68
645.39	52388.21
645.54	52184.58
645.69	51995.00
645.83	52285.23
645.98	52175.22
646.13	52243.10
646.27	52474.81
646.42	51973.94
646.57	52378.85
646.71	51779.67
646.86	52079.26
647.00	51852.23
647.15	51913.08
647.30	51807.76
647.44	52158.84
647.59	52048.83
647.74	51786.69
647.88	51922.44
648.03	52303.95
648.17	52020.75
648.32	51810.10
648.47	51800.74
648.61	51990.32
648.76	51784.35
648.90	51629.88
649.05	51653.28
649.20	51735.20
649.34	51798.40
649.49	51349.01
649.63	51508.17
649.78	51732.86
649.92	51627.54
650.07	51592.43
650.21	51517.53
650.36	51611.15
650.51	51447.32
650.65	51791.37
650.80	51702.43
650.94	51758.61
651.09	51386.46
651.23	51353.69
651.38	51494.13
651.52	51131.34
651.67	51243.69
651.81	51105.60
651.96	51100.92
652.10	51154.75
652.25	51075.17
652.39	51344.33
652.54	51311.56
652.68	51311.56
652.83	51044.74
652.97	51222.62
653.12	50972.19
653.26	51334.97
653.41	50801.33
653.55	50684.30
653.70	50920.70
653.84	50822.39
653.99	50850.48
654.13	50887.93
654.27	50740.47
654.42	50632.81
654.56	50951.12
654.71	50965.17
654.85	51161.77
655.00	51096.24
655.14	50983.89
655.29	50188.11
655.43	50721.75
655.57	50674.94
655.72	50604.72
655.86	50740.47
656.01	50660.90
656.15	50160.02
656.30	50387.05
656.44	50377.69
656.58	50326.20
656.73	50625.79
656.87	50506.42
657.01	50672.60
657.16	50663.24
657.30	50492.38
657.45	50731.11
657.59	50539.19
657.73	50382.37
657.88	50281.73
658.02	50351.94
658.16	50155.34
658.31	50232.58
658.45	50127.25
658.60	49904.90
658.74	50075.76
658.88	50384.71
659.03	50017.25
659.17	49834.69
659.31	49830.01
659.46	49935.33
659.60	50356.63
659.74	49827.66
659.89	49668.51
660.03	49521.05
660.17	49600.63
660.32	49916.61
660.46	49413.39
660.60	49282.32
660.74	49677.87
660.89	49359.56
661.03	49375.94
661.17	49368.92
661.32	49364.24
661.46	49586.59
661.60	49378.28
661.74	49769.15
661.89	49382.96
662.03	49305.73
662.17	48947.62
662.31	48844.64
662.46	49017.84
662.60	48896.13
662.74	48711.23
662.88	48601.22
663.03	48680.80
663.17	48215.04
663.31	48203.33
663.45	48856.34
663.60	48554.41
663.74	48133.12
663.88	48781.45
664.02	48526.33
664.17	48835.28
664.31	48594.20
664.45	48406.96
664.59	48163.54
664.73	48215.04
664.88	47948.21
665.02	47456.70
665.16	47639.26
665.30	47704.80
665.44	47660.33
665.59	47690.76
665.73	47990.34
665.87	47819.49
666.01	47430.96
666.15	47583.09
666.29	47622.88
666.44	47690.76
666.58	47569.05
666.72	47566.71
666.86	47660.33
667.00	47882.68
667.14	47248.39
667.28	47239.03
667.43	46883.27
667.57	47421.59
667.71	47019.02
667.85	47138.39
667.99	47274.14
668.13	46808.37
668.27	46927.74
668.41	47119.66
668.56	47065.83
668.70	46689.01
668.84	46665.60
668.98	46429.21
669.12	46583.68
669.26	46426.87
669.40	46436.23
669.54	46478.36
669.68	46567.30
669.82	46185.79
669.96	46087.49
670.10	46192.81
670.25	45921.31
670.39	45841.73
670.53	45572.57
670.67	45895.56
670.81	46057.06
670.95	45357.24
671.09	45949.40
671.23	45553.85
671.37	46024.29
671.51	45771.52
671.65	45530.44
671.79	45942.38
671.93	45553.85
672.07	45123.19
672.21	44898.50
672.35	44865.73
672.49	44666.78
672.63	44713.59
672.77	44839.98
672.91	44313.36
673.05	44608.27
673.19	44753.38
673.33	45003.82
673.47	44531.03
673.61	44320.38
673.75	44664.44
673.89	44512.31
674.03	44142.50
674.17	44058.24
674.31	44208.04
674.45	43828.87
674.59	43491.83
674.73	43456.73
674.87	43274.16
675.01	43014.37
675.15	43353.74
675.29	42890.32
675.43	42588.39
675.56	43264.80
675.70	43405.23
675.84	43423.96
675.98	42602.43
676.12	42763.93
676.26	42740.52
676.40	42457.32
676.54	42295.82
676.68	42012.62
676.82	41773.88
676.96	42054.75
677.10	41834.74
677.23	41759.84
677.37	41504.72
677.51	41177.04
677.65	41170.02
677.79	40896.18
677.93	41148.96
678.07	41137.26
678.21	40882.14
678.34	41095.13
678.48	41097.47
678.62	40882.14
678.76	40840.01
678.90	40725.32
679.04	40184.66
679.18	40868.09
679.31	39826.56
679.45	40051.25
679.59	39768.04
679.73	39533.99
679.87	39281.21
680.00	39021.41
680.14	39283.55
680.28	39309.30
680.42	39452.07
680.56	39398.24
680.70	39423.98
680.83	39185.25
680.97	39138.44
681.11	38754.59
681.25	38829.49
681.39	38557.99
681.52	38071.15
681.66	37818.38
681.80	37486.02
681.94	37439.21
682.07	37773.91
682.21	37581.98
682.35	37675.60
682.49	37731.78
682.62	37893.27
682.76	37607.73
682.90	37895.61
683.04	37317.50
683.17	37158.34
683.31	36884.50
683.45	37242.60
683.59	36893.86
683.72	36814.29
683.86	36449.16
684.00	36503.00
684.13	36151.91
684.27	36032.55
684.41	36044.25
684.55	35789.13
684.68	35601.89
684.82	35222.72
684.96	35250.81
685.09	35325.71
685.23	34881.00
685.37	34962.92
685.50	35559.76
685.64	34876.32
685.78	35047.18
685.91	35021.44
686.05	34974.63
686.19	34656.31
686.32	34579.07
686.46	34150.76
686.60	34363.75
686.73	33972.88
686.87	33851.17
687.01	34609.50
687.14	34073.52
687.28	33743.50
687.42	33509.45
687.55	33579.67
687.69	33172.41
687.82	33156.03
687.96	33289.44
688.10	33149.01
688.23	33518.81
688.37	33134.96
688.50	32762.82
688.64	33102.20
688.78	32229.18
688.91	32149.60
689.05	32116.83
689.18	31641.70
689.32	31089.34
689.46	31590.21
689.59	31728.30
689.73	31639.36
689.86	31461.48
690.00	31360.84
690.13	31627.66
690.27	31386.58
690.41	31557.44
690.54	30969.97
690.68	31140.83
690.81	31026.14
690.95	31159.55
691.08	31070.61
691.22	30752.30
691.35	30618.89
691.49	30352.07
691.62	30312.28
691.76	30242.06
691.89	29696.72
692.03	29738.85
692.16	29399.47
692.30	29376.06
692.43	29621.82
692.57	29338.62
692.70	29490.75
692.84	29092.86
692.97	29127.97
693.11	29172.44
693.24	29385.43
693.38	28905.62
693.51	28933.70
693.65	29069.45
693.78	28645.82
693.92	28657.52
694.05	28444.53
694.19	28292.40
694.32	27725.99
694.45	28044.30
694.59	27639.39
694.72	27634.71
694.86	27674.49
694.99	27859.40
695.13	27440.44
695.26	27096.38
695.39	27239.15
695.53	27388.95
695.66	27138.51
695.80	26918.50
695.93	26838.92
696.07	26749.98
696.20	26752.32
696.33	26513.59
696.47	26586.15
696.60	26307.62
696.73	26389.54
696.87	26518.27
697.00	26141.44
697.14	26122.72
697.27	25284.81
697.40	25523.54
697.54	25287.15
697.67	25238.00
697.80	25214.59
697.94	25043.73
698.07	25273.10
698.21	25186.50
698.34	24898.62
698.47	25221.61
698.61	25006.28
698.74	24875.21
698.87	24465.62
699.01	24276.04
699.14	24390.72
699.27	23651.11
699.40	24144.97
699.54	23866.44
699.67	23623.03
699.80	23737.71
699.94	23826.65
700.07	23529.41
700.20	23281.31
700.34	23204.07
700.47	23337.48
700.60	22981.72
700.73	23449.83
700.87	23007.47
701.00	22728.94
701.13	22939.59
701.26	22937.25
701.40	22656.39
701.53	22600.21
701.66	22487.87
701.79	22319.35
701.93	22321.69
702.06	22277.22
702.19	21862.94
702.32	22038.48
702.46	21699.11
702.59	21764.64
702.72	21642.93
702.85	21195.89
702.99	21561.02
703.12	21495.48
703.25	21289.51
703.38	21563.36
703.51	21179.51
703.65	21476.76
703.78	21039.08
703.91	20917.37
704.04	20926.73
704.17	21034.39
704.31	20491.39
704.44	20507.77
704.57	20446.92
704.70	20643.52
704.83	20226.91
704.96	20133.29
705.10	20063.07
705.23	20009.24
>>>>>End Processed Spectral Data<<<<<
