SpectraSuite Data File
++++++++++++++++++++++++++++++++++++
Date: Fri Oct 04 11:48:34 GMT-05:00 2013
User: price-jones
Dark Spectrum Present: No
Reference Spectrum Present: No
Number of Sampled Component Spectra: 1
Spectrometers: USB2+H05261
Integration Time (usec): 100000 (USB2+H05261)
Spectra Averaged: 1 (USB2+H05261)
Boxcar Smoothing: 0 (USB2+H05261)
Correct for Electrical Dark: No (USB2+H05261)
Strobe/Lamp Enabled: No (USB2+H05261)
Correct for Detector Non-linearity: No (USB2+H05261)
Correct for Stray Light: No (USB2+H05261)
Number of Pixels in Processed Spectrum: 2048
>>>>>Begin Processed Spectral Data<<<<<
365.73	56.17
365.92	56.17
366.12	56.17
366.32	0.00
366.52	0.00
366.72	0.00
366.91	0.00
367.11	0.00
367.31	0.00
367.51	0.00
367.70	0.00
367.90	0.00
368.10	0.00
368.30	0.00
368.49	0.00
368.69	0.00
368.89	0.00
369.09	0.00
369.28	0.00
369.48	0.00
369.68	0.00
369.87	0.00
370.07	23.41
370.27	23.41
370.47	88.94
370.66	304.27
370.86	273.84
371.06	390.87
371.25	304.27
371.45	360.44
371.65	433.00
371.84	339.38
372.04	334.70
372.24	365.12
372.44	388.53
372.63	400.23
372.83	449.38
373.03	393.21
373.22	339.38
373.42	470.45
373.62	489.17
373.81	465.77
374.01	472.79
374.21	477.47
374.40	491.51
374.60	512.58
374.79	512.58
374.99	496.19
375.19	519.60
375.38	496.19
375.58	561.73
375.78	564.07
375.97	489.17
376.17	482.15
376.37	416.62
376.56	458.74
376.76	503.22
376.95	461.09
377.15	489.17
377.35	491.51
377.54	493.85
377.74	491.51
377.93	491.51
378.13	545.34
378.33	592.16
378.52	613.22
378.72	662.37
378.91	608.54
379.11	510.24
379.31	557.05
379.50	500.87
379.70	594.50
379.89	608.54
380.09	575.77
380.28	477.47
380.48	554.71
380.68	573.43
380.87	592.16
381.07	638.97
381.26	599.18
381.46	589.82
381.65	585.13
381.85	592.16
382.04	662.37
382.24	636.63
382.43	578.11
382.63	601.52
382.83	606.20
383.02	711.52
383.22	655.35
383.41	615.56
383.61	627.26
383.80	629.60
384.00	636.63
384.19	681.10
384.39	697.48
384.58	732.59
384.78	753.65
384.97	704.50
385.17	629.60
385.36	688.12
385.56	823.87
385.75	711.52
385.95	596.84
386.14	753.65
386.34	676.41
386.53	603.86
386.72	671.73
386.92	720.88
387.11	741.95
387.31	763.01
387.50	723.23
387.70	791.10
387.89	730.25
388.09	767.70
388.28	812.17
388.48	826.21
388.67	744.29
388.86	844.93
389.06	774.72
389.25	807.48
389.45	858.98
389.64	887.06
389.84	901.11
390.03	844.93
390.22	961.96
390.42	842.59
390.61	786.42
390.81	812.17
391.00	814.51
391.19	830.89
391.39	908.13
391.58	870.68
391.78	891.74
391.97	908.13
392.16	957.28
392.36	945.58
392.55	875.36
392.75	919.83
392.94	1039.20
393.13	947.92
393.33	1011.11
393.52	884.72
393.71	992.39
393.91	1160.91
394.10	971.32
394.29	1001.75
394.49	1022.81
394.68	1116.44
394.88	957.28
395.07	1088.35
395.26	1170.27
395.46	1078.99
395.65	1102.39
395.84	1060.26
396.04	1203.04
396.23	1149.20
396.42	1137.50
396.62	1144.52
396.81	1078.99
397.00	1123.46
397.19	1132.82
397.39	1130.48
397.58	1121.12
397.77	1125.80
397.97	1153.88
398.16	1254.53
398.35	1416.02
398.55	1249.85
398.74	1273.25
398.93	1270.91
399.12	1282.61
399.32	1207.72
399.51	1249.85
399.70	1282.61
399.90	1291.98
400.09	1366.87
400.28	1334.11
400.47	1355.17
400.67	1352.83
400.86	1462.83
401.05	1338.79
401.24	1296.66
401.44	1425.39
401.63	1451.13
401.82	1432.41
402.01	1362.19
402.21	1519.01
402.40	1472.20
402.59	1570.50
402.78	1563.48
402.97	1394.96
403.17	1593.90
403.36	1577.52
403.55	1607.95
403.74	1563.48
403.93	1631.35
404.13	1640.72
404.32	1629.01
404.51	1636.03
404.70	1729.66
404.89	1682.85
405.09	1860.73
405.28	1673.48
405.47	1685.19
405.66	1760.08
405.85	1818.60
406.05	1811.57
406.24	1739.02
406.43	1849.02
406.62	1825.62
406.81	1935.62
407.00	1778.81
407.20	1809.23
407.39	1888.81
407.58	1839.66
407.77	1914.56
407.96	1989.46
408.15	2059.67
408.34	1937.96
408.54	1996.48
408.73	1994.14
408.92	2031.58
409.11	2062.01
409.30	1987.11
409.49	2106.48
409.68	2150.95
409.87	2120.53
410.07	2120.53
410.26	2132.23
410.45	2183.72
410.64	2242.23
410.83	2244.57
411.02	2342.88
411.21	2331.17
411.40	2298.41
411.59	2310.11
411.78	2429.48
411.98	2359.26
412.17	2497.35
412.36	2443.52
412.55	2518.42
412.74	2424.80
412.93	2506.71
413.12	2455.22
413.31	2661.19
413.50	2586.29
413.69	2696.30
413.88	2672.89
414.07	2698.64
414.26	2759.49
414.45	2686.94
414.64	2710.34
414.83	2710.34
415.02	2822.69
415.22	2874.18
415.41	2867.16
415.60	2836.73
415.79	2963.12
415.98	2988.86
416.17	3112.91
416.36	3005.25
416.55	3026.31
416.74	3129.30
416.93	3000.57
417.12	3014.61
417.31	3246.32
417.50	3105.89
417.69	3246.32
417.88	3225.26
418.07	3236.96
418.26	3302.50
418.45	3356.33
418.64	3391.44
418.83	3370.37
419.02	3344.63
419.21	3440.59
419.39	3391.44
419.58	3426.54
419.77	3426.54
419.96	3545.91
420.15	3576.34
420.34	3463.99
420.53	3506.12
420.72	3574.00
420.91	3644.21
421.10	3599.74
421.29	3726.13
421.48	3494.42
421.67	3684.00
421.86	3620.81
422.05	3492.08
422.24	3496.76
422.43	3723.79
422.61	3871.25
422.80	3737.84
422.99	3796.35
423.18	3662.94
423.37	3714.43
423.56	3873.59
423.75	3768.26
423.94	3646.55
424.13	3534.21
424.32	3552.93
424.50	3770.60
424.69	3882.95
424.88	3782.31
425.07	3833.80
425.26	3889.97
425.45	3726.13
425.64	3772.94
425.83	3892.31
426.01	3955.51
426.20	3810.39
426.39	3920.40
426.58	3948.48
426.77	3840.82
426.96	3852.52
427.15	3805.71
427.33	3967.21
427.52	3824.44
427.71	4011.68
427.90	3960.19
428.09	4002.32
428.28	4035.08
428.46	3936.78
428.65	4133.39
428.84	4028.06
429.03	4063.17
429.22	4308.93
429.40	4140.41
429.59	4311.27
429.78	3946.14
429.97	4032.74
430.16	4227.01
430.34	4126.36
430.53	4402.55
430.72	4409.57
430.91	4189.56
431.10	4166.15
431.28	4430.63
431.47	4337.01
431.66	4444.68
431.85	4306.59
432.03	4542.98
432.22	4540.64
432.41	4500.85
432.60	4470.42
432.79	4592.13
432.97	4507.87
433.16	4727.88
433.35	4531.28
433.54	4531.28
433.72	4727.88
433.91	4744.27
434.10	4784.06
434.28	4634.26
434.47	4725.54
434.66	4854.27
434.85	4671.71
435.03	4870.65
435.22	4772.35
435.41	5013.43
435.59	4994.70
435.78	4840.23
435.97	4908.10
436.16	5050.88
436.34	5001.72
436.53	4952.57
436.72	5046.20
436.90	5076.62
437.09	5018.11
437.28	5062.58
437.46	4898.74
437.65	5132.79
437.84	5193.65
438.02	5291.95
438.21	5179.61
438.40	5090.67
438.58	5406.64
438.77	5373.87
438.96	5259.18
439.14	5497.92
439.33	5418.34
439.52	5521.32
439.70	5710.91
439.89	5806.87
440.08	5547.07
440.26	5661.76
440.45	5720.27
440.63	5584.52
440.82	5776.44
441.01	5877.09
441.19	5769.42
441.38	5996.45
441.57	6008.16
441.75	5984.75
441.94	5973.05
442.12	6108.80
442.31	6148.59
442.50	6202.42
442.68	6218.80
442.87	6047.94
443.05	6160.29
443.24	6422.43
443.43	6392.00
443.61	6193.06
443.80	6366.26
443.98	6377.96
444.17	5977.73
444.35	6282.00
444.54	6476.26
444.73	6345.19
444.91	6466.90
445.10	6487.96
445.28	6417.75
445.47	6256.25
445.65	6307.74
445.84	6424.77
446.02	6375.62
446.21	6408.39
446.39	6291.36
446.58	6532.44
446.77	6544.14
446.95	6410.73
447.14	6497.33
447.32	6502.01
447.51	6553.50
447.69	6464.56
447.88	6604.99
448.06	6649.46
448.25	6403.71
448.43	6642.44
448.62	6494.99
448.80	6572.22
448.99	6663.51
449.17	6670.53
449.36	6724.36
449.54	6663.51
449.73	6829.68
449.91	6993.52
450.10	6857.77
450.28	7002.88
450.46	6927.99
450.65	7061.40
450.83	6904.58
451.02	6888.20
451.20	6927.99
451.39	7101.19
451.57	7126.93
451.76	6988.84
451.94	7026.29
452.13	7105.87
452.31	7218.21
452.49	7059.06
452.68	7171.40
452.86	7133.95
453.05	7253.32
453.23	7293.11
453.42	7225.23
453.60	7166.72
453.78	7358.64
453.97	7302.47
454.15	7438.22
454.34	7260.34
454.52	7545.89
454.70	7379.71
454.89	7445.24
455.07	7363.33
455.26	7400.77
455.44	7840.79
455.62	7466.31
455.81	7517.80
455.99	7719.09
456.17	7747.17
456.36	7618.44
456.54	7969.52
456.73	7941.44
456.91	7878.24
457.09	8128.68
457.28	8219.96
457.46	8049.10
457.64	8166.13
457.83	8194.22
458.01	7868.88
458.19	8196.56
458.38	8018.68
458.56	8201.24
458.74	8287.84
458.93	8184.85
459.11	8196.56
459.29	8107.62
459.48	8313.58
459.66	8346.35
459.84	8608.49
460.03	8692.75
460.21	8390.82
460.39	8601.47
460.57	8234.00
460.76	8269.11
460.94	8571.04
461.12	8486.78
461.31	8557.00
461.49	8732.54
461.67	8613.17
461.85	8741.90
462.04	8910.42
462.22	9280.22
462.40	8877.65
462.59	8645.94
462.77	8894.04
462.95	8922.12
463.13	8854.25
463.32	9032.13
463.50	8940.85
463.68	8987.66
463.86	8950.21
464.05	8915.10
464.23	9027.45
464.41	9228.73
464.59	8943.19
464.78	9153.84
464.96	9160.86
465.14	9165.54
465.32	9224.05
465.50	9352.78
465.69	9472.15
465.87	9266.18
466.05	9263.84
466.23	9207.67
466.41	9369.16
466.60	9547.05
466.78	9451.08
466.96	9462.79
467.14	9324.69
467.32	9430.02
467.51	9465.13
467.69	9394.91
467.87	9696.84
468.05	9706.20
468.23	9334.06
468.41	9476.83
468.60	9525.98
468.78	9680.46
468.96	9596.20
469.14	9671.09
469.32	9973.02
469.50	9549.39
469.69	9984.73
469.87	10139.20
470.05	9848.97
470.23	9907.49
470.41	9956.64
470.59	10281.97
470.77	10064.30
470.95	10188.35
471.14	10246.87
471.32	10132.18
471.50	10565.18
471.68	10597.95
471.86	10310.06
472.04	10635.39
472.22	10736.04
472.40	10581.56
472.58	10471.56
472.77	10785.19
472.95	10824.98
473.13	10972.43
473.31	10827.32
473.49	10640.08
473.67	11002.86
473.85	11082.44
474.03	11108.18
474.21	11077.76
474.39	11513.10
474.57	11243.93
474.75	11513.10
474.93	11613.74
475.12	11456.92
475.30	11707.36
475.48	11548.20
475.66	11765.87
475.84	11660.55
476.02	11918.01
476.20	11868.86
476.38	11878.22
476.56	12112.27
476.74	12170.79
476.92	11927.37
477.10	11995.25
477.28	12318.24
477.46	12049.08
477.64	12400.16
477.82	12425.90
478.00	12872.95
478.18	12908.05
478.36	12795.71
478.54	13125.72
478.72	13240.41
478.90	13160.83
479.08	13277.86
479.26	13348.08
479.44	13511.91
479.62	13444.04
479.80	13788.10
479.98	13757.67
480.16	14153.22
480.34	13947.25
480.52	14132.15
480.70	14202.37
480.88	14134.50
481.06	14490.26
481.24	14211.73
481.41	14597.92
481.59	14747.72
481.77	14897.51
481.95	14855.38
482.13	15279.02
482.31	14977.09
482.49	15550.52
482.67	15190.08
482.85	15627.76
483.03	15819.68
483.21	15721.38
483.39	16189.49
483.57	15686.27
483.74	16280.77
483.92	16016.29
484.10	16161.40
484.28	16589.72
484.46	16732.49
484.64	17090.59
484.82	16486.73
485.00	17128.04
485.18	17118.68
485.35	17343.37
485.53	17399.54
485.71	17378.48
485.89	17944.89
486.07	17776.37
486.25	18031.49
486.43	17848.93
486.61	18284.26
486.78	18272.56
486.96	18537.04
487.14	19105.79
487.32	18792.16
487.50	19117.50
487.68	19054.30
487.85	19131.54
488.03	19658.16
488.21	19719.01
488.39	19644.12
488.57	19658.16
488.75	19976.47
488.92	20575.65
489.10	20423.51
489.28	20975.88
489.46	20636.50
489.64	20896.30
489.81	21174.83
489.99	20922.05
490.17	21008.65
490.35	21369.09
490.53	21352.71
490.70	21785.71
490.88	21535.27
491.06	22148.49
491.24	22160.19
491.41	22291.26
491.59	22405.95
491.77	22628.30
491.95	22539.36
492.13	22654.05
492.30	22916.19
492.48	23087.04
492.66	23070.66
492.84	23152.58
493.01	23571.54
493.19	23414.72
493.37	23796.23
493.54	23669.84
493.72	24067.73
493.90	23896.87
494.08	24144.97
494.25	24643.50
494.43	24484.34
494.61	24535.84
494.79	24872.87
494.96	25104.59
495.14	24608.39
495.32	25305.87
495.49	25209.91
495.67	25633.55
495.85	25867.60
496.02	26139.10
496.20	25949.52
496.38	25846.54
496.55	26101.65
496.73	26827.22
496.91	26614.23
497.09	26670.40
497.26	26677.43
497.44	27147.87
497.62	26534.65
497.79	27590.24
497.97	27115.11
498.14	27470.87
498.32	27871.10
498.50	27807.90
498.67	27946.00
498.85	27845.35
499.03	27943.66
499.20	28158.99
499.38	28039.62
499.56	28374.31
499.73	28582.62
499.91	28371.97
500.08	29099.88
500.26	28858.81
500.44	28694.97
500.61	29233.29
500.79	28748.80
500.97	29111.58
501.14	29661.61
501.32	29546.92
501.49	29493.09
501.67	29500.11
501.84	29577.35
502.02	29862.90
502.20	29832.47
502.37	30228.02
502.55	30103.97
502.72	30293.55
502.90	30354.41
503.07	30171.85
503.25	30202.27
503.43	30426.96
503.60	30829.54
503.78	30906.77
503.95	30874.01
504.13	30967.63
504.30	31007.42
504.48	31159.55
504.65	31079.97
504.83	31606.59
505.01	31398.29
505.18	31960.02
505.36	32020.87
505.53	31559.78
505.71	31945.97
505.88	31957.67
506.06	31943.63
506.23	32055.98
506.41	32247.90
506.58	32657.49
506.76	32322.80
506.93	32655.15
507.11	32201.09
507.28	32655.15
507.46	32865.80
507.63	33127.94
507.81	33464.98
507.98	33144.33
508.16	33083.47
508.33	33188.80
508.50	33060.07
508.68	33202.84
508.85	33893.30
509.03	33806.70
509.20	33998.62
509.38	34195.23
509.55	34361.40
509.73	34251.40
509.90	34569.71
510.08	34256.08
510.25	34309.91
510.42	34466.73
510.60	34958.24
510.77	34525.24
510.95	34967.60
511.12	34747.59
511.30	35098.67
511.47	35534.01
511.64	35548.06
511.82	35456.78
511.99	35658.06
512.17	35749.34
512.34	35400.60
512.51	35688.49
512.69	35796.15
512.86	35936.59
513.04	36474.91
513.21	36620.02
513.38	36273.62
513.56	36776.84
513.73	36098.08
513.90	36210.43
514.08	36715.98
514.25	36765.14
514.43	36900.89
514.60	37020.25
514.77	36898.55
514.95	37275.37
515.12	36769.82
515.29	37244.94
515.47	37624.11
515.64	37270.69
515.81	37284.73
515.99	37785.61
516.16	37921.36
516.33	37748.16
516.51	38153.07
516.68	37607.73
516.85	38075.84
517.03	37984.55
517.20	38398.83
517.37	38408.19
517.54	38253.72
517.72	38316.91
517.89	37984.55
518.06	38459.68
518.24	38539.26
518.41	38445.64
518.58	38998.01
518.75	38831.83
518.93	39241.42
519.10	38806.08
519.27	39033.11
519.45	38850.55
519.62	39213.34
519.79	39299.94
519.96	39435.69
520.14	39737.62
520.31	39714.21
520.48	39674.42
520.65	39636.97
520.83	40016.14
521.00	40023.16
521.17	39611.23
521.34	39992.73
521.52	39861.66
521.69	40217.43
521.86	40865.75
522.03	40430.41
522.20	40570.85
522.38	40531.06
522.55	40786.18
522.72	40966.40
522.89	40935.97
523.07	41528.13
523.24	41003.85
523.41	41223.86
523.58	41053.00
523.75	41303.43
523.92	41034.27
524.10	41256.62
524.27	41378.33
524.44	41998.57
524.61	42094.53
524.78	41832.39
524.96	41902.61
525.13	42085.17
525.30	41841.76
525.47	41923.68
525.64	41970.49
525.81	42087.51
525.98	42087.51
526.16	42115.60
526.33	42054.75
526.50	42780.31
526.67	42295.82
526.84	42710.10
527.01	42321.57
527.18	42579.03
527.36	43056.50
527.53	42487.74
527.70	43409.92
527.87	43335.02
528.04	42653.92
528.21	43391.19
528.38	43248.42
528.55	43222.67
528.72	43026.07
528.89	43578.43
529.07	43461.41
529.24	42965.21
529.41	43566.73
529.58	43377.15
529.75	43587.80
529.92	43496.52
530.09	43627.59
530.26	43943.56
530.43	43871.00
530.60	43676.74
530.77	44034.84
530.94	43784.40
531.11	43985.69
531.28	43957.60
531.46	43798.44
531.63	44362.51
531.80	44491.24
531.97	44406.98
532.14	44479.54
532.31	44055.90
532.48	44481.88
532.65	44313.36
532.82	44322.72
532.99	44793.17
533.16	44254.85
533.33	44924.24
533.50	45137.23
533.67	44762.75
533.84	44947.65
534.01	44910.20
534.18	45106.80
534.35	45298.73
534.52	44980.42
534.69	45572.57
534.86	45776.20
535.03	45069.36
535.20	45310.43
535.37	45144.25
535.54	45982.16
535.71	45720.02
535.88	45518.74
536.05	45528.10
536.22	45764.49
536.38	46003.23
536.55	46075.79
536.72	46057.06
536.89	45897.91
537.06	46124.94
537.23	46127.28
537.40	46251.33
537.57	46246.65
537.74	45923.65
537.91	46904.34
538.08	46637.51
538.25	46321.54
538.42	46014.93
538.59	46679.64
538.75	46113.23
538.92	46190.47
539.09	47072.85
539.26	46899.65
539.43	46703.05
539.60	46670.28
539.77	46817.74
539.94	47089.24
540.11	46972.21
540.28	46660.92
540.44	46923.06
540.61	46679.64
540.78	47119.66
540.95	47079.88
541.12	47367.76
541.29	47215.63
541.46	46588.36
541.62	47224.99
541.79	47278.82
541.96	46724.11
542.13	47433.30
542.30	47349.04
542.47	48060.56
542.63	47688.42
542.80	47770.33
542.97	47419.25
543.14	47442.66
543.31	47622.88
543.48	47899.06
543.64	48133.12
543.81	48418.66
543.98	48287.59
544.15	48360.15
544.32	48531.01
544.48	48332.06
544.65	48306.32
544.82	48456.11
544.99	47906.08
545.16	48715.91
545.32	48360.15
545.49	48865.70
545.66	48624.63
545.83	49043.59
546.00	48919.54
546.16	48821.23
546.33	48435.05
546.50	48299.30
546.67	48694.85
546.83	48645.69
547.00	48870.39
547.17	48947.62
547.34	48811.87
547.50	48898.47
547.67	49167.63
547.84	48893.79
548.00	48949.96
548.17	49600.63
548.34	48835.28
548.51	49301.04
548.67	49242.53
548.84	49490.63
549.01	49453.18
549.18	49212.10
549.34	48917.20
549.51	49443.82
549.68	49565.52
549.84	49141.89
550.01	49846.39
550.18	49530.42
550.34	49818.30
550.51	49811.28
550.68	49923.63
550.84	49006.14
551.01	49614.68
551.18	49724.68
551.34	49675.53
551.51	49916.61
551.68	50073.42
551.84	50199.81
552.01	49813.62
552.18	50323.86
552.34	50113.21
552.51	50316.84
552.68	50082.78
552.84	50012.57
553.01	50468.97
553.18	50129.59
553.34	50328.54
553.51	50145.98
553.67	50380.03
553.84	50546.21
554.01	50365.99
554.17	50735.79
554.34	50298.11
554.51	49958.73
554.67	50401.10
554.84	50543.87
555.00	50136.62
555.17	50672.60
555.33	50763.88
555.50	50688.98
555.67	50656.21
555.83	50459.61
556.00	50602.38
556.16	50754.52
556.33	50749.84
556.50	50525.14
556.66	50990.91
556.83	50433.86
556.99	51072.83
557.16	51143.05
557.32	50859.84
557.49	50939.42
557.65	50569.61
557.82	50880.91
557.98	50897.29
558.15	51185.18
558.32	51019.00
558.48	50796.65
558.65	51007.29
558.81	51145.39
558.98	51026.02
559.14	51503.49
559.31	50962.82
559.47	50831.75
559.64	51079.85
559.80	51157.09
559.97	51412.21
560.13	51016.66
560.30	51222.62
560.46	51201.56
560.63	51309.22
560.79	51365.40
560.96	51388.80
561.12	51033.04
561.29	50869.20
561.45	51056.45
561.61	51639.24
561.78	51461.36
561.94	51325.61
562.11	51423.91
562.27	51543.28
562.44	51332.63
562.60	51526.89
562.77	51519.87
562.93	51400.50
563.10	51725.84
563.26	51540.94
563.42	51707.12
563.59	51585.41
563.75	51767.97
563.92	51653.28
564.08	51283.48
564.24	51344.33
564.41	51480.08
564.57	51501.15
564.74	51573.70
564.90	51611.15
565.07	51657.96
565.23	51943.51
565.39	51611.15
565.56	51622.86
565.72	51526.89
565.88	51793.71
566.05	51657.96
566.21	51849.89
566.38	51622.86
566.54	52023.09
566.70	51985.64
566.87	51934.15
567.03	52002.02
567.19	52193.95
567.36	51995.00
567.52	51475.40
567.68	51992.66
567.85	51746.90
568.01	52081.60
568.17	51681.37
568.34	51767.97
568.50	51723.50
568.66	51859.25
568.83	51929.47
568.99	51819.46
569.15	52004.36
569.32	52027.77
569.48	51601.79
569.64	51819.46
569.81	52060.54
569.97	52002.02
570.13	51817.12
570.30	51969.26
570.46	52027.77
570.62	52350.76
570.78	51819.46
570.95	52210.33
571.11	51980.96
571.27	51739.88
571.43	51997.34
571.60	52203.31
571.76	51990.32
571.92	52142.45
572.09	52062.88
572.25	52133.09
572.41	52109.69
572.57	51849.89
572.74	52425.66
572.90	52200.97
573.06	52135.43
573.22	51985.64
573.38	52156.50
573.55	52275.87
573.71	52516.94
573.87	52683.12
574.03	52112.03
574.20	52392.89
574.36	52076.92
574.52	52275.87
574.68	52303.95
574.84	52406.94
575.01	52521.62
575.17	52559.07
575.33	52210.33
575.49	52189.27
575.65	52346.08
575.82	52388.21
575.98	52144.80
576.14	52184.58
576.30	52336.72
576.46	52226.71
576.62	52151.82
576.79	52294.59
576.95	51999.68
577.11	52191.61
577.27	52296.93
577.43	52332.04
577.59	52530.98
577.75	52435.02
577.92	52175.22
578.08	52147.14
578.24	52362.46
578.40	52556.73
578.56	52444.38
578.72	52261.82
578.88	52676.10
579.04	52666.73
579.21	52481.83
579.37	52669.08
579.53	52325.02
579.69	52051.17
579.85	52463.11
580.01	52453.75
580.17	52327.36
580.33	52420.98
580.49	52348.42
580.65	52640.99
580.82	52765.04
580.98	52310.97
581.14	52493.54
581.30	52814.19
581.46	52545.03
581.62	52428.00
581.78	52243.10
581.94	52481.83
582.10	52355.44
582.26	52648.01
582.42	52685.46
582.58	52921.85
582.74	52603.54
582.90	52760.36
583.06	52797.80
583.22	52676.10
583.38	52748.65
583.54	52456.09
583.70	52425.66
583.86	52526.30
584.02	52374.17
584.18	52818.87
584.34	52851.64
584.50	52804.83
584.66	52369.49
584.82	52350.76
584.98	52282.89
585.14	52645.67
585.30	52423.32
585.46	52552.05
585.62	52381.19
585.78	52758.02
585.94	52341.40
586.10	52502.90
586.26	52884.40
586.42	52868.02
586.58	52942.92
586.74	52388.21
586.90	52505.24
587.06	52800.15
587.22	52669.08
587.38	52758.02
587.54	52685.46
587.70	52573.11
587.86	53041.22
588.02	52790.78
588.18	52959.30
588.34	52774.40
588.49	52765.04
588.65	52460.77
588.81	52488.85
588.97	52736.95
589.13	52516.94
589.29	52516.94
589.45	52788.44
589.61	52865.68
589.77	53106.76
589.93	53109.10
590.08	53254.21
590.24	53073.99
590.40	52673.76
590.56	53116.12
590.72	52718.23
590.88	52619.92
591.04	52800.15
591.20	52975.69
591.35	53092.71
591.51	53375.92
591.67	53132.50
591.83	53286.98
591.99	52926.53
592.15	52755.68
592.31	52982.71
592.46	52760.36
592.62	52699.50
592.78	52992.07
592.94	53066.97
593.10	53059.94
593.26	53336.13
593.41	52935.90
593.57	53090.37
593.73	53141.86
593.89	53045.90
594.05	52804.83
594.20	52781.42
594.36	53034.20
594.52	53031.86
594.68	52802.49
594.84	52631.63
594.99	53001.43
595.15	52989.73
595.31	53085.69
595.47	53305.70
595.62	53034.20
595.78	52762.70
595.94	53179.31
596.10	53186.33
596.25	52921.85
596.41	53148.88
596.57	53010.79
596.73	53038.88
596.88	52802.49
597.04	53286.98
597.20	52928.87
597.36	53052.92
597.51	52980.37
597.67	52896.11
597.83	52516.94
597.99	52947.60
598.14	53003.77
598.30	52781.42
598.46	53155.91
598.61	53242.51
598.77	53055.26
598.93	52992.07
599.09	53139.52
599.24	53235.48
599.40	53045.90
599.56	53361.87
599.71	53102.07
599.87	53183.99
600.03	52678.44
600.18	52861.00
600.34	53092.71
600.50	53045.90
600.65	53071.65
600.81	53432.09
600.97	53338.47
601.12	53279.96
601.28	53460.18
601.44	53420.39
601.59	53191.01
601.75	53214.42
601.91	53221.44
602.06	53083.35
602.22	53212.08
602.37	52968.66
602.53	53015.47
602.69	53357.19
602.84	53127.82
603.00	53139.52
603.16	53404.00
603.31	53062.29
603.47	52861.00
603.62	53038.88
603.78	53144.20
603.94	52910.15
604.09	53160.59
604.25	53066.97
604.40	52797.80
604.56	52996.75
604.71	53420.39
604.87	53275.27
605.03	53495.28
605.18	53034.20
605.34	53113.78
605.49	52917.17
605.65	52830.57
605.80	52797.80
605.96	52870.36
606.12	52804.83
606.27	53038.88
606.43	52849.30
606.58	53038.88
606.74	53076.33
606.89	52999.09
607.05	52996.75
607.20	53209.74
607.36	52718.23
607.51	53310.38
607.67	52893.77
607.82	52973.34
607.98	52769.72
608.13	52685.46
608.29	52823.55
608.44	52727.59
608.60	52947.60
608.75	52903.13
608.91	53277.61
609.06	52680.78
609.22	52694.82
609.37	52786.10
609.53	52982.71
609.68	52804.83
609.84	52729.93
609.99	53031.86
610.15	52650.35
610.30	52992.07
610.46	52931.22
610.61	52954.62
610.76	52678.44
610.92	52678.44
611.07	52481.83
611.23	52673.76
611.38	52648.01
611.54	52432.68
611.69	52563.75
611.84	52500.56
612.00	52643.33
612.15	52577.79
612.31	52781.42
612.46	52701.84
612.62	52963.98
612.77	52715.89
612.92	52959.30
613.08	52477.15
613.23	52376.51
613.39	52603.54
613.54	52130.75
613.69	52495.88
613.85	52247.78
614.00	52554.39
614.15	52891.43
614.31	52650.35
614.46	52509.92
614.62	52832.91
614.77	52547.37
614.92	52596.52
615.08	52615.24
615.23	52507.58
615.38	52570.77
615.54	52219.69
615.69	52388.21
615.84	52112.03
616.00	52196.29
616.15	52266.50
616.30	52545.03
616.46	52229.05
616.61	52282.89
616.76	52238.42
616.92	51980.96
617.07	52151.82
617.22	51995.00
617.37	52076.92
617.53	51997.34
617.68	52282.89
617.83	51824.14
617.99	52350.76
618.14	52149.48
618.29	52177.56
618.45	52224.37
618.60	52212.67
618.75	51971.60
618.90	52032.45
619.06	52067.56
619.21	52055.85
619.36	51859.25
619.51	51786.69
619.67	51742.22
619.82	51842.87
619.97	52102.67
620.12	51580.73
620.28	51681.37
620.43	51653.28
620.58	52172.88
620.73	51908.40
620.89	52097.98
621.04	51826.48
621.19	51744.56
621.34	51803.08
621.49	51377.10
621.65	51580.73
621.80	51903.72
621.95	51346.67
622.10	51737.54
622.25	51873.29
622.41	51683.71
622.56	51543.28
622.71	51800.74
622.86	51590.09
623.01	51288.16
623.16	51180.49
623.32	51161.77
623.47	51257.73
623.62	51611.15
623.77	51248.37
623.92	51084.53
624.07	51201.56
624.23	51475.40
624.38	51779.67
624.53	51863.93
624.68	51753.93
624.83	51395.82
624.98	51260.07
625.13	50742.81
625.29	51206.24
625.44	51316.25
625.59	50972.19
625.74	50780.26
625.89	51047.08
626.04	50897.29
626.19	51220.28
626.34	50946.44
626.49	50939.42
626.65	50836.44
626.80	51276.46
626.95	50859.84
627.10	51016.66
627.25	50934.74
627.40	51026.02
627.55	50609.40
627.70	50429.18
627.85	50499.40
628.00	50244.28
628.15	50473.65
628.30	50391.73
628.45	51063.47
628.60	50529.83
628.76	50712.39
628.91	50670.26
629.06	50595.36
629.21	50801.33
629.36	50389.39
629.51	50501.74
629.66	50387.05
629.81	50302.79
629.96	50335.56
630.11	50054.70
630.26	50403.44
630.41	50284.07
630.56	50192.79
630.71	50335.56
630.86	50468.97
631.01	50351.94
631.16	50361.31
631.31	50323.86
631.46	49834.69
631.61	50057.04
631.76	50204.49
631.91	50501.74
632.06	49876.82
632.21	50094.49
632.36	50054.70
632.51	49666.17
632.66	49876.82
632.81	50026.61
632.96	50199.81
633.10	49815.96
633.25	49937.67
633.40	50038.31
633.55	49998.52
633.70	49773.83
633.85	49691.91
634.00	49284.66
634.15	49315.09
634.30	49827.66
634.45	50089.80
634.60	50113.21
634.75	49820.64
634.90	49998.52
635.05	49982.14
635.19	49132.53
635.34	49687.23
635.49	49811.28
635.64	49797.24
635.79	49705.96
635.94	49237.85
636.09	49738.72
636.24	48690.16
636.39	48760.38
636.53	49703.62
636.68	49340.83
636.83	49483.61
636.98	49504.67
637.13	49397.01
637.28	49684.89
637.43	49111.46
637.57	49389.98
637.72	48945.28
637.87	49249.55
638.02	49317.43
638.17	49111.46
638.32	48966.35
638.46	48842.30
638.61	48837.62
638.76	48975.71
638.91	49031.88
639.06	49024.86
639.20	49380.62
639.35	49212.10
639.50	49333.81
639.65	49385.30
639.80	48765.06
639.94	48980.39
640.09	49066.99
640.24	49034.22
640.39	49193.38
640.54	48949.96
640.68	48495.90
640.83	48589.52
640.98	48748.68
641.13	48416.32
641.27	48875.07
641.42	48582.50
641.57	48807.19
641.72	48603.56
641.86	48687.82
642.01	48069.92
642.16	48692.50
642.31	47962.26
642.45	48591.86
642.60	48184.61
642.75	48257.17
642.90	48652.72
643.04	48552.07
643.19	48273.55
643.34	48156.52
643.48	48114.39
643.63	48243.12
643.78	47983.32
643.93	48200.99
644.07	48666.76
644.22	47950.56
644.37	47997.37
644.51	47966.94
644.66	47950.56
644.81	47934.17
644.95	47611.18
645.10	47786.72
645.25	48250.14
645.39	48261.85
645.54	48327.38
645.69	48456.11
645.83	48189.29
645.98	48212.70
646.13	48339.08
646.27	48083.97
646.42	47992.68
646.57	47697.78
646.71	47533.94
646.86	48126.10
647.00	48128.44
647.15	47889.70
647.30	47608.84
647.44	47681.39
647.59	47578.41
647.74	47636.92
647.88	47798.42
648.03	47903.74
648.17	47976.30
648.32	47749.27
648.47	47540.96
648.61	47391.17
648.76	47435.64
648.90	47442.66
649.05	47271.80
649.20	47515.22
649.34	47466.06
649.49	47386.49
649.63	47140.73
649.78	47529.26
649.92	47133.71
650.07	47414.57
650.21	47182.86
650.36	47012.00
650.51	47044.77
650.65	47529.26
650.80	47459.04
650.94	47503.51
651.09	47110.30
651.23	47079.88
651.38	47061.15
651.52	47232.01
651.67	47210.95
651.81	47070.51
651.96	46410.48
652.10	46555.60
652.25	46677.30
652.39	47021.36
652.54	46967.53
652.68	47126.69
652.83	47119.66
652.97	46906.68
653.12	46607.09
653.26	46796.67
653.41	46705.39
653.55	46609.43
653.70	46515.81
653.84	46480.70
653.99	46281.75
654.13	46553.26
654.27	46712.41
654.42	46323.88
654.56	46424.53
654.71	46789.65
654.85	46871.57
655.00	47276.48
655.14	46909.02
655.29	46672.62
655.43	46155.36
655.57	46031.32
655.72	46342.61
655.86	46419.84
656.01	45724.71
656.15	45862.80
656.30	46033.66
656.44	45815.99
656.58	46363.67
656.73	46057.06
656.87	46031.32
657.01	46319.20
657.16	46452.61
657.30	46340.27
657.45	46366.01
657.59	46157.70
657.73	46040.68
657.88	45977.48
658.02	46209.20
658.16	45853.44
658.31	45680.24
658.45	45469.59
658.60	45350.22
658.74	45755.13
658.88	45862.80
659.03	45542.14
659.17	45263.62
659.31	45104.46
659.46	45799.60
659.60	45469.59
659.74	45535.12
659.89	45031.91
660.03	45331.50
660.17	45610.02
660.32	44835.30
660.46	45193.40
660.60	44900.84
660.74	44842.32
660.89	45031.91
661.03	44802.53
661.17	44987.44
661.32	44610.61
661.46	44645.72
661.60	45050.63
661.74	44875.09
661.89	44900.84
662.03	44807.22
662.17	44215.06
662.31	44336.77
662.46	44069.95
662.60	44381.24
662.74	43828.87
662.88	43786.74
663.03	43775.04
663.17	43674.40
663.31	43419.28
663.45	43491.83
663.60	43955.26
663.74	43278.85
663.88	43934.20
664.02	44222.08
664.17	44575.50
664.31	43924.83
664.45	43618.22
664.59	43316.29
664.73	43222.67
664.88	43430.98
665.02	42752.23
665.16	42841.17
665.30	42995.64
665.44	43107.99
665.59	43225.01
665.73	42948.83
665.87	42965.21
666.01	42721.80
666.15	42885.64
666.29	43084.58
666.44	43370.13
666.58	42937.13
666.72	42555.62
666.86	42712.44
667.00	43005.00
667.14	42637.54
667.28	42265.39
667.43	42548.60
667.57	42349.65
667.71	42162.41
667.85	42284.12
667.99	42197.52
668.13	42237.31
668.27	41773.88
668.41	41888.57
668.56	41989.21
668.70	42520.51
668.84	42085.17
668.98	41893.25
669.12	42134.32
669.26	42204.54
669.40	41471.95
669.54	41280.03
669.68	41518.76
669.82	41148.96
669.96	41301.09
670.10	40762.77
670.25	41116.19
670.39	41062.36
670.53	40758.09
670.67	41102.15
670.81	41057.68
670.95	41132.57
671.09	41230.88
671.23	40957.03
671.37	41308.11
671.51	40907.88
671.65	40896.18
671.79	40772.13
671.93	40556.80
672.07	40531.06
672.21	40299.34
672.35	40175.30
672.49	39665.06
672.63	39887.41
672.77	39803.15
672.91	39676.76
673.05	39739.96
673.19	40531.06
673.33	40254.87
673.47	39917.84
673.61	39714.21
673.75	39611.23
673.89	39541.01
674.03	39618.25
674.17	39662.72
674.31	39379.51
674.45	39030.77
674.59	39194.61
674.73	38728.84
674.87	39278.87
675.01	38249.03
675.15	38497.13
675.29	38057.11
675.43	38794.38
675.56	38607.14
675.70	38789.70
675.84	38857.57
675.98	37567.94
676.12	38473.73
676.26	38167.12
676.40	38239.67
676.54	37741.14
676.68	37851.14
676.82	37350.27
676.96	37486.02
677.10	37425.17
677.23	37464.96
677.37	37202.82
677.51	37301.12
677.65	37193.45
677.79	36734.71
677.93	36945.36
678.07	36971.10
678.21	37057.70
678.34	36694.92
678.48	36540.44
678.62	36184.68
678.76	36168.30
678.90	35835.94
679.04	36107.44
679.18	36065.31
679.31	35971.69
679.45	35894.46
679.59	35454.44
679.73	35463.80
679.87	35316.34
680.00	35211.02
680.14	34780.36
680.28	35040.16
680.42	34857.60
680.56	34637.59
680.70	35117.40
680.83	34834.19
680.97	34417.58
681.11	34827.17
681.25	34572.05
681.39	34157.78
681.52	34127.35
681.66	33923.72
681.80	33563.28
681.94	33537.54
682.07	33914.36
682.21	33149.01
682.35	33104.54
682.49	33291.78
682.62	33593.71
682.76	33277.74
682.90	32921.98
683.04	33591.37
683.17	32818.99
683.31	33390.08
683.45	33034.32
683.59	32720.69
683.72	32507.70
683.86	32746.44
684.00	32336.84
684.13	32187.05
684.27	32027.89
684.41	32037.25
684.55	31875.76
684.68	32013.85
684.82	31999.80
684.96	31744.69
685.09	31557.44
685.23	31615.96
685.37	31798.52
685.50	31110.40
685.64	31061.25
685.78	30759.32
685.91	31555.10
686.05	31337.43
686.19	31030.82
686.32	31393.61
686.46	30799.11
686.60	30143.76
686.73	30485.48
686.87	30263.13
687.01	30146.10
687.14	29586.71
687.28	30050.14
687.42	29989.28
687.55	29867.58
687.69	30373.13
687.82	29397.13
687.96	29338.62
688.10	29795.02
688.23	29322.23
688.37	29355.00
688.50	28914.98
688.64	29158.39
688.78	28893.91
688.91	28481.98
689.05	28479.64
689.18	28542.83
689.32	27946.00
689.46	28166.01
689.59	28308.78
689.73	28158.99
689.86	28081.75
690.00	27536.40
690.13	28409.42
690.27	28053.66
690.41	27761.09
690.54	27606.62
690.68	27503.64
690.81	27936.63
690.95	27550.45
691.08	27559.81
691.22	27381.93
691.35	26916.16
691.49	26808.50
691.62	26927.86
691.76	26745.30
691.89	26373.16
692.03	26441.03
692.16	26480.82
692.30	26319.32
692.43	26209.32
692.57	26043.14
692.70	26059.52
692.84	26057.18
692.97	25781.00
693.11	25996.33
693.24	25940.16
693.38	25830.15
693.51	25572.69
693.65	25963.56
693.78	25359.70
693.92	25443.96
694.05	25308.21
694.19	25193.53
694.32	24975.86
694.45	24638.82
694.59	24828.40
694.72	24510.09
694.86	24484.34
694.99	24343.91
695.13	24472.64
695.26	23821.97
695.39	23882.83
695.53	24049.00
695.66	24198.80
695.80	23971.77
695.93	23885.17
696.07	23894.53
696.20	23714.31
696.33	23435.78
696.47	23300.03
696.60	23337.48
696.73	23300.03
696.87	23300.03
697.00	23103.43
697.14	23080.02
697.27	23014.49
697.40	22628.30
697.54	22342.75
697.67	22312.33
697.80	22504.25
697.94	22412.97
698.07	22272.54
698.21	22207.00
698.34	22370.84
698.47	22169.55
698.61	22068.91
698.74	21736.56
698.87	22071.25
699.01	21671.02
699.14	21523.57
699.27	21397.18
699.40	21369.09
699.54	21280.15
699.67	20844.81
699.80	20926.73
699.94	21209.93
700.07	20973.54
700.20	20636.50
700.34	20400.11
700.47	20498.41
700.60	20336.91
700.73	20343.94
700.87	20662.25
701.00	20650.55
701.13	20247.97
701.26	19887.53
701.40	20102.86
701.53	20140.31
701.66	20292.44
701.79	19733.06
701.93	19660.50
702.06	19257.93
702.19	19412.40
702.32	19709.65
702.46	19358.57
702.59	19314.10
702.72	19023.87
702.85	19213.46
702.99	18930.25
703.12	19063.66
703.25	18965.36
703.38	18979.40
703.51	18831.95
703.65	18904.51
703.78	18916.21
703.91	18204.69
704.04	18717.26
704.17	18431.72
704.31	18401.29
704.44	18057.23
704.57	18073.62
704.70	18108.72
704.83	18207.03
704.96	17930.84
705.10	17572.74
705.23	17479.12
>>>>>End Processed Spectral Data<<<<<
