SpectraSuite Data File
++++++++++++++++++++++++++++++++++++
Date: Fri Oct 04 11:48:21 GMT-05:00 2013
User: price-jones
Dark Spectrum Present: No
Reference Spectrum Present: No
Number of Sampled Component Spectra: 1
Spectrometers: USB2+H05261
Integration Time (usec): 100000 (USB2+H05261)
Spectra Averaged: 1 (USB2+H05261)
Boxcar Smoothing: 0 (USB2+H05261)
Correct for Electrical Dark: No (USB2+H05261)
Strobe/Lamp Enabled: No (USB2+H05261)
Correct for Detector Non-linearity: No (USB2+H05261)
Correct for Stray Light: No (USB2+H05261)
Number of Pixels in Processed Spectrum: 2048
>>>>>Begin Processed Spectral Data<<<<<
365.73	0.00
365.92	0.00
366.12	0.00
366.32	0.00
366.52	0.00
366.72	0.00
366.91	0.00
367.11	0.00
367.31	0.00
367.51	0.00
367.70	0.00
367.90	0.00
368.10	0.00
368.30	0.00
368.49	0.00
368.69	0.00
368.89	0.00
369.09	0.00
369.28	0.00
369.48	0.00
369.68	0.00
369.87	0.00
370.07	0.00
370.27	37.45
370.47	105.32
370.66	121.71
370.86	159.16
371.06	173.20
371.25	133.41
371.45	98.30
371.65	112.35
371.84	88.94
372.04	128.73
372.24	37.45
372.44	133.41
372.63	156.82
372.83	184.90
373.03	142.77
373.22	124.05
373.42	142.77
373.62	170.86
373.81	191.92
374.01	227.03
374.21	231.71
374.40	203.63
374.60	182.56
374.79	175.54
374.99	163.84
375.19	243.42
375.38	255.12
375.58	191.92
375.78	259.80
375.97	205.97
376.17	161.50
376.37	161.50
376.56	196.60
376.76	229.37
376.95	133.41
377.15	266.82
377.35	156.82
377.54	168.52
377.74	156.82
377.93	210.65
378.13	196.60
378.33	259.80
378.52	196.60
378.72	217.67
378.91	161.50
379.11	173.20
379.31	131.07
379.50	220.01
379.70	194.26
379.89	196.60
380.09	217.67
380.28	238.73
380.48	220.01
380.68	168.52
380.87	191.92
381.07	208.31
381.26	269.16
381.46	224.69
381.65	229.37
381.85	203.63
382.04	124.05
382.24	189.58
382.43	227.03
382.63	145.11
382.83	145.11
383.02	220.01
383.22	236.39
383.41	145.11
383.61	257.46
383.80	222.35
384.00	287.89
384.19	227.03
384.39	191.92
384.58	243.42
384.78	248.10
384.97	217.67
385.17	191.92
385.36	259.80
385.56	203.63
385.75	210.65
385.95	248.10
386.14	227.03
386.34	187.24
386.53	182.56
386.72	166.18
386.92	283.20
387.11	248.10
387.31	248.10
387.50	205.97
387.70	187.24
387.89	177.88
388.09	205.97
388.28	262.14
388.48	238.73
388.67	248.10
388.86	227.03
389.06	297.25
389.25	257.46
389.45	287.89
389.64	264.48
389.84	266.82
390.03	264.48
390.22	238.73
390.42	245.76
390.61	301.93
390.81	173.20
391.00	301.93
391.19	234.05
391.39	276.18
391.58	308.95
391.78	346.40
391.97	327.68
392.16	234.05
392.36	381.51
392.55	311.29
392.75	259.80
392.94	353.42
393.13	313.63
393.33	369.80
393.52	327.68
393.71	311.29
393.91	287.89
394.10	306.61
394.29	330.02
394.49	271.50
394.68	348.74
394.88	332.36
395.07	367.46
395.26	339.38
395.46	327.68
395.65	390.87
395.84	468.11
396.04	425.98
396.23	409.59
396.42	390.87
396.62	337.04
396.81	402.57
397.00	395.55
397.19	407.25
397.39	430.66
397.58	416.62
397.77	355.76
397.97	449.38
398.16	330.02
398.35	390.87
398.55	484.49
398.74	470.45
398.93	482.15
399.12	444.70
399.32	449.38
399.51	496.19
399.70	491.51
399.90	566.41
400.09	465.77
400.28	507.90
400.47	449.38
400.67	486.83
400.86	486.83
401.05	507.90
401.24	564.07
401.44	603.86
401.63	594.50
401.82	545.34
402.01	540.66
402.21	575.77
402.40	561.73
402.59	578.11
402.78	531.30
402.97	582.79
403.17	648.33
403.36	650.67
403.55	629.60
403.74	615.56
403.93	688.12
404.13	629.60
404.32	720.88
404.51	617.90
404.70	697.48
404.89	676.41
405.09	727.91
405.28	723.23
405.47	653.01
405.66	730.25
405.85	730.25
406.05	718.54
406.24	643.65
406.43	772.38
406.62	772.38
406.81	786.42
407.00	758.33
407.20	730.25
407.39	819.19
407.58	882.38
407.77	786.42
407.96	870.68
408.15	905.79
408.34	784.08
408.54	844.93
408.73	866.00
408.92	894.08
409.11	908.13
409.30	898.77
409.49	931.53
409.68	912.81
409.87	964.30
410.07	936.21
410.26	1013.45
410.45	990.05
410.64	1006.43
410.83	999.41
411.02	1090.69
411.21	1076.65
411.40	1039.20
411.59	1053.24
411.78	1123.46
411.98	1025.15
412.17	1130.48
412.36	1057.92
412.55	1125.80
412.74	1170.27
412.93	1249.85
413.12	1256.87
413.31	1247.51
413.50	1221.76
413.69	1179.63
413.88	1273.25
414.07	1252.19
414.26	1153.88
414.45	1214.74
414.64	1359.85
414.83	1369.21
415.02	1352.83
415.22	1336.45
415.41	1371.55
415.60	1369.21
415.79	1401.98
415.98	1448.79
416.17	1376.24
416.36	1425.39
416.55	1535.39
416.74	1488.58
416.93	1476.88
417.12	1437.09
417.31	1549.43
417.50	1565.82
417.69	1591.56
417.88	1551.78
418.07	1535.39
418.26	1565.82
418.45	1502.62
418.64	1687.53
418.83	1692.21
419.02	1572.84
419.21	1682.85
419.39	1666.46
419.58	1701.57
419.77	1584.54
419.96	1713.27
420.15	1753.06
420.34	1509.65
420.53	1696.89
420.72	1764.76
420.91	1650.08
421.10	1657.10
421.29	1823.28
421.48	1743.70
421.67	1872.43
421.86	1741.36
422.05	1781.15
422.24	1650.08
422.43	1863.07
422.61	1783.49
422.80	1785.83
422.99	1858.39
423.18	1804.55
423.37	1909.88
423.56	1888.81
423.75	1818.60
423.94	1820.94
424.13	1778.81
424.32	1792.85
424.50	1881.79
424.69	1717.95
424.88	1799.87
425.07	1715.61
425.26	1825.62
425.45	1753.06
425.64	1771.79
425.83	1933.28
426.01	1809.23
426.20	1816.26
426.39	1874.77
426.58	1940.30
426.77	1886.47
426.96	1940.30
427.15	1900.52
427.33	2017.54
427.52	1865.41
427.71	1893.49
427.90	1930.94
428.09	1846.68
428.28	1928.60
428.46	2022.22
428.65	2029.24
428.84	2012.86
429.03	1949.67
429.22	2001.16
429.40	2104.14
429.59	2104.14
429.78	1884.13
429.97	1898.17
430.16	1944.99
430.34	2064.35
430.53	2022.22
430.72	2155.63
430.91	2214.15
431.10	2026.90
431.28	2150.95
431.47	2265.64
431.66	2310.11
431.85	2155.63
432.03	2214.15
432.22	2190.74
432.41	2223.51
432.60	2230.53
432.79	2181.38
432.97	2148.61
433.16	2296.07
433.35	2228.19
433.54	2312.45
433.72	2134.57
433.91	2385.01
434.10	2181.38
434.28	2237.55
434.47	2211.81
434.66	2239.89
434.85	2307.77
435.03	2401.39
435.22	2328.83
435.41	2492.67
435.59	2385.01
435.78	2436.50
435.97	2441.18
436.16	2443.52
436.34	2394.37
436.53	2415.43
436.72	2574.59
436.90	2417.77
437.09	2487.99
437.28	2539.48
437.46	2373.30
437.65	2457.56
437.84	2459.90
438.02	2396.71
438.21	2445.86
438.40	2487.99
438.58	2686.94
438.77	2532.46
438.96	2640.12
439.14	2672.89
439.33	2600.34
439.52	2789.92
439.70	2787.58
439.89	2731.41
440.08	2640.12
440.26	2829.71
440.45	2761.83
440.63	2754.81
440.82	2881.20
441.01	2820.35
441.19	2808.64
441.38	2768.85
441.57	2825.03
441.75	2761.83
441.94	2815.66
442.12	2920.99
442.31	2949.08
442.50	3005.25
442.68	2995.89
442.87	2974.82
443.05	2998.23
443.24	3145.68
443.43	3049.72
443.61	3108.23
443.80	3138.66
443.98	3005.25
444.17	2878.86
444.35	3014.61
444.54	3084.83
444.73	3166.74
444.91	3105.89
445.10	3042.70
445.28	3040.36
445.47	3028.65
445.65	3014.61
445.84	3152.70
446.02	3045.04
446.21	3148.02
446.39	3052.06
446.58	3138.66
446.77	3152.70
446.95	3131.64
447.14	3145.68
447.32	3236.96
447.51	3141.00
447.69	3087.17
447.88	3316.54
448.06	3283.77
448.25	3061.42
448.43	3075.46
448.62	3112.91
448.80	3105.89
448.99	3169.09
449.17	3192.49
449.36	3204.19
449.54	3283.77
449.73	3358.67
449.91	3365.69
450.10	3215.90
450.28	3323.56
450.46	3304.84
450.65	3255.69
450.83	3468.67
451.02	3307.18
451.20	3410.16
451.39	3398.46
451.57	3368.03
451.76	3344.63
451.94	3368.03
452.13	3478.04
452.31	3578.68
452.49	3447.61
452.68	3400.80
452.86	3475.70
453.05	3543.57
453.23	3543.57
453.42	3541.23
453.60	3440.59
453.78	3487.40
453.97	3604.42
454.15	3456.97
454.34	3356.33
454.52	3585.70
454.70	3756.56
454.89	3730.81
455.07	3559.95
455.26	3602.08
455.44	3691.02
455.62	3822.09
455.81	3669.96
455.99	3674.64
456.17	3684.00
456.36	3749.54
456.54	3808.05
456.73	3805.71
456.91	3808.05
457.09	3887.63
457.28	4081.89
457.46	3740.18
457.64	3983.59
457.83	3974.23
458.01	3873.59
458.19	3854.86
458.38	3845.50
458.56	3983.59
458.74	3819.75
458.93	3957.85
459.11	4121.68
459.29	3932.10
459.48	4037.42
459.66	3929.76
459.84	4095.94
460.03	4156.79
460.21	3960.19
460.39	3946.14
460.57	4007.00
460.76	4142.75
460.94	3997.64
461.12	3999.98
461.31	4198.92
461.49	4053.81
461.67	4037.42
461.85	4248.07
462.04	4327.65
462.22	4791.08
462.40	4369.78
462.59	4327.65
462.77	4255.09
462.95	4285.52
463.13	4208.28
463.32	4557.02
463.50	4152.11
463.68	4311.27
463.86	4264.46
464.05	4117.00
464.23	4280.84
464.41	4458.72
464.59	4238.71
464.78	4444.68
464.96	4339.35
465.14	4257.43
465.32	4299.56
465.50	4594.47
465.69	4601.49
465.87	4400.21
466.05	4374.46
466.23	4528.94
466.41	4437.66
466.60	4454.04
466.78	4535.96
466.96	4535.96
467.14	4524.26
467.32	4547.66
467.51	4690.43
467.69	4451.70
467.87	4463.40
468.05	4521.92
468.23	4648.30
468.41	4699.80
468.60	4533.62
468.78	4772.35
468.96	4652.98
469.14	4617.88
469.32	4610.86
469.50	4535.96
469.69	4880.02
469.87	4833.21
470.05	4858.95
470.23	4655.33
470.41	4784.06
470.59	4894.06
470.77	4767.67
470.95	4620.22
471.14	4954.91
471.32	4880.02
471.50	5064.92
471.68	5027.47
471.86	5025.13
472.04	4917.47
472.22	5207.69
472.40	4856.61
472.58	4896.40
472.77	4961.94
472.95	5263.86
473.13	5406.64
473.31	5172.58
473.49	5245.14
473.67	5055.56
473.85	5254.50
474.03	5256.84
474.21	5231.10
474.39	5334.08
474.57	5437.06
474.75	5373.87
474.93	5416.00
475.12	5425.36
475.30	5437.06
475.48	5518.98
475.66	5441.75
475.84	5598.56
476.02	5682.82
476.20	5570.48
476.38	5659.42
476.56	5849.00
476.74	5699.20
476.92	5760.06
477.10	5729.63
477.28	5795.17
477.46	5661.76
477.64	5930.92
477.82	6024.54
478.00	6160.29
478.18	6094.76
478.36	6284.34
478.54	6073.69
478.72	6183.70
478.90	6331.15
479.08	6303.06
479.26	6326.47
479.44	6466.90
479.62	6480.94
479.80	6410.73
479.98	6553.50
480.16	6813.30
480.34	6452.86
480.52	6715.00
480.70	6654.14
480.88	6635.42
481.06	6874.15
481.24	6759.47
481.41	6846.07
481.59	6963.09
481.77	7145.66
481.95	6810.96
482.13	7040.33
482.31	7169.06
482.49	7218.21
482.67	7166.72
482.85	7204.17
483.03	7337.58
483.21	7419.50
483.39	7391.41
483.57	7496.74
483.74	7470.99
483.92	7625.47
484.10	7632.49
484.28	7859.52
484.46	7922.71
484.64	8086.55
484.82	7735.47
485.00	8004.63
485.18	7964.84
485.35	8278.47
485.53	8243.37
485.71	8149.75
485.89	8386.14
486.07	8510.19
486.25	8339.33
486.43	8236.35
486.61	8432.95
486.78	8486.78
486.96	8592.11
487.14	8828.50
487.32	8720.84
487.50	8781.69
487.68	8980.64
487.85	8997.02
488.03	9128.09
488.21	9481.51
488.39	9092.98
488.57	9128.09
488.75	9181.92
488.92	9392.57
489.10	9516.62
489.28	9673.43
489.46	9497.89
489.64	9502.58
489.81	9921.53
489.99	9928.55
490.17	9973.02
490.35	10092.39
490.53	10001.11
490.70	10209.42
490.88	10003.45
491.06	10216.44
491.24	10057.28
491.41	10036.22
491.59	10441.13
491.77	10368.57
491.95	10466.88
492.13	10487.94
492.30	10534.75
492.48	10764.12
492.66	10700.93
492.84	10675.18
493.01	11007.54
493.19	10801.57
493.37	10857.75
493.54	11042.65
493.72	11257.98
493.90	11059.03
494.08	11119.89
494.25	11269.68
494.43	11290.74
494.61	11398.41
494.79	11365.64
494.96	11358.62
495.14	11339.90
495.32	11623.10
495.49	11517.78
495.67	11693.32
495.85	11955.46
496.02	11899.28
496.20	11925.03
496.38	12037.38
496.55	12175.47
496.73	12084.19
496.91	12100.57
497.09	12224.62
497.26	12343.99
497.44	12365.05
497.62	12411.86
497.79	12470.37
497.97	12411.86
498.14	12688.04
498.32	12886.99
498.50	12849.54
498.67	12774.64
498.85	12896.35
499.03	12781.67
499.20	13034.44
499.38	12882.31
499.56	12807.41
499.73	13198.28
499.91	13184.24
500.08	13153.81
500.26	12966.57
500.44	13352.76
500.61	13303.60
500.79	13242.75
500.97	13305.95
501.14	13872.36
501.32	13554.04
501.49	13589.15
501.67	13359.78
501.84	13678.09
502.02	13687.45
502.20	13886.40
502.37	13865.33
502.55	13778.73
502.72	13965.98
502.90	13907.46
503.07	14031.51
503.25	13956.61
503.43	13947.25
503.60	14279.61
503.78	14061.94
503.95	14377.91
504.13	14073.64
504.30	14045.55
504.48	14235.14
504.65	14450.47
504.83	14534.73
505.01	14429.40
505.18	14633.03
505.36	14743.03
505.53	14558.13
505.71	14766.44
505.88	14511.32
506.06	14883.47
506.23	14541.75
506.41	14766.44
506.58	15075.39
506.76	14890.49
506.93	15075.39
507.11	15112.84
507.28	14967.73
507.46	14963.04
507.63	15075.39
507.81	14984.11
507.98	15382.00
508.16	15379.66
508.33	15442.85
508.50	15286.04
508.68	15602.01
508.85	15459.24
509.03	15499.03
509.20	15559.88
509.38	15548.18
509.55	15775.21
509.73	15974.16
509.90	16044.37
510.08	16170.76
510.25	16051.39
510.42	15995.22
510.60	16231.62
510.77	15999.90
510.95	16236.30
511.12	15922.66
511.30	16006.92
511.47	16287.79
511.64	16114.59
511.82	16453.97
511.99	16673.98
512.17	16395.45
512.34	16418.86
512.51	16683.34
512.69	16711.42
512.86	16634.19
513.04	16580.36
513.21	16634.19
513.38	16926.75
513.56	16821.43
513.73	16816.75
513.90	17106.98
514.08	16690.36
514.25	17090.59
514.43	16634.19
514.60	17380.82
514.77	16985.27
514.95	17294.22
515.12	17324.65
515.29	17039.10
515.47	17319.96
515.64	17532.95
515.81	17345.71
515.99	17446.35
516.16	17584.44
516.33	17535.29
516.51	17455.72
516.68	17589.13
516.85	17642.96
517.03	17872.33
517.20	17848.93
517.37	17568.06
517.54	17734.24
517.72	17853.61
517.89	17568.06
518.06	17902.76
518.24	17731.90
518.41	17928.50
518.58	17965.95
518.75	18005.74
518.93	18019.78
519.10	17907.44
519.27	18080.64
519.45	18216.39
519.62	18319.37
519.79	18118.09
519.96	18345.12
520.14	18284.26
520.31	18501.93
520.48	18747.69
520.65	18396.61
520.83	18855.36
521.00	18745.35
521.17	18834.29
521.34	18710.24
521.52	18658.75
521.69	18602.58
521.86	18857.70
522.03	18953.66
522.20	18974.72
522.38	18867.06
522.55	18799.18
522.72	18972.38
522.89	19115.16
523.07	19049.62
523.24	19227.50
523.41	19286.01
523.58	19007.49
523.75	19264.95
523.92	18834.29
524.10	19171.33
524.27	19136.22
524.44	19185.37
524.61	19536.45
524.78	19278.99
524.96	19290.70
525.13	19335.17
525.30	19260.27
525.47	19695.61
525.64	19496.66
525.81	19620.71
525.98	19681.56
526.16	19515.39
526.33	19672.20
526.50	19714.33
526.67	19571.56
526.84	19756.46
527.01	19690.93
527.18	19597.31
527.36	19711.99
527.53	20037.33
527.70	20236.27
527.87	20102.86
528.04	19859.45
528.21	19927.32
528.38	20130.95
528.55	20070.09
528.72	20126.27
528.89	20044.35
529.07	20271.38
529.24	20219.89
529.41	20301.81
529.58	20552.24
529.75	20116.90
529.92	20439.90
530.09	20020.94
530.26	20107.54
530.43	20292.44
530.60	20229.25
530.77	20187.12
530.94	20566.29
531.11	20322.87
531.28	20683.31
531.46	20297.13
531.63	20507.77
531.80	20779.28
531.97	20535.86
532.14	20538.20
532.31	20556.93
532.48	20414.15
532.65	20870.56
532.82	20690.34
532.99	20720.76
533.16	20884.60
533.33	21043.76
533.50	21146.74
533.67	21008.65
533.84	20793.32
534.01	20812.04
534.18	20840.13
534.35	20891.62
534.52	20786.30
534.69	21191.21
534.86	21612.51
535.03	21359.73
535.20	21294.19
535.37	21284.83
535.54	21223.98
535.71	21186.53
535.88	21497.82
536.05	21305.90
536.22	21745.92
536.38	21125.68
536.55	21130.36
536.72	21308.24
536.89	21085.89
537.06	21451.01
537.23	21408.88
537.40	21476.76
537.57	21561.02
537.74	21605.49
537.91	21687.40
538.08	21635.91
538.25	21460.37
538.42	21612.51
538.59	21811.45
538.75	21596.12
538.92	21579.74
539.09	21696.77
539.26	21610.17
539.43	21886.35
539.60	21759.96
539.77	21741.24
539.94	22029.12
540.11	21799.75
540.28	22040.82
540.44	21872.31
540.61	21720.17
540.78	21671.02
540.95	22134.45
541.12	21989.33
541.29	21977.63
541.46	22059.55
541.62	21841.88
541.79	22043.17
541.96	22036.14
542.13	21912.10
542.30	22246.79
542.47	22590.85
542.63	22459.78
542.80	22267.86
542.97	22904.48
543.14	22302.96
543.31	22419.99
543.48	22331.05
543.64	22490.21
543.81	22380.20
543.98	22501.91
544.15	22436.38
544.32	22714.90
544.48	22434.03
544.65	22541.70
544.82	22658.73
544.99	22258.49
545.16	22583.83
545.32	22700.86
545.49	22661.07
545.66	22876.40
545.83	22445.74
546.00	23096.41
546.16	22913.84
546.33	22335.73
546.50	22522.98
546.67	22941.93
546.83	22672.77
547.00	22628.30
547.17	22944.27
547.34	22794.48
547.50	22902.14
547.67	23136.20
547.84	22768.73
548.00	23002.78
548.17	23721.33
548.34	22963.00
548.51	23417.06
548.67	23278.97
548.84	23386.63
549.01	23255.56
549.18	23101.09
549.34	22864.69
549.51	22941.93
549.68	23080.02
549.84	23180.67
550.01	23225.14
550.18	23115.13
550.34	23110.45
550.51	23388.97
550.68	23618.35
550.84	23379.61
551.01	23623.03
551.18	23302.37
551.34	23187.69
551.51	23288.33
551.68	23325.78
551.84	23681.54
552.01	23393.65
552.18	23569.19
552.34	23587.92
552.51	23573.88
552.68	23190.03
552.84	23267.27
553.01	23531.75
553.18	23452.17
553.34	23693.24
553.51	23704.95
553.67	23983.47
553.84	23606.64
554.01	23946.02
554.17	23686.22
554.34	23475.57
554.51	23424.08
554.67	23634.73
554.84	23683.88
555.00	23735.37
555.17	23786.86
555.33	23721.33
555.50	23618.35
555.67	23779.84
555.83	23737.71
556.00	23737.71
556.16	24037.30
556.33	23854.74
556.50	23997.51
556.66	23896.87
556.83	23578.56
556.99	24091.13
557.16	23674.52
557.32	24070.07
557.49	24027.94
557.65	23997.51
557.82	23981.13
557.98	23562.17
558.15	24034.96
558.32	24283.06
558.48	23882.83
558.65	24144.97
558.81	24112.20
558.98	24105.18
559.14	23988.15
559.31	23651.11
559.47	24009.22
559.64	24339.23
559.80	23866.44
559.97	23896.87
560.13	24130.92
560.30	24095.82
560.46	24140.29
560.63	24388.38
560.79	23702.61
560.96	24027.94
561.12	24072.41
561.29	24287.74
561.45	24243.27
561.61	24126.24
561.78	24102.84
561.94	24510.09
562.11	24116.88
562.27	24329.87
562.44	24430.51
562.60	24306.46
562.77	24133.26
562.93	24212.84
563.10	24599.03
563.26	24498.39
563.42	24622.44
563.59	24287.74
563.75	24446.90
563.92	24233.91
564.08	24144.97
564.24	24276.04
564.41	24065.39
564.57	24327.53
564.74	24512.43
564.90	24376.68
565.07	24416.47
565.23	24575.62
565.39	24208.16
565.56	24423.49
565.72	24236.25
565.88	24325.19
566.05	24163.69
566.21	24191.78
566.38	24451.58
566.54	24240.93
566.70	24437.53
566.87	24680.95
567.03	24453.92
567.19	24397.74
567.36	24446.90
567.52	24341.57
567.68	24898.62
567.85	23936.66
568.01	24622.44
568.17	24222.20
568.34	24341.57
568.50	24622.44
568.66	24533.50
568.83	24357.96
568.99	24496.05
569.15	24341.57
569.32	24112.20
569.48	24027.94
569.64	24292.42
569.81	24659.88
569.97	24470.30
570.13	24458.60
570.30	24395.40
570.46	24592.01
570.62	24559.24
570.78	24386.04
570.95	24673.93
571.11	24254.97
571.27	24334.55
571.43	24383.70
571.60	24587.33
571.76	24449.24
571.92	24739.46
572.09	24737.12
572.25	24622.44
572.41	24638.82
572.57	24287.74
572.74	24582.65
572.90	24219.86
573.06	24421.15
573.22	24313.48
573.38	24835.42
573.55	24531.15
573.71	24797.98
573.87	25041.39
574.03	24657.54
574.20	24364.98
574.36	24203.48
574.52	24519.45
574.68	24390.72
574.84	24329.87
575.01	24489.03
575.17	24577.97
575.33	24273.70
575.49	24624.78
575.65	24512.43
575.82	24526.47
575.98	24381.36
576.14	24568.60
576.30	24484.34
576.46	24320.51
576.62	24500.73
576.79	24704.35
576.95	24643.50
577.11	24224.54
577.27	24783.93
577.43	24524.13
577.59	24566.26
577.75	24596.69
577.92	24428.17
578.08	24325.19
578.24	24346.25
578.40	24833.08
578.56	24781.59
578.72	24615.41
578.88	24837.76
579.04	24847.13
579.21	24545.20
579.37	25013.31
579.53	24985.22
579.69	24608.39
579.85	24390.72
580.01	24524.13
580.17	24259.65
580.33	24594.35
580.49	24573.28
580.65	24739.46
580.82	24575.62
580.98	24439.87
581.14	24744.14
581.30	24311.14
581.46	24500.73
581.62	24376.68
581.78	24383.70
581.94	24641.16
582.10	24645.84
582.26	24393.06
582.42	24484.34
582.58	24393.06
582.74	24350.93
582.90	24570.94
583.06	24730.10
583.22	24379.02
583.38	24566.26
583.54	24517.11
583.70	24322.85
583.86	24575.62
584.02	24346.25
584.18	24666.91
584.34	24767.55
584.50	25027.35
584.66	24673.93
584.82	24531.15
584.98	24863.51
585.14	24313.48
585.30	24627.12
585.46	24842.45
585.62	24575.62
585.78	24807.34
585.94	24620.10
586.10	24545.20
586.26	24641.16
586.42	24989.90
586.58	24716.06
586.74	24734.78
586.90	24381.36
587.06	24526.47
587.22	24636.48
587.38	24587.33
587.54	25041.39
587.70	25010.96
587.86	24584.99
588.02	24781.59
588.18	24739.46
588.34	24758.19
588.49	24603.71
588.65	24472.64
588.81	24723.08
588.97	24760.53
589.13	24805.00
589.29	24659.88
589.45	24638.82
589.61	24816.70
589.77	24655.20
589.93	24886.92
590.08	24503.07
590.24	24795.64
590.40	24489.03
590.56	25039.05
590.72	25090.54
590.88	24746.48
591.04	24751.17
591.20	24676.27
591.35	24886.92
591.51	25170.12
591.67	24964.15
591.83	25198.21
591.99	24922.02
592.15	24657.54
592.31	24851.81
592.46	24837.76
592.62	25125.65
592.78	24734.78
592.94	24793.29
593.10	24727.76
593.26	24898.62
593.41	24716.06
593.57	24891.60
593.73	25020.33
593.89	24884.58
594.05	24987.56
594.20	24751.17
594.36	24547.54
594.52	24814.36
594.68	24739.46
594.84	24772.23
594.99	25015.65
595.15	24788.61
595.31	25032.03
595.47	25170.12
595.62	24858.83
595.78	24655.20
595.94	24840.11
596.10	24936.07
596.25	24898.62
596.41	24933.73
596.57	24797.98
596.73	24664.57
596.88	24678.61
597.04	24903.30
597.20	25078.84
597.36	25242.68
597.51	25158.42
597.67	24800.32
597.83	24985.22
597.99	24968.84
598.14	24563.92
598.30	25238.00
598.46	25006.28
598.61	25003.94
598.77	24996.92
598.93	24711.38
599.09	24966.49
599.24	25116.29
599.40	24772.23
599.56	24893.94
599.71	25017.99
599.87	24891.60
600.03	24587.33
600.18	25025.01
600.34	24538.18
600.50	25088.20
600.65	24737.12
600.81	24891.60
600.97	25050.75
601.12	24966.49
601.28	25003.94
601.44	25172.46
601.59	24917.34
601.75	24783.93
601.91	24821.38
602.06	24884.58
602.22	24809.68
602.37	24561.58
602.53	24828.40
602.69	25083.52
602.84	24968.84
603.00	24872.87
603.16	24978.20
603.31	24669.25
603.47	24863.51
603.62	24526.47
603.78	25039.05
603.94	24652.86
604.09	24765.21
604.25	24720.74
604.40	24800.32
604.56	24919.68
604.71	25165.44
604.87	24545.20
605.03	24765.21
605.18	24858.83
605.34	24840.11
605.49	24318.17
605.65	24699.67
605.80	24290.08
605.96	24765.21
606.12	24451.58
606.27	24641.16
606.43	24847.13
606.58	24505.41
606.74	24826.06
606.89	24491.37
607.05	24805.00
607.20	24638.82
607.36	24662.22
607.51	24592.01
607.67	24467.96
607.82	24159.01
607.98	24217.52
608.13	24531.15
608.29	24575.62
608.44	24812.02
608.60	24411.79
608.75	24882.24
608.91	24636.48
609.06	24421.15
609.22	24620.10
609.37	24285.40
609.53	24613.07
609.68	24173.05
609.84	24306.46
609.99	24877.55
610.15	24512.43
610.30	24500.73
610.46	24254.97
610.61	24439.87
610.76	24559.24
610.92	24308.80
611.07	24222.20
611.23	24446.90
611.38	24107.52
611.54	24414.13
611.69	24451.58
611.84	24091.13
612.00	24500.73
612.15	24341.57
612.31	24631.80
612.46	24489.03
612.62	24414.13
612.77	24107.52
612.92	24634.14
613.08	24379.02
613.23	24159.01
613.39	24294.76
613.54	23990.49
613.69	24016.24
613.85	24189.44
614.00	24114.54
614.15	24079.43
614.31	24044.32
614.46	24217.52
614.62	23995.17
614.77	24128.58
614.92	23608.98
615.08	24034.96
615.23	24030.28
615.38	24224.54
615.54	24020.92
615.69	23506.00
615.84	23667.50
616.00	23934.32
616.15	24290.08
616.30	23990.49
616.46	23955.38
616.61	23896.87
616.76	23800.91
616.92	23814.95
617.07	23704.95
617.22	23440.47
617.37	23929.64
617.53	23995.17
617.68	23922.62
617.83	23541.11
617.99	23992.83
618.14	23667.50
618.29	23807.93
618.45	23520.04
618.60	23606.64
618.75	23667.50
618.90	23702.61
619.06	23597.28
619.21	23522.38
619.36	23623.03
619.51	23281.31
619.67	23501.32
619.82	23552.81
619.97	23836.02
620.12	23555.15
620.28	23545.79
620.43	23655.79
620.58	23747.08
620.73	23381.95
620.89	23618.35
621.04	23749.42
621.19	23824.31
621.34	23489.62
621.49	23367.91
621.65	23447.49
621.80	23482.59
621.95	23173.64
622.10	23520.04
622.25	23527.06
622.41	23391.31
622.56	23323.44
622.71	23384.29
622.86	23391.31
623.01	23232.16
623.16	23283.65
623.32	23281.31
623.47	23257.90
623.62	23356.21
623.77	23068.32
623.92	23316.42
624.07	23016.83
624.23	23084.70
624.38	23145.56
624.53	23173.64
624.68	23136.20
624.83	23087.04
624.98	23271.95
625.13	23283.65
625.29	23035.55
625.44	23075.34
625.59	23009.81
625.74	22895.12
625.89	22848.31
626.04	22888.10
626.19	22906.82
626.34	23070.66
626.49	22876.40
626.65	22939.59
626.80	23044.91
626.95	22700.86
627.10	22965.34
627.25	22977.04
627.40	22970.02
627.55	23023.85
627.70	22958.31
627.85	22738.30
628.00	22698.52
628.15	22478.50
628.30	22852.99
628.45	22473.82
628.60	22712.56
628.76	22906.82
628.91	23002.78
629.06	22757.03
629.21	22686.81
629.36	22551.06
629.51	22553.40
629.66	22455.10
629.81	22469.14
629.96	22731.28
630.11	22771.07
630.26	22787.46
630.41	22422.33
630.56	22431.69
630.71	22448.08
630.86	22539.36
631.01	22494.89
631.16	22696.17
631.31	22242.11
631.46	22370.84
631.61	22553.40
631.76	22625.96
631.91	22347.44
632.06	22267.86
632.21	22085.30
632.36	22424.67
632.51	22008.06
632.66	22497.23
632.81	22139.13
632.96	22581.49
633.10	22483.19
633.25	22490.21
633.40	22085.30
633.55	22352.12
633.70	22190.62
633.85	22363.82
634.00	22019.76
634.15	22377.86
634.30	22260.84
634.45	21933.16
634.60	22401.27
634.75	22321.69
634.90	22176.58
635.05	22101.68
635.19	21884.01
635.34	22307.65
635.49	22314.67
635.64	22113.38
635.79	22082.95
635.94	22223.39
636.09	21759.96
636.24	21678.04
636.39	21823.16
636.53	21874.65
636.68	21795.07
636.83	22080.61
636.98	21872.31
637.13	21825.50
637.28	21851.24
637.43	21795.07
637.57	22089.98
637.72	21577.40
637.87	21937.84
638.02	21542.29
638.17	21909.75
638.32	21596.12
638.46	21570.38
638.61	21774.00
638.76	21479.10
638.91	21544.63
639.06	21621.87
639.20	21743.58
639.35	21809.11
639.50	21626.55
639.65	21734.21
639.80	21699.11
639.94	21483.78
640.09	21544.63
640.24	21752.94
640.39	21186.53
640.54	21312.92
640.68	21563.36
640.83	21528.25
640.98	21397.18
641.13	21301.22
641.27	21453.35
641.42	21535.27
641.57	21799.75
641.72	21603.14
641.86	21521.23
642.01	21661.66
642.16	21645.27
642.31	21057.80
642.45	21469.73
642.60	21043.76
642.75	21362.07
642.90	21336.32
643.04	21200.57
643.19	21036.74
643.34	21252.06
643.48	20886.94
643.63	21186.53
643.78	21479.10
643.93	21315.26
644.07	21158.44
644.22	21205.25
644.37	21156.10
644.51	21263.77
644.66	21151.42
644.81	20886.94
644.95	21106.95
645.10	20968.86
645.25	21041.42
645.39	21050.78
645.54	21282.49
645.69	20929.07
645.83	21303.56
645.98	21305.90
646.13	21628.89
646.27	21137.38
646.42	20919.71
646.57	20905.66
646.71	21142.06
646.86	20741.83
647.00	21039.08
647.15	21240.36
647.30	21083.55
647.44	20769.91
647.59	20961.84
647.74	21247.38
647.88	21010.99
648.03	20905.66
648.17	21137.38
648.32	21149.08
648.47	21174.83
648.61	20769.91
648.76	20786.30
648.90	20875.24
649.05	20821.41
649.20	20601.40
649.34	20886.94
649.49	20397.77
649.63	20723.10
649.78	20580.33
649.92	20678.63
650.07	20893.96
650.21	20975.88
650.36	20989.92
650.51	20477.35
650.65	21359.73
650.80	20769.91
650.94	20692.68
651.09	20517.14
651.23	20802.68
651.38	20524.16
651.52	20526.50
651.67	20416.49
651.81	20699.70
651.96	20697.36
652.10	20596.71
652.25	20966.52
652.39	20615.44
652.54	20603.74
652.68	20664.59
652.83	20711.40
652.97	20760.55
653.12	20561.61
653.26	20428.20
653.41	20568.63
653.55	20545.22
653.70	20411.81
653.84	20414.15
653.99	20643.52
654.13	20428.20
654.27	20374.36
654.42	20348.62
654.56	20224.57
654.71	20407.13
654.85	20308.83
655.00	20465.64
655.14	20531.18
655.29	20350.96
655.43	20105.20
655.57	20203.50
655.72	20292.44
655.86	20152.01
656.01	20390.75
656.15	20144.99
656.30	20233.93
656.44	20159.03
656.58	20065.41
656.73	20027.96
656.87	20032.65
657.01	20042.01
657.16	20367.34
657.30	20170.74
657.45	20049.03
657.59	20065.41
657.73	19927.32
657.88	19843.06
658.02	20116.90
658.16	20030.30
658.31	19927.32
658.45	20009.24
658.60	19779.87
658.74	20013.92
658.88	19875.83
659.03	20034.99
659.17	20135.63
659.31	19714.33
659.46	19840.72
659.60	20056.05
659.74	20046.69
659.89	19587.94
660.03	19665.18
660.17	19812.63
660.32	19583.26
660.46	19463.90
660.60	19601.99
660.74	19583.26
660.89	19714.33
661.03	19601.99
661.17	19632.41
661.32	19381.98
661.46	19503.68
661.60	19311.76
661.74	19487.30
661.89	19358.57
662.03	19564.54
662.17	19297.72
662.31	19524.75
662.46	19421.77
662.60	19206.44
662.74	19407.72
662.88	19215.80
663.03	19183.03
663.17	18941.96
663.31	19058.98
663.45	19267.29
663.60	19225.16
663.74	18913.87
663.88	18848.33
664.02	19215.80
664.17	19049.62
664.31	19096.43
664.45	18991.11
664.59	19199.41
664.73	19147.92
664.88	18867.06
665.02	18497.25
665.16	18593.22
665.30	18803.86
665.44	18391.93
665.59	18679.82
665.73	18466.83
665.87	18532.36
666.01	18515.98
666.15	18796.84
666.29	18738.33
666.44	18904.51
666.58	18574.49
666.72	18759.39
666.86	18539.38
667.00	18752.37
667.14	18525.34
667.28	18597.90
667.43	18356.82
667.57	18511.30
667.71	18274.90
667.85	18391.93
667.99	18328.74
668.13	18136.81
668.27	18307.67
668.41	18249.16
668.56	18045.53
668.70	18384.91
668.84	18412.99
668.98	18197.67
669.12	18207.03
669.26	18031.49
669.40	17958.93
669.54	18057.23
669.68	17820.84
669.82	17788.07
669.96	17912.12
670.10	17781.05
670.25	17776.37
670.39	17755.30
670.53	17598.49
670.67	17619.55
670.81	17755.30
670.95	17706.15
671.09	17359.75
671.23	17998.72
671.37	17631.26
671.51	17921.48
671.65	17654.66
671.79	17617.21
671.93	17401.88
672.07	17692.11
672.21	17631.26
672.35	17240.39
672.49	17289.54
672.63	17207.62
672.77	17067.19
672.91	17149.11
673.05	17097.61
673.19	16863.56
673.33	17048.46
673.47	16917.39
673.61	17193.58
673.75	16978.25
673.89	16879.94
674.03	17132.72
674.17	16924.41
674.31	16945.48
674.45	16681.00
674.59	17055.48
674.73	16905.69
674.87	16589.72
675.01	16709.08
675.15	16622.48
675.29	16685.68
675.43	16861.22
675.56	16582.70
675.70	16594.40
675.84	16893.99
675.98	16130.97
676.12	16624.83
676.26	16676.32
676.40	16512.48
676.54	16402.47
676.68	16393.11
676.82	16262.04
676.96	16226.93
677.10	16318.22
677.23	15873.51
677.37	15894.58
677.51	15981.18
677.65	16004.58
677.79	15894.58
677.93	15999.90
678.07	15829.04
678.21	15683.93
678.34	15676.91
678.48	15721.38
678.62	15477.96
678.76	15569.24
678.90	15417.11
679.04	15445.20
679.18	15447.54
679.31	15332.85
679.45	15454.56
679.59	15171.35
679.73	15288.38
679.87	15269.66
680.00	15264.97
680.14	15161.99
680.28	15012.20
680.42	15056.67
680.56	14965.39
680.70	14932.62
680.83	14710.27
680.97	14878.79
681.11	14745.38
681.25	14745.38
681.39	14829.63
681.52	14679.84
681.66	14637.71
681.80	14469.19
681.94	14427.06
682.07	14576.86
682.21	14527.71
682.35	14361.53
682.49	14347.48
682.62	14389.61
682.76	14377.91
682.90	14228.12
683.04	14324.08
683.17	14190.67
683.31	14466.85
683.45	14401.32
683.59	14015.13
683.72	14080.66
683.86	14221.10
684.00	13980.02
684.13	14005.77
684.27	13923.85
684.41	13682.77
684.55	13752.99
684.68	13556.38
684.82	13551.70
684.96	13348.08
685.09	13600.85
685.23	13614.90
685.37	13500.21
685.50	13568.09
685.64	13394.89
685.78	13268.50
685.91	13420.63
686.05	13589.15
686.19	13366.80
686.32	13055.51
686.46	12924.44
686.60	12891.67
686.73	13092.96
686.87	12851.88
687.01	12964.23
687.14	12734.85
687.28	12950.18
687.42	12805.07
687.55	12666.98
687.69	12786.35
687.82	12671.66
687.96	12482.08
688.10	12545.27
688.23	12643.57
688.37	12573.36
688.50	12449.31
688.64	12617.83
688.78	12294.83
688.91	12564.00
689.05	12271.43
689.18	12339.30
689.32	12147.38
689.46	12081.85
689.59	12383.77
689.73	12067.80
689.86	11922.69
690.00	11815.02
690.13	12278.45
690.27	11763.53
690.41	12091.21
690.54	11646.51
690.68	11744.81
690.81	11873.54
690.95	11854.81
691.08	11700.34
691.22	11733.11
691.35	11705.02
691.49	11466.28
691.62	11370.32
691.76	11290.74
691.89	11583.31
692.03	11377.34
692.16	11449.90
692.30	10974.77
692.43	11290.74
692.57	11353.94
692.70	11253.30
692.84	11145.63
692.97	11124.57
693.11	11267.34
693.24	11000.52
693.38	11002.86
693.51	10960.73
693.65	10979.45
693.78	10956.05
693.92	10920.94
694.05	10658.80
694.19	10700.93
694.32	10668.16
694.45	10649.44
694.59	10410.70
694.72	10518.37
694.86	10417.72
694.99	10289.00
695.13	10228.14
695.26	10347.51
695.39	10497.30
695.53	10286.65
695.66	10083.03
695.80	10253.89
695.93	10029.20
696.07	10356.87
696.20	10251.55
696.33	10312.40
696.47	10157.92
696.60	10031.54
696.73	10022.17
696.87	9893.44
697.00	9926.21
697.14	9867.70
697.27	9626.62
697.40	9631.30
697.54	9654.71
697.67	9392.57
697.80	9640.67
697.94	9549.39
698.07	9390.23
698.21	9500.23
698.34	9715.56
698.47	9390.23
698.61	9362.14
698.74	9390.23
698.87	9558.75
699.01	9385.55
699.14	9170.22
699.27	9097.66
699.40	9310.65
699.54	9186.60
699.67	9032.13
699.80	9032.13
699.94	8952.55
700.07	8912.76
700.20	8709.13
700.34	8844.88
700.47	8858.93
700.60	8858.93
700.73	8898.72
700.87	8730.20
701.00	8521.89
701.13	8709.13
701.26	8966.59
701.40	8634.24
701.53	8737.22
701.66	8748.92
701.79	8634.24
701.93	8786.37
702.06	8594.45
702.19	8365.07
702.32	8388.48
702.46	8341.67
702.59	8168.47
702.72	8131.02
702.85	8056.12
702.99	8084.21
703.12	8135.70
703.25	7901.65
703.38	7906.33
703.51	8088.89
703.65	8112.30
703.78	7943.78
703.91	7990.59
704.04	7960.16
704.17	7801.01
704.31	7850.16
704.44	7742.49
704.57	7843.14
704.70	7793.98
704.83	7508.44
704.96	7658.23
705.10	7606.74
705.23	7641.85
>>>>>End Processed Spectral Data<<<<<
