SpectraSuite Data File
++++++++++++++++++++++++++++++++++++
Date: Fri Oct 04 11:39:12 GMT-05:00 2013
User: price-jones
Dark Spectrum Present: No
Reference Spectrum Present: No
Number of Sampled Component Spectra: 1
Spectrometers: USB2+H05261
Integration Time (usec): 100000 (USB2+H05261)
Spectra Averaged: 1 (USB2+H05261)
Boxcar Smoothing: 0 (USB2+H05261)
Correct for Electrical Dark: No (USB2+H05261)
Strobe/Lamp Enabled: No (USB2+H05261)
Correct for Detector Non-linearity: No (USB2+H05261)
Correct for Stray Light: No (USB2+H05261)
Number of Pixels in Processed Spectrum: 2048
>>>>>Begin Processed Spectral Data<<<<<
365.73	30.43
365.92	30.43
366.12	30.43
366.32	0.00
366.52	18.72
366.72	0.00
366.91	0.00
367.11	0.00
367.31	0.00
367.51	0.00
367.70	0.00
367.90	0.00
368.10	0.00
368.30	0.00
368.49	0.00
368.69	0.00
368.89	0.00
369.09	0.00
369.28	0.00
369.48	35.11
369.68	0.00
369.87	0.00
370.07	25.75
370.27	28.09
370.47	56.17
370.66	88.94
370.86	215.33
371.06	93.62
371.25	210.65
371.45	212.99
371.65	105.32
371.84	231.71
372.04	133.41
372.24	215.33
372.44	222.35
372.63	227.03
372.83	224.69
373.03	184.90
373.22	201.29
373.42	145.11
373.62	205.97
373.81	245.76
374.01	238.73
374.21	250.44
374.40	236.39
374.60	215.33
374.79	180.22
374.99	243.42
375.19	180.22
375.38	278.52
375.58	245.76
375.78	266.82
375.97	297.25
376.17	280.86
376.37	262.14
376.56	315.97
376.76	243.42
376.95	262.14
377.15	280.86
377.35	325.33
377.54	273.84
377.74	297.25
377.93	215.33
378.13	220.01
378.33	308.95
378.52	297.25
378.72	241.08
378.91	227.03
379.11	217.67
379.31	217.67
379.50	252.78
379.70	280.86
379.89	243.42
380.09	250.44
380.28	271.50
380.48	236.39
380.68	180.22
380.87	140.43
381.07	299.59
381.26	250.44
381.46	292.57
381.65	285.55
381.85	273.84
382.04	280.86
382.24	189.58
382.43	227.03
382.63	217.67
382.83	220.01
383.02	306.61
383.22	241.08
383.41	196.60
383.61	250.44
383.80	285.55
384.00	337.04
384.19	208.31
384.39	292.57
384.58	287.89
384.78	362.78
384.97	334.70
385.17	292.57
385.36	276.18
385.56	311.29
385.75	266.82
385.95	203.63
386.14	278.52
386.34	313.63
386.53	255.12
386.72	259.80
386.92	304.27
387.11	299.59
387.31	297.25
387.50	236.39
387.70	227.03
387.89	304.27
388.09	271.50
388.28	278.52
388.48	306.61
388.67	325.33
388.86	308.95
389.06	353.42
389.25	306.61
389.45	386.19
389.64	313.63
389.84	318.31
390.03	322.99
390.22	304.27
390.42	374.49
390.61	397.89
390.81	411.93
391.00	325.33
391.19	362.78
391.39	444.70
391.58	348.74
391.78	346.40
391.97	341.72
392.16	411.93
392.36	402.57
392.55	379.17
392.75	353.42
392.94	423.64
393.13	400.23
393.33	355.76
393.52	351.08
393.71	428.32
393.91	437.68
394.10	327.68
394.29	290.23
394.49	383.85
394.68	409.59
394.88	458.74
395.07	383.85
395.26	411.93
395.46	372.15
395.65	397.89
395.84	458.74
396.04	449.38
396.23	479.81
396.42	332.36
396.62	379.17
396.81	444.70
397.00	444.70
397.19	535.98
397.39	449.38
397.58	507.90
397.77	484.49
397.97	421.30
398.16	512.58
398.35	444.70
398.55	433.00
398.74	430.66
398.93	500.87
399.12	435.34
399.32	400.23
399.51	475.13
399.70	550.03
399.90	531.30
400.09	430.66
400.28	514.92
400.47	451.72
400.67	456.40
400.86	545.34
401.05	503.22
401.24	512.58
401.44	547.69
401.63	484.49
401.82	547.69
402.01	470.45
402.21	545.34
402.40	512.58
402.59	559.39
402.78	613.22
402.97	573.43
403.17	514.92
403.36	540.66
403.55	564.07
403.74	592.16
403.93	561.73
404.13	585.13
404.32	592.16
404.51	599.18
404.70	645.99
404.89	594.50
405.09	627.26
405.28	655.35
405.47	582.79
405.66	624.92
405.85	575.77
406.05	631.94
406.24	638.97
406.43	711.52
406.62	692.80
406.81	711.52
407.00	704.50
407.20	643.65
407.39	566.41
407.58	706.84
407.77	734.93
407.96	709.18
408.15	660.03
408.34	615.56
408.54	718.54
408.73	732.59
408.92	678.76
409.11	791.10
409.30	704.50
409.49	741.95
409.68	772.38
409.87	765.36
410.07	774.72
410.26	760.67
410.45	711.52
410.64	744.29
410.83	823.87
411.02	833.23
411.21	814.51
411.40	737.27
411.59	795.78
411.78	741.95
411.98	800.46
412.17	828.55
412.36	809.83
412.55	786.42
412.74	868.34
412.93	910.47
413.12	940.90
413.31	950.26
413.50	812.17
413.69	868.34
413.88	985.37
414.07	837.91
414.26	868.34
414.45	844.93
414.64	866.00
414.83	1004.09
415.02	917.49
415.22	1006.43
415.41	1013.45
415.60	961.96
415.79	1050.90
415.98	1071.97
416.17	978.34
416.36	1015.79
416.55	1006.43
416.74	1008.77
416.93	1022.81
417.12	1069.62
417.31	1111.75
417.50	1039.20
417.69	1163.25
417.88	1083.67
418.07	1020.47
418.26	1057.92
418.45	1123.46
418.64	1207.72
418.83	1163.25
419.02	1160.91
419.21	1095.37
419.39	1123.46
419.58	1174.95
419.77	1086.01
419.96	1181.97
420.15	1109.41
420.34	1170.27
420.53	1137.50
420.72	1247.51
420.91	1196.01
421.10	1240.48
421.29	1263.89
421.48	1310.70
421.67	1240.48
421.86	1205.38
422.05	1196.01
422.24	1203.04
422.43	1163.25
422.61	1172.61
422.80	1299.00
422.99	1268.57
423.18	1203.04
423.37	1287.29
423.56	1294.32
423.75	1174.95
423.94	1296.66
424.13	1170.27
424.32	1247.51
424.50	1322.40
424.69	1254.53
424.88	1287.29
425.07	1303.68
425.26	1247.51
425.45	1245.16
425.64	1324.74
425.83	1338.79
426.01	1350.49
426.20	1345.81
426.39	1343.47
426.58	1270.91
426.77	1205.38
426.96	1331.76
427.15	1341.13
427.33	1310.70
427.52	1364.53
427.71	1303.68
427.90	1434.75
428.09	1413.68
428.28	1371.55
428.46	1416.02
428.65	1430.07
428.84	1437.09
429.03	1451.13
429.22	1207.72
429.40	1406.66
429.59	1465.18
429.78	1350.49
429.97	1362.19
430.16	1334.11
430.34	1413.68
430.53	1451.13
430.72	1378.58
430.91	1519.01
431.10	1455.81
431.28	1448.79
431.47	1497.94
431.66	1565.82
431.85	1547.09
432.03	1540.07
432.22	1633.69
432.41	1664.12
432.60	1479.22
432.79	1547.09
432.97	1582.20
433.16	1596.25
433.35	1427.73
433.54	1521.35
433.72	1540.07
433.91	1537.73
434.10	1556.46
434.28	1584.54
434.47	1633.69
434.66	1537.73
434.85	1621.99
435.03	1607.95
435.22	1736.68
435.41	1991.80
435.59	1907.54
435.78	1785.83
435.97	1720.29
436.16	1750.72
436.34	1586.88
436.53	1685.19
436.72	1888.81
436.90	1732.00
437.09	1682.85
437.28	1633.69
437.46	1729.66
437.65	1645.40
437.84	1701.57
438.02	1776.47
438.21	1755.40
438.40	1727.32
438.58	1788.17
438.77	1743.70
438.96	1699.23
439.14	1795.19
439.33	1774.13
439.52	1870.09
439.70	1877.11
439.89	1942.64
440.08	1886.47
440.26	1799.87
440.45	1830.30
440.63	1923.92
440.82	1912.22
441.01	1872.43
441.19	1933.28
441.38	1956.69
441.57	1968.39
441.75	2038.61
441.94	1961.37
442.12	1984.77
442.31	2008.18
442.50	2090.10
442.68	2097.12
442.87	2080.74
443.05	2132.23
443.24	2087.76
443.43	2078.40
443.61	2017.54
443.80	2232.87
443.98	2036.27
444.17	1881.79
444.35	2216.49
444.54	2064.35
444.73	2054.99
444.91	2040.95
445.10	2076.06
445.28	2183.72
445.47	2118.18
445.65	1930.94
445.84	2188.40
446.02	2085.42
446.21	2190.74
446.39	2134.57
446.58	2188.40
446.77	2174.36
446.95	2146.27
447.14	2176.70
447.32	2183.72
447.51	2043.29
447.69	2195.42
447.88	2139.25
448.06	2204.78
448.25	2162.66
448.43	2172.02
448.62	2036.27
448.80	2129.89
448.99	2148.61
449.17	2125.21
449.36	2188.40
449.54	2235.21
449.73	2214.15
449.91	2204.78
450.10	2338.20
450.28	2333.51
450.46	2368.62
450.65	2193.08
450.83	2239.89
451.02	2331.17
451.20	2349.90
451.39	2232.87
451.57	2167.34
451.76	2270.32
451.94	2230.53
452.13	2335.85
452.31	2305.43
452.49	2272.66
452.68	2347.56
452.86	2338.20
453.05	2392.03
453.23	2328.83
453.42	2270.32
453.60	2396.71
453.78	2385.01
453.97	2399.05
454.15	2385.01
454.34	2382.67
454.52	2406.07
454.70	2490.33
454.89	2312.45
455.07	2317.13
455.26	2335.85
455.44	2485.65
455.62	2401.39
455.81	2434.16
455.99	2530.12
456.17	2401.39
456.36	2544.16
456.54	2492.67
456.73	2516.08
456.91	2572.25
457.09	2593.31
457.28	2588.63
457.46	2574.59
457.64	2654.17
457.83	2520.76
458.01	2605.02
458.19	2668.21
458.38	2572.25
458.56	2635.44
458.74	2651.83
458.93	2546.50
459.11	2668.21
459.29	2593.31
459.48	2715.02
459.66	2787.58
459.84	2715.02
460.03	2810.98
460.21	2733.75
460.39	2708.00
460.57	2736.09
460.76	2682.25
460.94	2808.64
461.12	2731.41
461.31	2775.88
461.49	2792.26
461.67	2698.64
461.85	2806.30
462.04	2708.00
462.22	2871.84
462.40	2822.69
462.59	2991.20
462.77	2867.16
462.95	2991.20
463.13	2820.35
463.32	2888.22
463.50	2899.92
463.68	2846.09
463.86	2892.90
464.05	2953.76
464.23	2911.63
464.41	2878.86
464.59	2782.90
464.78	2867.16
464.96	2979.50
465.14	2911.63
465.32	2995.89
465.50	2991.20
465.69	3038.02
465.87	3028.65
466.05	3016.95
466.23	2871.84
466.41	2981.84
466.60	3012.27
466.78	3117.59
466.96	3068.44
467.14	2984.18
467.32	3157.38
467.51	3005.25
467.69	2970.14
467.87	3021.63
468.05	3133.98
468.23	3129.30
468.41	3080.14
468.60	3201.85
468.78	3110.57
468.96	3063.76
469.14	3070.78
469.32	3133.98
469.50	3077.80
469.69	3311.86
469.87	3185.47
470.05	3194.83
470.23	3192.49
470.41	3171.43
470.59	3204.19
470.77	3232.28
470.95	3096.53
471.14	3185.47
471.32	3328.24
471.50	3290.79
471.68	3370.37
471.86	3267.39
472.04	3243.98
472.22	3440.59
472.40	3325.90
472.58	3363.35
472.77	3358.67
472.95	3349.31
473.13	3513.14
473.31	3426.54
473.49	3384.41
473.67	3421.86
473.85	3515.48
474.03	3562.30
474.21	3487.40
474.39	3489.74
474.57	3658.26
474.75	3543.57
474.93	3545.91
475.12	3562.30
475.30	3590.38
475.48	3665.28
475.66	3700.39
475.84	3611.45
476.02	3548.25
476.20	3705.07
476.38	3789.33
476.56	3786.99
476.74	3847.84
476.92	3761.24
477.10	3798.69
477.28	3943.80
477.46	3854.86
477.64	3988.27
477.82	3929.76
478.00	4109.98
478.18	3861.88
478.36	4098.28
478.54	4016.36
478.72	4079.55
478.90	4107.64
479.08	4189.56
479.26	4248.07
479.44	4182.54
479.62	4081.89
479.80	4271.48
479.98	4360.42
480.16	4365.10
480.34	4470.42
480.52	4388.50
480.70	4308.93
480.88	4472.76
481.06	4430.63
481.24	4486.81
481.41	4416.59
481.59	4596.81
481.77	4793.42
481.95	4741.93
482.13	4578.09
482.31	4716.18
482.49	4648.30
482.67	4847.25
482.85	4805.12
483.03	4793.42
483.21	4903.42
483.39	4884.70
483.57	4863.63
483.74	5013.43
483.92	5041.51
484.10	4973.64
484.28	5142.16
484.46	5163.22
484.64	5254.50
484.82	5146.84
485.00	5317.70
485.18	5256.84
485.35	5385.57
485.53	5397.28
485.71	5500.26
485.89	5242.80
486.07	5493.24
486.25	5518.98
486.43	5713.25
486.61	5626.65
486.78	5636.01
486.96	5781.12
487.14	5736.65
487.32	5769.42
487.50	5760.06
487.68	5788.14
487.85	6047.94
488.03	6031.56
488.21	6005.81
488.39	6036.24
488.57	6054.97
488.75	6141.57
488.92	6331.15
489.10	6167.31
489.28	6476.26
489.46	6434.13
489.64	6312.42
489.81	6448.18
489.99	6471.58
490.17	6455.20
490.35	6712.66
490.53	6539.46
490.70	6511.37
490.88	6623.72
491.06	6693.93
491.24	6504.35
491.41	6782.87
491.59	6883.52
491.77	6787.55
491.95	6801.60
492.13	7103.53
492.30	6888.20
492.48	7007.56
492.66	6960.75
492.84	7040.33
493.01	7176.08
493.19	7190.13
493.37	7302.47
493.54	7269.70
493.72	7185.44
493.90	7412.48
494.08	7321.20
494.25	7403.11
494.43	7527.16
494.61	7433.54
494.79	7559.93
494.96	7375.03
495.14	7492.05
495.32	7793.98
495.49	7772.92
495.67	7735.47
495.85	7712.07
496.02	7707.38
496.20	7974.21
496.38	7737.81
496.55	7791.64
496.73	8025.70
496.91	7974.21
497.09	8023.36
497.26	8056.12
497.44	8095.91
497.62	8154.43
497.79	8194.22
497.97	8119.32
498.14	8273.79
498.32	8327.63
498.50	8397.84
498.67	8348.69
498.85	8573.38
499.03	8533.59
499.20	8514.87
499.38	8587.43
499.56	8606.15
499.73	8655.30
499.91	8713.81
500.08	8566.36
500.26	8594.45
500.44	8704.45
500.61	8592.11
500.79	8659.98
500.97	8723.18
501.14	8648.28
501.32	8877.65
501.49	8945.53
501.67	9062.55
501.84	9191.28
502.02	8826.16
502.20	9020.42
502.37	9069.58
502.55	8980.64
502.72	8945.53
502.90	9228.73
503.07	8938.51
503.25	9163.20
503.43	9198.31
503.60	9249.80
503.78	9081.28
503.95	9294.27
504.13	9329.38
504.30	9465.13
504.48	9294.27
504.65	9509.60
504.83	9352.78
505.01	9479.17
505.18	9472.15
505.36	9509.60
505.53	9596.20
505.71	9462.79
505.88	9647.69
506.06	9664.07
506.23	9724.93
506.41	9547.05
506.58	9797.48
506.76	9813.87
506.93	9736.63
507.11	9696.84
507.28	9645.35
507.46	9844.29
507.63	9874.72
507.81	10200.05
507.98	9820.89
508.16	10029.20
508.33	9863.02
508.50	9888.76
508.68	10033.88
508.85	10026.86
509.03	10272.61
509.20	10153.24
509.38	10457.51
509.55	10296.02
509.73	10480.92
509.90	10209.42
510.08	10186.01
510.25	10289.00
510.42	10347.51
510.60	10466.88
510.77	10431.77
510.95	10637.73
511.12	10380.28
511.30	10408.36
511.47	10476.24
511.64	10560.50
511.82	10857.75
511.99	10626.03
512.17	10782.85
512.34	10539.43
512.51	10775.83
512.69	10637.73
512.86	10621.35
513.04	10747.74
513.21	10738.38
513.38	10785.19
513.56	11131.59
513.73	10885.83
513.90	10927.96
514.08	10789.87
514.25	10946.69
514.43	11028.60
514.60	10977.11
514.77	10946.69
514.95	11080.10
515.12	10951.37
515.29	11000.52
515.47	11197.12
515.64	11091.80
515.81	11152.65
515.99	11225.21
516.16	11185.42
516.33	11314.15
516.51	11222.87
516.68	11272.02
516.85	11201.80
517.03	11267.34
517.20	11391.39
517.37	11424.15
517.54	11480.33
517.72	11499.05
517.89	11534.16
518.06	11414.79
518.24	11538.84
518.41	11433.52
518.58	11562.25
518.75	11693.32
518.93	11562.25
519.10	11527.14
519.27	11702.68
519.45	11723.74
519.62	11534.16
519.79	11763.53
519.96	11887.58
520.14	11864.18
520.31	11674.59
520.48	12051.42
520.65	11623.10
520.83	11808.00
521.00	11714.38
521.17	11751.83
521.34	12058.44
521.52	11716.72
521.69	12046.74
521.86	11864.18
522.03	11918.01
522.20	12116.95
522.38	12154.40
522.55	12416.54
522.72	12196.53
522.89	12348.67
523.07	12348.67
523.24	12231.64
523.41	12439.95
523.58	12332.28
523.75	12299.52
523.92	12358.03
524.10	12116.95
524.27	12287.81
524.44	12318.24
524.61	12734.85
524.78	12793.37
524.96	12510.16
525.13	12594.42
525.30	12540.59
525.47	12636.55
525.64	12547.61
525.81	12624.85
525.98	12559.31
526.16	12549.95
526.33	12613.15
526.50	12851.88
526.67	12627.19
526.84	12636.55
527.01	12706.77
527.18	12720.81
527.36	12833.16
527.53	12690.38
527.70	13076.57
527.87	12929.12
528.04	12980.61
528.21	12940.82
528.38	12910.40
528.55	13057.85
528.72	13046.15
528.89	12931.46
529.07	12688.04
529.24	12812.09
529.41	13083.59
529.58	13074.23
529.75	13111.68
529.92	13050.83
530.09	13165.51
530.26	13256.79
530.43	13224.03
530.60	13242.75
530.77	13298.92
530.94	13193.60
531.11	13144.45
531.28	13144.45
531.46	13404.25
531.63	13392.55
531.80	13282.54
531.97	13476.80
532.14	13462.76
532.31	13570.43
532.48	13310.63
532.65	13207.64
532.82	13282.54
532.99	13411.27
533.16	13458.08
533.33	13399.57
533.50	13717.88
533.67	13760.01
533.84	13579.79
534.01	13270.84
534.18	13455.74
534.35	13540.00
534.52	13408.93
534.69	13479.15
534.86	13696.82
535.03	13708.52
535.20	13722.56
535.37	13886.40
535.54	13689.79
535.71	13675.75
535.88	13872.36
536.05	14197.69
536.22	13558.72
536.38	13900.44
536.55	13916.83
536.72	14083.00
536.89	13806.82
537.06	13963.64
537.23	14225.78
537.40	13745.97
537.57	14090.02
537.74	13774.05
537.91	14136.84
538.08	14193.01
538.25	13605.53
538.42	14083.00
538.59	14005.77
538.75	13888.74
538.92	13989.38
539.09	14181.31
539.26	14246.84
539.43	14310.04
539.60	14272.59
539.77	14045.55
539.94	14373.23
540.11	14090.02
540.28	14324.08
540.44	14347.48
540.61	14506.64
540.78	14249.18
540.95	14398.98
541.12	14345.14
541.29	14520.68
541.46	14506.64
541.62	14621.33
541.79	14932.62
541.96	14270.25
542.13	14607.28
542.30	14560.47
542.47	14979.43
542.63	14785.16
542.80	14546.43
542.97	14956.02
543.14	15019.22
543.31	14916.23
543.48	14946.66
543.64	14864.74
543.81	14876.44
543.98	14897.51
544.15	14913.89
544.32	14881.13
544.48	15073.05
544.65	14944.32
544.82	14913.89
544.99	14815.59
545.16	14993.47
545.32	14778.14
545.49	15307.10
545.66	15459.24
545.83	15658.18
546.00	15704.99
546.16	15047.30
546.33	15089.43
546.50	14904.53
546.67	15150.29
546.83	14698.56
547.00	15241.57
547.17	15007.52
547.34	14904.53
547.50	14923.26
547.67	15159.65
547.84	15400.72
548.00	14930.28
548.17	14881.13
548.34	15236.89
548.51	15194.76
548.67	15096.46
548.84	15232.21
549.01	15211.14
549.18	15054.33
549.34	15248.59
549.51	15302.42
549.68	15260.29
549.84	15129.22
550.01	15066.03
550.18	15283.70
550.34	15222.84
550.51	15290.72
550.68	15171.35
550.84	15026.24
551.01	15159.65
551.18	15293.06
551.34	15180.71
551.51	15307.10
551.68	15386.68
551.84	15382.00
552.01	15281.36
552.18	15377.32
552.34	15349.23
552.51	15337.53
552.68	15166.67
552.84	15538.82
553.01	15468.60
553.18	15386.68
553.34	15428.81
553.51	15536.48
553.67	15651.16
553.84	15477.96
554.01	15246.25
554.17	15740.10
554.34	15274.34
554.51	15506.05
554.67	15571.58
554.84	15470.94
555.00	15510.73
555.17	15318.81
555.33	15281.36
555.50	15552.86
555.67	15499.03
555.83	15370.30
556.00	15442.85
556.16	15648.82
556.33	15564.56
556.50	15536.48
556.66	15522.43
556.83	15318.81
556.99	15513.07
557.16	15871.17
557.32	15754.15
557.49	15777.55
557.65	15337.53
557.82	15761.17
557.98	15594.99
558.15	15311.78
558.32	15470.94
558.48	15569.24
558.65	16105.23
558.81	15569.24
558.98	15576.27
559.14	15536.48
559.31	15580.95
559.47	15784.57
559.64	15597.33
559.80	15712.02
559.97	15625.42
560.13	15522.43
560.30	15798.62
560.46	15978.84
560.63	15728.40
560.79	15714.36
560.96	16042.03
561.12	15880.53
561.29	15796.28
561.45	15566.90
561.61	15749.46
561.78	15892.24
561.94	15812.66
562.11	15850.11
562.27	15953.09
562.44	15833.72
562.60	15548.18
562.77	15726.06
562.93	15634.78
563.10	15805.64
563.26	15632.44
563.42	16002.24
563.59	15786.91
563.75	16196.51
563.92	16009.26
564.08	16088.84
564.24	15857.13
564.41	15983.52
564.57	16063.10
564.74	15733.08
564.90	15917.98
565.07	15920.32
565.23	15962.45
565.39	15840.75
565.56	16180.12
565.72	15955.43
565.88	16084.16
566.05	15770.53
566.21	15812.66
566.38	15681.59
566.54	16243.32
566.70	16182.46
566.87	16156.72
567.03	15817.34
567.19	16004.58
567.36	16037.35
567.52	15953.09
567.68	15946.07
567.85	15709.68
568.01	16196.51
568.17	16063.10
568.34	16229.27
568.50	15936.71
568.66	15803.30
568.83	16060.76
568.99	16147.36
569.15	16175.44
569.32	16074.80
569.48	16084.16
569.64	16109.91
569.81	15838.41
569.97	16093.52
570.13	16147.36
570.30	15967.13
570.46	16217.57
570.62	16145.02
570.78	16119.27
570.95	15992.88
571.11	16346.30
571.27	15981.18
571.43	15882.88
571.60	16304.17
571.76	15929.69
571.92	16030.33
572.09	16088.84
572.25	16175.44
572.41	16037.35
572.57	16348.64
572.74	16070.12
572.90	15840.75
573.06	15960.11
573.22	16442.26
573.38	16037.35
573.55	16135.65
573.71	16229.27
573.87	16236.30
574.03	16203.53
574.20	16262.04
574.36	16257.36
574.52	16236.30
574.68	16252.68
574.84	16238.64
575.01	16322.90
575.17	16580.36
575.33	16044.37
575.49	16390.77
575.65	16350.98
575.82	16358.00
575.98	16496.10
576.14	16161.40
576.30	16152.04
576.46	16367.37
576.62	16381.41
576.79	16411.84
576.95	16248.00
577.11	16126.29
577.27	16315.87
577.43	16341.62
577.59	16252.68
577.75	16163.74
577.92	16360.34
578.08	16184.80
578.24	16065.44
578.40	16140.33
578.56	16428.22
578.72	16301.83
578.88	16776.96
579.04	16304.17
579.21	16226.93
579.37	16498.44
579.53	16297.15
579.69	16116.93
579.85	16093.52
580.01	15927.35
580.17	16035.01
580.33	16496.10
580.49	16498.44
580.65	16322.90
580.82	16397.79
580.98	16444.60
581.14	16159.06
581.30	16266.72
581.46	16587.38
581.62	16210.55
581.78	16285.45
581.94	16402.47
582.10	16512.48
582.26	16538.23
582.42	16365.03
582.58	16634.19
582.74	16212.89
582.90	16175.44
583.06	16149.70
583.22	16358.00
583.38	16374.39
583.54	16360.34
583.70	16453.97
583.86	16402.47
584.02	16456.31
584.18	16582.70
584.34	16379.07
584.50	16575.67
584.66	16063.10
584.82	16203.53
584.98	16273.74
585.14	16240.98
585.30	16498.44
585.46	16327.58
585.62	16526.52
585.78	16386.09
585.94	16053.73
586.10	16365.03
586.26	16301.83
586.42	16528.86
586.58	16372.05
586.74	16386.09
586.90	16123.95
587.06	16528.86
587.22	16472.69
587.38	16407.16
587.54	16578.01
587.70	16458.65
587.86	16409.50
588.02	16444.60
588.18	16896.33
588.34	16358.00
588.49	16486.73
588.65	16365.03
588.81	16184.80
588.97	16166.08
589.13	16603.76
589.29	16409.50
589.45	16332.26
589.61	16341.62
589.77	16407.16
589.93	16491.41
590.08	16423.54
590.24	16498.44
590.40	16456.31
590.56	16285.45
590.72	16535.88
590.88	16416.52
591.04	16383.75
591.20	16496.10
591.35	16563.97
591.51	16669.30
591.67	16615.46
591.83	16535.88
591.99	16475.03
592.15	16482.05
592.31	16585.04
592.46	16627.17
592.62	16659.93
592.78	16510.14
592.94	16308.85
593.10	16587.38
593.26	16498.44
593.41	16767.60
593.57	16444.60
593.73	16793.34
593.89	16568.65
594.05	16556.95
594.20	16542.91
594.36	16297.15
594.52	16332.26
594.68	16428.22
594.84	16374.39
594.99	16449.28
595.15	16334.60
595.31	16582.70
595.47	16624.83
595.62	16568.65
595.78	16482.05
595.94	16306.51
596.10	16769.94
596.25	16641.21
596.41	16400.13
596.57	16524.18
596.73	16290.13
596.88	16723.13
597.04	16327.58
597.20	16554.61
597.36	16365.03
597.51	16308.85
597.67	16615.46
597.83	16369.71
597.99	16439.92
598.14	16592.06
598.30	16435.24
598.46	16540.57
598.61	16491.41
598.77	16493.76
598.93	16552.27
599.09	16641.21
599.24	16606.10
599.40	16514.82
599.56	16297.15
599.71	16435.24
599.87	16449.28
600.03	16491.41
600.18	16421.20
600.34	16542.91
600.50	16475.03
600.65	16533.54
600.81	16489.07
600.97	16369.71
601.12	16580.36
601.28	16465.67
601.44	16510.14
601.59	16376.73
601.75	16411.84
601.91	16748.87
602.06	16407.16
602.22	16460.99
602.37	16444.60
602.53	16739.51
602.69	16704.40
602.84	16418.86
603.00	16533.54
603.16	16496.10
603.31	16475.03
603.47	16540.57
603.62	16636.53
603.78	16498.44
603.94	16402.47
604.09	16624.83
604.25	16468.01
604.40	16444.60
604.56	16421.20
604.71	16582.70
604.87	16713.77
605.03	16437.58
605.18	16348.64
605.34	16528.86
605.49	16432.90
605.65	16463.33
605.80	16570.99
605.96	16336.94
606.12	16531.20
606.27	16655.25
606.43	16512.48
606.58	16774.62
606.74	16730.15
606.89	16776.96
607.05	16465.67
607.20	16762.92
607.36	16376.73
607.51	16400.13
607.67	16273.74
607.82	16222.25
607.98	16332.26
608.13	16231.62
608.29	16374.39
608.44	16437.58
608.60	16128.63
608.75	16226.93
608.91	16222.25
609.06	16358.00
609.22	16526.52
609.37	16365.03
609.53	16432.90
609.68	16400.13
609.84	16198.85
609.99	16465.67
610.15	16320.56
610.30	16826.11
610.46	16716.11
610.61	16877.60
610.76	16842.50
610.92	17289.54
611.07	16781.64
611.23	17224.00
611.38	16957.18
611.54	16980.59
611.69	16821.43
611.84	16924.41
612.00	16695.04
612.15	16566.31
612.31	16657.59
612.46	16601.42
612.62	16568.65
612.77	16374.39
612.92	16547.59
613.08	16360.34
613.23	16252.68
613.39	16173.10
613.54	16100.55
613.69	16201.19
613.85	16229.27
614.00	16173.10
614.15	16383.75
614.31	16142.67
614.46	16449.28
614.62	16189.49
614.77	16168.42
614.92	16348.64
615.08	16009.26
615.23	16123.95
615.38	16248.00
615.54	15927.35
615.69	16121.61
615.84	16116.93
616.00	16137.99
616.15	16163.74
616.30	15880.53
616.46	15889.90
616.61	16423.54
616.76	16205.87
616.92	15920.32
617.07	15932.03
617.22	16046.71
617.37	15892.24
617.53	15878.19
617.68	16060.76
617.83	16081.82
617.99	15915.64
618.14	16163.74
618.29	16140.33
618.45	15892.24
618.60	16156.72
618.75	15761.17
618.90	15990.54
619.06	16079.48
619.21	15882.88
619.36	15868.83
619.51	15756.49
619.67	15819.68
619.82	15995.22
619.97	15810.32
620.12	15613.71
620.28	15545.84
620.43	16046.71
620.58	15836.06
620.73	15922.66
620.89	15805.64
621.04	15962.45
621.19	16091.18
621.34	15791.59
621.49	15639.46
621.65	15712.02
621.80	15824.36
621.95	16109.91
622.10	15859.47
622.25	15597.33
622.41	15606.69
622.56	15702.65
622.71	15838.41
622.86	15721.38
623.01	15868.83
623.16	15784.57
623.32	15550.52
623.47	15417.11
623.62	15557.54
623.77	15735.42
623.92	15644.14
624.07	15723.72
624.23	15459.24
624.38	15566.90
624.53	15700.31
624.68	15756.49
624.83	15728.40
624.98	15641.80
625.13	15524.77
625.29	15578.61
625.44	15379.66
625.59	15426.47
625.74	15756.49
625.89	15477.96
626.04	15363.28
626.19	15370.30
626.34	15400.72
626.49	15541.16
626.65	15367.96
626.80	15688.61
626.95	15236.89
627.10	15356.25
627.25	15569.24
627.40	15585.63
627.55	15529.45
627.70	15328.17
627.85	15272.00
628.00	15419.45
628.15	15201.78
628.30	15173.69
628.45	15307.10
628.60	15293.06
628.76	15098.80
628.91	15183.06
629.06	15220.50
629.21	15328.17
629.36	15389.02
629.51	15143.27
629.66	15009.86
629.81	15094.11
629.96	14824.95
630.11	15063.69
630.26	15503.71
630.41	15147.95
630.56	15311.78
630.71	15346.89
630.86	15269.66
631.01	15293.06
631.16	15096.46
631.31	15178.37
631.46	14944.32
631.61	15082.41
631.76	15000.49
631.91	14876.44
632.06	14773.46
632.21	14895.17
632.36	15037.94
632.51	14754.74
632.66	15077.73
632.81	15180.71
632.96	15176.03
633.10	14864.74
633.25	14661.12
633.40	14560.47
633.55	14934.96
633.70	14888.15
633.85	14956.02
634.00	14937.30
634.15	14895.17
634.30	14991.13
634.45	14890.49
634.60	14829.63
634.75	14883.47
634.90	14981.77
635.05	14881.13
635.19	14958.36
635.34	14853.04
635.49	14679.84
635.64	14846.02
635.79	14647.07
635.94	14862.40
636.09	14689.20
636.24	14850.70
636.39	14469.19
636.53	14558.13
636.68	14576.86
636.83	14785.16
636.98	14675.16
637.13	14586.22
637.28	14897.51
637.43	14656.43
637.57	14691.54
637.72	14771.12
637.87	14810.91
638.02	14829.63
638.17	14881.13
638.32	14916.23
638.46	14649.41
638.61	14988.79
638.76	14831.97
638.91	14846.02
639.06	14754.74
639.20	14647.07
639.35	14806.23
639.50	14668.14
639.65	14406.00
639.80	14534.73
639.94	14572.18
640.09	14562.81
640.24	14469.19
640.39	14457.49
640.54	14408.34
640.68	14574.52
640.83	14150.88
640.98	14319.40
641.13	14384.93
641.27	14221.10
641.42	14136.84
641.57	14230.46
641.72	14368.55
641.86	14424.72
642.01	14518.34
642.16	14516.00
642.31	14272.59
642.45	14485.58
642.60	14356.85
642.75	14040.87
642.90	14136.84
643.04	14303.01
643.19	14073.64
643.34	14473.87
643.48	14288.97
643.63	14511.32
643.78	14310.04
643.93	14288.97
644.07	14328.76
644.22	14253.86
644.37	14010.45
644.51	14176.62
644.66	14506.64
644.81	13987.04
644.95	14097.05
645.10	14265.57
645.25	14429.40
645.39	14195.35
645.54	14303.01
645.69	13839.59
645.83	14342.80
645.98	14232.80
646.13	14132.15
646.27	14204.71
646.42	14150.88
646.57	14113.43
646.71	14146.20
646.86	13830.23
647.00	14193.01
647.15	14026.83
647.30	14146.20
647.44	13994.06
647.59	13832.57
647.74	14132.15
647.88	14087.68
648.03	13905.12
648.17	13879.38
648.32	14047.90
648.47	14284.29
648.61	14157.90
648.76	14097.05
648.90	13940.23
649.05	13912.14
649.20	14113.43
649.34	13729.58
649.49	13839.59
649.63	13577.45
649.78	14015.13
649.92	13764.69
650.07	14237.48
650.21	13977.68
650.36	13837.25
650.51	13905.12
650.65	14003.43
650.80	13949.59
650.94	13891.08
651.09	14047.90
651.23	13874.70
651.38	13844.27
651.52	13748.31
651.67	13738.94
651.81	13881.72
651.96	13818.52
652.10	13783.41
652.25	13916.83
652.39	13673.41
652.54	13682.77
652.68	13804.48
652.83	13891.08
652.97	13769.37
653.12	13916.83
653.26	13589.15
653.41	13661.71
653.55	13703.84
653.70	13488.51
653.84	13610.22
653.99	13547.02
654.13	13790.44
654.27	13549.36
654.42	13542.34
654.56	13406.59
654.71	13942.57
654.85	13577.45
655.00	13626.60
655.14	13731.92
655.29	13795.12
655.43	13771.71
655.57	13455.74
655.72	13378.50
655.86	13568.09
656.01	13502.55
656.15	13652.34
656.30	13635.96
656.44	13523.62
656.58	13645.32
656.73	13626.60
656.87	13530.64
657.01	13486.17
657.16	13610.22
657.30	13355.10
657.45	13657.03
657.59	13376.16
657.73	13312.97
657.88	13687.45
658.02	13376.16
658.16	13231.05
658.31	13294.24
658.45	13123.38
658.60	13380.84
658.74	13130.41
658.88	13329.35
659.03	13118.70
659.17	13380.84
659.31	13305.95
659.46	13317.65
659.60	13303.60
659.74	13383.18
659.89	13247.43
660.03	13420.63
660.17	13308.29
660.32	13371.48
660.46	13217.01
660.60	12847.20
660.74	13348.08
660.89	13249.77
661.03	13109.34
661.17	12987.63
661.32	12931.46
661.46	13081.25
661.60	12954.87
661.74	13095.30
661.89	13198.28
662.03	13029.76
662.17	13151.47
662.31	12861.24
662.46	12875.29
662.60	13069.55
662.74	12739.54
662.88	12840.18
663.03	12844.86
663.17	12690.38
663.31	12638.89
663.45	12617.83
663.60	12798.05
663.74	12762.94
663.88	12875.29
664.02	12568.68
664.17	12901.03
664.31	12912.74
664.45	12863.58
664.59	12919.76
664.73	12711.45
664.88	12713.79
665.02	12269.09
665.16	12631.87
665.30	12603.78
665.44	12556.97
665.59	12325.26
665.73	12343.99
665.87	12465.69
666.01	12453.99
666.15	12538.25
666.29	12545.27
666.44	12645.91
666.58	12315.90
666.72	12659.96
666.86	12610.81
667.00	12713.79
667.14	12334.62
667.28	12257.39
667.43	12355.69
667.57	12369.73
667.71	12596.76
667.85	12140.36
667.99	12145.04
668.13	12231.64
668.27	12393.14
668.41	12444.63
668.56	12088.87
668.70	12226.96
668.84	12121.63
668.98	12102.91
669.12	12233.98
669.26	12042.06
669.40	12259.73
669.54	12198.87
669.68	12107.59
669.82	12028.01
669.96	11974.18
670.10	11953.12
670.25	12280.79
670.39	12002.27
670.53	12044.40
670.67	11873.54
670.81	11997.59
670.95	11852.47
671.09	11796.30
671.23	11922.69
671.37	11845.45
671.51	11819.71
671.65	11868.86
671.79	11641.82
671.93	11789.28
672.07	11749.49
672.21	11545.86
672.35	11307.13
672.49	11501.39
672.63	11609.06
672.77	11482.67
672.91	11426.50
673.05	11611.40
673.19	11765.87
673.33	11646.51
673.47	11435.86
673.61	11367.98
673.75	11571.61
673.89	11417.13
674.03	11716.72
674.17	11360.96
674.31	11232.23
674.45	11513.10
674.59	11304.79
674.73	11272.02
674.87	11346.92
675.01	11267.34
675.15	11035.63
675.29	11321.17
675.43	10967.75
675.56	11314.15
675.70	11169.04
675.84	11211.17
675.98	10904.56
676.12	11176.06
676.26	11321.17
676.40	10998.18
676.54	11070.73
676.68	11129.25
676.82	10822.64
676.96	10944.34
677.10	10796.89
677.23	10892.85
677.37	10689.23
677.51	10745.40
677.65	10731.36
677.79	10560.50
677.93	10768.80
678.07	10703.27
678.21	10841.36
678.34	10665.82
678.48	10696.25
678.62	10403.68
678.76	10523.05
678.90	10497.30
679.04	10527.73
679.18	10274.95
679.31	10331.12
679.45	10459.85
679.59	10232.82
679.73	10303.04
679.87	10052.60
680.00	10197.71
680.14	10052.60
680.28	10059.62
680.42	10214.10
680.56	10246.87
680.70	10026.86
680.83	10111.11
680.97	9879.40
681.11	9956.64
681.25	9863.02
681.39	10026.86
681.52	10242.18
681.66	9806.84
681.80	9895.78
681.94	9781.10
682.07	9848.97
682.21	9596.20
682.35	9844.29
682.49	9839.61
682.62	9610.24
682.76	9720.24
682.90	9668.75
683.04	9724.93
683.17	9720.24
683.31	9525.98
683.45	9465.13
683.59	9720.24
683.72	9385.55
683.86	9394.91
684.00	9423.00
684.13	9362.14
684.27	9385.55
684.41	9378.53
684.55	9207.67
684.68	8973.61
684.82	8929.14
684.96	9139.79
685.09	9011.06
685.23	9062.55
685.37	8973.61
685.50	9064.89
685.64	8954.89
685.78	9104.68
685.91	9202.99
686.05	9067.24
686.19	8990.00
686.32	8905.74
686.46	8856.59
686.60	8634.24
686.73	8901.06
686.87	8594.45
687.01	8709.13
687.14	8730.20
687.28	8528.91
687.42	8634.24
687.55	8479.76
687.69	8725.52
687.82	8636.58
687.96	8636.58
688.10	8587.43
688.23	8425.93
688.37	8709.13
688.50	8468.06
688.64	8589.77
688.78	8365.07
688.91	8304.22
689.05	8287.84
689.18	8325.29
689.32	8063.15
689.46	8173.15
689.59	8297.20
689.73	8416.57
689.86	8135.70
690.00	8161.45
690.13	8198.90
690.27	8226.98
690.41	8093.57
690.54	8187.19
690.68	8004.63
690.81	8107.62
690.95	7971.86
691.08	7915.69
691.22	7967.18
691.35	7705.04
691.49	7812.71
691.62	7761.22
691.76	7618.44
691.89	7602.06
692.03	7775.26
692.16	7648.87
692.30	7681.64
692.43	7543.55
692.57	7857.18
692.70	7555.25
692.84	7590.36
692.97	7489.71
693.11	7590.36
693.24	7478.01
693.38	7330.56
693.51	7421.84
693.65	7386.73
693.78	7236.94
693.92	7220.55
694.05	7190.13
694.19	7133.95
694.32	7194.81
694.45	7140.97
694.59	7096.50
694.72	7117.57
694.86	6949.05
694.99	6930.33
695.13	7037.99
695.26	7087.14
695.39	7070.76
695.53	7094.16
695.66	7052.03
695.80	6974.80
695.93	7103.53
696.07	6839.05
696.20	6998.20
696.33	7019.27
696.47	6913.94
696.60	6684.57
696.73	6698.61
696.87	6712.66
697.00	6635.42
697.14	6509.03
697.27	6803.94
697.40	6927.99
697.54	6672.87
697.67	6443.49
697.80	6469.24
697.94	6525.41
698.07	6619.04
698.21	6408.39
698.34	6569.88
698.47	6497.33
698.61	6197.74
698.74	6413.07
698.87	6319.45
699.01	6408.39
699.14	6441.15
699.27	6457.54
699.40	6509.03
699.54	6326.47
699.67	6251.57
699.80	6134.54
699.94	6279.66
700.07	6085.39
700.20	6120.50
700.34	5984.75
700.47	5987.09
700.60	6076.03
700.73	6054.97
700.87	6038.58
701.00	5989.43
701.13	5905.17
701.26	6066.67
701.40	5870.06
701.53	5856.02
701.66	5687.50
701.79	5638.35
701.93	5610.26
702.06	5668.78
702.19	5654.73
702.32	5591.54
702.46	5767.08
702.59	5575.16
702.72	5577.50
702.85	5483.88
702.99	5535.37
703.12	5434.72
703.25	5439.40
703.38	5603.24
703.51	5614.95
703.65	5327.06
703.78	5446.43
703.91	5425.36
704.04	5380.89
704.17	5551.75
704.31	5427.70
704.44	5280.25
704.57	5261.52
704.70	5163.22
704.83	5156.20
704.96	5050.88
705.10	5214.71
705.23	5083.64
>>>>>End Processed Spectral Data<<<<<
