SpectraSuite Data File
++++++++++++++++++++++++++++++++++++
Date: Fri Oct 04 11:40:03 GMT-05:00 2013
User: price-jones
Dark Spectrum Present: No
Reference Spectrum Present: No
Number of Sampled Component Spectra: 1
Spectrometers: USB2+H05261
Integration Time (usec): 100000 (USB2+H05261)
Spectra Averaged: 1 (USB2+H05261)
Boxcar Smoothing: 0 (USB2+H05261)
Correct for Electrical Dark: No (USB2+H05261)
Strobe/Lamp Enabled: No (USB2+H05261)
Correct for Detector Non-linearity: No (USB2+H05261)
Correct for Stray Light: No (USB2+H05261)
Number of Pixels in Processed Spectrum: 2048
>>>>>Begin Processed Spectral Data<<<<<
365.73	46.81
365.92	46.81
366.12	46.81
366.32	4.68
366.52	0.00
366.72	0.00
366.91	0.00
367.11	28.09
367.31	0.00
367.51	0.00
367.70	0.00
367.90	0.00
368.10	0.00
368.30	0.00
368.49	0.00
368.69	0.00
368.89	0.00
369.09	0.00
369.28	0.00
369.48	0.00
369.68	0.00
369.87	0.00
370.07	2.34
370.27	9.36
370.47	28.09
370.66	35.11
370.86	138.09
371.06	138.09
371.25	67.88
371.45	77.24
371.65	145.11
371.84	154.48
372.04	117.03
372.24	114.69
372.44	67.88
372.63	102.98
372.83	72.56
373.03	212.99
373.22	121.71
373.42	124.05
373.62	128.73
373.81	131.07
374.01	166.18
374.21	126.39
374.40	191.92
374.60	114.69
374.79	126.39
374.99	163.84
375.19	152.13
375.38	201.29
375.58	114.69
375.78	163.84
375.97	184.90
376.17	175.54
376.37	114.69
376.56	184.90
376.76	196.60
376.95	177.88
377.15	184.90
377.35	166.18
377.54	198.95
377.74	114.69
377.93	117.03
378.13	194.26
378.33	163.84
378.52	126.39
378.72	170.86
378.91	198.95
379.11	133.41
379.31	124.05
379.50	152.13
379.70	112.35
379.89	145.11
380.09	140.43
380.28	138.09
380.48	175.54
380.68	126.39
380.87	124.05
381.07	117.03
381.26	163.84
381.46	222.35
381.65	147.45
381.85	161.50
382.04	201.29
382.24	124.05
382.43	114.69
382.63	112.35
382.83	77.24
383.02	191.92
383.22	215.33
383.41	124.05
383.61	149.79
383.80	152.13
384.00	124.05
384.19	63.19
384.39	182.56
384.58	163.84
384.78	191.92
384.97	138.09
385.17	138.09
385.36	154.48
385.56	266.82
385.75	187.24
385.95	173.20
386.14	154.48
386.34	175.54
386.53	177.88
386.72	124.05
386.92	238.73
387.11	161.50
387.31	222.35
387.50	173.20
387.70	191.92
387.89	161.50
388.09	114.69
388.28	152.13
388.48	187.24
388.67	140.43
388.86	184.90
389.06	177.88
389.25	191.92
389.45	173.20
389.64	210.65
389.84	210.65
390.03	114.69
390.22	212.99
390.42	159.16
390.61	173.20
390.81	131.07
391.00	170.86
391.19	276.18
391.39	229.37
391.58	205.97
391.78	191.92
391.97	138.09
392.16	175.54
392.36	203.63
392.55	215.33
392.75	250.44
392.94	184.90
393.13	196.60
393.33	189.58
393.52	161.50
393.71	224.69
393.91	234.05
394.10	196.60
394.29	205.97
394.49	149.79
394.68	299.59
394.88	257.46
395.07	159.16
395.26	175.54
395.46	278.52
395.65	198.95
395.84	257.46
396.04	271.50
396.23	271.50
396.42	248.10
396.62	231.71
396.81	231.71
397.00	210.65
397.19	264.48
397.39	236.39
397.58	273.84
397.77	283.20
397.97	203.63
398.16	292.57
398.35	280.86
398.55	322.99
398.74	264.48
398.93	313.63
399.12	224.69
399.32	241.08
399.51	304.27
399.70	337.04
399.90	276.18
400.09	292.57
400.28	369.80
400.47	355.76
400.67	304.27
400.86	339.38
401.05	297.25
401.24	358.10
401.44	353.42
401.63	292.57
401.82	322.99
402.01	287.89
402.21	290.23
402.40	327.68
402.59	304.27
402.78	304.27
402.97	325.33
403.17	397.89
403.36	386.19
403.55	348.74
403.74	372.15
403.93	339.38
404.13	437.68
404.32	337.04
404.51	493.85
404.70	512.58
404.89	414.27
405.09	486.83
405.28	435.34
405.47	372.15
405.66	379.17
405.85	395.55
406.05	449.38
406.24	428.32
406.43	468.11
406.62	379.17
406.81	554.71
407.00	482.15
407.20	428.32
407.39	479.81
407.58	500.87
407.77	526.62
407.96	486.83
408.15	507.90
408.34	437.68
408.54	538.32
408.73	505.56
408.92	409.59
409.11	437.68
409.30	507.90
409.49	486.83
409.68	526.62
409.87	561.73
410.07	552.37
410.26	482.15
410.45	531.30
410.64	491.51
410.83	505.56
411.02	592.16
411.21	678.76
411.40	561.73
411.59	608.54
411.78	599.18
411.98	624.92
412.17	599.18
412.36	645.99
412.55	608.54
412.74	622.58
412.93	631.94
413.12	667.05
413.31	662.37
413.50	683.44
413.69	622.58
413.88	681.10
414.07	702.16
414.26	699.82
414.45	720.88
414.64	627.26
414.83	667.05
415.02	765.36
415.22	851.96
415.41	739.61
415.60	758.33
415.79	791.10
415.98	875.36
416.17	842.59
416.36	814.51
416.55	816.85
416.74	786.42
416.93	833.23
417.12	851.96
417.31	903.45
417.50	816.85
417.69	891.74
417.88	823.87
418.07	763.01
418.26	908.13
418.45	826.21
418.64	1022.81
418.83	933.87
419.02	938.55
419.21	915.15
419.39	938.55
419.58	896.43
419.77	999.41
419.96	957.28
420.15	973.66
420.34	896.43
420.53	978.34
420.72	959.62
420.91	1013.45
421.10	1053.24
421.29	980.68
421.48	943.24
421.67	1032.18
421.86	1034.52
422.05	978.34
422.24	1036.86
422.43	978.34
422.61	1015.79
422.80	1118.78
422.99	983.02
423.18	1032.18
423.37	1149.20
423.56	1100.05
423.75	1001.75
423.94	1036.86
424.13	957.28
424.32	983.02
424.50	1036.86
424.69	1074.31
424.88	1132.82
425.07	1055.58
425.26	983.02
425.45	976.00
425.64	1081.33
425.83	1137.50
426.01	954.94
426.20	1046.22
426.39	1043.88
426.58	1090.69
426.77	1015.79
426.96	1149.20
427.15	1107.07
427.33	1111.75
427.52	1067.28
427.71	1142.18
427.90	1114.10
428.09	1128.14
428.28	1067.28
428.46	1123.46
428.65	1137.50
428.84	1224.10
429.03	1233.46
429.22	1135.16
429.40	1118.78
429.59	1116.44
429.78	1188.99
429.97	1041.54
430.16	1160.91
430.34	1210.06
430.53	1090.69
430.72	1172.61
430.91	1174.95
431.10	1132.82
431.28	1231.12
431.47	1214.74
431.66	1224.10
431.85	1184.31
432.03	1317.72
432.22	1348.15
432.41	1327.08
432.60	1277.93
432.79	1268.57
432.97	1273.25
433.16	1303.68
433.35	1200.69
433.54	1348.15
433.72	1282.61
433.91	1294.32
434.10	1359.85
434.28	1289.64
434.47	1324.74
434.66	1294.32
434.85	1359.85
435.03	1411.34
435.22	1563.48
435.41	1947.33
435.59	1895.83
435.78	1797.53
435.97	1530.71
436.16	1437.09
436.34	1359.85
436.53	1371.55
436.72	1444.11
436.90	1334.11
437.09	1416.02
437.28	1380.92
437.46	1385.60
437.65	1387.94
437.84	1441.77
438.02	1413.68
438.21	1406.66
438.40	1362.19
438.58	1425.39
438.77	1420.71
438.96	1537.73
439.14	1460.49
439.33	1563.48
439.52	1469.86
439.70	1401.98
439.89	1629.01
440.08	1561.14
440.26	1605.61
440.45	1565.82
440.63	1647.74
440.82	1603.27
441.01	1596.25
441.19	1661.78
441.38	1652.42
441.57	1732.00
441.75	1685.19
441.94	1715.61
442.12	1715.61
442.31	1717.95
442.50	1657.10
442.68	1685.19
442.87	1680.50
443.05	1689.87
443.24	1710.93
443.43	1788.17
443.61	1717.95
443.80	1781.15
443.98	1722.63
444.17	1713.27
444.35	1760.08
444.54	1612.63
444.73	1825.62
444.91	1741.36
445.10	1657.10
445.28	1778.81
445.47	1682.85
445.65	1834.98
445.84	1713.27
446.02	1790.51
446.21	1767.10
446.39	1736.68
446.58	1734.34
446.77	1811.57
446.95	1699.23
447.14	1734.34
447.32	1757.74
447.51	1673.48
447.69	1739.02
447.88	1764.76
448.06	1739.02
448.25	1898.17
448.43	1755.40
448.62	1795.19
448.80	1767.10
448.99	1863.07
449.17	1905.20
449.36	1849.02
449.54	1949.67
449.73	1935.62
449.91	1919.24
450.10	1893.49
450.28	1909.88
450.46	1909.88
450.65	1970.73
450.83	1963.71
451.02	1858.39
451.20	1970.73
451.39	1968.39
451.57	1907.54
451.76	1853.70
451.94	2024.56
452.13	1937.96
452.31	2031.58
452.49	1961.37
452.68	1923.92
452.86	1881.79
453.05	2092.44
453.23	1977.75
453.42	2003.50
453.60	1935.62
453.78	1977.75
453.97	1942.64
454.15	1963.71
454.34	2029.24
454.52	2019.88
454.70	1954.35
454.89	2052.65
455.07	2115.84
455.26	2113.50
455.44	2050.31
455.62	2047.97
455.81	2022.22
455.99	2036.27
456.17	2122.87
456.36	2054.99
456.54	2122.87
456.73	2040.95
456.91	2129.89
457.09	2099.46
457.28	2242.23
457.46	2125.21
457.64	2230.53
457.83	2155.63
458.01	2188.40
458.19	2260.96
458.38	2296.07
458.56	2174.36
458.74	2176.70
458.93	2106.48
459.11	2244.57
459.29	2188.40
459.48	2251.60
459.66	2289.04
459.84	2375.64
460.03	2310.11
460.21	2230.53
460.39	2237.55
460.57	2356.92
460.76	2331.17
460.94	2300.75
461.12	2420.11
461.31	2333.51
461.49	2251.60
461.67	2272.66
461.85	2279.68
462.04	2340.54
462.22	2768.85
462.40	2382.67
462.59	2480.97
462.77	2429.48
462.95	2434.16
463.13	2406.07
463.32	2387.35
463.50	2385.01
463.68	2392.03
463.86	2331.17
464.05	2293.72
464.23	2497.35
464.41	2546.50
464.59	2338.20
464.78	2490.33
464.96	2581.61
465.14	2485.65
465.32	2485.65
465.50	2464.58
465.69	2506.71
465.87	2492.67
466.05	2504.37
466.23	2420.11
466.41	2450.54
466.60	2590.97
466.78	2476.29
466.96	2441.18
467.14	2502.03
467.32	2541.82
467.51	2541.82
467.69	2466.92
467.87	2579.27
468.05	2593.31
468.23	2569.91
468.41	2530.12
468.60	2544.16
468.78	2654.17
468.96	2614.38
469.14	2619.06
469.32	2633.10
469.50	2574.59
469.69	2548.84
469.87	2693.96
470.05	2750.13
470.23	2708.00
470.41	2715.02
470.59	2691.62
470.77	2640.12
470.95	2715.02
471.14	2675.23
471.32	2658.85
471.50	2757.15
471.68	2740.77
471.86	2808.64
472.04	2801.62
472.22	2864.82
472.40	2813.32
472.58	2801.62
472.77	2876.52
472.95	2998.23
473.13	2911.63
473.31	2843.75
473.49	2869.50
473.67	2862.48
473.85	2993.55
474.03	2885.88
474.21	2970.14
474.39	2998.23
474.57	3038.02
474.75	3101.21
474.93	2963.12
475.12	2970.14
475.30	2951.42
475.48	3070.78
475.66	2981.84
475.84	3122.27
476.02	2972.48
476.20	3073.12
476.38	3246.32
476.56	3187.81
476.74	3218.24
476.92	3295.47
477.10	3239.30
477.28	3260.37
477.46	3211.22
477.64	3253.34
477.82	3337.60
478.00	3524.85
478.18	3258.03
478.36	3459.31
478.54	3496.76
478.72	3468.67
478.90	3475.70
479.08	3417.18
479.26	3447.61
479.44	3588.04
479.62	3719.11
479.80	3578.68
479.98	3588.04
480.16	3641.87
480.34	3618.47
480.52	3716.77
480.70	3740.18
480.88	3705.07
481.06	3723.79
481.24	3641.87
481.41	3698.05
481.59	3875.93
481.77	3955.51
481.95	3887.63
482.13	3974.23
482.31	3995.29
482.49	3915.72
482.67	4131.05
482.85	4100.62
483.03	4257.43
483.21	4091.26
483.39	4081.89
483.57	4133.39
483.74	4100.62
483.92	4149.77
484.10	4227.01
484.28	4278.50
484.46	4489.15
484.64	4383.82
484.82	4264.46
485.00	4414.25
485.18	4477.44
485.35	4571.07
485.53	4470.42
485.71	4461.06
485.89	4664.69
486.07	4606.17
486.25	4732.56
486.43	4636.60
486.61	4683.41
486.78	4840.23
486.96	4861.29
487.14	4835.55
487.32	4983.00
487.50	4823.84
487.68	5097.69
487.85	5118.75
488.03	4938.53
488.21	5107.05
488.39	5130.45
488.57	5184.29
488.75	5022.79
488.92	5399.62
489.10	5301.31
489.28	5329.40
489.46	5444.09
489.64	5416.00
489.81	5472.17
489.99	5366.85
490.17	5455.79
490.35	5511.96
490.53	5460.47
490.70	5481.53
490.88	5551.75
491.06	5643.03
491.24	5593.88
491.41	5680.48
491.59	5753.04
491.77	5593.88
491.95	5741.33
492.13	5678.14
492.30	5694.52
492.48	5930.92
492.66	5841.98
492.84	6036.24
493.01	5937.94
493.19	5987.09
493.37	6040.92
493.54	5919.21
493.72	6090.07
493.90	6080.71
494.08	6218.80
494.25	6256.25
494.43	6253.91
494.61	6214.12
494.79	6361.58
494.96	6366.26
495.14	6375.62
495.32	6462.22
495.49	6270.30
495.67	6389.66
495.85	6494.99
496.02	6520.73
496.20	6511.37
496.38	6614.35
496.55	6551.16
496.73	6710.32
496.91	6640.10
497.09	6771.17
497.26	6841.39
497.44	6738.40
497.62	6825.00
497.79	7007.56
497.97	6885.86
498.14	6911.60
498.32	6925.65
498.50	6932.67
498.67	7061.40
498.85	6965.43
499.03	6942.03
499.20	7124.59
499.38	7066.08
499.56	7068.42
499.73	7304.81
499.91	7087.14
500.08	7262.68
500.26	7220.55
500.44	7171.40
500.61	7368.01
500.79	7232.26
500.97	7461.63
501.14	7403.11
501.32	7375.03
501.49	7592.70
501.67	7314.17
501.84	7475.67
502.02	7545.89
502.20	7403.11
502.37	7627.81
502.55	7653.55
502.72	7517.80
502.90	7681.64
503.07	7440.56
503.25	7442.90
503.43	7630.15
503.60	7777.60
503.78	7693.34
503.95	7819.73
504.13	7705.04
504.30	7639.51
504.48	7707.38
504.65	7866.54
504.83	7751.85
505.01	7831.43
505.18	7864.20
505.36	7950.80
505.53	7995.27
505.71	8053.78
505.88	8002.29
506.06	7992.93
506.23	8018.68
506.41	8053.78
506.58	8156.77
506.76	8119.32
506.93	8081.87
507.11	7997.61
507.28	8067.83
507.46	8292.52
507.63	8231.66
507.81	8243.37
507.98	8442.31
508.16	8088.89
508.33	8397.84
508.50	8245.71
508.68	8430.61
508.85	8414.23
509.03	8372.10
509.20	8439.97
509.38	8542.96
509.55	8688.07
509.73	8510.19
509.90	8648.28
510.08	8416.57
510.25	8603.81
510.42	8631.90
510.60	8720.84
510.77	8669.34
510.95	8812.12
511.12	8650.62
511.30	8800.41
511.47	8702.11
511.64	8777.01
511.82	8943.19
511.99	8786.37
512.17	8868.29
512.34	8966.59
512.51	8926.80
512.69	8999.36
512.86	9095.32
513.04	9167.88
513.21	9151.49
513.38	9104.68
513.56	9142.13
513.73	9034.47
513.90	9114.05
514.08	9186.60
514.25	9317.67
514.43	9228.73
514.60	9298.95
514.77	9296.61
514.95	9317.67
515.12	9275.54
515.29	9387.89
515.47	9432.36
515.64	9357.46
515.81	9294.27
515.99	9434.70
516.16	9235.75
516.33	9432.36
516.51	9540.02
516.68	9497.89
516.85	9603.22
517.03	9483.85
517.20	9444.06
517.37	9378.53
517.54	9614.92
517.72	9685.14
517.89	9542.36
518.06	9694.50
518.24	9785.78
518.41	9645.35
518.58	9825.57
518.75	9776.42
518.93	9799.82
519.10	9612.58
519.27	9966.00
519.45	9671.09
519.62	9998.77
519.79	9776.42
519.96	10071.33
520.14	9858.34
520.31	9872.38
520.48	9989.41
520.65	9989.41
520.83	9949.62
521.00	10017.49
521.17	9956.64
521.34	10010.47
521.52	9937.91
521.69	10150.90
521.86	9926.21
522.03	10298.36
522.20	10356.87
522.38	10246.87
522.55	10141.54
522.72	9944.94
522.89	10253.89
523.07	10256.23
523.24	10333.47
523.41	10324.10
523.58	10183.67
523.75	10548.79
523.92	10356.87
524.10	10581.56
524.27	10349.85
524.44	10298.36
524.61	10654.12
524.78	10387.30
524.96	10331.12
525.13	10525.39
525.30	10555.82
525.47	10558.16
525.64	10574.54
525.81	10539.43
525.98	10609.65
526.16	10700.93
526.33	10462.19
526.50	10609.65
526.67	10672.84
526.84	10551.14
527.01	10530.07
527.18	10813.28
527.36	10684.55
527.53	10857.75
527.70	10981.79
527.87	10885.83
528.04	10923.28
528.21	10911.58
528.38	10670.50
528.55	11059.03
528.72	10565.18
528.89	10862.43
529.07	10822.64
529.24	10874.13
529.41	10986.47
529.58	10932.64
529.75	10794.55
529.92	10864.77
530.09	10995.84
530.26	10906.90
530.43	11325.85
530.60	11084.78
530.77	10965.41
530.94	11037.97
531.11	11030.94
531.28	10993.50
531.46	11047.33
531.63	11145.63
531.80	11014.56
531.97	11344.58
532.14	11239.25
532.31	11288.40
532.48	11176.06
532.65	11066.05
532.82	11234.57
532.99	11403.09
533.16	11215.85
533.33	11630.12
533.50	11473.31
533.67	11353.94
533.84	11227.55
534.01	11391.39
534.18	11375.00
534.35	11564.59
534.52	11449.90
534.69	11407.77
534.86	11679.27
535.03	11349.26
535.20	11559.91
535.37	11566.93
535.54	11552.88
535.71	11407.77
535.88	11499.05
536.05	11475.65
536.22	11712.04
536.38	11784.60
536.55	11487.35
536.72	11531.82
536.89	11627.78
537.06	11630.12
537.23	11669.91
537.40	11992.90
537.57	11772.89
537.74	11786.94
537.91	11983.54
538.08	12065.46
538.25	11847.79
538.42	11604.38
538.59	11915.67
538.75	11595.01
538.92	11655.87
539.09	11822.05
539.26	11843.11
539.43	12219.94
539.60	12119.29
539.77	12067.80
539.94	12154.40
540.11	12105.25
540.28	12056.10
540.44	11967.16
540.61	12163.76
540.78	12425.90
540.95	12236.32
541.12	12425.90
541.29	12542.93
541.46	12367.39
541.62	12491.44
541.79	12629.53
541.96	12484.42
542.13	12526.55
542.30	12561.66
542.47	12856.56
542.63	12723.15
542.80	12580.38
542.97	12755.92
543.14	12671.66
543.31	12514.84
543.48	12802.73
543.64	12760.60
543.81	12919.76
543.98	12585.06
544.15	12718.47
544.32	12886.99
544.48	12905.71
544.65	12802.73
544.82	12784.01
544.99	12830.82
545.16	12868.27
545.32	12868.27
545.49	13130.41
545.66	13930.87
545.83	14235.14
546.00	13619.58
546.16	13359.78
546.33	12926.78
546.50	12697.41
546.67	13022.74
546.83	12690.38
547.00	12854.22
547.17	12802.73
547.34	12678.68
547.50	12741.88
547.67	12833.16
547.84	12727.83
548.00	12922.10
548.17	12748.90
548.34	12636.55
548.51	12947.84
548.67	13149.13
548.84	12903.37
549.01	12805.07
549.18	12971.25
549.34	12767.62
549.51	12718.47
549.68	12634.21
549.84	12622.51
550.01	12652.94
550.18	12739.54
550.34	12793.37
550.51	12655.28
550.68	12933.80
550.84	12699.75
551.01	12702.09
551.18	12706.77
551.34	12650.60
551.51	12542.93
551.68	12882.31
551.84	12720.81
552.01	12828.48
552.18	12849.54
552.34	12842.52
552.51	12746.56
552.68	12751.24
552.84	12786.35
553.01	12819.11
553.18	12966.57
553.34	12879.97
553.51	12812.09
553.67	12950.18
553.84	12854.22
554.01	13004.02
554.17	12915.08
554.34	12805.07
554.51	12805.07
554.67	12929.12
554.84	12711.45
555.00	13048.49
555.17	12961.89
555.33	12933.80
555.50	12634.21
555.67	12851.88
555.83	12664.64
556.00	12751.24
556.16	12870.61
556.33	12870.61
556.50	12634.21
556.66	12599.10
556.83	12978.27
556.99	13078.91
557.16	13191.26
557.32	12882.31
557.49	12936.14
557.65	12821.45
557.82	12978.27
557.98	12882.31
558.15	13008.70
558.32	12950.18
558.48	13069.55
558.65	13247.43
558.81	12915.08
558.98	13109.34
559.14	12828.48
559.31	12994.65
559.47	13025.08
559.64	13011.04
559.80	12929.12
559.97	13118.70
560.13	13022.74
560.30	13137.43
560.46	13076.57
560.63	13064.87
560.79	12898.69
560.96	13158.49
561.12	13109.34
561.29	12950.18
561.45	13050.83
561.61	13001.68
561.78	13493.19
561.94	13055.51
562.11	13053.17
562.27	13359.78
562.44	13359.78
562.60	13090.62
562.77	13011.04
562.93	13263.82
563.10	13284.88
563.26	13076.57
563.42	13071.89
563.59	12943.16
563.75	13312.97
563.92	13198.28
564.08	12922.10
564.24	13064.87
564.41	13121.04
564.57	13287.22
564.74	13202.96
564.90	13193.60
565.07	13181.90
565.23	13289.56
565.39	13193.60
565.56	13219.35
565.72	13076.57
565.88	13057.85
566.05	13312.97
566.21	13043.81
566.38	13193.60
566.54	13055.51
566.70	12987.63
566.87	13212.32
567.03	12978.27
567.19	13219.35
567.36	13013.38
567.52	13018.06
567.68	13114.02
567.85	13273.18
568.01	13064.87
568.17	13209.98
568.34	13310.63
568.50	13319.99
568.66	13331.69
568.83	13053.17
568.99	13046.15
569.15	13172.54
569.32	13188.92
569.48	13238.07
569.64	13205.30
569.81	13275.52
569.97	13041.46
570.13	13252.11
570.30	13348.08
570.46	13092.96
570.62	13195.94
570.78	13074.23
570.95	13092.96
571.11	12957.21
571.27	13104.66
571.43	13001.68
571.60	13432.33
571.76	13195.94
571.92	13088.28
572.09	13252.11
572.25	13121.04
572.41	13455.74
572.57	13273.18
572.74	13331.69
572.90	13170.19
573.06	13266.16
573.22	13186.58
573.38	13394.89
573.55	13460.42
573.71	13568.09
573.87	13362.12
574.03	13039.12
574.20	13181.90
574.36	13207.64
574.52	13123.38
574.68	13383.18
574.84	13366.80
575.01	13263.82
575.17	13523.62
575.33	13055.51
575.49	13195.94
575.65	13287.22
575.82	13341.05
575.98	13109.34
576.14	13315.31
576.30	13256.79
576.46	13544.68
576.62	13647.66
576.79	13596.17
576.95	13427.65
577.11	13572.77
577.27	13362.12
577.43	13558.72
577.59	13153.81
577.75	13490.85
577.92	13298.92
578.08	13153.81
578.24	13483.83
578.40	13319.99
578.56	13233.39
578.72	13542.34
578.88	13640.64
579.04	13666.39
579.21	13163.17
579.37	13537.66
579.53	13434.68
579.69	13404.25
579.85	13343.39
580.01	13385.52
580.17	13327.01
580.33	13497.87
580.49	13179.56
580.65	13334.03
580.82	13245.09
580.98	13369.14
581.14	13312.97
581.30	13429.99
581.46	13502.55
581.62	13284.88
581.78	13387.86
581.94	13331.69
582.10	13305.95
582.26	13547.02
582.42	13369.14
582.58	13528.30
582.74	13252.11
582.90	13364.46
583.06	13294.24
583.22	13502.55
583.38	13191.26
583.54	13537.66
583.70	13563.40
583.86	13266.16
584.02	13547.02
584.18	13399.57
584.34	13319.99
584.50	13582.13
584.66	13392.55
584.82	13390.20
584.98	13277.86
585.14	13355.10
585.30	13064.87
585.46	13341.05
585.62	13378.50
585.78	13142.11
585.94	13308.29
586.10	13582.13
586.26	13460.42
586.42	13593.83
586.58	13472.12
586.74	13542.34
586.90	13312.97
587.06	13434.68
587.22	13577.45
587.38	13547.02
587.54	13448.72
587.70	13547.02
587.86	13415.95
588.02	13493.19
588.18	13685.11
588.34	13483.83
588.49	13282.54
588.65	13446.38
588.81	13408.93
588.97	13135.09
589.13	13387.86
589.29	13488.51
589.45	13446.38
589.61	13324.67
589.77	13692.13
589.93	13708.52
590.08	13532.98
590.24	13516.59
590.40	13572.77
590.56	13678.09
590.72	13296.58
590.88	13535.32
591.04	13376.16
591.20	13500.21
591.35	13458.08
591.51	13420.63
591.67	13610.22
591.83	13638.30
591.99	13619.58
592.15	13458.08
592.31	13163.17
592.46	13511.91
592.62	13563.40
592.78	13549.36
592.94	13525.96
593.10	13486.17
593.26	13486.17
593.41	13642.98
593.57	13490.85
593.73	13504.89
593.89	13593.83
594.05	13589.15
594.20	13406.59
594.36	13549.36
594.52	13565.74
594.68	13289.56
594.84	13495.53
594.99	13556.38
595.15	13638.30
595.31	13518.93
595.47	13743.63
595.62	13422.97
595.78	13404.25
595.94	13373.82
596.10	13556.38
596.25	13429.99
596.41	13397.23
596.57	13535.32
596.73	13535.32
596.88	13123.38
597.04	13509.57
597.20	13540.00
597.36	13462.76
597.51	13462.76
597.67	13448.72
597.83	13511.91
597.99	13603.19
598.14	13294.24
598.30	13502.55
598.46	13352.76
598.61	13479.15
598.77	13338.71
598.93	13570.43
599.09	13790.44
599.24	13654.69
599.40	13673.41
599.56	13582.13
599.71	13444.04
599.87	13678.09
600.03	13284.88
600.18	13371.48
600.34	13369.14
600.50	13542.34
600.65	13425.31
600.81	13540.00
600.97	13631.28
601.12	13429.99
601.28	13532.98
601.44	13490.85
601.59	13572.77
601.75	13385.52
601.91	13434.68
602.06	13261.48
602.22	13451.06
602.37	13301.26
602.53	13348.08
602.69	13324.67
602.84	13359.78
603.00	13694.47
603.16	13439.36
603.31	13317.65
603.47	13289.56
603.62	13446.38
603.78	13521.27
603.94	13165.51
604.09	13451.06
604.25	13336.37
604.40	13486.17
604.56	13312.97
604.71	13490.85
604.87	13298.92
605.03	13359.78
605.18	13514.25
605.34	13432.33
605.49	13109.34
605.65	13537.66
605.80	13231.05
605.96	13490.85
606.12	13233.39
606.27	13429.99
606.43	13437.02
606.58	13448.72
606.74	13217.01
606.89	13357.44
607.05	13434.68
607.20	13575.11
607.36	13277.86
607.51	13252.11
607.67	13156.15
607.82	13523.62
607.98	13193.60
608.13	13261.48
608.29	13296.58
608.44	13226.37
608.60	13270.84
608.75	13481.49
608.91	13355.10
609.06	13312.97
609.22	13561.06
609.37	13415.95
609.53	13657.03
609.68	13708.52
609.84	13427.65
609.99	13523.62
610.15	13694.47
610.30	13565.74
610.46	13741.29
610.61	13975.34
610.76	14455.15
610.92	14670.48
611.07	14778.14
611.23	14839.00
611.38	14721.97
611.54	14483.24
611.69	14284.29
611.84	14202.37
612.00	13666.39
612.15	13909.80
612.31	13668.73
612.46	13593.83
612.62	13556.38
612.77	13666.39
612.92	13715.54
613.08	13334.03
613.23	13593.83
613.39	13579.79
613.54	13198.28
613.69	13394.89
613.85	13294.24
614.00	13273.18
614.15	13116.36
614.31	13308.29
614.46	13444.04
614.62	13322.33
614.77	13280.20
614.92	13366.80
615.08	13411.27
615.23	13422.97
615.38	13350.42
615.54	12987.63
615.69	13212.32
615.84	13156.15
616.00	13217.01
616.15	13172.54
616.30	12994.65
616.46	12854.22
616.61	13118.70
616.76	12837.84
616.92	13256.79
617.07	12849.54
617.22	13006.36
617.37	12830.82
617.53	12978.27
617.68	12816.77
617.83	12802.73
617.99	12961.89
618.14	12952.52
618.29	13039.12
618.45	12746.56
618.60	13001.68
618.75	12975.93
618.90	12854.22
619.06	13153.81
619.21	12821.45
619.36	12819.11
619.51	12610.81
619.67	12819.11
619.82	12882.31
619.97	12931.46
620.12	12650.60
620.28	12737.20
620.43	12744.22
620.58	12730.17
620.73	12812.09
620.89	12982.95
621.04	12882.31
621.19	12774.64
621.34	12561.66
621.49	12699.75
621.65	12554.63
621.80	12915.08
621.95	12432.93
622.10	12744.22
622.25	12545.27
622.41	12737.20
622.56	12798.05
622.71	12685.70
622.86	12828.48
623.01	12830.82
623.16	12828.48
623.32	12725.49
623.47	12685.70
623.62	12641.23
623.77	12692.73
623.92	12580.38
624.07	12264.41
624.23	12671.66
624.38	12830.82
624.53	12479.74
624.68	12510.16
624.83	12709.11
624.98	12835.50
625.13	12372.07
625.29	12369.73
625.44	12439.95
625.59	12341.64
625.74	12280.79
625.89	12304.20
626.04	12287.81
626.19	12210.57
626.34	12631.87
626.49	12463.35
626.65	12500.80
626.80	12479.74
626.95	12327.60
627.10	12489.10
627.25	12599.10
627.40	12306.54
627.55	12435.27
627.70	12259.73
627.85	12428.24
628.00	12339.30
628.15	12311.22
628.30	12329.94
628.45	12365.05
628.60	12521.87
628.76	12355.69
628.91	12437.61
629.06	12301.86
629.21	12407.18
629.36	12332.28
629.51	12163.76
629.66	12278.45
629.81	12369.73
629.96	12297.17
630.11	12217.60
630.26	12428.24
630.41	12060.78
630.56	12329.94
630.71	12475.06
630.86	12343.99
631.01	12418.88
631.16	12339.30
631.31	12241.00
631.46	12379.09
631.61	12250.36
631.76	11985.88
631.91	12280.79
632.06	12149.72
632.21	11859.49
632.36	11866.52
632.51	12081.85
632.66	12051.42
632.81	11927.37
632.96	12280.79
633.10	12006.95
633.25	12131.00
633.40	12100.57
633.55	11927.37
633.70	11932.05
633.85	12009.29
634.00	12058.44
634.15	12023.33
634.30	11906.31
634.45	11971.84
634.60	12028.01
634.75	11845.45
634.90	12142.70
635.05	11999.93
635.19	12032.69
635.34	12009.29
635.49	11920.35
635.64	11786.94
635.79	11782.26
635.94	11815.02
636.09	11866.52
636.24	11981.20
636.39	11997.59
636.53	11817.36
636.68	11728.42
636.83	11967.16
636.98	11829.07
637.13	11681.61
637.28	11822.05
637.43	12152.06
637.57	11962.48
637.72	11817.36
637.87	11688.64
638.02	11817.36
638.17	11803.32
638.32	11782.26
638.46	11620.76
638.61	11775.24
638.76	11449.90
638.91	12035.03
639.06	11779.92
639.20	11903.96
639.35	11669.91
639.50	11616.08
639.65	11477.99
639.80	11653.53
639.94	11939.07
640.09	11733.11
640.24	11550.54
640.39	11611.40
640.54	11531.82
640.68	11487.35
640.83	11541.18
640.98	11473.31
641.13	11576.29
641.27	11480.33
641.42	11611.40
641.57	11772.89
641.72	11552.88
641.86	11646.51
642.01	11524.80
642.16	11737.79
642.31	11625.44
642.45	11826.73
642.60	11358.62
642.75	11456.92
642.90	11492.03
643.04	11470.97
643.19	11494.37
643.34	11452.24
643.48	11672.25
643.63	11344.58
643.78	11665.23
643.93	11550.54
644.07	11541.18
644.22	11723.74
644.37	11222.87
644.51	11356.28
644.66	11470.97
644.81	11506.07
644.95	11482.67
645.10	11459.26
645.25	11396.07
645.39	11342.24
645.54	11466.28
645.69	11426.50
645.83	11428.84
645.98	11311.81
646.13	11332.87
646.27	11482.67
646.42	11267.34
646.57	11316.49
646.71	11557.57
646.86	11122.23
647.00	11328.19
647.15	11372.66
647.30	11293.08
647.44	11487.35
647.59	11241.59
647.74	11398.41
647.88	11590.33
648.03	11293.08
648.17	11398.41
648.32	11199.46
648.47	11459.26
648.61	11307.13
648.76	11262.66
648.90	11105.84
649.05	11267.34
649.20	11470.97
649.34	11124.57
649.49	11215.85
649.63	11112.86
649.78	11030.94
649.92	11215.85
650.07	11304.79
650.21	11136.27
650.36	11293.08
650.51	11250.96
650.65	11342.24
650.80	11318.83
650.94	11236.91
651.09	11208.83
651.23	11056.69
651.38	11157.33
651.52	11014.56
651.67	11143.29
651.81	11204.14
651.96	10988.82
652.10	10977.11
652.25	11110.52
652.39	11108.18
652.54	11105.84
652.68	11288.40
652.83	11241.59
652.97	11309.47
653.12	11274.36
653.26	10981.79
653.41	11143.29
653.55	11122.23
653.70	11009.88
653.84	11187.76
653.99	11030.94
654.13	10967.75
654.27	11019.24
654.42	10862.43
654.56	10937.32
654.71	11077.76
654.85	10960.73
655.00	11035.63
655.14	11009.88
655.29	10930.30
655.43	11140.95
655.57	10902.22
655.72	11016.90
655.86	10890.51
656.01	10995.84
656.15	10750.08
656.30	10874.13
656.44	10942.00
656.58	10796.89
656.73	10958.39
656.87	10693.91
657.01	10911.58
657.16	10834.34
657.30	10813.28
657.45	10963.07
657.59	10911.58
657.73	10864.77
657.88	10799.23
658.02	10977.11
658.16	10869.45
658.31	10717.31
658.45	10511.35
658.60	10600.29
658.74	10583.90
658.88	10707.95
659.03	10658.80
659.17	10834.34
659.31	10787.53
659.46	10661.14
659.60	10700.93
659.74	10721.99
659.89	10670.50
660.03	10899.87
660.17	10654.12
660.32	10511.35
660.46	10651.78
660.60	10438.79
660.74	10588.58
660.89	10581.56
661.03	10464.54
661.17	10740.72
661.32	10263.25
661.46	10480.92
661.60	10562.84
661.74	10640.08
661.89	10525.39
662.03	10377.94
662.17	10394.32
662.31	10539.43
662.46	10569.86
662.60	10455.17
662.74	10333.47
662.88	10221.12
663.03	10148.56
663.17	10399.00
663.31	10342.83
663.45	10307.72
663.60	10391.98
663.74	10296.02
663.88	10317.08
664.02	10464.54
664.17	10307.72
664.31	10326.44
664.45	10366.23
664.59	10256.23
664.73	10321.76
664.88	10157.92
665.02	10300.70
665.16	10272.61
665.30	9961.32
665.44	10305.38
665.59	10183.67
665.73	10148.56
665.87	9870.04
666.01	10017.49
666.15	9909.83
666.29	10267.93
666.44	10237.50
666.58	10015.15
666.72	10040.90
666.86	10071.33
667.00	10061.96
667.14	9891.10
667.28	10080.69
667.43	9975.36
667.57	9856.00
667.71	9813.87
667.85	10057.28
667.99	9853.66
668.13	10146.22
668.27	10008.13
668.41	9858.34
668.56	9778.76
668.70	9865.36
668.84	9853.66
668.98	9745.99
669.12	9755.35
669.26	9853.66
669.40	9944.94
669.54	9696.84
669.68	9579.81
669.82	9738.97
669.96	9493.21
670.10	9731.95
670.25	9792.80
670.39	9715.56
670.53	9619.60
670.67	9561.09
670.81	9504.92
670.95	9596.20
671.09	9413.63
671.23	9680.46
671.37	9640.67
671.51	9647.69
671.65	9547.05
671.79	9404.27
671.93	9488.53
672.07	9724.93
672.21	9362.14
672.35	9186.60
672.49	9184.26
672.63	9146.81
672.77	9301.29
672.91	9163.20
673.05	9324.69
673.19	9460.45
673.33	9556.41
673.47	9423.00
673.61	9350.44
673.75	9221.71
673.89	9188.94
674.03	9207.67
674.17	9181.92
674.31	9146.81
674.45	8980.64
674.59	8959.57
674.73	9090.64
674.87	9100.00
675.01	8990.00
675.15	9048.51
675.29	9053.19
675.43	9289.59
675.56	9111.71
675.70	9153.84
675.84	9018.08
675.98	8730.20
676.12	9097.66
676.26	9076.60
676.40	9048.51
676.54	9029.79
676.68	8975.95
676.82	8737.22
676.96	8898.72
677.10	8746.58
677.23	8795.73
677.37	8781.69
677.51	8748.92
677.65	8627.21
677.79	8641.26
677.93	8489.12
678.07	8493.80
678.21	8613.17
678.34	8638.92
678.48	8486.78
678.62	8341.67
678.76	8234.00
678.90	8381.46
679.04	8498.49
679.18	8355.71
679.31	8430.61
679.45	8346.35
679.59	8465.72
679.73	8128.68
679.87	8311.24
680.00	8226.98
680.14	8086.55
680.28	8369.76
680.42	8257.41
680.56	8276.13
680.70	8175.49
680.83	8269.11
680.97	8081.87
681.11	8042.08
681.25	7997.61
681.39	8013.99
681.52	8100.59
681.66	8070.17
681.80	7967.18
681.94	8093.57
682.07	7777.60
682.21	7737.81
682.35	7585.68
682.49	7822.07
682.62	7873.56
682.76	7843.14
682.90	7796.32
683.04	7672.28
683.17	7707.38
683.31	7885.26
683.45	7751.85
683.59	7691.00
683.72	7679.30
683.86	7836.11
684.00	7520.14
684.13	7625.47
684.27	7637.17
684.41	7534.18
684.55	7531.84
684.68	7503.76
684.82	7463.97
684.96	7377.37
685.09	7412.48
685.23	7162.04
685.37	7356.30
685.50	7396.09
685.64	7417.16
685.78	7145.66
685.91	7410.14
686.05	7407.80
686.19	7267.36
686.32	7253.32
686.46	7133.95
686.60	7059.06
686.73	7169.06
686.87	7211.19
687.01	7054.37
687.14	6958.41
687.28	7098.84
687.42	6993.52
687.55	6869.47
687.69	6995.86
687.82	6881.18
687.96	7068.42
688.10	6960.75
688.23	6918.62
688.37	6956.07
688.50	6974.80
688.64	6909.26
688.78	6855.43
688.91	6679.89
689.05	6633.08
689.18	6731.38
689.32	6904.58
689.46	6642.44
689.59	6530.09
689.73	6647.12
689.86	6420.09
690.00	6502.01
690.13	6717.34
690.27	6518.39
690.41	6644.78
690.54	6513.71
690.68	6459.88
690.81	6583.93
690.95	6504.35
691.08	6539.46
691.22	6298.38
691.35	6520.73
691.49	6377.96
691.62	6286.68
691.76	6221.14
691.89	6305.40
692.03	6188.38
692.16	6246.89
692.30	6015.18
692.43	6064.33
692.57	6038.58
692.70	6108.80
692.84	6256.25
692.97	6141.57
693.11	6078.37
693.24	6012.84
693.38	5933.26
693.51	6094.76
693.65	6225.82
693.78	6146.25
693.92	5961.34
694.05	5762.40
694.19	5966.03
694.32	5841.98
694.45	5968.37
694.59	5841.98
694.72	5834.96
694.86	5680.48
694.99	5692.18
695.13	5678.14
695.26	5738.99
695.39	5589.20
695.53	5844.32
695.66	5643.03
695.80	5795.17
695.93	5685.16
696.07	5612.60
696.20	5664.10
696.33	5596.22
696.47	5603.24
696.60	5624.31
696.73	5617.29
696.87	5437.06
697.00	5308.34
697.14	5427.70
697.27	5474.51
697.40	5327.06
697.54	5371.53
697.67	5275.57
697.80	5268.55
697.94	5392.59
698.07	5371.53
698.21	5233.44
698.34	5303.65
698.47	5177.26
698.61	5177.26
698.74	5252.16
698.87	5156.20
699.01	5083.64
699.14	5102.37
699.27	5093.01
699.40	5224.08
699.54	5043.85
699.67	5011.09
699.80	4933.85
699.94	5025.13
700.07	4980.66
700.20	4861.29
700.34	4816.82
700.47	4802.78
700.60	4800.44
700.73	4940.87
700.87	4788.74
701.00	4681.07
701.13	4887.04
701.26	4828.53
701.40	4669.37
701.53	4676.39
701.66	4748.95
701.79	4596.81
701.93	4830.87
702.06	4777.03
702.19	4465.74
702.32	4828.53
702.46	4641.28
702.59	4409.57
702.72	4524.26
702.85	4561.70
702.99	4449.36
703.12	4435.32
703.25	4575.75
703.38	4421.27
703.51	4472.76
703.65	4430.63
703.78	4470.42
703.91	4386.16
704.04	4472.76
704.17	4369.78
704.31	4271.48
704.44	4187.22
704.57	4194.24
704.70	4416.59
704.83	4173.18
704.96	4159.13
705.10	4208.28
705.23	4203.60
>>>>>End Processed Spectral Data<<<<<
