SpectraSuite Data File
++++++++++++++++++++++++++++++++++++
Date: Fri Oct 04 11:40:00 GMT-05:00 2013
User: price-jones
Dark Spectrum Present: No
Reference Spectrum Present: No
Number of Sampled Component Spectra: 1
Spectrometers: USB2+H05261
Integration Time (usec): 100000 (USB2+H05261)
Spectra Averaged: 1 (USB2+H05261)
Boxcar Smoothing: 0 (USB2+H05261)
Correct for Electrical Dark: No (USB2+H05261)
Strobe/Lamp Enabled: No (USB2+H05261)
Correct for Detector Non-linearity: No (USB2+H05261)
Correct for Stray Light: No (USB2+H05261)
Number of Pixels in Processed Spectrum: 2048
>>>>>Begin Processed Spectral Data<<<<<
365.73	32.77
365.92	32.77
366.12	32.77
366.32	0.00
366.52	0.00
366.72	0.00
366.91	0.00
367.11	51.49
367.31	0.00
367.51	0.00
367.70	0.00
367.90	0.00
368.10	0.00
368.30	0.00
368.49	0.00
368.69	23.41
368.89	9.36
369.09	0.00
369.28	11.70
369.48	0.00
369.68	0.00
369.87	16.38
370.07	0.00
370.27	49.15
370.47	86.60
370.66	259.80
370.86	264.48
371.06	294.91
371.25	262.14
371.45	215.33
371.65	271.50
371.84	245.76
372.04	250.44
372.24	308.95
372.44	299.59
372.63	257.46
372.83	353.42
373.03	280.86
373.22	330.02
373.42	332.36
373.62	353.42
373.81	421.30
374.01	395.55
374.21	393.21
374.40	346.40
374.60	348.74
374.79	369.80
374.99	308.95
375.19	395.55
375.38	388.53
375.58	386.19
375.78	433.00
375.97	390.87
376.17	411.93
376.37	404.91
376.56	400.23
376.76	376.83
376.95	411.93
377.15	440.02
377.35	449.38
377.54	397.89
377.74	414.27
377.93	411.93
378.13	418.96
378.33	397.89
378.52	433.00
378.72	341.72
378.91	433.00
379.11	430.66
379.31	421.30
379.50	355.76
379.70	440.02
379.89	393.21
380.09	400.23
380.28	404.91
380.48	475.13
380.68	447.04
380.87	337.04
381.07	411.93
381.26	479.81
381.46	433.00
381.65	447.04
381.85	449.38
382.04	465.77
382.24	500.87
382.43	397.89
382.63	510.24
382.83	514.92
383.02	535.98
383.22	519.60
383.41	470.45
383.61	468.11
383.80	510.24
384.00	475.13
384.19	484.49
384.39	573.43
384.58	573.43
384.78	573.43
384.97	594.50
385.17	587.47
385.36	571.09
385.56	601.52
385.75	458.74
385.95	660.03
386.14	550.03
386.34	491.51
386.53	580.45
386.72	531.30
386.92	589.82
387.11	582.79
387.31	524.28
387.50	573.43
387.70	554.71
387.89	638.97
388.09	528.96
388.28	667.05
388.48	620.24
388.67	547.69
388.86	589.82
389.06	627.26
389.25	629.60
389.45	587.47
389.64	610.88
389.84	610.88
390.03	685.78
390.22	685.78
390.42	594.50
390.61	589.82
390.81	643.65
391.00	641.31
391.19	634.29
391.39	653.01
391.58	690.46
391.78	627.26
391.97	770.04
392.16	709.18
392.36	727.91
392.55	706.84
392.75	760.67
392.94	662.37
393.13	791.10
393.33	732.59
393.52	662.37
393.71	716.20
393.91	739.61
394.10	713.86
394.29	777.06
394.49	816.85
394.68	739.61
394.88	739.61
395.07	716.20
395.26	774.72
395.46	767.70
395.65	880.04
395.84	854.30
396.04	931.53
396.23	809.83
396.42	802.80
396.62	837.91
396.81	896.43
397.00	875.36
397.19	837.91
397.39	830.89
397.58	828.55
397.77	812.17
397.97	828.55
398.16	873.02
398.35	936.21
398.55	884.72
398.74	978.34
398.93	863.66
399.12	966.64
399.32	950.26
399.51	961.96
399.70	1071.97
399.90	940.90
400.09	1015.79
400.28	1027.50
400.47	940.90
400.67	1048.56
400.86	1081.33
401.05	990.05
401.24	1032.18
401.44	1107.07
401.63	1086.01
401.82	1090.69
402.01	1083.67
402.21	1093.03
402.40	1109.41
402.59	1121.12
402.78	1121.12
402.97	1109.41
403.17	1280.27
403.36	1214.74
403.55	1170.27
403.74	1203.04
403.93	1303.68
404.13	1224.10
404.32	1268.57
404.51	1348.15
404.70	1266.23
404.89	1317.72
405.09	1287.29
405.28	1399.64
405.47	1343.47
405.66	1387.94
405.85	1432.41
406.05	1362.19
406.24	1348.15
406.43	1404.32
406.62	1423.05
406.81	1558.80
407.00	1469.86
407.20	1444.11
407.39	1507.30
407.58	1469.86
407.77	1629.01
407.96	1561.14
408.15	1448.79
408.34	1455.81
408.54	1708.59
408.73	1596.25
408.92	1617.31
409.11	1722.63
409.30	1687.53
409.49	1624.33
409.68	1612.63
409.87	1799.87
410.07	1715.61
410.26	1717.95
410.45	1678.16
410.64	1694.55
410.83	1703.91
411.02	1802.21
411.21	1872.43
411.40	1816.26
411.59	1870.09
411.78	1846.68
411.98	1877.11
412.17	1877.11
412.36	1874.77
412.55	1907.54
412.74	1944.99
412.93	2033.93
413.12	2005.84
413.31	2108.82
413.50	2008.18
413.69	2129.89
413.88	2111.16
414.07	2083.08
414.26	2169.68
414.45	2181.38
414.64	2209.47
414.83	2275.00
415.02	2174.36
415.22	2328.83
415.41	2319.47
415.60	2258.62
415.79	2298.41
415.98	2410.75
416.17	2282.02
416.36	2361.60
416.55	2415.43
416.74	2555.86
416.93	2539.48
417.12	2506.71
417.31	2569.91
417.50	2684.59
417.69	2640.12
417.88	2609.70
418.07	2731.41
418.26	2672.89
418.45	2656.51
418.64	2700.98
418.83	2855.45
419.02	2719.70
419.21	2712.68
419.39	2993.55
419.58	2768.85
419.77	2757.15
419.96	2810.98
420.15	2857.79
420.34	2792.26
420.53	2920.99
420.72	3026.31
420.91	2839.07
421.10	2951.42
421.29	3059.08
421.48	2972.48
421.67	3030.99
421.86	2925.67
422.05	3052.06
422.24	3084.83
422.43	2956.10
422.61	3110.57
422.80	2998.23
422.99	3028.65
423.18	3204.19
423.37	3105.89
423.56	3110.57
423.75	3122.27
423.94	3145.68
424.13	2939.71
424.32	3007.59
424.50	3073.12
424.69	3180.79
424.88	3129.30
425.07	3166.74
425.26	3141.00
425.45	3162.06
425.64	3197.17
425.83	3126.96
426.01	3096.53
426.20	3028.65
426.39	3218.24
426.58	3187.81
426.77	3133.98
426.96	3213.56
427.15	3251.00
427.33	3253.34
427.52	3283.77
427.71	3227.60
427.90	3353.99
428.09	3330.58
428.28	3396.12
428.46	3318.88
428.65	3379.73
428.84	3442.93
429.03	3496.76
429.22	3363.35
429.40	3482.72
429.59	3412.50
429.78	3499.10
429.97	3372.71
430.16	3339.94
430.34	3494.42
430.53	3604.42
430.72	3606.77
430.91	3463.99
431.10	3438.25
431.28	3501.44
431.47	3571.66
431.66	3744.86
431.85	3562.30
432.03	3779.97
432.22	3749.54
432.41	3782.31
432.60	3721.45
432.79	3810.39
432.97	3733.15
433.16	3735.50
433.35	3768.26
433.54	3934.44
433.72	3941.46
433.91	3896.99
434.10	3885.29
434.28	3777.62
434.47	4070.19
434.66	3943.80
434.85	3978.91
435.03	4046.79
435.22	4119.34
435.41	4533.62
435.59	4376.80
435.78	4287.86
435.97	4175.52
436.16	4091.26
436.34	4133.39
436.53	4189.56
436.72	4196.58
436.90	4105.30
437.09	4205.94
437.28	4086.58
437.46	4339.35
437.65	4297.22
437.84	4379.14
438.02	4250.41
438.21	4402.55
438.40	4224.67
438.58	4362.76
438.77	4470.42
438.96	4440.00
439.14	4489.15
439.33	4615.54
439.52	4571.07
439.70	4662.35
439.89	4737.24
440.08	4702.14
440.26	4615.54
440.45	4734.90
440.63	4823.84
440.82	4753.63
441.01	4863.63
441.19	4798.10
441.38	5074.28
441.57	4994.70
441.75	5034.49
441.94	4978.32
442.12	5004.07
442.31	5085.98
442.50	5107.05
442.68	5057.90
442.87	5284.93
443.05	5083.64
443.24	5289.61
443.43	5198.33
443.61	5338.76
443.80	5413.66
443.98	5186.63
444.17	5057.90
444.35	5235.78
444.54	5245.14
444.73	5291.95
444.91	5195.99
445.10	5327.06
445.28	5296.63
445.47	5270.89
445.65	5378.55
445.84	5350.46
446.02	5352.81
446.21	5207.69
446.39	5458.13
446.58	5511.96
446.77	5296.63
446.95	5380.89
447.14	5481.53
447.32	5430.04
447.51	5242.80
447.69	5500.26
447.88	5437.06
448.06	5401.96
448.25	5439.40
448.43	5322.38
448.62	5502.60
448.80	5437.06
448.99	5596.22
449.17	5577.50
449.36	5509.62
449.54	5603.24
449.73	5664.10
449.91	5734.31
450.10	5544.73
450.28	5694.52
450.46	5668.78
450.65	5776.44
450.83	5867.72
451.02	5771.76
451.20	5764.74
451.39	5767.08
451.57	5921.56
451.76	5860.70
451.94	5806.87
452.13	5865.38
452.31	5919.21
452.49	5809.21
452.68	5914.53
452.86	5996.45
453.05	5973.05
453.23	6008.16
453.42	5830.27
453.60	6115.82
453.78	5860.70
453.97	5940.28
454.15	5928.58
454.34	5951.98
454.52	5944.96
454.70	6101.78
454.89	6279.66
455.07	6033.90
455.26	6183.70
455.44	6342.85
455.62	6307.74
455.81	6272.64
455.99	6497.33
456.17	6459.88
456.36	6413.07
456.54	6619.04
456.73	6562.86
456.91	6644.78
457.09	6513.71
457.28	6761.81
457.46	6476.26
457.64	6509.03
457.83	6684.57
458.01	6452.86
458.19	6761.81
458.38	6693.93
458.56	6998.20
458.74	6782.87
458.93	6743.08
459.11	6960.75
459.29	6752.45
459.48	6984.16
459.66	6792.23
459.84	7042.67
460.03	6970.12
460.21	6988.84
460.39	6878.83
460.57	6780.53
460.76	7026.29
460.94	6988.84
461.12	6953.73
461.31	6988.84
461.49	7002.88
461.67	6998.20
461.85	7218.21
462.04	7143.32
462.22	7683.98
462.40	7339.92
462.59	7297.79
462.77	7185.44
462.95	7220.55
463.13	7370.35
463.32	7555.25
463.50	7339.92
463.68	7372.69
463.86	7152.68
464.05	7353.96
464.23	7229.91
464.41	7489.71
464.59	7309.49
464.78	7597.38
464.96	7517.80
465.14	7541.21
465.32	7588.02
465.50	7466.31
465.69	7478.01
465.87	7475.67
466.05	7571.63
466.23	7758.88
466.41	7646.53
466.60	8042.08
466.78	7702.70
466.96	7606.74
467.14	7597.38
467.32	7838.45
467.51	7765.90
467.69	7796.32
467.87	7779.94
468.05	7943.78
468.23	7782.28
468.41	7932.08
468.60	8039.74
468.78	8006.97
468.96	7953.14
469.14	7948.46
469.32	8156.77
469.50	7948.46
469.69	8124.00
469.87	8135.70
470.05	8067.83
470.23	8128.68
470.41	8336.99
470.59	8442.31
470.77	8318.26
470.95	8402.52
471.14	8301.88
471.32	8454.02
471.50	8524.23
471.68	8655.30
471.86	8491.46
472.04	8608.49
472.22	8865.95
472.40	8578.06
472.58	8713.81
472.77	8648.28
472.95	9001.70
473.13	9074.26
473.31	8936.17
473.49	8589.77
473.67	8887.01
473.85	8903.40
474.03	9088.30
474.21	9078.94
474.39	9142.13
474.57	9083.62
474.75	9418.32
474.93	9312.99
475.12	9441.72
475.30	9430.02
475.48	9472.15
475.66	9418.32
475.84	9584.49
476.02	9694.50
476.20	9598.54
476.38	9806.84
476.56	10047.92
476.74	9853.66
476.92	10071.33
477.10	9984.73
477.28	10078.35
477.46	9809.19
477.64	9902.81
477.82	10387.30
478.00	10593.26
478.18	10279.63
478.36	10604.97
478.54	10661.14
478.72	10693.91
478.90	10824.98
479.08	10981.79
479.26	11157.33
479.44	11147.97
479.62	11225.21
479.80	11049.67
479.98	11267.34
480.16	11527.14
480.34	11367.98
480.52	11571.61
480.70	11735.45
480.88	11634.80
481.06	11723.74
481.24	11520.12
481.41	11943.75
481.59	11962.48
481.77	12044.40
481.95	11960.14
482.13	12299.52
482.31	12540.59
482.49	12559.31
482.67	12444.63
482.85	12519.53
483.03	12889.33
483.21	13036.78
483.39	12987.63
483.57	12985.29
483.74	13160.83
483.92	13432.33
484.10	13188.92
484.28	13617.24
484.46	13554.04
484.64	13921.51
484.82	13776.39
485.00	14071.30
485.18	14235.14
485.35	14279.61
485.53	14223.44
485.71	14361.53
485.89	14572.18
486.07	14431.74
486.25	14534.73
486.43	14553.45
486.61	14703.25
486.78	15178.37
486.96	14979.43
487.14	15360.94
487.32	15367.96
487.50	15445.20
487.68	15452.22
487.85	15660.52
488.03	16156.72
488.21	16056.08
488.39	15882.88
488.57	16088.84
488.75	16353.32
488.92	16681.00
489.10	16624.83
489.28	16666.95
489.46	16854.20
489.64	16781.64
489.81	17181.87
489.99	17298.90
490.17	17228.68
490.35	17511.89
490.53	17678.07
490.70	17710.83
490.88	17605.51
491.06	17963.61
491.24	17909.78
491.41	17977.65
491.59	17923.82
491.77	18054.89
491.95	18125.11
492.13	18471.51
492.30	18403.63
492.48	18609.60
492.66	18946.64
492.84	19040.26
493.01	19152.60
493.19	19101.11
493.37	19271.97
493.54	19276.65
493.72	19412.40
493.90	19480.28
494.08	19726.04
494.25	19702.63
494.43	19838.38
494.61	19871.15
494.79	20189.46
494.96	19922.64
495.14	20367.34
495.32	20664.59
495.49	20840.13
495.67	20755.87
495.85	21132.70
496.02	21142.06
496.20	21118.65
496.38	20985.24
496.55	21069.50
496.73	21659.32
496.91	21102.27
497.09	21738.90
497.26	21736.56
497.44	21455.69
497.62	21523.57
497.79	22017.42
497.97	21682.72
498.14	22333.39
498.32	22464.46
498.50	22293.60
498.67	23016.83
498.85	22618.94
499.03	22492.55
499.20	22806.18
499.38	22782.77
499.56	23108.11
499.73	23269.61
499.91	23047.26
500.08	23096.41
500.26	23161.94
500.44	23442.81
500.61	23850.06
500.79	23592.60
500.97	23831.33
501.14	23880.49
501.32	23901.55
501.49	24093.47
501.67	23910.91
501.84	23810.27
502.02	23718.99
502.20	24084.11
502.37	24552.22
502.55	24299.44
502.72	24290.08
502.90	24482.00
503.07	24435.19
503.25	24673.93
503.43	24627.12
503.60	24947.77
503.78	24947.77
503.95	24765.21
504.13	24741.80
504.30	25504.82
504.48	25071.82
504.65	25177.14
504.83	25689.72
505.01	25607.80
505.18	25549.29
505.36	25825.47
505.53	25558.65
505.71	25788.02
505.88	26054.84
506.06	25715.47
506.23	25869.94
506.41	26448.05
506.58	26251.45
506.76	26132.08
506.93	26267.83
507.11	26108.68
507.28	26321.66
507.46	26277.19
507.63	26548.70
507.81	26979.36
507.98	26567.42
508.16	27019.14
508.33	26890.41
508.50	27248.52
508.68	27274.26
508.85	27257.88
509.03	27122.13
509.20	27637.05
509.38	27606.62
509.55	27342.14
509.73	27583.21
509.90	27639.39
510.08	27641.73
510.25	27604.28
510.42	28245.58
510.60	27718.96
510.77	28287.71
510.95	28252.61
511.12	28439.85
511.30	27796.20
511.47	28379.00
511.64	28694.97
511.82	28603.69
511.99	28559.22
512.17	28898.59
512.34	28360.27
512.51	29151.37
512.69	29163.08
512.86	29256.70
513.04	29102.22
513.21	29212.23
513.38	29507.13
513.56	29621.82
513.73	29240.31
513.90	29479.05
514.08	29298.83
514.25	29586.71
514.43	29586.71
514.60	29895.66
514.77	29654.59
514.95	29996.31
515.12	29708.42
515.29	29935.45
515.47	30036.09
515.64	30192.91
515.81	30242.06
515.99	30277.17
516.16	31009.76
516.33	30586.12
516.51	30396.54
516.68	30267.81
516.85	30347.39
517.03	30981.67
517.20	31215.72
517.37	31246.15
517.54	31009.76
517.72	31234.45
517.89	31037.84
518.06	30890.39
518.24	31232.11
518.41	30869.33
518.58	31512.97
518.75	31307.01
518.93	31779.79
519.10	31428.71
519.27	31690.85
519.45	31512.97
519.62	31620.64
519.79	32039.59
519.96	31924.91
520.14	32034.91
520.31	31924.91
520.48	32259.60
520.65	31882.78
520.83	32496.00
521.00	32411.74
521.17	32374.29
521.34	32334.50
521.52	32332.16
521.69	32451.53
521.86	32610.68
522.03	32643.45
522.20	32580.26
522.38	32898.57
522.55	33006.23
522.72	32828.35
522.89	32650.47
523.07	33270.72
523.24	33036.66
523.41	33013.26
523.58	32716.01
523.75	33455.62
523.92	33043.68
524.10	33596.05
524.27	33947.13
524.44	33830.10
524.61	33876.91
524.78	34195.23
524.96	33624.14
525.13	33919.04
525.30	33968.19
525.47	34391.83
525.64	34075.86
525.81	34066.50
525.98	34462.05
526.16	34052.45
526.33	33991.60
526.50	34588.44
526.67	34150.76
526.84	34185.86
527.01	34155.44
527.18	34656.31
527.36	34771.00
527.53	34452.69
527.70	34941.86
527.87	34937.18
528.04	34749.93
528.21	34618.86
528.38	34724.19
528.55	35360.81
528.72	35161.87
528.89	35189.95
529.07	35030.80
529.24	35384.22
529.41	35101.01
529.58	35316.34
529.75	35501.25
529.92	35475.50
530.09	35374.86
530.26	35524.65
530.43	35468.48
530.60	35482.52
530.77	35332.73
530.94	35639.34
531.11	35468.48
531.28	36121.49
531.46	35723.60
531.63	35945.95
531.80	35824.24
531.97	36294.69
532.14	36690.24
532.31	36088.72
532.48	36318.09
532.65	36243.20
532.82	36053.61
532.99	36510.02
533.16	36254.90
533.33	36517.04
533.50	36636.41
533.67	36549.81
533.84	36449.16
534.01	36533.42
534.18	36308.73
534.35	36837.69
534.52	36903.23
534.69	37139.62
534.86	37212.18
535.03	36620.02
535.20	36905.57
535.37	37134.94
535.54	37195.79
535.71	36882.16
535.88	37137.28
536.05	37436.87
536.22	37249.63
536.38	37441.55
536.55	37359.63
536.72	37801.99
536.89	37303.46
537.06	37373.67
537.23	37654.54
537.40	37450.91
537.57	37170.05
537.74	37699.01
537.91	37865.19
538.08	37823.06
538.25	37605.39
538.42	37699.01
538.59	38019.66
538.75	37425.17
538.92	38024.34
539.09	38230.31
539.26	37984.55
539.43	38436.28
539.60	37872.21
539.77	38284.14
539.94	38445.64
540.11	38366.06
540.28	38497.13
540.44	38520.54
540.61	38220.95
540.78	38525.22
540.95	38731.18
541.12	39187.59
541.29	39133.76
541.46	38873.96
541.62	38909.07
541.79	39583.14
541.96	38953.54
542.13	39187.59
542.30	39061.20
542.47	39325.68
542.63	39730.59
542.80	39522.29
542.97	39611.23
543.14	39393.56
543.31	39667.40
543.48	39571.44
543.64	39892.09
543.81	40135.51
543.98	40203.38
544.15	39934.22
544.32	40278.28
544.48	40226.79
544.65	39508.24
544.82	40165.93
544.99	39742.30
545.16	39447.39
545.32	39966.99
545.49	40479.57
545.66	41317.48
545.83	41284.71
546.00	41563.23
546.16	40648.08
546.33	40060.61
546.50	39281.21
546.67	40170.61
546.83	39714.21
547.00	40472.54
547.17	39789.11
547.34	40470.20
547.50	40959.38
547.67	40392.97
547.84	40589.57
548.00	40315.73
548.17	40589.57
548.34	40390.62
548.51	40769.79
548.67	40868.09
548.84	40655.11
549.01	40673.83
549.18	40746.39
549.34	40612.98
549.51	40575.53
549.68	40802.56
549.84	40430.41
550.01	40701.92
550.18	40645.74
550.34	40617.66
550.51	41015.55
550.68	40975.76
550.84	40367.22
551.01	41053.00
551.18	40933.63
551.34	40863.41
551.51	40840.01
551.68	40517.01
551.84	41027.25
552.01	41109.17
552.18	41656.85
552.34	41057.68
552.51	41553.87
552.68	41198.11
552.84	40804.90
553.01	41673.24
553.18	41139.60
553.34	41474.29
553.51	41141.94
553.67	41415.78
553.84	41619.41
554.01	41455.57
554.17	41900.27
554.34	41359.61
554.51	41249.60
554.67	41773.88
554.84	41343.22
555.00	41471.95
555.17	41497.70
555.33	41647.49
555.50	41663.88
555.67	41736.43
555.83	41909.63
556.00	41481.31
556.16	41963.46
556.33	41909.63
556.50	42162.41
556.66	42377.74
556.83	42188.16
556.99	41837.08
557.16	42146.03
557.32	41778.56
557.49	42328.59
557.65	41825.37
557.82	42167.09
557.98	42005.59
558.15	41930.70
558.32	42124.96
558.48	41970.49
558.65	42120.28
558.81	42457.32
558.98	42075.81
559.14	42749.88
559.31	42389.44
559.47	42096.88
559.64	42377.74
559.80	42356.67
559.97	42368.38
560.13	42595.41
560.30	42256.03
560.46	42279.44
560.63	42494.77
560.79	41916.65
560.96	42494.77
561.12	42447.96
561.29	42370.72
561.45	42403.49
561.61	42609.45
561.78	42885.64
561.94	42871.59
562.11	42965.21
562.27	42548.60
562.44	42705.41
562.60	42359.02
562.77	42515.83
562.93	42445.62
563.10	43189.91
563.26	42422.21
563.42	43082.24
563.59	42525.19
563.75	42923.08
563.92	42742.86
564.08	42653.92
564.24	42677.33
564.41	42340.29
564.57	42408.17
564.74	42480.72
564.90	42820.10
565.07	43028.41
565.23	42485.40
565.39	42979.26
565.56	42731.16
565.72	42712.44
565.88	42775.63
566.05	42731.16
566.21	42745.20
566.38	42436.25
566.54	43019.05
566.70	43187.56
566.87	43367.79
567.03	42862.23
567.19	43337.36
567.36	43180.54
567.52	43030.75
567.68	43208.63
567.85	42651.58
568.01	43185.22
568.17	42794.36
568.34	43063.52
568.50	43119.69
568.66	43129.05
568.83	43189.91
568.99	42885.64
569.15	42834.14
569.32	43009.68
569.48	42838.83
569.64	42997.98
569.81	43007.34
569.97	43353.74
570.13	43119.69
570.30	42689.03
570.46	43430.98
570.62	43358.42
570.78	42794.36
570.95	43328.00
571.11	43351.40
571.27	42981.60
571.43	42700.73
571.60	43512.90
571.76	43133.73
571.92	43311.61
572.09	43395.87
572.25	43187.56
572.41	43091.60
572.57	43604.18
572.74	43505.88
572.90	43229.69
573.06	43206.29
573.22	43225.01
573.38	43208.63
573.55	43360.76
573.71	43508.22
573.87	43213.31
574.03	43447.36
574.20	43526.94
574.36	42969.90
574.52	43171.18
574.68	43295.23
574.84	43084.58
575.01	43370.13
575.17	43107.99
575.33	43129.05
575.49	43150.12
575.65	43964.62
575.82	43482.47
575.98	43208.63
576.14	43604.18
576.30	43578.43
576.46	43753.97
576.62	43641.63
576.79	43454.39
576.95	43278.85
577.11	43187.56
577.27	43454.39
577.43	43491.83
577.59	43517.58
577.75	43412.26
577.92	43260.12
578.08	43124.37
578.24	43178.20
578.40	43871.00
578.56	43878.02
578.72	43578.43
578.88	43391.19
579.04	43985.69
579.21	43370.13
579.37	43594.82
579.53	43697.80
579.69	43157.14
579.85	43267.14
580.01	43264.80
580.17	43068.20
580.33	43309.27
580.49	43325.66
580.65	43239.06
580.82	43681.42
580.98	43690.78
581.14	43552.69
581.30	43412.26
581.46	42969.90
581.62	43285.87
581.78	43107.99
581.94	43496.52
582.10	43262.46
582.26	43618.22
582.42	43210.97
582.58	43950.58
582.74	43489.49
582.90	43903.77
583.06	43847.60
583.22	43423.96
583.38	43627.59
583.54	43531.62
583.70	43166.50
583.86	43622.90
584.02	43241.40
584.18	43540.99
584.34	43753.97
584.50	43810.15
584.66	43498.86
584.82	43367.79
584.98	43798.44
585.14	43559.71
585.30	43243.74
585.46	43718.87
585.62	43529.28
585.78	43405.23
585.94	43599.50
586.10	43423.96
586.26	44072.29
586.42	43503.54
586.58	43646.31
586.74	43430.98
586.90	43356.08
587.06	43363.11
587.22	43880.36
587.38	43360.76
587.54	43700.14
587.70	43833.55
587.86	43667.37
588.02	43842.92
588.18	44093.35
588.34	43945.90
588.49	43538.65
588.65	43573.75
588.81	43679.08
588.97	43665.03
589.13	43201.61
589.29	43866.32
589.45	44006.75
589.61	43763.34
589.77	43878.02
589.93	44016.11
590.08	44051.22
590.24	44217.40
590.40	44240.81
590.56	44208.04
590.72	43735.25
590.88	43650.99
591.04	43505.88
591.20	43920.15
591.35	43824.19
591.51	43922.49
591.67	44016.11
591.83	43716.53
591.99	43878.02
592.15	43709.50
592.31	43990.37
592.46	43688.44
592.62	44051.22
592.78	43681.42
592.94	44060.58
593.10	44498.26
593.26	44119.10
593.41	44149.53
593.57	44198.68
593.73	44252.51
593.89	44149.53
594.05	43969.30
594.20	43723.55
594.36	43746.95
594.52	43442.68
594.68	43852.28
594.84	43606.52
594.99	44018.46
595.15	43985.69
595.31	44264.21
595.47	44081.65
595.62	44238.47
595.78	44341.45
595.94	44217.40
596.10	44154.21
596.25	44130.80
596.41	43672.06
596.57	43768.02
596.73	44144.84
596.88	43693.12
597.04	44051.22
597.20	44568.48
597.36	44004.41
597.51	44404.64
597.67	44182.29
597.83	44172.93
597.99	44177.61
598.14	44009.09
598.30	43915.47
598.46	43803.13
598.61	44186.97
598.77	43646.31
598.93	43875.68
599.09	44252.51
599.24	44350.81
599.40	44133.14
599.56	43938.88
599.71	44098.03
599.87	44690.19
600.03	44252.51
600.18	43665.03
600.34	44374.22
600.50	43913.13
600.65	44446.77
600.81	44194.00
600.97	44488.90
601.12	44514.65
601.28	43936.54
601.44	44079.31
601.59	44259.53
601.75	43810.15
601.91	43849.94
602.06	43711.84
602.22	44079.31
602.37	43697.80
602.53	43915.47
602.69	44151.87
602.84	43962.28
603.00	44114.42
603.16	43723.55
603.31	43866.32
603.47	44009.09
603.62	44098.03
603.78	43718.87
603.94	43990.37
604.09	43789.08
604.25	43775.04
604.40	43707.16
604.56	44196.34
604.71	44229.10
604.87	43868.66
605.03	43721.21
605.18	44161.23
605.34	44006.75
605.49	43398.21
605.65	43835.89
605.80	43721.21
605.96	43812.49
606.12	43342.04
606.27	44149.53
606.43	43533.96
606.58	43873.34
606.74	43676.74
606.89	43981.01
607.05	44072.29
607.20	43821.85
607.36	43358.42
607.51	43948.24
607.67	43302.25
607.82	43587.80
607.98	43365.45
608.13	43452.05
608.29	43578.43
608.44	43632.27
608.60	43543.33
608.75	43833.55
608.91	44018.46
609.06	43920.15
609.22	44119.10
609.37	43796.10
609.53	43388.85
609.68	43519.92
609.84	43351.40
609.99	43941.22
610.15	43756.32
610.30	43718.87
610.46	44102.71
610.61	44236.12
610.76	44381.24
610.92	44474.86
611.07	44622.31
611.23	44350.81
611.38	44406.98
611.54	44243.15
611.69	44093.35
611.84	44051.22
612.00	43779.72
612.15	43269.48
612.31	43632.27
612.46	43552.69
612.62	43604.18
612.77	43426.30
612.92	43758.66
613.08	43423.96
613.23	43215.65
613.39	42777.97
613.54	43068.20
613.69	42763.93
613.85	43005.00
614.00	43311.61
614.15	43138.41
614.31	43107.99
614.46	43147.78
614.62	43061.18
614.77	43337.36
614.92	43072.88
615.08	43051.81
615.23	42843.51
615.38	42815.42
615.54	42745.20
615.69	42450.30
615.84	42902.02
616.00	42988.62
616.15	43098.62
616.30	42714.78
616.46	42532.22
616.61	42340.29
616.76	42913.72
616.92	42728.82
617.07	42562.64
617.22	42822.44
617.37	42045.38
617.53	42574.34
617.68	42394.12
617.83	42403.49
617.99	42260.71
618.14	42176.45
618.29	42220.92
618.45	42246.67
618.60	42071.13
618.75	42787.33
618.90	42106.24
619.06	41914.31
619.21	42169.43
619.36	42436.25
619.51	42356.67
619.67	42190.50
619.82	41921.34
619.97	42050.06
620.12	42206.88
620.28	42139.00
620.43	42536.90
620.58	42314.55
620.73	42471.36
620.89	42506.47
621.04	42185.82
621.19	41933.04
621.34	42080.49
621.49	41666.22
621.65	42150.71
621.80	41893.25
621.95	41698.98
622.10	41839.42
622.25	41628.77
622.41	41839.42
622.56	42029.00
622.71	41862.82
622.86	41846.44
623.01	41626.43
623.16	41120.87
623.32	41404.08
623.47	42160.07
623.62	41247.26
623.77	41600.68
623.92	41422.80
624.07	41642.81
624.23	41233.22
624.38	41261.30
624.53	41441.53
624.68	41329.18
624.83	41633.45
624.98	41867.50
625.13	40917.25
625.29	41319.82
625.44	41338.54
625.59	41326.84
625.74	41024.91
625.89	41275.35
626.04	40964.06
626.19	41258.96
626.34	41022.57
626.49	41081.08
626.65	40491.27
626.80	41455.57
626.95	41144.28
627.10	40751.07
627.25	40748.73
627.40	40610.64
627.55	40477.22
627.70	40409.35
627.85	40706.60
628.00	40488.93
628.15	40470.20
628.30	40580.21
628.45	40582.55
628.60	40830.65
628.76	40612.98
628.91	40495.95
629.06	40851.71
629.21	40673.83
629.36	40706.60
629.51	40407.01
629.66	40835.33
629.81	40009.12
629.96	40027.84
630.11	40388.28
630.26	40231.47
630.41	40289.98
630.56	40383.60
630.71	40545.10
630.86	40074.65
631.01	40341.47
631.16	40666.81
631.31	40343.81
631.46	40179.98
631.61	40561.48
631.76	40245.51
631.91	39873.37
632.06	39725.91
632.21	40189.34
632.36	40098.06
632.51	39807.83
632.66	39541.01
632.81	39782.09
632.96	40184.66
633.10	40128.48
633.25	40381.26
633.40	40116.78
633.55	40215.08
633.70	39475.48
633.85	39611.23
634.00	39948.26
634.15	39634.63
634.30	39585.48
634.45	39552.71
634.60	39751.66
634.75	39522.29
634.90	39096.31
635.05	39704.85
635.19	39590.16
635.34	40060.61
635.49	39503.56
635.64	39791.45
635.79	39370.15
635.94	39538.67
636.09	39267.17
636.24	39206.31
636.39	39047.16
636.53	39353.77
636.68	39220.36
636.83	39225.04
636.98	39274.19
637.13	39463.77
637.28	39306.96
637.43	39515.26
637.57	39639.31
637.72	39220.36
637.87	38775.66
638.02	39098.65
638.17	39112.69
638.32	39035.45
638.46	38817.78
638.61	39236.74
638.76	38464.36
638.91	39112.69
639.06	38890.34
639.20	39023.75
639.35	38831.83
639.50	39138.44
639.65	38958.22
639.80	38855.23
639.94	38939.49
640.09	38766.29
640.24	38838.85
640.39	38583.73
640.54	38281.80
640.68	38300.53
640.83	38450.32
640.98	38307.55
641.13	38565.01
641.27	38623.52
641.42	38677.35
641.57	38623.52
641.72	38785.02
641.86	38480.75
642.01	38213.93
642.16	38691.40
642.31	37963.49
642.45	38614.16
642.60	38038.39
642.75	38092.22
642.90	38195.20
643.04	38181.16
643.19	37923.70
643.34	38010.30
643.48	38389.47
643.63	38522.88
643.78	38436.28
643.93	38038.39
644.07	38134.35
644.22	37993.92
644.37	38066.47
644.51	38031.36
644.66	38124.99
644.81	38029.02
644.95	37876.89
645.10	38232.65
645.25	37790.29
645.39	37436.87
645.54	38117.96
645.69	37336.23
645.83	38033.71
645.98	38373.08
646.13	38066.47
646.27	37390.06
646.42	37628.79
646.57	37813.70
646.71	37694.33
646.86	37500.06
647.00	37511.77
647.15	37287.07
647.30	37350.27
647.44	37598.37
647.59	37102.17
647.74	37378.36
647.88	37614.75
648.03	37380.70
648.17	37902.64
648.32	37088.13
648.47	37453.25
648.61	37631.13
648.76	37350.27
648.90	37310.48
649.05	36905.57
649.20	37317.50
649.34	37060.04
649.49	36943.02
649.63	37275.37
649.78	37167.71
649.92	36886.84
650.07	37408.78
650.21	37401.76
650.36	37331.54
650.51	36800.24
650.65	37518.79
650.80	37385.38
650.94	37282.39
651.09	36685.56
651.23	36875.14
651.38	36957.06
651.52	36657.47
651.67	36367.24
651.81	36954.72
651.96	36849.39
652.10	36804.92
652.25	36746.41
652.39	36708.96
652.54	37228.56
652.68	36652.79
652.83	36917.27
652.97	37261.33
653.12	37146.64
653.26	36781.52
653.41	36591.94
653.55	36435.12
653.70	36257.24
653.84	36830.67
653.99	36680.88
654.13	36240.86
654.27	36673.85
654.42	36287.67
654.56	36538.10
654.71	36573.21
654.85	36177.66
655.00	36121.49
655.14	36215.11
655.29	36282.98
655.43	36233.83
655.57	36196.38
655.72	36250.22
655.86	35959.99
656.01	35770.41
656.15	35723.60
656.30	36320.43
656.44	35786.79
656.58	35714.23
656.73	36065.31
656.87	35997.44
657.01	35725.94
657.16	35915.52
657.30	36336.82
657.45	35915.52
657.59	36034.89
657.73	35957.65
657.88	35964.67
658.02	35627.63
658.16	35950.63
658.31	35445.07
658.45	35615.93
658.60	35222.72
658.74	35346.77
658.88	35424.01
659.03	35524.65
659.17	35393.58
659.31	35070.59
659.46	35501.25
659.60	35496.56
659.74	35257.83
659.89	35250.81
660.03	34946.54
660.17	35143.14
660.32	35260.17
660.46	35344.43
660.60	35098.67
660.74	34969.94
660.89	34778.02
661.03	34696.10
661.17	34845.90
661.32	34623.54
661.46	35000.37
661.60	34792.06
661.74	34735.89
661.89	34850.58
662.03	34930.16
662.17	34705.46
662.31	34691.42
662.46	34440.98
662.60	34658.65
662.74	34616.52
662.88	34361.40
663.03	34150.76
663.17	34188.21
663.31	34129.69
663.45	34429.28
663.60	33717.76
663.74	34054.79
663.88	34052.45
664.02	33977.56
664.17	34288.85
664.31	33872.23
664.45	34127.35
664.59	33738.82
664.73	33783.29
664.88	33612.43
665.02	33649.88
665.16	33883.94
665.30	33565.62
665.44	34054.79
665.59	33574.98
665.73	33626.48
665.87	33373.70
666.01	33809.04
666.15	33333.91
666.29	33579.67
666.44	33233.27
666.58	33137.30
666.72	33308.16
666.86	33415.83
667.00	33167.73
667.14	33263.69
667.28	33387.74
667.43	32975.81
667.57	32996.87
667.71	32828.35
667.85	32807.29
667.99	32774.52
668.13	32613.02
668.27	32540.47
668.41	32236.20
668.56	32751.12
668.70	32952.40
668.84	32505.36
668.98	32388.33
669.12	32423.44
669.26	32137.90
669.40	32177.68
669.54	32130.87
669.68	32086.40
669.82	31747.03
669.96	31541.06
670.10	31992.78
670.25	32070.02
670.39	31400.63
670.53	31969.38
670.67	31854.69
670.81	31850.01
670.95	31491.91
671.09	31512.97
671.23	31651.06
671.37	31913.20
671.51	31372.54
671.65	31721.28
671.79	31456.80
671.93	31522.34
672.07	31255.51
672.21	31087.00
672.35	30665.70
672.49	31021.46
672.63	31037.84
672.77	30714.85
672.91	30698.47
673.05	30778.04
673.19	30923.16
673.33	30871.67
673.47	30895.07
673.61	30874.01
673.75	30888.05
673.89	30602.50
674.03	30712.51
674.17	30338.02
674.31	30209.29
674.45	30022.05
674.59	30190.57
674.73	30480.80
674.87	29603.10
675.01	30141.42
675.15	30003.33
675.29	29916.73
675.43	29923.75
675.56	30101.63
675.70	30307.60
675.84	29364.36
675.98	29010.94
676.12	29530.54
676.26	29446.28
676.40	29462.66
676.54	29242.65
676.68	29347.98
676.82	28360.27
676.96	28645.82
677.10	29095.20
677.23	28725.39
677.37	28367.29
677.51	28510.07
677.65	28470.28
677.79	28126.22
677.93	28514.75
678.07	28524.11
678.21	28098.13
678.34	27964.72
678.48	28037.28
678.62	27957.70
678.76	27871.10
678.90	27789.18
679.04	27730.67
679.18	28119.20
679.31	27257.88
679.45	27438.10
679.59	27325.75
679.73	27534.06
679.87	27012.12
680.00	26953.61
680.14	26799.13
680.28	27166.60
680.42	26867.01
680.56	26953.61
680.70	26815.52
680.83	26520.61
680.97	26822.54
681.11	26883.39
681.25	26501.89
681.39	26347.41
681.52	26389.54
681.66	26291.24
681.80	26059.52
681.94	26099.31
682.07	25991.65
682.21	25640.57
682.35	25504.82
682.49	25652.27
682.62	25706.10
682.76	25593.76
682.90	25633.55
683.04	25560.99
683.17	25305.87
683.31	25507.16
683.45	25481.41
683.59	25415.88
683.72	25324.60
683.86	25046.07
684.00	24814.36
684.13	24950.11
684.27	24748.82
684.41	24409.45
684.55	24690.31
684.68	24421.15
684.82	24119.22
684.96	24388.38
685.09	24074.75
685.23	24173.05
685.37	24311.14
685.50	24219.86
685.64	24020.92
685.78	23953.04
685.91	24077.09
686.05	23983.47
686.19	23782.18
686.32	23534.09
686.46	23412.38
686.60	23253.22
686.73	23424.08
686.87	23388.97
687.01	23260.24
687.14	23288.33
687.28	23152.58
687.42	22899.80
687.55	23080.02
687.69	22801.50
687.82	22649.36
687.96	22775.75
688.10	22808.52
688.23	22665.75
688.37	22740.64
688.50	22438.72
688.64	22293.60
688.78	22403.61
688.91	22155.51
689.05	21965.93
689.18	21951.88
689.32	21530.59
689.46	21909.75
689.59	21605.49
689.73	21708.47
689.86	21453.35
690.00	21727.19
690.13	21741.24
690.27	21530.59
690.41	21699.11
690.54	20854.17
690.68	21095.25
690.81	21212.28
690.95	21223.98
691.08	21006.31
691.22	21102.27
691.35	20596.71
691.49	20629.48
691.62	20489.05
691.76	20624.80
691.89	20568.63
692.03	20170.74
692.16	20180.10
692.30	20088.82
692.43	19641.78
692.57	19857.10
692.70	19983.49
692.84	19871.15
692.97	19784.55
693.11	19625.39
693.24	19775.19
693.38	19564.54
693.51	19431.13
693.65	19648.80
693.78	19180.69
693.92	19580.92
694.05	19154.94
694.19	19178.35
694.32	18970.04
694.45	18869.40
694.59	18995.79
694.72	18670.45
694.86	18899.83
694.99	18548.75
695.13	18738.33
695.26	18565.13
695.39	18242.14
695.53	18761.73
695.66	18635.35
695.80	18548.75
695.93	18251.50
696.07	18050.21
696.20	18150.85
696.33	18057.23
696.47	18045.53
696.60	18092.34
696.73	17378.48
696.87	17926.16
697.00	17633.60
697.14	17565.72
697.27	17156.13
697.40	17614.87
697.54	17296.56
697.67	17057.82
697.80	17158.47
697.94	16947.82
698.07	16774.62
698.21	17142.08
698.34	16952.50
698.47	17142.08
698.61	16929.09
698.74	16929.09
698.87	16662.27
699.01	16526.52
699.14	16655.25
699.27	16563.97
699.40	16475.03
699.54	16142.67
699.67	16037.35
699.80	15866.49
699.94	15922.66
700.07	15882.88
700.20	15653.50
700.34	15777.55
700.47	15620.74
700.60	15630.10
700.73	15852.45
700.87	15484.98
701.00	15288.38
701.13	15616.05
701.26	15454.56
701.40	15513.07
701.53	15384.34
701.66	15276.68
701.79	15288.38
701.93	15073.05
702.06	14949.00
702.19	14906.87
702.32	14946.66
702.46	14745.38
702.59	14516.00
702.72	14670.48
702.85	14555.79
702.99	14647.07
703.12	14413.02
703.25	14195.35
703.38	14546.43
703.51	14272.59
703.65	14307.69
703.78	14230.46
703.91	14239.82
704.04	14129.81
704.17	13961.30
704.31	14017.47
704.44	13820.86
704.57	13865.33
704.70	13809.16
704.83	13444.04
704.96	13635.96
705.10	13603.19
705.23	13561.06
>>>>>End Processed Spectral Data<<<<<
