SpectraSuite Data File
++++++++++++++++++++++++++++++++++++
Date: Fri Oct 04 11:40:03 GMT-05:00 2013
User: price-jones
Dark Spectrum Present: No
Reference Spectrum Present: No
Number of Sampled Component Spectra: 1
Spectrometers: USB2+H05261
Integration Time (usec): 100000 (USB2+H05261)
Spectra Averaged: 1 (USB2+H05261)
Boxcar Smoothing: 0 (USB2+H05261)
Correct for Electrical Dark: No (USB2+H05261)
Strobe/Lamp Enabled: No (USB2+H05261)
Correct for Detector Non-linearity: No (USB2+H05261)
Correct for Stray Light: No (USB2+H05261)
Number of Pixels in Processed Spectrum: 2048
>>>>>Begin Processed Spectral Data<<<<<
365.73	0.00
365.92	0.00
366.12	0.00
366.32	0.00
366.52	0.00
366.72	0.00
366.91	14.04
367.11	0.00
367.31	0.00
367.51	0.00
367.70	0.00
367.90	0.00
368.10	0.00
368.30	0.00
368.49	0.00
368.69	0.00
368.89	0.00
369.09	0.00
369.28	0.00
369.48	0.00
369.68	0.00
369.87	0.00
370.07	4.68
370.27	25.75
370.47	42.13
370.66	42.13
370.86	32.77
371.06	81.92
371.25	84.26
371.45	4.68
371.65	154.48
371.84	74.90
372.04	124.05
372.24	161.50
372.44	149.79
372.63	98.30
372.83	168.52
373.03	133.41
373.22	149.79
373.42	161.50
373.62	117.03
373.81	201.29
374.01	93.62
374.21	135.75
374.40	128.73
374.60	210.65
374.79	100.64
374.99	65.54
375.19	205.97
375.38	168.52
375.58	264.48
375.78	145.11
375.97	121.71
376.17	184.90
376.37	241.08
376.56	201.29
376.76	184.90
376.95	159.16
377.15	175.54
377.35	159.16
377.54	114.69
377.74	114.69
377.93	72.56
378.13	154.48
378.33	133.41
378.52	156.82
378.72	212.99
378.91	138.09
379.11	212.99
379.31	191.92
379.50	102.98
379.70	194.26
379.89	63.19
380.09	131.07
380.28	133.41
380.48	93.62
380.68	166.18
380.87	138.09
381.07	182.56
381.26	168.52
381.46	159.16
381.65	184.90
381.85	135.75
382.04	145.11
382.24	114.69
382.43	135.75
382.63	133.41
382.83	117.03
383.02	154.48
383.22	238.73
383.41	194.26
383.61	102.98
383.80	196.60
384.00	131.07
384.19	156.82
384.39	140.43
384.58	168.52
384.78	205.97
384.97	184.90
385.17	159.16
385.36	138.09
385.56	177.88
385.75	142.77
385.95	182.56
386.14	196.60
386.34	170.86
386.53	166.18
386.72	231.71
386.92	203.63
387.11	166.18
387.31	152.13
387.50	142.77
387.70	205.97
387.89	234.05
388.09	124.05
388.28	170.86
388.48	154.48
388.67	264.48
388.86	224.69
389.06	168.52
389.25	152.13
389.45	152.13
389.64	121.71
389.84	245.76
390.03	147.45
390.22	131.07
390.42	217.67
390.61	142.77
390.81	163.84
391.00	205.97
391.19	168.52
391.39	184.90
391.58	166.18
391.78	170.86
391.97	133.41
392.16	212.99
392.36	203.63
392.55	149.79
392.75	161.50
392.94	170.86
393.13	210.65
393.33	220.01
393.52	191.92
393.71	266.82
393.91	177.88
394.10	191.92
394.29	198.95
394.49	191.92
394.68	229.37
394.88	187.24
395.07	273.84
395.26	229.37
395.46	210.65
395.65	205.97
395.84	245.76
396.04	294.91
396.23	262.14
396.42	248.10
396.62	168.52
396.81	210.65
397.00	210.65
397.19	243.42
397.39	243.42
397.58	311.29
397.77	285.55
397.97	308.95
398.16	215.33
398.35	327.68
398.55	173.20
398.74	259.80
398.93	334.70
399.12	201.29
399.32	271.50
399.51	264.48
399.70	306.61
399.90	278.52
400.09	196.60
400.28	372.15
400.47	318.31
400.67	348.74
400.86	344.06
401.05	299.59
401.24	348.74
401.44	341.72
401.63	386.19
401.82	266.82
402.01	278.52
402.21	339.38
402.40	414.27
402.59	404.91
402.78	416.62
402.97	376.83
403.17	358.10
403.36	402.57
403.55	365.12
403.74	358.10
403.93	416.62
404.13	447.04
404.32	493.85
404.51	430.66
404.70	433.00
404.89	393.21
405.09	411.93
405.28	372.15
405.47	365.12
405.66	472.79
405.85	449.38
406.05	428.32
406.24	409.59
406.43	451.72
406.62	409.59
406.81	433.00
407.00	526.62
407.20	449.38
407.39	482.15
407.58	475.13
407.77	482.15
407.96	486.83
408.15	477.47
408.34	561.73
408.54	517.26
408.73	472.79
408.92	528.96
409.11	596.84
409.30	606.20
409.49	514.92
409.68	538.32
409.87	603.86
410.07	585.13
410.26	538.32
410.45	545.34
410.64	580.45
410.83	528.96
411.02	596.84
411.21	622.58
411.40	552.37
411.59	557.05
411.78	603.86
411.98	631.94
412.17	702.16
412.36	505.56
412.55	648.33
412.74	748.97
412.93	758.33
413.12	662.37
413.31	662.37
413.50	650.67
413.69	751.31
413.88	770.04
414.07	690.46
414.26	720.88
414.45	751.31
414.64	798.12
414.83	767.70
415.02	734.93
415.22	786.42
415.41	870.68
415.60	755.99
415.79	842.59
415.98	788.76
416.17	833.23
416.36	854.30
416.55	772.38
416.74	877.70
416.93	842.59
417.12	828.55
417.31	915.15
417.50	870.68
417.69	926.85
417.88	924.51
418.07	966.64
418.26	896.43
418.45	922.17
418.64	947.92
418.83	938.55
419.02	943.24
419.21	950.26
419.39	896.43
419.58	887.06
419.77	873.02
419.96	940.90
420.15	987.71
420.34	933.87
420.53	938.55
420.72	1004.09
420.91	1004.09
421.10	966.64
421.29	915.15
421.48	1006.43
421.67	980.68
421.86	961.96
422.05	1027.50
422.24	976.00
422.43	1032.18
422.61	889.40
422.80	1018.13
422.99	1027.50
423.18	945.58
423.37	1111.75
423.56	1064.94
423.75	978.34
423.94	1074.31
424.13	1046.22
424.32	997.07
424.50	1111.75
424.69	1184.31
424.88	1132.82
425.07	1086.01
425.26	1032.18
425.45	1116.44
425.64	1081.33
425.83	1046.22
426.01	1109.41
426.20	1139.84
426.39	1095.37
426.58	1137.50
426.77	1107.07
426.96	1109.41
427.15	1095.37
427.33	1076.65
427.52	1109.41
427.71	1137.50
427.90	1123.46
428.09	1210.06
428.28	1198.35
428.46	1186.65
428.65	1174.95
428.84	1224.10
429.03	1170.27
429.22	1181.97
429.40	1179.63
429.59	1149.20
429.78	1179.63
429.97	1130.48
430.16	1128.14
430.34	1196.01
430.53	1228.78
430.72	1224.10
430.91	1210.06
431.10	1245.16
431.28	1249.85
431.47	1198.35
431.66	1231.12
431.85	1252.19
432.03	1277.93
432.22	1210.06
432.41	1186.65
432.60	1273.25
432.79	1247.51
432.97	1277.93
433.16	1228.78
433.35	1322.40
433.54	1245.16
433.72	1291.98
433.91	1252.19
434.10	1294.32
434.28	1465.18
434.47	1390.28
434.66	1313.04
434.85	1341.13
435.03	1341.13
435.22	1694.55
435.41	2033.93
435.59	1891.15
435.78	1736.68
435.97	1502.62
436.16	1472.20
436.34	1446.45
436.53	1397.30
436.72	1289.64
436.90	1409.00
437.09	1350.49
437.28	1359.85
437.46	1420.71
437.65	1488.58
437.84	1434.75
438.02	1504.96
438.21	1481.56
438.40	1427.73
438.58	1500.28
438.77	1479.22
438.96	1493.26
439.14	1453.47
439.33	1540.07
439.52	1654.76
439.70	1427.73
439.89	1575.18
440.08	1577.52
440.26	1636.03
440.45	1607.95
440.63	1528.37
440.82	1579.86
441.01	1593.90
441.19	1647.74
441.38	1636.03
441.57	1556.46
441.75	1610.29
441.94	1696.89
442.12	1760.08
442.31	1774.13
442.50	1671.14
442.68	1640.72
442.87	1715.61
443.05	1694.55
443.24	1748.38
443.43	1673.48
443.61	1790.51
443.80	1757.74
443.98	1666.46
444.17	1664.12
444.35	1743.70
444.54	1820.94
444.73	1860.73
444.91	1893.49
445.10	1732.00
445.28	1699.23
445.47	1785.83
445.65	1893.49
445.84	1788.17
446.02	1769.44
446.21	1792.85
446.39	1703.91
446.58	1708.59
446.77	1806.89
446.95	1778.81
447.14	1778.81
447.32	1797.53
447.51	1846.68
447.69	1865.41
447.88	1809.23
448.06	1785.83
448.25	1790.51
448.43	1863.07
448.62	1846.68
448.80	1914.56
448.99	1846.68
449.17	1905.20
449.36	1710.93
449.54	1774.13
449.73	1895.83
449.91	1893.49
450.10	1832.64
450.28	1930.94
450.46	1989.46
450.65	1954.35
450.83	1856.04
451.02	1919.24
451.20	1909.88
451.39	1949.67
451.57	1977.75
451.76	1923.92
451.94	1954.35
452.13	1975.41
452.31	1968.39
452.49	1853.70
452.68	1935.62
452.86	1991.80
453.05	2097.12
453.23	1949.67
453.42	2101.80
453.60	1849.02
453.78	1926.26
453.97	1909.88
454.15	1996.48
454.34	1996.48
454.52	2050.31
454.70	2181.38
454.89	1959.03
455.07	2132.23
455.26	2106.48
455.44	2054.99
455.62	2200.10
455.81	2232.87
455.99	2062.01
456.17	2179.04
456.36	2066.69
456.54	2139.25
456.73	2214.15
456.91	2319.47
457.09	2216.49
457.28	2204.78
457.46	2157.97
457.64	2235.21
457.83	2186.06
458.01	2249.25
458.19	2242.23
458.38	2153.29
458.56	2258.62
458.74	2204.78
458.93	2286.70
459.11	2296.07
459.29	2216.49
459.48	2284.36
459.66	2267.98
459.84	2328.83
460.03	2392.03
460.21	2244.57
460.39	2422.45
460.57	2345.22
460.76	2401.39
460.94	2361.60
461.12	2340.54
461.31	2298.41
461.49	2385.01
461.67	2303.09
461.85	2471.61
462.04	2385.01
462.22	2878.86
462.40	2471.61
462.59	2396.71
462.77	2436.50
462.95	2473.95
463.13	2380.32
463.32	2356.92
463.50	2399.05
463.68	2319.47
463.86	2349.90
464.05	2513.74
464.23	2448.20
464.41	2483.31
464.59	2399.05
464.78	2593.31
464.96	2408.41
465.14	2396.71
465.32	2459.90
465.50	2572.25
465.69	2520.76
465.87	2478.63
466.05	2375.64
466.23	2520.76
466.41	2502.03
466.60	2509.05
466.78	2546.50
466.96	2506.71
467.14	2602.68
467.32	2651.83
467.51	2581.61
467.69	2520.76
467.87	2537.14
468.05	2663.53
468.23	2658.85
468.41	2597.99
468.60	2605.02
468.78	2628.42
468.96	2754.81
469.14	2663.53
469.32	2485.65
469.50	2649.49
469.69	2792.26
469.87	2834.39
470.05	2747.79
470.23	2635.44
470.41	2729.06
470.59	2736.09
470.77	2602.68
470.95	2700.98
471.14	2818.00
471.32	2712.68
471.50	2928.01
471.68	2820.35
471.86	2754.81
472.04	2808.64
472.22	2867.16
472.40	2626.08
472.58	2876.52
472.77	2855.45
472.95	2860.13
473.13	2977.16
473.31	2848.43
473.49	2871.84
473.67	2956.10
473.85	2820.35
474.03	2965.46
474.21	3023.97
474.39	3019.29
474.57	3014.61
474.75	3098.87
474.93	2993.55
475.12	2979.50
475.30	3152.70
475.48	3162.06
475.66	3185.47
475.84	3098.87
476.02	3157.38
476.20	3243.98
476.38	3082.49
476.56	3325.90
476.74	3265.05
476.92	3272.07
477.10	3197.17
477.28	3325.90
477.46	3368.03
477.64	3208.87
477.82	3440.59
478.00	3471.01
478.18	3389.10
478.36	3337.60
478.54	3382.07
478.72	3440.59
478.90	3597.40
479.08	3627.83
479.26	3632.51
479.44	3552.93
479.62	3637.19
479.80	3662.94
479.98	3618.47
480.16	3667.62
480.34	3625.49
480.52	3754.22
480.70	3824.44
480.88	3761.24
481.06	3826.78
481.24	3679.32
481.41	3705.07
481.59	3922.74
481.77	3936.78
481.95	4044.45
482.13	3929.76
482.31	3983.59
482.49	3983.59
482.67	3946.14
482.85	4119.34
483.03	4109.98
483.21	4042.11
483.39	4196.58
483.57	4198.92
483.74	4163.81
483.92	4257.43
484.10	4273.82
484.28	4381.48
484.46	4617.88
484.64	4540.64
484.82	4425.95
485.00	4545.32
485.18	4409.57
485.35	4407.23
485.53	4667.03
485.71	4681.07
485.89	4667.03
486.07	4812.14
486.25	4713.84
486.43	4681.07
486.61	4826.18
486.78	4837.89
486.96	4835.55
487.14	5018.11
487.32	4840.23
487.50	4919.81
487.68	4891.72
487.85	4957.25
488.03	5011.09
488.21	5282.59
488.39	5153.86
488.57	5188.97
488.75	5338.76
488.92	5476.85
489.10	5270.89
489.28	5324.72
489.46	5259.18
489.64	5413.66
489.81	5451.11
489.99	5446.43
490.17	5345.78
490.35	5640.69
490.53	5561.11
490.70	5788.14
490.88	5636.01
491.06	5596.22
491.24	5685.16
491.41	5750.70
491.59	5682.82
491.77	5856.02
491.95	6031.56
492.13	5844.32
492.30	5989.43
492.48	5951.98
492.66	6017.52
492.84	6031.56
493.01	6139.23
493.19	6047.94
493.37	6193.06
493.54	6134.54
493.72	6237.53
493.90	6282.00
494.08	6211.78
494.25	6394.34
494.43	6300.72
494.61	6282.00
494.79	6431.79
494.96	6368.60
495.14	6452.86
495.32	6455.20
495.49	6539.46
495.67	6340.51
495.85	6497.33
496.02	6630.74
496.20	6565.20
496.38	6675.21
496.55	6626.06
496.73	6935.01
496.91	6803.94
497.09	6869.47
497.26	6825.00
497.44	6562.86
497.62	6799.26
497.79	6953.73
497.97	6848.41
498.14	7126.93
498.32	6965.43
498.50	6986.50
498.67	7243.96
498.85	7007.56
499.03	7119.91
499.20	7007.56
499.38	7239.28
499.56	7290.77
499.73	7346.94
499.91	7241.62
500.08	7126.93
500.26	7255.66
500.44	7353.96
500.61	7412.48
500.79	7323.54
500.97	7363.33
501.14	7576.31
501.32	7478.01
501.49	7667.60
501.67	7386.73
501.84	7569.29
502.02	7421.84
502.20	7618.44
502.37	7630.15
502.55	7756.54
502.72	7592.70
502.90	7866.54
503.07	7562.27
503.25	7733.13
503.43	7826.75
503.60	7838.45
503.78	7815.05
503.95	7871.22
504.13	7709.72
504.30	7908.67
504.48	7976.55
504.65	8077.19
504.83	8077.19
505.01	8016.33
505.18	8011.65
505.36	8039.74
505.53	7955.48
505.71	8046.76
505.88	8168.47
506.06	8060.80
506.23	8187.19
506.41	8217.62
506.58	8299.54
506.76	8163.79
506.93	8329.97
507.11	8308.90
507.28	8351.03
507.46	8264.43
507.63	8376.78
507.81	8561.68
507.98	8259.75
508.16	8430.61
508.33	8248.05
508.50	8641.26
508.68	8624.87
508.85	8648.28
509.03	8526.57
509.20	8765.31
509.38	8889.35
509.55	8751.26
509.73	8659.98
509.90	8912.76
510.08	8723.18
510.25	8746.58
510.42	8746.58
510.60	8865.95
510.77	8936.17
510.95	8964.25
511.12	8821.48
511.30	8861.27
511.47	8840.20
511.64	8985.32
511.82	9064.89
511.99	9036.81
512.17	9076.60
512.34	9053.19
512.51	8936.17
512.69	9104.68
512.86	9132.77
513.04	9135.11
513.21	9366.82
513.38	9163.20
513.56	9167.88
513.73	9055.53
513.90	9055.53
514.08	9139.79
514.25	9488.53
514.43	9401.93
514.60	9441.72
514.77	9273.20
514.95	9540.02
515.12	9437.04
515.29	9345.76
515.47	9624.28
515.64	9427.68
515.81	9380.87
515.99	9589.17
516.16	9415.98
516.33	9799.82
516.51	9682.80
516.68	9366.82
516.85	9427.68
517.03	9563.43
517.20	9764.72
517.37	9675.77
517.54	9736.63
517.72	9806.84
517.89	9628.96
518.06	9743.65
518.24	9806.84
518.41	9804.50
518.58	9848.97
518.75	9902.81
518.93	10038.56
519.10	9799.82
519.27	9961.32
519.45	9902.81
519.62	9996.43
519.79	9977.70
519.96	10036.22
520.14	10024.51
520.31	10068.98
520.48	9921.53
520.65	10104.09
520.83	10155.58
521.00	10024.51
521.17	10080.69
521.34	10235.16
521.52	10626.03
521.69	10399.00
521.86	10387.30
522.03	10361.55
522.20	10078.35
522.38	10333.47
522.55	10244.52
522.72	10373.25
522.89	10296.02
523.07	10623.69
523.24	10417.72
523.41	10576.88
523.58	10501.98
523.75	10499.64
523.92	10693.91
524.10	10588.58
524.27	10525.39
524.44	10565.18
524.61	10916.26
524.78	10567.52
524.96	10656.46
525.13	10455.17
525.30	10340.49
525.47	10850.72
525.64	10761.78
525.81	10911.58
525.98	10862.43
526.16	10555.82
526.33	10857.75
526.50	10848.38
526.67	10679.86
526.84	10801.57
527.01	10911.58
527.18	10871.79
527.36	10881.15
527.53	10637.73
527.70	11033.29
527.87	10803.91
528.04	10981.79
528.21	11033.29
528.38	10998.18
528.55	11257.98
528.72	11232.23
528.89	11218.19
529.07	11159.67
529.24	10998.18
529.41	11026.26
529.58	11002.86
529.75	10977.11
529.92	11080.10
530.09	11243.93
530.26	11241.59
530.43	11239.25
530.60	11033.29
530.77	11101.16
530.94	11290.74
531.11	11260.32
531.28	11218.19
531.46	11257.98
531.63	11339.90
531.80	11470.97
531.97	11337.56
532.14	11274.36
532.31	11384.37
532.48	11419.47
532.65	11566.93
532.82	11262.66
532.99	11351.60
533.16	11332.87
533.33	11665.23
533.50	11466.28
533.67	11543.52
533.84	11243.93
534.01	11566.93
534.18	11470.97
534.35	11403.09
534.52	11564.59
534.69	11637.14
534.86	11625.44
535.03	11618.42
535.20	11693.32
535.37	11468.62
535.54	11800.98
535.71	11705.02
535.88	11824.39
536.05	11829.07
536.22	11665.23
536.38	11822.05
536.55	11613.74
536.72	11901.62
536.89	11740.13
537.06	11672.25
537.23	11660.55
537.40	11747.15
537.57	11712.04
537.74	11829.07
537.91	12102.91
538.08	11908.65
538.25	11850.13
538.42	11822.05
538.59	12121.63
538.75	11960.14
538.92	11892.26
539.09	12037.38
539.26	12126.32
539.43	12051.42
539.60	12056.10
539.77	12304.20
539.94	12285.47
540.11	12374.41
540.28	12229.30
540.44	12365.05
540.61	12287.81
540.78	12418.88
540.95	12580.38
541.12	12559.31
541.29	12622.51
541.46	12912.74
541.62	12919.76
541.79	12620.17
541.96	12772.30
542.13	12685.70
542.30	12580.38
542.47	12882.31
542.63	12765.28
542.80	12805.07
542.97	12964.23
543.14	12699.75
543.31	12816.77
543.48	12702.09
543.64	13034.44
543.81	12826.14
543.98	13004.02
544.15	13076.57
544.32	13114.02
544.48	13186.58
544.65	12917.42
544.82	13083.59
544.99	12837.84
545.16	12964.23
545.32	12854.22
545.49	13696.82
545.66	13980.02
545.83	14169.60
546.00	14022.15
546.16	13582.13
546.33	13275.52
546.50	12901.03
546.67	13020.40
546.83	12662.30
547.00	12732.51
547.17	12739.54
547.34	12545.27
547.50	12781.67
547.67	12933.80
547.84	12634.21
548.00	12826.14
548.17	12737.20
548.34	12903.37
548.51	12975.93
548.67	13039.12
548.84	12968.91
549.01	12917.42
549.18	12971.25
549.34	13006.36
549.51	12971.25
549.68	12912.74
549.84	12776.98
550.01	13067.21
550.18	12940.82
550.34	13074.23
550.51	12985.29
550.68	13057.85
550.84	12734.85
551.01	12917.42
551.18	12699.75
551.34	12697.41
551.51	12802.73
551.68	12784.01
551.84	12650.60
552.01	12872.95
552.18	13036.78
552.34	12919.76
552.51	12898.69
552.68	12968.91
552.84	12975.93
553.01	12645.91
553.18	13123.38
553.34	13092.96
553.51	13158.49
553.67	13242.75
553.84	13422.97
554.01	13015.72
554.17	13130.41
554.34	13109.34
554.51	12786.35
554.67	13118.70
554.84	13114.02
555.00	12784.01
555.17	12884.65
555.33	13212.32
555.50	13142.11
555.67	13107.00
555.83	13006.36
556.00	13053.17
556.16	13242.75
556.33	12989.97
556.50	12936.14
556.66	13032.10
556.83	13308.29
556.99	13036.78
557.16	13348.08
557.32	13254.45
557.49	13160.83
557.65	13137.43
557.82	13151.47
557.98	12957.21
558.15	13212.32
558.32	12863.58
558.48	13329.35
558.65	13090.62
558.81	13195.94
558.98	12978.27
559.14	13261.48
559.31	13006.36
559.47	13341.05
559.64	13247.43
559.80	13502.55
559.97	13067.21
560.13	13057.85
560.30	13233.39
560.46	13209.98
560.63	13329.35
560.79	13125.72
560.96	13256.79
561.12	13114.02
561.29	13247.43
561.45	13296.58
561.61	13074.23
561.78	13397.23
561.94	13397.23
562.11	13301.26
562.27	13329.35
562.44	13537.66
562.60	13109.34
562.77	13303.60
562.93	13266.16
563.10	13448.72
563.26	13209.98
563.42	13532.98
563.59	13415.95
563.75	13238.07
563.92	13305.95
564.08	13345.73
564.24	13458.08
564.41	13090.62
564.57	13252.11
564.74	13149.13
564.90	13458.08
565.07	13415.95
565.23	13186.58
565.39	13170.19
565.56	13128.06
565.72	13242.75
565.88	13441.70
566.05	13256.79
566.21	13324.67
566.38	13369.14
566.54	13181.90
566.70	13411.27
566.87	13364.46
567.03	13422.97
567.19	13465.10
567.36	13282.54
567.52	13439.36
567.68	13446.38
567.85	13376.16
568.01	13610.22
568.17	13329.35
568.34	13404.25
568.50	13549.36
568.66	13479.15
568.83	13542.34
568.99	13217.01
569.15	13469.78
569.32	13317.65
569.48	13109.34
569.64	13362.12
569.81	13371.48
569.97	13345.73
570.13	13411.27
570.30	13392.55
570.46	13458.08
570.62	13654.69
570.78	13544.68
570.95	13273.18
571.11	13322.33
571.27	13270.84
571.43	13156.15
571.60	13380.84
571.76	13167.85
571.92	13804.48
572.09	13434.68
572.25	13495.53
572.41	13476.80
572.57	13598.51
572.74	13280.20
572.90	13214.66
573.06	13472.12
573.22	13327.01
573.38	13411.27
573.55	13296.58
573.71	13378.50
573.87	13621.92
574.03	13376.16
574.20	13591.49
574.36	13343.39
574.52	13507.23
574.68	13401.91
574.84	13303.60
575.01	13565.74
575.17	13607.87
575.33	13369.14
575.49	13352.76
575.65	13205.30
575.82	13556.38
575.98	13486.17
576.14	13528.30
576.30	13376.16
576.46	13483.83
576.62	13673.41
576.79	13650.00
576.95	13912.14
577.11	13729.58
577.27	13525.96
577.43	13509.57
577.59	13551.70
577.75	13291.90
577.92	13518.93
578.08	13589.15
578.24	13397.23
578.40	13319.99
578.56	13865.33
578.72	13661.71
578.88	13825.54
579.04	13956.61
579.21	13504.89
579.37	13516.59
579.53	13654.69
579.69	13507.23
579.85	13652.34
580.01	13502.55
580.17	13638.30
580.33	13429.99
580.49	13561.06
580.65	13469.78
580.82	13540.00
580.98	13752.99
581.14	13415.95
581.30	13872.36
581.46	13476.80
581.62	13717.88
581.78	13771.71
581.94	13633.62
582.10	13488.51
582.26	13497.87
582.42	13628.94
582.58	13420.63
582.74	13291.90
582.90	13584.47
583.06	13455.74
583.22	13804.48
583.38	13542.34
583.54	13469.78
583.70	13619.58
583.86	13708.52
584.02	13731.92
584.18	13455.74
584.34	13708.52
584.50	13547.02
584.66	13603.19
584.82	13455.74
584.98	13540.00
585.14	13392.55
585.30	13427.65
585.46	13537.66
585.62	13376.16
585.78	13605.53
585.94	13547.02
586.10	13455.74
586.26	13483.83
586.42	13900.44
586.58	13771.71
586.74	13631.28
586.90	13554.04
587.06	13544.68
587.22	13752.99
587.38	13633.62
587.54	13600.85
587.70	13994.06
587.86	13671.07
588.02	13600.85
588.18	13631.28
588.34	13776.39
588.49	13584.47
588.65	13483.83
588.81	13523.62
588.97	13591.49
589.13	13455.74
589.29	13785.76
589.45	13619.58
589.61	13781.07
589.77	13593.83
589.93	13404.25
590.08	13521.27
590.24	13788.10
590.40	13825.54
590.56	13703.84
590.72	13610.22
590.88	13486.17
591.04	13514.25
591.20	13823.20
591.35	13811.50
591.51	13872.36
591.67	13699.16
591.83	13628.94
591.99	13748.31
592.15	13678.09
592.31	13804.48
592.46	13598.51
592.62	13439.36
592.78	13832.57
592.94	13444.04
593.10	13657.03
593.26	13713.20
593.41	13659.37
593.57	13650.00
593.73	13715.54
593.89	13738.94
594.05	13802.14
594.20	13502.55
594.36	13762.35
594.52	13668.73
594.68	13525.96
594.84	13582.13
594.99	13858.31
595.15	13584.47
595.31	13881.72
595.47	13900.44
595.62	13947.25
595.78	13874.70
595.94	13638.30
596.10	13671.07
596.25	13802.14
596.41	13642.98
596.57	13500.21
596.73	13795.12
596.88	13511.91
597.04	13563.40
597.20	13767.03
597.36	13694.47
597.51	13530.64
597.67	13537.66
597.83	13621.92
597.99	13776.39
598.14	13722.56
598.30	13752.99
598.46	13497.87
598.61	13818.52
598.77	13687.45
598.93	13692.13
599.09	13881.72
599.24	13968.32
599.40	13994.06
599.56	13884.06
599.71	13444.04
599.87	13497.87
600.03	13722.56
600.18	13366.80
600.34	13462.76
600.50	13666.39
600.65	13783.41
600.81	13591.49
600.97	13572.77
601.12	13851.29
601.28	13621.92
601.44	13607.87
601.59	13703.84
601.75	13458.08
601.91	13675.75
602.06	13617.24
602.22	13568.09
602.37	13661.71
602.53	13689.79
602.69	13949.59
602.84	13650.00
603.00	13572.77
603.16	13935.55
603.31	13818.52
603.47	13563.40
603.62	13582.13
603.78	13462.76
603.94	13490.85
604.09	13584.47
604.25	13591.49
604.40	13624.26
604.56	13591.49
604.71	13652.34
604.87	13500.21
605.03	13357.44
605.18	13228.71
605.34	13575.11
605.49	13668.73
605.65	13617.24
605.80	13270.84
605.96	13350.42
606.12	13352.76
606.27	13661.71
606.43	13397.23
606.58	13547.02
606.74	13434.68
606.89	13532.98
607.05	13579.79
607.20	13565.74
607.36	13540.00
607.51	13626.60
607.67	13247.43
607.82	13547.02
607.98	13600.85
608.13	13362.12
608.29	13593.83
608.44	13579.79
608.60	13696.82
608.75	13631.28
608.91	13418.29
609.06	13530.64
609.22	13734.26
609.37	13371.48
609.53	13682.77
609.68	13413.61
609.84	13720.22
609.99	13921.51
610.15	13870.01
610.30	13998.74
610.46	14129.81
610.61	14251.52
610.76	14506.64
610.92	14899.85
611.07	15061.35
611.23	15084.75
611.38	14686.86
611.54	14740.69
611.69	14326.42
611.84	14171.94
612.00	14005.77
612.15	13855.97
612.31	13984.70
612.46	13860.65
612.62	13717.88
612.77	13694.47
612.92	13767.03
613.08	13565.74
613.23	13593.83
613.39	13614.90
613.54	13458.08
613.69	13582.13
613.85	13327.01
614.00	13322.33
614.15	13350.42
614.31	13462.76
614.46	13752.99
614.62	13600.85
614.77	13591.49
614.92	13420.63
615.08	13607.87
615.23	13469.78
615.38	13495.53
615.54	13116.36
615.69	13366.80
615.84	13092.96
616.00	13209.98
616.15	13172.54
616.30	13125.72
616.46	13146.79
616.61	13441.70
616.76	13425.31
616.92	13191.26
617.07	13207.64
617.22	13071.89
617.37	13076.57
617.53	13006.36
617.68	13104.66
617.83	13165.51
617.99	13235.73
618.14	12723.15
618.29	13123.38
618.45	12809.75
618.60	13125.72
618.75	12999.34
618.90	13074.23
619.06	12994.65
619.21	13074.23
619.36	13048.49
619.51	12940.82
619.67	12868.27
619.82	12882.31
619.97	13081.25
620.12	12837.84
620.28	12779.32
620.43	12971.25
620.58	13158.49
620.73	13191.26
620.89	13041.46
621.04	13109.34
621.19	12889.33
621.34	12821.45
621.49	12877.63
621.65	12812.09
621.80	13036.78
621.95	12819.11
622.10	13074.23
622.25	12959.55
622.41	12823.80
622.56	12947.84
622.71	12922.10
622.86	13167.85
623.01	12702.09
623.16	12681.02
623.32	12706.77
623.47	12912.74
623.62	12765.28
623.77	12795.71
623.92	12659.96
624.07	12643.57
624.23	12720.81
624.38	13081.25
624.53	12905.71
624.68	12791.03
624.83	12917.42
624.98	12556.97
625.13	12854.22
625.29	12833.16
625.44	12982.95
625.59	12842.52
625.74	12732.51
625.89	12748.90
626.04	12507.82
626.19	12643.57
626.34	12500.80
626.49	12475.06
626.65	12535.91
626.80	12734.85
626.95	12655.28
627.10	12622.51
627.25	12472.71
627.40	12800.39
627.55	12608.47
627.70	12486.76
627.85	12641.23
628.00	12528.89
628.15	12383.77
628.30	12414.20
628.45	12334.62
628.60	12463.35
628.76	12397.82
628.91	12568.68
629.06	12453.99
629.21	12430.59
629.36	12472.71
629.51	12505.48
629.66	12416.54
629.81	12437.61
629.96	12367.39
630.11	12397.82
630.26	12140.36
630.41	12404.84
630.56	12512.50
630.71	12538.25
630.86	12458.67
631.01	12458.67
631.16	12690.38
631.31	12400.16
631.46	12393.14
631.61	12493.78
631.76	12360.37
631.91	12564.00
632.06	12173.13
632.21	12376.75
632.36	12287.81
632.51	12435.27
632.66	12325.26
632.81	12215.26
632.96	12425.90
633.10	12280.79
633.25	12210.57
633.40	12327.60
633.55	12116.95
633.70	12147.38
633.85	12161.42
634.00	12156.74
634.15	12205.89
634.30	11983.54
634.45	11997.59
634.60	12322.92
634.75	12056.10
634.90	12224.62
635.05	12049.08
635.19	12189.51
635.34	12255.04
635.49	12028.01
635.64	12018.65
635.79	12163.76
635.94	12065.46
636.09	12023.33
636.24	11920.35
636.39	11967.16
636.53	11747.15
636.68	12245.68
636.83	11950.78
636.98	12236.32
637.13	12175.47
637.28	12039.72
637.43	12119.29
637.57	12070.14
637.72	12030.35
637.87	11934.39
638.02	11974.18
638.17	11871.20
638.32	12067.80
638.46	12084.19
638.61	11995.25
638.76	11929.71
638.91	11957.80
639.06	12053.76
639.20	11683.95
639.35	12011.63
639.50	11894.60
639.65	11712.04
639.80	11838.43
639.94	11793.96
640.09	11833.75
640.24	11824.39
640.39	11864.18
640.54	11655.87
640.68	11941.41
640.83	11796.30
640.98	11744.81
641.13	11681.61
641.27	11758.85
641.42	11646.51
641.57	11777.58
641.72	12002.27
641.86	11705.02
642.01	11875.88
642.16	11957.80
642.31	11508.41
642.45	11910.99
642.60	11658.21
642.75	11845.45
642.90	11700.34
643.04	11606.72
643.19	11744.81
643.34	11719.06
643.48	11679.27
643.63	11667.57
643.78	11620.76
643.93	11819.71
644.07	11777.58
644.22	11805.66
644.37	11632.46
644.51	11637.14
644.66	11630.12
644.81	11440.54
644.95	11693.32
645.10	11651.19
645.25	11466.28
645.39	11630.12
645.54	11679.27
645.69	11527.14
645.83	11557.57
645.98	11485.01
646.13	11648.85
646.27	11789.28
646.42	11646.51
646.57	11723.74
646.71	11555.22
646.86	11496.71
647.00	11700.34
647.15	11316.49
647.30	11424.15
647.44	11377.34
647.59	11702.68
647.74	11435.86
647.88	11485.01
648.03	11396.07
648.17	11730.76
648.32	11545.86
648.47	11625.44
648.61	11412.45
648.76	11454.58
648.90	11321.17
649.05	11269.68
649.20	11208.83
649.34	11494.37
649.49	11222.87
649.63	11510.75
649.78	11311.81
649.92	11492.03
650.07	11407.77
650.21	11477.99
650.36	11698.00
650.51	11468.62
650.65	11461.60
650.80	11197.12
650.94	11534.16
651.09	11234.57
651.23	11260.32
651.38	11426.50
651.52	11206.48
651.67	11260.32
651.81	11431.18
651.96	11124.57
652.10	11136.27
652.25	11346.92
652.39	11176.06
652.54	11288.40
652.68	11391.39
652.83	11506.07
652.97	11236.91
653.12	11435.86
653.26	11276.70
653.41	11171.38
653.55	11215.85
653.70	11192.44
653.84	11119.89
653.99	11129.25
654.13	11222.87
654.27	11215.85
654.42	11087.12
654.56	11089.46
654.71	10977.11
654.85	10972.43
655.00	10953.71
655.14	11206.48
655.29	11154.99
655.43	11225.21
655.57	11108.18
655.72	11077.76
655.86	10927.96
656.01	11105.84
656.15	10799.23
656.30	11110.52
656.44	11044.99
656.58	10946.69
656.73	11098.82
656.87	11176.06
657.01	10972.43
657.16	11295.43
657.30	10925.62
657.45	11129.25
657.59	11187.76
657.73	11005.20
657.88	10850.72
658.02	11052.01
658.16	10956.05
658.31	10864.77
658.45	11054.35
658.60	10766.46
658.74	11089.46
658.88	10902.22
659.03	10801.57
659.17	10874.13
659.31	10925.62
659.46	10834.34
659.60	11014.56
659.74	10721.99
659.89	10956.05
660.03	10785.19
660.17	10827.32
660.32	10817.96
660.46	10836.68
660.60	10651.78
660.74	10707.95
660.89	10619.01
661.03	10773.49
661.17	10654.12
661.32	10775.83
661.46	10534.75
661.60	10799.23
661.74	10675.18
661.89	10675.18
662.03	10679.86
662.17	10668.16
662.31	10677.52
662.46	10628.37
662.60	10490.28
662.74	10361.55
662.88	10516.03
663.03	10384.96
663.17	10340.49
663.31	10501.98
663.45	10555.82
663.60	10534.75
663.74	10420.06
663.88	10494.96
664.02	10548.79
664.17	10342.83
664.31	10539.43
664.45	10501.98
664.59	10469.22
664.73	10480.92
664.88	10340.49
665.02	10186.01
665.16	10146.22
665.30	10317.08
665.44	10214.10
665.59	10424.75
665.73	10228.14
665.87	10382.62
666.01	10022.17
666.15	10066.64
666.29	10155.58
666.44	10504.32
666.58	10087.71
666.72	10132.18
666.86	10064.30
667.00	10122.82
667.14	10087.71
667.28	10083.03
667.43	10092.39
667.57	10097.07
667.71	10256.23
667.85	10068.98
667.99	10057.28
668.13	10012.81
668.27	9933.23
668.41	10094.73
668.56	9858.34
668.70	9991.75
668.84	10003.45
668.98	9947.28
669.12	10038.56
669.26	10171.97
669.40	9851.31
669.54	9966.00
669.68	10059.62
669.82	9685.14
669.96	9830.25
670.10	9954.30
670.25	9902.81
670.39	9776.42
670.53	9645.35
670.67	9757.69
670.81	9827.91
670.95	9867.70
671.09	10043.24
671.23	9900.47
671.37	9867.70
671.51	9671.09
671.65	9551.73
671.79	9673.43
671.93	9437.04
672.07	9673.43
672.21	9638.33
672.35	9542.36
672.49	9474.49
672.63	9535.34
672.77	9518.96
672.91	9310.65
673.05	9600.88
673.19	9561.09
673.33	9404.27
673.47	9380.87
673.61	9558.75
673.75	9322.35
673.89	9371.50
674.03	9301.29
674.17	9240.44
674.31	9415.98
674.45	9296.61
674.59	9359.80
674.73	9029.79
674.87	9123.41
675.01	9172.56
675.15	9029.79
675.29	9107.02
675.43	9305.97
675.56	9153.84
675.70	9114.05
675.84	9160.86
675.98	8912.76
676.12	9308.31
676.26	9200.65
676.40	8985.32
676.54	9027.45
676.68	8940.85
676.82	8863.61
676.96	8901.06
677.10	8849.57
677.23	8795.73
677.37	8809.78
677.51	8730.20
677.65	8994.68
677.79	8889.35
677.93	8849.57
678.07	8734.88
678.21	8519.55
678.34	8528.91
678.48	8739.56
678.62	8613.17
678.76	8608.49
678.90	8430.61
679.04	8465.72
679.18	8622.53
679.31	8437.63
679.45	8414.23
679.59	8325.29
679.73	8252.73
679.87	8285.50
680.00	8381.46
680.14	8491.46
680.28	8315.92
680.42	8215.28
680.56	8259.75
680.70	8304.22
680.83	8299.54
680.97	8386.14
681.11	8336.99
681.25	8152.09
681.39	8011.65
681.52	8163.79
681.66	7948.46
681.80	8189.53
681.94	8126.34
682.07	8098.25
682.21	8135.70
682.35	7932.08
682.49	7983.57
682.62	7999.95
682.76	7866.54
682.90	7836.11
683.04	7894.63
683.17	7871.22
683.31	7908.67
683.45	7962.50
683.59	7871.22
683.72	7861.86
683.86	7676.96
684.00	7639.51
684.13	7882.92
684.27	7646.53
684.41	7616.10
684.55	7602.06
684.68	7698.02
684.82	7602.06
684.96	7562.27
685.09	7360.98
685.23	7398.43
685.37	7389.07
685.50	7517.80
685.64	7503.76
685.78	7543.55
685.91	7360.98
686.05	7606.74
686.19	7496.74
686.32	7325.88
686.46	7187.79
686.60	7265.02
686.73	7349.28
686.87	7185.44
687.01	7232.26
687.14	7129.27
687.28	7279.07
687.42	7314.17
687.55	7077.78
687.69	7211.19
687.82	6993.52
687.96	7040.33
688.10	6995.86
688.23	7119.91
688.37	7131.61
688.50	7042.67
688.64	7117.57
688.78	6890.54
688.91	7087.14
689.05	6895.22
689.18	6698.61
689.32	6722.02
689.46	6932.67
689.59	6862.45
689.73	6658.82
689.86	6693.93
690.00	6745.42
690.13	6715.00
690.27	6607.33
690.41	6752.45
690.54	6565.20
690.68	6693.93
690.81	6712.66
690.95	6700.95
691.08	6572.22
691.22	6562.86
691.35	6417.75
691.49	6569.88
691.62	6375.62
691.76	6300.72
691.89	6487.96
692.03	6321.79
692.16	6466.90
692.30	6167.31
692.43	6216.46
692.57	6197.74
692.70	6064.33
692.84	6209.44
692.97	6190.72
693.11	6324.13
693.24	6333.49
693.38	6136.88
693.51	6085.39
693.65	6155.61
693.78	6127.52
693.92	6108.80
694.05	6195.40
694.19	5942.62
694.32	6054.97
694.45	5860.70
694.59	5947.30
694.72	5860.70
694.86	5856.02
694.99	5760.06
695.13	5891.13
695.26	5930.92
695.39	5865.38
695.53	5750.70
695.66	5870.06
695.80	5706.23
695.93	5678.14
696.07	5797.51
696.20	5771.76
696.33	5528.35
696.47	5533.03
696.60	5554.09
696.73	5551.75
696.87	5748.36
697.00	5713.25
697.14	5509.62
697.27	5298.97
697.40	5591.54
697.54	5488.56
697.67	5310.68
697.80	5474.51
697.94	5331.74
698.07	5308.34
698.21	5305.99
698.34	5270.89
698.47	5313.02
698.61	5275.57
698.74	5451.11
698.87	5233.44
699.01	5205.35
699.14	5160.88
699.27	5177.26
699.40	5301.31
699.54	5221.74
699.67	5095.35
699.80	5025.13
699.94	5135.14
700.07	4844.91
700.20	4983.00
700.34	4910.44
700.47	4734.90
700.60	4947.89
700.73	4924.49
700.87	4889.38
701.00	4940.87
701.13	4924.49
701.26	4823.84
701.40	4784.06
701.53	4704.48
701.66	4774.69
701.79	4830.87
701.93	4781.71
702.06	4762.99
702.19	4552.34
702.32	4716.18
702.46	4624.90
702.59	4533.62
702.72	4587.45
702.85	4685.75
702.99	4648.30
703.12	4561.70
703.25	4528.94
703.38	4498.51
703.51	4601.49
703.65	4517.23
703.78	4610.86
703.91	4437.66
704.04	4465.74
704.17	4564.04
704.31	4287.86
704.44	4418.93
704.57	4367.44
704.70	4322.97
704.83	4390.84
704.96	4341.69
705.10	4306.59
705.23	4166.15
>>>>>End Processed Spectral Data<<<<<
