SpectraSuite Data File
++++++++++++++++++++++++++++++++++++
Date: Fri Oct 04 11:39:57 GMT-05:00 2013
User: price-jones
Dark Spectrum Present: No
Reference Spectrum Present: No
Number of Sampled Component Spectra: 1
Spectrometers: USB2+H05261
Integration Time (usec): 100000 (USB2+H05261)
Spectra Averaged: 1 (USB2+H05261)
Boxcar Smoothing: 0 (USB2+H05261)
Correct for Electrical Dark: No (USB2+H05261)
Strobe/Lamp Enabled: No (USB2+H05261)
Correct for Detector Non-linearity: No (USB2+H05261)
Correct for Stray Light: No (USB2+H05261)
Number of Pixels in Processed Spectrum: 2048
>>>>>Begin Processed Spectral Data<<<<<
365.73	100.64
365.92	100.64
366.12	100.64
366.32	0.00
366.52	0.00
366.72	0.00
366.91	0.00
367.11	0.00
367.31	0.00
367.51	0.00
367.70	14.04
367.90	0.00
368.10	0.00
368.30	0.00
368.49	0.00
368.69	0.00
368.89	0.00
369.09	0.00
369.28	0.00
369.48	0.00
369.68	0.00
369.87	53.83
370.07	9.36
370.27	77.24
370.47	0.00
370.66	32.77
370.86	86.60
371.06	0.00
371.25	140.43
371.45	0.00
371.65	70.22
371.84	39.79
372.04	35.11
372.24	16.38
372.44	91.28
372.63	70.22
372.83	149.79
373.03	102.98
373.22	131.07
373.42	95.96
373.62	110.01
373.81	161.50
374.01	168.52
374.21	102.98
374.40	112.35
374.60	147.45
374.79	79.58
374.99	198.95
375.19	140.43
375.38	142.77
375.58	88.94
375.78	107.66
375.97	102.98
376.17	138.09
376.37	124.05
376.56	95.96
376.76	142.77
376.95	88.94
377.15	196.60
377.35	142.77
377.54	65.54
377.74	119.37
377.93	131.07
378.13	131.07
378.33	133.41
378.52	46.81
378.72	138.09
378.91	119.37
379.11	81.92
379.31	107.66
379.50	126.39
379.70	133.41
379.89	187.24
380.09	166.18
380.28	86.60
380.48	107.66
380.68	70.22
380.87	93.62
381.07	81.92
381.26	98.30
381.46	81.92
381.65	95.96
381.85	70.22
382.04	46.81
382.24	131.07
382.43	60.85
382.63	74.90
382.83	142.77
383.02	135.75
383.22	100.64
383.41	138.09
383.61	77.24
383.80	95.96
384.00	81.92
384.19	112.35
384.39	138.09
384.58	93.62
384.78	138.09
384.97	100.64
385.17	112.35
385.36	163.84
385.56	163.84
385.75	98.30
385.95	175.54
386.14	135.75
386.34	77.24
386.53	93.62
386.72	112.35
386.92	128.73
387.11	142.77
387.31	152.13
387.50	74.90
387.70	56.17
387.89	152.13
388.09	105.32
388.28	72.56
388.48	126.39
388.67	128.73
388.86	65.54
389.06	107.66
389.25	264.48
389.45	140.43
389.64	189.58
389.84	84.26
390.03	84.26
390.22	119.37
390.42	163.84
390.61	84.26
390.81	53.83
391.00	119.37
391.19	131.07
391.39	86.60
391.58	119.37
391.78	107.66
391.97	135.75
392.16	154.48
392.36	117.03
392.55	131.07
392.75	112.35
392.94	53.83
393.13	138.09
393.33	168.52
393.52	180.22
393.71	168.52
393.91	147.45
394.10	67.88
394.29	135.75
394.49	86.60
394.68	168.52
394.88	168.52
395.07	149.79
395.26	180.22
395.46	133.41
395.65	156.82
395.84	74.90
396.04	217.67
396.23	175.54
396.42	124.05
396.62	138.09
396.81	124.05
397.00	105.32
397.19	112.35
397.39	152.13
397.58	166.18
397.77	142.77
397.97	166.18
398.16	173.20
398.35	131.07
398.55	152.13
398.74	95.96
398.93	159.16
399.12	126.39
399.32	135.75
399.51	161.50
399.70	229.37
399.90	154.48
400.09	133.41
400.28	93.62
400.47	121.71
400.67	147.45
400.86	102.98
401.05	166.18
401.24	121.71
401.44	149.79
401.63	170.86
401.82	196.60
402.01	168.52
402.21	201.29
402.40	191.92
402.59	135.75
402.78	149.79
402.97	191.92
403.17	161.50
403.36	91.28
403.55	175.54
403.74	184.90
403.93	184.90
404.13	238.73
404.32	259.80
404.51	255.12
404.70	301.93
404.89	184.90
405.09	175.54
405.28	135.75
405.47	114.69
405.66	203.63
405.85	203.63
406.05	182.56
406.24	184.90
406.43	168.52
406.62	117.03
406.81	238.73
407.00	196.60
407.20	161.50
407.39	105.32
407.58	210.65
407.77	189.58
407.96	283.20
408.15	208.31
408.34	159.16
408.54	243.42
408.73	74.90
408.92	86.60
409.11	107.66
409.30	119.37
409.49	117.03
409.68	126.39
409.87	149.79
410.07	161.50
410.26	170.86
410.45	175.54
410.64	215.33
410.83	180.22
411.02	149.79
411.21	229.37
411.40	152.13
411.59	112.35
411.78	184.90
411.98	208.31
412.17	163.84
412.36	170.86
412.55	194.26
412.74	238.73
412.93	156.82
413.12	201.29
413.31	217.67
413.50	238.73
413.69	133.41
413.88	205.97
414.07	142.77
414.26	154.48
414.45	114.69
414.64	156.82
414.83	175.54
415.02	159.16
415.22	245.76
415.41	217.67
415.60	142.77
415.79	234.05
415.98	220.01
416.17	203.63
416.36	220.01
416.55	107.66
416.74	180.22
416.93	255.12
417.12	180.22
417.31	156.82
417.50	147.45
417.69	231.71
417.88	198.95
418.07	156.82
418.26	170.86
418.45	191.92
418.64	280.86
418.83	182.56
419.02	252.78
419.21	175.54
419.39	257.46
419.58	215.33
419.77	177.88
419.96	173.20
420.15	238.73
420.34	187.24
420.53	224.69
420.72	196.60
420.91	187.24
421.10	229.37
421.29	285.55
421.48	245.76
421.67	287.89
421.86	220.01
422.05	180.22
422.24	203.63
422.43	191.92
422.61	217.67
422.80	177.88
422.99	322.99
423.18	227.03
423.37	212.99
423.56	220.01
423.75	217.67
423.94	257.46
424.13	145.11
424.32	234.05
424.50	220.01
424.69	224.69
424.88	285.55
425.07	149.79
425.26	142.77
425.45	191.92
425.64	154.48
425.83	241.08
426.01	194.26
426.20	208.31
426.39	234.05
426.58	187.24
426.77	227.03
426.96	220.01
427.15	266.82
427.33	142.77
427.52	203.63
427.71	203.63
427.90	194.26
428.09	159.16
428.28	201.29
428.46	182.56
428.65	287.89
428.84	248.10
429.03	257.46
429.22	180.22
429.40	224.69
429.59	220.01
429.78	285.55
429.97	273.84
430.16	205.97
430.34	212.99
430.53	205.97
430.72	187.24
430.91	208.31
431.10	163.84
431.28	276.18
431.47	231.71
431.66	325.33
431.85	203.63
432.03	166.18
432.22	290.23
432.41	224.69
432.60	299.59
432.79	259.80
432.97	255.12
433.16	210.65
433.35	140.43
433.54	278.52
433.72	283.20
433.91	220.01
434.10	222.35
434.28	311.29
434.47	318.31
434.66	283.20
434.85	250.44
435.03	327.68
435.22	741.95
435.41	1174.95
435.59	1207.72
435.78	1008.77
435.97	559.39
436.16	383.85
436.34	248.10
436.53	217.67
436.72	322.99
436.90	201.29
437.09	297.25
437.28	276.18
437.46	210.65
437.65	229.37
437.84	208.31
438.02	234.05
438.21	271.50
438.40	273.84
438.58	222.35
438.77	264.48
438.96	248.10
439.14	250.44
439.33	330.02
439.52	273.84
439.70	311.29
439.89	299.59
440.08	278.52
440.26	280.86
440.45	308.95
440.63	290.23
440.82	276.18
441.01	266.82
441.19	304.27
441.38	224.69
441.57	283.20
441.75	276.18
441.94	252.78
442.12	269.16
442.31	287.89
442.50	269.16
442.68	280.86
442.87	299.59
443.05	248.10
443.24	376.83
443.43	358.10
443.61	313.63
443.80	250.44
443.98	215.33
444.17	262.14
444.35	308.95
444.54	229.37
444.73	322.99
444.91	276.18
445.10	285.55
445.28	346.40
445.47	287.89
445.65	215.33
445.84	229.37
446.02	271.50
446.21	257.46
446.39	276.18
446.58	290.23
446.77	280.86
446.95	301.93
447.14	262.14
447.32	353.42
447.51	212.99
447.69	236.39
447.88	287.89
448.06	280.86
448.25	325.33
448.43	330.02
448.62	201.29
448.80	292.57
448.99	322.99
449.17	360.44
449.36	325.33
449.54	292.57
449.73	376.83
449.91	313.63
450.10	273.84
450.28	339.38
450.46	276.18
450.65	407.25
450.83	367.46
451.02	245.76
451.20	325.33
451.39	379.17
451.57	280.86
451.76	285.55
451.94	259.80
452.13	308.95
452.31	322.99
452.49	301.93
452.68	262.14
452.86	299.59
453.05	351.08
453.23	264.48
453.42	266.82
453.60	353.42
453.78	271.50
453.97	304.27
454.15	245.76
454.34	301.93
454.52	234.05
454.70	337.04
454.89	301.93
455.07	313.63
455.26	299.59
455.44	353.42
455.62	252.78
455.81	278.52
455.99	341.72
456.17	379.17
456.36	243.42
456.54	311.29
456.73	332.36
456.91	351.08
457.09	259.80
457.28	322.99
457.46	322.99
457.64	311.29
457.83	315.97
458.01	379.17
458.19	369.80
458.38	341.72
458.56	355.76
458.74	306.61
458.93	306.61
459.11	341.72
459.29	339.38
459.48	285.55
459.66	386.19
459.84	351.08
460.03	430.66
460.21	372.15
460.39	369.80
460.57	379.17
460.76	299.59
460.94	276.18
461.12	440.02
461.31	322.99
461.49	334.70
461.67	285.55
461.85	327.68
462.04	301.93
462.22	795.78
462.40	369.80
462.59	358.10
462.77	294.91
462.95	322.99
463.13	341.72
463.32	294.91
463.50	369.80
463.68	339.38
463.86	322.99
464.05	337.04
464.23	325.33
464.41	339.38
464.59	198.95
464.78	276.18
464.96	369.80
465.14	292.57
465.32	346.40
465.50	339.38
465.69	339.38
465.87	383.85
466.05	311.29
466.23	330.02
466.41	313.63
466.60	360.44
466.78	383.85
466.96	339.38
467.14	337.04
467.32	360.44
467.51	332.36
467.69	250.44
467.87	301.93
468.05	351.08
468.23	358.10
468.41	388.53
468.60	276.18
468.78	353.42
468.96	346.40
469.14	346.40
469.32	271.50
469.50	365.12
469.69	367.46
469.87	311.29
470.05	273.84
470.23	423.64
470.41	332.36
470.59	264.48
470.77	395.55
470.95	395.55
471.14	292.57
471.32	308.95
471.50	383.85
471.68	355.76
471.86	444.70
472.04	304.27
472.22	379.17
472.40	367.46
472.58	290.23
472.77	250.44
472.95	327.68
473.13	381.51
473.31	393.21
473.49	414.27
473.67	273.84
473.85	304.27
474.03	341.72
474.21	397.89
474.39	386.19
474.57	416.62
474.75	318.31
474.93	330.02
475.12	346.40
475.30	456.40
475.48	353.42
475.66	379.17
475.84	339.38
476.02	292.57
476.20	414.27
476.38	360.44
476.56	372.15
476.74	332.36
476.92	409.59
477.10	376.83
477.28	409.59
477.46	390.87
477.64	416.62
477.82	372.15
478.00	428.32
478.18	397.89
478.36	379.17
478.54	404.91
478.72	388.53
478.90	358.10
479.08	395.55
479.26	421.30
479.44	374.49
479.62	407.25
479.80	383.85
479.98	400.23
480.16	325.33
480.34	435.34
480.52	362.78
480.70	418.96
480.88	360.44
481.06	421.30
481.24	425.98
481.41	411.93
481.59	435.34
481.77	411.93
481.95	484.49
482.13	493.85
482.31	465.77
482.49	458.74
482.67	465.77
482.85	496.19
483.03	486.83
483.21	440.02
483.39	479.81
483.57	484.49
483.74	571.09
483.92	477.47
484.10	519.60
484.28	566.41
484.46	535.98
484.64	613.22
484.82	617.90
485.00	500.87
485.18	564.07
485.35	566.41
485.53	533.64
485.71	540.66
485.89	589.82
486.07	617.90
486.25	669.39
486.43	559.39
486.61	610.88
486.78	622.58
486.96	594.50
487.14	629.60
487.32	662.37
487.50	578.11
487.68	650.67
487.85	498.53
488.03	603.86
488.21	617.90
488.39	629.60
488.57	669.39
488.75	585.13
488.92	755.99
489.10	695.14
489.28	657.69
489.46	634.29
489.64	617.90
489.81	596.84
489.99	636.63
490.17	662.37
490.35	720.88
490.53	596.84
490.70	575.77
490.88	662.37
491.06	629.60
491.24	636.63
491.41	655.35
491.59	732.59
491.77	582.79
491.95	596.84
492.13	650.67
492.30	683.44
492.48	613.22
492.66	608.54
492.84	732.59
493.01	641.31
493.19	650.67
493.37	622.58
493.54	669.39
493.72	697.48
493.90	638.97
494.08	622.58
494.25	697.48
494.43	645.99
494.61	667.05
494.79	613.22
494.96	638.97
495.14	627.26
495.32	615.56
495.49	657.69
495.67	671.73
495.85	653.01
496.02	704.50
496.20	814.51
496.38	690.46
496.55	664.71
496.73	842.59
496.91	683.44
497.09	746.63
497.26	699.82
497.44	704.50
497.62	676.41
497.79	692.80
497.97	688.12
498.14	617.90
498.32	690.46
498.50	709.18
498.67	629.60
498.85	711.52
499.03	622.58
499.20	709.18
499.38	697.48
499.56	636.63
499.73	812.17
499.91	669.39
500.08	638.97
500.26	702.16
500.44	688.12
500.61	706.84
500.79	589.82
500.97	606.20
501.14	730.25
501.32	648.33
501.49	692.80
501.67	725.57
501.84	660.03
502.02	592.16
502.20	727.91
502.37	676.41
502.55	622.58
502.72	720.88
502.90	732.59
503.07	770.04
503.25	720.88
503.43	692.80
503.60	653.01
503.78	723.23
503.95	671.73
504.13	638.97
504.30	650.67
504.48	763.01
504.65	802.80
504.83	739.61
505.01	676.41
505.18	709.18
505.36	685.78
505.53	725.57
505.71	770.04
505.88	887.06
506.06	760.67
506.23	737.27
506.41	746.63
506.58	692.80
506.76	739.61
506.93	645.99
507.11	674.07
507.28	732.59
507.46	741.95
507.63	760.67
507.81	739.61
507.98	770.04
508.16	777.06
508.33	702.16
508.50	800.46
508.68	683.44
508.85	758.33
509.03	758.33
509.20	725.57
509.38	744.29
509.55	777.06
509.73	802.80
509.90	755.99
510.08	739.61
510.25	774.72
510.42	788.76
510.60	784.08
510.77	819.19
510.95	765.36
511.12	791.10
511.30	819.19
511.47	739.61
511.64	798.12
511.82	770.04
511.99	718.54
512.17	676.41
512.34	702.16
512.51	774.72
512.69	814.51
512.86	763.01
513.04	828.55
513.21	713.86
513.38	844.93
513.56	882.38
513.73	800.46
513.90	774.72
514.08	765.36
514.25	847.27
514.43	791.10
514.60	793.44
514.77	704.50
514.95	798.12
515.12	767.70
515.29	788.76
515.47	908.13
515.64	828.55
515.81	786.42
515.99	800.46
516.16	737.27
516.33	807.48
516.51	842.59
516.68	732.59
516.85	791.10
517.03	758.33
517.20	828.55
517.37	821.53
517.54	807.48
517.72	800.46
517.89	770.04
518.06	842.59
518.24	884.72
518.41	816.85
518.58	854.30
518.75	828.55
518.93	868.34
519.10	842.59
519.27	763.01
519.45	875.36
519.62	791.10
519.79	861.32
519.96	812.17
520.14	844.93
520.31	917.49
520.48	842.59
520.65	770.04
520.83	858.98
521.00	828.55
521.17	837.91
521.34	753.65
521.52	800.46
521.69	866.00
521.86	826.21
522.03	875.36
522.20	870.68
522.38	842.59
522.55	849.61
522.72	821.53
522.89	802.80
523.07	875.36
523.24	847.27
523.41	819.19
523.58	798.12
523.75	795.78
523.92	868.34
524.10	924.51
524.27	912.81
524.44	849.61
524.61	947.92
524.78	840.25
524.96	861.32
525.13	877.70
525.30	929.19
525.47	912.81
525.64	842.59
525.81	940.90
525.98	866.00
526.16	791.10
526.33	823.87
526.50	877.70
526.67	847.27
526.84	828.55
527.01	929.19
527.18	807.48
527.36	870.68
527.53	917.49
527.70	908.13
527.87	950.26
528.04	954.94
528.21	903.45
528.38	922.17
528.55	851.96
528.72	933.87
528.89	936.21
529.07	908.13
529.24	844.93
529.41	873.02
529.58	863.66
529.75	875.36
529.92	830.89
530.09	922.17
530.26	924.51
530.43	919.83
530.60	868.34
530.77	1006.43
530.94	901.11
531.11	891.74
531.28	898.77
531.46	947.92
531.63	985.37
531.80	905.79
531.97	861.32
532.14	931.53
532.31	875.36
532.48	950.26
532.65	915.15
532.82	926.85
532.99	896.43
533.16	931.53
533.33	908.13
533.50	891.74
533.67	971.32
533.84	966.64
534.01	978.34
534.18	875.36
534.35	929.19
534.52	945.58
534.69	1001.75
534.86	990.05
535.03	961.96
535.20	971.32
535.37	973.66
535.54	1001.75
535.71	884.72
535.88	1095.37
536.05	912.81
536.22	1015.79
536.38	992.39
536.55	1043.88
536.72	1076.65
536.89	926.85
537.06	945.58
537.23	1100.05
537.40	971.32
537.57	1095.37
537.74	1090.69
537.91	1100.05
538.08	1100.05
538.25	1064.94
538.42	1139.84
538.59	1053.24
538.75	1057.92
538.92	1107.07
539.09	1167.93
539.26	1097.71
539.43	1198.35
539.60	1153.88
539.77	1186.65
539.94	1268.57
540.11	1338.79
540.28	1364.53
540.44	1535.39
540.61	1462.83
540.78	1577.52
540.95	1579.86
541.12	1827.96
541.29	1806.89
541.46	1996.48
541.62	1954.35
541.79	1949.67
541.96	1818.60
542.13	1933.28
542.30	1926.26
542.47	1818.60
542.63	1776.47
542.80	1856.04
542.97	1846.68
543.14	1820.94
543.31	1844.34
543.48	1804.55
543.64	1921.58
543.81	1914.56
543.98	1727.32
544.15	1788.17
544.32	1748.38
544.48	1853.70
544.65	1732.00
544.82	1769.44
544.99	1764.76
545.16	1753.06
545.32	1760.08
545.49	2300.75
545.66	3213.56
545.83	3733.15
546.00	3557.61
546.16	2558.21
546.33	2099.46
546.50	1823.28
546.67	1640.72
546.83	1629.01
547.00	1533.05
547.17	1570.50
547.34	1380.92
547.50	1453.47
547.67	1385.60
547.84	1416.02
548.00	1416.02
548.17	1432.41
548.34	1390.28
548.51	1455.81
548.67	1331.76
548.84	1231.12
549.01	1369.21
549.18	1287.29
549.34	1334.11
549.51	1294.32
549.68	1238.14
549.84	1231.12
550.01	1294.32
550.18	1273.25
550.34	1231.12
550.51	1385.60
550.68	1228.78
550.84	1160.91
551.01	1160.91
551.18	1207.72
551.34	1158.57
551.51	1093.03
551.68	1217.08
551.84	1228.78
552.01	1123.46
552.18	1177.29
552.34	1172.61
552.51	1125.80
552.68	1121.12
552.84	1088.35
553.01	1153.88
553.18	1142.18
553.34	1186.65
553.51	1048.56
553.67	1062.60
553.84	1076.65
554.01	1088.35
554.17	1027.50
554.34	1060.26
554.51	1123.46
554.67	1060.26
554.84	1149.20
555.00	1104.73
555.17	1034.52
555.33	1050.90
555.50	1039.20
555.67	1069.62
555.83	950.26
556.00	1004.09
556.16	1111.75
556.33	994.73
556.50	1060.26
556.66	1048.56
556.83	987.71
556.99	985.37
557.16	999.41
557.32	959.62
557.49	1083.67
557.65	968.98
557.82	1006.43
557.98	1043.88
558.15	1015.79
558.32	903.45
558.48	931.53
558.65	1020.47
558.81	1013.45
558.98	1027.50
559.14	987.71
559.31	971.32
559.47	1029.84
559.64	1041.54
559.80	976.00
559.97	999.41
560.13	947.92
560.30	964.30
560.46	992.39
560.63	1022.81
560.79	1018.13
560.96	950.26
561.12	985.37
561.29	1015.79
561.45	1060.26
561.61	966.64
561.78	1097.71
561.94	971.32
562.11	1001.75
562.27	938.55
562.44	901.11
562.60	1029.84
562.77	1067.28
562.93	1071.97
563.10	1029.84
563.26	1004.09
563.42	938.55
563.59	992.39
563.75	926.85
563.92	1018.13
564.08	1041.54
564.24	1043.88
564.41	987.71
564.57	980.68
564.74	1001.75
564.90	1022.81
565.07	987.71
565.23	959.62
565.39	915.15
565.56	983.02
565.72	957.28
565.88	910.47
566.05	985.37
566.21	828.55
566.38	957.28
566.54	952.60
566.70	994.73
566.87	1015.79
567.03	896.43
567.19	1039.20
567.36	994.73
567.52	922.17
567.68	1034.52
567.85	933.87
568.01	1013.45
568.17	961.96
568.34	952.60
568.50	983.02
568.66	1015.79
568.83	1064.94
568.99	940.90
569.15	954.94
569.32	912.81
569.48	917.49
569.64	954.94
569.81	994.73
569.97	1032.18
570.13	978.34
570.30	950.26
570.46	976.00
570.62	999.41
570.78	922.17
570.95	961.96
571.11	1083.67
571.27	1029.84
571.43	903.45
571.60	1034.52
571.76	954.94
571.92	992.39
572.09	983.02
572.25	954.94
572.41	1022.81
572.57	903.45
572.74	964.30
572.90	987.71
573.06	1046.22
573.22	1008.77
573.38	1004.09
573.55	997.07
573.71	1071.97
573.87	1020.47
574.03	1032.18
574.20	943.24
574.36	999.41
574.52	947.92
574.68	1032.18
574.84	1004.09
575.01	966.64
575.17	1029.84
575.33	1015.79
575.49	1039.20
575.65	976.00
575.82	1015.79
575.98	1048.56
576.14	1050.90
576.30	1050.90
576.46	1247.51
576.62	1509.65
576.79	1420.71
576.95	1287.29
577.11	1240.48
577.27	1160.91
577.43	1121.12
577.59	1076.65
577.75	1004.09
577.92	997.07
578.08	912.81
578.24	957.28
578.40	1137.50
578.56	1303.68
578.72	1343.47
578.88	1490.92
579.04	1315.38
579.21	1231.12
579.37	1076.65
579.53	1219.42
579.69	1172.61
579.85	1090.69
580.01	1156.22
580.17	1083.67
580.33	1043.88
580.49	1074.31
580.65	1107.07
580.82	990.05
580.98	978.34
581.14	1125.80
581.30	1132.82
581.46	1020.47
581.62	1158.57
581.78	1163.25
581.94	1097.71
582.10	1107.07
582.26	1057.92
582.42	1137.50
582.58	1067.28
582.74	1179.63
582.90	1153.88
583.06	1167.93
583.22	1074.31
583.38	1207.72
583.54	1219.42
583.70	1263.89
583.86	1247.51
584.02	1064.94
584.18	1200.69
584.34	1207.72
584.50	1221.76
584.66	1196.01
584.82	1226.44
584.98	1144.52
585.14	1139.84
585.30	1224.10
585.46	1088.35
585.62	1034.52
585.78	1081.33
585.94	1118.78
586.10	1128.14
586.26	1160.91
586.42	1200.69
586.58	1242.82
586.74	1214.74
586.90	1334.11
587.06	1331.76
587.22	1397.30
587.38	1320.06
587.54	1266.23
587.70	1287.29
587.86	1193.67
588.02	1167.93
588.18	1221.76
588.34	1111.75
588.49	1100.05
588.65	1088.35
588.81	1004.09
588.97	1081.33
589.13	985.37
589.29	1095.37
589.45	983.02
589.61	1055.58
589.77	1104.73
589.93	1116.44
590.08	1041.54
590.24	1069.62
590.40	1102.39
590.56	1107.07
590.72	1109.41
590.88	1004.09
591.04	978.34
591.20	1144.52
591.35	1135.16
591.51	1088.35
591.67	1114.10
591.83	1013.45
591.99	1137.50
592.15	1111.75
592.31	1193.67
592.46	1177.29
592.62	1259.21
592.78	1198.35
592.94	1233.46
593.10	1238.14
593.26	1226.44
593.41	1188.99
593.57	1174.95
593.73	1177.29
593.89	1090.69
594.05	1071.97
594.20	1100.05
594.36	1107.07
594.52	1057.92
594.68	973.66
594.84	1057.92
594.99	1074.31
595.15	1034.52
595.31	1081.33
595.47	1046.22
595.62	1097.71
595.78	1013.45
595.94	983.02
596.10	1004.09
596.25	1036.86
596.41	1050.90
596.57	950.26
596.73	961.96
596.88	1025.15
597.04	1015.79
597.20	1069.62
597.36	1057.92
597.51	1034.52
597.67	976.00
597.83	1034.52
597.99	987.71
598.14	1128.14
598.30	1097.71
598.46	1048.56
598.61	1116.44
598.77	1100.05
598.93	1029.84
599.09	1149.20
599.24	1128.14
599.40	1184.31
599.56	1078.99
599.71	1132.82
599.87	1137.50
600.03	1043.88
600.18	1008.77
600.34	1064.94
600.50	985.37
600.65	950.26
600.81	1158.57
600.97	1006.43
601.12	1029.84
601.28	1046.22
601.44	992.39
601.59	1025.15
601.75	1006.43
601.91	938.55
602.06	983.02
602.22	1146.86
602.37	1011.11
602.53	896.43
602.69	1011.11
602.84	957.28
603.00	1083.67
603.16	1057.92
603.31	1011.11
603.47	1036.86
603.62	987.71
603.78	1004.09
603.94	952.60
604.09	1050.90
604.25	1039.20
604.40	1043.88
604.56	1025.15
604.71	968.98
604.87	968.98
605.03	997.07
605.18	978.34
605.34	1032.18
605.49	1011.11
605.65	1015.79
605.80	891.74
605.96	968.98
606.12	1015.79
606.27	1074.31
606.43	1071.97
606.58	1043.88
606.74	1025.15
606.89	1018.13
607.05	1071.97
607.20	1057.92
607.36	1130.48
607.51	1095.37
607.67	1130.48
607.82	1069.62
607.98	1083.67
608.13	1123.46
608.29	1151.54
608.44	1146.86
608.60	1153.88
608.75	1158.57
608.91	1160.91
609.06	1252.19
609.22	1320.06
609.37	1245.16
609.53	1420.71
609.68	1504.96
609.84	1451.13
609.99	1413.68
610.15	1621.99
610.30	1811.57
610.46	2181.38
610.61	2452.88
610.76	2787.58
610.92	3229.94
611.07	3426.54
611.23	3576.34
611.38	3396.12
611.54	2958.44
611.69	2768.85
611.84	2406.07
612.00	2244.57
612.15	1977.75
612.31	1788.17
612.46	1739.02
612.62	1612.63
612.77	1631.35
612.92	1612.63
613.08	1640.72
613.23	1544.75
613.39	1474.54
613.54	1465.18
613.69	1392.62
613.85	1582.20
614.00	1441.77
614.15	1547.09
614.31	1423.05
614.46	1526.03
614.62	1338.79
614.77	1441.77
614.92	1343.47
615.08	1336.45
615.23	1289.64
615.38	1320.06
615.54	1280.27
615.69	1259.21
615.84	1093.03
616.00	1097.71
616.15	1181.97
616.30	1109.41
616.46	1188.99
616.61	1050.90
616.76	1074.31
616.92	1111.75
617.07	1057.92
617.22	1050.90
617.37	1067.28
617.53	1144.52
617.68	1100.05
617.83	1055.58
617.99	1029.84
618.14	1097.71
618.29	1041.54
618.45	971.32
618.60	1011.11
618.75	1062.60
618.90	1015.79
619.06	1004.09
619.21	1025.15
619.36	1114.10
619.51	973.66
619.67	999.41
619.82	1081.33
619.97	1071.97
620.12	957.28
620.28	1050.90
620.43	1013.45
620.58	999.41
620.73	1153.88
620.89	997.07
621.04	1039.20
621.19	1107.07
621.34	1013.45
621.49	964.30
621.65	1048.56
621.80	1036.86
621.95	1041.54
622.10	1043.88
622.25	1036.86
622.41	1111.75
622.56	1032.18
622.71	929.19
622.86	1053.24
623.01	945.58
623.16	950.26
623.32	959.62
623.47	999.41
623.62	978.34
623.77	1076.65
623.92	929.19
624.07	922.17
624.23	1032.18
624.38	992.39
624.53	959.62
624.68	992.39
624.83	973.66
624.98	1071.97
625.13	987.71
625.29	987.71
625.44	1001.75
625.59	1071.97
625.74	1039.20
625.89	1097.71
626.04	968.98
626.19	961.96
626.34	1032.18
626.49	976.00
626.65	917.49
626.80	954.94
626.95	1025.15
627.10	987.71
627.25	1008.77
627.40	1050.90
627.55	1006.43
627.70	968.98
627.85	936.21
628.00	1001.75
628.15	926.85
628.30	1008.77
628.45	952.60
628.60	922.17
628.76	1034.52
628.91	959.62
629.06	919.83
629.21	959.62
629.36	945.58
629.51	875.36
629.66	936.21
629.81	877.70
629.96	945.58
630.11	1062.60
630.26	1076.65
630.41	1057.92
630.56	1015.79
630.71	1107.07
630.86	1172.61
631.01	1018.13
631.16	1132.82
631.31	1055.58
631.46	1036.86
631.61	959.62
631.76	952.60
631.91	912.81
632.06	999.41
632.21	957.28
632.36	931.53
632.51	814.51
632.66	807.48
632.81	844.93
632.96	936.21
633.10	903.45
633.25	884.72
633.40	884.72
633.55	891.74
633.70	891.74
633.85	842.59
634.00	903.45
634.15	858.98
634.30	870.68
634.45	851.96
634.60	781.74
634.75	844.93
634.90	809.83
635.05	912.81
635.19	772.38
635.34	814.51
635.49	898.77
635.64	748.97
635.79	821.53
635.94	821.53
636.09	868.34
636.24	903.45
636.39	791.10
636.53	873.02
636.68	723.23
636.83	826.21
636.98	898.77
637.13	901.11
637.28	781.74
637.43	896.43
637.57	861.32
637.72	788.76
637.87	821.53
638.02	847.27
638.17	741.95
638.32	805.14
638.46	847.27
638.61	847.27
638.76	842.59
638.91	748.97
639.06	786.42
639.20	833.23
639.35	807.48
639.50	830.89
639.65	835.57
639.80	884.72
639.94	816.85
640.09	905.79
640.24	873.02
640.39	840.25
640.54	849.61
640.68	786.42
640.83	814.51
640.98	837.91
641.13	821.53
641.27	910.47
641.42	784.08
641.57	866.00
641.72	784.08
641.86	800.46
642.01	791.10
642.16	826.21
642.31	805.14
642.45	786.42
642.60	830.89
642.75	809.83
642.90	812.17
643.04	798.12
643.19	882.38
643.34	720.88
643.48	873.02
643.63	856.64
643.78	826.21
643.93	847.27
644.07	730.25
644.22	751.31
644.37	833.23
644.51	816.85
644.66	894.08
644.81	816.85
644.95	880.04
645.10	770.04
645.25	741.95
645.39	835.57
645.54	709.18
645.69	791.10
645.83	781.74
645.98	901.11
646.13	774.72
646.27	725.57
646.42	770.04
646.57	667.05
646.71	760.67
646.86	737.27
647.00	748.97
647.15	767.70
647.30	711.52
647.44	730.25
647.59	760.67
647.74	798.12
647.88	774.72
648.03	746.63
648.17	877.70
648.32	748.97
648.47	819.19
648.61	861.32
648.76	788.76
648.90	793.44
649.05	800.46
649.20	737.27
649.34	800.46
649.49	725.57
649.63	814.51
649.78	791.10
649.92	798.12
650.07	919.83
650.21	828.55
650.36	770.04
650.51	880.04
650.65	837.91
650.80	744.29
650.94	791.10
651.09	777.06
651.23	777.06
651.38	875.36
651.52	819.19
651.67	788.76
651.81	767.70
651.96	814.51
652.10	854.30
652.25	784.08
652.39	814.51
652.54	814.51
652.68	816.85
652.83	777.06
652.97	833.23
653.12	690.46
653.26	777.06
653.41	856.64
653.55	812.17
653.70	751.31
653.84	760.67
653.99	786.42
654.13	711.52
654.27	767.70
654.42	791.10
654.56	833.23
654.71	819.19
654.85	751.31
655.00	751.31
655.14	791.10
655.29	732.59
655.43	744.29
655.57	763.01
655.72	800.46
655.86	779.40
656.01	711.52
656.15	716.20
656.30	720.88
656.44	704.50
656.58	753.65
656.73	718.54
656.87	760.67
657.01	678.76
657.16	777.06
657.30	711.52
657.45	760.67
657.59	718.54
657.73	727.91
657.88	763.01
658.02	793.44
658.16	753.65
658.31	798.12
658.45	748.97
658.60	676.41
658.74	702.16
658.88	767.70
659.03	624.92
659.17	702.16
659.31	706.84
659.46	758.33
659.60	800.46
659.74	746.63
659.89	667.05
660.03	737.27
660.17	753.65
660.32	704.50
660.46	699.82
660.60	770.04
660.74	788.76
660.89	772.38
661.03	685.78
661.17	730.25
661.32	741.95
661.46	730.25
661.60	725.57
661.74	727.91
661.89	737.27
662.03	826.21
662.17	779.40
662.31	746.63
662.46	856.64
662.60	697.48
662.74	730.25
662.88	786.42
663.03	734.93
663.17	744.29
663.31	720.88
663.45	760.67
663.60	660.03
663.74	716.20
663.88	690.46
664.02	730.25
664.17	798.12
664.31	755.99
664.45	702.16
664.59	713.86
664.73	816.85
664.88	723.23
665.02	777.06
665.16	723.23
665.30	718.54
665.44	662.37
665.59	772.38
665.73	723.23
665.87	713.86
666.01	748.97
666.15	699.82
666.29	676.41
666.44	751.31
666.58	765.36
666.72	711.52
666.86	751.31
667.00	676.41
667.14	662.37
667.28	744.29
667.43	615.56
667.57	667.05
667.71	671.73
667.85	601.52
667.99	685.78
668.13	643.65
668.27	723.23
668.41	690.46
668.56	706.84
668.70	657.69
668.84	706.84
668.98	638.97
669.12	676.41
669.26	741.95
669.40	767.70
669.54	662.37
669.68	753.65
669.82	671.73
669.96	629.60
670.10	695.14
670.25	674.07
670.39	716.20
670.53	650.67
670.67	636.63
670.81	638.97
670.95	643.65
671.09	664.71
671.23	671.73
671.37	683.44
671.51	648.33
671.65	739.61
671.79	660.03
671.93	645.99
672.07	683.44
672.21	669.39
672.35	650.67
672.49	638.97
672.63	648.33
672.77	622.58
672.91	671.73
673.05	674.07
673.19	615.56
673.33	617.90
673.47	692.80
673.61	629.60
673.75	660.03
673.89	592.16
674.03	641.31
674.17	566.41
674.31	617.90
674.45	655.35
674.59	648.33
674.73	692.80
674.87	636.63
675.01	664.71
675.15	580.45
675.29	617.90
675.43	620.24
675.56	641.31
675.70	695.14
675.84	667.05
675.98	653.01
676.12	578.11
676.26	601.52
676.40	603.86
676.54	613.22
676.68	535.98
676.82	620.24
676.96	552.37
677.10	599.18
677.23	538.32
677.37	566.41
677.51	631.94
677.65	748.97
677.79	685.78
677.93	559.39
678.07	552.37
678.21	559.39
678.34	568.75
678.48	500.87
678.62	678.76
678.76	557.05
678.90	571.09
679.04	641.31
679.18	594.50
679.31	507.90
679.45	566.41
679.59	582.79
679.73	660.03
679.87	622.58
680.00	634.29
680.14	620.24
680.28	695.14
680.42	662.37
680.56	606.20
680.70	608.54
680.83	636.63
680.97	641.31
681.11	606.20
681.25	592.16
681.39	528.96
681.52	615.56
681.66	582.79
681.80	517.26
681.94	505.56
682.07	587.47
682.21	580.45
682.35	493.85
682.49	510.24
682.62	543.00
682.76	456.40
682.90	486.83
683.04	559.39
683.17	543.00
683.31	557.05
683.45	599.18
683.59	517.26
683.72	538.32
683.86	596.84
684.00	510.24
684.13	601.52
684.27	449.38
684.41	524.28
684.55	521.94
684.68	594.50
684.82	526.62
684.96	547.69
685.09	505.56
685.23	533.64
685.37	512.58
685.50	568.75
685.64	575.77
685.78	528.96
685.91	535.98
686.05	561.73
686.19	524.28
686.32	550.03
686.46	456.40
686.60	444.70
686.73	402.57
686.87	407.25
687.01	461.09
687.14	500.87
687.28	547.69
687.42	500.87
687.55	447.04
687.69	507.90
687.82	540.66
687.96	496.19
688.10	596.84
688.23	505.56
688.37	564.07
688.50	554.71
688.64	519.60
688.78	454.06
688.91	397.89
689.05	526.62
689.18	512.58
689.32	428.32
689.46	421.30
689.59	418.96
689.73	421.30
689.86	433.00
690.00	454.06
690.13	491.51
690.27	428.32
690.41	416.62
690.54	465.77
690.68	500.87
690.81	440.02
690.95	496.19
691.08	430.66
691.22	442.36
691.35	463.43
691.49	435.34
691.62	418.96
691.76	510.24
691.89	491.51
692.03	421.30
692.16	447.04
692.30	428.32
692.43	330.02
692.57	442.36
692.70	484.49
692.84	367.46
692.97	395.55
693.11	428.32
693.24	421.30
693.38	505.56
693.51	491.51
693.65	550.03
693.78	409.59
693.92	470.45
694.05	470.45
694.19	407.25
694.32	374.49
694.45	407.25
694.59	409.59
694.72	414.27
694.86	430.66
694.99	418.96
695.13	372.15
695.26	393.21
695.39	414.27
695.53	475.13
695.66	425.98
695.80	379.17
695.93	369.80
696.07	421.30
696.20	383.85
696.33	407.25
696.47	425.98
696.60	402.57
696.73	421.30
696.87	397.89
697.00	407.25
697.14	397.89
697.27	374.49
697.40	444.70
697.54	379.17
697.67	428.32
697.80	409.59
697.94	430.66
698.07	458.74
698.21	379.17
698.34	372.15
698.47	369.80
698.61	433.00
698.74	423.64
698.87	458.74
699.01	416.62
699.14	325.33
699.27	381.51
699.40	514.92
699.54	348.74
699.67	411.93
699.80	388.53
699.94	402.57
700.07	397.89
700.20	372.15
700.34	348.74
700.47	390.87
700.60	379.17
700.73	273.84
700.87	463.43
701.00	369.80
701.13	386.19
701.26	341.72
701.40	430.66
701.53	334.70
701.66	404.91
701.79	407.25
701.93	327.68
702.06	463.43
702.19	376.83
702.32	411.93
702.46	376.83
702.59	311.29
702.72	341.72
702.85	313.63
702.99	285.55
703.12	283.20
703.25	390.87
703.38	337.04
703.51	376.83
703.65	339.38
703.78	344.06
703.91	257.46
704.04	348.74
704.17	301.93
704.31	306.61
704.44	393.21
704.57	355.76
704.70	365.12
704.83	390.87
704.96	374.49
705.10	299.59
705.23	344.06
>>>>>End Processed Spectral Data<<<<<
