SpectraSuite Data File
++++++++++++++++++++++++++++++++++++
Date: Fri Oct 04 11:39:42 GMT-05:00 2013
User: price-jones
Dark Spectrum Present: No
Reference Spectrum Present: No
Number of Sampled Component Spectra: 1
Spectrometers: USB2+H05261
Integration Time (usec): 100000 (USB2+H05261)
Spectra Averaged: 1 (USB2+H05261)
Boxcar Smoothing: 0 (USB2+H05261)
Correct for Electrical Dark: No (USB2+H05261)
Strobe/Lamp Enabled: No (USB2+H05261)
Correct for Detector Non-linearity: No (USB2+H05261)
Correct for Stray Light: No (USB2+H05261)
Number of Pixels in Processed Spectrum: 2048
>>>>>Begin Processed Spectral Data<<<<<
365.73	46.81
365.92	46.81
366.12	46.81
366.32	23.41
366.52	39.79
366.72	0.00
366.91	0.00
367.11	42.13
367.31	14.04
367.51	0.00
367.70	0.00
367.90	0.00
368.10	0.00
368.30	0.00
368.49	0.00
368.69	0.00
368.89	0.00
369.09	0.00
369.28	0.00
369.48	0.00
369.68	4.68
369.87	0.00
370.07	30.43
370.27	53.83
370.47	0.00
370.66	93.62
370.86	168.52
371.06	152.13
371.25	241.08
371.45	231.71
371.65	273.84
371.84	243.42
372.04	273.84
372.24	191.92
372.44	189.58
372.63	280.86
372.83	266.82
373.03	327.68
373.22	264.48
373.42	222.35
373.62	271.50
373.81	360.44
374.01	301.93
374.21	318.31
374.40	262.14
374.60	250.44
374.79	255.12
374.99	294.91
375.19	308.95
375.38	287.89
375.58	313.63
375.78	297.25
375.97	430.66
376.17	383.85
376.37	337.04
376.56	208.31
376.76	252.78
376.95	322.99
377.15	341.72
377.35	283.20
377.54	407.25
377.74	308.95
377.93	266.82
378.13	367.46
378.33	306.61
378.52	355.76
378.72	355.76
378.91	306.61
379.11	322.99
379.31	315.97
379.50	365.12
379.70	393.21
379.89	334.70
380.09	397.89
380.28	334.70
380.48	330.02
380.68	294.91
380.87	290.23
381.07	301.93
381.26	283.20
381.46	332.36
381.65	381.51
381.85	367.46
382.04	390.87
382.24	376.83
382.43	332.36
382.63	332.36
382.83	358.10
383.02	372.15
383.22	369.80
383.41	346.40
383.61	425.98
383.80	379.17
384.00	369.80
384.19	334.70
384.39	442.36
384.58	376.83
384.78	468.11
384.97	402.57
385.17	344.06
385.36	503.22
385.56	395.55
385.75	337.04
385.95	381.51
386.14	433.00
386.34	442.36
386.53	353.42
386.72	353.42
386.92	397.89
387.11	393.21
387.31	395.55
387.50	341.72
387.70	287.89
387.89	404.91
388.09	465.77
388.28	348.74
388.48	456.40
388.67	535.98
388.86	472.79
389.06	461.09
389.25	482.15
389.45	472.79
389.64	437.68
389.84	528.96
390.03	470.45
390.22	428.32
390.42	433.00
390.61	496.19
390.81	484.49
391.00	433.00
391.19	491.51
391.39	535.98
391.58	482.15
391.78	479.81
391.97	461.09
392.16	482.15
392.36	545.34
392.55	524.28
392.75	524.28
392.94	514.92
393.13	552.37
393.33	566.41
393.52	535.98
393.71	545.34
393.91	594.50
394.10	543.00
394.29	535.98
394.49	629.60
394.68	608.54
394.88	550.03
395.07	620.24
395.26	653.01
395.46	599.18
395.65	610.88
395.84	713.86
396.04	669.39
396.23	669.39
396.42	608.54
396.62	599.18
396.81	667.05
397.00	545.34
397.19	662.37
397.39	573.43
397.58	662.37
397.77	657.69
397.97	805.14
398.16	671.73
398.35	692.80
398.55	601.52
398.74	667.05
398.93	688.12
399.12	777.06
399.32	725.57
399.51	809.83
399.70	784.08
399.90	816.85
400.09	866.00
400.28	826.21
400.47	842.59
400.67	891.74
400.86	830.89
401.05	816.85
401.24	842.59
401.44	870.68
401.63	868.34
401.82	891.74
402.01	844.93
402.21	915.15
402.40	924.51
402.59	891.74
402.78	901.11
402.97	950.26
403.17	954.94
403.36	1039.20
403.55	954.94
403.74	1078.99
403.93	1039.20
404.13	1067.28
404.32	1039.20
404.51	1081.33
404.70	1069.62
404.89	968.98
405.09	1095.37
405.28	1029.84
405.47	1111.75
405.66	1064.94
405.85	1125.80
406.05	1181.97
406.24	1160.91
406.43	1196.01
406.62	1048.56
406.81	1200.69
407.00	1214.74
407.20	1263.89
407.39	1224.10
407.58	1275.59
407.77	1268.57
407.96	1308.36
408.15	1270.91
408.34	1406.66
408.54	1334.11
408.73	1331.76
408.92	1341.13
409.11	1387.94
409.30	1376.24
409.49	1409.00
409.68	1437.09
409.87	1387.94
410.07	1411.34
410.26	1348.15
410.45	1488.58
410.64	1476.88
410.83	1526.03
411.02	1600.93
411.21	1500.28
411.40	1537.73
411.59	1547.09
411.78	1603.27
411.98	1598.59
412.17	1610.29
412.36	1692.21
412.55	1732.00
412.74	1762.42
412.93	1736.68
413.12	1753.06
413.31	1771.79
413.50	1827.96
413.69	1851.36
413.88	1919.24
414.07	1860.73
414.26	1867.75
414.45	1930.94
414.64	1834.98
414.83	1980.09
415.02	1895.83
415.22	2076.06
415.41	2033.93
415.60	2040.95
415.79	2132.23
415.98	2195.42
416.17	2179.04
416.36	2097.12
416.55	2150.95
416.74	2232.87
416.93	2183.72
417.12	2270.32
417.31	2207.13
417.50	2303.09
417.69	2370.96
417.88	2373.30
418.07	2361.60
418.26	2375.64
418.45	2342.88
418.64	2495.01
418.83	2408.41
419.02	2473.95
419.21	2504.37
419.39	2567.57
419.58	2436.50
419.77	2567.57
419.96	2644.81
420.15	2628.42
420.34	2644.81
420.53	2637.78
420.72	2719.70
420.91	2689.28
421.10	2619.06
421.29	2874.18
421.48	2724.38
421.67	2775.88
421.86	2780.56
422.05	2771.19
422.24	2764.17
422.43	2759.49
422.61	2759.49
422.80	2836.73
422.99	2808.64
423.18	2888.22
423.37	2972.48
423.56	2752.47
423.75	2630.76
423.94	2855.45
424.13	2771.19
424.32	2684.59
424.50	2902.26
424.69	2944.39
424.88	2981.84
425.07	2794.60
425.26	2745.45
425.45	3000.57
425.64	2771.19
425.83	2848.43
426.01	2935.03
426.20	2883.54
426.39	2904.60
426.58	2925.67
426.77	2930.35
426.96	2939.71
427.15	2906.95
427.33	2935.03
427.52	3023.97
427.71	3042.70
427.90	2967.80
428.09	3038.02
428.28	3157.38
428.46	3159.72
428.65	3178.45
428.84	3047.38
429.03	3138.66
429.22	3119.93
429.40	3208.87
429.59	3307.18
429.78	3052.06
429.97	3126.96
430.16	3173.77
430.34	3075.46
430.53	3353.99
430.72	3400.80
430.91	3393.78
431.10	3169.09
431.28	3337.60
431.47	3513.14
431.66	3412.50
431.85	3346.97
432.03	3489.74
432.22	3583.36
432.41	3405.48
432.60	3375.05
432.79	3370.37
432.97	3552.93
433.16	3513.14
433.35	3410.16
433.54	3555.27
433.72	3559.95
433.91	3543.57
434.10	3679.32
434.28	3588.04
434.47	3538.89
434.66	3714.43
434.85	3686.34
435.03	3648.90
435.22	3967.21
435.41	4149.77
435.59	4079.55
435.78	3875.93
435.97	3955.51
436.16	3833.80
436.34	3744.86
436.53	3791.67
436.72	3702.73
436.90	3712.09
437.09	4023.38
437.28	3833.80
437.46	3815.07
437.65	4049.13
437.84	3908.69
438.02	3913.38
438.21	4011.68
438.40	3857.20
438.58	3997.64
438.77	4145.09
438.96	4102.96
439.14	4124.02
439.33	4135.73
439.52	4224.67
439.70	4187.22
439.89	4208.28
440.08	4365.10
440.26	4325.31
440.45	4325.31
440.63	4348.72
440.82	4414.25
441.01	4449.36
441.19	4421.27
441.38	4517.23
441.57	4599.15
441.75	4447.02
441.94	4662.35
442.12	4690.43
442.31	4697.46
442.50	4695.11
442.68	4791.08
442.87	4685.75
443.05	4692.77
443.24	4777.03
443.43	4730.22
443.61	4880.02
443.80	4896.40
443.98	4854.27
444.17	4578.09
444.35	4905.76
444.54	4840.23
444.73	4795.76
444.91	4896.40
445.10	4774.69
445.28	4877.68
445.47	4828.53
445.65	4889.38
445.84	4802.78
446.02	5034.49
446.21	4997.04
446.39	4880.02
446.58	4945.55
446.77	4959.60
446.95	4861.29
447.14	4863.63
447.32	5034.49
447.51	4924.49
447.69	5050.88
447.88	5006.41
448.06	5093.01
448.25	5006.41
448.43	4985.34
448.62	4692.77
448.80	4940.87
448.99	4947.89
449.17	5081.30
449.36	5116.41
449.54	5195.99
449.73	5116.41
449.91	5039.17
450.10	5256.84
450.28	5423.02
450.46	5221.74
450.65	5261.52
450.83	5308.34
451.02	5310.68
451.20	5387.91
451.39	5296.63
451.57	5296.63
451.76	5406.64
451.94	5317.70
452.13	5472.17
452.31	5364.51
452.49	5345.78
452.68	5458.13
452.86	5547.07
453.05	5425.36
453.23	5558.77
453.42	5551.75
453.60	5523.66
453.78	5638.35
453.97	5511.96
454.15	5579.84
454.34	5411.32
454.52	5673.46
454.70	5617.29
454.89	5628.99
455.07	5724.95
455.26	5720.27
455.44	5680.48
455.62	5591.54
455.81	5919.21
455.99	5738.99
456.17	5959.00
456.36	5984.75
456.54	5874.74
456.73	5907.51
456.91	6052.63
457.09	6017.52
457.28	6085.39
457.46	6045.60
457.64	6155.61
457.83	5884.11
458.01	6113.48
458.19	6333.49
458.38	6171.99
458.56	6188.38
458.74	6186.04
458.93	6282.00
459.11	6171.99
459.29	6417.75
459.48	6150.93
459.66	6485.62
459.84	6373.28
460.03	6389.66
460.21	6394.34
460.39	6265.61
460.57	6319.45
460.76	6686.91
460.94	6614.35
461.12	6417.75
461.31	6626.06
461.49	6487.96
461.67	6473.92
461.85	6548.82
462.04	6548.82
462.22	6988.84
462.40	6700.95
462.59	6623.72
462.77	6600.31
462.95	6775.85
463.13	6642.44
463.32	6820.32
463.50	6888.20
463.68	6698.61
463.86	6810.96
464.05	6827.34
464.23	6630.74
464.41	6878.83
464.59	6722.02
464.78	7014.59
464.96	6794.58
465.14	6930.33
465.32	6916.28
465.50	7087.14
465.69	6972.46
465.87	6904.58
466.05	7131.61
466.23	7012.24
466.41	6981.82
466.60	7241.62
466.78	7103.53
466.96	7045.01
467.14	6988.84
467.32	7112.89
467.51	7302.47
467.69	6885.86
467.87	7267.36
468.05	7307.15
468.23	7035.65
468.41	7070.76
468.60	7358.64
468.78	7358.64
468.96	7140.97
469.14	7173.74
469.32	7307.15
469.50	7232.26
469.69	7611.42
469.87	7702.70
470.05	7487.37
470.23	7478.01
470.41	7588.02
470.59	7655.89
470.77	7634.83
470.95	7503.76
471.14	7763.56
471.32	7513.12
471.50	7796.32
471.68	7913.35
471.86	7866.54
472.04	7810.37
472.22	7932.08
472.40	7889.95
472.58	7943.78
472.77	8018.68
472.95	7988.25
473.13	8334.65
473.31	8203.58
473.49	8222.30
473.67	8191.88
473.85	7988.25
474.03	8402.52
474.21	8283.16
474.39	8458.70
474.57	8587.43
474.75	8428.27
474.93	8521.89
475.12	8484.44
475.30	8667.00
475.48	8463.38
475.66	8596.79
475.84	8809.78
476.02	8769.99
476.20	8692.75
476.38	8917.44
476.56	9123.41
476.74	8973.61
476.92	8964.25
477.10	9221.71
477.28	9125.75
477.46	9160.86
477.64	9294.27
477.82	9338.74
478.00	9671.09
478.18	9507.26
478.36	9455.76
478.54	9626.62
478.72	9860.68
478.90	9774.08
479.08	9844.29
479.26	9968.34
479.44	9984.73
479.62	10061.96
479.80	10216.44
479.98	10183.67
480.16	10424.75
480.34	10281.97
480.52	10604.97
480.70	10504.32
480.88	10370.91
481.06	10579.22
481.24	10829.66
481.41	10888.17
481.59	10991.16
481.77	10993.50
481.95	11220.53
482.13	11052.01
482.31	11227.55
482.49	11323.51
482.67	11232.23
482.85	11639.48
483.03	11723.74
483.21	11887.58
483.39	11878.22
483.57	11686.29
483.74	11974.18
483.92	12231.64
484.10	11840.77
484.28	12297.17
484.46	12521.87
484.64	12610.81
484.82	12453.99
485.00	12573.36
485.18	12884.65
485.35	13074.23
485.53	12842.52
485.71	13018.06
485.89	13144.45
486.07	13055.51
486.25	13467.44
486.43	13228.71
486.61	13399.57
486.78	13657.03
486.96	13572.77
487.14	13909.80
487.32	13689.79
487.50	14031.51
487.68	14239.82
487.85	14347.48
488.03	14492.60
488.21	14197.69
488.39	14595.58
488.57	14785.16
488.75	14661.12
488.92	15063.69
489.10	15019.22
489.28	15000.49
489.46	15569.24
489.64	15094.11
489.81	15517.75
489.99	15604.35
490.17	15421.79
490.35	15658.18
490.53	15939.05
490.70	15845.43
490.88	16109.91
491.06	16119.27
491.24	16166.08
491.41	16159.06
491.59	16486.73
491.77	16528.86
491.95	16837.81
492.13	16610.78
492.30	16594.40
492.48	16940.80
492.66	17102.29
492.84	16877.60
493.01	17202.94
493.19	17291.88
493.37	17589.13
493.54	17729.56
493.72	17755.30
493.90	17905.10
494.08	17642.96
494.25	18251.50
494.43	18099.36
494.61	18202.35
494.79	18155.54
494.96	18218.73
495.14	18333.42
495.32	18405.97
495.49	18548.75
495.67	18733.65
495.85	18808.54
496.02	18970.04
496.20	18988.77
496.38	18794.50
496.55	18934.93
496.73	19176.01
496.91	19510.71
497.09	19456.87
497.26	19721.35
497.44	19513.05
497.62	19896.89
497.79	19630.07
497.97	19761.14
498.14	20168.40
498.32	20360.32
498.50	20142.65
498.67	20439.90
498.85	20437.56
499.03	20290.10
499.20	20278.40
499.38	20713.74
499.56	20840.13
499.73	20844.81
499.91	20872.90
500.08	20945.45
500.26	20980.56
500.44	20964.18
500.61	21273.13
500.79	20971.20
500.97	21352.71
501.14	21659.32
501.32	21792.73
501.49	21617.19
501.67	21563.36
501.84	21596.12
502.02	21764.64
502.20	21984.65
502.37	22019.76
502.55	22059.55
502.72	21975.29
502.90	22078.27
503.07	22134.45
503.25	22001.04
503.43	22089.98
503.60	22499.57
503.78	22218.71
503.95	22483.19
504.13	22953.63
504.30	22885.76
504.48	22476.16
504.65	22946.61
504.83	22977.04
505.01	23323.44
505.18	23328.12
505.36	23215.77
505.53	23143.22
505.71	23330.46
505.88	23435.78
506.06	23307.05
506.23	23878.15
506.41	23651.11
506.58	23903.89
506.76	23946.02
506.93	23620.69
507.11	23491.96
507.28	23910.91
507.46	23749.42
507.63	24278.38
507.81	24243.27
507.98	24205.82
508.16	24315.83
508.33	24360.30
508.50	24503.07
508.68	24645.84
508.85	24844.79
509.03	24627.12
509.20	24952.45
509.38	25319.92
509.55	24947.77
509.73	24898.62
509.90	24746.48
510.08	24980.54
510.25	25247.36
510.42	25174.80
510.60	25322.26
510.77	25399.49
510.95	25238.00
511.12	25315.23
511.30	25759.94
511.47	25783.34
511.64	25558.65
511.82	26298.26
511.99	25872.28
512.17	26218.68
512.34	25970.58
512.51	26328.69
512.69	26305.28
512.86	25991.65
513.04	26471.46
513.21	26628.27
513.38	26850.63
513.56	26492.52
513.73	26576.78
513.90	26380.18
514.08	26562.74
514.25	27009.78
514.43	26789.77
514.60	27145.53
514.77	27101.06
514.95	27253.20
515.12	27346.82
515.29	26906.80
515.47	27321.07
515.64	27557.47
515.81	27206.39
515.99	27543.42
516.16	27871.10
516.33	27615.98
516.51	27700.24
516.68	27765.78
516.85	27824.29
517.03	27789.18
517.20	28058.34
517.37	28020.89
517.54	27885.14
517.72	28128.56
517.89	27690.88
518.06	28123.88
518.24	28102.81
518.41	28133.24
518.58	28278.35
518.75	27857.06
518.93	28659.86
519.10	28189.41
519.27	28503.04
519.45	28156.64
519.62	28795.61
519.79	28872.85
519.96	29027.32
520.14	28851.78
520.31	28650.50
520.48	28926.68
520.65	29221.59
520.83	29324.57
521.00	29048.39
521.17	28905.62
521.34	29362.02
521.52	29111.58
521.69	29095.20
521.86	29680.33
522.03	29696.72
522.20	29450.96
522.38	30162.48
522.55	29481.39
522.72	29886.30
522.89	29706.08
523.07	30106.31
523.24	29893.32
523.41	30295.89
523.58	30237.38
523.75	30614.21
523.92	30298.23
524.10	30073.54
524.27	30455.05
524.44	30443.35
524.61	30651.66
524.78	30476.12
524.96	30625.91
525.13	30693.79
525.30	30637.61
525.47	30883.37
525.64	30787.41
525.81	30710.17
525.98	31049.55
526.16	31316.37
526.33	30452.71
526.50	31122.10
526.67	30623.57
526.84	30773.36
527.01	31283.60
527.18	31374.88
527.36	31351.48
527.53	31360.84
527.70	31452.12
527.87	31660.43
528.04	31599.57
528.21	31538.72
528.38	31789.16
528.55	31814.90
528.72	31541.06
528.89	31941.29
529.07	31527.02
529.24	31847.67
529.41	31718.94
529.58	31906.18
529.75	31557.44
529.92	31938.95
530.09	31803.20
530.26	32151.94
530.43	32053.64
530.60	32329.82
530.77	32369.61
530.94	32161.30
531.11	32224.50
531.28	32481.95
531.46	32175.34
531.63	32393.01
531.80	32631.75
531.97	32720.69
532.14	32744.09
532.31	32456.21
532.48	32739.41
532.65	32811.97
532.82	32830.69
532.99	32814.31
533.16	32659.84
533.33	33273.06
533.50	33584.35
533.67	33099.86
533.84	33078.79
534.01	32921.98
534.18	32685.58
534.35	33266.03
534.52	32987.51
534.69	33125.60
534.86	33401.79
535.03	33036.66
535.20	33380.72
535.37	33806.70
535.54	33584.35
535.71	33188.80
535.88	33387.74
536.05	33762.23
536.22	33387.74
536.38	33883.94
536.55	33799.68
536.72	34038.41
536.89	33549.24
537.06	33958.83
537.23	33771.59
537.40	34068.84
537.57	33759.89
537.74	34057.14
537.91	34326.30
538.08	34040.75
538.25	34010.32
538.42	34216.29
538.59	34597.80
538.75	33631.16
538.92	34174.16
539.09	34632.91
539.26	34590.78
539.43	34740.57
539.60	34789.72
539.77	34630.57
539.94	34904.41
540.11	34850.58
540.28	34412.90
540.44	34778.02
540.61	34920.79
540.78	34665.67
540.95	35044.84
541.12	34955.90
541.29	35185.27
541.46	34937.18
541.62	34888.03
541.79	35409.96
541.96	35239.11
542.13	34951.22
542.30	35503.59
542.47	35601.89
542.63	35262.51
542.80	35365.49
542.97	36058.29
543.14	35557.42
543.31	35374.86
543.48	35943.61
543.64	36123.83
543.81	36009.14
543.98	35997.44
544.15	36137.87
544.32	36116.81
544.48	36339.16
544.65	35550.40
544.82	36013.82
544.99	35920.20
545.16	35894.46
545.32	35969.35
545.49	36701.94
545.66	36847.05
545.83	37181.75
546.00	37450.91
546.16	36446.82
546.33	36275.96
546.50	35978.72
546.67	36023.19
546.83	36067.66
547.00	36863.44
547.17	36566.19
547.34	36804.92
547.50	36624.70
547.67	36395.33
547.84	36627.04
548.00	36514.70
548.17	36481.93
548.34	36566.19
548.51	36872.80
548.67	36648.11
548.84	37041.32
549.01	36430.44
549.18	36538.10
549.34	36849.39
549.51	36620.02
549.68	36837.69
549.84	37003.87
550.01	36428.10
550.18	36634.06
550.34	37036.64
550.51	36943.02
550.68	36797.90
550.84	36392.99
551.01	36837.69
551.18	36727.69
551.34	37188.77
551.51	37067.06
551.68	36708.96
551.84	37099.83
552.01	37376.01
552.18	37118.56
552.34	37071.75
552.51	37340.91
552.68	36863.44
552.84	37055.36
553.01	37504.74
553.18	36994.51
553.34	37258.99
553.51	37500.06
553.67	37750.50
553.84	37172.39
554.01	37816.04
554.17	37364.31
554.34	37109.19
554.51	37050.68
554.67	37324.52
554.84	37244.94
555.00	37397.08
555.17	37352.61
555.33	37422.83
555.50	37502.40
555.67	37628.79
555.83	37446.23
556.00	37289.42
556.16	38075.84
556.33	37394.74
556.50	37628.79
556.66	37324.52
556.83	37890.93
556.99	37591.34
557.16	38017.32
557.32	37755.18
557.49	38031.36
557.65	37228.56
557.82	37778.59
557.98	38050.09
558.15	37989.24
558.32	38213.93
558.48	37853.48
558.65	37830.08
558.81	37904.98
558.98	38141.37
559.14	37977.53
559.31	37418.14
559.47	37909.66
559.64	37839.44
559.80	38206.90
559.97	37996.26
560.13	38057.11
560.30	37696.67
560.46	38115.62
560.63	38094.56
560.79	37956.47
560.96	38040.73
561.12	37801.99
561.29	37565.60
561.45	38417.55
561.61	38368.40
561.78	38366.06
561.94	38085.20
562.11	38253.72
562.27	38316.91
562.44	38071.15
562.60	38260.74
562.77	38225.63
562.93	37867.53
563.10	38094.56
563.26	38087.54
563.42	38347.34
563.59	38197.54
563.75	38501.81
563.92	38321.59
564.08	38354.36
564.24	38148.39
564.41	38565.01
564.57	38387.13
564.74	38270.10
564.90	38543.94
565.07	38459.68
565.23	38485.43
565.39	38216.27
565.56	38728.84
565.72	38040.73
565.88	38160.09
566.05	38354.36
566.21	38242.01
566.38	38176.48
566.54	38370.74
566.70	38550.96
566.87	38740.55
567.03	38515.86
567.19	39035.45
567.36	38431.60
567.52	38513.52
567.68	38480.75
567.85	38293.50
568.01	38405.85
568.17	38309.89
568.34	38639.90
568.50	38476.07
568.66	38316.91
568.83	38639.90
568.99	38206.90
569.15	38422.23
569.32	38195.20
569.48	38281.80
569.64	38859.91
569.81	38244.35
569.97	38274.78
570.13	38918.43
570.30	38333.29
570.46	38775.66
570.62	38462.02
570.78	38377.76
570.95	38403.51
571.11	38501.81
571.27	38300.53
571.43	38637.56
571.60	38452.66
571.76	38703.10
571.92	39072.90
572.09	38693.74
572.25	38756.93
572.41	38703.10
572.57	38738.21
572.74	38906.73
572.90	38518.20
573.06	38485.43
573.22	38726.50
573.38	38993.32
573.55	38850.55
573.71	39049.50
573.87	39257.81
574.03	38333.29
574.20	38387.13
574.36	38424.57
574.52	38597.77
574.68	38445.64
574.84	39028.43
575.01	38967.58
575.17	38799.06
575.33	38579.05
575.49	38543.94
575.65	39021.41
575.82	38721.82
575.98	38569.69
576.14	38515.86
576.30	38845.87
576.46	38675.01
576.62	38684.37
576.79	38778.00
576.95	38752.25
577.11	38721.82
577.27	38639.90
577.43	38717.14
577.59	38960.56
577.75	38920.77
577.92	38445.64
578.08	38522.88
578.24	38419.89
578.40	38115.62
578.56	39100.99
578.72	38768.63
578.88	39381.85
579.04	39220.36
579.21	38817.78
579.37	38916.09
579.53	38763.95
579.69	39267.17
579.85	38773.31
580.01	38677.35
580.17	38810.76
580.33	38803.74
580.49	38934.81
580.65	38494.79
580.82	39089.29
580.98	38866.94
581.14	38759.27
581.30	38890.34
581.46	38330.95
581.62	38691.40
581.78	38630.54
581.94	38876.30
582.10	38412.87
582.26	38955.88
582.42	38600.12
582.58	39070.56
582.74	39269.51
582.90	39337.38
583.06	38609.48
583.22	38845.87
583.38	38799.06
583.54	38869.28
583.70	38834.17
583.86	39030.77
584.02	38974.60
584.18	39283.55
584.34	39225.04
584.50	38927.79
584.66	38824.81
584.82	38614.16
584.98	39276.53
585.14	38590.75
585.30	38740.55
585.46	38857.57
585.62	38663.31
585.78	38539.26
585.94	38759.27
586.10	38749.91
586.26	38766.29
586.42	39014.39
586.58	39175.89
586.74	38937.15
586.90	38820.13
587.06	38728.84
587.22	38899.70
587.38	38476.07
587.54	39140.78
587.70	38747.57
587.86	39358.45
588.02	38995.67
588.18	39290.57
588.34	39072.90
588.49	39079.92
588.65	38625.86
588.81	38667.99
588.97	38745.23
589.13	38930.13
589.29	38871.62
589.45	39426.32
589.61	39468.45
589.77	39026.09
589.93	39199.29
590.08	39278.87
590.24	39386.54
590.40	39084.61
590.56	39388.88
590.72	38888.00
590.88	38410.53
591.04	39079.92
591.20	39356.11
591.35	39594.84
591.51	39653.36
591.67	38946.51
591.83	39510.58
591.99	39105.67
592.15	39564.42
592.31	38810.76
592.46	39489.52
592.62	39133.76
592.78	38958.22
592.94	39529.31
593.10	38923.11
593.26	39377.17
593.41	39100.99
593.57	39243.76
593.73	39501.22
593.89	39541.01
594.05	39477.82
594.20	39152.48
594.36	39276.53
594.52	38871.62
594.68	39164.18
594.84	38953.54
594.99	39222.70
595.15	39321.00
595.31	39084.61
595.47	39016.73
595.62	39342.06
595.78	39473.13
595.94	38759.27
596.10	39651.02
596.25	39014.39
596.41	39342.06
596.57	39194.61
596.73	39489.52
596.88	39070.56
597.04	39627.61
597.20	38941.83
597.36	39360.79
597.51	39421.64
597.67	39035.45
597.83	38960.56
597.99	39477.82
598.14	39461.43
598.30	38651.61
598.46	38831.83
598.61	39267.17
598.77	38794.38
598.93	39421.64
599.09	39206.31
599.24	39236.74
599.40	39201.63
599.56	39533.99
599.71	39061.20
599.87	39082.27
600.03	39220.36
600.18	39070.56
600.34	39105.67
600.50	39384.19
600.65	38850.55
600.81	39370.15
600.97	39470.79
601.12	39662.72
601.28	39435.69
601.44	39035.45
601.59	39337.38
601.75	39009.71
601.91	38824.81
602.06	39051.84
602.22	39283.55
602.37	39023.75
602.53	39243.76
602.69	39445.05
602.84	39042.48
603.00	39058.86
603.16	39040.14
603.31	38843.53
603.47	39323.34
603.62	38557.99
603.78	38843.53
603.94	38799.06
604.09	39037.80
604.25	38471.39
604.40	38728.84
604.56	38377.76
604.71	38848.21
604.87	38742.89
605.03	39054.18
605.18	39192.27
605.34	39426.32
605.49	38714.80
605.65	38892.68
605.80	38768.63
605.96	38588.41
606.12	38869.28
606.27	39297.59
606.43	38983.96
606.58	39321.00
606.74	38923.11
606.89	39100.99
607.05	38677.35
607.20	39070.56
607.36	38604.80
607.51	38941.83
607.67	38185.84
607.82	39119.71
607.98	38202.22
608.13	38817.78
608.29	38590.75
608.44	38705.44
608.60	38588.41
608.75	38602.46
608.91	38787.36
609.06	38529.90
609.22	38958.22
609.37	38368.40
609.53	38799.06
609.68	38431.60
609.84	38438.62
609.99	38679.69
610.15	38403.51
610.30	38934.81
610.46	39288.23
610.61	39082.27
610.76	39466.11
610.92	39538.67
611.07	39845.28
611.23	39721.23
611.38	39054.18
611.54	39070.56
611.69	39072.90
611.84	38602.46
612.00	38733.53
612.15	38518.20
612.31	38824.81
612.46	38721.82
612.62	38628.20
612.77	38513.52
612.92	38497.13
613.08	38342.66
613.23	38698.42
613.39	38391.81
613.54	38223.29
613.69	38265.42
613.85	37940.08
614.00	38183.50
614.15	38417.55
614.31	37958.81
614.46	38246.69
614.62	38497.13
614.77	38225.63
614.92	38506.49
615.08	37993.92
615.23	38117.96
615.38	38033.71
615.54	37879.23
615.69	38003.28
615.84	37467.30
616.00	37619.43
616.15	37689.65
616.30	37872.21
616.46	37785.61
616.61	37921.36
616.76	37858.17
616.92	37406.44
617.07	37530.49
617.22	37490.70
617.37	37603.05
617.53	37352.61
617.68	37289.42
617.83	37322.18
617.99	37425.17
618.14	37331.54
618.29	37603.05
618.45	37675.60
618.60	37581.98
618.75	37724.75
618.90	37509.43
619.06	37090.47
619.21	37383.04
619.36	37104.51
619.51	37081.11
619.67	37193.45
619.82	37048.34
619.97	37251.97
620.12	37038.98
620.28	36629.38
620.43	37029.62
620.58	37254.31
620.73	37205.16
620.89	37310.48
621.04	37525.81
621.19	37289.42
621.34	37141.96
621.49	36980.46
621.65	36945.36
621.80	36840.03
621.95	36907.91
622.10	37146.64
622.25	36957.06
622.41	36760.45
622.56	36811.95
622.71	37109.19
622.86	36641.09
623.01	37038.98
623.16	36594.28
623.32	36760.45
623.47	36907.91
623.62	36402.35
623.77	36552.15
623.92	36933.65
624.07	36325.11
624.23	36676.19
624.38	36987.49
624.53	36261.92
624.68	36556.83
624.83	36786.20
624.98	36767.48
625.13	36315.75
625.29	36414.05
625.44	36442.14
625.59	36065.31
625.74	36044.25
625.89	36306.39
626.04	35894.46
626.19	36119.15
626.34	36039.57
626.49	36217.45
626.65	36435.12
626.80	36727.69
626.95	36245.54
627.10	36198.73
627.25	36172.98
627.40	36123.83
627.55	36105.10
627.70	36058.29
627.85	35885.09
628.00	35777.43
628.15	35594.87
628.30	35761.05
628.45	35887.43
628.60	35758.70
628.76	35988.08
628.91	35910.84
629.06	35969.35
629.21	35976.37
629.36	35714.23
629.51	35555.08
629.66	35501.25
629.81	35487.20
629.96	35498.91
630.11	35899.14
630.26	35637.00
630.41	35292.94
630.56	35690.83
630.71	35372.52
630.86	35723.60
631.01	35468.48
631.16	35765.73
631.31	35988.08
631.46	35290.60
631.61	35964.67
631.76	35353.79
631.91	35309.32
632.06	34778.02
632.21	35353.79
632.36	35201.66
632.51	35079.95
632.66	35241.45
632.81	35159.53
632.96	35225.06
633.10	35225.06
633.25	35115.06
633.40	35278.89
633.55	35171.23
633.70	35182.93
633.85	34323.96
634.00	35255.49
634.15	34726.53
634.30	35306.98
634.45	34775.68
634.60	34656.31
634.75	34583.76
634.90	34675.04
635.05	35159.53
635.19	34862.28
635.34	35108.04
635.49	34838.87
635.64	34850.58
635.79	34714.83
635.94	34363.75
636.09	34548.65
636.24	34607.16
636.39	34410.56
636.53	34288.85
636.68	34359.06
636.83	34424.60
636.98	34754.61
637.13	34230.33
637.28	34848.24
637.43	34749.93
637.57	34621.20
637.72	34438.64
637.87	34614.18
638.02	34581.42
638.17	34625.89
638.32	34377.79
638.46	34190.55
638.61	34073.52
638.76	33949.47
638.91	34213.95
639.06	34206.93
639.20	34263.10
639.35	34099.26
639.50	34143.74
639.65	34408.22
639.80	34057.14
639.94	34007.98
640.09	33797.34
640.24	34153.10
640.39	33996.28
640.54	33872.23
640.68	33799.68
640.83	33467.32
640.98	33659.24
641.13	34054.79
641.27	33984.58
641.42	34106.29
641.57	33792.65
641.72	33942.45
641.86	33830.10
642.01	33703.71
642.16	33900.32
642.31	33020.28
642.45	33771.59
642.60	33490.73
642.75	33677.97
642.90	33469.66
643.04	33530.51
643.19	33160.71
643.34	33301.14
643.48	33619.46
643.63	33720.10
643.78	33146.67
643.93	33439.23
644.07	33757.55
644.22	33563.28
644.37	33448.60
644.51	33757.55
644.66	33422.85
644.81	33137.30
644.95	33294.12
645.10	32891.55
645.25	33149.01
645.39	33095.18
645.54	33411.15
645.69	33034.32
645.83	33081.13
645.98	33123.26
646.13	33362.00
646.27	33298.80
646.42	33130.28
646.57	33369.02
646.71	32978.15
646.86	32992.19
647.00	33172.41
647.15	32849.42
647.30	32701.96
647.44	32952.40
647.59	33008.58
647.74	33010.92
647.88	32900.91
648.03	33013.26
648.17	32795.59
648.32	32666.86
648.47	33226.24
648.61	32816.65
648.76	33039.00
648.90	32818.99
649.05	32741.75
649.20	32650.47
649.34	32837.72
649.49	32563.87
649.63	32470.25
649.78	32809.63
649.92	32435.14
650.07	32559.19
650.21	32606.00
650.36	32877.51
650.51	32744.09
650.65	32556.85
650.80	32711.33
650.94	32636.43
651.09	32641.11
651.23	32400.04
651.38	32390.67
651.52	32596.64
651.67	32418.76
651.81	32140.24
651.96	32194.07
652.10	32327.48
652.25	32313.44
652.39	32030.23
652.54	32671.54
652.68	32322.80
652.83	32158.96
652.97	32774.52
653.12	32027.89
653.26	32070.02
653.41	32173.00
653.55	32587.28
653.70	31775.11
653.84	32023.21
653.99	32046.62
654.13	32273.65
654.27	31957.67
654.42	32243.22
654.56	31784.48
654.71	32027.89
654.85	32175.34
655.00	32521.74
655.14	31880.44
655.29	32252.58
655.43	32229.18
655.57	31840.65
655.72	31791.50
655.86	31569.15
656.01	31800.86
656.15	31538.72
656.30	31812.56
656.44	31730.64
656.58	31498.93
656.73	31634.68
656.87	31955.33
657.01	31253.17
657.16	31913.20
657.30	31737.66
657.45	31672.13
657.59	31658.09
657.73	31534.04
657.88	31725.96
658.02	31531.70
658.16	31171.25
658.31	31346.79
658.45	31154.87
658.60	30855.28
658.74	30913.80
658.88	31173.60
659.03	30953.58
659.17	31157.21
659.31	30965.29
659.46	31145.51
659.60	31197.00
659.74	31091.68
659.89	31145.51
660.03	31161.89
660.17	30923.16
660.32	30785.07
660.46	30789.75
660.60	30714.85
660.74	30588.46
660.89	30581.44
661.03	30129.72
661.17	30916.14
661.32	30663.36
661.46	30429.30
661.60	30682.08
661.74	30775.70
661.89	30761.66
662.03	30628.25
662.17	30431.65
662.31	29991.62
662.46	30792.09
662.60	30651.66
662.74	30405.90
662.88	30050.14
663.03	30057.16
663.17	30139.08
663.31	29713.10
663.45	30288.87
663.60	30455.05
663.74	30033.75
663.88	30052.48
664.02	29879.28
664.17	30326.32
664.31	30045.46
664.45	29860.55
664.59	29656.93
664.73	29900.34
664.88	29652.25
665.02	29495.43
665.16	29949.50
665.30	29565.65
665.44	29172.44
665.59	29041.37
665.73	29668.63
665.87	29457.98
666.01	29310.53
666.15	29535.22
666.29	29387.77
666.44	29357.34
666.58	29158.39
666.72	29039.03
666.86	29055.41
667.00	29355.00
667.14	28954.77
667.28	28760.50
667.43	28823.70
667.57	29378.40
667.71	28613.05
667.85	28938.38
667.99	28922.00
668.13	28474.96
668.27	28683.27
668.41	28692.63
668.56	28580.28
668.70	29039.03
668.84	28903.28
668.98	28507.72
669.12	28442.19
669.26	28533.47
669.40	28063.02
669.54	28006.85
669.68	27871.10
669.82	27831.31
669.96	28261.97
670.10	27814.93
670.25	28163.67
670.39	27931.95
670.53	27688.54
670.67	28013.87
670.81	28102.81
670.95	27725.99
671.09	27903.87
671.23	27948.34
671.37	28079.41
671.51	27756.41
671.65	27697.90
671.79	27489.59
671.93	27466.19
672.07	27503.64
672.21	27110.43
672.35	27159.58
672.49	26768.71
672.63	26916.16
672.77	27276.60
672.91	26569.76
673.05	26654.02
673.19	26930.20
673.33	27072.98
673.47	27335.12
673.61	27049.57
673.75	26944.25
673.89	27129.15
674.03	26625.93
674.17	26614.23
674.31	26670.40
674.45	26579.12
674.59	26096.97
674.73	26529.97
674.87	26321.66
675.01	26302.94
675.15	26225.70
675.29	26040.80
675.43	26309.96
675.56	26075.91
675.70	26253.79
675.84	26206.98
675.98	25633.55
676.12	26157.83
676.26	25830.15
676.40	26108.68
676.54	25773.98
676.68	25619.50
676.82	25123.31
676.96	25792.70
677.10	25516.52
677.23	25043.73
677.37	25043.73
677.51	25039.05
677.65	25039.05
677.79	25193.53
677.93	25022.67
678.07	24812.02
678.21	24512.43
678.34	24884.58
678.48	24418.81
678.62	24678.61
678.76	24704.35
678.90	24257.31
679.04	24407.11
679.18	24336.89
679.31	24219.86
679.45	23936.66
679.59	24058.37
679.73	23838.36
679.87	23894.53
680.00	23775.16
680.14	24032.62
680.28	23606.64
680.42	23534.09
680.56	23527.06
680.70	23543.45
680.83	23307.05
680.97	23662.82
681.11	23711.97
681.25	23335.14
681.39	23405.36
681.52	23283.65
681.66	22754.69
681.80	22925.55
681.94	22789.80
682.07	22698.52
682.21	23070.66
682.35	22621.28
682.49	22515.95
682.62	22338.07
682.76	22525.32
682.90	22452.76
683.04	22558.08
683.17	22061.89
683.31	22080.61
683.45	22127.42
683.59	22122.74
683.72	22108.70
683.86	22019.76
684.00	22104.02
684.13	21781.03
684.27	21664.00
684.41	21869.97
684.55	21497.82
684.68	21357.39
684.82	21341.00
684.96	21561.02
685.09	21303.56
685.23	20966.52
685.37	21151.42
685.50	21198.23
685.64	21083.55
685.78	21422.92
685.91	20774.60
686.05	20830.77
686.19	20711.40
686.32	20891.62
686.46	20512.46
686.60	20596.71
686.73	20355.64
686.87	20327.55
687.01	20615.44
687.14	20320.53
687.28	20086.48
687.42	20423.51
687.55	20327.55
687.69	20088.82
687.82	19611.35
687.96	20039.67
688.10	19861.79
688.23	19995.20
688.37	19845.40
688.50	19653.48
688.64	19976.47
688.78	19573.90
688.91	19543.47
689.05	19328.14
689.18	19145.58
689.32	18895.14
689.46	19044.94
689.59	19171.33
689.73	19033.24
689.86	18726.63
690.00	18937.27
690.13	18991.11
690.27	18719.60
690.41	18913.87
690.54	18347.46
690.68	18806.20
690.81	18642.37
690.95	18307.67
691.08	18253.84
691.22	18448.10
691.35	18279.58
691.49	18417.68
691.62	18244.48
691.76	17898.08
691.89	17949.57
692.03	17841.90
692.16	17886.37
692.30	17680.41
692.43	17610.19
692.57	17547.00
692.70	17500.19
692.84	17600.83
692.97	17308.26
693.11	17528.27
693.24	17364.43
693.38	17383.16
693.51	17212.30
693.65	17591.47
693.78	17226.34
693.92	16994.63
694.05	17074.21
694.19	16893.99
694.32	16662.27
694.45	16826.11
694.59	16531.20
694.72	16507.80
694.86	16912.71
694.99	16219.91
695.13	16107.57
695.26	16313.53
695.39	16128.63
695.53	16362.69
695.66	16613.12
695.80	16063.10
695.93	15786.91
696.07	15967.13
696.20	16072.46
696.33	15875.85
696.47	15737.76
696.60	15854.79
696.73	15524.77
696.87	15627.76
697.00	15580.95
697.14	15417.11
697.27	15009.86
697.40	15187.74
697.54	14963.04
697.67	15028.58
697.80	14895.17
697.94	15077.73
698.07	15063.69
698.21	14853.04
698.34	15068.37
698.47	14586.22
698.61	14789.85
698.74	14754.74
698.87	14813.25
699.01	14527.71
699.14	14377.91
699.27	14469.19
699.40	14597.92
699.54	14361.53
699.67	14073.64
699.80	14157.90
699.94	14012.79
700.07	13879.38
700.20	13898.10
700.34	13605.53
700.47	13544.68
700.60	13905.12
700.73	13895.76
700.87	13703.84
701.00	13549.36
701.13	13399.57
701.26	13497.87
701.40	13799.80
701.53	13420.63
701.66	13451.06
701.79	13352.76
701.93	13053.17
702.06	13158.49
702.19	13128.06
702.32	13006.36
702.46	12781.67
702.59	12805.07
702.72	12784.01
702.85	12772.30
702.99	12674.00
703.12	12666.98
703.25	12732.51
703.38	12713.79
703.51	12713.79
703.65	12737.20
703.78	12320.58
703.91	12397.82
704.04	12554.63
704.17	12470.37
704.31	12222.28
704.44	12203.55
704.57	12161.42
704.70	12004.61
704.83	11817.36
704.96	12002.27
705.10	11796.30
705.23	11861.84
>>>>>End Processed Spectral Data<<<<<
