SpectraSuite Data File
++++++++++++++++++++++++++++++++++++
Date: Fri Oct 04 11:39:44 GMT-05:00 2013
User: price-jones
Dark Spectrum Present: No
Reference Spectrum Present: No
Number of Sampled Component Spectra: 1
Spectrometers: USB2+H05261
Integration Time (usec): 100000 (USB2+H05261)
Spectra Averaged: 1 (USB2+H05261)
Boxcar Smoothing: 0 (USB2+H05261)
Correct for Electrical Dark: No (USB2+H05261)
Strobe/Lamp Enabled: No (USB2+H05261)
Correct for Detector Non-linearity: No (USB2+H05261)
Correct for Stray Light: No (USB2+H05261)
Number of Pixels in Processed Spectrum: 2048
>>>>>Begin Processed Spectral Data<<<<<
365.73	53.83
365.92	53.83
366.12	53.83
366.32	0.00
366.52	0.00
366.72	0.00
366.91	9.36
367.11	0.00
367.31	0.00
367.51	0.00
367.70	0.00
367.90	7.02
368.10	0.00
368.30	0.00
368.49	0.00
368.69	63.19
368.89	0.00
369.09	0.00
369.28	0.00
369.48	0.00
369.68	0.00
369.87	30.43
370.07	39.79
370.27	98.30
370.47	145.11
370.66	379.17
370.86	500.87
371.06	557.05
371.25	535.98
371.45	557.05
371.65	552.37
371.84	461.09
372.04	566.41
372.24	559.39
372.44	545.34
372.63	589.82
372.83	720.88
373.03	599.18
373.22	636.63
373.42	697.48
373.62	669.39
373.81	608.54
374.01	685.78
374.21	725.57
374.40	636.63
374.60	772.38
374.79	697.48
374.99	676.41
375.19	739.61
375.38	683.44
375.58	676.41
375.78	723.23
375.97	741.95
376.17	828.55
376.37	781.74
376.56	807.48
376.76	753.65
376.95	772.38
377.15	779.40
377.35	737.27
377.54	746.63
377.74	809.83
377.93	748.97
378.13	837.91
378.33	807.48
378.52	889.40
378.72	795.78
378.91	844.93
379.11	936.21
379.31	894.08
379.50	809.83
379.70	901.11
379.89	854.30
380.09	868.34
380.28	950.26
380.48	903.45
380.68	807.48
380.87	976.00
381.07	880.04
381.26	994.73
381.46	891.74
381.65	947.92
381.85	983.02
382.04	950.26
382.24	1064.94
382.43	938.55
382.63	968.98
382.83	1057.92
383.02	978.34
383.22	1022.81
383.41	945.58
383.61	978.34
383.80	997.07
384.00	1050.90
384.19	1046.22
384.39	1064.94
384.58	1097.71
384.78	1074.31
384.97	1114.10
385.17	1043.88
385.36	1048.56
385.56	1137.50
385.75	1111.75
385.95	1109.41
386.14	1086.01
386.34	1128.14
386.53	1203.04
386.72	1233.46
386.92	1165.59
387.11	1165.59
387.31	1139.84
387.50	1114.10
387.70	1184.31
387.89	1233.46
388.09	1160.91
388.28	1217.08
388.48	1287.29
388.67	1294.32
388.86	1317.72
389.06	1268.57
389.25	1287.29
389.45	1299.00
389.64	1207.72
389.84	1341.13
390.03	1270.91
390.22	1355.17
390.42	1371.55
390.61	1373.89
390.81	1376.24
391.00	1299.00
391.19	1355.17
391.39	1420.71
391.58	1413.68
391.78	1413.68
391.97	1476.88
392.16	1462.83
392.36	1509.65
392.55	1535.39
392.75	1568.16
392.94	1535.39
393.13	1617.31
393.33	1448.79
393.52	1500.28
393.71	1537.73
393.91	1521.35
394.10	1612.63
394.29	1519.01
394.49	1659.44
394.68	1575.18
394.88	1629.01
395.07	1694.55
395.26	1652.42
395.46	1661.78
395.65	1764.76
395.84	1696.89
396.04	1860.73
396.23	1804.55
396.42	1732.00
396.62	1849.02
396.81	1802.21
397.00	1717.95
397.19	1802.21
397.39	1708.59
397.58	1748.38
397.77	1884.13
397.97	1912.22
398.16	1813.92
398.35	1863.07
398.55	1912.22
398.74	1940.30
398.93	1940.30
399.12	1930.94
399.32	1877.11
399.51	1966.05
399.70	2071.37
399.90	1963.71
400.09	2045.63
400.28	2176.70
400.47	2040.95
400.67	2174.36
400.86	2092.44
401.05	2157.97
401.24	2157.97
401.44	2253.94
401.63	2242.23
401.82	2263.30
402.01	2160.31
402.21	2242.23
402.40	2305.43
402.59	2267.98
402.78	2338.20
402.97	2303.09
403.17	2293.72
403.36	2324.15
403.55	2361.60
403.74	2480.97
403.93	2443.52
404.13	2565.23
404.32	2513.74
404.51	2471.61
404.70	2574.59
404.89	2572.25
405.09	2504.37
405.28	2600.34
405.47	2520.76
405.66	2693.96
405.85	2789.92
406.05	2715.02
406.24	2679.91
406.43	2642.46
406.62	2597.99
406.81	2768.85
407.00	2829.71
407.20	2717.36
407.39	2740.77
407.58	2803.96
407.77	2902.26
407.96	2867.16
408.15	2885.88
408.34	2883.54
408.54	2960.78
408.73	2930.35
408.92	2897.58
409.11	3136.32
409.30	2953.76
409.49	3077.80
409.68	3171.43
409.87	3190.15
410.07	3290.79
410.26	3187.81
410.45	3185.47
410.64	3274.41
410.83	3288.45
411.02	3346.97
411.21	3417.18
411.40	3419.52
411.59	3269.73
411.78	3435.91
411.98	3386.76
412.17	3559.95
412.36	3421.86
412.55	3566.98
412.74	3534.21
412.93	3574.00
413.12	3751.88
413.31	3850.18
413.50	3616.13
413.69	3712.09
413.88	3950.82
414.07	3786.99
414.26	3978.91
414.45	3747.20
414.64	3920.40
414.83	3939.12
415.02	4100.62
415.22	4212.96
415.41	4098.28
415.60	4065.51
415.79	4194.24
415.98	4283.18
416.17	4238.71
416.36	4159.13
416.55	4311.27
416.74	4428.29
416.93	4383.82
417.12	4416.59
417.31	4362.76
417.50	4531.28
417.69	4751.29
417.88	4709.16
418.07	4650.64
418.26	4676.39
418.45	4709.16
418.64	4950.23
418.83	4793.42
419.02	4889.38
419.21	4910.44
419.39	4940.87
419.58	4856.61
419.77	4868.31
419.96	4954.91
420.15	5184.29
420.34	4940.87
420.53	5083.64
420.72	5172.58
420.91	5214.71
421.10	5259.18
421.29	5277.91
421.48	5177.26
421.67	5277.91
421.86	5268.55
422.05	5355.15
422.24	5210.03
422.43	5397.28
422.61	5383.23
422.80	5446.43
422.99	5327.06
423.18	5331.74
423.37	5439.40
423.56	5329.40
423.75	5373.87
423.94	5224.08
424.13	5188.97
424.32	5224.08
424.50	5472.17
424.69	5582.18
424.88	5462.81
425.07	5476.85
425.26	5430.04
425.45	5350.46
425.64	5397.28
425.83	5392.59
426.01	5643.03
426.20	5437.06
426.39	5612.60
426.58	5462.81
426.77	5603.24
426.96	5633.67
427.15	5696.86
427.33	5678.14
427.52	5757.72
427.71	5846.66
427.90	5874.74
428.09	5841.98
428.28	5818.57
428.46	5898.15
428.65	6050.28
428.84	6127.52
429.03	6097.10
429.22	5907.51
429.40	6202.42
429.59	5959.00
429.78	5720.27
429.97	5825.59
430.16	5804.53
430.34	6230.51
430.53	6279.66
430.72	6317.11
430.91	6129.86
431.10	6097.10
431.28	6272.64
431.47	6457.54
431.66	6555.84
431.85	6354.55
432.03	6665.85
432.22	6761.81
432.41	6441.15
432.60	6675.21
432.79	6623.72
432.97	6686.91
433.16	6640.10
433.35	6628.40
433.54	6867.13
433.72	6579.25
433.91	6628.40
434.10	6843.73
434.28	6909.26
434.47	7016.93
434.66	6874.15
434.85	7133.95
435.03	7321.20
435.22	7370.35
435.41	7618.44
435.59	7508.44
435.78	7290.77
435.97	7274.38
436.16	7426.52
436.34	7133.95
436.53	7180.76
436.72	7307.15
436.90	7119.91
437.09	7309.49
437.28	7126.93
437.46	7424.18
437.65	7449.93
437.84	7531.84
438.02	7590.36
438.21	7524.82
438.40	7398.43
438.58	7786.96
438.77	7578.65
438.96	7805.69
439.14	8011.65
439.33	8161.45
439.52	7978.89
439.70	8156.77
439.89	8203.58
440.08	8212.94
440.26	8210.60
440.45	8367.42
440.63	8397.84
440.82	8439.97
441.01	8409.54
441.19	8655.30
441.38	8601.47
441.57	8592.11
441.75	8699.77
441.94	8950.21
442.12	8704.45
442.31	9062.55
442.50	9020.42
442.68	9055.53
442.87	8931.48
443.05	8910.42
443.24	9261.50
443.43	9064.89
443.61	9179.58
443.80	9451.08
443.98	8835.52
444.17	8938.51
444.35	9385.55
444.54	9315.33
444.73	9359.80
444.91	9441.72
445.10	9406.61
445.28	9336.40
445.47	9289.59
445.65	9249.80
445.84	9263.84
446.02	9671.09
446.21	9284.91
446.39	9406.61
446.58	9813.87
446.77	9696.84
446.95	9439.38
447.14	9413.63
447.32	9612.58
447.51	9446.40
447.69	9722.59
447.88	9640.67
448.06	9572.79
448.25	9687.48
448.43	9760.03
448.62	9701.52
448.80	9575.13
448.99	9600.88
449.17	9671.09
449.36	9621.94
449.54	10040.90
449.73	10038.56
449.91	9940.26
450.10	10111.11
450.28	10232.82
450.46	9977.70
450.65	10054.94
450.83	10368.57
451.02	10120.48
451.20	10441.13
451.39	10429.43
451.57	10363.89
451.76	10251.55
451.94	10333.47
452.13	10494.96
452.31	10532.41
452.49	10314.74
452.68	10501.98
452.86	10429.43
453.05	10551.14
453.23	10663.48
453.42	10235.16
453.60	10289.00
453.78	10689.23
453.97	10569.86
454.15	10661.14
454.34	10967.75
454.52	10949.03
454.70	11108.18
454.89	11019.24
455.07	10824.98
455.26	10984.13
455.44	11353.94
455.62	11318.83
455.81	11154.99
455.99	11260.32
456.17	11000.52
456.36	11470.97
456.54	11555.22
456.73	11379.68
456.91	11976.52
457.09	11850.13
457.28	11964.82
457.46	11580.97
457.64	11726.08
457.83	11646.51
458.01	11641.82
458.19	11964.82
458.38	12056.10
458.56	12241.00
458.74	12336.96
458.93	12018.65
459.11	12025.67
459.29	12159.08
459.48	12353.35
459.66	12203.55
459.84	12531.23
460.03	12578.04
460.21	12313.56
460.39	12416.54
460.57	12418.88
460.76	12496.12
460.94	12606.13
461.12	12671.66
461.31	12697.41
461.49	12538.25
461.67	12449.31
461.85	12947.84
462.04	12828.48
462.22	13385.52
462.40	13132.75
462.59	13074.23
462.77	12933.80
462.95	13481.49
463.13	12936.14
463.32	13350.42
463.50	13146.79
463.68	13376.16
463.86	13359.78
464.05	13179.56
464.23	13268.50
464.41	13561.06
464.59	13153.81
464.78	13769.37
464.96	13324.67
465.14	13207.64
465.32	13593.83
465.50	13914.48
465.69	13848.95
465.87	13713.20
466.05	13654.69
466.23	13848.95
466.41	13465.10
466.60	14628.35
466.78	13706.18
466.96	13642.98
467.14	13884.06
467.32	13944.91
467.51	14305.35
467.69	13865.33
467.87	13905.12
468.05	14200.03
468.23	14078.32
468.41	13837.25
468.60	14221.10
468.78	14434.08
468.96	14190.67
469.14	14473.87
469.32	14773.46
469.50	14452.81
469.69	14817.93
469.87	14932.62
470.05	15105.82
470.23	14822.61
470.41	15131.56
470.59	15005.17
470.77	15070.71
470.95	14897.51
471.14	15316.47
471.32	15281.36
471.50	15637.12
471.68	15489.67
471.86	15243.91
472.04	15878.19
472.22	15655.84
472.40	15686.27
472.58	15630.10
472.77	15800.96
472.95	16053.73
473.13	16711.42
473.31	15822.02
473.49	15887.56
473.67	16355.66
473.85	16093.52
474.03	16423.54
474.21	16622.48
474.39	16929.09
474.57	16912.71
474.75	16901.01
474.93	17109.32
475.12	16671.64
475.30	17085.91
475.48	17179.53
475.66	16961.86
475.84	17362.09
476.02	17537.63
476.20	17507.21
476.38	17928.50
476.56	17884.03
476.74	18389.59
476.92	18064.25
477.10	18277.24
477.28	18539.38
477.46	18494.91
477.64	18738.33
477.82	19047.28
478.00	19440.49
478.18	19344.53
478.36	19145.58
478.54	19372.61
478.72	19655.82
478.90	19772.85
479.08	20032.65
479.26	20102.86
479.44	20135.63
479.62	20390.75
479.80	20650.55
479.98	20547.56
480.16	20903.32
480.34	21067.16
480.52	21146.74
480.70	21139.72
480.88	21247.38
481.06	21170.15
481.24	21551.65
481.41	21743.58
481.59	22136.79
481.77	22466.80
481.95	22239.77
482.13	22419.99
482.31	22265.52
482.49	23103.43
482.67	22649.36
482.85	23351.52
483.03	23735.37
483.21	23744.73
483.39	23978.79
483.57	23761.12
483.74	24084.11
483.92	24238.59
484.10	24187.10
484.28	24634.14
484.46	24868.19
484.64	25799.73
484.82	25472.05
485.00	25450.99
485.18	25933.14
485.35	26485.50
485.53	26162.51
485.71	26363.79
485.89	26965.31
486.07	26925.52
486.25	26829.56
486.43	27026.17
486.61	27271.92
486.78	27838.33
486.96	27864.08
487.14	28285.37
487.32	28086.43
487.50	28320.48
487.68	28584.96
487.85	28811.99
488.03	29596.07
488.21	29659.27
488.39	29378.40
488.57	29930.77
488.75	29984.60
488.92	30260.79
489.10	30581.44
489.28	30984.01
489.46	31204.02
489.64	30855.28
489.81	31562.12
489.99	31702.56
490.17	31786.82
490.35	32027.89
490.53	32063.00
490.70	32713.67
490.88	32514.72
491.06	32807.29
491.24	32526.42
491.41	32863.46
491.59	33717.76
491.77	33598.39
491.95	33972.88
492.13	34106.29
492.30	33928.41
492.48	34302.89
492.66	34895.05
492.84	34501.84
493.01	35082.29
493.19	35192.30
493.37	35791.47
493.54	35543.38
493.72	35707.21
493.90	36416.40
494.08	36201.07
494.25	36563.85
494.43	37134.94
494.61	37280.05
494.79	37532.83
494.96	37160.69
495.14	37010.89
495.32	37839.44
495.49	37792.63
495.67	37904.98
495.85	38574.37
496.02	38663.31
496.20	39082.27
496.38	38969.92
496.55	39005.03
496.73	40065.29
496.91	39477.82
497.09	39791.45
497.26	39966.99
497.44	39711.87
497.62	39838.26
497.79	40421.05
497.97	40353.18
498.14	41160.66
498.32	41256.62
498.50	41717.71
498.67	41794.95
498.85	41743.45
499.03	41827.71
499.20	41542.17
499.38	41979.85
499.56	42148.37
499.73	42684.35
499.91	42351.99
500.08	42934.79
500.26	42815.42
500.44	42817.76
500.61	43023.73
500.79	43082.24
500.97	43840.57
501.14	43931.86
501.32	43966.96
501.49	43798.44
501.67	43997.39
501.84	44498.26
502.02	44051.22
502.20	44521.67
502.37	44886.79
502.55	44786.15
502.72	44858.71
502.90	45198.09
503.07	44959.35
503.25	44982.76
503.43	45043.61
503.60	45382.99
503.78	45509.38
503.95	45663.85
504.13	45890.88
504.30	45804.28
504.48	46054.72
504.65	46162.39
504.83	46499.42
505.01	46761.56
505.18	46646.88
505.36	47026.04
505.53	46836.46
505.71	47100.94
505.88	47040.09
506.06	47136.05
506.23	47515.22
506.41	47363.08
506.58	47807.78
506.76	48044.18
506.93	48116.73
507.11	47903.74
507.28	48051.20
507.46	48147.16
507.63	48278.23
507.81	48390.58
507.98	48509.94
508.16	48753.36
508.33	48549.73
508.50	48493.56
508.68	49153.59
508.85	49301.04
509.03	49343.17
509.20	49502.33
509.38	49666.17
509.55	49743.41
509.73	49631.06
509.90	49916.61
510.08	50052.36
510.25	49705.96
510.42	50475.99
510.60	50714.73
510.77	50515.78
510.95	50602.38
511.12	50293.43
511.30	50616.43
511.47	50707.71
511.64	50522.80
511.82	51161.77
511.99	51007.29
512.17	50934.74
512.34	51185.18
512.51	51590.09
512.69	51456.68
512.86	51501.15
513.04	51782.01
513.21	51948.19
513.38	51938.83
513.56	51707.12
513.73	51847.55
513.90	51976.28
514.08	51969.26
514.25	52051.17
514.43	52626.95
514.60	52505.24
514.77	52282.89
514.95	52521.62
515.12	52556.73
515.29	52505.24
515.47	52875.04
515.64	52830.57
515.81	52877.38
515.99	53191.01
516.16	53528.05
516.33	52987.39
516.51	53429.75
516.68	53006.11
516.85	53162.93
517.03	53368.90
517.20	53806.58
517.37	53687.21
517.54	53499.97
517.72	53989.14
517.89	53537.41
518.06	53895.52
518.24	53668.48
518.41	53586.57
518.58	54440.86
518.75	54064.03
518.93	54190.42
519.10	54113.19
519.27	54337.88
519.45	54145.95
519.62	54223.19
519.79	54323.83
519.96	54925.35
520.14	54798.96
520.31	54649.17
520.48	54803.64
520.65	54749.81
520.83	54848.11
521.00	54773.22
521.17	54864.50
521.34	54857.48
521.52	55147.70
521.69	55229.62
521.86	55313.88
522.03	55423.89
522.20	55580.70
522.38	55554.96
522.55	55327.92
522.72	55325.58
522.89	55709.43
523.07	55819.44
523.24	55735.18
523.41	55810.07
523.58	55791.35
523.75	56229.03
523.92	55873.27
524.10	55915.40
524.27	56170.52
524.44	56294.56
524.61	56547.34
524.78	56535.64
524.96	56545.00
525.13	56523.94
525.30	56313.29
525.47	56619.90
525.64	56615.22
525.81	56846.93
525.98	56910.13
526.16	56692.46
526.33	56535.64
526.50	56912.47
526.67	56643.30
526.84	56875.02
527.01	56802.46
527.18	56933.53
527.36	57141.84
527.53	57099.71
527.70	57687.18
527.87	57553.77
528.04	57083.33
528.21	57401.64
528.38	57233.12
528.55	57499.94
528.72	57408.66
528.89	57284.61
529.07	57324.40
529.24	57446.11
529.41	57663.78
529.58	57588.88
529.75	57382.91
529.92	57726.97
530.09	57628.67
530.26	57855.70
530.43	57893.15
530.60	57832.30
530.77	57846.34
530.94	58206.78
531.11	58045.29
531.28	57780.81
531.46	57783.15
531.63	57900.17
531.80	58199.76
531.97	58309.77
532.14	58433.81
532.31	58204.44
532.48	58328.49
532.65	58482.97
532.82	58145.93
532.99	58471.26
533.16	58319.13
533.33	58913.62
533.50	58801.28
533.67	58721.70
533.84	58574.25
534.01	58611.70
534.18	58361.26
534.35	59011.93
534.52	58667.87
534.69	59028.31
534.86	58894.90
535.03	59004.91
535.20	58962.78
535.37	59189.81
535.54	58990.86
535.71	58981.50
535.88	59100.87
536.05	59178.10
536.22	59468.33
536.38	59334.92
536.55	59440.24
536.72	59339.60
536.89	59114.91
537.06	59248.32
537.23	59454.29
537.40	59157.04
537.57	59257.68
537.74	59323.22
537.91	59695.36
538.08	59571.32
538.25	59592.38
538.42	59877.93
538.59	59716.43
538.75	59444.93
538.92	59770.26
539.09	59887.29
539.26	59898.99
539.43	59807.71
539.60	60107.30
539.77	59728.13
539.94	60013.68
540.11	59987.93
540.28	60177.51
540.44	60009.00
540.61	60046.44
540.78	60027.72
540.95	60221.98
541.12	60111.98
541.29	60381.14
541.46	60210.28
541.62	60179.85
541.79	60360.08
541.96	59920.05
542.13	60158.79
542.30	60418.59
542.47	60678.39
542.63	60612.85
542.80	60856.27
542.97	60683.07
543.14	60692.43
543.31	60746.26
543.48	60505.19
543.64	60917.12
543.81	60830.52
543.98	60898.40
544.15	61085.64
544.32	61207.35
544.48	61244.80
544.65	61113.73
544.82	61031.81
544.99	60804.78
545.16	60956.91
545.32	60980.32
545.49	61282.25
545.66	61687.16
545.83	61733.97
546.00	61673.12
546.16	61497.58
546.33	61102.03
546.50	61001.38
546.67	61326.72
546.83	60985.00
547.00	61134.79
547.17	61350.12
547.34	61275.22
547.50	61701.20
547.67	61544.39
547.84	61506.94
548.00	61544.39
548.17	61677.80
548.34	61729.29
548.51	61703.54
548.67	61813.55
548.84	61682.48
549.01	61673.12
549.18	61799.50
549.34	61574.81
549.51	61560.77
549.68	61670.78
549.84	61740.99
550.01	61659.07
550.18	61778.44
550.34	61752.69
550.51	61790.14
550.68	62005.47
550.84	61769.08
551.01	61738.65
551.18	61825.25
551.34	61841.63
551.51	61811.21
551.68	61998.45
551.84	62078.03
552.01	62042.92
552.18	62260.59
552.34	61956.32
552.51	62288.68
552.68	62024.20
552.84	61843.98
553.01	62267.61
553.18	62010.15
553.34	62045.26
553.51	62202.08
553.67	62370.60
553.84	62571.88
554.01	62473.58
554.17	62443.15
554.34	62356.55
554.51	62527.41
554.67	62326.13
554.84	62424.43
555.00	62405.70
555.17	62396.34
555.33	62513.37
555.50	62511.03
555.67	62513.37
555.83	62436.13
556.00	62578.90
556.16	62742.74
556.33	62424.43
556.50	62489.96
556.66	62419.75
556.83	62562.52
556.99	62892.54
557.16	62810.62
557.32	62831.68
557.49	62890.19
557.65	62602.31
557.82	62709.97
557.98	62747.42
558.15	62815.30
558.32	62993.18
558.48	62913.60
558.65	63032.97
558.81	62967.43
558.98	62974.45
559.14	63061.05
559.31	62667.84
559.47	62894.88
559.64	63164.04
559.80	62827.00
559.97	63128.93
560.13	62951.05
560.30	62850.41
560.46	63028.29
560.63	63042.33
560.79	63037.65
560.96	63077.44
561.12	63098.50
561.29	62862.11
561.45	63114.89
561.61	63140.63
561.78	63229.57
561.94	63421.50
562.11	63194.46
562.27	63323.19
562.44	63264.68
562.60	63056.37
562.77	63217.87
562.93	63224.89
563.10	63419.16
563.26	63070.42
563.42	63568.95
563.59	63234.25
563.75	63398.09
563.92	63557.25
564.08	63220.21
564.24	63302.13
564.41	63267.02
564.57	63447.24
564.74	63465.97
564.90	63421.50
565.07	63517.46
565.23	63468.31
565.39	63421.50
565.56	63564.27
565.72	63461.29
565.88	63494.05
566.05	63444.90
566.21	63257.66
566.38	63496.39
566.54	63365.32
566.70	63653.21
566.87	63800.66
567.03	63657.89
567.19	63758.53
567.36	63756.19
567.52	63480.01
567.68	63468.31
567.85	63608.74
568.01	63648.53
568.17	63678.96
568.34	63681.30
568.50	63683.64
568.66	63894.28
568.83	63812.37
568.99	63763.21
569.15	63753.85
569.32	63501.07
569.48	63517.46
569.64	63618.10
569.81	63728.11
569.97	63671.93
570.13	63859.18
570.30	63744.49
570.46	63894.28
570.62	63730.45
570.78	63707.04
570.95	63653.21
571.11	63805.34
571.27	63498.73
571.43	63622.78
571.60	63786.62
571.76	63653.21
571.92	63962.16
572.09	63905.99
572.25	63945.78
572.41	63936.41
572.57	63934.07
572.74	63927.05
572.90	63653.21
573.06	63964.50
573.22	63964.50
573.38	63990.25
573.55	64023.01
573.71	64184.51
573.87	64083.87
574.03	63969.18
574.20	63999.61
574.36	63646.19
574.52	63828.75
574.68	63994.93
574.84	63983.22
575.01	63999.61
575.17	64053.44
575.33	63990.25
575.49	64048.76
575.65	64189.19
575.82	64072.17
575.98	63913.01
576.14	63980.88
576.30	64027.70
576.46	63948.12
576.62	63952.80
576.79	63927.05
576.95	63990.25
577.11	64048.76
577.27	64191.53
577.43	64161.11
577.59	63964.50
577.75	64044.08
577.92	63992.59
578.08	63849.81
578.24	64046.42
578.40	64149.40
578.56	63950.46
578.72	64212.60
578.88	64322.60
579.04	64313.24
579.21	64207.92
579.37	64137.70
579.53	64198.55
579.69	64083.87
579.85	64107.27
580.01	64168.13
580.17	63941.10
580.33	64137.70
580.49	64275.79
580.65	64367.07
580.82	64404.52
580.98	64221.96
581.14	64189.19
581.30	64233.66
581.46	64032.38
581.62	63913.01
581.78	63922.37
581.94	64203.24
582.10	64175.15
582.26	64186.85
582.42	64341.33
582.58	64392.82
582.74	64299.20
582.90	64294.52
583.06	64292.18
583.22	64264.09
583.38	64371.75
583.54	64268.77
583.70	64051.10
583.86	64219.62
584.02	64147.06
584.18	64392.82
584.34	64367.07
584.50	64465.38
584.66	64037.06
584.82	64034.72
584.98	64217.28
585.14	64268.77
585.30	64149.40
585.46	64193.87
585.62	64245.36
585.78	64231.32
585.94	64175.15
586.10	64437.29
586.26	64448.99
586.42	64516.87
586.58	64474.74
586.74	64296.86
586.90	64320.26
587.06	64259.41
587.22	64301.54
587.38	64346.01
587.54	64521.55
587.70	64619.85
587.86	64481.76
588.02	64420.90
588.18	64753.26
588.34	64390.48
588.49	64491.12
588.65	64364.73
588.81	64448.99
588.97	64601.13
589.13	64367.07
589.29	64385.80
589.45	64594.10
589.61	64540.27
589.77	64708.79
589.93	64561.34
590.08	64629.21
590.24	64549.63
590.40	64577.72
590.56	64645.60
590.72	64324.94
590.88	64446.65
591.04	64425.59
591.20	64605.81
591.35	64746.24
591.51	64905.40
591.67	64802.41
591.83	64940.50
591.99	64720.49
592.15	64570.70
592.31	64563.68
592.46	64638.57
592.62	64509.85
592.78	64615.17
592.94	64786.03
593.10	64722.83
593.26	64774.33
593.41	64795.39
593.57	64741.56
593.73	64577.72
593.89	64919.44
594.05	64863.27
594.20	64624.53
594.36	64769.64
594.52	64762.62
594.68	64509.85
594.84	64591.76
594.99	64671.34
595.15	64615.17
595.31	64942.84
595.47	64769.64
595.62	64896.03
595.78	64919.44
595.94	64874.97
596.10	64800.07
596.25	64540.27
596.41	64589.42
596.57	64573.04
596.73	64764.96
596.88	64725.17
597.04	64818.80
597.20	64996.68
597.36	64982.63
597.51	64884.33
597.67	64874.97
597.83	64734.54
597.99	64788.37
598.14	64921.78
598.30	64926.46
598.46	64753.26
598.61	64891.35
598.77	64818.80
598.93	64879.65
599.09	64898.37
599.24	64984.97
599.40	64940.50
599.56	64860.93
599.71	64811.77
599.87	65120.73
600.03	64835.18
600.18	64949.87
600.34	64786.03
600.50	64807.09
600.65	64917.10
600.81	65106.68
600.97	65179.24
601.12	65069.23
601.28	64987.31
601.44	64889.01
601.59	64877.31
601.75	64783.69
601.91	64975.61
602.06	64671.34
602.22	64907.74
602.37	64753.26
602.53	64928.80
602.69	64755.60
602.84	64839.86
603.00	65001.36
603.16	64917.10
603.31	65031.78
603.47	64980.29
603.62	64860.93
603.78	64818.80
603.94	64828.16
604.09	64865.61
604.25	64821.14
604.40	64643.26
604.56	64973.27
604.71	65059.87
604.87	65059.87
605.03	65010.72
605.18	65062.21
605.34	64879.65
605.49	64844.54
605.65	64952.21
605.80	64779.01
605.96	64771.99
606.12	64802.41
606.27	65013.06
606.43	64839.86
606.58	64947.53
606.74	64933.48
606.89	65008.38
607.05	65010.72
607.20	64933.48
607.36	64896.03
607.51	64762.62
607.67	64570.70
607.82	64809.43
607.98	64807.09
608.13	64701.77
608.29	64867.95
608.44	64755.60
608.60	64790.71
608.75	64683.04
608.91	64924.12
609.06	64795.39
609.22	64863.27
609.37	64694.75
609.53	64872.63
609.68	64573.04
609.84	64774.33
609.99	64835.18
610.15	64881.99
610.30	64844.54
610.46	64954.55
610.61	64942.84
610.76	65113.70
610.92	65158.17
611.07	65193.28
611.23	64996.68
611.38	65167.54
611.54	64984.97
611.69	64764.96
611.84	64788.37
612.00	64598.79
612.15	64589.42
612.31	64748.58
612.46	64666.66
612.62	65031.78
612.77	64793.05
612.92	64781.35
613.08	64624.53
613.23	64762.62
613.39	64633.89
613.54	64570.70
613.69	64427.93
613.85	64477.08
614.00	64615.17
614.15	64771.99
614.31	64722.83
614.46	64685.39
614.62	64591.76
614.77	64769.64
614.92	64711.13
615.08	64683.04
615.23	64853.90
615.38	64575.38
615.54	64395.16
615.69	64596.45
615.84	64430.27
616.00	64505.16
616.15	64324.94
616.30	64654.96
616.46	64427.93
616.61	64413.88
616.76	64704.11
616.92	64467.72
617.07	64549.63
617.22	64371.75
617.37	64219.62
617.53	64364.73
617.68	64238.34
617.83	64355.37
617.99	64341.33
618.14	64397.50
618.29	64493.46
618.45	64507.50
618.60	64512.19
618.75	64315.58
618.90	64470.06
619.06	64549.63
619.21	64320.26
619.36	64172.81
619.51	64165.79
619.67	64221.96
619.82	64165.79
619.97	64444.31
620.12	64086.21
620.28	64177.49
620.43	64280.47
620.58	64465.38
620.73	64315.58
620.89	64102.59
621.04	64369.41
621.19	64329.62
621.34	64299.20
621.49	64001.95
621.65	64051.10
621.80	64030.04
621.95	63973.86
622.10	64027.70
622.25	63955.14
622.41	63969.18
622.56	64051.10
622.71	64331.96
622.86	64053.44
623.01	64046.42
623.16	64252.39
623.32	64072.17
623.47	63997.27
623.62	64081.53
623.77	63971.52
623.92	63927.05
624.07	63749.17
624.23	63955.14
624.38	64072.17
624.53	64018.33
624.68	63943.44
624.83	63765.56
624.98	63870.88
625.13	63723.43
625.29	63887.26
625.44	63936.41
625.59	63777.26
625.74	63669.59
625.89	63653.21
626.04	63465.97
626.19	63522.14
626.34	63625.12
626.49	63693.00
626.65	63702.36
626.80	63905.99
626.95	63793.64
627.10	63597.04
627.25	63707.04
627.40	63716.40
627.55	63575.97
627.70	63426.18
627.85	63398.09
628.00	63451.92
628.15	63508.10
628.30	63325.53
628.45	63568.95
628.60	63428.52
628.76	63414.47
628.91	63540.86
629.06	63540.86
629.21	63571.29
629.36	63465.97
629.51	63510.44
629.66	63597.04
629.81	63224.89
629.96	63224.89
630.11	63117.23
630.26	63405.11
630.41	63290.43
630.56	63386.39
630.71	63538.52
630.86	63374.69
631.01	63243.62
631.16	63487.03
631.31	63402.77
631.46	63360.64
631.61	63377.03
631.76	63157.02
631.91	63229.57
632.06	63135.95
632.21	63152.33
632.36	63131.27
632.51	63096.16
632.66	63072.76
632.81	63189.78
632.96	63208.51
633.10	63014.24
633.25	63210.85
633.40	63171.06
633.55	63241.28
633.70	63032.97
633.85	63037.65
634.00	62906.58
634.15	62929.98
634.30	63138.29
634.45	62831.68
634.60	63117.23
634.75	63164.04
634.90	63098.50
635.05	63138.29
635.19	63063.39
635.34	63316.17
635.49	63063.39
635.64	62887.85
635.79	62834.02
635.94	62848.06
636.09	62890.19
636.24	62834.02
636.39	62656.14
636.53	62602.31
636.68	62639.76
636.83	62855.09
636.98	62887.85
637.13	62611.67
637.28	62780.19
637.43	62908.92
637.57	62635.08
637.72	62670.18
637.87	62794.23
638.02	62501.67
638.17	62656.14
638.32	62702.95
638.46	62536.77
638.61	62606.99
638.76	62548.48
638.91	62532.09
639.06	62532.09
639.20	62480.60
639.35	62555.50
639.50	62489.96
639.65	62555.50
639.80	62759.12
639.94	62705.29
640.09	62529.75
640.24	62539.11
640.39	62342.51
640.54	62309.74
640.68	62333.15
640.83	62131.86
640.98	62258.25
641.13	62239.53
641.27	62251.23
641.42	62349.53
641.57	62440.81
641.72	62555.50
641.86	62342.51
642.01	62220.80
642.16	62377.62
642.31	62246.55
642.45	62234.84
642.60	62078.03
642.75	62134.20
642.90	62145.90
643.04	61949.30
643.19	61902.49
643.34	62143.56
643.48	62248.89
643.63	62028.88
643.78	62092.07
643.93	62253.57
644.07	62298.04
644.22	62103.77
644.37	62056.96
644.51	62115.48
644.66	62269.95
644.81	61874.40
644.95	62012.49
645.10	61799.50
645.25	62021.86
645.39	62134.20
645.54	61677.80
645.69	62120.16
645.83	62024.20
645.98	61996.11
646.13	62202.08
646.27	62230.16
646.42	62094.41
646.57	62012.49
646.71	61921.21
646.86	61797.16
647.00	61504.60
647.15	61846.32
647.30	61748.01
647.44	61851.00
647.59	61724.61
647.74	61677.80
647.88	61769.08
648.03	61736.31
648.17	61740.99
648.32	61813.55
648.47	62040.58
648.61	61855.68
648.76	62042.92
648.90	61769.08
649.05	61797.16
649.20	61811.21
649.34	61668.44
649.49	61647.37
649.63	61705.88
649.78	61738.65
649.92	61729.29
650.07	61743.33
650.21	61836.95
650.36	61935.26
650.51	61394.59
650.65	61537.36
650.80	61855.68
650.94	61539.71
651.09	61392.25
651.23	61441.40
651.38	61446.08
651.52	61333.74
651.67	61488.21
651.81	61492.89
651.96	61200.33
652.10	61256.50
652.25	61312.67
652.39	61506.94
652.54	61354.80
652.68	61418.00
652.83	61347.78
652.97	61469.49
653.12	61364.17
653.26	61469.49
653.41	61375.87
653.55	61205.01
653.70	61038.83
653.84	61076.28
653.99	61069.26
654.13	60952.23
654.27	61045.85
654.42	61083.30
654.56	61006.06
654.71	61059.90
654.85	61200.33
655.00	61228.41
655.14	61087.98
655.29	60879.67
655.43	61293.95
655.57	61066.92
655.72	60865.63
655.86	61076.28
656.01	60711.16
656.15	60678.39
656.30	60694.77
656.44	60711.16
656.58	60935.85
656.73	60910.10
656.87	60832.86
657.01	61052.87
657.16	60947.55
657.30	60912.44
657.45	60949.89
657.59	61034.15
657.73	60844.57
657.88	60790.73
658.02	60687.75
658.16	60554.34
658.31	60591.79
658.45	60467.74
658.60	60570.72
658.74	60383.48
658.88	60566.04
659.03	60463.06
659.17	60397.52
659.31	60376.46
659.46	60760.31
659.60	60673.71
659.74	60903.08
659.89	60697.11
660.03	60654.98
660.17	60575.40
660.32	60451.36
660.46	60404.55
660.60	60362.42
660.74	60289.86
660.89	60259.43
661.03	60111.98
661.17	60114.32
661.32	60207.94
661.46	59990.27
661.60	60062.83
661.74	60238.37
661.89	59994.95
662.03	60126.02
662.17	59987.93
662.31	59765.58
662.46	59842.82
662.60	60037.08
662.74	59788.98
662.88	59702.38
663.03	59554.93
663.17	59636.85
663.31	59580.68
663.45	59655.57
663.60	59788.98
663.74	59494.08
663.88	59517.48
664.02	59653.23
664.17	59824.09
664.31	59707.07
664.45	59730.47
664.59	59552.59
664.73	59421.52
664.88	59552.59
665.02	59353.65
665.16	59381.73
665.30	59201.51
665.44	59262.36
665.59	59119.59
665.73	58988.52
665.87	59105.55
666.01	59105.55
666.15	59168.74
666.29	59213.21
666.44	59206.19
666.58	58798.94
666.72	58920.65
666.86	59119.59
667.00	58838.73
667.14	58983.84
667.28	59119.59
667.43	58857.45
667.57	58777.87
667.71	58499.35
667.85	58377.64
667.99	58459.56
668.13	58522.76
668.27	58639.78
668.41	58651.48
668.56	58422.11
668.70	58656.17
668.84	58770.85
668.98	58529.78
669.12	58288.70
669.26	58599.99
669.40	58475.94
669.54	58330.83
669.68	58049.97
669.82	57949.32
669.96	58241.89
670.10	58047.63
670.25	58145.93
670.39	57895.49
670.53	57907.19
670.67	57888.47
670.81	58040.60
670.95	57989.11
671.09	58045.29
671.23	58094.44
671.37	57963.37
671.51	58183.38
671.65	58019.54
671.79	57853.36
671.93	57675.48
672.07	57595.90
672.21	57623.99
672.35	57385.25
672.49	57462.49
672.63	57352.49
672.77	57279.93
672.91	57378.23
673.05	57403.98
673.19	57516.32
673.33	57495.26
673.47	57258.87
673.61	57560.79
673.75	56978.00
673.89	56945.23
674.03	57097.37
674.17	56903.10
674.31	56807.14
674.45	56533.30
674.59	56470.11
674.73	56722.88
674.87	56589.47
675.01	56435.00
675.15	56409.25
675.29	56631.60
675.43	56580.11
675.56	56467.76
675.70	56329.67
675.84	56552.02
675.98	55515.17
676.12	56439.68
676.26	56367.12
676.40	56245.41
676.54	56102.64
676.68	55877.95
676.82	55421.55
676.96	55580.70
677.10	55353.67
677.23	55515.17
677.37	55505.80
677.51	55391.12
677.65	55304.52
677.79	55330.26
677.93	55442.61
678.07	55344.31
678.21	54801.30
678.34	55168.77
678.48	54782.58
678.62	54841.09
678.76	54740.45
678.90	54478.31
679.04	54548.53
679.18	54506.40
679.31	54429.16
679.45	54108.50
679.59	54099.14
679.73	53975.09
679.87	54012.54
680.00	53909.56
680.14	53654.44
680.28	53939.99
680.42	53654.44
680.56	53677.85
680.70	53724.66
680.83	53965.73
680.97	53670.82
681.11	53783.17
681.25	53464.86
681.39	53584.22
681.52	53102.07
681.66	52996.75
681.80	52870.36
681.94	52662.05
682.07	52882.06
682.21	52568.43
682.35	52900.79
682.49	52701.84
682.62	52432.68
682.76	51997.34
682.90	52275.87
683.04	52353.10
683.17	52502.90
683.31	52156.50
683.45	52020.75
683.59	52369.49
683.72	52210.33
683.86	51686.05
684.00	51625.20
684.13	51913.08
684.27	51318.59
684.41	51285.82
684.55	50843.46
684.68	50525.14
684.82	50670.26
684.96	50600.04
685.09	50660.90
685.23	50525.14
685.37	50782.60
685.50	50845.80
685.64	50492.38
685.78	50607.06
685.91	50557.91
686.05	50454.93
686.19	50040.65
686.32	50108.53
686.46	49230.83
686.60	49181.68
686.73	49104.44
686.87	49408.71
687.01	49202.74
687.14	48999.12
687.28	48975.71
687.42	48751.02
687.55	48900.81
687.69	48971.03
687.82	48624.63
687.96	48378.87
688.10	48182.27
688.23	47896.72
688.37	48327.38
688.50	47908.43
688.64	47854.59
688.78	48034.81
688.91	47318.61
689.05	47966.94
689.18	47089.24
689.32	46808.37
689.46	47253.08
689.59	46829.44
689.73	46752.20
689.86	46415.16
690.00	46838.80
690.13	46579.00
690.27	46237.28
690.41	46080.47
690.54	45783.22
690.68	45937.69
690.81	46155.36
690.95	45694.28
691.08	45485.97
691.22	45457.88
691.35	45457.88
691.49	45523.42
691.62	45052.97
691.76	44811.90
691.89	44076.97
692.03	44011.43
692.16	44186.97
692.30	44266.55
692.43	44404.64
692.57	44109.74
692.70	43976.33
692.84	43421.62
692.97	43337.36
693.11	43569.07
693.24	43150.12
693.38	43267.14
693.51	43147.78
693.65	43180.54
693.78	42572.00
693.92	42972.24
694.05	42864.57
694.19	42293.48
694.32	42106.24
694.45	41832.39
694.59	41691.96
694.72	41596.00
694.86	41486.00
694.99	41181.73
695.13	41003.85
695.26	41029.59
695.39	40526.38
695.53	40350.84
695.66	40713.62
695.80	40388.28
695.93	40697.24
696.07	40254.87
696.20	40533.40
696.33	40285.30
696.47	40437.44
696.60	39878.05
696.73	40055.93
696.87	39800.81
697.00	39061.20
697.14	39042.48
697.27	38646.93
697.40	38464.36
697.54	38401.17
697.67	38604.80
697.80	38216.27
697.94	38415.21
698.07	38274.78
698.21	38064.13
698.34	38157.75
698.47	38218.61
698.61	37558.58
698.74	37668.58
698.87	37221.54
699.01	37441.55
699.14	37198.13
699.27	36797.90
699.40	36285.33
699.54	35728.28
699.67	35761.05
699.80	36027.87
699.94	35803.17
700.07	35782.11
700.20	35494.22
700.34	35292.94
700.47	35175.91
700.60	34925.47
700.73	35243.79
700.87	35091.65
701.00	35351.45
701.13	34862.28
701.26	34408.22
701.40	34469.07
701.53	34380.13
701.66	34256.08
701.79	33886.28
701.93	34204.59
702.06	33523.49
702.19	33897.98
702.32	33633.50
702.46	33088.15
702.59	32807.29
702.72	33249.65
702.85	33235.61
702.99	33315.19
703.12	32868.14
703.25	32318.12
703.38	32175.34
703.51	32194.07
703.65	32191.73
703.78	32236.20
703.91	31786.82
704.04	32114.49
704.17	31665.11
704.31	31885.12
704.44	31388.92
704.57	31299.98
704.70	30780.39
704.83	30892.73
704.96	30635.27
705.10	30302.92
705.23	30689.10
>>>>>End Processed Spectral Data<<<<<
