SpectraSuite Data File
++++++++++++++++++++++++++++++++++++
Date: Fri Oct 04 11:39:13 GMT-05:00 2013
User: price-jones
Dark Spectrum Present: No
Reference Spectrum Present: No
Number of Sampled Component Spectra: 1
Spectrometers: USB2+H05261
Integration Time (usec): 100000 (USB2+H05261)
Spectra Averaged: 1 (USB2+H05261)
Boxcar Smoothing: 0 (USB2+H05261)
Correct for Electrical Dark: No (USB2+H05261)
Strobe/Lamp Enabled: No (USB2+H05261)
Correct for Detector Non-linearity: No (USB2+H05261)
Correct for Stray Light: No (USB2+H05261)
Number of Pixels in Processed Spectrum: 2048
>>>>>Begin Processed Spectral Data<<<<<
365.73	100.64
365.92	100.64
366.12	100.64
366.32	0.00
366.52	0.00
366.72	7.02
366.91	0.00
367.11	0.00
367.31	0.00
367.51	0.00
367.70	0.00
367.90	0.00
368.10	0.00
368.30	0.00
368.49	0.00
368.69	0.00
368.89	0.00
369.09	0.00
369.28	0.00
369.48	0.00
369.68	4.68
369.87	4.68
370.07	7.02
370.27	0.00
370.47	56.17
370.66	117.03
370.86	175.54
371.06	212.99
371.25	222.35
371.45	189.58
371.65	224.69
371.84	147.45
372.04	168.52
372.24	189.58
372.44	224.69
372.63	177.88
372.83	280.86
373.03	271.50
373.22	201.29
373.42	236.39
373.62	201.29
373.81	248.10
374.01	229.37
374.21	234.05
374.40	250.44
374.60	273.84
374.79	327.68
374.99	341.72
375.19	210.65
375.38	285.55
375.58	194.26
375.78	266.82
375.97	208.31
376.17	318.31
376.37	355.76
376.56	330.02
376.76	259.80
376.95	212.99
377.15	264.48
377.35	287.89
377.54	245.76
377.74	227.03
377.93	262.14
378.13	280.86
378.33	294.91
378.52	205.97
378.72	271.50
378.91	187.24
379.11	269.16
379.31	259.80
379.50	297.25
379.70	313.63
379.89	243.42
380.09	248.10
380.28	271.50
380.48	224.69
380.68	241.08
380.87	243.42
381.07	325.33
381.26	344.06
381.46	285.55
381.65	229.37
381.85	278.52
382.04	250.44
382.24	330.02
382.43	306.61
382.63	269.16
382.83	344.06
383.02	362.78
383.22	374.49
383.41	212.99
383.61	273.84
383.80	367.46
384.00	259.80
384.19	327.68
384.39	248.10
384.58	278.52
384.78	318.31
384.97	320.65
385.17	313.63
385.36	241.08
385.56	280.86
385.75	327.68
385.95	325.33
386.14	365.12
386.34	320.65
386.53	285.55
386.72	299.59
386.92	365.12
387.11	358.10
387.31	325.33
387.50	365.12
387.70	332.36
387.89	238.73
388.09	273.84
388.28	297.25
388.48	311.29
388.67	365.12
388.86	367.46
389.06	332.36
389.25	351.08
389.45	365.12
389.64	304.27
389.84	362.78
390.03	351.08
390.22	301.93
390.42	353.42
390.61	285.55
390.81	339.38
391.00	416.62
391.19	397.89
391.39	411.93
391.58	477.47
391.78	374.49
391.97	334.70
392.16	355.76
392.36	433.00
392.55	477.47
392.75	376.83
392.94	358.10
393.13	470.45
393.33	383.85
393.52	367.46
393.71	449.38
393.91	400.23
394.10	458.74
394.29	430.66
394.49	374.49
394.68	381.51
394.88	486.83
395.07	437.68
395.26	496.19
395.46	458.74
395.65	475.13
395.84	489.17
396.04	503.22
396.23	514.92
396.42	491.51
396.62	514.92
396.81	447.04
397.00	461.09
397.19	545.34
397.39	503.22
397.58	496.19
397.77	456.40
397.97	456.40
398.16	528.96
398.35	580.45
398.55	440.02
398.74	437.68
398.93	571.09
399.12	493.85
399.32	505.56
399.51	533.64
399.70	507.90
399.90	557.05
400.09	557.05
400.28	573.43
400.47	641.31
400.67	505.56
400.86	585.13
401.05	599.18
401.24	498.53
401.44	645.99
401.63	601.52
401.82	538.32
402.01	543.00
402.21	641.31
402.40	650.67
402.59	533.64
402.78	587.47
402.97	624.92
403.17	683.44
403.36	580.45
403.55	585.13
403.74	629.60
403.93	678.76
404.13	660.03
404.32	653.01
404.51	660.03
404.70	678.76
404.89	599.18
405.09	699.82
405.28	706.84
405.47	667.05
405.66	678.76
405.85	671.73
406.05	671.73
406.24	660.03
406.43	697.48
406.62	674.07
406.81	732.59
407.00	690.46
407.20	709.18
407.39	709.18
407.58	760.67
407.77	739.61
407.96	751.31
408.15	840.25
408.34	746.63
408.54	760.67
408.73	751.31
408.92	786.42
409.11	851.96
409.30	795.78
409.49	835.57
409.68	788.76
409.87	861.32
410.07	807.48
410.26	880.04
410.45	770.04
410.64	866.00
410.83	870.68
411.02	870.68
411.21	905.79
411.40	931.53
411.59	898.77
411.78	887.06
411.98	929.19
412.17	933.87
412.36	947.92
412.55	870.68
412.74	992.39
412.93	1006.43
413.12	964.30
413.31	1013.45
413.50	933.87
413.69	1064.94
413.88	999.41
414.07	983.02
414.26	1139.84
414.45	1015.79
414.64	1081.33
414.83	1071.97
415.02	1093.03
415.22	1041.54
415.41	1181.97
415.60	1151.54
415.79	1111.75
415.98	1076.65
416.17	1130.48
416.36	1097.71
416.55	1093.03
416.74	1167.93
416.93	1214.74
417.12	1196.01
417.31	1177.29
417.50	1235.80
417.69	1210.06
417.88	1186.65
418.07	1256.87
418.26	1259.21
418.45	1320.06
418.64	1280.27
418.83	1240.48
419.02	1240.48
419.21	1284.95
419.39	1373.89
419.58	1306.02
419.77	1219.42
419.96	1322.40
420.15	1348.15
420.34	1329.42
420.53	1327.08
420.72	1369.21
420.91	1322.40
421.10	1479.22
421.29	1336.45
421.48	1385.60
421.67	1439.43
421.86	1397.30
422.05	1252.19
422.24	1451.13
422.43	1357.51
422.61	1416.02
422.80	1341.13
422.99	1413.68
423.18	1437.09
423.37	1380.92
423.56	1338.79
423.75	1406.66
423.94	1357.51
424.13	1441.77
424.32	1376.24
424.50	1411.34
424.69	1607.95
424.88	1542.41
425.07	1366.87
425.26	1439.43
425.45	1451.13
425.64	1497.94
425.83	1490.92
426.01	1530.71
426.20	1488.58
426.39	1434.75
426.58	1493.26
426.77	1469.86
426.96	1502.62
427.15	1533.05
427.33	1570.50
427.52	1535.39
427.71	1547.09
427.90	1490.92
428.09	1521.35
428.28	1453.47
428.46	1558.80
428.65	1666.46
428.84	1586.88
429.03	1577.52
429.22	1643.06
429.40	1533.05
429.59	1565.82
429.78	1500.28
429.97	1614.97
430.16	1668.80
430.34	1626.67
430.53	1643.06
430.72	1612.63
430.91	1540.07
431.10	1551.78
431.28	1666.46
431.47	1643.06
431.66	1636.03
431.85	1675.82
432.03	1685.19
432.22	1774.13
432.41	1717.95
432.60	1722.63
432.79	1682.85
432.97	1675.82
433.16	1654.76
433.35	1706.25
433.54	1640.72
433.72	1834.98
433.91	1832.64
434.10	1820.94
434.28	1820.94
434.47	1790.51
434.66	1818.60
434.85	1811.57
435.03	1811.57
435.22	2043.29
435.41	2062.01
435.59	2157.97
435.78	2153.29
435.97	1844.34
436.16	1907.54
436.34	1853.70
436.53	1902.86
436.72	1961.37
436.90	1886.47
437.09	1933.28
437.28	1891.15
437.46	1795.19
437.65	2010.52
437.84	1994.14
438.02	1802.21
438.21	1877.11
438.40	1933.28
438.58	2019.88
438.77	2033.93
438.96	2050.31
439.14	1961.37
439.33	1975.41
439.52	2092.44
439.70	1940.30
439.89	2094.78
440.08	2188.40
440.26	2029.24
440.45	2162.66
440.63	2113.50
440.82	2136.91
441.01	2136.91
441.19	2165.00
441.38	2211.81
441.57	2211.81
441.75	2195.42
441.94	2218.83
442.12	2277.34
442.31	2232.87
442.50	2284.36
442.68	2179.04
442.87	2328.83
443.05	2359.26
443.24	2436.50
443.43	2216.49
443.61	2298.41
443.80	2490.33
443.98	2277.34
444.17	2289.04
444.35	2408.41
444.54	2420.11
444.73	2368.62
444.91	2424.80
445.10	2340.54
445.28	2385.01
445.47	2293.72
445.65	2389.69
445.84	2300.75
446.02	2424.80
446.21	2366.28
446.39	2459.90
446.58	2387.35
446.77	2427.14
446.95	2380.32
447.14	2370.96
447.32	2413.09
447.51	2450.54
447.69	2553.52
447.88	2476.29
448.06	2345.22
448.25	2462.24
448.43	2401.39
448.62	2485.65
448.80	2392.03
448.99	2427.14
449.17	2466.92
449.36	2392.03
449.54	2637.78
449.73	2520.76
449.91	2546.50
450.10	2513.74
450.28	2553.52
450.46	2633.10
450.65	2691.62
450.83	2590.97
451.02	2581.61
451.20	2670.55
451.39	2553.52
451.57	2551.18
451.76	2675.23
451.94	2586.29
452.13	2703.32
452.31	2586.29
452.49	2698.64
452.68	2602.68
452.86	2761.83
453.05	2719.70
453.23	2796.94
453.42	2583.95
453.60	2637.78
453.78	2560.55
453.97	2565.23
454.15	2696.30
454.34	2651.83
454.52	2693.96
454.70	2829.71
454.89	2738.43
455.07	2771.19
455.26	2876.52
455.44	2839.07
455.62	2785.24
455.81	2712.68
455.99	2745.45
456.17	2974.82
456.36	2712.68
456.54	2909.29
456.73	2874.18
456.91	3042.70
457.09	2902.26
457.28	3033.33
457.46	2850.77
457.64	2984.18
457.83	2993.55
458.01	2864.82
458.19	3038.02
458.38	2946.73
458.56	3119.93
458.74	2916.31
458.93	3007.59
459.11	3070.78
459.29	3136.32
459.48	3089.51
459.66	3173.77
459.84	3098.87
460.03	3023.97
460.21	3091.85
460.39	2967.80
460.57	3019.29
460.76	3143.34
460.94	3131.64
461.12	3213.56
461.31	3005.25
461.49	3070.78
461.67	3094.19
461.85	3211.22
462.04	3155.04
462.22	3309.52
462.40	3229.94
462.59	3180.79
462.77	3251.00
462.95	3251.00
463.13	3192.49
463.32	3309.52
463.50	3330.58
463.68	3215.90
463.86	3150.36
464.05	3279.09
464.23	3300.16
464.41	3337.60
464.59	3243.98
464.78	3318.88
464.96	3206.53
465.14	3302.50
465.32	3269.73
465.50	3424.20
465.69	3363.35
465.87	3389.10
466.05	3424.20
466.23	3262.71
466.41	3543.57
466.60	3405.48
466.78	3382.07
466.96	3375.05
467.14	3346.97
467.32	3389.10
467.51	3592.72
467.69	3393.78
467.87	3426.54
468.05	3513.14
468.23	3517.83
468.41	3379.73
468.60	3466.33
468.78	3531.87
468.96	3487.40
469.14	3627.83
469.32	3478.04
469.50	3506.12
469.69	3618.47
469.87	3543.57
470.05	3637.19
470.23	3576.34
470.41	3602.08
470.59	3632.51
470.77	3625.49
470.95	3599.74
471.14	3634.85
471.32	3709.75
471.50	3904.01
471.68	3770.60
471.86	3941.46
472.04	3817.41
472.22	3805.71
472.40	3847.84
472.58	3840.82
472.77	3934.44
472.95	3896.99
473.13	4156.79
473.31	3908.69
473.49	3922.74
473.67	3971.89
473.85	3906.35
474.03	4159.13
474.21	4023.38
474.39	4044.45
474.57	4084.23
474.75	4093.60
474.93	4114.66
475.12	4107.64
475.30	4194.24
475.48	4138.07
475.66	4173.18
475.84	4135.73
476.02	4276.16
476.20	4154.45
476.38	4400.21
476.56	4299.56
476.74	4372.12
476.92	4245.73
477.10	4250.41
477.28	4341.69
477.46	4484.47
477.64	4531.28
477.82	4517.23
478.00	4655.33
478.18	4575.75
478.36	4751.29
478.54	4772.35
478.72	4762.99
478.90	4552.34
479.08	4828.53
479.26	4873.00
479.44	4816.82
479.62	4873.00
479.80	4807.46
479.98	5004.07
480.16	4844.91
480.34	5046.20
480.52	5020.45
480.70	5088.32
480.88	5111.73
481.06	5114.07
481.24	5060.24
481.41	5142.16
481.59	5146.84
481.77	5195.99
481.95	5322.38
482.13	5357.49
482.31	5277.91
482.49	5521.32
482.67	5502.60
482.85	5406.64
483.03	5673.46
483.21	5692.18
483.39	5706.23
483.57	5497.92
483.74	5685.16
483.92	5619.63
484.10	5750.70
484.28	5863.04
484.46	6010.50
484.64	5937.94
484.82	5809.21
485.00	6052.63
485.18	6200.08
485.35	6176.67
485.53	6059.65
485.71	6108.80
485.89	6197.74
486.07	6408.39
486.25	6370.94
486.43	6436.47
486.61	6452.86
486.78	6534.78
486.96	6520.73
487.14	6530.09
487.32	6569.88
487.50	6710.32
487.68	6628.40
487.85	6733.72
488.03	6773.51
488.21	7045.01
488.39	6979.48
488.57	6881.18
488.75	7066.08
488.92	7267.36
489.10	7026.29
489.28	7110.55
489.46	7119.91
489.64	7470.99
489.81	7396.09
489.99	7557.59
490.17	7419.50
490.35	7609.08
490.53	7609.08
490.70	7552.91
490.88	7496.74
491.06	7616.10
491.24	7524.82
491.41	7644.19
491.59	7691.00
491.77	7758.88
491.95	7779.94
492.13	7796.32
492.30	7936.76
492.48	8166.13
492.66	7950.80
492.84	7903.99
493.01	8037.40
493.19	8224.64
493.37	8327.63
493.54	8339.33
493.72	8362.73
493.90	8369.76
494.08	8294.86
494.25	8542.96
494.43	8547.64
494.61	8877.65
494.79	8557.00
494.96	8697.43
495.14	8650.62
495.32	8723.18
495.49	8800.41
495.67	8786.37
495.85	8938.51
496.02	9097.66
496.20	9088.30
496.38	9025.11
496.55	9062.55
496.73	9397.25
496.91	9144.47
497.09	9249.80
497.26	9212.35
497.44	9200.65
497.62	9242.78
497.79	9397.25
497.97	9425.34
498.14	9507.26
498.32	9502.58
498.50	9563.43
498.67	9706.20
498.85	9767.06
499.03	9799.82
499.20	9596.20
499.38	9748.33
499.56	9778.76
499.73	9832.59
499.91	9856.00
500.08	9872.38
500.26	10040.90
500.44	9736.63
500.61	10064.30
500.79	9785.78
500.97	10057.28
501.14	10216.44
501.32	10289.00
501.49	10118.14
501.67	9954.30
501.84	10303.04
502.02	10312.40
502.20	10202.40
502.37	10478.58
502.55	10509.01
502.72	10516.03
502.90	10497.30
503.07	10202.40
503.25	10661.14
503.43	10289.00
503.60	10487.94
503.78	10466.88
503.95	10548.79
504.13	10766.46
504.30	10857.75
504.48	10705.61
504.65	10682.20
504.83	10869.45
505.01	10895.19
505.18	11166.70
505.36	11068.39
505.53	10773.49
505.71	10977.11
505.88	11112.86
506.06	11063.71
506.23	11105.84
506.41	11169.04
506.58	11094.14
506.76	11166.70
506.93	11159.67
507.11	11136.27
507.28	11269.68
507.46	11309.47
507.63	11293.08
507.81	11433.52
507.98	11220.53
508.16	11328.19
508.33	11438.20
508.50	11510.75
508.68	11517.78
508.85	11590.33
509.03	11721.40
509.20	11571.61
509.38	11920.35
509.55	11836.09
509.73	11768.21
509.90	11852.47
510.08	11658.21
510.25	11899.28
510.42	12013.97
510.60	11831.41
510.77	12123.98
510.95	11969.50
511.12	11824.39
511.30	12032.69
511.47	12367.39
511.64	12374.41
511.82	12386.12
511.99	12166.10
512.17	12123.98
512.34	12236.32
512.51	12285.47
512.69	12470.37
512.86	12273.77
513.04	12435.27
513.21	12659.96
513.38	12624.85
513.56	12573.36
513.73	12395.48
513.90	12547.61
514.08	12681.02
514.25	12519.53
514.43	12793.37
514.60	12751.24
514.77	12650.60
514.95	12954.87
515.12	12734.85
515.29	12674.00
515.47	12610.81
515.64	12896.35
515.81	13132.75
515.99	12926.78
516.16	12989.97
516.33	12989.97
516.51	12805.07
516.68	12994.65
516.85	12933.80
517.03	13144.45
517.20	13036.78
517.37	13121.04
517.54	13352.76
517.72	13474.46
517.89	13317.65
518.06	13399.57
518.24	13137.43
518.41	13488.51
518.58	13343.39
518.75	13437.02
518.93	13561.06
519.10	13401.91
519.27	13551.70
519.45	13537.66
519.62	13586.81
519.79	13394.89
519.96	13380.84
520.14	13558.72
520.31	13324.67
520.48	13652.34
520.65	13874.70
520.83	13865.33
521.00	13802.14
521.17	13575.11
521.34	14012.79
521.52	13909.80
521.69	13745.97
521.86	14352.16
522.03	13947.25
522.20	14050.24
522.38	14169.60
522.55	13935.55
522.72	13895.76
522.89	13956.61
523.07	14443.45
523.24	13975.34
523.41	14291.31
523.58	14335.78
523.75	14118.11
523.92	13846.61
524.10	14270.25
524.27	14092.37
524.44	14544.09
524.61	14295.99
524.78	14335.78
524.96	14513.66
525.13	14518.34
525.30	14274.93
525.47	14494.94
525.64	14527.71
525.81	14614.30
525.98	14497.28
526.16	14415.36
526.33	14480.89
526.50	14719.63
526.67	14541.75
526.84	14780.48
527.01	14492.60
527.18	14740.69
527.36	14824.95
527.53	14710.27
527.70	14883.47
527.87	14981.77
528.04	14511.32
528.21	14869.42
528.38	14768.78
528.55	15166.67
528.72	14834.32
528.89	15096.46
529.07	14789.85
529.24	15061.35
529.41	15136.24
529.58	15101.14
529.75	14909.21
529.92	15353.91
530.09	15044.96
530.26	14801.55
530.43	15309.44
530.60	15164.33
530.77	14817.93
530.94	15379.66
531.11	15243.91
531.28	14885.81
531.46	15269.66
531.63	15372.64
531.80	15433.49
531.97	15374.98
532.14	15440.51
532.31	15433.49
532.48	15360.94
532.65	15484.98
532.82	15428.81
532.99	15496.69
533.16	15480.30
533.33	15587.97
533.50	15719.04
533.67	15662.86
533.84	15578.61
534.01	15473.28
534.18	15517.75
534.35	15630.10
534.52	15831.38
534.69	16011.60
534.86	15894.58
535.03	15704.99
535.20	15630.10
535.37	16102.89
535.54	15800.96
535.71	15859.47
535.88	15807.98
536.05	16049.05
536.22	16290.13
536.38	15939.05
536.55	16135.65
536.72	16259.70
536.89	15920.32
537.06	15609.03
537.23	15929.69
537.40	16058.42
537.57	16245.66
537.74	15943.73
537.91	16493.76
538.08	15850.11
538.25	16285.45
538.42	16100.55
538.59	16182.46
538.75	16283.11
538.92	16128.63
539.09	16369.71
539.26	16255.02
539.43	16133.31
539.60	16592.06
539.77	16409.50
539.94	16517.16
540.11	16681.00
540.28	16430.56
540.44	16690.36
540.61	16615.46
540.78	16683.34
540.95	16348.64
541.12	16552.27
541.29	16751.21
541.46	16870.58
541.62	17043.78
541.79	17132.72
541.96	16655.25
542.13	16791.00
542.30	16851.86
542.47	16961.86
542.63	17132.72
542.80	17165.49
542.97	17336.35
543.14	17259.11
543.31	17383.16
543.48	17003.99
543.64	17310.60
543.81	17511.89
543.98	17270.81
544.15	17324.65
544.32	17235.70
544.48	17207.62
544.65	17139.74
544.82	17500.19
544.99	17060.16
545.16	17495.50
545.32	17273.15
545.49	17427.63
545.66	17996.38
545.83	18195.32
546.00	18204.69
546.16	17654.66
546.33	17472.10
546.50	17380.82
546.67	17200.60
546.83	17298.90
547.00	17348.05
547.17	17385.50
547.34	17085.91
547.50	17128.04
547.67	17565.72
547.84	17631.26
548.00	17432.31
548.17	17500.19
548.34	17465.08
548.51	17528.27
548.67	17720.20
548.84	17493.16
549.01	17652.32
549.18	17422.95
549.34	17479.12
549.51	17376.14
549.68	17530.61
549.84	17989.36
550.01	17568.06
550.18	17586.79
550.34	17661.68
550.51	17788.07
550.68	17987.02
550.84	17310.60
551.01	17411.25
551.18	17769.35
551.34	17642.96
551.51	17645.30
551.68	17806.80
551.84	17764.67
552.01	17231.02
552.18	17790.41
552.34	17474.44
552.51	17757.64
552.68	17603.17
552.84	17834.88
553.01	17902.76
553.18	17874.67
553.34	17935.53
553.51	17708.49
553.67	17778.71
553.84	18008.08
554.01	18368.52
554.17	17921.48
554.34	17968.29
554.51	17841.90
554.67	17879.35
554.84	17752.96
555.00	17823.18
555.17	17649.98
555.33	17846.58
555.50	18036.17
555.67	17797.43
555.83	17752.96
556.00	17991.70
556.16	18005.74
556.33	17820.84
556.50	18068.94
556.66	17975.31
556.83	17926.16
556.99	17792.75
557.16	18281.92
557.32	18080.64
557.49	18368.52
557.65	17893.40
557.82	18101.70
557.98	17657.00
558.15	18045.53
558.32	18270.22
558.48	18356.82
558.65	18469.17
558.81	18136.81
558.98	18183.62
559.14	18249.16
559.31	18108.72
559.47	18122.77
559.64	18036.17
559.80	18537.04
559.97	18160.22
560.13	18490.23
560.30	18087.66
560.46	18291.29
560.63	17977.65
560.79	18136.81
560.96	18225.75
561.12	18176.60
561.29	18242.14
561.45	18256.18
561.61	18436.40
561.78	18504.28
561.94	18317.03
562.11	18277.24
562.27	18153.20
562.44	18108.72
562.60	18438.74
562.77	18040.85
562.93	18415.34
563.10	18431.72
563.26	18192.98
563.42	18497.25
563.59	18443.42
563.75	18387.25
563.92	18462.15
564.08	18546.40
564.24	18333.42
564.41	18497.25
564.57	18485.55
564.74	17942.55
564.90	18288.95
565.07	18258.52
565.23	18672.79
565.39	18618.96
565.56	18459.81
565.72	18590.88
565.88	18401.29
566.05	18359.16
566.21	18307.67
566.38	18239.79
566.54	18476.19
566.70	18586.19
566.87	18429.38
567.03	18555.77
567.19	18759.39
567.36	18431.72
567.52	18008.08
567.68	18558.11
567.85	18267.88
568.01	18286.61
568.17	18380.23
568.34	18366.18
568.50	18792.16
568.66	18518.32
568.83	18621.30
568.99	18384.91
569.15	18288.95
569.32	18347.46
569.48	18604.92
569.64	18562.79
569.81	18611.94
569.97	18621.30
570.13	19005.15
570.30	18434.06
570.46	18780.46
570.62	18633.00
570.78	18630.66
570.95	18684.50
571.11	18485.55
571.27	18553.43
571.43	18361.50
571.60	18771.10
571.76	18637.69
571.92	18878.76
572.09	18726.63
572.25	18789.82
572.41	18953.66
572.57	18789.82
572.74	18904.51
572.90	18546.40
573.06	18668.11
573.22	18675.13
573.38	18417.68
573.55	18726.63
573.71	18988.77
573.87	18757.05
574.03	18621.30
574.20	18579.17
574.36	18750.03
574.52	18752.37
574.68	18604.92
574.84	18946.64
575.01	18707.90
575.17	18822.59
575.33	18841.31
575.49	18726.63
575.65	19016.85
575.82	18780.46
575.98	18916.21
576.14	18511.30
576.30	18644.71
576.46	18838.97
576.62	18705.56
576.79	18714.92
576.95	18771.10
577.11	18724.29
577.27	18799.18
577.43	19051.96
577.59	18586.19
577.75	18754.71
577.92	18621.30
578.08	18588.53
578.24	18801.52
578.40	19061.32
578.56	18888.12
578.72	18871.74
578.88	19026.21
579.04	19044.94
579.21	19070.68
579.37	18714.92
579.53	18663.43
579.69	18682.16
579.85	18743.01
580.01	18775.78
580.17	18363.84
580.33	18845.99
580.49	19014.51
580.65	19110.47
580.82	19056.64
580.98	18869.40
581.14	19049.62
581.30	18698.54
581.46	18881.10
581.62	18766.42
581.78	18817.91
581.94	18778.12
582.10	18932.59
582.26	18906.85
582.42	19049.62
582.58	19190.05
582.74	18986.43
582.90	19026.21
583.06	19117.50
583.22	19073.03
583.38	18871.74
583.54	18771.10
583.70	18827.27
583.86	19225.16
584.02	18941.96
584.18	18843.65
584.34	19164.31
584.50	19215.80
584.66	18909.19
584.82	18838.97
584.98	19199.41
585.14	19002.81
585.30	18845.99
585.46	19080.05
585.62	18764.07
585.78	18799.18
585.94	18588.53
586.10	18750.03
586.26	18934.93
586.42	18930.25
586.58	19051.96
586.74	18841.31
586.90	18743.01
587.06	18906.85
587.22	19164.31
587.38	18963.02
587.54	19157.28
587.70	19070.68
587.86	18860.04
588.02	19145.58
588.18	19047.28
588.34	18803.86
588.49	19180.69
588.65	18946.64
588.81	18757.05
588.97	19047.28
589.13	18970.04
589.29	19051.96
589.45	19021.53
589.61	19005.15
589.77	18951.32
589.93	19131.54
590.08	19393.68
590.24	19126.86
590.40	19419.42
590.56	19276.65
590.72	19016.85
590.88	19108.13
591.04	19374.95
591.20	19117.50
591.35	19447.51
591.51	19140.90
591.67	19103.45
591.83	19480.28
591.99	19124.52
592.15	19335.17
592.31	19398.36
592.46	19058.98
592.62	19307.08
592.78	19124.52
592.94	18984.09
593.10	19087.07
593.26	19339.85
593.41	19414.74
593.57	19407.72
593.73	19234.52
593.89	19346.87
594.05	19136.22
594.20	19016.85
594.36	19096.43
594.52	19119.84
594.68	18789.82
594.84	18918.55
594.99	19115.16
595.15	19178.35
595.31	19234.52
595.47	19264.95
595.62	19206.44
595.78	18958.34
595.94	19110.47
596.10	19501.34
596.25	19002.81
596.41	18998.13
596.57	19002.81
596.73	19225.16
596.88	19171.33
597.04	18855.36
597.20	19166.65
597.36	19192.39
597.51	19351.55
597.67	18920.89
597.83	18927.91
597.99	19311.76
598.14	18974.72
598.30	18934.93
598.46	19190.05
598.61	19201.76
598.77	18939.62
598.93	19253.25
599.09	18806.20
599.24	19335.17
599.40	19094.09
599.56	19541.13
599.71	18885.78
599.87	19337.51
600.03	19199.41
600.18	18972.38
600.34	19108.13
600.50	19133.88
600.65	18848.33
600.81	18963.02
600.97	19255.59
601.12	19372.61
601.28	18951.32
601.44	19295.38
601.59	19056.64
601.75	19143.24
601.91	19374.95
602.06	18939.62
602.22	19264.95
602.37	18902.17
602.53	19012.17
602.69	19192.39
602.84	18867.06
603.00	19199.41
603.16	19164.31
603.31	19021.53
603.47	19220.48
603.62	19559.86
603.78	19391.34
603.94	19110.47
604.09	19068.34
604.25	19049.62
604.40	18871.74
604.56	19328.14
604.71	19164.31
604.87	18970.04
605.03	19075.37
605.18	19403.04
605.34	19030.90
605.49	19070.68
605.65	19199.41
605.80	18600.24
605.96	19168.99
606.12	19016.85
606.27	18944.30
606.43	19241.54
606.58	19391.34
606.74	19152.60
606.89	18958.34
607.05	19199.41
607.20	19164.31
607.36	18857.70
607.51	18780.46
607.67	18967.70
607.82	18899.83
607.98	18993.45
608.13	19236.86
608.29	18972.38
608.44	18944.30
608.60	18930.25
608.75	18991.11
608.91	19206.44
609.06	19070.68
609.22	19150.26
609.37	18958.34
609.53	18941.96
609.68	19110.47
609.84	19028.56
609.99	19222.82
610.15	19077.71
610.30	19087.07
610.46	19389.00
610.61	19274.31
610.76	19227.50
610.92	19903.92
611.07	19742.42
611.23	19672.20
611.38	19899.23
611.54	19487.30
611.69	19339.85
611.84	19316.44
612.00	19541.13
612.15	19009.83
612.31	19208.78
612.46	18981.74
612.62	19094.09
612.77	18970.04
612.92	18897.49
613.08	18761.73
613.23	19098.77
613.39	18939.62
613.54	18911.53
613.69	19005.15
613.85	18703.22
614.00	19197.07
614.15	19168.99
614.31	18923.23
614.46	18773.44
614.62	18796.84
614.77	18597.90
614.92	18878.76
615.08	18759.39
615.23	18658.75
615.38	18445.76
615.54	18286.61
615.69	18621.30
615.84	18377.89
616.00	18827.27
616.15	18616.62
616.30	18548.75
616.46	18909.19
616.61	18443.42
616.76	18595.56
616.92	18455.12
617.07	18607.26
617.22	18504.28
617.37	18300.65
617.53	18621.30
617.68	18490.23
617.83	18469.17
617.99	18689.18
618.14	18537.04
618.29	18794.50
618.45	18462.15
618.60	18726.63
618.75	18616.62
618.90	18635.35
619.06	18223.41
619.21	18394.27
619.36	18422.36
619.51	18277.24
619.67	18471.51
619.82	18319.37
619.97	18478.53
620.12	18380.23
620.28	18132.13
620.43	18532.36
620.58	18434.06
620.73	18256.18
620.89	18111.07
621.04	18541.72
621.19	18405.97
621.34	18302.99
621.49	17860.63
621.65	18174.26
621.80	18265.54
621.95	18527.68
622.10	18305.33
622.25	18576.83
622.41	18150.85
622.56	18239.79
622.71	18312.35
622.86	18417.68
623.01	18281.92
623.16	18141.49
623.32	17980.00
623.47	18059.57
623.62	18162.56
623.77	18029.15
623.92	18246.82
624.07	17980.00
624.23	18253.84
624.38	18155.54
624.53	17977.65
624.68	18092.34
624.83	18230.43
624.98	18267.88
625.13	18003.40
625.29	18134.47
625.44	18251.50
625.59	18057.23
625.74	18043.19
625.89	17771.69
626.04	17799.77
626.19	17888.71
626.34	18115.75
626.49	17867.65
626.65	17610.19
626.80	18288.95
626.95	17741.26
627.10	17781.05
627.25	17858.29
627.40	17980.00
627.55	17813.82
627.70	17958.93
627.85	18075.96
628.00	17778.71
628.15	17652.32
628.30	18071.28
628.45	17844.24
628.60	17729.56
628.76	17633.60
628.91	17687.43
629.06	17572.74
629.21	17469.76
629.36	17694.45
629.51	17603.17
629.66	17694.45
629.81	17813.82
629.96	17544.66
630.11	17586.79
630.26	17914.46
630.41	17799.77
630.56	17610.19
630.71	17607.85
630.86	17872.33
631.01	17469.76
631.16	17664.02
631.31	17436.99
631.46	17422.95
631.61	17406.56
631.76	17532.95
631.91	17371.46
632.06	17495.50
632.21	17458.06
632.36	17561.04
632.51	17612.53
632.66	17568.06
632.81	17216.98
632.96	17617.21
633.10	17418.27
633.25	17511.89
633.40	17668.70
633.55	17453.37
633.70	17575.08
633.85	17296.56
634.00	17336.35
634.15	17399.54
634.30	17282.52
634.45	17488.48
634.60	17341.03
634.75	17373.80
634.90	17678.07
635.05	17453.37
635.19	17305.92
635.34	17619.55
635.49	17263.79
635.64	17128.04
635.79	17310.60
635.94	17102.29
636.09	17268.47
636.24	17013.35
636.39	17212.30
636.53	17362.09
636.68	17163.15
636.83	17209.96
636.98	17106.98
637.13	17268.47
637.28	17490.82
637.43	17055.48
637.57	17383.16
637.72	17387.84
637.87	17378.48
638.02	17081.23
638.17	17083.57
638.32	17177.19
638.46	16807.39
638.61	17128.04
638.76	16982.93
638.91	17144.42
639.06	17064.85
639.20	17034.42
639.35	16837.81
639.50	16830.79
639.65	16863.56
639.80	16999.31
639.94	16865.90
640.09	16851.86
640.24	16879.94
640.39	16870.58
640.54	16615.46
640.68	16615.46
640.83	16912.71
640.98	16542.91
641.13	16505.46
641.27	16666.95
641.42	16800.37
641.57	16716.11
641.72	16716.11
641.86	16685.68
642.01	16643.55
642.16	16641.21
642.31	16294.81
642.45	16753.55
642.60	16439.92
642.75	16514.82
642.90	16643.55
643.04	16556.95
643.19	16500.78
643.34	16561.63
643.48	16751.21
643.63	16538.23
643.78	16383.75
643.93	16421.20
644.07	16606.10
644.22	16570.99
644.37	16386.09
644.51	16397.79
644.66	16365.03
644.81	16423.54
644.95	16570.99
645.10	16491.41
645.25	16596.74
645.39	16435.24
645.54	16460.99
645.69	16578.01
645.83	16470.35
645.98	16821.43
646.13	16468.01
646.27	16521.84
646.42	16336.94
646.57	16388.43
646.71	16500.78
646.86	16479.71
647.00	16559.29
647.15	16367.37
647.30	16395.45
647.44	16147.36
647.59	16255.02
647.74	16058.42
647.88	16264.38
648.03	16341.62
648.17	16568.65
648.32	16203.53
648.47	16313.53
648.61	16184.80
648.76	16320.56
648.90	16236.30
649.05	16236.30
649.20	16135.65
649.34	16294.81
649.49	16119.27
649.63	16170.76
649.78	16196.51
649.92	16397.79
650.07	16489.07
650.21	16109.91
650.36	16350.98
650.51	16060.76
650.65	16255.02
650.80	16294.81
650.94	16276.09
651.09	15978.84
651.23	16044.37
651.38	16114.59
651.52	16091.18
651.67	16011.60
651.81	15955.43
651.96	15756.49
652.10	16081.82
652.25	16140.33
652.39	15950.75
652.54	15824.36
652.68	15983.52
652.83	15868.83
652.97	16056.08
653.12	16030.33
653.26	15939.05
653.41	15838.41
653.55	15939.05
653.70	15756.49
653.84	15707.34
653.99	15744.78
654.13	16056.08
654.27	16095.86
654.42	15719.04
654.56	16196.51
654.71	15995.22
654.85	15843.09
655.00	16042.03
655.14	16053.73
655.29	15707.34
655.43	15932.03
655.57	15798.62
655.72	15770.53
655.86	15747.12
656.01	15616.05
656.15	15634.78
656.30	15646.48
656.44	15660.52
656.58	15618.39
656.73	15873.51
656.87	15847.77
657.01	16020.97
657.16	15817.34
657.30	15941.39
657.45	15859.47
657.59	15552.86
657.73	15543.50
657.88	15777.55
658.02	15520.09
658.16	15314.13
658.31	15826.70
658.45	15435.83
658.60	15552.86
658.74	15735.42
658.88	15288.38
659.03	15527.11
659.17	15307.10
659.31	15492.01
659.46	15510.73
659.60	15602.01
659.74	15559.88
659.89	15459.24
660.03	15351.57
660.17	15550.52
660.32	15428.81
660.46	15445.20
660.60	15253.27
660.74	15440.51
660.89	15339.87
661.03	15070.71
661.17	15283.70
661.32	15435.83
661.46	15246.25
661.60	14956.02
661.74	15164.33
661.89	15225.18
662.03	15400.72
662.17	14831.97
662.31	14909.21
662.46	15077.73
662.60	15087.09
662.74	15066.03
662.88	15250.93
663.03	14876.44
663.17	14909.21
663.31	14780.48
663.45	14831.97
663.60	15101.14
663.74	14815.59
663.88	14750.06
664.02	14663.46
664.17	14848.36
664.31	14956.02
664.45	14616.65
664.59	14998.15
664.73	14820.27
664.88	14813.25
665.02	14712.61
665.16	14513.66
665.30	14665.80
665.44	14600.26
665.59	14427.06
665.73	14466.85
665.87	14696.22
666.01	14375.57
666.15	14941.98
666.29	14490.26
666.44	14562.81
666.58	14499.62
666.72	14368.55
666.86	14759.42
667.00	14525.36
667.14	14476.21
667.28	14375.57
667.43	14384.93
667.57	14389.61
667.71	14431.74
667.85	14097.05
667.99	14511.32
668.13	14366.21
668.27	14218.75
668.41	14443.45
668.56	14253.86
668.70	14223.44
668.84	14111.09
668.98	14141.52
669.12	14277.27
669.26	14490.26
669.40	14244.50
669.54	14202.37
669.68	13813.84
669.82	14061.94
669.96	14146.20
670.10	14136.84
670.25	14127.47
670.39	14019.81
670.53	14106.41
670.67	13839.59
670.81	13809.16
670.95	13837.25
671.09	13898.10
671.23	13872.36
671.37	13881.72
671.51	14052.58
671.65	13633.62
671.79	13891.08
671.93	13528.30
672.07	13647.66
672.21	13818.52
672.35	13420.63
672.49	13277.86
672.63	13310.63
672.77	13537.66
672.91	13488.51
673.05	13586.81
673.19	13540.00
673.33	13825.54
673.47	13420.63
673.61	13537.66
673.75	13315.31
673.89	13254.45
674.03	13092.96
674.17	13163.17
674.31	13043.81
674.45	13153.81
674.59	13160.83
674.73	12886.99
674.87	13015.72
675.01	13032.10
675.15	13036.78
675.29	13062.53
675.43	12926.78
675.56	13212.32
675.70	12919.76
675.84	12959.55
675.98	12566.34
676.12	13107.00
676.26	12982.95
676.40	13053.17
676.54	12908.05
676.68	12772.30
676.82	12348.67
676.96	12699.75
677.10	12844.86
677.23	12533.57
677.37	12444.63
677.51	12451.65
677.65	12491.44
677.79	12386.12
677.93	12456.33
678.07	12074.82
678.21	12505.48
678.34	12327.60
678.48	12343.99
678.62	12334.62
678.76	12297.17
678.90	12112.27
679.04	12121.63
679.18	12032.69
679.31	11922.69
679.45	11744.81
679.59	11707.36
679.73	11740.13
679.87	11740.13
680.00	11580.97
680.14	11627.78
680.28	11868.86
680.42	11761.19
680.56	11758.85
680.70	11728.42
680.83	11723.74
680.97	11559.91
681.11	11723.74
681.25	11777.58
681.39	11726.08
681.52	11459.26
681.66	11602.04
681.80	11370.32
681.94	11241.59
682.07	11297.77
682.21	11501.39
682.35	11297.77
682.49	11372.66
682.62	11473.31
682.76	11026.26
682.90	11204.14
683.04	11272.02
683.17	11363.30
683.31	11159.67
683.45	11094.14
683.59	10897.53
683.72	11166.70
683.86	10911.58
684.00	11023.92
684.13	10855.40
684.27	10656.46
684.41	10703.27
684.55	10686.89
684.68	10562.84
684.82	10609.65
684.96	10368.57
685.09	10494.96
685.23	10452.83
685.37	10441.13
685.50	10471.56
685.64	10403.68
685.78	10710.29
685.91	10457.51
686.05	10448.15
686.19	10478.58
686.32	10490.28
686.46	10178.99
686.60	10284.31
686.73	10141.54
686.87	10038.56
687.01	9947.28
687.14	10113.45
687.28	10090.05
687.42	10197.71
687.55	10139.20
687.69	9958.98
687.82	10073.67
687.96	10033.88
688.10	9879.40
688.23	9848.97
688.37	9998.77
688.50	9785.78
688.64	9987.07
688.78	9736.63
688.91	9673.43
689.05	9685.14
689.18	9886.42
689.32	9437.04
689.46	9570.45
689.59	9605.56
689.73	9724.93
689.86	9614.92
690.00	9476.83
690.13	9310.65
690.27	9493.21
690.41	9404.27
690.54	9427.68
690.68	9343.42
690.81	9479.17
690.95	9451.08
691.08	9385.55
691.22	9310.65
691.35	9390.23
691.49	9121.07
691.62	9008.72
691.76	8847.22
691.89	8802.75
692.03	8936.17
692.16	8767.65
692.30	8725.52
692.43	8863.61
692.57	8929.14
692.70	8823.82
692.84	8990.00
692.97	8718.50
693.11	8650.62
693.24	8704.45
693.38	8542.96
693.51	8493.80
693.65	8615.51
693.78	8823.82
693.92	8608.49
694.05	8580.40
694.19	8332.31
694.32	8336.99
694.45	8390.82
694.59	8194.22
694.72	8397.84
694.86	8526.57
694.99	8070.17
695.13	8264.43
695.26	8245.71
695.39	8248.05
695.53	8187.19
695.66	8088.89
695.80	8145.06
695.93	8170.81
696.07	8273.79
696.20	8011.65
696.33	7903.99
696.47	7765.90
696.60	7918.03
696.73	7866.54
696.87	7644.19
697.00	7665.25
697.14	7653.55
697.27	7485.03
697.40	7740.15
697.54	7578.65
697.67	7492.05
697.80	7583.34
697.94	7655.89
698.07	7335.24
698.21	7597.38
698.34	7403.11
698.47	7468.65
698.61	7438.22
698.74	7428.86
698.87	7382.05
699.01	7360.98
699.14	7440.56
699.27	7375.03
699.40	7318.86
699.54	7215.87
699.67	7218.21
699.80	7042.67
699.94	7211.19
700.07	7225.23
700.20	6986.50
700.34	6942.03
700.47	6899.90
700.60	6930.33
700.73	7101.19
700.87	7082.46
701.00	6832.02
701.13	6986.50
701.26	6906.92
701.40	6757.13
701.53	6874.15
701.66	6892.88
701.79	6691.59
701.93	6665.85
702.06	6703.29
702.19	6490.31
702.32	6682.23
702.46	6565.20
702.59	6553.50
702.72	6551.16
702.85	6483.28
702.99	6249.23
703.12	6345.19
703.25	6326.47
703.38	6384.98
703.51	6448.18
703.65	6312.42
703.78	6368.60
703.91	6345.19
704.04	6256.25
704.17	6457.54
704.31	6270.30
704.44	6155.61
704.57	6286.68
704.70	6019.86
704.83	5912.19
704.96	5977.73
705.10	6033.90
705.23	6015.18
>>>>>End Processed Spectral Data<<<<<
