SpectraSuite Data File
++++++++++++++++++++++++++++++++++++
Date: Fri Oct 04 11:39:30 GMT-05:00 2013
User: price-jones
Dark Spectrum Present: No
Reference Spectrum Present: No
Number of Sampled Component Spectra: 1
Spectrometers: USB2+H05261
Integration Time (usec): 100000 (USB2+H05261)
Spectra Averaged: 1 (USB2+H05261)
Boxcar Smoothing: 0 (USB2+H05261)
Correct for Electrical Dark: No (USB2+H05261)
Strobe/Lamp Enabled: No (USB2+H05261)
Correct for Detector Non-linearity: No (USB2+H05261)
Correct for Stray Light: No (USB2+H05261)
Number of Pixels in Processed Spectrum: 2048
>>>>>Begin Processed Spectral Data<<<<<
365.73	0.00
365.92	0.00
366.12	0.00
366.32	0.00
366.52	0.00
366.72	0.00
366.91	0.00
367.11	0.00
367.31	0.00
367.51	0.00
367.70	0.00
367.90	0.00
368.10	0.00
368.30	0.00
368.49	0.00
368.69	0.00
368.89	0.00
369.09	0.00
369.28	0.00
369.48	0.00
369.68	4.68
369.87	0.00
370.07	23.41
370.27	18.72
370.47	56.17
370.66	93.62
370.86	140.43
371.06	131.07
371.25	170.86
371.45	72.56
371.65	152.13
371.84	65.54
372.04	102.98
372.24	88.94
372.44	220.01
372.63	166.18
372.83	152.13
373.03	100.64
373.22	220.01
373.42	173.20
373.62	205.97
373.81	147.45
374.01	175.54
374.21	133.41
374.40	215.33
374.60	229.37
374.79	196.60
374.99	201.29
375.19	210.65
375.38	117.03
375.58	220.01
375.78	245.76
375.97	161.50
376.17	266.82
376.37	196.60
376.56	215.33
376.76	210.65
376.95	166.18
377.15	205.97
377.35	184.90
377.54	222.35
377.74	234.05
377.93	145.11
378.13	191.92
378.33	255.12
378.52	229.37
378.72	245.76
378.91	205.97
379.11	156.82
379.31	184.90
379.50	180.22
379.70	215.33
379.89	217.67
380.09	184.90
380.28	117.03
380.48	194.26
380.68	93.62
380.87	138.09
381.07	210.65
381.26	238.73
381.46	210.65
381.65	222.35
381.85	212.99
382.04	229.37
382.24	140.43
382.43	149.79
382.63	189.58
382.83	271.50
383.02	217.67
383.22	259.80
383.41	117.03
383.61	236.39
383.80	250.44
384.00	212.99
384.19	168.52
384.39	224.69
384.58	215.33
384.78	248.10
384.97	175.54
385.17	243.42
385.36	294.91
385.56	299.59
385.75	252.78
385.95	156.82
386.14	285.55
386.34	189.58
386.53	177.88
386.72	177.88
386.92	243.42
387.11	245.76
387.31	189.58
387.50	205.97
387.70	227.03
387.89	292.57
388.09	264.48
388.28	273.84
388.48	203.63
388.67	266.82
388.86	217.67
389.06	196.60
389.25	196.60
389.45	194.26
389.64	276.18
389.84	273.84
390.03	278.52
390.22	266.82
390.42	252.78
390.61	264.48
390.81	255.12
391.00	259.80
391.19	266.82
391.39	220.01
391.58	304.27
391.78	297.25
391.97	243.42
392.16	292.57
392.36	313.63
392.55	322.99
392.75	276.18
392.94	287.89
393.13	290.23
393.33	252.78
393.52	299.59
393.71	276.18
393.91	306.61
394.10	266.82
394.29	287.89
394.49	271.50
394.68	294.91
394.88	367.46
395.07	395.55
395.26	360.44
395.46	308.95
395.65	379.17
395.84	322.99
396.04	369.80
396.23	376.83
396.42	313.63
396.62	477.47
396.81	374.49
397.00	308.95
397.19	353.42
397.39	325.33
397.58	344.06
397.77	379.17
397.97	337.04
398.16	358.10
398.35	372.15
398.55	327.68
398.74	449.38
398.93	411.93
399.12	449.38
399.32	365.12
399.51	411.93
399.70	477.47
399.90	428.32
400.09	440.02
400.28	440.02
400.47	442.36
400.67	486.83
400.86	430.66
401.05	456.40
401.24	479.81
401.44	456.40
401.63	458.74
401.82	484.49
402.01	440.02
402.21	449.38
402.40	505.56
402.59	433.00
402.78	559.39
402.97	554.71
403.17	517.26
403.36	615.56
403.55	528.96
403.74	573.43
403.93	566.41
404.13	594.50
404.32	636.63
404.51	624.92
404.70	657.69
404.89	601.52
405.09	615.56
405.28	674.07
405.47	660.03
405.66	751.31
405.85	634.29
406.05	653.01
406.24	676.41
406.43	650.67
406.62	730.25
406.81	716.20
407.00	774.72
407.20	739.61
407.39	685.78
407.58	631.94
407.77	755.99
407.96	800.46
408.15	840.25
408.34	802.80
408.54	788.76
408.73	713.86
408.92	781.74
409.11	748.97
409.30	830.89
409.49	861.32
409.68	826.21
409.87	858.98
410.07	875.36
410.26	840.25
410.45	835.57
410.64	880.04
410.83	807.48
411.02	868.34
411.21	1006.43
411.40	940.90
411.59	976.00
411.78	1053.24
411.98	950.26
412.17	1011.11
412.36	1095.37
412.55	1062.60
412.74	1048.56
412.93	1090.69
413.12	1032.18
413.31	1128.14
413.50	1174.95
413.69	1034.52
413.88	1158.57
414.07	1186.65
414.26	1170.27
414.45	1160.91
414.64	1282.61
414.83	1261.55
415.02	1270.91
415.22	1273.25
415.41	1252.19
415.60	1249.85
415.79	1240.48
415.98	1336.45
416.17	1413.68
416.36	1366.87
416.55	1306.02
416.74	1376.24
416.93	1387.94
417.12	1371.55
417.31	1373.89
417.50	1432.41
417.69	1474.54
417.88	1409.00
418.07	1437.09
418.26	1411.34
418.45	1516.67
418.64	1593.90
418.83	1598.59
419.02	1575.18
419.21	1591.56
419.39	1535.39
419.58	1584.54
419.77	1584.54
419.96	1675.82
420.15	1661.78
420.34	1703.91
420.53	1650.08
420.72	1596.25
420.91	1682.85
421.10	1708.59
421.29	1724.97
421.48	1673.48
421.67	1717.95
421.86	1645.40
422.05	1776.47
422.24	1748.38
422.43	1629.01
422.61	1762.42
422.80	1652.42
422.99	1809.23
423.18	1781.15
423.37	1788.17
423.56	1785.83
423.75	1739.02
423.94	1795.19
424.13	1568.16
424.32	1703.91
424.50	1797.53
424.69	1865.41
424.88	1802.21
425.07	1806.89
425.26	1710.93
425.45	1757.74
425.64	1839.66
425.83	1755.40
426.01	1832.64
426.20	1853.70
426.39	1804.55
426.58	1813.92
426.77	1870.09
426.96	1867.75
427.15	1865.41
427.33	1781.15
427.52	1898.17
427.71	1872.43
427.90	1947.33
428.09	1968.39
428.28	1905.20
428.46	1919.24
428.65	1944.99
428.84	2010.52
429.03	2043.29
429.22	1888.81
429.40	1949.67
429.59	1893.49
429.78	2057.33
429.97	1919.24
430.16	1886.47
430.34	2054.99
430.53	2045.63
430.72	2040.95
430.91	2008.18
431.10	2036.27
431.28	2230.53
431.47	2083.08
431.66	2193.08
431.85	2186.06
432.03	2188.40
432.22	2132.23
432.41	2176.70
432.60	2307.77
432.79	2188.40
432.97	2239.89
433.16	2160.31
433.35	2183.72
433.54	2263.30
433.72	2237.55
433.91	2113.50
434.10	2340.54
434.28	2204.78
434.47	2186.06
434.66	2291.38
434.85	2284.36
435.03	2375.64
435.22	2485.65
435.41	2700.98
435.59	2726.72
435.78	2635.44
435.97	2485.65
436.16	2459.90
436.34	2417.77
436.53	2448.20
436.72	2520.76
436.90	2305.43
437.09	2399.05
437.28	2443.52
437.46	2420.11
437.65	2380.32
437.84	2499.69
438.02	2469.27
438.21	2401.39
438.40	2462.24
438.58	2616.72
438.77	2637.78
438.96	2555.86
439.14	2628.42
439.33	2605.02
439.52	2703.32
439.70	2738.43
439.89	2738.43
440.08	2693.96
440.26	2747.79
440.45	2792.26
440.63	2668.21
440.82	2691.62
441.01	2801.62
441.19	2829.71
441.38	2803.96
441.57	2998.23
441.75	2815.66
441.94	2986.52
442.12	2923.33
442.31	2981.84
442.50	3005.25
442.68	3016.95
442.87	2956.10
443.05	3042.70
443.24	2916.31
443.43	3075.46
443.61	3105.89
443.80	3246.32
443.98	2979.50
444.17	2998.23
444.35	3080.14
444.54	3173.77
444.73	3042.70
444.91	2965.46
445.10	3000.57
445.28	3075.46
445.47	3075.46
445.65	3030.99
445.84	3133.98
446.02	3124.62
446.21	3087.17
446.39	3049.72
446.58	3204.19
446.77	3180.79
446.95	3063.76
447.14	2970.14
447.32	3145.68
447.51	3082.49
447.69	2963.12
447.88	3070.78
448.06	3096.53
448.25	3052.06
448.43	3049.72
448.62	3035.67
448.80	3098.87
448.99	3239.30
449.17	3253.34
449.36	3178.45
449.54	3353.99
449.73	3316.54
449.91	3330.58
450.10	3236.96
450.28	3351.65
450.46	3328.24
450.65	3332.92
450.83	3384.41
451.02	3169.09
451.20	3265.05
451.39	3363.35
451.57	3445.27
451.76	3426.54
451.94	3323.56
452.13	3365.69
452.31	3494.42
452.49	3311.86
452.68	3370.37
452.86	3384.41
453.05	3482.72
453.23	3435.91
453.42	3482.72
453.60	3494.42
453.78	3538.89
453.97	3410.16
454.15	3428.88
454.34	3410.16
454.52	3478.04
454.70	3595.06
454.89	3581.02
455.07	3517.83
455.26	3571.66
455.44	3641.87
455.62	3480.38
455.81	3627.83
455.99	3705.07
456.17	3740.18
456.36	3660.60
456.54	3796.35
456.73	3632.51
456.91	3744.86
457.09	3831.46
457.28	3992.95
457.46	3882.95
457.64	3782.31
457.83	3915.72
458.01	3819.75
458.19	3861.88
458.38	3836.14
458.56	3915.72
458.74	3908.69
458.93	4009.34
459.11	3960.19
459.29	3847.84
459.48	3906.35
459.66	3948.48
459.84	3896.99
460.03	4039.76
460.21	4021.04
460.39	3955.51
460.57	4021.04
460.76	4051.47
460.94	4105.30
461.12	4004.66
461.31	4142.75
461.49	4074.87
461.67	4023.38
461.85	4224.67
462.04	4205.94
462.22	4353.40
462.40	4004.66
462.59	4140.41
462.77	4224.67
462.95	4152.11
463.13	4152.11
463.32	4271.48
463.50	4273.82
463.68	4325.31
463.86	4201.26
464.05	4177.86
464.23	4257.43
464.41	4273.82
464.59	4177.86
464.78	4423.61
464.96	4304.25
465.14	4372.12
465.32	4306.59
465.50	4259.78
465.69	4381.48
465.87	4444.68
466.05	4416.59
466.23	4369.78
466.41	4486.81
466.60	4643.62
466.78	4578.09
466.96	4465.74
467.14	4416.59
467.32	4451.70
467.51	4505.53
467.69	4402.55
467.87	4564.04
468.05	4468.08
468.23	4557.02
468.41	4512.55
468.60	4627.24
468.78	4695.11
468.96	4505.53
469.14	4685.75
469.32	4603.83
469.50	4622.56
469.69	4631.92
469.87	4657.67
470.05	4805.12
470.23	4587.45
470.41	4741.93
470.59	4617.88
470.77	4695.11
470.95	4858.95
471.14	5048.54
471.32	4828.53
471.50	4926.83
471.68	4917.47
471.86	4936.19
472.04	4952.57
472.22	4828.53
472.40	4865.97
472.58	5022.79
472.77	5071.94
472.95	5121.09
473.13	5041.51
473.31	5160.88
473.49	5029.81
473.67	5022.79
473.85	5289.61
474.03	5313.02
474.21	5128.11
474.39	5303.65
474.57	5331.74
474.75	5327.06
474.93	5528.35
475.12	5453.45
475.30	5308.34
475.48	5399.62
475.66	5537.71
475.84	5540.05
476.02	5570.48
476.20	5476.85
476.38	5579.84
476.56	5610.26
476.74	5607.92
476.92	5673.46
477.10	5746.02
477.28	5776.44
477.46	5729.63
477.64	5795.17
477.82	5762.40
478.00	5935.60
478.18	6012.84
478.36	6120.50
478.54	6057.31
478.72	6284.34
478.90	6298.38
479.08	6349.87
479.26	6272.64
479.44	6277.32
479.62	6272.64
479.80	6326.47
479.98	6434.13
480.16	6623.72
480.34	6445.84
480.52	6459.88
480.70	6672.87
480.88	6609.67
481.06	6764.15
481.24	6792.23
481.41	6806.28
481.59	6956.07
481.77	6768.83
481.95	6810.96
482.13	7045.01
482.31	6864.79
482.49	7283.75
482.67	7183.10
482.85	7215.87
483.03	7187.79
483.21	7573.97
483.39	7602.06
483.57	7473.33
483.74	7283.75
483.92	7606.74
484.10	7482.69
484.28	7756.54
484.46	7889.95
484.64	7866.54
484.82	7866.54
485.00	7789.30
485.18	7967.18
485.35	8067.83
485.53	8231.66
485.71	8252.73
485.89	8196.56
486.07	8229.32
486.25	8093.57
486.43	8402.52
486.61	8379.12
486.78	8566.36
486.96	8568.70
487.14	8741.90
487.32	8706.79
487.50	8985.32
487.68	8910.42
487.85	8840.20
488.03	8985.32
488.21	8994.68
488.39	9170.22
488.57	9165.54
488.75	9193.62
488.92	9565.77
489.10	9437.04
489.28	9621.94
489.46	9373.85
489.64	9687.48
489.81	9680.46
489.99	9771.74
490.17	9710.88
490.35	9987.07
490.53	9872.38
490.70	9891.10
490.88	10031.54
491.06	10040.90
491.24	9998.77
491.41	10122.82
491.59	10293.68
491.77	10195.37
491.95	10438.79
492.13	10354.53
492.30	10698.59
492.48	10368.57
492.66	10525.39
492.84	10649.44
493.01	10574.54
493.19	10794.55
493.37	10953.71
493.54	10963.07
493.72	10960.73
493.90	11124.57
494.08	11143.29
494.25	11033.29
494.43	11178.40
494.61	11396.07
494.79	11283.72
494.96	11339.90
495.14	11346.92
495.32	11243.93
495.49	11595.01
495.67	11510.75
495.85	11789.28
496.02	11578.63
496.20	11882.90
496.38	11957.80
496.55	11939.07
496.73	12255.04
496.91	11915.67
497.09	11988.22
497.26	12243.34
497.44	12149.72
497.62	12517.18
497.79	12435.27
497.97	12318.24
498.14	12542.93
498.32	12339.30
498.50	12664.64
498.67	12692.73
498.85	12697.41
499.03	12781.67
499.20	12697.41
499.38	12692.73
499.56	13050.83
499.73	12903.37
499.91	13156.15
500.08	13193.60
500.26	13055.51
500.44	13198.28
500.61	13411.27
500.79	12973.59
500.97	13179.56
501.14	13488.51
501.32	13451.06
501.49	13547.02
501.67	13507.23
501.84	13593.83
502.02	13488.51
502.20	13390.20
502.37	13652.34
502.55	13818.52
502.72	13827.88
502.90	13626.60
503.07	13696.82
503.25	13914.48
503.43	13886.40
503.60	13816.18
503.78	13912.14
503.95	13891.08
504.13	14127.47
504.30	14242.16
504.48	14197.69
504.65	13937.89
504.83	14408.34
505.01	14511.32
505.18	14494.94
505.36	14167.26
505.53	14319.40
505.71	14328.76
505.88	14562.81
506.06	14246.84
506.23	14988.79
506.41	14637.71
506.58	14862.40
506.76	14862.40
506.93	14736.01
507.11	14773.46
507.28	14869.42
507.46	14892.83
507.63	14815.59
507.81	15171.35
507.98	14860.06
508.16	15005.17
508.33	15061.35
508.50	15253.27
508.68	15447.54
508.85	15580.95
509.03	15225.18
509.20	15473.28
509.38	15704.99
509.55	15796.28
509.73	15220.50
509.90	15744.78
510.08	15866.49
510.25	15850.11
510.42	15815.00
510.60	15786.91
510.77	16013.95
510.95	15831.38
511.12	15943.73
511.30	16009.26
511.47	16217.57
511.64	16091.18
511.82	16210.55
511.99	16107.57
512.17	16329.92
512.34	16081.82
512.51	16414.18
512.69	16369.71
512.86	16807.39
513.04	16606.10
513.21	16641.21
513.38	16636.53
513.56	16575.67
513.73	16453.97
513.90	16727.81
514.08	16695.04
514.25	16886.97
514.43	16741.85
514.60	16776.96
514.77	16800.37
514.95	17139.74
515.12	16573.33
515.29	16767.60
515.47	16908.03
515.64	17095.27
515.81	17003.99
515.99	17427.63
516.16	17095.27
516.33	17032.08
516.51	17432.31
516.68	16851.86
516.85	17303.58
517.03	17348.05
517.20	17469.76
517.37	17692.11
517.54	17675.73
517.72	17673.39
517.89	17394.86
518.06	17509.55
518.24	17898.08
518.41	17685.09
518.58	17884.03
518.75	17694.45
518.93	17759.98
519.10	17659.34
519.27	17804.46
519.45	17919.14
519.62	17874.67
519.79	17893.40
519.96	18026.81
520.14	18054.89
520.31	17802.11
520.48	18064.25
520.65	18263.20
520.83	18300.65
521.00	18354.48
521.17	18424.70
521.34	18412.99
521.52	18281.92
521.69	18412.99
521.86	18525.34
522.03	18707.90
522.20	18438.74
522.38	18532.36
522.55	18455.12
522.72	18532.36
522.89	18441.08
523.07	18752.37
523.24	18775.78
523.41	18817.91
523.58	18691.52
523.75	18853.02
523.92	19040.26
524.10	19000.47
524.27	18995.79
524.44	19215.80
524.61	19227.50
524.78	19185.37
524.96	18888.12
525.13	19283.67
525.30	19482.62
525.47	19124.52
525.64	18991.11
525.81	19601.99
525.98	19227.50
526.16	19211.12
526.33	19318.78
526.50	19435.81
526.67	19222.82
526.84	19447.51
527.01	19344.53
527.18	19407.72
527.36	19770.51
527.53	19950.73
527.70	19850.08
527.87	19964.77
528.04	19550.49
528.21	19702.63
528.38	19681.56
528.55	19892.21
528.72	19871.15
528.89	19910.94
529.07	20077.12
529.24	20032.65
529.41	19941.36
529.58	20016.26
529.75	19981.15
529.92	19915.62
530.09	20032.65
530.26	20170.74
530.43	20283.08
530.60	20203.50
530.77	20156.69
530.94	20402.45
531.11	20053.71
531.28	20322.87
531.46	20320.53
531.63	20255.00
531.80	20425.86
531.97	20723.10
532.14	20411.81
532.31	20311.17
532.48	20517.14
532.65	20580.33
532.82	20524.16
532.99	20629.48
533.16	20222.23
533.33	20835.45
533.50	20926.73
533.67	20926.73
533.84	20439.90
534.01	20460.96
534.18	20563.95
534.35	20685.65
534.52	20718.42
534.69	21025.03
534.86	20863.54
535.03	21048.44
535.20	20966.52
535.37	21359.73
535.54	20992.26
535.71	21350.37
535.88	21015.67
536.05	21085.89
536.22	21029.71
536.38	21371.43
536.55	21369.09
536.72	21177.17
536.89	21083.55
537.06	21380.79
537.23	21263.77
537.40	21181.85
537.57	21621.87
537.74	21324.62
537.91	21752.94
538.08	21879.33
538.25	21479.10
538.42	21617.19
538.59	21500.16
538.75	21570.38
538.92	21333.98
539.09	21600.80
539.26	21905.07
539.43	21872.31
539.60	22085.30
539.77	21844.22
539.94	21731.87
540.11	21876.99
540.28	21717.83
540.44	22211.68
540.61	21928.48
540.78	21792.73
540.95	22129.77
541.12	22237.43
541.29	22331.05
541.46	22333.39
541.62	22274.88
541.79	22632.98
541.96	22148.49
542.13	22225.73
542.30	22431.69
542.47	22480.85
542.63	22593.19
542.80	22567.45
542.97	22670.43
543.14	22750.01
543.31	22724.26
543.48	22785.12
543.64	22768.73
543.81	22944.27
543.98	23070.66
544.15	22780.43
544.32	22946.61
544.48	22902.14
544.65	22911.50
544.82	23133.86
544.99	22672.77
545.16	23047.26
545.32	23206.41
545.49	23023.85
545.66	24137.94
545.83	24166.03
546.00	23828.99
546.16	23112.79
546.33	22785.12
546.50	22792.14
546.67	23012.15
546.83	22764.05
547.00	23222.80
547.17	22920.87
547.34	23246.20
547.50	22869.37
547.67	23255.56
547.84	23047.26
548.00	23520.04
548.17	23487.28
548.34	22981.72
548.51	23332.80
548.67	23227.48
548.84	23330.46
549.01	23267.27
549.18	23047.26
549.34	23571.54
549.51	23309.40
549.68	23328.12
549.84	23183.01
550.01	23239.18
550.18	23293.01
550.34	23393.65
550.51	23325.78
550.68	23171.30
550.84	22686.81
551.01	23056.62
551.18	23267.27
551.34	23264.92
551.51	23517.70
551.68	23185.35
551.84	23164.28
552.01	23608.98
552.18	23608.98
552.34	23321.10
552.51	23412.38
552.68	23438.12
552.84	23304.71
553.01	23346.84
553.18	23489.62
553.34	23480.25
553.51	23590.26
553.67	23871.12
553.84	23908.57
554.01	23920.28
554.17	23508.34
554.34	23435.78
554.51	23332.80
554.67	23669.84
554.84	23491.96
555.00	23398.34
555.17	23482.59
555.33	23864.10
555.50	23737.71
555.67	23686.22
555.83	23293.01
556.00	23339.82
556.16	23850.06
556.33	23749.42
556.50	23779.84
556.66	23304.71
556.83	23730.69
556.99	24194.12
557.16	23747.08
557.32	24016.24
557.49	24077.09
557.65	23740.05
557.82	23786.86
557.98	23552.81
558.15	23880.49
558.32	24086.45
558.48	23740.05
558.65	24002.19
558.81	23847.72
558.98	23924.96
559.14	24023.26
559.31	23723.67
559.47	23854.74
559.64	23901.55
559.80	23786.86
559.97	23754.10
560.13	23929.64
560.30	24032.62
560.46	24004.53
560.63	24151.99
560.79	24100.50
560.96	23852.40
561.12	24034.96
561.29	24233.91
561.45	24273.70
561.61	24030.28
561.78	24121.56
561.94	24362.64
562.11	24257.31
562.27	24091.13
562.44	23793.89
562.60	24109.86
562.77	23990.49
562.93	23950.70
563.10	24247.95
563.26	24011.56
563.42	24283.06
563.59	24437.53
563.75	23852.40
563.92	24582.65
564.08	24109.86
564.24	24119.22
564.41	24093.47
564.57	23960.06
564.74	24184.76
564.90	24374.34
565.07	24222.20
565.23	24446.90
565.39	24154.33
565.56	24350.93
565.72	23817.29
565.88	24184.76
566.05	24159.01
566.21	23906.23
566.38	24254.97
566.54	24322.85
566.70	24629.46
566.87	24554.56
567.03	24147.31
567.19	24617.75
567.36	24350.93
567.52	24556.90
567.68	24482.00
567.85	24325.19
568.01	24510.09
568.17	24041.98
568.34	24238.59
568.50	24580.31
568.66	24187.10
568.83	24702.01
568.99	24350.93
569.15	24360.30
569.32	24290.08
569.48	24308.80
569.64	24037.30
569.81	24444.56
569.97	24397.74
570.13	24460.94
570.30	24350.93
570.46	24512.43
570.62	24676.27
570.78	24428.17
570.95	24243.27
571.11	24395.40
571.27	24376.68
571.43	24587.33
571.60	24486.68
571.76	24245.61
571.92	24341.57
572.09	24292.42
572.25	24945.43
572.41	24439.87
572.57	24517.11
572.74	24285.40
572.90	24388.38
573.06	24713.72
573.22	24713.72
573.38	24823.72
573.55	24142.63
573.71	24706.70
573.87	24671.59
574.03	24479.66
574.20	24353.27
574.36	24596.69
574.52	24257.31
574.68	24491.37
574.84	24542.86
575.01	24645.84
575.17	24886.92
575.33	24395.40
575.49	24507.75
575.65	24702.01
575.82	24929.05
575.98	24479.66
576.14	24175.39
576.30	24587.33
576.46	24973.52
576.62	24559.24
576.79	24730.10
576.95	24549.88
577.11	24816.70
577.27	24772.23
577.43	24807.34
577.59	24151.99
577.75	24655.20
577.92	24414.13
578.08	24631.80
578.24	24390.72
578.40	24418.81
578.56	24940.75
578.72	24442.21
578.88	24737.12
579.04	25092.88
579.21	24748.82
579.37	24692.65
579.53	24692.65
579.69	24372.00
579.85	24538.18
580.01	24510.09
580.17	24477.32
580.33	24713.72
580.49	24833.08
580.65	24982.88
580.82	24467.96
580.98	24685.63
581.14	24999.26
581.30	24943.09
581.46	24460.94
581.62	24711.38
581.78	24418.81
581.94	24704.35
582.10	24655.20
582.26	24830.74
582.42	24727.76
582.58	24678.61
582.74	25268.42
582.90	24797.98
583.06	24687.97
583.22	24835.42
583.38	24842.45
583.54	24168.37
583.70	24638.82
583.86	24716.06
584.02	24297.10
584.18	24631.80
584.34	24449.24
584.50	24938.41
584.66	24985.22
584.82	24655.20
584.98	24723.08
585.14	24893.94
585.30	24622.44
585.46	24566.26
585.62	24753.51
585.78	24505.41
585.94	24374.34
586.10	24718.40
586.26	24613.07
586.42	24676.27
586.58	24776.91
586.74	24456.26
586.90	24521.79
587.06	24863.51
587.22	24865.85
587.38	24910.32
587.54	24589.67
587.70	24929.05
587.86	24809.68
588.02	24678.61
588.18	25032.03
588.34	24753.51
588.49	24807.34
588.65	24692.65
588.81	24704.35
588.97	25069.48
589.13	24893.94
589.29	24802.66
589.45	25170.12
589.61	24685.63
589.77	24744.14
589.93	24882.24
590.08	24814.36
590.24	24720.74
590.40	24985.22
590.56	24910.32
590.72	24683.29
590.88	24491.37
591.04	24989.90
591.20	25020.33
591.35	25064.80
591.51	24884.58
591.67	24999.26
591.83	25226.29
591.99	25025.01
592.15	24931.39
592.31	24666.91
592.46	24875.21
592.62	24655.20
592.78	24884.58
592.94	25137.35
593.10	24823.72
593.26	25053.09
593.41	24849.47
593.57	25219.27
593.73	24868.19
593.89	24711.38
594.05	25106.93
594.20	24514.77
594.36	24746.48
594.52	24936.07
594.68	24606.05
594.84	24554.56
594.99	24966.49
595.15	24882.24
595.31	25081.18
595.47	24959.47
595.62	24833.08
595.78	24474.98
595.94	24936.07
596.10	24837.76
596.25	24627.12
596.41	25057.78
596.57	25020.33
596.73	24615.41
596.88	24645.84
597.04	25001.60
597.20	24889.26
597.36	25226.29
597.51	25053.09
597.67	24556.90
597.83	24648.18
597.99	24514.77
598.14	25046.07
598.30	24889.26
598.46	24816.70
598.61	25130.33
598.77	24484.34
598.93	24826.06
599.09	25205.23
599.24	25158.42
599.40	24753.51
599.56	24896.28
599.71	25109.27
599.87	24996.92
600.03	24760.53
600.18	24613.07
600.34	24664.57
600.50	24720.74
600.65	24739.46
600.81	25120.97
600.97	25259.06
601.12	25132.67
601.28	25205.23
601.44	24519.45
601.59	24989.90
601.75	24973.52
601.91	24882.24
602.06	24629.46
602.22	24959.47
602.37	24898.62
602.53	24938.41
602.69	24603.71
602.84	24519.45
603.00	24606.05
603.16	25053.09
603.31	24713.72
603.47	24659.88
603.62	24664.57
603.78	24919.68
603.94	24819.04
604.09	24676.27
604.25	24538.18
604.40	24680.95
604.56	24903.30
604.71	25060.12
604.87	24411.79
605.03	24788.61
605.18	24601.37
605.34	24746.48
605.49	24299.44
605.65	24795.64
605.80	24521.79
605.96	24606.05
606.12	24687.97
606.27	24849.47
606.43	24554.56
606.58	24744.14
606.74	24538.18
606.89	25071.82
607.05	25022.67
607.20	24819.04
607.36	24505.41
607.51	24638.82
607.67	24584.99
607.82	24629.46
607.98	24292.42
608.13	24278.38
608.29	24524.13
608.44	24535.84
608.60	24694.99
608.75	24540.52
608.91	24671.59
609.06	24336.89
609.22	24367.32
609.37	24526.47
609.53	24435.19
609.68	24451.58
609.84	24774.57
609.99	25060.12
610.15	24507.75
610.30	24847.13
610.46	24957.13
610.61	25483.75
610.76	25434.60
610.92	25610.14
611.07	25919.09
611.23	25490.77
611.38	25680.36
611.54	25088.20
611.69	24915.00
611.84	25205.23
612.00	24765.21
612.15	24692.65
612.31	24252.63
612.46	24489.03
612.62	24538.18
612.77	24709.04
612.92	24765.21
613.08	24458.60
613.23	24496.05
613.39	24666.91
613.54	24444.56
613.69	24208.16
613.85	24418.81
614.00	24624.78
614.15	24208.16
614.31	24147.31
614.46	24549.88
614.62	24877.55
614.77	24301.78
614.92	24451.58
615.08	24210.50
615.23	24067.73
615.38	24123.90
615.54	24116.88
615.69	23906.23
615.84	24201.14
616.00	24196.46
616.15	24109.86
616.30	24332.21
616.46	23971.77
616.61	24006.87
616.76	23786.86
616.92	23866.44
617.07	23950.70
617.22	23744.73
617.37	23887.51
617.53	23744.73
617.68	23962.40
617.83	23915.59
617.99	23730.69
618.14	23749.42
618.29	23707.29
618.45	23667.50
618.60	23840.70
618.75	23882.83
618.90	23728.35
619.06	23861.76
619.21	23618.35
619.36	23880.49
619.51	23388.97
619.67	23447.49
619.82	23587.92
619.97	23616.01
620.12	23363.23
620.28	23534.09
620.43	23442.81
620.58	23580.90
620.73	23548.13
620.89	23611.32
621.04	23709.63
621.19	23679.20
621.34	23651.11
621.49	23262.58
621.65	23428.76
621.80	23552.81
621.95	23274.29
622.10	23667.50
622.25	23580.90
622.41	23559.83
622.56	23075.34
622.71	23381.95
622.86	23515.36
623.01	23293.01
623.16	23501.32
623.32	23248.54
623.47	23548.13
623.62	23117.47
623.77	23080.02
623.92	23173.64
624.07	23232.16
624.23	23255.56
624.38	23110.45
624.53	23236.84
624.68	23250.88
624.83	23323.44
624.98	23447.49
625.13	22981.72
625.29	23159.60
625.44	23178.33
625.59	22897.46
625.74	22916.19
625.89	23218.11
626.04	23112.79
626.19	22871.72
626.34	23108.11
626.49	22750.01
626.65	23056.62
626.80	23084.70
626.95	22953.63
627.10	23000.44
627.25	23000.44
627.40	22775.75
627.55	23234.50
627.70	22644.68
627.85	22719.58
628.00	22852.99
628.15	22757.03
628.30	22810.86
628.45	22923.21
628.60	22548.72
628.76	22934.91
628.91	22904.48
629.06	22831.93
629.21	22707.88
629.36	22799.16
629.51	22930.23
629.66	22649.36
629.81	22565.10
629.96	22405.95
630.11	22567.45
630.26	22792.14
630.41	22600.21
630.56	22387.22
630.71	22541.70
630.86	22754.69
631.01	22731.28
631.16	22661.07
631.31	22750.01
631.46	22511.27
631.61	22368.50
631.76	22410.63
631.91	22345.09
632.06	22286.58
632.21	22324.03
632.36	22225.73
632.51	22223.39
632.66	22469.14
632.81	22558.08
632.96	22354.46
633.10	21963.59
633.25	22445.74
633.40	22249.13
633.55	22122.74
633.70	22043.17
633.85	21923.80
634.00	21846.56
634.15	22228.07
634.30	22101.68
634.45	21724.85
634.60	22412.97
634.75	21741.24
634.90	22190.62
635.05	22127.42
635.19	22209.34
635.34	22251.47
635.49	21914.44
635.64	21909.75
635.79	21975.29
635.94	21869.97
636.09	21937.84
636.24	21902.73
636.39	21837.20
636.53	21888.69
636.68	21888.69
636.83	21867.63
636.98	22590.85
637.13	21633.57
637.28	21827.84
637.43	21933.16
637.57	22075.93
637.72	21851.24
637.87	21841.88
638.02	21752.94
638.17	21795.07
638.32	21561.02
638.46	21802.09
638.61	21568.04
638.76	21612.51
638.91	21715.49
639.06	21605.49
639.20	21696.77
639.35	21809.11
639.50	21876.99
639.65	21783.37
639.80	21818.47
639.94	21729.53
640.09	21797.41
640.24	21476.76
640.39	21371.43
640.54	21661.66
640.68	21703.79
640.83	21425.26
640.98	21649.96
641.13	21511.86
641.27	21673.36
641.42	21774.00
641.57	21830.18
641.72	21481.44
641.86	21422.92
642.01	21172.49
642.16	21682.72
642.31	21549.31
642.45	21443.99
642.60	21383.13
642.75	21387.82
642.90	21212.28
643.04	21039.08
643.19	21179.51
643.34	21219.30
643.48	21181.85
643.63	21589.10
643.78	21619.53
643.93	21502.50
644.07	20776.94
644.22	21427.60
644.37	20915.03
644.51	21415.90
644.66	21469.73
644.81	20992.26
644.95	21500.16
645.10	21170.15
645.25	21242.70
645.39	21317.60
645.54	21170.15
645.69	21113.97
645.83	21252.06
645.98	21238.02
646.13	21064.82
646.27	21268.45
646.42	21062.48
646.57	21132.70
646.71	20919.71
646.86	20940.77
647.00	21179.51
647.15	21193.55
647.30	20542.88
647.44	21109.29
647.59	21198.23
647.74	20688.00
647.88	21102.27
648.03	21188.87
648.17	20900.98
648.32	20959.50
648.47	21146.74
648.61	21282.49
648.76	20929.07
648.90	20931.41
649.05	20842.47
649.20	20877.58
649.34	20886.94
649.49	20606.08
649.63	20795.66
649.78	21018.01
649.92	20809.70
650.07	20898.64
650.21	20989.92
650.36	20758.21
650.51	20966.52
650.65	20915.03
650.80	20868.22
650.94	20636.50
651.09	20477.35
651.23	20692.68
651.38	20556.93
651.52	20725.44
651.67	20788.64
651.81	20423.51
651.96	20531.18
652.10	20767.57
652.25	20460.96
652.39	20617.78
652.54	20531.18
652.68	20512.46
652.83	20762.89
652.97	20720.76
653.12	20601.40
653.26	20301.81
653.41	20524.16
653.55	20552.24
653.70	20383.73
653.84	20641.18
653.99	20446.92
654.13	20524.16
654.27	20442.24
654.42	20187.12
654.56	20259.68
654.71	20521.82
654.85	20414.15
655.00	20416.49
655.14	20486.71
655.29	19908.60
655.43	20512.46
655.57	20212.87
655.72	20329.89
655.86	20240.95
656.01	20250.32
656.15	19875.83
656.30	19903.92
656.44	20156.69
656.58	20245.63
656.73	20095.84
656.87	20301.81
657.01	20217.55
657.16	20187.12
657.30	20105.20
657.45	20175.42
657.59	19646.46
657.73	19969.45
657.88	20156.69
658.02	19990.52
658.16	19655.82
658.31	19756.46
658.45	19882.85
658.60	19913.28
658.74	19676.88
658.88	19824.34
659.03	19803.27
659.17	19920.30
659.31	19948.39
659.46	19840.72
659.60	19852.42
659.74	19943.70
659.89	19833.70
660.03	19730.72
660.17	19955.41
660.32	19751.78
660.46	19510.71
660.60	19669.86
660.74	19688.59
660.89	19754.12
661.03	19459.21
661.17	19484.96
661.32	19328.14
661.46	19630.07
661.60	19435.81
661.74	19466.24
661.89	19508.37
662.03	19410.06
662.17	19449.85
662.31	19374.95
662.46	19449.85
662.60	19477.94
662.74	19330.48
662.88	19183.03
663.03	18885.78
663.17	19267.29
663.31	18597.90
663.45	19138.56
663.60	19255.59
663.74	18946.64
663.88	19197.07
664.02	18993.45
664.17	19014.51
664.31	19131.54
664.45	19049.62
664.59	18911.53
664.73	18956.00
664.88	19096.43
665.02	18735.99
665.16	18972.38
665.30	18984.09
665.44	18902.17
665.59	18874.08
665.73	18497.25
665.87	18684.50
666.01	18478.53
666.15	18696.20
666.29	18860.04
666.44	18628.32
666.58	18735.99
666.72	18478.53
666.86	18331.08
667.00	18459.81
667.14	18611.94
667.28	18551.09
667.43	18602.58
667.57	18207.03
667.71	18235.11
667.85	18553.43
667.99	18314.69
668.13	18380.23
668.27	18422.36
668.41	18361.50
668.56	18427.04
668.70	18099.36
668.84	18061.91
668.98	18436.40
669.12	18314.69
669.26	18216.39
669.40	17886.37
669.54	18209.37
669.68	17912.12
669.82	17701.47
669.96	17811.48
670.10	17937.87
670.25	17879.35
670.39	17759.98
670.53	17628.92
670.67	17720.20
670.81	18050.21
670.95	17839.56
671.09	17717.86
671.23	17778.71
671.37	17771.69
671.51	17722.54
671.65	17514.23
671.79	17551.68
671.93	17462.74
672.07	17404.22
672.21	17549.34
672.35	17486.14
672.49	17146.76
672.63	17420.61
672.77	17296.56
672.91	17027.40
673.05	17291.88
673.19	17235.70
673.33	16964.20
673.47	17305.92
673.61	17130.38
673.75	17076.55
673.89	17231.02
674.03	16975.91
674.17	17104.64
674.31	16940.80
674.45	17046.12
674.59	16999.31
674.73	16954.84
674.87	16723.13
675.01	16702.06
675.15	16692.70
675.29	16702.06
675.43	16964.20
675.56	16521.84
675.70	16549.93
675.84	16643.55
675.98	16173.10
676.12	16299.49
676.26	16741.85
676.40	16531.20
676.54	16610.78
676.68	16559.29
676.82	15983.52
676.96	16248.00
677.10	16453.97
677.23	16182.46
677.37	15969.48
677.51	15782.23
677.65	16152.04
677.79	15793.94
677.93	15967.13
678.07	15969.48
678.21	15655.84
678.34	15644.14
678.48	15831.38
678.62	15815.00
678.76	15719.04
678.90	15653.50
679.04	15393.70
679.18	15590.31
679.31	15286.04
679.45	14934.96
679.59	15026.24
679.73	15157.31
679.87	15051.99
680.00	15396.04
680.14	15033.26
680.28	15262.63
680.42	15075.39
680.56	15089.43
680.70	15098.80
680.83	15335.19
680.97	14902.19
681.11	14958.36
681.25	14986.45
681.39	14813.25
681.52	14918.57
681.66	14647.07
681.80	14555.79
681.94	14527.71
682.07	14618.99
682.21	14597.92
682.35	14469.19
682.49	14211.73
682.62	14501.96
682.76	14321.74
682.90	14394.29
683.04	14260.88
683.17	14171.94
683.31	14223.44
683.45	14218.75
683.59	13965.98
683.72	14008.11
683.86	14078.32
684.00	13891.08
684.13	13799.80
684.27	13687.45
684.41	13900.44
684.55	13907.46
684.68	13722.56
684.82	13612.56
684.96	13509.57
685.09	13446.38
685.23	13757.67
685.37	13631.28
685.50	13633.62
685.64	13305.95
685.78	13493.19
685.91	13514.25
686.05	13589.15
686.19	13497.87
686.32	13348.08
686.46	13111.68
686.60	12779.32
686.73	13144.45
686.87	12879.97
687.01	13099.98
687.14	13027.42
687.28	12854.22
687.42	12989.97
687.55	12947.84
687.69	12863.58
687.82	12901.03
687.96	12699.75
688.10	12479.74
688.23	12545.27
688.37	12781.67
688.50	12793.37
688.64	12517.18
688.78	12613.15
688.91	12559.31
689.05	12243.34
689.18	12196.53
689.32	12280.79
689.46	12194.19
689.59	11992.90
689.73	12393.14
689.86	12070.14
690.00	12077.16
690.13	12046.74
690.27	12072.48
690.41	11953.12
690.54	11864.18
690.68	11812.68
690.81	11936.73
690.95	11957.80
691.08	11770.55
691.22	11494.37
691.35	11763.53
691.49	11576.29
691.62	11492.03
691.76	11665.23
691.89	11353.94
692.03	11229.89
692.16	11538.84
692.30	11218.19
692.43	11185.42
692.57	11206.48
692.70	11131.59
692.84	11211.17
692.97	11122.23
693.11	11213.51
693.24	11119.89
693.38	11187.76
693.51	11000.52
693.65	10883.49
693.78	10803.91
693.92	10918.60
694.05	10972.43
694.19	10799.23
694.32	10654.12
694.45	10668.16
694.59	10619.01
694.72	10628.37
694.86	10562.84
694.99	10422.41
695.13	10539.43
695.26	10293.68
695.39	10342.83
695.53	10328.78
695.66	10455.17
695.80	10326.44
695.93	10492.62
696.07	10169.63
696.20	10188.35
696.33	10347.51
696.47	9975.36
696.60	10193.03
696.73	10120.48
696.87	10244.52
697.00	10022.17
697.14	9832.59
697.27	9757.69
697.40	9561.09
697.54	9500.23
697.67	9647.69
697.80	9596.20
697.94	9750.67
698.07	9511.94
698.21	9446.40
698.34	9633.64
698.47	9537.68
698.61	9455.76
698.74	9383.21
698.87	9596.20
699.01	9296.61
699.14	9296.61
699.27	9198.31
699.40	9160.86
699.54	9149.15
699.67	9018.08
699.80	9081.28
699.94	9111.71
700.07	8830.84
700.20	8884.67
700.34	8858.93
700.47	8681.05
700.60	8823.82
700.73	8711.47
700.87	8828.50
701.00	8879.99
701.13	8592.11
701.26	8781.69
701.40	8870.63
701.53	8533.59
701.66	8709.13
701.79	8470.40
701.93	8510.19
702.06	8369.76
702.19	8278.47
702.32	8554.66
702.46	8386.14
702.59	8287.84
702.72	8341.67
702.85	8219.96
702.99	8299.54
703.12	8187.19
703.25	8161.45
703.38	7964.84
703.51	8006.97
703.65	8182.51
703.78	8074.85
703.91	8021.02
704.04	7978.89
704.17	8060.80
704.31	7831.43
704.44	7756.54
704.57	7875.90
704.70	7599.72
704.83	7604.40
704.96	7754.19
705.10	7742.49
705.23	7651.21
>>>>>End Processed Spectral Data<<<<<
