SpectraSuite Data File
++++++++++++++++++++++++++++++++++++
Date: Fri Oct 04 11:39:40 GMT-05:00 2013
User: price-jones
Dark Spectrum Present: No
Reference Spectrum Present: No
Number of Sampled Component Spectra: 1
Spectrometers: USB2+H05261
Integration Time (usec): 100000 (USB2+H05261)
Spectra Averaged: 1 (USB2+H05261)
Boxcar Smoothing: 0 (USB2+H05261)
Correct for Electrical Dark: No (USB2+H05261)
Strobe/Lamp Enabled: No (USB2+H05261)
Correct for Detector Non-linearity: No (USB2+H05261)
Correct for Stray Light: No (USB2+H05261)
Number of Pixels in Processed Spectrum: 2048
>>>>>Begin Processed Spectral Data<<<<<
365.73	0.00
365.92	0.00
366.12	0.00
366.32	0.00
366.52	0.00
366.72	2.34
366.91	0.00
367.11	0.00
367.31	0.00
367.51	0.00
367.70	0.00
367.90	0.00
368.10	0.00
368.30	0.00
368.49	0.00
368.69	4.68
368.89	0.00
369.09	0.00
369.28	0.00
369.48	0.00
369.68	0.00
369.87	0.00
370.07	18.72
370.27	49.15
370.47	107.66
370.66	191.92
370.86	372.15
371.06	369.80
371.25	486.83
371.45	327.68
371.65	372.15
371.84	423.64
372.04	367.46
372.24	409.59
372.44	386.19
372.63	416.62
372.83	428.32
373.03	465.77
373.22	393.21
373.42	407.25
373.62	468.11
373.81	416.62
374.01	498.53
374.21	458.74
374.40	451.72
374.60	498.53
374.79	458.74
374.99	407.25
375.19	423.64
375.38	468.11
375.58	479.81
375.78	456.40
375.97	440.02
376.17	484.49
376.37	465.77
376.56	524.28
376.76	461.09
376.95	442.36
377.15	454.06
377.35	566.41
377.54	505.56
377.74	573.43
377.93	470.45
378.13	578.11
378.33	580.45
378.52	589.82
378.72	517.26
378.91	599.18
379.11	599.18
379.31	606.20
379.50	503.22
379.70	636.63
379.89	606.20
380.09	545.34
380.28	547.69
380.48	493.85
380.68	442.36
380.87	575.77
381.07	493.85
381.26	601.52
381.46	601.52
381.65	543.00
381.85	674.07
382.04	505.56
382.24	594.50
382.43	582.79
382.63	660.03
382.83	587.47
383.02	528.96
383.22	669.39
383.41	578.11
383.61	660.03
383.80	627.26
384.00	660.03
384.19	615.56
384.39	657.69
384.58	711.52
384.78	638.97
384.97	645.99
385.17	650.67
385.36	596.84
385.56	657.69
385.75	674.07
385.95	748.97
386.14	669.39
386.34	645.99
386.53	777.06
386.72	674.07
386.92	816.85
387.11	751.31
387.31	711.52
387.50	704.50
387.70	681.10
387.89	763.01
388.09	725.57
388.28	739.61
388.48	676.41
388.67	788.76
388.86	725.57
389.06	734.93
389.25	807.48
389.45	784.08
389.64	774.72
389.84	828.55
390.03	833.23
390.22	884.72
390.42	770.04
390.61	798.12
390.81	870.68
391.00	809.83
391.19	908.13
391.39	861.32
391.58	898.77
391.78	849.61
391.97	847.27
392.16	844.93
392.36	847.27
392.55	933.87
392.75	858.98
392.94	896.43
393.13	854.30
393.33	849.61
393.52	917.49
393.71	940.90
393.91	943.24
394.10	994.73
394.29	952.60
394.49	1041.54
394.68	926.85
394.88	987.71
395.07	1053.24
395.26	1060.26
395.46	1034.52
395.65	954.94
395.84	1132.82
396.04	1165.59
396.23	1144.52
396.42	987.71
396.62	1025.15
396.81	1055.58
397.00	1130.48
397.19	1196.01
397.39	1135.16
397.58	1179.63
397.77	1212.40
397.97	1153.88
398.16	1135.16
398.35	1139.84
398.55	1095.37
398.74	1139.84
398.93	1205.38
399.12	1210.06
399.32	1219.42
399.51	1158.57
399.70	1296.66
399.90	1273.25
400.09	1343.47
400.28	1369.21
400.47	1310.70
400.67	1308.36
400.86	1324.74
401.05	1334.11
401.24	1270.91
401.44	1406.66
401.63	1383.26
401.82	1432.41
402.01	1383.26
402.21	1331.76
402.40	1378.58
402.59	1521.35
402.78	1352.83
402.97	1521.35
403.17	1441.77
403.36	1519.01
403.55	1547.09
403.74	1507.30
403.93	1570.50
404.13	1568.16
404.32	1605.61
404.51	1591.56
404.70	1645.40
404.89	1507.30
405.09	1661.78
405.28	1640.72
405.47	1722.63
405.66	1678.16
405.85	1668.80
406.05	1614.97
406.24	1757.74
406.43	1699.23
406.62	1739.02
406.81	1827.96
407.00	1776.47
407.20	1830.30
407.39	1736.68
407.58	1776.47
407.77	1933.28
407.96	1989.46
408.15	1905.20
408.34	1839.66
408.54	1874.77
408.73	1914.56
408.92	1975.41
409.11	1980.09
409.30	2115.84
409.49	1989.46
409.68	1966.05
409.87	2054.99
410.07	2127.55
410.26	2143.93
410.45	2160.31
410.64	2181.38
410.83	2125.21
411.02	2209.47
411.21	2108.82
411.40	2214.15
411.59	2244.57
411.78	2314.79
411.98	2275.00
412.17	2291.38
412.36	2368.62
412.55	2312.45
412.74	2377.98
412.93	2516.08
413.12	2490.33
413.31	2647.15
413.50	2443.52
413.69	2373.30
413.88	2518.42
414.07	2607.36
414.26	2614.38
414.45	2513.74
414.64	2715.02
414.83	2806.30
415.02	2609.70
415.22	2698.64
415.41	2848.43
415.60	2834.39
415.79	2829.71
415.98	2902.26
416.17	2846.09
416.36	2883.54
416.55	2855.45
416.74	3021.63
416.93	3112.91
417.12	3038.02
417.31	3101.21
417.50	3112.91
417.69	3176.11
417.88	3117.59
418.07	3126.96
418.26	3253.34
418.45	3241.64
418.64	3169.09
418.83	3246.32
419.02	3260.37
419.21	3295.47
419.39	3417.18
419.58	3185.47
419.77	3384.41
419.96	3323.56
420.15	3452.29
420.34	3407.82
420.53	3386.76
420.72	3454.63
420.91	3478.04
421.10	3494.42
421.29	3597.40
421.48	3562.30
421.67	3562.30
421.86	3541.23
422.05	3538.89
422.24	3606.77
422.43	3660.60
422.61	3667.62
422.80	3625.49
422.99	3625.49
423.18	3756.56
423.37	3726.13
423.56	3646.55
423.75	3698.05
423.94	3728.47
424.13	3492.08
424.32	3510.80
424.50	3756.56
424.69	3794.01
424.88	3702.73
425.07	3534.21
425.26	3651.24
425.45	3733.15
425.64	3684.00
425.83	3875.93
426.01	3669.96
426.20	3700.39
426.39	3812.73
426.58	3857.20
426.77	3845.50
426.96	3955.51
427.15	3873.59
427.33	3992.95
427.52	3751.88
427.71	3829.12
427.90	3932.10
428.09	3967.21
428.28	3997.64
428.46	4058.49
428.65	3918.06
428.84	4131.05
429.03	4142.75
429.22	3995.29
429.40	4217.65
429.59	4044.45
429.78	3976.57
429.97	3992.95
430.16	4138.07
430.34	4217.65
430.53	4189.56
430.72	4311.27
430.91	4140.41
431.10	4149.77
431.28	4379.14
431.47	4212.96
431.66	4397.87
431.85	4205.94
432.03	4414.25
432.22	4479.79
432.41	4304.25
432.60	4526.60
432.79	4376.80
432.97	4545.32
433.16	4468.08
433.35	4559.36
433.54	4568.73
433.72	4594.47
433.91	4566.39
434.10	4655.33
434.28	4758.31
434.47	4748.95
434.66	4688.09
434.85	4711.50
435.03	4805.12
435.22	4891.72
435.41	5184.29
435.59	5090.67
435.78	5032.15
435.97	4809.80
436.16	4840.23
436.34	4812.14
436.53	4863.63
436.72	4947.89
436.90	4954.91
437.09	5020.45
437.28	4854.27
437.46	4933.85
437.65	5013.43
437.84	5102.37
438.02	4968.96
438.21	5121.09
438.40	5074.28
438.58	5207.69
438.77	5210.03
438.96	5238.12
439.14	5355.15
439.33	5294.29
439.52	5359.83
439.70	5432.38
439.89	5568.13
440.08	5453.45
440.26	5584.52
440.45	5582.18
440.63	5624.31
440.82	5717.93
441.01	5605.58
441.19	5720.27
441.38	5853.68
441.57	5741.33
441.75	5949.64
441.94	5846.66
442.12	5879.43
442.31	5954.32
442.50	6047.94
442.68	6050.28
442.87	5973.05
443.05	6174.33
443.24	6148.59
443.43	6157.95
443.61	6106.46
443.80	6401.37
443.98	5940.28
444.17	5966.03
444.35	6230.51
444.54	6312.42
444.73	6340.51
444.91	6211.78
445.10	6097.10
445.28	6289.02
445.47	6160.29
445.65	6148.59
445.84	6148.59
446.02	6331.15
446.21	6204.76
446.39	6202.42
446.58	6328.81
446.77	6392.00
446.95	6235.19
447.14	6427.11
447.32	6347.53
447.51	6478.60
447.69	6340.51
447.88	6366.26
448.06	6373.28
448.25	6422.43
448.43	6516.05
448.62	6342.85
448.80	6373.28
448.99	6370.94
449.17	6389.66
449.36	6438.81
449.54	6480.94
449.73	6607.33
449.91	6726.70
450.10	6691.59
450.28	6604.99
450.46	6722.02
450.65	6679.89
450.83	6733.72
451.02	6693.93
451.20	6806.28
451.39	6794.58
451.57	6825.00
451.76	6677.55
451.94	6855.43
452.13	6958.41
452.31	6944.37
452.49	6684.57
452.68	7009.90
452.86	6930.33
453.05	6986.50
453.23	6967.77
453.42	6892.88
453.60	6923.30
453.78	7368.01
453.97	7035.65
454.15	6988.84
454.34	6958.41
454.52	7047.35
454.70	7112.89
454.89	7019.27
455.07	7232.26
455.26	7314.17
455.44	7370.35
455.62	7148.00
455.81	7155.02
455.99	7344.60
456.17	7452.27
456.36	7456.95
456.54	7496.74
456.73	7557.59
456.91	7716.75
457.09	7676.96
457.28	7871.22
457.46	7585.68
457.64	7763.56
457.83	7726.11
458.01	7730.79
458.19	7941.44
458.38	7676.96
458.56	7946.12
458.74	7939.10
458.93	7929.74
459.11	7906.33
459.29	7920.37
459.48	8051.44
459.66	7744.83
459.84	8109.96
460.03	8365.07
460.21	8119.32
460.39	8201.24
460.57	8135.70
460.76	8114.64
460.94	8454.02
461.12	8156.77
461.31	8208.26
461.49	8109.96
461.67	8248.05
461.85	8219.96
462.04	8180.17
462.22	8814.46
462.40	8624.87
462.59	8320.60
462.77	8521.89
462.95	8395.50
463.13	8662.32
463.32	8524.23
463.50	8589.77
463.68	8655.30
463.86	8491.46
464.05	8683.39
464.23	8566.36
464.41	8659.98
464.59	8578.06
464.78	8903.40
464.96	8603.81
465.14	8674.03
465.32	8849.57
465.50	9069.58
465.69	8868.29
465.87	8739.56
466.05	8971.27
466.23	8908.08
466.41	9053.19
466.60	9064.89
466.78	8971.27
466.96	9111.71
467.14	9008.72
467.32	8922.12
467.51	9268.52
467.69	8734.88
467.87	9020.42
468.05	9074.26
468.23	9111.71
468.41	9069.58
468.60	9188.94
468.78	9462.79
468.96	9275.54
469.14	9348.10
469.32	9369.16
469.50	9270.86
469.69	9392.57
469.87	9607.90
470.05	9568.11
470.23	9783.44
470.41	9675.77
470.59	9804.50
470.77	9603.22
470.95	9603.22
471.14	9762.37
471.32	9472.15
471.50	9987.07
471.68	9788.12
471.86	10087.71
472.04	9982.38
472.22	10008.13
472.40	9949.62
472.58	10033.88
472.77	10214.10
472.95	10305.38
473.13	10586.24
473.31	10171.97
473.49	10338.15
473.67	10289.00
473.85	10284.31
474.03	10602.63
474.21	10356.87
474.39	10595.61
474.57	10939.66
474.75	10916.26
474.93	10698.59
475.12	10731.36
475.30	10881.15
475.48	10824.98
475.66	11044.99
475.84	11098.82
476.02	11162.01
476.20	11087.12
476.38	11344.58
476.56	11503.73
476.74	11721.40
476.92	11403.09
477.10	11524.80
477.28	11779.92
477.46	11569.27
477.64	11665.23
477.82	11978.86
478.00	12273.77
478.18	12131.00
478.36	12297.17
478.54	12393.14
478.72	12526.55
478.90	12470.37
479.08	12812.09
479.26	12865.92
479.44	12669.32
479.62	12898.69
479.80	12812.09
479.98	12868.27
480.16	13490.85
480.34	13050.83
480.52	13399.57
480.70	13493.19
480.88	13359.78
481.06	13692.13
481.24	13242.75
481.41	13687.45
481.59	14080.66
481.77	13930.87
481.95	14167.26
482.13	14260.88
482.31	14256.20
482.49	14677.50
482.67	14434.08
482.85	14567.49
483.03	15066.03
483.21	14974.75
483.39	15068.37
483.57	15026.24
483.74	15190.08
483.92	15309.44
484.10	15358.60
484.28	15573.92
484.46	15882.88
484.64	15838.41
484.82	15538.82
485.00	16037.35
485.18	16339.28
485.35	16327.58
485.53	16381.41
485.71	16587.38
485.89	16765.26
486.07	16805.05
486.25	16699.72
486.43	16816.75
486.61	16891.65
486.78	17266.13
486.96	17523.59
487.14	17710.83
487.32	17736.58
487.50	17516.57
487.68	18008.08
487.85	17891.06
488.03	18197.67
488.21	18644.71
488.39	18597.90
488.57	18745.35
488.75	18911.53
488.92	19087.07
489.10	19403.04
489.28	19286.01
489.46	19447.51
489.64	19648.80
489.81	19777.53
489.99	19789.23
490.17	19796.25
490.35	20346.28
490.53	20311.17
490.70	20264.36
490.88	20463.30
491.06	20280.74
491.24	20313.51
491.41	20989.92
491.59	20842.47
491.77	21163.12
491.95	21446.33
492.13	21160.78
492.30	21315.26
492.48	21415.90
492.66	21502.50
492.84	21820.81
493.01	21832.52
493.19	21923.80
493.37	22223.39
493.54	22064.23
493.72	22401.27
493.90	22501.91
494.08	22588.51
494.25	22820.22
494.43	22955.97
494.61	23126.83
494.79	23080.02
494.96	23157.26
495.14	23342.16
495.32	23836.02
495.49	23749.42
495.67	23800.91
495.85	23939.00
496.02	24100.50
496.20	24093.47
496.38	24400.08
496.55	24449.24
496.73	25025.01
496.91	24453.92
497.09	25186.50
497.26	24872.87
497.44	24592.01
497.62	25022.67
497.79	25549.29
497.97	25418.22
498.14	25455.67
498.32	26043.14
498.50	25668.66
498.67	25771.64
498.85	25490.77
499.03	25970.58
499.20	26171.87
499.38	25797.38
499.56	26333.37
499.73	26602.53
499.91	27072.98
500.08	26663.38
500.26	26480.82
500.44	26977.01
500.61	26993.40
500.79	27072.98
500.97	27269.58
501.14	27550.45
501.32	27316.39
501.49	27372.57
501.67	27627.68
501.84	27873.44
502.02	27615.98
502.20	28151.96
502.37	28081.75
502.55	27786.84
502.72	27896.85
502.90	28074.73
503.07	28023.23
503.25	28276.01
503.43	28135.58
503.60	28584.96
503.78	28397.72
503.95	28568.58
504.13	28826.04
504.30	28493.68
504.48	28486.66
504.65	28849.44
504.83	29303.51
505.01	29336.27
505.18	29235.63
505.36	29839.49
505.53	29441.60
505.71	29685.01
505.88	29816.08
506.06	29113.92
506.23	29951.84
506.41	30204.61
506.58	30143.76
506.76	29937.79
506.93	30106.31
507.11	30019.71
507.28	30590.80
507.46	30286.53
507.63	30567.40
507.81	30794.43
507.98	30504.20
508.16	30735.92
508.33	30909.11
508.50	30881.03
508.68	30852.94
508.85	31484.89
509.03	31463.82
509.20	31173.60
509.38	31634.68
509.55	31599.57
509.73	31267.22
509.90	31433.39
510.08	31950.65
510.25	31737.66
510.42	31962.36
510.60	31786.82
510.77	32254.92
510.95	32348.54
511.12	31821.92
511.30	31819.58
511.47	32641.11
511.64	32425.78
511.82	32940.70
511.99	32788.56
512.17	33027.30
512.34	32631.75
512.51	32753.46
512.69	32985.17
512.86	33312.84
513.04	33186.46
513.21	33603.07
513.38	33394.76
513.56	33556.26
513.73	33539.88
513.90	33319.87
514.08	33343.27
514.25	33972.88
514.43	33944.79
514.60	34099.26
514.77	33919.04
514.95	34096.92
515.12	34029.05
515.29	33752.87
515.47	34129.69
515.64	34775.68
515.81	34347.36
515.99	34841.21
516.16	34597.80
516.33	34525.24
516.51	34682.06
516.68	34396.51
516.85	35140.80
517.03	35033.14
517.20	35438.05
517.37	35482.52
517.54	35274.21
517.72	35349.11
517.89	35105.70
518.06	35091.65
518.24	35178.25
518.41	35498.91
518.58	35739.98
518.75	35592.53
518.93	36175.32
519.10	35716.58
519.27	35910.84
519.45	35826.58
519.62	35985.74
519.79	35988.08
519.96	35681.47
520.14	36428.10
520.31	36343.84
520.48	36774.50
520.65	36608.32
520.83	36727.69
521.00	36833.01
521.17	36545.12
521.34	36456.18
521.52	36821.31
521.69	36744.07
521.86	37198.13
522.03	37221.54
522.20	37060.04
522.38	37439.21
522.55	36964.08
522.72	37268.35
522.89	37268.35
523.07	37881.57
523.24	37741.14
523.41	37689.65
523.58	37659.22
523.75	37930.72
523.92	37645.18
524.10	37947.11
524.27	37968.17
524.44	38043.07
524.61	38660.97
524.78	38394.15
524.96	38307.55
525.13	38333.29
525.30	38382.45
525.47	38663.31
525.64	38703.10
525.81	38799.06
525.98	38876.30
526.16	38635.22
526.33	38785.02
526.50	38955.88
526.67	38600.12
526.84	38698.42
527.01	38892.68
527.18	39082.27
527.36	39569.10
527.53	39491.86
527.70	39697.83
527.87	39342.06
528.04	39056.52
528.21	39620.59
528.38	39285.89
528.55	39732.93
528.72	39562.08
528.89	40041.88
529.07	39782.09
529.24	39669.74
529.41	39531.65
529.58	39519.95
529.75	39810.17
529.92	39950.60
530.09	39990.39
530.26	39964.65
530.43	40512.33
530.60	39625.27
530.77	40322.75
530.94	40304.02
531.11	40313.39
531.28	40304.02
531.46	40339.13
531.63	40882.14
531.80	40645.74
531.97	41130.23
532.14	40961.72
532.31	40919.59
532.48	40900.86
532.65	40851.71
532.82	40088.70
532.99	40971.08
533.16	40910.22
533.33	41036.61
533.50	41324.50
533.67	41464.93
533.84	40973.42
534.01	41350.24
534.18	40648.08
534.35	41453.23
534.52	41486.00
534.69	41572.60
534.86	41928.36
535.03	41462.59
535.20	41904.95
535.37	41874.52
535.54	41844.10
535.71	41710.69
535.88	41876.86
536.05	41689.62
536.22	41607.70
536.38	42103.90
536.55	42195.18
536.72	42188.16
536.89	41694.30
537.06	42466.68
537.23	42249.01
537.40	42033.68
537.57	42422.21
537.74	42040.70
537.91	42667.97
538.08	42557.96
538.25	42249.01
538.42	42618.81
538.59	42443.27
538.75	42333.27
538.92	42454.98
539.09	42878.61
539.26	42995.64
539.43	42986.28
539.60	43096.28
539.77	42869.25
539.94	42754.57
540.11	42911.38
540.28	42920.74
540.44	43117.35
540.61	43115.01
540.78	42808.40
540.95	43901.43
541.12	43225.01
541.29	43667.37
541.46	43051.81
541.62	43533.96
541.79	43756.32
541.96	42983.94
542.13	43335.02
542.30	43739.93
542.47	43697.80
542.63	43992.71
542.80	44657.42
542.97	44488.90
543.14	44271.23
543.31	43842.92
543.48	44280.60
543.64	44619.97
543.81	44528.69
543.98	44589.55
544.15	44404.64
544.32	44369.54
544.48	44926.58
544.65	44505.29
544.82	44411.67
544.99	44364.85
545.16	44346.13
545.32	44868.07
545.49	45462.57
545.66	45862.80
545.83	45605.34
546.00	45617.04
546.16	45111.49
546.33	44797.85
546.50	44741.68
546.67	44664.44
546.83	44392.94
547.00	44769.77
547.17	45092.76
547.34	44978.07
547.50	45275.32
547.67	45722.37
547.84	45446.18
548.00	45088.08
548.17	45441.50
548.34	45214.47
548.51	45214.47
548.67	45394.69
548.84	45263.62
549.01	45247.24
549.18	45261.28
549.34	45631.08
549.51	45645.13
549.68	45411.07
549.84	45146.59
550.01	45507.04
550.18	45392.35
550.34	45766.84
550.51	45551.51
550.68	45191.06
550.84	45263.62
551.01	45757.47
551.18	45537.46
551.34	45525.76
551.51	45698.96
551.68	45694.28
551.84	45574.91
552.01	45813.65
552.18	45663.85
552.34	45584.27
552.51	45918.97
552.68	45329.16
552.84	45773.86
553.01	45801.94
553.18	46319.20
553.34	46122.60
553.51	45804.28
553.67	46157.70
553.84	46068.76
554.01	46504.10
554.17	46614.11
554.34	46017.27
554.51	45935.35
554.67	46134.30
554.84	46373.03
555.00	46164.73
555.17	46167.07
555.33	46253.67
555.50	46302.82
555.67	46150.68
555.83	46234.94
556.00	46389.42
556.16	46464.32
556.33	46319.20
556.50	46705.39
556.66	46630.49
556.83	46312.18
556.99	46660.92
557.16	46646.88
557.32	46777.95
557.49	46597.73
557.65	46330.90
557.82	46473.68
557.98	46857.52
558.15	46522.83
558.32	46508.79
558.48	46855.18
558.65	46728.80
558.81	46712.41
558.98	46820.08
559.14	46817.74
559.31	46548.57
559.47	47103.28
559.64	46962.85
559.80	46890.29
559.97	46864.55
560.13	46834.12
560.30	47007.32
560.46	47196.90
560.63	46831.78
560.79	47065.83
560.96	47058.81
561.12	46944.12
561.29	47091.58
561.45	47405.21
561.61	47021.36
561.78	47342.02
561.94	47281.16
562.11	47243.71
562.27	47114.98
562.44	47021.36
562.60	47337.33
562.77	46883.27
562.93	47021.36
563.10	47501.17
563.26	46965.19
563.42	47618.20
563.59	47213.29
563.75	47168.82
563.92	47112.64
564.08	47243.71
564.24	47159.45
564.41	47306.91
564.57	47035.41
564.74	47002.64
564.90	47489.47
565.07	46768.58
565.23	47267.12
565.39	47409.89
565.56	47409.89
565.72	47257.76
565.88	47241.37
566.05	46932.42
566.21	47040.09
566.38	47346.70
566.54	47246.05
566.70	47433.30
566.87	47559.69
567.03	47625.22
567.19	47840.55
567.36	47442.66
567.52	47545.64
567.68	47374.78
567.85	47327.97
568.01	47772.67
568.17	47161.79
568.34	47995.03
568.50	47739.91
568.66	47529.26
568.83	47388.83
568.99	47325.63
569.15	47309.25
569.32	47435.64
569.48	47379.46
569.64	47423.93
569.81	47349.04
569.97	47695.44
570.13	47770.33
570.30	47524.58
570.46	47716.50
570.62	47494.15
570.78	47625.22
570.95	47323.29
571.11	47339.68
571.27	47023.70
571.43	47154.77
571.60	47466.06
571.76	47267.12
571.92	47648.63
572.09	47707.14
572.25	47522.24
572.41	47913.11
572.57	47709.48
572.74	47264.78
572.90	47423.93
573.06	47501.17
573.22	47618.20
573.38	47536.28
573.55	47526.92
573.71	47681.39
573.87	47971.62
574.03	47398.19
574.20	47728.20
574.36	47508.19
574.52	47536.28
574.68	47512.88
574.84	47524.58
575.01	47856.93
575.17	47810.12
575.33	48044.18
575.49	47557.35
575.65	47758.63
575.82	47789.06
575.98	47803.10
576.14	47892.04
576.30	47744.59
576.46	47641.60
576.62	47810.12
576.79	47793.74
576.95	47833.53
577.11	47765.65
577.27	47704.80
577.43	47693.10
577.59	47555.00
577.75	47826.51
577.92	47344.36
578.08	47730.54
578.24	47370.10
578.40	47672.03
578.56	47702.46
578.72	47782.04
578.88	48023.11
579.04	48210.35
579.21	47622.88
579.37	47597.13
579.53	47758.63
579.69	47421.59
579.85	47456.70
580.01	47945.87
580.17	47725.86
580.33	47643.94
580.49	47842.89
580.65	47990.34
580.82	47786.72
580.98	47744.59
581.14	47377.12
581.30	47995.03
581.46	47636.92
581.62	47667.35
581.78	47260.10
581.94	47957.58
582.10	47660.33
582.26	47824.17
582.42	48009.07
582.58	47510.53
582.74	47896.72
582.90	48229.08
583.06	47480.11
583.22	47409.89
583.38	47562.03
583.54	47791.40
583.70	47585.43
583.86	47941.19
584.02	47690.76
584.18	48065.24
584.34	48177.59
584.50	47796.08
584.66	48027.79
584.82	47501.17
584.98	47985.66
585.14	47950.56
585.30	47351.38
585.46	48105.03
585.62	47674.37
585.78	47833.53
585.94	47700.12
586.10	47908.43
586.26	47798.42
586.42	47983.32
586.58	47878.00
586.74	47814.80
586.90	47594.79
587.06	47767.99
587.22	47419.25
587.38	47786.72
587.54	47842.89
587.70	47988.00
587.86	48088.65
588.02	47519.90
588.18	48428.02
588.34	47828.85
588.49	47604.16
588.65	48041.84
588.81	47526.92
588.97	47870.98
589.13	48004.39
589.29	47742.25
589.45	47803.10
589.61	48210.35
589.77	48222.06
589.93	48086.31
590.08	47887.36
590.24	48041.84
590.40	48037.16
590.56	47889.70
590.72	47440.32
590.88	47557.35
591.04	47562.03
591.20	48149.50
591.35	48158.86
591.51	48357.81
591.67	48156.52
591.83	48526.33
591.99	48102.69
592.15	47824.17
592.31	48144.82
592.46	47833.53
592.62	47622.88
592.78	48287.59
592.94	48257.17
593.10	48034.81
593.26	48303.98
593.41	48102.69
593.57	48296.95
593.73	48186.95
593.89	47995.03
594.05	48243.12
594.20	48231.42
594.36	48151.84
594.52	47863.96
594.68	48158.86
594.84	47767.99
594.99	48357.81
595.15	48315.68
595.31	48624.63
595.47	48191.63
595.62	48109.71
595.78	47842.89
595.94	48481.86
596.10	48135.46
596.25	47910.77
596.41	47903.74
596.57	47941.19
596.73	48278.23
596.88	48090.99
597.04	48392.92
597.20	48282.91
597.36	48287.59
597.51	48224.40
597.67	47980.98
597.83	48280.57
597.99	48156.52
598.14	47980.98
598.30	48271.21
598.46	47585.43
598.61	48046.52
598.77	47945.87
598.93	48296.95
599.09	48165.88
599.24	48540.37
599.40	48161.20
599.56	48315.68
599.71	47941.19
599.87	48203.33
600.03	48287.59
600.18	47760.97
600.34	47995.03
600.50	48240.78
600.65	48105.03
600.81	48411.64
600.97	48327.38
601.12	48175.25
601.28	48282.91
601.44	48186.95
601.59	48315.68
601.75	47969.28
601.91	48156.52
602.06	47852.25
602.22	48147.16
602.37	48175.25
602.53	48060.56
602.69	48484.20
602.84	47910.77
603.00	48341.42
603.16	47789.06
603.31	47662.67
603.47	48067.58
603.62	47948.21
603.78	48144.82
603.94	47992.68
604.09	48109.71
604.25	47601.82
604.40	48154.18
604.56	47655.65
604.71	48158.86
604.87	47716.50
605.03	47929.49
605.18	47753.95
605.34	47576.07
605.49	47847.57
605.65	48004.39
605.80	47557.35
605.96	48088.65
606.12	47313.93
606.27	47597.13
606.43	47779.70
606.58	47943.53
606.74	47688.42
606.89	47863.96
607.05	47826.51
607.20	47501.17
607.36	47826.51
607.51	47767.99
607.67	47641.60
607.82	47592.45
607.98	47292.86
608.13	47826.51
608.29	47405.21
608.44	47367.76
608.60	47402.87
608.75	47618.20
608.91	47540.96
609.06	47723.52
609.22	47604.16
609.37	47402.87
609.53	47339.68
609.68	47524.58
609.84	47199.24
609.99	47887.36
610.15	47503.51
610.30	47910.77
610.46	47730.54
610.61	47920.13
610.76	47782.04
610.92	48161.20
611.07	48418.66
611.23	48254.82
611.38	47627.56
611.54	47573.73
611.69	47377.12
611.84	47356.06
612.00	47255.42
612.15	47035.41
612.31	47765.65
612.46	47203.92
612.62	47578.41
612.77	47547.98
612.92	47580.75
613.08	47409.89
613.23	47339.68
613.39	47166.48
613.54	46754.54
613.69	47033.07
613.85	47061.15
614.00	47012.00
614.15	46878.59
614.31	46974.55
614.46	46948.81
614.62	46958.17
614.77	47084.56
614.92	46953.49
615.08	47072.85
615.23	46897.31
615.38	47075.19
615.54	46487.72
615.69	46726.46
615.84	46674.96
616.00	46845.82
616.15	46581.34
616.30	46714.75
616.46	46595.38
616.61	46939.44
616.76	46787.31
616.92	46270.05
617.07	46674.96
617.22	46436.23
617.37	45778.54
617.53	46405.80
617.68	46384.74
617.83	45872.16
617.99	46080.47
618.14	46555.60
618.29	46171.75
618.45	46157.70
618.60	46522.83
618.75	46651.56
618.90	46754.54
619.06	46394.10
619.21	46185.79
619.36	46230.26
619.51	45876.84
619.67	45514.06
619.82	45649.81
619.97	45958.76
620.12	45698.96
620.28	46073.45
620.43	46138.98
620.58	46387.08
620.73	45776.20
620.89	45705.98
621.04	46124.94
621.19	45986.85
621.34	45839.39
621.49	45525.76
621.65	45322.13
621.80	46106.21
621.95	45563.21
622.10	45509.38
622.25	45361.92
622.41	45614.70
622.56	45998.55
622.71	46036.00
622.86	45727.05
623.01	45741.09
623.16	45741.09
623.32	45308.09
623.47	45572.57
623.62	45668.53
623.77	45567.89
623.92	45476.61
624.07	45221.49
624.23	45289.37
624.38	45567.89
624.53	45649.81
624.68	45202.77
624.83	45439.16
624.98	45385.33
625.13	45340.86
625.29	45221.49
625.44	45155.96
625.59	44788.49
625.74	44900.84
625.89	44561.46
626.04	44690.19
626.19	44973.39
626.34	44762.75
626.49	44758.06
626.65	44671.46
626.80	45017.86
626.95	44713.59
627.10	44201.02
627.25	44821.26
627.40	44495.92
627.55	44942.97
627.70	44706.57
627.85	44439.75
628.00	44357.83
628.15	44158.89
628.30	43952.92
628.45	43854.62
628.60	44336.77
628.76	44240.81
628.91	44708.91
629.06	44397.62
629.21	44402.30
629.36	44233.78
629.51	43948.24
629.66	43931.86
629.81	43826.53
629.96	43887.39
630.11	43922.49
630.26	44130.80
630.41	44189.31
630.56	44081.65
630.71	44252.51
630.86	44498.26
631.01	44226.76
631.16	44186.97
631.31	44140.16
631.46	44098.03
631.61	43604.18
631.76	43950.58
631.91	43632.27
632.06	43496.52
632.21	43622.90
632.36	43484.81
632.51	43452.05
632.66	43615.88
632.81	43241.40
632.96	43732.91
633.10	43569.07
633.25	43304.59
633.40	43332.68
633.55	43466.09
633.70	43374.81
633.85	43505.88
634.00	43449.70
634.15	43409.92
634.30	43363.11
634.45	42873.93
634.60	43140.75
634.75	43236.72
634.90	43129.05
635.05	43194.59
635.19	43124.37
635.34	43206.29
635.49	43533.96
635.64	42923.08
635.79	42763.93
635.94	43187.56
636.09	43051.81
636.24	42997.98
636.39	42609.45
636.53	43079.90
636.68	42841.17
636.83	42595.41
636.98	43168.84
637.13	42440.93
637.28	42899.68
637.43	42855.21
637.57	42787.33
637.72	42880.95
637.87	42541.58
638.02	42600.09
638.17	42689.03
638.32	42656.26
638.46	42344.97
638.61	42436.25
638.76	42450.30
638.91	42431.57
639.06	42572.00
639.20	42284.12
639.35	42457.32
639.50	42340.29
639.65	42543.92
639.80	43072.88
639.94	42726.48
640.09	41876.86
640.24	42260.71
640.39	41897.93
640.54	42120.28
640.68	42092.19
640.83	41614.72
640.98	42073.47
641.13	41544.51
641.27	42445.62
641.42	41780.90
641.57	42164.75
641.72	41942.40
641.86	41837.08
642.01	41265.99
642.16	41799.63
642.31	41390.03
642.45	42129.64
642.60	41237.90
642.75	41532.81
642.90	41708.35
643.04	41504.72
643.19	41455.57
643.34	41731.75
643.48	41823.03
643.63	41282.37
643.78	41825.37
643.93	41408.76
644.07	41837.08
644.22	41338.54
644.37	41301.09
644.51	41354.93
644.66	41081.08
644.81	41638.13
644.95	41394.71
645.10	40947.67
645.25	41387.69
645.39	41659.20
645.54	41607.70
645.69	41041.29
645.83	41558.55
645.98	41275.35
646.13	41631.11
646.27	41493.02
646.42	41081.08
646.57	41207.47
646.71	40938.31
646.86	41226.20
647.00	41502.38
647.15	40947.67
647.30	40985.12
647.44	41256.62
647.59	40917.25
647.74	40921.93
647.88	40898.52
648.03	40509.99
648.17	40952.35
648.32	40863.41
648.47	40950.01
648.61	40832.99
648.76	40917.25
648.90	40538.08
649.05	40481.91
649.20	40463.18
649.34	40629.36
649.49	40334.45
649.63	40285.30
649.78	40449.14
649.92	40474.88
650.07	40634.04
650.21	40301.68
650.36	40912.56
650.51	40062.95
650.65	40868.09
650.80	40753.41
650.94	40809.58
651.09	39957.63
651.23	40247.85
651.38	40254.87
651.52	39990.39
651.67	40023.16
651.81	40009.12
651.96	39917.84
652.10	40046.57
652.25	39695.49
652.39	40208.06
652.54	40245.51
652.68	39796.13
652.83	40268.92
652.97	40458.50
653.12	40421.05
653.26	40016.14
653.41	39983.37
653.55	39981.03
653.70	39878.05
653.84	39805.49
653.99	39639.31
654.13	39943.58
654.27	39592.50
654.42	39756.34
654.56	39725.91
654.71	39742.30
654.85	39531.65
655.00	40095.72
655.14	39477.82
655.29	39463.77
655.43	39634.63
655.57	39129.08
655.72	39225.04
655.86	39325.68
656.01	39608.89
656.15	39213.34
656.30	38958.22
656.44	39222.70
656.58	38925.45
656.73	38969.92
656.87	39267.17
657.01	38864.60
657.16	39306.96
657.30	38990.98
657.45	38873.96
657.59	39313.98
657.73	39105.67
657.88	39119.71
658.02	38831.83
658.16	39030.77
658.31	38438.62
658.45	38206.90
658.60	38574.37
658.74	38597.77
658.88	38284.14
659.03	38770.97
659.17	38660.97
659.31	38799.06
659.46	38267.76
659.60	38639.90
659.74	38733.53
659.89	38295.85
660.03	38347.34
660.17	38501.81
660.32	38302.87
660.46	37729.44
660.60	38139.03
660.74	37947.11
660.89	37668.58
661.03	37717.73
661.17	37727.10
661.32	38143.71
661.46	37680.28
661.60	37354.95
661.74	37827.74
661.89	38073.49
662.03	37968.17
662.17	38087.54
662.31	37523.47
662.46	37773.91
662.60	37727.10
662.74	37621.77
662.88	37205.16
663.03	37258.99
663.17	36907.91
663.31	37076.43
663.45	36978.12
663.60	36987.49
663.74	37024.93
663.88	36978.12
664.02	36685.56
664.17	37677.94
664.31	36657.47
664.45	36760.45
664.59	36943.02
664.73	37041.32
664.88	36919.61
665.02	36154.26
665.16	36767.48
665.30	36575.55
665.44	36690.24
665.59	36627.04
665.73	35950.63
665.87	36425.76
666.01	36306.39
666.15	36264.26
666.29	36290.01
666.44	36100.42
666.58	36294.69
666.72	36135.53
666.86	36048.93
667.00	36055.95
667.14	36072.34
667.28	35772.75
667.43	35714.23
667.57	35569.12
667.71	35765.73
667.85	35938.93
667.99	35447.41
668.13	35353.79
668.27	35688.49
668.41	35571.46
668.56	35391.24
668.70	35292.94
668.84	35222.72
668.98	35232.08
669.12	35009.73
669.26	35398.26
669.40	34838.87
669.54	35351.45
669.68	35302.30
669.82	34473.75
669.96	34899.73
670.10	35030.80
670.25	34380.13
670.39	34686.74
670.53	34712.49
670.67	33855.85
670.81	34527.58
670.95	34455.03
671.09	34728.87
671.23	34220.97
671.37	34232.68
671.51	34604.82
671.65	34249.06
671.79	34218.63
671.93	34242.04
672.07	34075.86
672.21	33883.94
672.35	33596.05
672.49	33338.59
672.63	34099.26
672.77	33467.32
672.91	33420.51
673.05	33350.29
673.19	33502.43
673.33	33727.12
673.47	33464.98
673.61	33401.79
673.75	33336.25
673.89	33343.27
674.03	33125.60
674.17	33228.59
674.31	32816.65
674.45	32882.19
674.59	32627.07
674.73	32493.66
674.87	32643.45
675.01	32620.05
675.15	32109.81
675.29	32493.66
675.43	32301.73
675.56	32325.14
675.70	32341.52
675.84	32418.76
675.98	31585.53
676.12	32488.98
676.26	31913.20
676.40	32173.00
676.54	32067.68
676.68	31821.92
676.82	31250.83
676.96	31335.09
677.10	31370.20
677.23	31543.40
677.37	31103.38
677.51	31288.28
677.65	31115.08
677.79	30742.94
677.93	31077.63
678.07	30693.79
678.21	30574.42
678.34	30787.41
678.48	30443.35
678.62	30733.57
678.76	30471.43
678.90	30087.59
679.04	30103.97
679.18	30162.48
679.31	29930.77
679.45	29523.52
679.59	29771.61
679.73	29340.96
679.87	29579.69
680.00	29284.78
680.14	29226.27
680.28	29160.73
680.42	29312.87
680.56	29481.39
680.70	29268.40
680.83	29394.79
680.97	29118.60
681.11	29151.37
681.25	29174.78
681.39	28968.81
681.52	28624.75
681.66	28629.43
681.80	28346.23
681.94	28353.25
682.07	28456.23
682.21	28123.88
682.35	28041.96
682.49	28011.53
682.62	27880.46
682.76	27587.89
682.90	27857.06
683.04	27768.12
683.17	27838.33
683.31	27655.77
683.45	27857.06
683.59	27562.15
683.72	27438.10
683.86	27192.34
684.00	27344.48
684.13	27335.12
684.27	27005.10
684.41	26888.07
684.55	26647.00
684.68	26981.70
684.82	26438.69
684.96	26338.05
685.09	26321.66
685.23	26082.93
685.37	26464.44
685.50	26192.94
685.64	26204.64
685.78	26321.66
685.91	26139.10
686.05	26113.36
686.19	26043.14
686.32	25949.52
686.46	25500.14
686.60	25230.98
686.73	25436.94
686.87	25322.26
687.01	25104.59
687.14	25301.19
687.28	24907.98
687.42	24896.28
687.55	24709.04
687.69	24940.75
687.82	24730.10
687.96	24589.67
688.10	24240.93
688.23	24917.34
688.37	24444.56
688.50	24348.59
688.64	24533.50
688.78	24142.63
688.91	24350.93
689.05	23915.59
689.18	23990.49
689.32	23297.69
689.46	23758.78
689.59	23946.02
689.73	23583.24
689.86	23335.14
690.00	23201.73
690.13	23466.21
690.27	23126.83
690.41	23293.01
690.54	22932.57
690.68	23117.47
690.81	23007.47
690.95	23290.67
691.08	23035.55
691.22	22932.57
691.35	22537.02
691.49	22792.14
691.62	22125.08
691.76	22267.86
691.89	22022.10
692.03	22307.65
692.16	22085.30
692.30	21605.49
692.43	21668.68
692.57	21654.64
692.70	21568.04
692.84	21666.34
692.97	21731.87
693.11	21593.78
693.24	21259.09
693.38	21525.91
693.51	21392.50
693.65	21771.66
693.78	21043.76
693.92	20854.17
694.05	20879.92
694.19	20814.38
694.32	20882.26
694.45	20615.44
694.59	20486.71
694.72	20610.76
694.86	20250.32
694.99	20533.52
695.13	20238.61
695.26	20180.10
695.39	19981.15
695.53	20009.24
695.66	20034.99
695.80	20105.20
695.93	19882.85
696.07	19737.74
696.20	19719.01
696.33	19695.61
696.47	19831.36
696.60	19782.21
696.73	19248.57
696.87	19190.05
697.00	19161.97
697.14	19040.26
697.27	18923.23
697.40	19058.98
697.54	19234.52
697.67	18324.05
697.80	18452.78
697.94	18396.61
698.07	18286.61
698.21	18101.70
698.34	18665.77
698.47	18279.58
698.61	18111.07
698.74	18408.31
698.87	18246.82
699.01	18024.47
699.14	17778.71
699.27	17933.18
699.40	17591.47
699.54	17638.28
699.67	17490.82
699.80	17142.08
699.94	17298.90
700.07	17156.13
700.20	17111.66
700.34	16915.05
700.47	16910.37
700.60	16996.97
700.73	16952.50
700.87	17011.01
701.00	16975.91
701.13	16578.01
701.26	16723.13
701.40	16989.95
701.53	16505.46
701.66	16430.56
701.79	16404.81
701.93	16306.51
702.06	16294.81
702.19	15997.56
702.32	16023.31
702.46	15763.51
702.59	15943.73
702.72	15583.29
702.85	15796.28
702.99	15737.76
703.12	15672.23
703.25	15229.87
703.38	15611.37
703.51	15367.96
703.65	15370.30
703.78	15398.38
703.91	15573.92
704.04	15400.72
704.17	15208.80
704.31	15227.53
704.44	14853.04
704.57	14902.19
704.70	14843.68
704.83	14714.95
704.96	14803.89
705.10	14799.21
705.23	14604.94
>>>>>End Processed Spectral Data<<<<<
