SpectraSuite Data File
++++++++++++++++++++++++++++++++++++
Date: Fri Oct 04 11:39:53 GMT-05:00 2013
User: price-jones
Dark Spectrum Present: No
Reference Spectrum Present: No
Number of Sampled Component Spectra: 1
Spectrometers: USB2+H05261
Integration Time (usec): 100000 (USB2+H05261)
Spectra Averaged: 1 (USB2+H05261)
Boxcar Smoothing: 0 (USB2+H05261)
Correct for Electrical Dark: No (USB2+H05261)
Strobe/Lamp Enabled: No (USB2+H05261)
Correct for Detector Non-linearity: No (USB2+H05261)
Correct for Stray Light: No (USB2+H05261)
Number of Pixels in Processed Spectrum: 2048
>>>>>Begin Processed Spectral Data<<<<<
365.73	0.00
365.92	0.00
366.12	0.00
366.32	4.68
366.52	0.00
366.72	0.00
366.91	0.00
367.11	0.00
367.31	0.00
367.51	0.00
367.70	0.00
367.90	0.00
368.10	0.00
368.30	0.00
368.49	14.04
368.69	7.02
368.89	0.00
369.09	0.00
369.28	0.00
369.48	0.00
369.68	0.00
369.87	23.41
370.07	0.00
370.27	37.45
370.47	95.96
370.66	156.82
370.86	128.73
371.06	135.75
371.25	194.26
371.45	131.07
371.65	154.48
371.84	91.28
372.04	145.11
372.24	93.62
372.44	177.88
372.63	177.88
372.83	227.03
373.03	196.60
373.22	119.37
373.42	170.86
373.62	224.69
373.81	294.91
374.01	243.42
374.21	271.50
374.40	220.01
374.60	255.12
374.79	163.84
374.99	271.50
375.19	297.25
375.38	229.37
375.58	271.50
375.78	271.50
375.97	306.61
376.17	266.82
376.37	224.69
376.56	266.82
376.76	241.08
376.95	276.18
377.15	245.76
377.35	322.99
377.54	292.57
377.74	175.54
377.93	198.95
378.13	229.37
378.33	262.14
378.52	217.67
378.72	271.50
378.91	276.18
379.11	301.93
379.31	266.82
379.50	175.54
379.70	287.89
379.89	325.33
380.09	145.11
380.28	294.91
380.48	205.97
380.68	168.52
380.87	294.91
381.07	220.01
381.26	177.88
381.46	287.89
381.65	208.31
381.85	278.52
382.04	208.31
382.24	222.35
382.43	215.33
382.63	208.31
382.83	215.33
383.02	278.52
383.22	313.63
383.41	269.16
383.61	290.23
383.80	276.18
384.00	259.80
384.19	245.76
384.39	252.78
384.58	278.52
384.78	304.27
384.97	313.63
385.17	278.52
385.36	271.50
385.56	283.20
385.75	224.69
385.95	191.92
386.14	297.25
386.34	250.44
386.53	280.86
386.72	245.76
386.92	320.65
387.11	341.72
387.31	341.72
387.50	332.36
387.70	353.42
387.89	334.70
388.09	271.50
388.28	304.27
388.48	264.48
388.67	287.89
388.86	259.80
389.06	259.80
389.25	381.51
389.45	315.97
389.64	322.99
389.84	320.65
390.03	306.61
390.22	255.12
390.42	318.31
390.61	346.40
390.81	304.27
391.00	299.59
391.19	348.74
391.39	283.20
391.58	330.02
391.78	262.14
391.97	400.23
392.16	355.76
392.36	402.57
392.55	341.72
392.75	379.17
392.94	311.29
393.13	365.12
393.33	353.42
393.52	400.23
393.71	435.34
393.91	376.83
394.10	416.62
394.29	388.53
394.49	411.93
394.68	411.93
394.88	390.87
395.07	397.89
395.26	320.65
395.46	402.57
395.65	440.02
395.84	397.89
396.04	400.23
396.23	463.43
396.42	463.43
396.62	521.94
396.81	418.96
397.00	449.38
397.19	470.45
397.39	437.68
397.58	423.64
397.77	482.15
397.97	414.27
398.16	521.94
398.35	526.62
398.55	465.77
398.74	571.09
398.93	526.62
399.12	528.96
399.32	514.92
399.51	521.94
399.70	540.66
399.90	615.56
400.09	596.84
400.28	596.84
400.47	484.49
400.67	603.86
400.86	575.77
401.05	631.94
401.24	624.92
401.44	580.45
401.63	648.33
401.82	559.39
402.01	538.32
402.21	657.69
402.40	676.41
402.59	683.44
402.78	631.94
402.97	645.99
403.17	678.76
403.36	786.42
403.55	676.41
403.74	758.33
403.93	685.78
404.13	755.99
404.32	816.85
404.51	788.76
404.70	842.59
404.89	723.23
405.09	828.55
405.28	763.01
405.47	840.25
405.66	755.99
405.85	833.23
406.05	882.38
406.24	870.68
406.43	837.91
406.62	889.40
406.81	840.25
407.00	863.66
407.20	835.57
407.39	931.53
407.58	912.81
407.77	964.30
407.96	915.15
408.15	1011.11
408.34	1006.43
408.54	938.55
408.73	983.02
408.92	1027.50
409.11	1076.65
409.30	1048.56
409.49	1034.52
409.68	1057.92
409.87	1165.59
410.07	1088.35
410.26	1123.46
410.45	1102.39
410.64	1125.80
410.83	1118.78
411.02	1102.39
411.21	1153.88
411.40	1184.31
411.59	1228.78
411.78	1174.95
411.98	1245.16
412.17	1245.16
412.36	1369.21
412.55	1266.23
412.74	1320.06
412.93	1214.74
413.12	1296.66
413.31	1331.76
413.50	1390.28
413.69	1320.06
413.88	1411.34
414.07	1324.74
414.26	1427.73
414.45	1390.28
414.64	1465.18
414.83	1336.45
415.02	1446.45
415.22	1528.37
415.41	1544.75
415.60	1504.96
415.79	1596.25
415.98	1652.42
416.17	1638.38
416.36	1563.48
416.55	1734.34
416.74	1685.19
416.93	1682.85
417.12	1621.99
417.31	1722.63
417.50	1741.36
417.69	1720.29
417.88	1729.66
418.07	1764.76
418.26	1839.66
418.45	1790.51
418.64	1825.62
418.83	1783.49
419.02	1867.75
419.21	1907.54
419.39	1980.09
419.58	1783.49
419.77	1792.85
419.96	1860.73
420.15	1888.81
420.34	1856.04
420.53	1942.64
420.72	2010.52
420.91	1888.81
421.10	2101.80
421.29	2015.20
421.48	1926.26
421.67	2092.44
421.86	1935.62
422.05	2076.06
422.24	2003.50
422.43	2122.87
422.61	2146.27
422.80	2017.54
422.99	2214.15
423.18	2106.48
423.37	2183.72
423.56	2134.57
423.75	2008.18
423.94	2031.58
424.13	2012.86
424.32	2115.84
424.50	2172.02
424.69	2113.50
424.88	2160.31
425.07	1991.80
425.26	2148.61
425.45	2165.00
425.64	2083.08
425.83	2218.83
426.01	2258.62
426.20	2218.83
426.39	2188.40
426.58	2148.61
426.77	2237.55
426.96	2200.10
427.15	2200.10
427.33	2249.25
427.52	2242.23
427.71	2256.28
427.90	2239.89
428.09	2265.64
428.28	2275.00
428.46	2303.09
428.65	2256.28
428.84	2450.54
429.03	2408.41
429.22	2298.41
429.40	2370.96
429.59	2462.24
429.78	2296.07
429.97	2293.72
430.16	2282.02
430.34	2420.11
430.53	2422.45
430.72	2415.43
430.91	2466.92
431.10	2480.97
431.28	2485.65
431.47	2422.45
431.66	2586.29
431.85	2647.15
432.03	2480.97
432.22	2581.61
432.41	2661.19
432.60	2637.78
432.79	2534.80
432.97	2590.97
433.16	2637.78
433.35	2717.36
433.54	2623.74
433.72	2663.53
433.91	2724.38
434.10	2640.12
434.28	2658.85
434.47	2794.60
434.66	2665.87
434.85	2719.70
435.03	2813.32
435.22	2958.44
435.41	3220.58
435.59	3255.69
435.78	3056.74
435.97	2953.76
436.16	2853.11
436.34	2818.00
436.53	2839.07
436.72	2902.26
436.90	2715.02
437.09	2892.90
437.28	2871.84
437.46	2871.84
437.65	2890.56
437.84	2963.12
438.02	2794.60
438.21	2848.43
438.40	3026.31
438.58	3077.80
438.77	3019.29
438.96	2995.89
439.14	3138.66
439.33	3208.87
439.52	3129.30
439.70	3119.93
439.89	3110.57
440.08	3164.40
440.26	3171.43
440.45	3332.92
440.63	3236.96
440.82	3274.41
441.01	3281.43
441.19	3471.01
441.38	3279.09
441.57	3463.99
441.75	3403.14
441.94	3447.61
442.12	3375.05
442.31	3400.80
442.50	3475.70
442.68	3435.91
442.87	3487.40
443.05	3543.57
443.24	3545.91
443.43	3613.79
443.61	3665.28
443.80	3672.30
443.98	3693.37
444.17	3499.10
444.35	3681.66
444.54	3688.68
444.73	3571.66
444.91	3536.55
445.10	3658.26
445.28	3576.34
445.47	3583.36
445.65	3655.92
445.84	3660.60
446.02	3651.24
446.21	3618.47
446.39	3676.98
446.58	3833.80
446.77	3763.58
446.95	3618.47
447.14	3679.32
447.32	3691.02
447.51	3658.26
447.69	3733.15
447.88	3597.40
448.06	3735.50
448.25	3662.94
448.43	3705.07
448.62	3742.52
448.80	3779.97
448.99	3880.61
449.17	3726.13
449.36	3758.90
449.54	4007.00
449.73	3833.80
449.91	3962.53
450.10	3927.42
450.28	3960.19
450.46	3997.64
450.65	3941.46
450.83	3932.10
451.02	3967.21
451.20	4135.73
451.39	4074.87
451.57	3988.27
451.76	4018.70
451.94	4011.68
452.13	4236.37
452.31	4058.49
452.49	4079.55
452.68	4161.47
452.86	4119.34
453.05	4250.41
453.23	4074.87
453.42	4208.28
453.60	4154.45
453.78	4072.53
453.97	4114.66
454.15	4201.26
454.34	4175.52
454.52	4201.26
454.70	4229.35
454.89	4112.32
455.07	4177.86
455.26	4278.50
455.44	4341.69
455.62	4311.27
455.81	4355.74
455.99	4383.82
456.17	4489.15
456.36	4367.44
456.54	4496.17
456.73	4355.74
456.91	4451.70
457.09	4491.49
457.28	4671.71
457.46	4327.65
457.64	4580.43
457.83	4557.02
458.01	4526.60
458.19	4648.30
458.38	4613.20
458.56	4699.80
458.74	4514.89
458.93	4638.94
459.11	4706.82
459.29	4610.86
459.48	4692.77
459.66	4713.84
459.84	4713.84
460.03	4912.78
460.21	4676.39
460.39	4758.31
460.57	4905.76
460.76	4844.91
460.94	4997.04
461.12	4805.12
461.31	4950.23
461.49	4894.06
461.67	4865.97
461.85	5102.37
462.04	4880.02
462.22	5500.26
462.40	5139.82
462.59	4929.17
462.77	5064.92
462.95	5109.39
463.13	5064.92
463.32	5055.56
463.50	4945.55
463.68	5205.35
463.86	5193.65
464.05	5109.39
464.23	5177.26
464.41	5165.56
464.59	5100.03
464.78	5240.46
464.96	5205.35
465.14	5273.23
465.32	5298.97
465.50	5380.89
465.69	5416.00
465.87	5284.93
466.05	5394.93
466.23	5233.44
466.41	5427.70
466.60	5516.64
466.78	5284.93
466.96	5315.36
467.14	5301.31
467.32	5427.70
467.51	5408.98
467.69	5383.23
467.87	5565.79
468.05	5643.03
468.23	5533.03
468.41	5401.96
468.60	5446.43
468.78	5273.23
468.96	5586.86
469.14	5628.99
469.32	5621.97
469.50	5500.26
469.69	5724.95
469.87	5746.02
470.05	5706.23
470.23	5771.76
470.41	5636.01
470.59	5738.99
470.77	5731.97
470.95	5851.34
471.14	5959.00
471.32	5734.31
471.50	6040.92
471.68	6052.63
471.86	5937.94
472.04	5916.87
472.22	5996.45
472.40	5853.68
472.58	5940.28
472.77	5802.19
472.95	6291.36
473.13	6403.71
473.31	6188.38
473.49	6080.71
473.67	6209.44
473.85	6279.66
474.03	6406.05
474.21	6272.64
474.39	6452.86
474.57	6443.49
474.75	6396.68
474.93	6466.90
475.12	6607.33
475.30	6665.85
475.48	6490.31
475.66	6565.20
475.84	6597.97
476.02	6670.53
476.20	6843.73
476.38	6965.43
476.56	6949.05
476.74	7042.67
476.92	6927.99
477.10	6778.19
477.28	7033.31
477.46	6930.33
477.64	7012.24
477.82	7159.70
478.00	7178.42
478.18	7279.07
478.36	7169.06
478.54	7321.20
478.72	7335.24
478.90	7538.87
479.08	7588.02
479.26	7545.89
479.44	7524.82
479.62	7822.07
479.80	7810.37
479.98	7941.44
480.16	7988.25
480.34	7716.75
480.52	8152.09
480.70	7985.91
480.88	7903.99
481.06	7915.69
481.24	8138.04
481.41	8229.32
481.59	8383.80
481.77	8334.65
481.95	8102.93
482.13	8465.72
482.31	8613.17
482.49	8500.83
482.67	8725.52
482.85	8835.52
483.03	8769.99
483.21	8905.74
483.39	9015.74
483.57	9055.53
483.74	9280.22
483.92	9226.39
484.10	8861.27
484.28	9369.16
484.46	9437.04
484.64	9633.64
484.82	9427.68
485.00	9467.47
485.18	9586.83
485.35	9884.08
485.53	10127.50
485.71	9951.96
485.89	10031.54
486.07	10097.07
486.25	10174.31
486.43	10111.11
486.61	10134.52
486.78	10387.30
486.96	10546.45
487.14	10527.73
487.32	10621.35
487.50	10492.62
487.68	10656.46
487.85	10752.42
488.03	10843.70
488.21	11007.54
488.39	10913.92
488.57	11117.54
488.75	11176.06
488.92	11569.27
489.10	11318.83
489.28	11496.71
489.46	11587.99
489.64	11641.82
489.81	11791.62
489.99	11686.29
490.17	11726.08
490.35	12025.67
490.53	12161.42
490.70	12065.46
490.88	12259.73
491.06	12435.27
491.24	12255.04
491.41	12400.16
491.59	12428.24
491.77	12414.20
491.95	12699.75
492.13	12629.53
492.30	12573.36
492.48	12819.11
492.66	12879.97
492.84	12821.45
493.01	12994.65
493.19	12996.99
493.37	13387.86
493.54	13352.76
493.72	13537.66
493.90	13390.20
494.08	13518.93
494.25	13696.82
494.43	13774.05
494.61	13818.52
494.79	13937.89
494.96	13664.05
495.14	14024.49
495.32	13898.10
495.49	14141.52
495.67	14003.43
495.85	14452.81
496.02	14483.24
496.20	14647.07
496.38	14328.76
496.55	14464.51
496.73	14752.40
496.91	14698.56
497.09	15098.80
497.26	14918.57
497.44	14827.29
497.62	14995.81
497.79	15080.07
497.97	15161.99
498.14	15494.35
498.32	15414.77
498.50	15510.73
498.67	15461.58
498.85	15786.91
499.03	15807.98
499.20	15421.79
499.38	15712.02
499.56	15768.19
499.73	15777.55
499.91	16100.55
500.08	16123.95
500.26	16130.97
500.44	16095.86
500.61	16348.64
500.79	16360.34
500.97	16358.00
501.14	16519.50
501.32	16540.57
501.49	16648.23
501.67	16570.99
501.84	16549.93
502.02	16744.19
502.20	16582.70
502.37	16971.22
502.55	16685.68
502.72	16861.22
502.90	17027.40
503.07	16858.88
503.25	17062.51
503.43	16966.54
503.60	17350.39
503.78	17146.76
503.95	17326.99
504.13	17303.58
504.30	17359.75
504.48	17359.75
504.65	17521.25
504.83	17504.87
505.01	17703.81
505.18	17689.77
505.36	17708.49
505.53	17888.71
505.71	17635.94
505.88	17942.55
506.06	17806.80
506.23	17909.78
506.41	18082.98
506.58	18190.64
506.76	18113.41
506.93	18162.56
507.11	18181.28
507.28	18108.72
507.46	18319.37
507.63	18361.50
507.81	18574.49
507.98	18766.42
508.16	18515.98
508.33	18862.38
508.50	18920.89
508.68	19077.71
508.85	18927.91
509.03	18995.79
509.20	19070.68
509.38	19183.03
509.55	19374.95
509.73	19264.95
509.90	19117.50
510.08	19559.86
510.25	19370.27
510.42	19433.47
510.60	19576.24
510.77	19793.91
510.95	19587.94
511.12	19372.61
511.30	19438.15
511.47	19601.99
511.64	19604.33
511.82	20023.28
511.99	20023.28
512.17	20016.26
512.34	20023.28
512.51	20107.54
512.69	20063.07
512.86	20262.02
513.04	20446.92
513.21	20524.16
513.38	20318.19
513.56	20416.49
513.73	20444.58
513.90	20498.41
514.08	20793.32
514.25	20702.04
514.43	20903.32
514.60	20718.42
514.77	21036.74
514.95	20919.71
515.12	20741.83
515.29	20664.59
515.47	20954.82
515.64	20870.56
515.81	21240.36
515.99	21116.31
516.16	21142.06
516.33	21390.16
516.51	21537.61
516.68	21273.13
516.85	21202.91
517.03	21359.73
517.20	21699.11
517.37	21846.56
517.54	21682.72
517.72	21406.54
517.89	21539.95
518.06	21776.34
518.24	21797.41
518.41	21900.39
518.58	22150.83
518.75	21919.12
518.93	22370.84
519.10	22403.61
519.27	22225.73
519.45	21933.16
519.62	22312.33
519.79	22340.41
519.96	22192.96
520.14	22642.34
520.31	22033.80
520.48	23007.47
520.65	22459.78
520.83	22742.99
521.00	22630.64
521.17	22724.26
521.34	22326.37
521.52	22721.92
521.69	22782.77
521.86	22925.55
522.03	22930.23
522.20	23047.26
522.38	22920.87
522.55	23037.89
522.72	23276.63
522.89	23136.20
523.07	23108.11
523.24	23468.55
523.41	23513.02
523.58	23344.50
523.75	23585.58
523.92	23323.44
524.10	23508.34
524.27	23555.15
524.44	23964.75
524.61	23714.31
524.78	23784.52
524.96	23452.17
525.13	24084.11
525.30	23840.70
525.47	23653.45
525.64	23784.52
525.81	24395.40
525.98	24137.94
526.16	24037.30
526.33	24261.99
526.50	24236.25
526.67	23908.57
526.84	24222.20
527.01	23990.49
527.18	24397.74
527.36	24222.20
527.53	24610.73
527.70	24470.30
527.87	24734.78
528.04	24563.92
528.21	24554.56
528.38	24554.56
528.55	24957.13
528.72	24968.84
528.89	24758.19
529.07	24992.24
529.24	24788.61
529.41	25020.33
529.58	24746.48
529.75	25017.99
529.92	24992.24
530.09	24858.83
530.26	25003.94
530.43	25027.35
530.60	24987.56
530.77	25036.71
530.94	25233.32
531.11	24929.05
531.28	25387.79
531.46	25324.60
531.63	25226.29
531.80	25163.10
531.97	25219.27
532.14	25804.41
532.31	25385.45
532.48	25699.08
532.65	25560.99
532.82	25439.28
532.99	25879.30
533.16	25371.41
533.33	25752.91
533.50	25862.92
533.67	25626.53
533.84	25764.62
534.01	25682.70
534.18	25486.09
534.35	26033.78
534.52	26052.50
534.69	26132.08
534.86	26073.57
535.03	26038.46
535.20	26237.41
535.37	26113.36
535.54	26181.23
535.71	25898.03
535.88	26040.80
536.05	26326.35
536.22	26244.43
536.38	26459.76
536.55	26370.82
536.72	26349.75
536.89	26258.47
537.06	26211.66
537.23	27023.83
537.40	26279.54
537.57	26651.68
537.74	26747.64
537.91	26859.99
538.08	26904.46
538.25	26541.68
538.42	26473.80
538.59	26934.88
538.75	26499.55
538.92	26731.26
539.09	26881.05
539.26	27620.66
539.43	26948.93
539.60	27028.51
539.77	27445.12
539.94	27344.48
540.11	27023.83
540.28	27218.09
540.44	27613.64
540.61	27281.28
540.78	27665.13
540.95	27545.76
541.12	27667.47
541.29	27498.95
541.46	27812.59
541.62	27599.60
541.79	27454.48
541.96	27613.64
542.13	27611.30
542.30	27999.83
542.47	27903.87
542.63	28023.23
542.80	27784.50
542.97	28339.21
543.14	28074.73
543.31	28341.55
543.48	28013.87
543.64	28566.24
543.81	28367.29
543.98	28573.26
544.15	28250.27
544.32	28833.06
544.48	28353.25
544.65	28205.80
544.82	28489.00
544.99	28479.64
545.16	28407.08
545.32	28301.76
545.49	29223.93
545.66	29324.57
545.83	29846.51
546.00	29261.38
546.16	29006.26
546.33	28659.86
546.50	28591.98
546.67	28847.10
546.83	28187.07
547.00	28627.09
547.17	28797.95
547.34	28772.21
547.50	28865.83
547.67	28952.43
547.84	28638.80
548.00	29017.96
548.17	29095.20
548.34	28718.37
548.51	28959.45
548.67	29289.46
548.84	29064.77
549.01	28477.30
549.18	28531.13
549.34	28933.70
549.51	28847.10
549.68	29067.11
549.84	29017.96
550.01	29008.60
550.18	28999.24
550.34	29001.58
550.51	29301.17
550.68	29095.20
550.84	28833.06
551.01	29275.42
551.18	29273.08
551.34	28826.04
551.51	29366.70
551.68	29193.50
551.84	29575.01
552.01	29111.58
552.18	29472.03
552.34	28900.94
552.51	29280.10
552.68	29280.10
552.84	29057.75
553.01	29474.37
553.18	29230.95
553.34	29338.62
553.51	29317.55
553.67	28994.56
553.84	29844.17
554.01	29453.30
554.17	29663.95
554.34	29640.54
554.51	29436.92
554.67	29902.68
554.84	29509.47
555.00	29443.94
555.17	29474.37
555.33	29401.81
555.50	29818.42
555.67	29296.49
555.83	29516.50
556.00	29347.98
556.16	30171.85
556.33	30157.80
556.50	30026.73
556.66	29830.13
556.83	30118.01
556.99	29886.30
557.16	30125.04
557.32	29900.34
557.49	30185.89
557.65	29635.86
557.82	30213.98
557.98	29727.14
558.15	30040.78
558.32	29638.20
558.48	30164.82
558.65	29823.11
558.81	30080.56
558.98	29795.02
559.14	30309.94
559.31	30019.71
559.47	29799.70
559.64	30174.19
559.80	30073.54
559.97	30431.65
560.13	30228.02
560.30	30335.68
560.46	30146.10
560.63	29881.62
560.79	30080.56
560.96	30071.20
561.12	29947.15
561.29	30202.27
561.45	30263.13
561.61	30642.29
561.78	30539.31
561.94	30417.60
562.11	30529.95
562.27	30401.22
562.44	30471.43
562.60	30288.87
562.77	30274.83
562.93	30279.51
563.10	30361.43
563.26	30448.03
563.42	30459.73
563.59	30209.29
563.75	30424.62
563.92	30450.37
564.08	30375.47
564.24	30569.74
564.41	30103.97
564.57	30377.81
564.74	30609.53
564.90	30270.15
565.07	30714.85
565.23	30211.64
565.39	30405.90
565.56	30745.28
565.72	30508.88
565.88	30312.28
566.05	30448.03
566.21	30443.35
566.38	30658.68
566.54	30560.37
566.70	30480.80
566.87	30771.02
567.03	30579.10
567.19	31115.08
567.36	30501.86
567.52	30153.12
567.68	30785.07
567.85	30543.99
568.01	30490.16
568.17	30574.42
568.34	30553.35
568.50	30771.02
568.66	30586.12
568.83	30866.98
568.99	30733.57
569.15	30272.49
569.32	30616.55
569.48	30419.94
569.64	30684.42
569.81	30307.60
569.97	30541.65
570.13	30869.33
570.30	30850.60
570.46	30906.77
570.62	30773.36
570.78	30824.86
570.95	30721.87
571.11	30939.54
571.27	30581.44
571.43	30555.69
571.60	30857.62
571.76	30969.97
571.92	30899.75
572.09	30998.06
572.25	31077.63
572.41	30820.17
572.57	30595.48
572.74	31147.85
572.90	30396.54
573.06	30494.84
573.22	30525.27
573.38	30881.03
573.55	30855.28
573.71	31304.67
573.87	30976.99
574.03	30836.56
574.20	31152.53
574.36	30740.60
574.52	30808.47
574.68	30780.39
574.84	30906.77
575.01	31309.35
575.17	30906.77
575.33	30670.38
575.49	30962.95
575.65	31129.12
575.82	31115.08
575.98	30583.78
576.14	30969.97
576.30	31278.92
576.46	30951.24
576.62	30789.75
576.79	30738.26
576.95	31126.78
577.11	31388.92
577.27	30965.29
577.43	31199.34
577.59	31035.50
577.75	30991.03
577.92	30789.75
578.08	30543.99
578.24	30785.07
578.40	31189.98
578.56	31192.32
578.72	31218.07
578.88	31512.97
579.04	31124.44
579.21	31157.21
579.37	31292.96
579.53	31660.43
579.69	30831.88
579.85	31005.08
580.01	31122.10
580.17	30944.22
580.33	31302.32
580.49	30939.54
580.65	31358.50
580.82	30941.88
580.98	31033.16
581.14	31267.22
581.30	31587.87
581.46	30969.97
581.62	30789.75
581.78	30656.34
581.94	31042.53
582.10	31047.21
582.26	31112.74
582.42	31564.46
582.58	31524.68
582.74	31267.22
582.90	31339.77
583.06	31356.16
583.22	31068.27
583.38	31178.28
583.54	31000.40
583.70	31351.48
583.86	31115.08
584.02	31239.13
584.18	31103.38
584.34	31077.63
584.50	31367.86
584.66	31222.75
584.82	31168.91
584.98	31227.43
585.14	31246.15
585.30	31000.40
585.46	31304.67
585.62	31178.28
585.78	31655.75
585.94	30976.99
586.10	31309.35
586.26	31056.57
586.42	31311.69
586.58	31138.49
586.74	31089.34
586.90	31033.16
587.06	31395.95
587.22	31534.04
587.38	31618.30
587.54	31700.22
587.70	31740.00
587.86	31328.07
588.02	31548.08
588.18	31974.06
588.34	31571.49
588.49	31484.89
588.65	31065.93
588.81	31370.20
588.97	31538.72
589.13	31566.81
589.29	31538.72
589.45	31428.71
589.61	31409.99
589.77	31784.48
589.93	31435.74
590.08	31665.11
590.24	31541.06
590.40	31433.39
590.56	31445.10
590.72	31213.38
590.88	31145.51
591.04	31393.61
591.20	31555.10
591.35	32060.66
591.51	31800.86
591.67	31531.70
591.83	31950.65
591.99	31999.80
592.15	31569.15
592.31	31892.14
592.46	31583.19
592.62	31948.31
592.78	31562.12
592.94	31819.58
593.10	31630.00
593.26	31693.19
593.41	32020.87
593.57	32044.27
593.73	31751.71
593.89	31967.04
594.05	31906.18
594.20	31304.67
594.36	31557.44
594.52	31381.90
594.68	31456.80
594.84	31386.58
594.99	31725.96
595.15	31866.39
595.31	31665.11
595.47	31721.28
595.62	31704.90
595.78	31342.11
595.94	31143.17
596.10	31498.93
596.25	31365.52
596.41	31365.52
596.57	31323.39
596.73	31985.76
596.88	31737.66
597.04	31683.83
597.20	32093.43
597.36	31981.08
597.51	31674.47
597.67	31510.63
597.83	31571.49
597.99	31658.09
598.14	31587.87
598.30	31424.03
598.46	32004.49
598.61	32173.00
598.77	31204.02
598.93	32137.90
599.09	32102.79
599.24	32041.93
599.40	31721.28
599.56	32065.34
599.71	31768.09
599.87	31791.50
600.03	31543.40
600.18	31810.22
600.34	31772.77
600.50	31688.51
600.65	31812.56
600.81	31871.07
600.97	31395.95
601.12	32102.79
601.28	32215.13
601.44	31814.90
601.59	31894.48
601.75	31477.86
601.91	31620.64
602.06	31931.93
602.22	31894.48
602.37	31817.24
602.53	31250.83
602.69	31924.91
602.84	31360.84
603.00	31800.86
603.16	32072.36
603.31	31686.17
603.47	31892.14
603.62	31473.18
603.78	31690.85
603.94	31435.74
604.09	31786.82
604.25	31812.56
604.40	31285.94
604.56	31723.62
604.71	31718.94
604.87	31672.13
605.03	31482.55
605.18	31669.79
605.34	31587.87
605.49	31409.99
605.65	31740.00
605.80	31473.18
605.96	31527.02
606.12	31627.66
606.27	32201.09
606.43	31597.23
606.58	31791.50
606.74	31901.50
606.89	31672.13
607.05	31770.43
607.20	31742.35
607.36	31681.49
607.51	31480.21
607.67	31477.86
607.82	31400.63
607.98	31791.50
608.13	31995.12
608.29	31400.63
608.44	31477.86
608.60	31866.39
608.75	31604.25
608.91	31826.60
609.06	31608.93
609.22	31297.64
609.37	31208.70
609.53	31552.76
609.68	31878.10
609.84	31110.40
609.99	31241.47
610.15	31480.21
610.30	31346.79
610.46	31751.71
610.61	31964.70
610.76	31763.41
610.92	32737.07
611.07	32205.77
611.23	32481.95
611.38	32395.35
611.54	32378.97
611.69	31796.18
611.84	31716.60
612.00	31592.55
612.15	31405.31
612.31	31688.51
612.46	31400.63
612.62	31873.42
612.77	31559.78
612.92	31700.22
613.08	31335.09
613.23	31349.14
613.39	31084.65
613.54	31103.38
613.69	31180.62
613.85	30878.69
614.00	31042.53
614.15	31257.85
614.31	31206.36
614.46	31288.28
614.62	30796.77
614.77	31225.09
614.92	31185.30
615.08	31229.77
615.23	30925.50
615.38	31079.97
615.54	30607.19
615.69	31213.38
615.84	30728.89
616.00	30960.61
616.15	30845.92
616.30	30850.60
616.46	30850.60
616.61	31026.14
616.76	31056.57
616.92	30888.05
617.07	30546.33
617.22	30916.14
617.37	30733.57
617.53	30682.08
617.68	30457.39
617.83	30356.75
617.99	30216.32
618.14	30859.96
618.29	30639.95
618.45	30223.34
618.60	30558.03
618.75	30607.19
618.90	30654.00
619.06	30962.95
619.21	30579.10
619.36	30747.62
619.51	30141.42
619.67	30029.07
619.82	30162.48
619.97	30333.34
620.12	29961.20
620.28	30338.02
620.43	30438.67
620.58	30508.88
620.73	30291.21
620.89	30075.88
621.04	30265.47
621.19	30361.43
621.34	30129.72
621.49	30134.40
621.65	29907.37
621.80	30309.94
621.95	30323.98
622.10	30614.21
622.25	30045.46
622.41	30300.58
622.56	30356.75
622.71	30352.07
622.86	30052.48
623.01	30316.96
623.16	30323.98
623.32	29668.63
623.47	30518.25
623.62	30298.23
623.77	30113.33
623.92	30050.14
624.07	29666.29
624.23	29977.58
624.38	30366.11
624.53	29970.56
624.68	29834.81
624.83	30199.93
624.98	30225.68
625.13	29797.36
625.29	30232.70
625.44	29778.64
625.59	29912.05
625.74	29713.10
625.89	29579.69
626.04	29642.88
626.19	29724.80
626.34	29734.17
626.49	29708.42
626.65	29345.64
626.80	29790.34
626.95	29998.65
627.10	29818.42
627.25	29848.85
627.40	29802.04
627.55	29537.56
627.70	29511.81
627.85	29682.67
628.00	29457.98
628.15	29553.94
628.30	29415.85
628.45	29738.85
628.60	29216.91
628.76	29254.36
628.91	29390.11
629.06	29579.69
629.21	29654.59
629.36	29347.98
629.51	29294.14
629.66	29462.66
629.81	29106.90
629.96	29036.69
630.11	29235.63
630.26	29565.65
630.41	28971.15
630.56	29340.96
630.71	29490.75
630.86	29202.86
631.01	29291.80
631.16	29542.24
631.31	28994.56
631.46	28973.49
631.61	29151.37
631.76	29233.29
631.91	28936.04
632.06	28636.45
632.21	28802.63
632.36	28662.20
632.51	28491.34
632.66	28830.72
632.81	28877.53
632.96	28882.21
633.10	28751.14
633.25	29235.63
633.40	28936.04
633.55	28907.96
633.70	28837.74
633.85	28692.63
634.00	28603.69
634.15	28299.42
634.30	28577.94
634.45	28531.13
634.60	28491.34
634.75	28678.58
634.90	28676.24
635.05	28418.78
635.19	28690.29
635.34	28596.67
635.49	28718.37
635.64	28713.69
635.79	28294.74
635.94	28320.48
636.09	28547.51
636.24	28371.97
636.39	28287.71
636.53	28369.63
636.68	28460.91
636.83	28236.22
636.98	28657.52
637.13	28280.69
637.28	28299.42
637.43	28371.97
637.57	28283.03
637.72	28393.04
637.87	28568.58
638.02	28144.94
638.17	28563.90
638.32	28294.74
638.46	28313.46
638.61	27988.13
638.76	28032.60
638.91	28053.66
639.06	28554.54
639.20	28416.44
639.35	28414.10
639.50	27866.42
639.65	28404.74
639.80	28180.05
639.94	28233.88
640.09	27981.10
640.24	28121.54
640.39	27988.13
640.54	27901.53
640.68	27943.66
640.83	27946.00
640.98	27955.36
641.13	27950.68
641.27	28030.26
641.42	27534.06
641.57	27938.97
641.72	28121.54
641.86	27859.40
642.01	28093.45
642.16	27803.22
642.31	27592.58
642.45	27772.80
642.60	27620.66
642.75	27515.34
642.90	27725.99
643.04	27328.10
643.19	27250.86
643.34	27744.71
643.48	27522.36
643.63	27555.13
643.78	27812.59
643.93	27651.09
644.07	27875.78
644.22	27735.35
644.37	27784.50
644.51	27623.00
644.66	27686.20
644.81	27433.42
644.95	27758.75
645.10	27531.72
645.25	27339.80
645.39	27552.79
645.54	27704.92
645.69	27580.87
645.83	27529.38
645.98	27665.13
646.13	27534.06
646.27	27323.41
646.42	27112.77
646.57	27314.05
646.71	27527.04
646.86	27084.68
647.00	27180.64
647.15	27274.26
647.30	27147.87
647.44	27295.33
647.59	27255.54
647.74	26969.99
647.88	27171.28
648.03	27154.90
648.17	27564.49
648.32	26965.31
648.47	27138.51
648.61	26951.27
648.76	27192.34
648.90	27016.80
649.05	27124.47
649.20	26953.61
649.34	26895.10
649.49	27115.11
649.63	27075.32
649.78	27323.41
649.92	26850.63
650.07	27290.65
650.21	27175.96
650.36	27395.97
650.51	27358.52
650.65	27005.10
650.80	27536.40
650.94	27215.75
651.09	26946.59
651.23	26934.88
651.38	26813.18
651.52	26749.98
651.67	26686.79
651.81	26787.43
651.96	26909.14
652.10	26698.49
652.25	26864.67
652.39	27028.51
652.54	26867.01
652.68	27119.79
652.83	26925.52
652.97	26815.52
653.12	26895.10
653.26	26689.13
653.41	27108.08
653.55	26434.01
653.70	26675.09
653.84	26749.98
653.99	26464.44
654.13	26670.40
654.27	26520.61
654.42	26611.89
654.56	26267.83
654.71	26398.90
654.85	26740.62
655.00	26665.72
655.14	26647.00
655.29	26408.26
655.43	26780.41
655.57	26686.79
655.72	26300.60
655.86	26305.28
656.01	26361.45
656.15	26525.29
656.30	26143.78
656.44	26314.64
656.58	26272.51
656.73	26092.29
656.87	26459.76
657.01	26419.97
657.16	26356.77
657.30	26288.90
657.45	26469.12
657.59	26106.34
657.73	26146.12
657.88	25678.02
658.02	26040.80
658.16	26040.80
658.31	25963.56
658.45	25991.65
658.60	25720.15
658.74	26171.87
658.88	25907.39
659.03	25797.38
659.17	25755.26
659.31	25923.77
659.46	26038.46
659.60	25837.17
659.74	26005.69
659.89	25881.64
660.03	25745.89
660.17	25846.54
660.32	25701.42
660.46	25610.14
660.60	25544.61
660.74	25661.63
660.89	25593.76
661.03	24968.84
661.17	25186.50
661.32	25439.28
661.46	25277.79
661.60	25750.57
661.74	25364.39
661.89	25823.13
662.03	25455.67
662.17	25514.18
662.31	25163.10
662.46	25486.09
662.60	25228.63
662.74	25207.57
662.88	25022.67
663.03	24900.96
663.17	24952.45
663.31	24891.60
663.45	25441.62
663.60	25242.68
663.74	24870.53
663.88	24629.46
664.02	25081.18
664.17	24826.06
664.31	25207.57
664.45	24893.94
664.59	24725.42
664.73	24844.79
664.88	24929.05
665.02	24386.04
665.16	24254.97
665.30	24627.12
665.44	24390.72
665.59	24390.72
665.73	24245.61
665.87	24109.86
666.01	24294.76
666.15	24301.78
666.29	24613.07
666.44	24348.59
666.58	24381.36
666.72	24283.06
666.86	24372.00
667.00	24458.60
667.14	24180.07
667.28	23974.11
667.43	24301.78
667.57	24247.95
667.71	24009.22
667.85	23892.19
667.99	23934.32
668.13	23931.98
668.27	23627.71
668.41	23943.68
668.56	23924.96
668.70	24074.75
668.84	23880.49
668.98	23616.01
669.12	23735.37
669.26	23887.51
669.40	23550.47
669.54	23442.81
669.68	23190.03
669.82	23566.85
669.96	23608.98
670.10	23126.83
670.25	22986.40
670.39	23321.10
670.53	23037.89
670.67	23014.49
670.81	23110.45
670.95	23147.90
671.09	23208.75
671.23	23225.14
671.37	23192.37
671.51	23267.27
671.65	22958.31
671.79	23260.24
671.93	22991.08
672.07	23054.28
672.21	22712.56
672.35	22951.29
672.49	22909.16
672.63	22607.23
672.77	22583.83
672.91	22712.56
673.05	22480.85
673.19	22328.71
673.33	22911.50
673.47	22719.58
673.61	22768.73
673.75	22897.46
673.89	22703.20
674.03	22391.91
674.17	22277.22
674.31	22279.56
674.45	21937.84
674.59	21853.58
674.73	21937.84
674.87	22036.14
675.01	21750.60
675.15	21923.80
675.29	21774.00
675.43	21762.30
675.56	21827.84
675.70	21607.83
675.84	21635.91
675.98	21439.31
676.12	21640.59
676.26	21612.51
676.40	21429.94
676.54	21956.57
676.68	21326.96
676.82	20940.77
676.96	20985.24
677.10	21076.52
677.23	21036.74
677.37	20802.68
677.51	21109.29
677.65	20912.69
677.79	20889.28
677.93	21053.12
678.07	20713.74
678.21	20858.85
678.34	20725.44
678.48	20776.94
678.62	20411.81
678.76	20751.19
678.90	20325.21
679.04	20301.81
679.18	20343.94
679.31	20201.16
679.45	20020.94
679.59	19999.88
679.73	20128.61
679.87	20180.10
680.00	19803.27
680.14	19702.63
680.28	19648.80
680.42	19894.55
680.56	20088.82
680.70	19971.79
680.83	19412.40
680.97	19763.48
681.11	19491.98
681.25	19569.22
681.39	19358.57
681.52	19269.63
681.66	19108.13
681.80	18960.68
681.94	18963.02
682.07	18918.55
682.21	18813.23
682.35	18513.64
682.49	18869.40
682.62	18689.18
682.76	18693.86
682.90	18764.07
683.04	18511.30
683.17	18607.26
683.31	18614.28
683.45	18555.77
683.59	18857.70
683.72	18604.92
683.86	18324.05
684.00	18237.45
684.13	18331.08
684.27	18092.34
684.41	18075.96
684.55	18155.54
684.68	18054.89
684.82	17745.94
684.96	17647.64
685.09	17764.67
685.23	17923.82
685.37	17902.76
685.50	17862.97
685.64	17869.99
685.78	17682.75
685.91	17680.41
686.05	17528.27
686.19	17359.75
686.32	17554.02
686.46	17104.64
686.60	17022.72
686.73	17064.85
686.87	17144.42
687.01	17149.11
687.14	17259.11
687.28	17050.80
687.42	16868.24
687.55	16786.32
687.69	17057.82
687.82	16435.24
687.96	16812.07
688.10	16570.99
688.23	16549.93
688.37	16587.38
688.50	16702.06
688.64	16648.23
688.78	16348.64
688.91	16343.96
689.05	16196.51
689.18	15915.64
689.32	15892.24
689.46	15946.07
689.59	16053.73
689.73	15983.52
689.86	15826.70
690.00	15281.36
690.13	15770.53
690.27	15861.81
690.41	15939.05
690.54	15510.73
690.68	15382.00
690.81	15653.50
690.95	15506.05
691.08	15704.99
691.22	15339.87
691.35	15377.32
691.49	15126.88
691.62	15295.40
691.76	15201.78
691.89	14782.82
692.03	14630.69
692.16	14930.28
692.30	14782.82
692.43	14719.63
692.57	14588.56
692.70	14628.35
692.84	14675.16
692.97	14609.62
693.11	14530.05
693.24	14679.84
693.38	14684.52
693.51	14590.90
693.65	14263.22
693.78	14438.76
693.92	14349.82
694.05	14207.05
694.19	14232.80
694.32	14125.13
694.45	13921.51
694.59	14052.58
694.72	13710.86
694.86	13720.22
694.99	13771.71
695.13	13846.61
695.26	13554.04
695.39	13385.52
695.53	13610.22
695.66	13668.73
695.80	13507.23
695.93	13486.17
696.07	13329.35
696.20	13282.54
696.33	13184.24
696.47	13418.29
696.60	13118.70
696.73	13287.22
696.87	12978.27
697.00	13125.72
697.14	13018.06
697.27	12587.40
697.40	12781.67
697.54	12519.53
697.67	12561.66
697.80	12594.42
697.94	12418.88
698.07	12407.18
698.21	12470.37
698.34	12615.49
698.47	12510.16
698.61	12285.47
698.74	12091.21
698.87	12549.95
699.01	12028.01
699.14	12016.31
699.27	11948.43
699.40	12250.36
699.54	11901.62
699.67	11822.05
699.80	11674.59
699.94	11536.50
700.07	11520.12
700.20	11651.19
700.34	11421.81
700.47	11751.83
700.60	11531.82
700.73	11770.55
700.87	11346.92
701.00	11265.00
701.13	11442.88
701.26	11403.09
701.40	11363.30
701.53	11239.25
701.66	11562.25
701.79	11318.83
701.93	11023.92
702.06	11138.61
702.19	10789.87
702.32	10895.19
702.46	10677.52
702.59	10691.57
702.72	10558.16
702.85	10869.45
702.99	10630.71
703.12	10750.08
703.25	10621.35
703.38	10469.22
703.51	10492.62
703.65	10483.26
703.78	10581.56
703.91	10499.64
704.04	10427.09
704.17	10546.45
704.31	10335.81
704.44	10345.17
704.57	10141.54
704.70	10066.64
704.83	10038.56
704.96	10019.83
705.10	9853.66
705.23	9874.72
>>>>>End Processed Spectral Data<<<<<
