SpectraSuite Data File
++++++++++++++++++++++++++++++++++++
Date: Fri Oct 04 11:39:14 GMT-05:00 2013
User: price-jones
Dark Spectrum Present: No
Reference Spectrum Present: No
Number of Sampled Component Spectra: 1
Spectrometers: USB2+H05261
Integration Time (usec): 100000 (USB2+H05261)
Spectra Averaged: 1 (USB2+H05261)
Boxcar Smoothing: 0 (USB2+H05261)
Correct for Electrical Dark: No (USB2+H05261)
Strobe/Lamp Enabled: No (USB2+H05261)
Correct for Detector Non-linearity: No (USB2+H05261)
Correct for Stray Light: No (USB2+H05261)
Number of Pixels in Processed Spectrum: 2048
>>>>>Begin Processed Spectral Data<<<<<
365.73	0.00
365.92	0.00
366.12	0.00
366.32	0.00
366.52	0.00
366.72	0.00
366.91	0.00
367.11	0.00
367.31	0.00
367.51	0.00
367.70	0.00
367.90	0.00
368.10	0.00
368.30	0.00
368.49	0.00
368.69	0.00
368.89	0.00
369.09	0.00
369.28	0.00
369.48	0.00
369.68	11.70
369.87	18.72
370.07	0.00
370.27	44.47
370.47	100.64
370.66	121.71
370.86	184.90
371.06	156.82
371.25	238.73
371.45	135.75
371.65	203.63
371.84	212.99
372.04	191.92
372.24	203.63
372.44	191.92
372.63	243.42
372.83	224.69
373.03	196.60
373.22	234.05
373.42	250.44
373.62	248.10
373.81	285.55
374.01	205.97
374.21	400.23
374.40	341.72
374.60	243.42
374.79	262.14
374.99	278.52
375.19	308.95
375.38	234.05
375.58	306.61
375.78	278.52
375.97	285.55
376.17	238.73
376.37	273.84
376.56	252.78
376.76	231.71
376.95	276.18
377.15	299.59
377.35	304.27
377.54	299.59
377.74	301.93
377.93	276.18
378.13	220.01
378.33	327.68
378.52	330.02
378.72	271.50
378.91	248.10
379.11	287.89
379.31	381.51
379.50	292.57
379.70	276.18
379.89	313.63
380.09	304.27
380.28	325.33
380.48	280.86
380.68	266.82
380.87	297.25
381.07	332.36
381.26	285.55
381.46	322.99
381.65	332.36
381.85	346.40
382.04	273.84
382.24	264.48
382.43	262.14
382.63	334.70
382.83	301.93
383.02	318.31
383.22	397.89
383.41	418.96
383.61	379.17
383.80	318.31
384.00	351.08
384.19	297.25
384.39	276.18
384.58	379.17
384.78	315.97
384.97	388.53
385.17	351.08
385.36	241.08
385.56	374.49
385.75	304.27
385.95	393.21
386.14	423.64
386.34	334.70
386.53	322.99
386.72	287.89
386.92	344.06
387.11	374.49
387.31	348.74
387.50	416.62
387.70	330.02
387.89	358.10
388.09	365.12
388.28	430.66
388.48	355.76
388.67	400.23
388.86	461.09
389.06	411.93
389.25	390.87
389.45	367.46
389.64	409.59
389.84	440.02
390.03	404.91
390.22	433.00
390.42	402.57
390.61	486.83
390.81	346.40
391.00	404.91
391.19	421.30
391.39	475.13
391.58	425.98
391.78	442.36
391.97	411.93
392.16	428.32
392.36	475.13
392.55	435.34
392.75	400.23
392.94	351.08
393.13	461.09
393.33	425.98
393.52	418.96
393.71	526.62
393.91	388.53
394.10	421.30
394.29	484.49
394.49	461.09
394.68	528.96
394.88	470.45
395.07	425.98
395.26	503.22
395.46	496.19
395.65	514.92
395.84	425.98
396.04	568.75
396.23	519.60
396.42	423.64
396.62	507.90
396.81	500.87
397.00	571.09
397.19	510.24
397.39	568.75
397.58	617.90
397.77	512.58
397.97	507.90
398.16	540.66
398.35	671.73
398.55	606.20
398.74	554.71
398.93	638.97
399.12	580.45
399.32	503.22
399.51	557.05
399.70	582.79
399.90	688.12
400.09	653.01
400.28	638.97
400.47	685.78
400.67	657.69
400.86	634.29
401.05	655.35
401.24	617.90
401.44	622.58
401.63	634.29
401.82	592.16
402.01	620.24
402.21	695.14
402.40	650.67
402.59	622.58
402.78	620.24
402.97	657.69
403.17	627.26
403.36	655.35
403.55	716.20
403.74	678.76
403.93	730.25
404.13	758.33
404.32	835.57
404.51	725.57
404.70	763.01
404.89	788.76
405.09	744.29
405.28	671.73
405.47	760.67
405.66	770.04
405.85	866.00
406.05	744.29
406.24	718.54
406.43	861.32
406.62	814.51
406.81	826.21
407.00	826.21
407.20	851.96
407.39	849.61
407.58	781.74
407.77	945.58
407.96	844.93
408.15	816.85
408.34	896.43
408.54	931.53
408.73	931.53
408.92	992.39
409.11	912.81
409.30	830.89
409.49	866.00
409.68	816.85
409.87	880.04
410.07	940.90
410.26	990.05
410.45	924.51
410.64	903.45
410.83	903.45
411.02	987.71
411.21	1011.11
411.40	959.62
411.59	917.49
411.78	1104.73
411.98	1025.15
412.17	999.41
412.36	1050.90
412.55	1128.14
412.74	1163.25
412.93	1081.33
413.12	1128.14
413.31	1097.71
413.50	1139.84
413.69	1146.86
413.88	1137.50
414.07	1132.82
414.26	1200.69
414.45	1174.95
414.64	1221.76
414.83	1275.59
415.02	1289.64
415.22	1240.48
415.41	1219.42
415.60	1233.46
415.79	1303.68
415.98	1231.12
416.17	1313.04
416.36	1324.74
416.55	1373.89
416.74	1287.29
416.93	1352.83
417.12	1399.64
417.31	1320.06
417.50	1338.79
417.69	1446.45
417.88	1507.30
418.07	1359.85
418.26	1313.04
418.45	1373.89
418.64	1390.28
418.83	1322.40
419.02	1504.96
419.21	1495.60
419.39	1493.26
419.58	1437.09
419.77	1437.09
419.96	1497.94
420.15	1479.22
420.34	1448.79
420.53	1460.49
420.72	1544.75
420.91	1540.07
421.10	1502.62
421.29	1556.46
421.48	1509.65
421.67	1530.71
421.86	1530.71
422.05	1561.14
422.24	1486.24
422.43	1497.94
422.61	1593.90
422.80	1495.60
422.99	1514.33
423.18	1565.82
423.37	1638.38
423.56	1593.90
423.75	1579.86
423.94	1537.73
424.13	1549.43
424.32	1563.48
424.50	1699.23
424.69	1629.01
424.88	1643.06
425.07	1570.50
425.26	1621.99
425.45	1629.01
425.64	1706.25
425.83	1624.33
426.01	1614.97
426.20	1598.59
426.39	1673.48
426.58	1610.29
426.77	1710.93
426.96	1692.21
427.15	1638.38
427.33	1706.25
427.52	1661.78
427.71	1717.95
427.90	1607.95
428.09	1680.50
428.28	1689.87
428.46	1715.61
428.65	1802.21
428.84	1811.57
429.03	1736.68
429.22	1696.89
429.40	1650.08
429.59	1834.98
429.78	1783.49
429.97	1757.74
430.16	1778.81
430.34	1790.51
430.53	1895.83
430.72	1865.41
430.91	1851.36
431.10	1914.56
431.28	1830.30
431.47	1928.60
431.66	1900.52
431.85	1858.39
432.03	1947.33
432.22	1998.82
432.41	1891.15
432.60	1830.30
432.79	1991.80
432.97	1954.35
433.16	1877.11
433.35	1989.46
433.54	1973.07
433.72	2022.22
433.91	2005.84
434.10	2008.18
434.28	1977.75
434.47	1966.05
434.66	1996.48
434.85	2078.40
435.03	2218.83
435.22	2139.25
435.41	2476.29
435.59	2469.27
435.78	2225.85
435.97	2087.76
436.16	2174.36
436.34	2087.76
436.53	2132.23
436.72	2204.78
436.90	2118.18
437.09	2139.25
437.28	2139.25
437.46	2174.36
437.65	2111.16
437.84	2251.60
438.02	2160.31
438.21	2190.74
438.40	2153.29
438.58	2267.98
438.77	2277.34
438.96	2242.23
439.14	2272.66
439.33	2214.15
439.52	2333.51
439.70	2307.77
439.89	2298.41
440.08	2342.88
440.26	2333.51
440.45	2340.54
440.63	2581.61
440.82	2513.74
441.01	2333.51
441.19	2424.80
441.38	2480.97
441.57	2359.26
441.75	2499.69
441.94	2661.19
442.12	2495.01
442.31	2572.25
442.50	2560.55
442.68	2616.72
442.87	2621.40
443.05	2555.86
443.24	2719.70
443.43	2792.26
443.61	2633.10
443.80	2717.36
443.98	2698.64
444.17	2602.68
444.35	2677.57
444.54	2724.38
444.73	2640.12
444.91	2679.91
445.10	2710.34
445.28	2729.06
445.47	2560.55
445.65	2679.91
445.84	2843.75
446.02	2766.51
446.21	2686.94
446.39	2729.06
446.58	2796.94
446.77	2789.92
446.95	2787.58
447.14	2846.09
447.32	2752.47
447.51	2799.28
447.69	2689.28
447.88	2871.84
448.06	2677.57
448.25	2745.45
448.43	2757.15
448.62	2806.30
448.80	2747.79
448.99	2708.00
449.17	2715.02
449.36	2717.36
449.54	2743.11
449.73	2796.94
449.91	2846.09
450.10	2839.07
450.28	2970.14
450.46	2885.88
450.65	2810.98
450.83	2848.43
451.02	2902.26
451.20	2918.65
451.39	2867.16
451.57	2939.71
451.76	2773.53
451.94	2988.86
452.13	2897.58
452.31	2895.24
452.49	3012.27
452.68	2956.10
452.86	2897.58
453.05	2888.22
453.23	2918.65
453.42	3068.44
453.60	3002.91
453.78	2935.03
453.97	3063.76
454.15	3089.51
454.34	3112.91
454.52	3126.96
454.70	3101.21
454.89	3103.55
455.07	3066.10
455.26	3112.91
455.44	3232.28
455.62	3075.46
455.81	3073.12
455.99	3185.47
456.17	3232.28
456.36	3246.32
456.54	3272.07
456.73	3218.24
456.91	3295.47
457.09	3353.99
457.28	3253.34
457.46	3295.47
457.64	3342.28
457.83	3339.94
458.01	3321.22
458.19	3316.54
458.38	3342.28
458.56	3400.80
458.74	3389.10
458.93	3459.31
459.11	3370.37
459.29	3435.91
459.48	3534.21
459.66	3517.83
459.84	3445.27
460.03	3541.23
460.21	3452.29
460.39	3400.80
460.57	3442.93
460.76	3478.04
460.94	3534.21
461.12	3506.12
461.31	3662.94
461.49	3496.76
461.67	3646.55
461.85	3599.74
462.04	3583.36
462.22	3674.64
462.40	3665.28
462.59	3592.72
462.77	3571.66
462.95	3588.04
463.13	3674.64
463.32	3700.39
463.50	3613.79
463.68	3859.54
463.86	3779.97
464.05	3744.86
464.23	3674.64
464.41	3808.05
464.59	3630.17
464.78	3754.22
464.96	3819.75
465.14	3730.81
465.32	3782.31
465.50	3845.50
465.69	3786.99
465.87	3819.75
466.05	3941.46
466.23	3805.71
466.41	3857.20
466.60	3878.27
466.78	3885.29
466.96	3707.41
467.14	3822.09
467.32	3892.31
467.51	4011.68
467.69	3829.12
467.87	3859.54
468.05	3964.87
468.23	3857.20
468.41	3878.27
468.60	3957.85
468.78	3967.21
468.96	3819.75
469.14	4018.70
469.32	3918.06
469.50	3904.01
469.69	3974.23
469.87	4067.85
470.05	4114.66
470.23	4152.11
470.41	3964.87
470.59	4074.87
470.77	4205.94
470.95	4056.15
471.14	4173.18
471.32	4149.77
471.50	4313.61
471.68	4077.21
471.86	4341.69
472.04	4273.82
472.22	4341.69
472.40	4318.29
472.58	4243.39
472.77	4341.69
472.95	4463.40
473.13	4493.83
473.31	4447.02
473.49	4271.48
473.67	4278.50
473.85	4610.86
474.03	4550.00
474.21	4568.73
474.39	4631.92
474.57	4603.83
474.75	4557.02
474.93	4727.88
475.12	4681.07
475.30	4617.88
475.48	4608.51
475.66	4716.18
475.84	4667.03
476.02	4795.76
476.20	4669.37
476.38	4926.83
476.56	5085.98
476.74	4954.91
476.92	4936.19
477.10	4931.51
477.28	4952.57
477.46	5001.72
477.64	5081.30
477.82	5088.32
478.00	5135.14
478.18	5334.08
478.36	5273.23
478.54	5289.61
478.72	5256.84
478.90	5401.96
479.08	5263.86
479.26	5504.94
479.44	5551.75
479.62	5558.77
479.80	5556.43
479.98	5509.62
480.16	5743.67
480.34	5839.64
480.52	5830.27
480.70	5598.56
480.88	5689.84
481.06	5893.47
481.24	5870.06
481.41	5844.32
481.59	6071.35
481.77	6155.61
481.95	6066.67
482.13	6054.97
482.31	5996.45
482.49	6274.98
482.67	6106.46
482.85	6221.14
483.03	6272.64
483.21	6387.32
483.39	6712.66
483.57	6387.32
483.74	6480.94
483.92	6614.35
484.10	6494.99
484.28	6480.94
484.46	6736.06
484.64	6923.30
484.82	6857.77
485.00	6857.77
485.18	6766.49
485.35	6970.12
485.53	6841.39
485.71	7073.10
485.89	7162.04
486.07	7056.72
486.25	7243.96
486.43	7297.79
486.61	7342.26
486.78	7466.31
486.96	7482.69
487.14	7604.40
487.32	7379.71
487.50	7470.99
487.68	7681.64
487.85	7763.56
488.03	7693.34
488.21	7925.05
488.39	7756.54
488.57	7948.46
488.75	8023.36
488.92	8404.86
489.10	8006.97
489.28	8271.45
489.46	8201.24
489.64	8142.72
489.81	8346.35
489.99	8456.36
490.17	8437.63
490.35	8826.16
490.53	8774.67
490.70	8711.47
490.88	8617.85
491.06	8652.96
491.24	8620.19
491.41	8823.82
491.59	8678.71
491.77	9013.40
491.95	9116.39
492.13	9029.79
492.30	9001.70
492.48	9128.09
492.66	9252.14
492.84	9121.07
493.01	9355.12
493.19	9273.20
493.37	9479.17
493.54	9317.67
493.72	9605.56
493.90	9432.36
494.08	9607.90
494.25	9589.17
494.43	9713.22
494.61	9853.66
494.79	9942.60
494.96	9912.17
495.14	9781.10
495.32	10122.82
495.49	10085.37
495.67	10120.48
495.85	9944.94
496.02	10183.67
496.20	10228.14
496.38	10382.62
496.55	10335.81
496.73	10452.83
496.91	10457.51
497.09	10373.25
497.26	10621.35
497.44	10846.04
497.62	10359.21
497.79	10794.55
497.97	10539.43
498.14	10775.83
498.32	10965.41
498.50	10700.93
498.67	11152.65
498.85	11030.94
499.03	11077.76
499.20	10909.24
499.38	11063.71
499.56	11293.08
499.73	11389.05
499.91	11131.59
500.08	11304.79
500.26	11309.47
500.44	11372.66
500.61	11250.96
500.79	11257.98
500.97	11393.73
501.14	11634.80
501.32	11578.63
501.49	11609.06
501.67	11714.38
501.84	11688.64
502.02	11889.92
502.20	11674.59
502.37	12004.61
502.55	11918.01
502.72	11782.26
502.90	11845.45
503.07	11815.02
503.25	12109.93
503.43	11854.81
503.60	12238.66
503.78	12177.81
503.95	12065.46
504.13	12133.34
504.30	12297.17
504.48	12028.01
504.65	12339.30
504.83	12592.08
505.01	12404.84
505.18	12449.31
505.36	12362.71
505.53	12343.99
505.71	12514.84
505.88	12348.67
506.06	12400.16
506.23	12739.54
506.41	12610.81
506.58	12851.88
506.76	12781.67
506.93	13008.70
507.11	12774.64
507.28	12779.32
507.46	13008.70
507.63	12933.80
507.81	13013.38
507.98	12884.65
508.16	12959.55
508.33	13015.72
508.50	13022.74
508.68	13247.43
508.85	13378.50
509.03	13437.02
509.20	13294.24
509.38	13591.49
509.55	13406.59
509.73	13488.51
509.90	13336.37
510.08	13387.86
510.25	13523.62
510.42	13614.90
510.60	13682.77
510.77	13813.84
510.95	13912.14
511.12	13591.49
511.30	13738.94
511.47	13930.87
511.64	13741.29
511.82	13832.57
511.99	13860.65
512.17	14108.75
512.34	13965.98
512.51	14244.50
512.69	14120.45
512.86	14115.77
513.04	14061.94
513.21	14293.65
513.38	14136.84
513.56	14394.29
513.73	14288.97
513.90	14190.67
514.08	14361.53
514.25	14389.61
514.43	14600.26
514.60	14689.20
514.77	14415.36
514.95	14633.03
515.12	14555.79
515.29	14370.89
515.47	14710.27
515.64	14654.09
515.81	14663.46
515.99	14768.78
516.16	14998.15
516.33	14675.16
516.51	14988.79
516.68	14909.21
516.85	14984.11
517.03	14967.73
517.20	15000.49
517.37	15171.35
517.54	15145.61
517.72	15414.77
517.89	14824.95
518.06	14848.36
518.24	15236.89
518.41	15220.50
518.58	15253.27
518.75	15108.16
518.93	15342.21
519.10	15309.44
519.27	15440.51
519.45	15360.94
519.62	15309.44
519.79	15206.46
519.96	15517.75
520.14	15651.16
520.31	15424.13
520.48	15550.52
520.65	15520.09
520.83	15634.78
521.00	15894.58
521.17	15829.04
521.34	15585.63
521.52	15915.64
521.69	16006.92
521.86	15990.54
522.03	15798.62
522.20	16149.70
522.38	15988.20
522.55	15967.13
522.72	15850.11
522.89	16105.23
523.07	16325.24
523.24	16226.93
523.41	16166.08
523.58	16013.95
523.75	16264.38
523.92	16135.65
524.10	16538.23
524.27	16166.08
524.44	16636.53
524.61	16748.87
524.78	16683.34
524.96	16418.86
525.13	16383.75
525.30	16379.07
525.47	16414.18
525.64	16421.20
525.81	16601.42
525.98	16664.61
526.16	16596.74
526.33	16783.98
526.50	16791.00
526.67	16699.72
526.84	17003.99
527.01	16645.89
527.18	16980.59
527.36	16982.93
527.53	16957.18
527.70	17081.23
527.87	17209.96
528.04	16964.20
528.21	17240.39
528.38	17046.12
528.55	16882.28
528.72	16915.05
528.89	17041.44
529.07	17273.15
529.24	17231.02
529.41	17259.11
529.58	17092.93
529.75	17053.14
529.92	17268.47
530.09	17406.56
530.26	17378.48
530.43	17198.26
530.60	17219.32
530.77	17188.89
530.94	17687.43
531.11	17598.49
531.28	17128.04
531.46	17577.42
531.63	17607.85
531.80	17617.21
531.97	17408.90
532.14	17736.58
532.31	17621.89
532.48	17942.55
532.65	17771.69
532.82	17734.24
532.99	17549.34
533.16	17809.14
533.33	17734.24
533.50	17902.76
533.67	17937.87
533.84	17874.67
534.01	17682.75
534.18	18335.76
534.35	18366.18
534.52	17884.03
534.69	18230.43
534.86	18012.76
535.03	18155.54
535.20	17830.20
535.37	18345.12
535.54	18120.43
535.71	18279.58
535.88	18162.56
536.05	18286.61
536.22	18272.56
536.38	18338.10
536.55	18377.89
536.72	18457.46
536.89	18267.88
537.06	18532.36
537.23	18595.56
537.40	18338.10
537.57	18448.10
537.74	18429.38
537.91	18621.30
538.08	18611.94
538.25	18462.15
538.42	18501.93
538.59	18415.34
538.75	18134.47
538.92	18469.17
539.09	18735.99
539.26	18745.35
539.43	18581.51
539.60	18548.75
539.77	18813.23
539.94	19007.49
540.11	19030.90
540.28	18860.04
540.44	18780.46
540.61	18855.36
540.78	19239.20
540.95	18993.45
541.12	19260.27
541.29	19183.03
541.46	19267.29
541.62	19332.82
541.79	19211.12
541.96	19257.93
542.13	19325.80
542.30	19428.79
542.47	19386.66
542.63	19592.62
542.80	19679.22
542.97	19424.11
543.14	19688.59
543.31	19634.75
543.48	19384.32
543.64	19857.10
543.81	19726.04
543.98	19782.21
544.15	19545.81
544.32	19641.78
544.48	19894.55
544.65	19749.44
544.82	19545.81
544.99	19508.37
545.16	20020.94
545.32	19885.19
545.49	20404.79
545.66	20315.85
545.83	20580.33
546.00	20854.17
546.16	20058.39
546.33	20093.50
546.50	19866.47
546.67	19826.68
546.83	20016.26
547.00	19955.41
547.17	19651.14
547.34	19822.00
547.50	19812.63
547.67	20091.16
547.84	20042.01
548.00	19936.68
548.17	19814.98
548.34	19946.05
548.51	20276.06
548.67	19967.11
548.84	20245.63
549.01	20086.48
549.18	20245.63
549.34	20189.46
549.51	20156.69
549.68	19894.55
549.84	19798.59
550.01	20086.48
550.18	19976.47
550.34	19882.85
550.51	20369.68
550.68	20498.41
550.84	19917.96
551.01	20091.16
551.18	20032.65
551.34	20322.87
551.51	20205.84
551.68	20098.18
551.84	20449.26
552.01	19843.06
552.18	20130.95
552.34	20276.06
552.51	20236.27
552.68	20095.84
552.84	20421.17
553.01	20325.21
553.18	20283.08
553.34	20788.64
553.51	20507.77
553.67	20634.16
553.84	20327.55
554.01	20685.65
554.17	20215.21
554.34	20585.01
554.51	20262.02
554.67	20507.77
554.84	20732.47
555.00	20395.43
555.17	20760.55
555.33	20575.65
555.50	20435.22
555.67	20477.35
555.83	20645.87
556.00	20482.03
556.16	21090.57
556.33	20711.40
556.50	20798.00
556.66	20947.79
556.83	20570.97
556.99	20786.30
557.16	20823.75
557.32	20926.73
557.49	20891.62
557.65	20837.79
557.82	20739.49
557.98	20779.28
558.15	20922.05
558.32	20882.26
558.48	21050.78
558.65	20748.85
558.81	20929.07
558.98	20755.87
559.14	20994.61
559.31	20882.26
559.47	20973.54
559.64	20889.28
559.80	20664.59
559.97	21268.45
560.13	20774.60
560.30	20739.49
560.46	21102.27
560.63	20886.94
560.79	21102.27
560.96	20947.79
561.12	21198.23
561.29	20727.78
561.45	20753.53
561.61	21064.82
561.78	21561.02
561.94	21184.19
562.11	21111.63
562.27	21062.48
562.44	21153.76
562.60	20842.47
562.77	20828.43
562.93	21144.40
563.10	21411.22
563.26	20580.33
563.42	21488.46
563.59	21418.24
563.75	21003.97
563.92	21177.17
564.08	21088.23
564.24	20959.50
564.41	21095.25
564.57	21074.18
564.74	20793.32
564.90	20968.86
565.07	21275.47
565.23	21507.18
565.39	20978.22
565.56	21451.01
565.72	21111.63
565.88	21406.54
566.05	21046.10
566.21	21083.55
566.38	21341.00
566.54	21252.06
566.70	21378.45
566.87	21261.43
567.03	21191.21
567.19	21415.90
567.36	20936.09
567.52	21181.85
567.68	21071.84
567.85	20999.29
568.01	21123.33
568.17	21191.21
568.34	21673.36
568.50	21436.97
568.66	21303.56
568.83	21490.80
568.99	21298.88
569.15	21036.74
569.32	21273.13
569.48	21223.98
569.64	21432.29
569.81	21338.66
569.97	21287.17
570.13	21500.16
570.30	21172.49
570.46	21551.65
570.62	21226.32
570.78	21287.17
570.95	21219.30
571.11	21568.04
571.27	21198.23
571.43	21001.63
571.60	21572.72
571.76	21488.46
571.92	21341.00
572.09	21848.90
572.25	21305.90
572.41	21329.30
572.57	21811.45
572.74	21537.61
572.90	21455.69
573.06	21448.67
573.22	21610.17
573.38	21069.50
573.55	21685.06
573.71	21778.68
573.87	21907.41
574.03	21675.70
574.20	21378.45
574.36	21420.58
574.52	21441.65
574.68	21584.42
574.84	21542.29
575.01	21757.62
575.17	21795.07
575.33	21493.14
575.49	21502.50
575.65	21645.27
575.82	21546.97
575.98	21755.28
576.14	21582.08
576.30	21626.55
576.46	21535.27
576.62	21598.46
576.79	21443.99
576.95	21488.46
577.11	21481.44
577.27	21774.00
577.43	21776.34
577.59	21451.01
577.75	22026.78
577.92	21558.67
578.08	21593.78
578.24	21399.52
578.40	21778.68
578.56	21596.12
578.72	21565.70
578.88	21872.31
579.04	21703.79
579.21	21673.36
579.37	21830.18
579.53	21703.79
579.69	21755.28
579.85	21654.64
580.01	21844.22
580.17	21378.45
580.33	21614.85
580.49	21626.55
580.65	21837.20
580.82	21781.03
580.98	21568.04
581.14	21947.20
581.30	21804.43
581.46	21635.91
581.62	21865.28
581.78	21715.49
581.94	21565.70
582.10	21748.26
582.26	21942.52
582.42	21867.63
582.58	21865.28
582.74	21710.81
582.90	21802.09
583.06	22054.87
583.22	22031.46
583.38	21699.11
583.54	21745.92
583.70	21928.48
583.86	21640.59
584.02	21799.75
584.18	22153.17
584.34	21991.67
584.50	21797.41
584.66	21898.05
584.82	21661.66
584.98	21678.04
585.14	21673.36
585.30	21680.38
585.46	21582.08
585.62	21607.83
585.78	22033.80
585.94	21497.82
586.10	21869.97
586.26	22010.40
586.42	21935.50
586.58	21762.30
586.74	21991.67
586.90	21462.71
587.06	21818.47
587.22	22087.64
587.38	21975.29
587.54	21907.41
587.70	21968.27
587.86	22139.13
588.02	21809.11
588.18	21926.14
588.34	21916.78
588.49	21685.06
588.65	21963.59
588.81	21776.34
588.97	21905.07
589.13	21809.11
589.29	21689.74
589.45	22101.68
589.61	21935.50
589.77	22033.80
589.93	21820.81
590.08	21455.69
590.24	21774.00
590.40	21582.08
590.56	21979.97
590.72	21975.29
590.88	21795.07
591.04	21965.93
591.20	21867.63
591.35	22190.62
591.51	22356.80
591.67	22380.20
591.83	22174.24
591.99	22216.36
592.15	22017.42
592.31	22132.11
592.46	22019.76
592.62	21994.01
592.78	21605.49
592.94	22134.45
593.10	21900.39
593.26	22050.19
593.41	22441.06
593.57	22160.19
593.73	22405.95
593.89	22480.85
594.05	21895.71
594.20	21968.27
594.36	21621.87
594.52	21886.35
594.68	22050.19
594.84	21568.04
594.99	21986.99
595.15	22258.49
595.31	22380.20
595.47	22160.19
595.62	21902.73
595.78	22012.74
595.94	22099.34
596.10	22417.65
596.25	22026.78
596.41	22071.25
596.57	22017.42
596.73	22019.76
596.88	21956.57
597.04	21888.69
597.20	22197.64
597.36	22202.32
597.51	21930.82
597.67	21989.33
597.83	21940.18
597.99	22071.25
598.14	21797.41
598.30	22253.81
598.46	22127.42
598.61	22073.59
598.77	22375.52
598.93	22113.38
599.09	22382.54
599.24	22480.85
599.40	22202.32
599.56	22078.27
599.71	21958.91
599.87	21909.75
600.03	22242.11
600.18	22036.14
600.34	22295.94
600.50	21792.73
600.65	21806.77
600.81	22338.07
600.97	22092.32
601.12	22146.15
601.28	22314.67
601.44	22106.36
601.59	21898.05
601.75	22057.21
601.91	22221.05
602.06	22054.87
602.22	22230.41
602.37	21811.45
602.53	22431.69
602.69	22328.71
602.84	21631.23
603.00	22113.38
603.16	22359.14
603.31	22178.92
603.47	22448.08
603.62	22253.81
603.78	22232.75
603.94	22127.42
604.09	21975.29
604.25	22024.44
604.40	22326.37
604.56	21977.63
604.71	22052.53
604.87	22085.30
605.03	22319.35
605.18	21944.86
605.34	21942.52
605.49	22132.11
605.65	22321.69
605.80	21858.26
605.96	22136.79
606.12	22155.51
606.27	22038.48
606.43	22043.17
606.58	22349.78
606.74	22317.01
606.89	22143.81
607.05	22045.51
607.20	22017.42
607.36	21956.57
607.51	21921.46
607.67	22003.38
607.82	21692.08
607.98	22050.19
608.13	21453.35
608.29	21940.18
608.44	21902.73
608.60	22120.40
608.75	21680.38
608.91	21720.17
609.06	21771.66
609.22	22085.30
609.37	21944.86
609.53	22265.52
609.68	21935.50
609.84	22115.72
609.99	21860.60
610.15	21776.34
610.30	22050.19
610.46	22012.74
610.61	22265.52
610.76	22782.77
610.92	22698.52
611.07	23009.81
611.23	22410.63
611.38	22466.80
611.54	22298.28
611.69	22167.21
611.84	22216.36
612.00	22178.92
612.15	21898.05
612.31	22192.96
612.46	21986.99
612.62	21846.56
612.77	21921.46
612.92	21802.09
613.08	21757.62
613.23	21991.67
613.39	21963.59
613.54	21525.91
613.69	21673.36
613.85	21717.83
614.00	21453.35
614.15	21851.24
614.31	21834.86
614.46	21909.75
614.62	21926.14
614.77	21781.03
614.92	21392.50
615.08	21565.70
615.23	21406.54
615.38	21837.20
615.54	21645.27
615.69	21507.18
615.84	21561.02
616.00	21774.00
616.15	21256.75
616.30	21640.59
616.46	21610.17
616.61	21317.60
616.76	21799.75
616.92	21275.47
617.07	21387.82
617.22	21341.00
617.37	21088.23
617.53	21420.58
617.68	21507.18
617.83	21429.94
617.99	21488.46
618.14	21359.73
618.29	21525.91
618.45	21680.38
618.60	21460.37
618.75	21582.08
618.90	21298.88
619.06	21319.94
619.21	21172.49
619.36	21254.40
619.51	21036.74
619.67	21179.51
619.82	21326.96
619.97	21553.99
620.12	21415.90
620.28	21001.63
620.43	21259.09
620.58	21350.37
620.73	21216.96
620.89	21167.80
621.04	21254.40
621.19	21123.33
621.34	21144.40
621.49	20882.26
621.65	21179.51
621.80	21408.88
621.95	21359.73
622.10	21195.89
622.25	21432.29
622.41	20950.14
622.56	20765.23
622.71	21390.16
622.86	21109.29
623.01	21083.55
623.16	20929.07
623.32	20835.45
623.47	20659.91
623.62	21245.04
623.77	20898.64
623.92	21085.89
624.07	20910.35
624.23	20854.17
624.38	21022.69
624.53	20826.09
624.68	21137.38
624.83	21041.42
624.98	20762.89
625.13	21057.80
625.29	20989.92
625.44	20517.14
625.59	20826.09
625.74	20919.71
625.89	20507.77
626.04	20999.29
626.19	20882.26
626.34	20587.35
626.49	20615.44
626.65	20723.10
626.80	20702.04
626.95	20582.67
627.10	20531.18
627.25	20926.73
627.40	20697.36
627.55	20521.82
627.70	20514.80
627.85	20575.65
628.00	20879.92
628.15	20575.65
628.30	20547.56
628.45	20428.20
628.60	20568.63
628.76	20568.63
628.91	20573.31
629.06	20650.55
629.21	20535.86
629.36	20587.35
629.51	20247.97
629.66	20383.73
629.81	20276.06
629.96	20240.95
630.11	20362.66
630.26	20498.41
630.41	20514.80
630.56	20418.83
630.71	20615.44
630.86	20348.62
631.01	20486.71
631.16	20308.83
631.31	20189.46
631.46	20149.67
631.61	20112.22
631.76	20149.67
631.91	20109.88
632.06	20091.16
632.21	20332.23
632.36	20180.10
632.51	20039.67
632.66	20224.57
632.81	19805.61
632.96	19814.98
633.10	20105.20
633.25	20257.34
633.40	19920.30
633.55	20105.20
633.70	19723.69
633.85	20077.12
634.00	19892.21
634.15	20144.99
634.30	20065.41
634.45	20243.29
634.60	20027.96
634.75	20161.37
634.90	20163.72
635.05	20093.50
635.19	20053.71
635.34	20018.60
635.49	20140.31
635.64	19435.81
635.79	19824.34
635.94	19807.95
636.09	19882.85
636.24	19971.79
636.39	19793.91
636.53	19611.35
636.68	19550.49
636.83	19751.78
636.98	19751.78
637.13	19969.45
637.28	20072.43
637.43	19810.29
637.57	19978.81
637.72	19822.00
637.87	19590.28
638.02	19646.46
638.17	19915.62
638.32	19941.36
638.46	19611.35
638.61	19747.10
638.76	19616.03
638.91	19571.56
639.06	19601.99
639.20	19786.89
639.35	19922.64
639.50	19824.34
639.65	19613.69
639.80	19424.11
639.94	19641.78
640.09	19302.40
640.24	19440.49
640.39	19433.47
640.54	19271.97
640.68	19297.72
640.83	19047.28
640.98	19173.67
641.13	19407.72
641.27	19496.66
641.42	18981.74
641.57	19105.79
641.72	19190.05
641.86	18988.77
642.01	19147.92
642.16	19569.22
642.31	19154.94
642.45	19529.43
642.60	19407.72
642.75	19321.12
642.90	19365.59
643.04	19524.75
643.19	18948.98
643.34	19295.38
643.48	19337.51
643.63	19260.27
643.78	19030.90
643.93	19068.34
644.07	19058.98
644.22	18941.96
644.37	19080.05
644.51	19330.48
644.66	19077.71
644.81	19274.31
644.95	19047.28
645.10	18930.25
645.25	19105.79
645.39	19042.60
645.54	19190.05
645.69	19309.42
645.83	19314.10
645.98	19304.74
646.13	19447.51
646.27	19033.24
646.42	19012.17
646.57	19021.53
646.71	18937.27
646.86	19180.69
647.00	19110.47
647.15	18948.98
647.30	18899.83
647.44	18466.83
647.59	18754.71
647.74	18560.45
647.88	18984.09
648.03	19241.54
648.17	19014.51
648.32	18815.57
648.47	18993.45
648.61	18546.40
648.76	18925.57
648.90	18766.42
649.05	18789.82
649.20	19126.86
649.34	18977.06
649.49	18618.96
649.63	19023.87
649.78	18778.12
649.92	18747.69
650.07	18747.69
650.21	18817.91
650.36	18787.48
650.51	18888.12
650.65	18862.38
650.80	18670.45
650.94	18607.26
651.09	18651.73
651.23	18658.75
651.38	18986.43
651.52	18380.23
651.67	18820.25
651.81	18506.62
651.96	18583.85
652.10	18754.71
652.25	18628.32
652.39	18534.70
652.54	18717.26
652.68	18616.62
652.83	18726.63
652.97	18768.76
653.12	18871.74
653.26	18230.43
653.41	18335.76
653.55	18497.25
653.70	18167.24
653.84	18321.71
653.99	18274.90
654.13	18356.82
654.27	18232.77
654.42	18326.39
654.56	18338.10
654.71	18508.96
654.85	18242.14
655.00	18132.13
655.14	18366.18
655.29	18319.37
655.43	18260.86
655.57	18167.24
655.72	18422.36
655.86	18167.24
656.01	18338.10
656.15	18239.79
656.30	18462.15
656.44	18073.62
656.58	17977.65
656.73	18169.58
656.87	18174.26
657.01	18214.05
657.16	18331.08
657.30	18527.68
657.45	18202.35
657.59	18349.80
657.73	17848.93
657.88	18169.58
658.02	17738.92
658.16	17813.82
658.31	17886.37
658.45	17638.28
658.60	17907.44
658.74	17865.31
658.88	17647.64
659.03	17961.27
659.17	17888.71
659.31	18106.38
659.46	17884.03
659.60	17926.16
659.74	17970.63
659.89	17905.10
660.03	17724.88
660.17	17851.27
660.32	17680.41
660.46	17596.15
660.60	17736.58
660.74	17207.62
660.89	17706.15
661.03	17514.23
661.17	17905.10
661.32	17469.76
661.46	17633.60
661.60	17444.01
661.74	17179.53
661.89	17692.11
662.03	17687.43
662.17	17179.53
662.31	17324.65
662.46	17612.53
662.60	17633.60
662.74	17355.07
662.88	17394.86
663.03	17273.15
663.17	17603.17
663.31	17373.80
663.45	17479.12
663.60	17359.75
663.74	16966.54
663.88	17277.83
664.02	17277.83
664.17	17448.69
664.31	16950.16
664.45	17013.35
664.59	17334.01
664.73	17317.62
664.88	17069.53
665.02	17003.99
665.16	16870.58
665.30	16725.47
665.44	17146.76
665.59	16870.58
665.73	16926.75
665.87	16996.97
666.01	17003.99
666.15	16996.97
666.29	17158.47
666.44	16905.69
666.58	16779.30
666.72	16805.05
666.86	16910.37
667.00	16800.37
667.14	16561.63
667.28	16542.91
667.43	16414.18
667.57	16868.24
667.71	16662.27
667.85	16407.16
667.99	16559.29
668.13	16229.27
668.27	16416.52
668.41	16720.79
668.56	16219.91
668.70	16477.37
668.84	16746.53
668.98	16486.73
669.12	16650.57
669.26	16353.32
669.40	16709.08
669.54	16423.54
669.68	16549.93
669.82	16409.50
669.96	16208.21
670.10	16130.97
670.25	16156.72
670.39	16493.76
670.53	15992.88
670.67	16112.25
670.81	16222.25
670.95	16053.73
671.09	15946.07
671.23	15910.96
671.37	16102.89
671.51	15756.49
671.65	15852.45
671.79	15901.60
671.93	15815.00
672.07	15807.98
672.21	15665.21
672.35	15723.72
672.49	15501.37
672.63	15515.41
672.77	15763.51
672.91	15480.30
673.05	15805.64
673.19	15693.29
673.33	16065.44
673.47	15728.40
673.61	15742.44
673.75	15662.86
673.89	15475.62
674.03	15351.57
674.17	15342.21
674.31	15274.34
674.45	15229.87
674.59	15316.47
674.73	15140.93
674.87	15246.25
675.01	15171.35
675.15	15154.97
675.29	15033.26
675.43	15012.20
675.56	15028.58
675.70	15021.56
675.84	15037.94
675.98	14310.04
676.12	15009.86
676.26	14799.21
676.40	15087.09
676.54	14881.13
676.68	14527.71
676.82	14377.91
676.96	14471.53
677.10	14663.46
677.23	14670.48
677.37	14583.88
677.51	14513.66
677.65	14597.92
677.79	14188.33
677.93	14696.22
678.07	14380.25
678.21	14506.64
678.34	14307.69
678.48	14097.05
678.62	14106.41
678.76	14139.18
678.90	13870.01
679.04	13818.52
679.18	14026.83
679.31	13687.45
679.45	13933.21
679.59	13752.99
679.73	13935.55
679.87	13710.86
680.00	13830.23
680.14	13734.26
680.28	13507.23
680.42	13682.77
680.56	13722.56
680.70	13530.64
680.83	13591.49
680.97	13280.20
681.11	13760.01
681.25	13659.37
681.39	13322.33
681.52	13621.92
681.66	13184.24
681.80	13172.54
681.94	13273.18
682.07	12992.31
682.21	13104.66
682.35	13043.81
682.49	13413.61
682.62	13179.56
682.76	13015.72
682.90	13081.25
683.04	13163.17
683.17	13099.98
683.31	13018.06
683.45	12837.84
683.59	12842.52
683.72	12779.32
683.86	12432.93
684.00	12369.73
684.13	12446.97
684.27	12418.88
684.41	12334.62
684.55	12138.02
684.68	12229.30
684.82	12262.07
684.96	12273.77
685.09	12189.51
685.23	12011.63
685.37	12287.81
685.50	12182.49
685.64	12226.96
685.78	12046.74
685.91	12039.72
686.05	12236.32
686.19	11992.90
686.32	12257.39
686.46	11969.50
686.60	11812.68
686.73	11784.60
686.87	11726.08
687.01	11545.86
687.14	11545.86
687.28	11630.12
687.42	11714.38
687.55	11358.62
687.69	11536.50
687.82	11602.04
687.96	11407.77
688.10	11461.60
688.23	11576.29
688.37	11449.90
688.50	11435.86
688.64	11541.18
688.78	11330.53
688.91	11119.89
689.05	11166.70
689.18	11096.48
689.32	11171.38
689.46	10927.96
689.59	10930.30
689.73	10965.41
689.86	11023.92
690.00	11082.44
690.13	10682.20
690.27	10949.03
690.41	10995.84
690.54	10820.30
690.68	10885.83
690.81	10810.93
690.95	10745.40
691.08	10757.10
691.22	10654.12
691.35	10824.98
691.49	10682.20
691.62	10415.38
691.76	10274.95
691.89	10375.59
692.03	10106.43
692.16	10296.02
692.30	10263.25
692.43	10115.80
692.57	10017.49
692.70	10178.99
692.84	10066.64
692.97	9776.42
693.11	10012.81
693.24	10040.90
693.38	9898.13
693.51	9989.41
693.65	9935.57
693.78	9900.47
693.92	9877.06
694.05	9738.97
694.19	9633.64
694.32	9643.01
694.45	9837.27
694.59	9633.64
694.72	9359.80
694.86	9600.88
694.99	9420.66
695.13	9561.09
695.26	9727.27
695.39	9425.34
695.53	9593.86
695.66	9589.17
695.80	9467.47
695.93	9266.18
696.07	9446.40
696.20	9401.93
696.33	9242.78
696.47	9167.88
696.60	9228.73
696.73	9207.67
696.87	9085.96
697.00	8910.42
697.14	8894.04
697.27	8842.54
697.40	8847.22
697.54	9039.15
697.67	8814.46
697.80	8861.27
697.94	8828.50
698.07	8748.92
698.21	8620.19
698.34	8676.37
698.47	8664.66
698.61	8603.81
698.74	8674.03
698.87	8545.30
699.01	8554.66
699.14	8461.04
699.27	8571.04
699.40	8489.12
699.54	8278.47
699.67	8231.66
699.80	8194.22
699.94	8397.84
700.07	8243.37
700.20	8131.02
700.34	8182.51
700.47	8039.74
700.60	8056.12
700.73	8241.03
700.87	8135.70
701.00	7908.67
701.13	8023.36
701.26	8025.70
701.40	7918.03
701.53	7836.11
701.66	7691.00
701.79	7702.70
701.93	7918.03
702.06	7541.21
702.19	7676.96
702.32	7676.96
702.46	7466.31
702.59	7545.89
702.72	7485.03
702.85	7435.88
702.99	7206.51
703.12	7290.77
703.25	7365.67
703.38	7283.75
703.51	7445.24
703.65	7300.13
703.78	7185.44
703.91	7206.51
704.04	7485.03
704.17	7255.66
704.31	7066.08
704.44	7056.72
704.57	7180.76
704.70	6942.03
704.83	6970.12
704.96	6876.49
705.10	6960.75
705.23	6820.32
>>>>>End Processed Spectral Data<<<<<
