SpectraSuite Data File
++++++++++++++++++++++++++++++++++++
Date: Fri Oct 04 11:39:20 GMT-05:00 2013
User: price-jones
Dark Spectrum Present: No
Reference Spectrum Present: No
Number of Sampled Component Spectra: 1
Spectrometers: USB2+H05261
Integration Time (usec): 100000 (USB2+H05261)
Spectra Averaged: 1 (USB2+H05261)
Boxcar Smoothing: 0 (USB2+H05261)
Correct for Electrical Dark: No (USB2+H05261)
Strobe/Lamp Enabled: No (USB2+H05261)
Correct for Detector Non-linearity: No (USB2+H05261)
Correct for Stray Light: No (USB2+H05261)
Number of Pixels in Processed Spectrum: 2048
>>>>>Begin Processed Spectral Data<<<<<
365.73	70.22
365.92	70.22
366.12	70.22
366.32	0.00
366.52	0.00
366.72	23.41
366.91	0.00
367.11	0.00
367.31	0.00
367.51	0.00
367.70	7.02
367.90	0.00
368.10	0.00
368.30	0.00
368.49	0.00
368.69	37.45
368.89	0.00
369.09	0.00
369.28	0.00
369.48	0.00
369.68	4.68
369.87	0.00
370.07	0.00
370.27	4.68
370.47	124.05
370.66	243.42
370.86	238.73
371.06	250.44
371.25	332.36
371.45	248.10
371.65	339.38
371.84	332.36
372.04	332.36
372.24	315.97
372.44	337.04
372.63	322.99
372.83	372.15
373.03	365.12
373.22	276.18
373.42	383.85
373.62	423.64
373.81	411.93
374.01	355.76
374.21	400.23
374.40	411.93
374.60	458.74
374.79	386.19
374.99	433.00
375.19	449.38
375.38	479.81
375.58	442.36
375.78	381.51
375.97	414.27
376.17	486.83
376.37	376.83
376.56	435.34
376.76	484.49
376.95	409.59
377.15	442.36
377.35	535.98
377.54	404.91
377.74	461.09
377.93	484.49
378.13	423.64
378.33	456.40
378.52	561.73
378.72	496.19
378.91	514.92
379.11	486.83
379.31	456.40
379.50	447.04
379.70	491.51
379.89	547.69
380.09	503.22
380.28	461.09
380.48	615.56
380.68	470.45
380.87	498.53
381.07	543.00
381.26	491.51
381.46	592.16
381.65	512.58
381.85	454.06
382.04	444.70
382.24	589.82
382.43	528.96
382.63	510.24
382.83	601.52
383.02	566.41
383.22	660.03
383.41	622.58
383.61	484.49
383.80	496.19
384.00	627.26
384.19	587.47
384.39	552.37
384.58	578.11
384.78	615.56
384.97	727.91
385.17	559.39
385.36	631.94
385.56	629.60
385.75	606.20
385.95	608.54
386.14	664.71
386.34	685.78
386.53	636.63
386.72	648.33
386.92	648.33
387.11	620.24
387.31	660.03
387.50	660.03
387.70	664.71
387.89	704.50
388.09	704.50
388.28	667.05
388.48	704.50
388.67	760.67
388.86	718.54
389.06	716.20
389.25	624.92
389.45	660.03
389.64	706.84
389.84	777.06
390.03	816.85
390.22	676.41
390.42	727.91
390.61	667.05
390.81	753.65
391.00	772.38
391.19	805.14
391.39	793.44
391.58	770.04
391.78	779.40
391.97	819.19
392.16	828.55
392.36	812.17
392.55	718.54
392.75	786.42
392.94	793.44
393.13	821.53
393.33	800.46
393.52	830.89
393.71	863.66
393.91	926.85
394.10	908.13
394.29	837.91
394.49	875.36
394.68	950.26
394.88	828.55
395.07	903.45
395.26	858.98
395.46	908.13
395.65	912.81
395.84	940.90
396.04	1039.20
396.23	1011.11
396.42	950.26
396.62	1036.86
396.81	1046.22
397.00	908.13
397.19	987.71
397.39	1053.24
397.58	1062.60
397.77	1053.24
397.97	1018.13
398.16	1116.44
398.35	992.39
398.55	1067.28
398.74	1046.22
398.93	1081.33
399.12	1107.07
399.32	1114.10
399.51	1097.71
399.70	1184.31
399.90	1144.52
400.09	1125.80
400.28	1219.42
400.47	1247.51
400.67	1270.91
400.86	1165.59
401.05	1273.25
401.24	1275.59
401.44	1275.59
401.63	1306.02
401.82	1341.13
402.01	1291.98
402.21	1200.69
402.40	1240.48
402.59	1336.45
402.78	1350.49
402.97	1399.64
403.17	1287.29
403.36	1350.49
403.55	1317.72
403.74	1425.39
403.93	1465.18
404.13	1488.58
404.32	1575.18
404.51	1416.02
404.70	1430.07
404.89	1502.62
405.09	1593.90
405.28	1495.60
405.47	1481.56
405.66	1561.14
405.85	1467.52
406.05	1593.90
406.24	1504.96
406.43	1509.65
406.62	1600.93
406.81	1729.66
407.00	1732.00
407.20	1664.12
407.39	1664.12
407.58	1657.10
407.77	1584.54
407.96	1689.87
408.15	1708.59
408.34	1804.55
408.54	1682.85
408.73	1900.52
408.92	1776.47
409.11	1820.94
409.30	1863.07
409.49	1790.51
409.68	1895.83
409.87	1902.86
410.07	1888.81
410.26	1940.30
410.45	1937.96
410.64	1984.77
410.83	1996.48
411.02	2047.97
411.21	2078.40
411.40	2043.29
411.59	2024.56
411.78	2078.40
411.98	2040.95
412.17	2153.29
412.36	2256.28
412.55	2242.23
412.74	2256.28
412.93	2237.55
413.12	2127.55
413.31	2321.81
413.50	2235.21
413.69	2333.51
413.88	2373.30
414.07	2310.11
414.26	2436.50
414.45	2539.48
414.64	2415.43
414.83	2478.63
415.02	2497.35
415.22	2548.84
415.41	2628.42
415.60	2621.40
415.79	2675.23
415.98	2722.04
416.17	2839.07
416.36	2682.25
416.55	2745.45
416.74	2818.00
416.93	2675.23
417.12	2897.58
417.31	2766.51
417.50	2860.13
417.69	2986.52
417.88	3119.93
418.07	2951.42
418.26	2981.84
418.45	2960.78
418.64	3035.67
418.83	3014.61
419.02	3016.95
419.21	3143.34
419.39	3178.45
419.58	3084.83
419.77	3075.46
419.96	3094.19
420.15	3157.38
420.34	3190.15
420.53	3084.83
420.72	3225.26
420.91	3262.71
421.10	3269.73
421.29	3297.81
421.48	3173.77
421.67	3372.71
421.86	3297.81
422.05	3370.37
422.24	3323.56
422.43	3358.67
422.61	3482.72
422.80	3321.22
422.99	3440.59
423.18	3606.77
423.37	3499.10
423.56	3513.14
423.75	3492.08
423.94	3449.95
424.13	3251.00
424.32	3421.86
424.50	3428.88
424.69	3618.47
424.88	3578.68
425.07	3517.83
425.26	3459.31
425.45	3527.19
425.64	3548.25
425.83	3346.97
426.01	3662.94
426.20	3435.91
426.39	3368.03
426.58	3480.38
426.77	3609.11
426.96	3552.93
427.15	3566.98
427.33	3672.30
427.52	3604.42
427.71	3763.58
427.90	3473.36
428.09	3749.54
428.28	3794.01
428.46	3740.18
428.65	3786.99
428.84	3985.93
429.03	3857.20
429.22	3798.69
429.40	3854.86
429.59	3826.78
429.78	3716.77
429.97	3630.17
430.16	3962.53
430.34	3990.61
430.53	4079.55
430.72	3934.44
430.91	4018.70
431.10	3934.44
431.28	3983.59
431.47	4105.30
431.66	4147.43
431.85	4007.00
432.03	4156.79
432.22	4187.22
432.41	4313.61
432.60	4168.49
432.79	4231.69
432.97	4203.60
433.16	4196.58
433.35	4215.30
433.54	4308.93
433.72	4355.74
433.91	4163.81
434.10	4341.69
434.28	4411.91
434.47	4386.16
434.66	4456.38
434.85	4486.81
435.03	4540.64
435.22	4692.77
435.41	5125.77
435.59	4865.97
435.78	4723.20
435.97	4526.60
436.16	4676.39
436.34	4531.28
436.53	4484.47
436.72	4655.33
436.90	4678.73
437.09	4725.54
437.28	4629.58
437.46	4711.50
437.65	4847.25
437.84	4760.65
438.02	4788.74
438.21	4870.65
438.40	4716.18
438.58	4999.38
438.77	5055.56
438.96	4950.23
439.14	5069.60
439.33	5100.03
439.52	5062.58
439.70	5186.63
439.89	5273.23
440.08	5135.14
440.26	5231.10
440.45	5252.16
440.63	5404.30
440.82	5336.42
441.01	5280.25
441.19	5476.85
441.38	5465.15
441.57	5467.49
441.75	5561.11
441.94	5750.70
442.12	5694.52
442.31	5764.74
442.50	5741.33
442.68	5755.38
442.87	5612.60
443.05	5724.95
443.24	5790.49
443.43	5914.53
443.61	5858.36
443.80	6083.05
443.98	5724.95
444.17	5537.71
444.35	6080.71
444.54	6087.73
444.73	5970.71
444.91	6071.35
445.10	5870.06
445.28	5827.93
445.47	5937.94
445.65	5813.89
445.84	6003.47
446.02	6108.80
446.21	5888.79
446.39	5898.15
446.58	6108.80
446.77	6101.78
446.95	5949.64
447.14	5916.87
447.32	6085.39
447.51	6078.37
447.69	6150.93
447.88	6176.67
448.06	6127.52
448.25	6080.71
448.43	6094.76
448.62	6127.52
448.80	6164.97
448.99	6118.16
449.17	6272.64
449.36	6228.17
449.54	6216.46
449.73	6373.28
449.91	6441.15
450.10	6305.40
450.28	6349.87
450.46	6497.33
450.65	6523.07
450.83	6532.44
451.02	6574.56
451.20	6455.20
451.39	6562.86
451.57	6417.75
451.76	6619.04
451.94	6628.40
452.13	6532.44
452.31	6630.74
452.49	6651.80
452.68	6764.15
452.86	6679.89
453.05	6967.77
453.23	6789.89
453.42	6853.09
453.60	6726.70
453.78	6682.23
453.97	6754.79
454.15	6593.29
454.34	6808.62
454.52	6902.24
454.70	6960.75
454.89	6846.07
455.07	7054.37
455.26	7045.01
455.44	7068.42
455.62	7133.95
455.81	7026.29
455.99	7293.11
456.17	7140.97
456.36	7183.10
456.54	7379.71
456.73	7304.81
456.91	7522.48
457.09	7311.83
457.28	7468.65
457.46	7316.51
457.64	7534.18
457.83	7426.52
458.01	7250.98
458.19	7473.33
458.38	7592.70
458.56	7597.38
458.74	7403.11
458.93	7478.01
459.11	7569.29
459.29	7506.10
459.48	7801.01
459.66	7564.61
459.84	7878.24
460.03	7908.67
460.21	7843.14
460.39	7889.95
460.57	7852.50
460.76	7953.14
460.94	8105.28
461.12	7918.03
461.31	8018.68
461.49	7962.50
461.67	8124.00
461.85	8072.51
462.04	8208.26
462.22	8535.93
462.40	8325.29
462.59	8257.41
462.77	8107.62
462.95	8236.35
463.13	8294.86
463.32	8346.35
463.50	8411.89
463.68	8390.82
463.86	8388.48
464.05	8336.99
464.23	8226.98
464.41	8339.33
464.59	8388.48
464.78	8636.58
464.96	8538.27
465.14	8365.07
465.32	8645.94
465.50	8594.45
465.69	8514.87
465.87	8514.87
466.05	8718.50
466.23	8416.57
466.41	8664.66
466.60	8784.03
466.78	8800.41
466.96	8620.19
467.14	8418.91
467.32	8929.14
467.51	8933.82
467.69	8915.10
467.87	8936.17
468.05	8950.21
468.23	8676.37
468.41	8809.78
468.60	8901.06
468.78	9062.55
468.96	8903.40
469.14	9184.26
469.32	9170.22
469.50	8833.18
469.69	9301.29
469.87	9186.60
470.05	9408.95
470.23	9135.11
470.41	9228.73
470.59	9362.14
470.77	9455.76
470.95	9612.58
471.14	9589.17
471.32	9308.31
471.50	9607.90
471.68	9724.93
471.86	9706.20
472.04	9778.76
472.22	10176.65
472.40	9781.10
472.58	9870.04
472.77	9961.32
472.95	10076.01
473.13	10225.80
473.31	9926.21
473.49	10033.88
473.67	10176.65
473.85	10017.49
474.03	10401.34
474.21	10354.53
474.39	10532.41
474.57	10511.35
474.75	10623.69
474.93	10462.19
475.12	10478.58
475.30	10773.49
475.48	10700.93
475.66	10930.30
475.84	10832.00
476.02	10991.16
476.20	11000.52
476.38	10949.03
476.56	11297.77
476.74	11208.83
476.92	11187.76
477.10	11300.11
477.28	11449.90
477.46	11513.10
477.64	11744.81
477.82	11665.23
478.00	12140.36
478.18	11864.18
478.36	11990.56
478.54	12226.96
478.72	12266.75
478.90	12233.98
479.08	12531.23
479.26	12416.54
479.44	12589.74
479.62	12648.26
479.80	12823.80
479.98	12819.11
480.16	12957.21
480.34	12912.74
480.52	13156.15
480.70	13200.62
480.88	13209.98
481.06	13397.23
481.24	13249.77
481.41	13294.24
481.59	13689.79
481.77	13877.04
481.95	13970.66
482.13	14207.05
482.31	14328.76
482.49	14333.44
482.67	14452.81
482.85	14459.83
483.03	14834.32
483.21	14754.74
483.39	14857.72
483.57	14752.40
483.74	15157.31
483.92	15229.87
484.10	14949.00
484.28	15346.89
484.46	15473.28
484.64	15812.66
484.82	15829.04
485.00	15941.39
485.18	16194.17
485.35	16482.05
485.53	16482.05
485.71	16278.43
485.89	16945.48
486.07	16432.90
486.25	16533.54
486.43	16676.32
486.61	17041.44
486.78	17233.36
486.96	17432.31
487.14	17329.33
487.32	17724.88
487.50	17745.94
487.68	17762.33
487.85	17867.65
488.03	18010.42
488.21	18295.97
488.39	18408.31
488.57	18651.73
488.75	18700.88
488.92	19002.81
489.10	19234.52
489.28	19236.86
489.46	19229.84
489.64	19328.14
489.81	19880.51
489.99	19620.71
490.17	19976.47
490.35	20004.56
490.53	20116.90
490.70	20294.79
490.88	20074.77
491.06	20367.34
491.24	20549.90
491.41	20547.56
491.59	20573.31
491.77	20748.85
491.95	21113.97
492.13	21401.86
492.30	21275.47
492.48	21359.73
492.66	21179.51
492.84	21537.61
493.01	21972.95
493.19	21881.67
493.37	21881.67
493.54	22008.06
493.72	22298.28
493.90	22026.78
494.08	22319.35
494.25	22759.37
494.43	22527.66
494.61	23070.66
494.79	23271.95
494.96	23124.49
495.14	23288.33
495.32	23398.34
495.49	23524.72
495.67	23508.34
495.85	23992.83
496.02	23924.96
496.20	23924.96
496.38	24170.71
496.55	24287.74
496.73	24730.10
496.91	24624.78
497.09	24809.68
497.26	24931.39
497.44	24350.93
497.62	25303.53
497.79	25322.26
497.97	25130.33
498.14	25738.87
498.32	25729.51
498.50	25525.88
498.67	26026.76
498.85	25518.86
499.03	26209.32
499.20	26328.69
499.38	26363.79
499.56	26665.72
499.73	26948.93
499.91	26733.60
500.08	26782.75
500.26	26497.20
500.44	26778.07
500.61	26712.53
500.79	26661.04
500.97	27096.38
501.14	27276.60
501.32	27728.33
501.49	27728.33
501.67	27243.84
501.84	27737.69
502.02	27379.59
502.20	27489.59
502.37	27960.04
502.55	28198.77
502.72	27967.06
502.90	28166.01
503.07	27946.00
503.25	28126.22
503.43	28439.85
503.60	28243.24
503.78	28861.15
503.95	28713.69
504.13	28676.24
504.30	28779.23
504.48	28842.42
504.65	29076.48
504.83	29537.56
505.01	29598.41
505.18	29593.73
505.36	29633.52
505.53	29226.27
505.71	29490.75
505.88	29928.43
506.06	29287.12
506.23	30085.25
506.41	29947.15
506.58	30291.21
506.76	29961.20
506.93	30178.87
507.11	29839.49
507.28	30726.55
507.46	30609.53
507.63	30670.38
507.81	30726.55
507.98	30565.06
508.16	30780.39
508.33	30314.62
508.50	30988.69
508.68	30864.64
508.85	31604.25
509.03	30899.75
509.20	31601.91
509.38	31784.48
509.55	31793.84
509.73	31789.16
509.90	31850.01
510.08	31564.46
510.25	31826.60
510.42	32254.92
510.60	32341.52
510.77	32397.70
510.95	32573.24
511.12	31981.08
511.30	32390.67
511.47	32919.63
511.64	32999.21
511.82	33137.30
511.99	32886.87
512.17	33268.37
512.34	32631.75
512.51	33406.47
512.69	33493.07
512.86	33202.84
513.04	33893.30
513.21	33965.85
513.38	33502.43
513.56	33905.00
513.73	33221.56
513.90	33907.34
514.08	33797.34
514.25	33839.47
514.43	34150.76
514.60	33937.77
514.77	34621.20
514.95	34235.02
515.12	34220.97
515.29	34419.92
515.47	34766.32
515.64	34440.98
515.81	34803.77
515.99	35250.81
516.16	35236.77
516.33	35185.27
516.51	35620.61
516.68	34916.11
516.85	35377.20
517.03	34920.79
517.20	35363.15
517.37	35496.56
517.54	35847.64
517.72	35232.08
517.89	35454.44
518.06	35817.22
518.24	36086.38
518.41	36002.12
518.58	36025.53
518.75	35416.99
518.93	36107.44
519.10	35871.05
519.27	36451.50
519.45	36126.17
519.62	36376.61
519.79	36238.51
519.96	36540.44
520.14	36428.10
520.31	36378.95
520.48	37535.17
520.65	37120.90
520.83	37361.97
521.00	36987.49
521.17	37029.62
521.34	37270.69
521.52	37481.34
521.69	37383.04
521.86	38092.22
522.03	37750.50
522.20	37993.92
522.38	37614.75
522.55	37710.71
522.72	37659.22
522.89	37785.61
523.07	38040.73
523.24	38043.07
523.41	38534.58
523.58	38164.78
523.75	38483.09
523.92	38440.96
524.10	38431.60
524.27	38478.41
524.44	38569.69
524.61	38934.81
524.78	38703.10
524.96	38763.95
525.13	38740.55
525.30	39100.99
525.47	39030.77
525.64	39316.32
525.81	39374.83
525.98	39206.31
526.16	39597.18
526.33	39218.02
526.50	39901.45
526.67	39133.76
526.84	39304.62
527.01	39339.72
527.18	39894.43
527.36	40205.72
527.53	39765.70
527.70	40467.86
527.87	40231.47
528.04	40196.36
528.21	40156.57
528.38	39639.31
528.55	40172.96
528.72	40168.27
528.89	40631.70
529.07	40151.89
529.24	40046.57
529.41	40624.68
529.58	40327.43
529.75	40231.47
529.92	40650.42
530.09	40774.47
530.26	40608.29
530.43	41034.27
530.60	40811.92
530.77	40924.27
530.94	41027.25
531.11	41221.52
531.28	41109.17
531.46	41148.96
531.63	41488.34
531.80	41483.66
531.97	41450.89
532.14	41542.17
532.31	41502.38
532.48	41464.93
532.65	41549.19
532.82	41333.86
532.99	41610.04
533.16	41373.65
533.33	42036.02
533.50	42677.33
533.67	41926.02
533.84	41542.17
534.01	41904.95
534.18	41830.05
534.35	42080.49
534.52	41926.02
534.69	42169.43
534.86	42869.25
535.03	42368.38
535.20	42960.53
535.37	42674.99
535.54	42511.15
535.71	42450.30
535.88	42876.27
536.05	42483.06
536.22	42810.74
536.38	42855.21
536.55	43042.45
536.72	43199.27
536.89	43171.18
537.06	42890.32
537.23	43070.54
537.40	43115.01
537.57	43636.95
537.74	43201.61
537.91	43702.48
538.08	43735.25
538.25	43440.34
538.42	43332.68
538.59	43632.27
538.75	43161.82
538.92	43981.01
539.09	43721.21
539.26	43915.47
539.43	44062.93
539.60	44023.14
539.77	43866.32
539.94	44442.09
540.11	44226.76
540.28	44121.44
540.44	44081.65
540.61	44353.15
540.78	44105.06
540.95	44755.72
541.12	44491.24
541.29	44306.34
541.46	44472.52
541.62	44102.71
541.79	44456.14
541.96	44458.48
542.13	44582.52
542.30	45319.79
542.47	44891.48
542.63	44898.50
542.80	45567.89
542.97	45139.57
543.14	45134.89
543.31	45352.56
543.48	45406.39
543.64	45469.59
543.81	45776.20
543.98	45488.31
544.15	45460.23
544.32	46082.81
544.48	46117.92
544.65	46216.22
544.82	45558.53
544.99	45579.59
545.16	46047.70
545.32	45865.14
545.49	46611.77
545.66	46976.89
545.83	46693.69
546.00	46597.73
546.16	46962.85
546.33	46120.26
546.50	45773.86
546.67	46223.24
546.83	45565.55
547.00	46146.00
547.17	46323.88
547.34	46281.75
547.50	46286.43
547.67	46520.49
547.84	46461.97
548.00	46370.69
548.17	46209.20
548.34	46340.27
548.51	46672.62
548.67	46791.99
548.84	46485.38
549.01	46944.12
549.18	46658.58
549.34	46913.70
549.51	46555.60
549.68	46494.74
549.84	46305.16
550.01	46644.54
550.18	46724.11
550.34	46855.18
550.51	47056.47
550.68	46911.36
550.84	46972.21
551.01	46986.25
551.18	47044.77
551.34	46546.23
551.51	46848.16
551.68	46841.14
551.84	47349.04
552.01	47171.16
552.18	47676.71
552.34	47089.24
552.51	47533.94
552.68	47182.86
552.84	47168.82
553.01	47512.88
553.18	47021.36
553.34	47583.09
553.51	46990.94
553.67	47697.78
553.84	48140.14
554.01	47739.91
554.17	47468.40
554.34	47676.71
554.51	47447.34
554.67	47393.51
554.84	47847.57
555.00	47215.63
555.17	47903.74
555.33	47732.89
555.50	47852.25
555.67	47639.26
555.83	47887.36
556.00	48034.81
556.16	48198.65
556.33	47482.45
556.50	47962.26
556.66	48123.75
556.83	48205.67
556.99	48767.40
557.16	48540.37
557.32	47924.81
557.49	48617.61
557.65	47903.74
557.82	47550.32
557.98	47941.19
558.15	48367.17
558.32	48889.11
558.48	48123.75
558.65	48533.35
558.81	48037.16
558.98	48439.73
559.14	48196.31
559.31	48189.29
559.47	48418.66
559.64	48734.63
559.80	48378.87
559.97	48514.62
560.13	48467.81
560.30	48671.44
560.46	48931.24
560.63	48779.10
560.79	48659.74
560.96	48636.33
561.12	48790.81
561.29	48816.55
561.45	48753.36
561.61	48844.64
561.78	48814.21
561.94	48509.94
562.11	48732.29
562.27	48788.47
562.44	48865.70
562.60	48376.53
562.77	49083.37
562.93	48744.00
563.10	49251.89
563.26	48725.27
563.42	49085.72
563.59	49167.63
563.75	49338.49
563.92	49027.20
564.08	48641.01
564.24	48800.17
564.41	48413.98
564.57	48690.16
564.74	49050.61
564.90	49062.31
565.07	49111.46
565.23	48956.99
565.39	49284.66
565.56	49413.39
565.72	49202.74
565.88	49422.75
566.05	49010.82
566.21	49221.47
566.38	49153.59
566.54	49181.68
566.70	49265.94
566.87	49364.24
567.03	49120.82
567.19	49523.40
567.36	49331.47
567.52	49525.74
567.68	49069.33
567.85	49118.48
568.01	49642.76
568.17	49240.19
568.34	49336.15
568.50	49090.40
568.66	49757.45
568.83	49801.92
568.99	49528.08
569.15	49558.50
569.32	49361.90
569.48	49347.86
569.64	49160.61
569.81	49392.33
569.97	49322.11
570.13	49745.75
570.30	49102.10
570.46	49687.23
570.62	49448.50
570.78	49006.14
570.95	49104.44
571.11	49404.03
571.27	49212.10
571.43	48959.33
571.60	49172.31
571.76	49366.58
571.92	49303.38
572.09	49474.24
572.25	49579.57
572.41	49577.23
572.57	49813.62
572.74	49792.56
572.90	49333.81
573.06	49242.53
573.22	49521.05
573.38	49675.53
573.55	49815.96
573.71	50183.43
573.87	49965.76
574.03	49830.01
574.20	49750.43
574.36	49567.87
574.52	49731.70
574.68	49703.62
574.84	49720.00
575.01	49673.19
575.17	49443.82
575.33	49778.51
575.49	49785.54
575.65	49860.43
575.82	50117.89
575.98	49617.02
576.14	49766.81
576.30	49750.43
576.46	49497.65
576.62	49663.83
576.79	49771.49
576.95	49712.98
577.11	49911.92
577.27	50035.97
577.43	50010.23
577.59	49696.59
577.75	49708.30
577.92	49406.37
578.08	49549.14
578.24	49661.49
578.40	50082.78
578.56	50017.25
578.72	49965.76
578.88	50082.78
579.04	50225.56
579.21	49652.12
579.37	49902.56
579.53	50110.87
579.69	49705.96
579.85	49443.82
580.01	49825.32
580.17	49628.72
580.33	50131.93
580.49	49900.22
580.65	50220.87
580.82	50101.51
580.98	50197.47
581.14	49869.79
581.30	50075.76
581.46	50298.11
581.62	49968.10
581.78	49811.28
581.94	49766.81
582.10	49712.98
582.26	50286.41
582.42	50265.34
582.58	50099.17
582.74	50050.02
582.90	49771.49
583.06	50548.55
583.22	50181.09
583.38	49956.39
583.54	49820.64
583.70	50241.94
583.86	50014.91
584.02	49712.98
584.18	50103.85
584.34	50068.74
584.50	50394.07
584.66	49801.92
584.82	50061.72
584.98	50014.91
585.14	50038.31
585.30	49942.35
585.46	49965.76
585.62	49853.41
585.78	50511.10
585.94	50064.06
586.10	50234.92
586.26	50288.75
586.42	50145.98
586.58	50475.99
586.74	50295.77
586.90	49773.83
587.06	50131.93
587.22	50258.32
587.38	49937.67
587.54	50021.93
587.70	50141.30
587.86	50099.17
588.02	50494.72
588.18	50667.92
588.34	50218.53
588.49	50597.70
588.65	49940.01
588.81	50309.82
588.97	50387.05
589.13	50328.54
589.29	50349.60
589.45	50464.29
589.61	50199.81
589.77	50586.00
589.93	50492.38
590.08	50850.48
590.24	50520.46
590.40	50663.24
590.56	50464.29
590.72	50251.30
590.88	50403.44
591.04	50300.45
591.20	50782.60
591.35	50808.35
591.51	50808.35
591.67	50721.75
591.83	50681.96
591.99	51145.39
592.15	50389.39
592.31	50316.84
592.46	50684.30
592.62	50504.08
592.78	50211.51
592.94	50733.45
593.10	50721.75
593.26	50841.12
593.41	50358.97
593.57	50452.59
593.73	50525.14
593.89	50616.43
594.05	50541.53
594.20	50639.83
594.36	50693.66
594.52	50321.52
594.68	50241.94
594.84	50471.31
594.99	50522.80
595.15	50473.65
595.31	50770.90
595.47	50614.08
595.62	50391.73
595.78	50595.36
595.94	50679.62
596.10	50515.78
596.25	50185.77
596.41	50286.41
596.57	50255.98
596.73	50548.55
596.88	50131.93
597.04	50756.86
597.20	50728.77
597.36	50440.89
597.51	50642.17
597.67	50967.51
597.83	50583.66
597.99	50724.09
598.14	50234.92
598.30	50810.69
598.46	50621.11
598.61	50403.44
598.77	50588.34
598.93	50672.60
599.09	50766.22
599.24	50850.48
599.40	51143.05
599.56	50665.58
599.71	50604.72
599.87	50731.11
600.03	50798.99
600.18	50635.15
600.34	50911.33
600.50	50850.48
600.65	50976.87
600.81	51250.71
600.97	50887.93
601.12	50520.46
601.28	50953.46
601.44	50997.93
601.59	50908.99
601.75	50745.15
601.91	50679.62
602.06	50501.74
602.22	50763.88
602.37	50555.57
602.53	50988.57
602.69	50597.70
602.84	50700.68
603.00	50131.93
603.16	50501.74
603.31	50522.80
603.47	50543.87
603.62	50452.59
603.78	50412.80
603.94	50752.18
604.09	50571.96
604.25	50314.50
604.40	50546.21
604.56	50506.42
604.71	50939.42
604.87	50691.32
605.03	50525.14
605.18	50700.68
605.34	50553.23
605.49	50529.83
605.65	50375.35
605.80	50417.48
605.96	50005.55
606.12	50452.59
606.27	50581.32
606.43	50328.54
606.58	50625.79
606.74	50391.73
606.89	50288.75
607.05	50513.44
607.20	50667.92
607.36	50145.98
607.51	50628.13
607.67	50358.97
607.82	50656.21
607.98	50124.91
608.13	50424.50
608.29	50204.49
608.44	50581.32
608.60	50295.77
608.75	50342.58
608.91	50319.18
609.06	50569.61
609.22	50351.94
609.37	50473.65
609.53	50279.39
609.68	50412.80
609.84	50078.10
609.99	50209.17
610.15	50665.58
610.30	50578.98
610.46	50738.13
610.61	51145.39
610.76	50845.80
610.92	51227.31
611.07	50901.97
611.23	50988.57
611.38	50857.50
611.54	50810.69
611.69	50492.38
611.84	50494.72
612.00	50539.19
612.15	50417.48
612.31	50141.30
612.46	50340.24
612.62	50328.54
612.77	50204.49
612.92	50789.62
613.08	50136.62
613.23	50054.70
613.39	50155.34
613.54	50351.94
613.69	50075.76
613.85	50138.96
614.00	50124.91
614.15	50548.55
614.31	49808.94
614.46	50398.76
614.62	49956.39
614.77	50263.00
614.92	50396.42
615.08	50272.37
615.23	49909.58
615.38	50183.43
615.54	49968.10
615.69	49488.29
615.84	49490.63
616.00	50211.51
616.15	50363.65
616.30	50380.03
616.46	49399.35
616.61	50089.80
616.76	50185.77
616.92	49656.81
617.07	49525.74
617.22	49588.93
617.37	49230.83
617.53	49397.01
617.68	49586.59
617.83	49483.61
617.99	49310.41
618.14	49516.37
618.29	49701.28
618.45	49888.52
618.60	49284.66
618.75	49811.28
618.90	49055.29
619.06	49366.58
619.21	49516.37
619.36	49289.34
619.51	49287.00
619.67	49294.02
619.82	49158.27
619.97	49652.12
620.12	48989.75
620.28	49287.00
620.43	49462.54
620.58	49324.45
620.73	49441.48
620.89	49530.42
621.04	49336.15
621.19	49134.87
621.34	49188.70
621.49	48720.59
621.65	48837.62
621.80	48861.02
621.95	48336.74
622.10	48947.62
622.25	48622.29
622.41	49130.19
622.56	49287.00
622.71	49083.37
622.86	49265.94
623.01	49254.23
623.16	48992.09
623.32	48729.95
623.47	48699.53
623.62	48666.76
623.77	48650.38
623.92	48708.89
624.07	48137.80
624.23	48746.34
624.38	48931.24
624.53	48563.78
624.68	48889.11
624.83	48872.73
624.98	49055.29
625.13	48638.67
625.29	48523.99
625.44	48577.82
625.59	48514.62
625.74	48205.67
625.89	48231.42
626.04	48074.60
626.19	48116.73
626.34	48079.28
626.49	48212.70
626.65	48205.67
626.80	48502.92
626.95	48191.63
627.10	48362.49
627.25	48404.62
627.40	48165.88
627.55	47983.32
627.70	48254.82
627.85	47973.96
628.00	48055.88
628.15	48105.03
628.30	48020.77
628.45	48020.77
628.60	47835.87
628.76	48217.38
628.91	48254.82
629.06	48128.44
629.21	48156.52
629.36	47819.49
629.51	47782.04
629.66	47770.33
629.81	47742.25
629.96	47267.12
630.11	47913.11
630.26	47782.04
630.41	47208.61
630.56	48112.05
630.71	47779.70
630.86	47606.50
631.01	47796.08
631.16	47817.14
631.31	47988.00
631.46	47416.91
631.61	47873.32
631.76	47412.23
631.91	47683.73
632.06	47391.17
632.21	46951.15
632.36	47215.63
632.51	47035.41
632.66	47470.75
632.81	47089.24
632.96	47194.56
633.10	47026.04
633.25	47267.12
633.40	47349.04
633.55	47363.08
633.70	47171.16
633.85	46848.16
634.00	46965.19
634.15	46780.29
634.30	47086.90
634.45	46887.95
634.60	46775.61
634.75	46976.89
634.90	46822.42
635.05	47503.51
635.19	47168.82
635.34	47428.62
635.49	46726.46
635.64	47014.34
635.79	46759.22
635.94	46740.50
636.09	46525.17
636.24	46216.22
636.39	46256.01
636.53	46293.46
636.68	46361.33
636.83	46398.78
636.98	46817.74
637.13	46391.76
637.28	46649.22
637.43	46794.33
637.57	46738.16
637.72	46302.82
637.87	45968.12
638.02	46499.42
638.17	45933.01
638.32	46188.13
638.46	46251.33
638.61	46258.35
638.76	46192.81
638.91	46408.14
639.06	46663.26
639.20	46129.62
639.35	46354.31
639.50	46401.12
639.65	46450.27
639.80	46679.64
639.94	46220.90
640.09	46450.27
640.24	46164.73
640.39	45862.80
640.54	45703.64
640.68	45951.74
640.83	45996.21
640.98	45298.73
641.13	45567.89
641.27	46101.53
641.42	45846.41
641.57	45984.51
641.72	46256.01
641.86	46047.70
642.01	45844.07
642.16	45659.17
642.31	45752.79
642.45	45759.81
642.60	45179.36
642.75	45689.60
642.90	45366.60
643.04	45563.21
643.19	45457.88
643.34	45560.87
643.48	45612.36
643.63	45783.22
643.78	45785.56
643.93	45612.36
644.07	46136.64
644.22	45626.40
644.37	44900.84
644.51	45249.58
644.66	45062.33
644.81	45041.27
644.95	45411.07
645.10	45214.47
645.25	45263.62
645.39	45301.07
645.54	44706.57
645.69	45467.25
645.83	45446.18
645.98	45153.62
646.13	45181.70
646.27	45394.69
646.42	45226.17
646.57	45162.98
646.71	45324.47
646.86	45240.21
647.00	44802.53
647.15	45214.47
647.30	44669.12
647.44	44854.03
647.59	45027.23
647.74	44769.77
647.88	45230.85
648.03	45027.23
648.17	44856.37
648.32	45090.42
648.47	45155.96
648.61	44776.79
648.76	45153.62
648.90	44711.25
649.05	44938.29
649.20	44788.49
649.34	44570.82
649.49	44334.43
649.63	44226.76
649.78	43901.43
649.92	44360.17
650.07	44687.85
650.21	44453.79
650.36	44524.01
650.51	44275.91
650.65	44690.19
650.80	44940.63
650.94	44540.39
651.09	44538.05
651.23	44430.39
651.38	44179.95
651.52	44032.50
651.67	44315.70
651.81	44158.89
651.96	43943.56
652.10	44299.32
652.25	44222.08
652.39	44418.69
652.54	44526.35
652.68	44210.38
652.83	44217.40
652.97	44662.10
653.12	44051.22
653.26	43880.36
653.41	44215.06
653.55	43885.04
653.70	43854.62
653.84	43580.78
653.99	43702.48
654.13	43665.03
654.27	43676.74
654.42	44069.95
654.56	43700.14
654.71	43555.03
654.85	43819.51
655.00	43728.23
655.14	43601.84
655.29	43215.65
655.43	43489.49
655.57	43536.30
655.72	43454.39
655.86	43648.65
656.01	43531.62
656.15	43220.33
656.30	43234.38
656.44	43140.75
656.58	43702.48
656.73	43246.08
656.87	43615.88
657.01	43522.26
657.16	43777.38
657.30	43409.92
657.45	43641.63
657.59	43196.93
657.73	42436.25
657.88	42646.90
658.02	42536.90
658.16	42974.58
658.31	42948.83
658.45	42766.27
658.60	42707.76
658.74	42969.90
658.88	42806.06
659.03	42845.85
659.17	42696.05
659.31	42754.57
659.46	42740.52
659.60	42457.32
659.74	42572.00
659.89	42410.51
660.03	42263.05
660.17	42518.17
660.32	42047.72
660.46	42300.50
660.60	42258.37
660.74	41972.83
660.89	41799.63
661.03	41954.10
661.17	41813.67
661.32	41420.46
661.46	42286.46
661.60	42080.49
661.74	41801.97
661.89	41752.82
662.03	41930.70
662.17	41808.99
662.31	41640.47
662.46	42073.47
662.60	41464.93
662.74	41610.04
662.88	41282.37
663.03	41493.02
663.17	41347.90
663.31	41195.77
663.45	41273.01
663.60	40917.25
663.74	40844.69
663.88	41483.66
664.02	40837.67
664.17	41471.95
664.31	40947.67
664.45	40919.59
664.59	41287.05
664.73	40643.40
664.88	41151.30
665.02	40318.07
665.16	40566.16
665.30	40285.30
665.44	39899.11
665.59	40238.49
665.73	40285.30
665.87	40137.85
666.01	40528.72
666.15	40037.20
666.29	40198.70
666.44	40093.38
666.58	39981.03
666.72	40107.42
666.86	39828.90
667.00	39695.49
667.14	39721.23
667.28	40058.27
667.43	39915.50
667.57	39775.06
667.71	39622.93
667.85	39959.97
667.99	39536.33
668.13	39798.47
668.27	39431.01
668.41	39618.25
668.56	39318.66
668.70	39674.42
668.84	39744.64
668.98	39065.88
669.12	39449.73
669.26	39459.09
669.40	38916.09
669.54	38873.96
669.68	39117.37
669.82	38677.35
669.96	38600.12
670.10	38396.49
670.25	38412.87
670.39	38752.25
670.53	38806.08
670.67	38373.08
670.81	38941.83
670.95	39019.07
671.09	38370.74
671.23	38518.20
671.37	38831.83
671.51	38443.30
671.65	38401.17
671.79	38490.11
671.93	38150.73
672.07	37993.92
672.21	37823.06
672.35	37546.87
672.49	37216.86
672.63	37361.97
672.77	38000.94
672.91	37642.84
673.05	37357.29
673.19	37460.27
673.33	37432.19
673.47	37502.40
673.61	37474.32
673.75	37067.06
673.89	37200.47
674.03	37177.07
674.17	37029.62
674.31	36580.23
674.45	36793.22
674.59	36374.27
674.73	36605.98
674.87	36261.92
675.01	36795.56
675.15	36201.07
675.29	36655.13
675.43	36205.75
675.56	36119.15
675.70	36706.62
675.84	36638.75
675.98	35349.11
676.12	36484.27
676.26	36474.91
676.40	36102.76
676.54	36353.20
676.68	36013.82
676.82	35456.78
676.96	35512.95
677.10	35892.12
677.23	35093.99
677.37	35201.66
677.51	34815.47
677.65	34658.65
677.79	34831.85
677.93	34930.16
678.07	34429.28
678.21	34689.08
678.34	34586.10
678.48	34445.66
678.62	34190.55
678.76	34068.84
678.90	34389.49
679.04	33921.38
679.18	34354.38
679.31	33472.00
679.45	33722.44
679.59	33376.04
679.73	33441.57
679.87	33795.00
680.00	33413.49
680.14	33181.77
680.28	33259.01
680.42	33345.61
680.56	33090.49
680.70	33153.69
680.83	33001.55
680.97	33090.49
681.11	32889.21
681.25	32376.63
681.39	32275.99
681.52	33048.36
681.66	32570.90
681.80	32009.17
681.94	32414.08
682.07	32297.05
682.21	32135.56
682.35	32648.13
682.49	32257.26
682.62	31777.45
682.76	31756.39
682.90	31431.05
683.04	31875.76
683.17	31299.98
683.31	31438.08
683.45	31681.49
683.59	30754.64
683.72	31204.02
683.86	30682.08
684.00	30707.83
684.13	30686.76
684.27	30672.72
684.41	30630.59
684.55	30316.96
684.68	30209.29
684.82	30686.76
684.96	30040.78
685.09	29869.92
685.23	29876.94
685.37	29783.32
685.50	30253.76
685.64	29916.73
685.78	29958.86
685.91	29713.10
686.05	29340.96
686.19	29322.23
686.32	29195.84
686.46	28882.21
686.60	28472.62
686.73	28966.47
686.87	29212.23
687.01	28833.06
687.14	28842.42
687.28	28648.16
687.42	28542.83
687.55	28311.12
687.69	28299.42
687.82	27824.29
687.96	28339.21
688.10	27793.86
688.23	28081.75
688.37	27864.08
688.50	27927.27
688.64	27763.43
688.78	27978.76
688.91	27297.67
689.05	27594.92
689.18	27695.56
689.32	26721.90
689.46	27470.87
689.59	27351.50
689.73	26778.07
689.86	26775.73
690.00	26661.04
690.13	26822.54
690.27	26511.25
690.41	26932.54
690.54	26281.88
690.68	26382.52
690.81	26462.10
690.95	26321.66
691.08	26288.90
691.22	26352.09
691.35	25872.28
691.49	25703.76
691.62	25434.60
691.76	25408.86
691.89	25380.77
692.03	25338.64
692.16	24985.22
692.30	24945.43
692.43	25448.64
692.57	25090.54
692.70	24805.00
692.84	24987.56
692.97	25338.64
693.11	24907.98
693.24	24610.73
693.38	24524.13
693.51	24575.62
693.65	24318.17
693.78	24386.04
693.92	24322.85
694.05	24208.16
694.19	24276.04
694.32	24290.08
694.45	24046.66
694.59	23852.40
694.72	23819.63
694.86	23498.98
694.99	23646.43
695.13	23426.42
695.26	23241.52
695.39	23129.17
695.53	22960.66
695.66	23232.16
695.80	22953.63
695.93	23398.34
696.07	22998.10
696.20	22890.44
696.33	23222.80
696.47	22803.84
696.60	22644.68
696.73	22588.51
696.87	22520.63
697.00	22394.25
697.14	22347.44
697.27	22319.35
697.40	21696.77
697.54	21689.74
697.67	21958.91
697.80	21474.42
697.94	21415.90
698.07	21378.45
698.21	21256.75
698.34	21266.11
698.47	21497.82
698.61	21338.66
698.74	21025.03
698.87	20968.86
699.01	21317.60
699.14	20945.45
699.27	20861.19
699.40	20711.40
699.54	20496.07
699.67	20348.62
699.80	20187.12
699.94	20107.54
700.07	19983.49
700.20	20044.35
700.34	19653.48
700.47	19742.42
700.60	19653.48
700.73	19885.19
700.87	19374.95
701.00	19419.42
701.13	19501.34
701.26	19513.05
701.40	19473.26
701.53	19723.69
701.66	19267.29
701.79	19222.82
701.93	19047.28
702.06	18869.40
702.19	18916.21
702.32	18633.00
702.46	18490.23
702.59	18230.43
702.72	18455.12
702.85	18450.44
702.99	18342.78
703.12	18101.70
703.25	18277.24
703.38	18099.36
703.51	18125.11
703.65	18256.18
703.78	18003.40
703.91	17696.79
704.04	17750.62
704.17	18059.57
704.31	17886.37
704.44	17474.44
704.57	17584.44
704.70	17444.01
704.83	17441.67
704.96	17280.18
705.10	17011.01
705.23	16952.50
>>>>>End Processed Spectral Data<<<<<
