SpectraSuite Data File
++++++++++++++++++++++++++++++++++++
Date: Fri Oct 04 11:39:33 GMT-05:00 2013
User: price-jones
Dark Spectrum Present: No
Reference Spectrum Present: No
Number of Sampled Component Spectra: 1
Spectrometers: USB2+H05261
Integration Time (usec): 100000 (USB2+H05261)
Spectra Averaged: 1 (USB2+H05261)
Boxcar Smoothing: 0 (USB2+H05261)
Correct for Electrical Dark: No (USB2+H05261)
Strobe/Lamp Enabled: No (USB2+H05261)
Correct for Detector Non-linearity: No (USB2+H05261)
Correct for Stray Light: No (USB2+H05261)
Number of Pixels in Processed Spectrum: 2048
>>>>>Begin Processed Spectral Data<<<<<
365.73	72.56
365.92	72.56
366.12	72.56
366.32	0.00
366.52	0.00
366.72	18.72
366.91	0.00
367.11	2.34
367.31	0.00
367.51	0.00
367.70	0.00
367.90	0.00
368.10	0.00
368.30	0.00
368.49	0.00
368.69	0.00
368.89	0.00
369.09	0.00
369.28	0.00
369.48	0.00
369.68	0.00
369.87	0.00
370.07	0.00
370.27	0.00
370.47	63.19
370.66	100.64
370.86	187.24
371.06	236.39
371.25	177.88
371.45	173.20
371.65	220.01
371.84	285.55
372.04	285.55
372.24	182.56
372.44	222.35
372.63	210.65
372.83	231.71
373.03	198.95
373.22	290.23
373.42	238.73
373.62	238.73
373.81	311.29
374.01	315.97
374.21	217.67
374.40	220.01
374.60	285.55
374.79	348.74
374.99	280.86
375.19	236.39
375.38	203.63
375.58	266.82
375.78	210.65
375.97	290.23
376.17	264.48
376.37	229.37
376.56	231.71
376.76	276.18
376.95	301.93
377.15	245.76
377.35	208.31
377.54	283.20
377.74	266.82
377.93	222.35
378.13	231.71
378.33	304.27
378.52	301.93
378.72	269.16
378.91	301.93
379.11	351.08
379.31	224.69
379.50	327.68
379.70	259.80
379.89	287.89
380.09	241.08
380.28	241.08
380.48	322.99
380.68	248.10
380.87	245.76
381.07	278.52
381.26	358.10
381.46	241.08
381.65	304.27
381.85	250.44
382.04	252.78
382.24	299.59
382.43	283.20
382.63	290.23
382.83	212.99
383.02	243.42
383.22	285.55
383.41	266.82
383.61	271.50
383.80	243.42
384.00	402.57
384.19	341.72
384.39	287.89
384.58	276.18
384.78	311.29
384.97	294.91
385.17	301.93
385.36	205.97
385.56	327.68
385.75	320.65
385.95	360.44
386.14	330.02
386.34	367.46
386.53	315.97
386.72	255.12
386.92	330.02
387.11	395.55
387.31	365.12
387.50	304.27
387.70	271.50
387.89	440.02
388.09	304.27
388.28	353.42
388.48	428.32
388.67	322.99
388.86	433.00
389.06	287.89
389.25	416.62
389.45	395.55
389.64	346.40
389.84	395.55
390.03	360.44
390.22	294.91
390.42	374.49
390.61	386.19
390.81	346.40
391.00	351.08
391.19	360.44
391.39	367.46
391.58	475.13
391.78	407.25
391.97	454.06
392.16	411.93
392.36	498.53
392.55	449.38
392.75	440.02
392.94	400.23
393.13	402.57
393.33	418.96
393.52	411.93
393.71	458.74
393.91	496.19
394.10	470.45
394.29	486.83
394.49	484.49
394.68	512.58
394.88	468.11
395.07	486.83
395.26	442.36
395.46	500.87
395.65	404.91
395.84	524.28
396.04	496.19
396.23	521.94
396.42	435.34
396.62	587.47
396.81	493.85
397.00	524.28
397.19	557.05
397.39	641.31
397.58	510.24
397.77	573.43
397.97	599.18
398.16	589.82
398.35	617.90
398.55	601.52
398.74	638.97
398.93	610.88
399.12	688.12
399.32	627.26
399.51	596.84
399.70	624.92
399.90	674.07
400.09	683.44
400.28	748.97
400.47	716.20
400.67	723.23
400.86	692.80
401.05	725.57
401.24	706.84
401.44	779.40
401.63	777.06
401.82	814.51
402.01	746.63
402.21	744.29
402.40	814.51
402.59	812.17
402.78	779.40
402.97	847.27
403.17	807.48
403.36	891.74
403.55	800.46
403.74	791.10
403.93	908.13
404.13	987.71
404.32	919.83
404.51	943.24
404.70	905.79
404.89	945.58
405.09	994.73
405.28	919.83
405.47	1018.13
405.66	1083.67
405.85	1020.47
406.05	968.98
406.24	952.60
406.43	938.55
406.62	1060.26
406.81	1111.75
407.00	1114.10
407.20	1095.37
407.39	1097.71
407.58	1050.90
407.77	1170.27
407.96	1165.59
408.15	1114.10
408.34	1174.95
408.54	1282.61
408.73	1186.65
408.92	1233.46
409.11	1231.12
409.30	1263.89
409.49	1287.29
409.68	1341.13
409.87	1348.15
410.07	1303.68
410.26	1345.81
410.45	1364.53
410.64	1376.24
410.83	1315.38
411.02	1409.00
411.21	1490.92
411.40	1432.41
411.59	1444.11
411.78	1479.22
411.98	1540.07
412.17	1493.26
412.36	1556.46
412.55	1572.84
412.74	1631.35
412.93	1657.10
413.12	1596.25
413.31	1778.81
413.50	1638.38
413.69	1668.80
413.88	1732.00
414.07	1727.32
414.26	1636.03
414.45	1739.02
414.64	1788.17
414.83	1781.15
415.02	1806.89
415.22	1912.22
415.41	1863.07
415.60	1863.07
415.79	1949.67
415.98	1959.03
416.17	1998.82
416.36	2118.18
416.55	1977.75
416.74	1982.43
416.93	2050.31
417.12	2026.90
417.31	2179.04
417.50	2134.57
417.69	2221.17
417.88	2172.02
418.07	2197.76
418.26	2221.17
418.45	2296.07
418.64	2312.45
418.83	2392.03
419.02	2298.41
419.21	2253.94
419.39	2235.21
419.58	2354.58
419.77	2392.03
419.96	2403.73
420.15	2361.60
420.34	2408.41
420.53	2354.58
420.72	2560.55
420.91	2539.48
421.10	2523.10
421.29	2509.05
421.48	2434.16
421.67	2487.99
421.86	2593.31
422.05	2562.89
422.24	2593.31
422.43	2581.61
422.61	2583.95
422.80	2586.29
422.99	2682.25
423.18	2719.70
423.37	2628.42
423.56	2654.17
423.75	2635.44
423.94	2574.59
424.13	2516.08
424.32	2637.78
424.50	2787.58
424.69	2712.68
424.88	2775.88
425.07	2572.25
425.26	2708.00
425.45	2700.98
425.64	2621.40
425.83	2635.44
426.01	2867.16
426.20	2677.57
426.39	2635.44
426.58	2778.22
426.77	2773.53
426.96	2773.53
427.15	2729.06
427.33	2825.03
427.52	2794.60
427.71	2853.11
427.90	2909.29
428.09	2937.37
428.28	2890.56
428.46	2860.13
428.65	2916.31
428.84	2993.55
429.03	3012.27
429.22	3026.31
429.40	3023.97
429.59	3038.02
429.78	2920.99
429.97	2932.69
430.16	2883.54
430.34	3059.08
430.53	3204.19
430.72	3119.93
430.91	3056.74
431.10	3129.30
431.28	3122.27
431.47	3117.59
431.66	3164.40
431.85	3199.51
432.03	3194.83
432.22	3318.88
432.41	3232.28
432.60	3332.92
432.79	3349.31
432.97	3379.73
433.16	3337.60
433.35	3262.71
433.54	3361.01
433.72	3382.07
433.91	3445.27
434.10	3351.65
434.28	3435.91
434.47	3405.48
434.66	3571.66
434.85	3545.91
435.03	3461.65
435.22	3634.85
435.41	3990.61
435.59	3896.99
435.78	3578.68
435.97	3777.62
436.16	3639.53
436.34	3599.74
436.53	3515.48
436.72	3688.68
436.90	3372.71
437.09	3688.68
437.28	3590.38
437.46	3602.08
437.65	3695.71
437.84	3815.07
438.02	3669.96
438.21	3843.16
438.40	3744.86
438.58	3723.79
438.77	3871.25
438.96	3831.46
439.14	3889.97
439.33	3885.29
439.52	3960.19
439.70	3999.98
439.89	3967.21
440.08	3978.91
440.26	4102.96
440.45	4215.30
440.63	4215.30
440.82	4042.11
441.01	4117.00
441.19	4177.86
441.38	4266.80
441.57	4341.69
441.75	4351.06
441.94	4294.88
442.12	4468.08
442.31	4458.72
442.50	4599.15
442.68	4521.92
442.87	4526.60
443.05	4332.33
443.24	4486.81
443.43	4542.98
443.61	4400.21
443.80	4610.86
443.98	4400.21
444.17	4381.48
444.35	4444.68
444.54	4723.20
444.73	4617.88
444.91	4580.43
445.10	4519.57
445.28	4688.09
445.47	4573.41
445.65	4484.47
445.84	4587.45
446.02	4770.01
446.21	4631.92
446.39	4589.79
446.58	4716.18
446.77	4573.41
446.95	4521.92
447.14	4716.18
447.32	4734.90
447.51	4762.99
447.69	4685.75
447.88	4699.80
448.06	4622.56
448.25	4779.37
448.43	4699.80
448.62	4702.14
448.80	4770.01
448.99	4732.56
449.17	4940.87
449.36	4870.65
449.54	4870.65
449.73	4870.65
449.91	5006.41
450.10	4936.19
450.28	4971.30
450.46	4919.81
450.65	5032.15
450.83	4915.12
451.02	5043.85
451.20	5111.73
451.39	5139.82
451.57	5118.75
451.76	4952.57
451.94	5174.92
452.13	5076.62
452.31	5144.50
452.49	5132.79
452.68	5179.61
452.86	5123.43
453.05	5451.11
453.23	5226.42
453.42	5275.57
453.60	5259.18
453.78	5303.65
453.97	5172.58
454.15	5256.84
454.34	5259.18
454.52	5242.80
454.70	5331.74
454.89	5294.29
455.07	5313.02
455.26	5390.25
455.44	5614.95
455.62	5451.11
455.81	5441.75
455.99	5570.48
456.17	5568.13
456.36	5486.22
456.54	5502.60
456.73	5593.88
456.91	5668.78
457.09	5720.27
457.28	5781.12
457.46	5832.62
457.64	5912.19
457.83	5860.70
458.01	5746.02
458.19	5856.02
458.38	5802.19
458.56	5942.62
458.74	5802.19
458.93	5893.47
459.11	5823.25
459.29	5783.46
459.48	5881.77
459.66	5963.68
459.84	5954.32
460.03	6127.52
460.21	6043.26
460.39	5987.09
460.57	6045.60
460.76	6066.67
460.94	6155.61
461.12	6134.54
461.31	6069.01
461.49	5966.03
461.67	6209.44
461.85	6452.86
462.04	6162.63
462.22	6267.95
462.40	6246.89
462.59	6417.75
462.77	6239.87
462.95	6237.53
463.13	6487.96
463.32	6415.41
463.50	6370.94
463.68	6413.07
463.86	6256.25
464.05	6399.02
464.23	6511.37
464.41	6560.52
464.59	6565.20
464.78	6436.47
464.96	6427.11
465.14	6399.02
465.32	6471.58
465.50	6478.60
465.69	6525.41
465.87	6677.55
466.05	6492.65
466.23	6504.35
466.41	6743.08
466.60	6815.64
466.78	6558.18
466.96	6836.70
467.14	6789.89
467.32	6705.63
467.51	6665.85
467.69	6640.10
467.87	6726.70
468.05	6803.94
468.23	6675.21
468.41	6775.85
468.60	6967.77
468.78	7059.06
468.96	6684.57
469.14	7030.97
469.32	6881.18
469.50	6927.99
469.69	7026.29
469.87	7133.95
470.05	7143.32
470.23	7164.38
470.41	7103.53
470.59	7152.68
470.77	7246.30
470.95	7286.09
471.14	7363.33
471.32	7286.09
471.50	7410.14
471.68	7332.90
471.86	7384.39
472.04	7309.49
472.22	7559.93
472.40	7368.01
472.58	7424.18
472.77	7480.35
472.95	7822.07
473.13	7747.17
473.31	7737.81
473.49	7667.60
473.67	7449.93
473.85	7613.76
474.03	8004.63
474.21	7754.19
474.39	7880.58
474.57	8035.06
474.75	8056.12
474.93	8044.42
475.12	8042.08
475.30	8077.19
475.48	8189.53
475.66	8086.55
475.84	8257.41
476.02	8430.61
476.20	8423.59
476.38	8386.14
476.56	8414.23
476.74	8489.12
476.92	8531.25
477.10	8662.32
477.28	8610.83
477.46	8706.79
477.64	8865.95
477.82	8870.63
478.00	9053.19
478.18	8994.68
478.36	9303.63
478.54	9174.90
478.72	9179.58
478.90	9282.56
479.08	9490.87
479.26	9540.02
479.44	9542.36
479.62	9628.96
479.80	9731.95
479.98	9745.99
480.16	9774.08
480.34	9788.12
480.52	9984.73
480.70	9980.04
480.88	9785.78
481.06	10087.71
481.24	10160.27
481.41	10356.87
481.59	10401.34
481.77	10401.34
481.95	10663.48
482.13	10579.22
482.31	10424.75
482.49	10675.18
482.67	10892.85
482.85	10834.34
483.03	11122.23
483.21	11204.14
483.39	11330.53
483.57	11115.20
483.74	11410.11
483.92	11487.35
484.10	11339.90
484.28	11660.55
484.46	11639.48
484.64	12084.19
484.82	11847.79
485.00	12016.31
485.18	12175.47
485.35	12280.79
485.53	12271.43
485.71	12259.73
485.89	12608.47
486.07	12439.95
486.25	12512.50
486.43	12692.73
486.61	12882.31
486.78	12849.54
486.96	12826.14
487.14	13226.37
487.32	13350.42
487.50	13266.16
487.68	13067.21
487.85	13514.25
488.03	13825.54
488.21	13834.91
488.39	13741.29
488.57	13970.66
488.75	14024.49
488.92	14242.16
489.10	14333.44
489.28	14298.33
489.46	14651.75
489.64	14567.49
489.81	14745.38
489.99	14567.49
490.17	14738.35
490.35	15089.43
490.53	14780.48
490.70	14984.11
490.88	15084.75
491.06	15363.28
491.24	15021.56
491.41	15587.97
491.59	15346.89
491.77	15503.71
491.95	15768.19
492.13	16070.12
492.30	15857.13
492.48	16203.53
492.66	16114.59
492.84	16166.08
493.01	16245.66
493.19	16273.74
493.37	16533.54
493.54	16744.19
493.72	16617.80
493.90	16683.34
494.08	16870.58
494.25	17125.70
494.43	17125.70
494.61	17284.86
494.79	17202.94
494.96	17263.79
495.14	17301.24
495.32	17568.06
495.49	17593.81
495.67	17752.96
495.85	17797.43
496.02	17841.90
496.20	18295.97
496.38	17977.65
496.55	18033.83
496.73	18420.02
496.91	18293.63
497.09	18431.72
497.26	18450.44
497.44	18796.84
497.62	18553.43
497.79	18710.24
497.97	18890.46
498.14	19066.00
498.32	19187.71
498.50	19190.05
498.67	19632.41
498.85	19557.52
499.03	19346.87
499.20	19515.39
499.38	19424.11
499.56	19604.33
499.73	19756.46
499.91	19695.61
500.08	19611.35
500.26	19847.74
500.44	19770.51
500.61	19866.47
500.79	19859.45
500.97	20194.14
501.14	20524.16
501.32	20348.62
501.49	20624.80
501.67	20257.34
501.84	21015.67
502.02	20463.30
502.20	21146.74
502.37	20893.96
502.55	20975.88
502.72	20945.45
502.90	20954.82
503.07	21085.89
503.25	20915.03
503.43	20732.47
503.60	21516.54
503.78	21469.73
503.95	21584.42
504.13	21310.58
504.30	21481.44
504.48	21436.97
504.65	21710.81
504.83	21806.77
505.01	22008.06
505.18	21994.01
505.36	22068.91
505.53	21846.56
505.71	21986.99
505.88	22291.26
506.06	22242.11
506.23	22216.36
506.41	22412.97
506.58	22686.81
506.76	22412.97
506.93	22625.96
507.11	22356.80
507.28	22354.46
507.46	22649.36
507.63	22970.02
507.81	23222.80
507.98	22801.50
508.16	23115.13
508.33	23161.94
508.50	23260.24
508.68	23171.30
508.85	23548.13
509.03	23248.54
509.20	23587.92
509.38	23702.61
509.55	23653.45
509.73	23700.26
509.90	23988.15
510.08	23674.52
510.25	23985.81
510.42	24299.44
510.60	24074.75
510.77	24247.95
510.95	24411.79
511.12	24205.82
511.30	23861.76
511.47	24491.37
511.64	24467.96
511.82	24575.62
511.99	24437.53
512.17	24601.37
512.34	24496.05
512.51	24692.65
512.69	24936.07
512.86	24610.73
513.04	25188.85
513.21	24858.83
513.38	25076.50
513.56	25198.21
513.73	24933.73
513.90	25270.76
514.08	25284.81
514.25	25340.98
514.43	25635.89
514.60	25626.53
514.77	25422.90
514.95	25888.67
515.12	25694.40
515.29	25394.81
515.47	25921.43
515.64	25743.55
515.81	25792.70
515.99	26415.29
516.16	26279.54
516.33	26396.56
516.51	26710.19
516.68	26075.91
516.85	26349.75
517.03	26469.12
517.20	26616.57
517.37	26558.06
517.54	26654.02
517.72	26609.55
517.89	26429.33
518.06	26675.09
518.24	26977.01
518.41	26476.14
518.58	27164.26
518.75	27154.90
518.93	26895.10
519.10	27096.38
519.27	27321.07
519.45	27323.41
519.62	26925.52
519.79	27173.62
519.96	27599.60
520.14	27454.48
520.31	27393.63
520.48	27857.06
520.65	27772.80
520.83	27934.29
521.00	27957.70
521.17	28196.43
521.34	27505.98
521.52	27955.36
521.69	27969.40
521.86	28189.41
522.03	28416.44
522.20	28027.92
522.38	28390.70
522.55	27967.06
522.72	28030.26
522.89	28404.74
523.07	28730.08
523.24	28788.59
523.41	28816.68
523.58	28175.37
523.75	28739.44
523.92	28978.17
524.10	28863.49
524.27	28833.06
524.44	29139.67
524.61	29310.53
524.78	29195.84
524.96	29179.46
525.13	29144.35
525.30	29226.27
525.47	29696.72
525.64	29296.49
525.81	29483.73
525.98	29722.46
526.16	29441.60
526.33	29322.23
526.50	29383.09
526.67	29556.28
526.84	29556.28
527.01	29399.47
527.18	29408.83
527.36	29986.94
527.53	29607.78
527.70	30448.03
527.87	30195.25
528.04	30087.59
528.21	30225.68
528.38	29844.17
528.55	30258.45
528.72	30242.06
528.89	30101.63
529.07	30195.25
529.24	30368.45
529.41	30483.14
529.58	30305.26
529.75	30340.36
529.92	30761.66
530.09	30616.55
530.26	30583.78
530.43	30574.42
530.60	30419.94
530.77	30682.08
530.94	30726.55
531.11	30403.56
531.28	30834.22
531.46	30686.76
531.63	30965.29
531.80	30888.05
531.97	31185.30
532.14	31278.92
532.31	30979.33
532.48	30972.31
532.65	31346.79
532.82	31178.28
532.99	31531.70
533.16	31234.45
533.33	31756.39
533.50	31571.49
533.67	31470.84
533.84	30813.15
534.01	31484.89
534.18	31271.90
534.35	31761.07
534.52	31292.96
534.69	31704.90
534.86	31927.25
535.03	31718.94
535.20	32030.23
535.37	31758.73
535.54	31927.25
535.71	32006.83
535.88	31950.65
536.05	31962.36
536.22	32217.47
536.38	32215.13
536.55	32308.76
536.72	32142.58
536.89	31857.03
537.06	31786.82
537.23	31978.74
537.40	32137.90
537.57	32322.80
537.74	32657.49
537.91	32678.56
538.08	32767.50
538.25	32587.28
538.42	32547.49
538.59	32606.00
538.75	32341.52
538.92	32638.77
539.09	32966.45
539.26	32809.63
539.43	32584.94
539.60	32985.17
539.77	32924.32
539.94	33156.03
540.11	33263.69
540.28	33277.74
540.44	33172.41
540.61	32830.69
540.78	33354.97
540.95	33369.02
541.12	33457.96
541.29	34010.32
541.46	33855.85
541.62	33537.54
541.79	33766.91
541.96	33429.87
542.13	33336.25
542.30	33560.94
542.47	34141.39
542.63	34012.66
542.80	34029.05
542.97	33876.91
543.14	34024.37
543.31	34232.68
543.48	33869.89
543.64	34752.27
543.81	34272.46
543.98	34529.92
544.15	34944.20
544.32	34354.38
544.48	34841.21
544.65	34501.84
544.82	34129.69
544.99	34361.40
545.16	34237.36
545.32	34195.23
545.49	35101.01
545.66	35625.29
545.83	35709.55
546.00	35529.33
546.16	35023.78
546.33	34323.96
546.50	34483.11
546.67	34600.14
546.83	34113.31
547.00	34349.70
547.17	34595.46
547.34	34515.88
547.50	34888.03
547.67	34679.72
547.84	34703.12
548.00	34916.11
548.17	35068.25
548.34	35295.28
548.51	35248.47
548.67	35026.12
548.84	35154.85
549.01	35105.70
549.18	35005.05
549.34	34775.68
549.51	34586.10
549.68	34974.63
549.84	34593.12
550.01	35325.71
550.18	34927.81
550.34	35325.71
550.51	35157.19
550.68	35143.14
550.84	34731.21
551.01	35007.39
551.18	35101.01
551.34	34759.30
551.51	35178.25
551.68	35370.18
551.84	34995.69
552.01	35393.58
552.18	35311.66
552.34	35552.74
552.51	35428.69
552.68	35030.80
552.84	35323.36
553.01	35583.16
553.18	35400.60
553.34	35728.28
553.51	35330.39
553.67	35784.45
553.84	35627.63
554.01	35952.97
554.17	35583.16
554.34	35695.51
554.51	35288.26
554.67	35597.21
554.84	35716.58
555.00	35086.97
555.17	35742.32
555.33	35227.40
555.50	35770.41
555.67	36048.93
555.83	35681.47
556.00	35938.93
556.16	35491.88
556.33	35648.70
556.50	36018.50
556.66	36151.91
556.83	35789.13
556.99	36011.48
557.16	36184.68
557.32	35901.48
557.49	36053.61
557.65	35967.01
557.82	35828.92
557.98	36226.81
558.15	35695.51
558.32	35821.90
558.48	36238.51
558.65	35892.12
558.81	35889.77
558.98	36519.38
559.14	36313.41
559.31	36013.82
559.47	36088.72
559.64	35868.71
559.80	36329.80
559.97	36180.00
560.13	36168.30
560.30	36128.51
560.46	36631.72
560.63	36357.88
560.79	36360.22
560.96	35845.30
561.12	36470.23
561.29	36201.07
561.45	36250.22
561.61	36587.25
561.78	36507.68
561.94	36549.81
562.11	36659.81
562.27	36500.65
562.44	36215.11
562.60	36662.15
562.77	36648.11
562.93	36414.05
563.10	36870.46
563.26	36341.50
563.42	36400.01
563.59	36723.01
563.75	36638.75
563.92	36460.87
564.08	36397.67
564.24	36439.80
564.41	36343.84
564.57	36575.55
564.74	36390.65
564.90	36034.89
565.07	36652.79
565.23	36737.05
565.39	36950.04
565.56	36879.82
565.72	36444.48
565.88	36517.04
566.05	36301.71
566.21	36781.52
566.38	36837.69
566.54	36765.14
566.70	36418.74
566.87	36758.11
567.03	36840.03
567.19	36912.59
567.36	36928.97
567.52	36442.14
567.68	36793.22
567.85	36779.18
568.01	36645.77
568.17	36575.55
568.34	36549.81
568.50	36554.49
568.66	36858.76
568.83	36854.08
568.99	36669.17
569.15	36800.24
569.32	36868.12
569.48	36423.42
569.64	36840.03
569.81	36535.76
569.97	36905.57
570.13	37331.54
570.30	36744.07
570.46	36732.37
570.62	36549.81
570.78	36545.12
570.95	36495.97
571.11	36858.76
571.27	36701.94
571.43	36505.34
571.60	36753.43
571.76	36605.98
571.92	36603.64
572.09	36914.93
572.25	36828.33
572.41	36950.04
572.57	37104.51
572.74	37046.00
572.90	36858.76
573.06	36938.33
573.22	36776.84
573.38	36919.61
573.55	37067.06
573.71	37574.96
573.87	37057.70
574.03	37088.13
574.20	36786.20
574.36	36385.97
574.52	36676.19
574.68	36861.10
574.84	36858.76
575.01	36704.28
575.17	37233.24
575.33	36552.15
575.49	36952.38
575.65	36964.08
575.82	36957.06
575.98	36840.03
576.14	36917.27
576.30	36938.33
576.46	37167.71
576.62	36933.65
576.79	36685.56
576.95	36842.37
577.11	36985.15
577.27	36994.51
577.43	37113.87
577.59	36891.52
577.75	37219.20
577.92	36802.58
578.08	36645.77
578.24	36718.32
578.40	36875.14
578.56	37242.60
578.72	37464.96
578.88	37289.42
579.04	37301.12
579.21	37209.84
579.37	37146.64
579.53	37165.37
579.69	36809.61
579.85	37312.82
580.01	37195.79
580.17	37001.53
580.33	36985.15
580.49	36935.99
580.65	37336.23
580.82	37282.39
580.98	37214.52
581.14	36891.52
581.30	37102.17
581.46	36938.33
581.62	36741.73
581.78	36954.72
581.94	37188.77
582.10	37343.25
582.26	37284.73
582.42	37434.53
582.58	37385.38
582.74	37158.34
582.90	37385.38
583.06	37046.00
583.22	36821.31
583.38	36989.83
583.54	36954.72
583.70	37067.06
583.86	37013.23
584.02	37172.39
584.18	37352.61
584.34	37518.79
584.50	37069.40
584.66	36678.54
584.82	36704.28
584.98	37467.30
585.14	36865.78
585.30	37053.02
585.46	36964.08
585.62	36889.18
585.78	37317.50
585.94	37013.23
586.10	36940.68
586.26	37053.02
586.42	37198.13
586.58	37649.86
586.74	37137.28
586.90	37057.70
587.06	37284.73
587.22	37034.30
587.38	37090.47
587.54	37359.63
587.70	37488.36
587.86	37570.28
588.02	37350.27
588.18	37626.45
588.34	37104.51
588.49	37207.50
588.65	36617.68
588.81	37509.43
588.97	37399.42
589.13	37146.64
589.29	37244.94
589.45	37422.83
589.61	37474.32
589.77	37745.82
589.93	37366.65
590.08	37598.37
590.24	37411.12
590.40	37488.36
590.56	37315.16
590.72	37322.18
590.88	36879.82
591.04	37230.90
591.20	37785.61
591.35	37076.43
591.51	37982.21
591.67	37467.30
591.83	37352.61
591.99	37273.03
592.15	37619.43
592.31	37432.19
592.46	37486.02
592.62	37209.84
592.78	37024.93
592.94	37666.24
593.10	37296.44
593.26	37610.07
593.41	37656.88
593.57	37612.41
593.73	37741.14
593.89	37603.05
594.05	37998.60
594.20	37368.99
594.36	37242.60
594.52	37226.22
594.68	37074.09
594.84	37357.29
594.99	37523.47
595.15	37303.46
595.31	37881.57
595.47	37535.17
595.62	37486.02
595.78	37553.90
595.94	37399.42
596.10	37413.46
596.25	37441.55
596.41	36994.51
596.57	37301.12
596.73	37411.12
596.88	37755.18
597.04	37303.46
597.20	37284.73
597.36	37457.93
597.51	37986.89
597.67	37542.19
597.83	37291.76
597.99	37509.43
598.14	37165.37
598.30	37584.32
598.46	37684.97
598.61	37507.08
598.77	37193.45
598.93	37453.25
599.09	37275.37
599.24	38129.67
599.40	37434.53
599.56	37418.14
599.71	37179.41
599.87	37462.61
600.03	37266.01
600.18	37060.04
600.34	37397.08
600.50	37841.78
600.65	37383.04
600.81	37638.15
600.97	37757.52
601.12	37652.20
601.28	37612.41
601.44	37303.46
601.59	37415.80
601.75	37434.53
601.91	37486.02
602.06	37099.83
602.22	37507.08
602.37	37247.29
602.53	37401.76
602.69	37827.74
602.84	37364.31
603.00	37682.62
603.16	37062.38
603.31	37202.82
603.47	37184.09
603.62	37537.51
603.78	37212.18
603.94	37174.73
604.09	36905.57
604.25	36994.51
604.40	36889.18
604.56	37184.09
604.71	37436.87
604.87	37188.77
605.03	37254.31
605.18	36959.40
605.34	37457.93
605.49	36924.29
605.65	36814.29
605.80	36657.47
605.96	36650.45
606.12	37228.56
606.27	36837.69
606.43	37067.06
606.58	37408.78
606.74	36683.22
606.89	37102.17
607.05	37514.11
607.20	37385.38
607.36	36697.26
607.51	36711.30
607.67	36800.24
607.82	36573.21
607.98	37127.92
608.13	37024.93
608.29	37195.79
608.44	36676.19
608.60	36629.38
608.75	37474.32
608.91	36900.89
609.06	36882.16
609.22	37120.90
609.37	36737.05
609.53	37055.36
609.68	36723.01
609.84	36762.79
609.99	37090.47
610.15	36833.01
610.30	36847.05
610.46	37596.03
610.61	37523.47
610.76	37521.13
610.92	37467.30
611.07	37687.31
611.23	37659.22
611.38	37797.31
611.54	37656.88
611.69	37436.87
611.84	36987.49
612.00	37015.57
612.15	36739.39
612.31	37476.66
612.46	36484.27
612.62	37102.17
612.77	36912.59
612.92	36776.84
613.08	36631.72
613.23	36528.74
613.39	36371.92
613.54	36439.80
613.69	36364.90
613.85	36217.45
614.00	36325.11
614.15	36673.85
614.31	36479.59
614.46	36821.31
614.62	36341.50
614.77	36498.31
614.92	36669.17
615.08	36320.43
615.23	36208.09
615.38	36121.49
615.54	35871.05
615.69	35938.93
615.84	35857.01
616.00	36268.94
616.15	36498.31
616.30	36507.68
616.46	36191.70
616.61	36233.83
616.76	36573.21
616.92	35889.77
617.07	35934.24
617.22	35711.89
617.37	35311.66
617.53	35934.24
617.68	35885.09
617.83	35587.85
617.99	35662.74
618.14	35749.34
618.29	36355.54
618.45	35765.73
618.60	35604.23
618.75	35864.03
618.90	35431.03
619.06	35732.96
619.21	35601.89
619.36	36039.57
619.51	35655.72
619.67	35288.26
619.82	35049.52
619.97	35658.06
620.12	35367.84
620.28	35400.60
620.43	35548.06
620.58	35840.62
620.73	35133.78
620.89	35702.53
621.04	35791.47
621.19	35737.64
621.34	35395.92
621.49	35367.84
621.65	35260.17
621.80	35470.82
621.95	35075.27
622.10	35208.68
622.25	35447.41
622.41	35047.18
622.56	35077.61
622.71	35847.64
622.86	35435.71
623.01	35321.02
623.16	35349.11
623.32	35143.14
623.47	34955.90
623.62	35182.93
623.77	34974.63
623.92	35220.38
624.07	34806.11
624.23	34986.33
624.38	34850.58
624.53	35063.57
624.68	35065.91
624.83	35377.20
624.98	35349.11
625.13	34946.54
625.29	34614.18
625.44	34843.56
625.59	35009.73
625.74	34237.36
625.89	34707.80
626.04	34616.52
626.19	34728.87
626.34	34534.60
626.49	34747.59
626.65	34316.93
626.80	34597.80
626.95	34375.45
627.10	34244.38
627.25	34405.88
627.40	34668.02
627.55	34092.24
627.70	34272.46
627.85	34153.10
628.00	34174.16
628.15	34197.57
628.30	34436.30
628.45	34450.35
628.60	33998.62
628.76	34352.04
628.91	34223.31
629.06	33930.75
629.21	33935.43
629.36	34354.38
629.51	34235.02
629.66	34047.77
629.81	33638.18
629.96	34096.92
630.11	34185.86
630.26	33862.87
630.41	33799.68
630.56	33670.95
630.71	33797.34
630.86	34171.82
631.01	34230.33
631.16	34408.22
631.31	33942.45
631.46	33813.72
631.61	34122.67
631.76	33677.97
631.91	33429.87
632.06	33509.45
632.21	33745.84
632.36	33598.39
632.51	33345.61
632.66	33717.76
632.81	33804.36
632.96	33551.58
633.10	33708.40
633.25	33453.28
633.40	33532.86
633.55	33570.30
633.70	33219.22
633.85	33345.61
634.00	32980.49
634.15	32989.85
634.30	33205.18
634.45	33193.48
634.60	33270.72
634.75	33338.59
634.90	33291.78
635.05	33462.64
635.19	33008.58
635.34	33319.87
635.49	33584.35
635.64	33284.76
635.79	33118.58
635.94	33060.07
636.09	32826.01
636.24	33268.37
636.39	32961.76
636.53	33074.11
636.68	32629.41
636.83	32786.22
636.98	33172.41
637.13	32833.04
637.28	32898.57
637.43	33006.23
637.57	33053.05
637.72	32996.87
637.87	32720.69
638.02	33139.65
638.17	32879.85
638.32	32121.51
638.46	32863.46
638.61	32627.07
638.76	32840.06
638.91	32716.01
639.06	32856.44
639.20	33078.79
639.35	32596.64
639.50	32650.47
639.65	32786.22
639.80	32790.91
639.94	32589.62
640.09	32687.92
640.24	32430.46
640.39	32488.98
640.54	32404.72
640.68	32491.32
640.83	32650.47
640.98	32182.37
641.13	32271.31
641.27	32421.10
641.42	32259.60
641.57	31880.44
641.72	32531.11
641.86	32598.98
642.01	32198.75
642.16	32673.88
642.31	32446.85
642.45	32285.35
642.60	32091.09
642.75	32233.86
642.90	32156.62
643.04	31847.67
643.19	31826.60
643.34	32376.63
643.48	32105.13
643.63	31864.05
643.78	32538.13
643.93	32259.60
644.07	32091.09
644.22	31761.07
644.37	31892.14
644.51	31838.31
644.66	31889.80
644.81	32004.49
644.95	31744.69
645.10	31906.18
645.25	31503.61
645.39	32135.56
645.54	31470.84
645.69	31969.38
645.83	31929.59
645.98	31889.80
646.13	31899.16
646.27	31653.40
646.42	31981.08
646.57	31758.73
646.71	31821.92
646.86	31976.40
647.00	32046.62
647.15	31461.48
647.30	31346.79
647.44	31388.92
647.59	31440.42
647.74	31461.48
647.88	31583.19
648.03	31550.42
648.17	31777.45
648.32	31484.89
648.47	31854.69
648.61	31351.48
648.76	31438.08
648.90	31536.38
649.05	31519.99
649.20	31316.37
649.34	31227.43
649.49	31229.77
649.63	31215.72
649.78	31325.73
649.92	31206.36
650.07	31477.86
650.21	31040.18
650.36	31681.49
650.51	31276.58
650.65	31178.28
650.80	31351.48
650.94	31201.68
651.09	31253.17
651.23	31337.43
651.38	31119.76
651.52	30881.03
651.67	30707.83
651.81	30878.69
651.96	31042.53
652.10	31211.04
652.25	30815.49
652.39	31147.85
652.54	31072.95
652.68	30836.56
652.83	31037.84
652.97	31035.50
653.12	31124.44
653.26	30813.15
653.41	30904.43
653.55	30888.05
653.70	30267.81
653.84	30621.23
653.99	30536.97
654.13	30632.93
654.27	30969.97
654.42	31145.51
654.56	30513.56
654.71	30380.15
654.85	30827.20
655.00	30368.45
655.14	30632.93
655.29	30623.57
655.43	30441.01
655.57	30485.48
655.72	30354.41
655.86	30307.60
656.01	30490.16
656.15	30431.65
656.30	30576.76
656.44	30045.46
656.58	30171.85
656.73	30370.79
656.87	30342.70
657.01	30349.73
657.16	30562.72
657.30	30169.51
657.45	30192.91
657.59	30391.86
657.73	29975.24
657.88	30391.86
658.02	30260.79
658.16	29949.50
658.31	29766.93
658.45	29876.94
658.60	29701.40
658.74	29890.98
658.88	30108.65
659.03	29741.19
659.17	29701.40
659.31	29844.17
659.46	29722.46
659.60	30024.39
659.74	29979.92
659.89	29755.23
660.03	29900.34
660.17	29680.33
660.32	29418.19
660.46	29371.38
660.60	29209.89
660.74	29205.20
660.89	29626.50
661.03	29149.03
661.17	29291.80
661.32	29200.52
661.46	29591.39
661.60	29535.22
661.74	29558.63
661.89	29378.40
662.03	29624.16
662.17	29137.33
662.31	29254.36
662.46	29453.30
662.60	29219.25
662.74	28819.02
662.88	28781.57
663.03	28795.61
663.17	28816.68
663.31	28709.01
663.45	28458.57
663.60	28783.91
663.74	29202.86
663.88	28968.81
664.02	28788.59
664.17	29118.60
664.31	28629.43
664.45	28804.97
664.59	28802.63
664.73	28166.01
664.88	28554.54
665.02	28067.70
665.16	28294.74
665.30	28121.54
665.44	28421.13
665.59	27772.80
665.73	28355.59
665.87	27983.44
666.01	28404.74
666.15	28119.20
666.29	27723.65
666.44	27946.00
666.58	28154.30
666.72	27700.24
666.86	27978.76
667.00	28325.16
667.14	27606.62
667.28	27681.52
667.43	27590.24
667.57	28102.81
667.71	27974.08
667.85	27693.22
667.99	27468.53
668.13	27704.92
668.27	27447.46
668.41	27447.46
668.56	27508.32
668.70	27295.33
668.84	27552.79
668.98	27597.26
669.12	27267.24
669.26	27227.45
669.40	27421.72
669.54	27152.55
669.68	27016.80
669.82	26902.12
669.96	26651.68
670.10	26920.84
670.25	26831.90
670.39	26953.61
670.53	26822.54
670.67	26644.66
670.81	26862.33
670.95	26656.36
671.09	26703.17
671.23	27028.51
671.37	26618.91
671.51	26663.38
671.65	26827.22
671.79	26539.33
671.93	26122.72
672.07	26572.10
672.21	25937.82
672.35	25919.09
672.49	26096.97
672.63	25909.73
672.77	25706.10
672.91	26061.87
673.05	25972.92
673.19	26132.08
673.33	25792.70
673.47	25874.62
673.61	25923.77
673.75	25830.15
673.89	25584.40
674.03	25614.82
674.17	25486.09
674.31	25460.35
674.45	25109.27
674.59	25458.01
674.73	25371.41
674.87	25179.48
675.01	25268.42
675.15	25436.94
675.29	24673.93
675.43	25413.54
675.56	25523.54
675.70	25139.69
675.84	25373.75
675.98	24622.44
676.12	24870.53
676.26	24863.51
676.40	25001.60
676.54	24783.93
676.68	24964.15
676.82	24276.04
676.96	24470.30
677.10	24343.91
677.23	24350.93
677.37	24201.14
677.51	24224.54
677.65	24208.16
677.79	24070.07
677.93	23810.27
678.07	23765.80
678.21	23648.77
678.34	23847.72
678.48	23559.83
678.62	23742.39
678.76	23358.55
678.90	23351.52
679.04	23646.43
679.18	23438.12
679.31	23080.02
679.45	23194.71
679.59	22941.93
679.73	22857.67
679.87	22820.22
680.00	22504.25
680.14	22684.47
680.28	22752.35
680.42	22417.65
680.56	22864.69
680.70	22518.29
680.83	22855.33
680.97	22764.05
681.11	22815.54
681.25	22319.35
681.39	22436.38
681.52	22338.07
681.66	22188.28
681.80	22085.30
681.94	21991.67
682.07	21762.30
682.21	21724.85
682.35	21575.06
682.49	21523.57
682.62	21359.73
682.76	21448.67
682.90	21343.35
683.04	21364.41
683.17	21507.18
683.31	21546.97
683.45	21207.59
683.59	21280.15
683.72	21326.96
683.86	21071.84
684.00	20910.35
684.13	20945.45
684.27	20879.92
684.41	20718.42
684.55	20809.70
684.68	20706.72
684.82	20482.03
684.96	20568.63
685.09	20379.04
685.23	20367.34
685.37	20053.71
685.50	20327.55
685.64	20107.54
685.78	20327.55
685.91	20140.31
686.05	20353.30
686.19	20023.28
686.32	19948.39
686.46	19789.23
686.60	19719.01
686.73	19864.13
686.87	19309.42
687.01	19403.04
687.14	19587.94
687.28	19176.01
687.42	19459.21
687.55	18869.40
687.69	19393.68
687.82	19243.88
687.96	18993.45
688.10	19197.07
688.23	19264.95
688.37	18956.00
688.50	18888.12
688.64	18485.55
688.78	18841.31
688.91	18572.15
689.05	18635.35
689.18	18558.11
689.32	17965.95
689.46	18544.06
689.59	18200.01
689.73	18157.88
689.86	17982.34
690.00	17975.31
690.13	18085.32
690.27	18200.01
690.41	18052.55
690.54	17884.03
690.68	18132.13
690.81	17851.27
690.95	17928.50
691.08	17790.41
691.22	17666.36
691.35	17252.09
691.49	17710.83
691.62	17359.75
691.76	17628.92
691.89	17153.79
692.03	16896.33
692.16	17032.08
692.30	16884.62
692.43	16973.56
692.57	16608.44
692.70	17128.04
692.84	16812.07
692.97	16732.49
693.11	16826.11
693.24	16638.87
693.38	16697.38
693.51	16702.06
693.65	16666.95
693.78	16446.94
693.92	16388.43
694.05	16222.25
694.19	16278.43
694.32	16184.80
694.45	16074.80
694.59	15810.32
694.72	15805.64
694.86	15634.78
694.99	15510.73
695.13	15784.57
695.26	15559.88
695.39	15346.89
695.53	15473.28
695.66	15431.15
695.80	15297.74
695.93	15840.75
696.07	15496.69
696.20	15211.14
696.33	15253.27
696.47	15269.66
696.60	15309.44
696.73	14986.45
696.87	14888.15
697.00	14789.85
697.14	14670.48
697.27	14689.20
697.40	14593.24
697.54	14286.63
697.67	14675.16
697.80	14401.32
697.94	14494.94
698.07	14473.87
698.21	14380.25
698.34	14230.46
698.47	14153.22
698.61	13940.23
698.74	14492.60
698.87	14153.22
699.01	13980.02
699.14	14031.51
699.27	14169.60
699.40	13675.75
699.54	13841.93
699.67	13563.40
699.80	13582.13
699.94	13593.83
700.07	13245.09
700.20	13305.95
700.34	13310.63
700.47	13013.38
700.60	13139.77
700.73	13289.56
700.87	13088.28
701.00	12975.93
701.13	13261.48
701.26	13146.79
701.40	13226.37
701.53	13078.91
701.66	12830.82
701.79	12837.84
701.93	12741.88
702.06	12524.21
702.19	12463.35
702.32	12716.13
702.46	12526.55
702.59	12465.69
702.72	12053.76
702.85	12138.02
702.99	12250.36
703.12	12341.64
703.25	12074.82
703.38	12184.83
703.51	12102.91
703.65	12140.36
703.78	12051.42
703.91	12058.44
704.04	11751.83
704.17	11866.52
704.31	11772.89
704.44	11868.86
704.57	11674.59
704.70	11468.62
704.83	11377.34
704.96	11466.28
705.10	11431.18
705.23	11262.66
>>>>>End Processed Spectral Data<<<<<
