SpectraSuite Data File
++++++++++++++++++++++++++++++++++++
Date: Fri Oct 04 11:42:22 GMT-05:00 2013
User: price-jones
Dark Spectrum Present: No
Reference Spectrum Present: No
Number of Sampled Component Spectra: 1
Spectrometers: USB2+H05261
Integration Time (usec): 100000 (USB2+H05261)
Spectra Averaged: 1 (USB2+H05261)
Boxcar Smoothing: 0 (USB2+H05261)
Correct for Electrical Dark: No (USB2+H05261)
Strobe/Lamp Enabled: No (USB2+H05261)
Correct for Detector Non-linearity: No (USB2+H05261)
Correct for Stray Light: No (USB2+H05261)
Number of Pixels in Processed Spectrum: 2048
>>>>>Begin Processed Spectral Data<<<<<
365.73	65.54
365.92	65.54
366.12	65.54
366.32	0.00
366.52	0.00
366.72	0.00
366.91	0.00
367.11	0.00
367.31	0.00
367.51	0.00
367.70	0.00
367.90	0.00
368.10	0.00
368.30	0.00
368.49	0.00
368.69	0.00
368.89	21.06
369.09	0.00
369.28	0.00
369.48	0.00
369.68	0.00
369.87	4.68
370.07	4.68
370.27	0.00
370.47	46.81
370.66	100.64
370.86	112.35
371.06	191.92
371.25	215.33
371.45	159.16
371.65	142.77
371.84	117.03
372.04	128.73
372.24	227.03
372.44	189.58
372.63	290.23
372.83	210.65
373.03	180.22
373.22	131.07
373.42	236.39
373.62	145.11
373.81	168.52
374.01	220.01
374.21	259.80
374.40	175.54
374.60	222.35
374.79	208.31
374.99	231.71
375.19	278.52
375.38	259.80
375.58	234.05
375.78	229.37
375.97	231.71
376.17	315.97
376.37	280.86
376.56	203.63
376.76	243.42
376.95	205.97
377.15	308.95
377.35	332.36
377.54	283.20
377.74	208.31
377.93	283.20
378.13	313.63
378.33	285.55
378.52	234.05
378.72	283.20
378.91	220.01
379.11	287.89
379.31	205.97
379.50	222.35
379.70	271.50
379.89	271.50
380.09	264.48
380.28	290.23
380.48	210.65
380.68	276.18
380.87	238.73
381.07	220.01
381.26	273.84
381.46	285.55
381.65	159.16
381.85	145.11
382.04	208.31
382.24	220.01
382.43	205.97
382.63	189.58
382.83	191.92
383.02	203.63
383.22	264.48
383.41	147.45
383.61	180.22
383.80	266.82
384.00	145.11
384.19	152.13
384.39	243.42
384.58	262.14
384.78	304.27
384.97	231.71
385.17	248.10
385.36	266.82
385.56	236.39
385.75	292.57
385.95	269.16
386.14	276.18
386.34	264.48
386.53	301.93
386.72	252.78
386.92	285.55
387.11	266.82
387.31	285.55
387.50	304.27
387.70	276.18
387.89	250.44
388.09	269.16
388.28	238.73
388.48	238.73
388.67	273.84
388.86	297.25
389.06	266.82
389.25	334.70
389.45	353.42
389.64	297.25
389.84	337.04
390.03	315.97
390.22	259.80
390.42	294.91
390.61	332.36
390.81	353.42
391.00	381.51
391.19	409.59
391.39	353.42
391.58	395.55
391.78	311.29
391.97	283.20
392.16	245.76
392.36	318.31
392.55	257.46
392.75	222.35
392.94	163.84
393.13	271.50
393.33	212.99
393.52	255.12
393.71	262.14
393.91	327.68
394.10	311.29
394.29	308.95
394.49	290.23
394.68	386.19
394.88	320.65
395.07	348.74
395.26	379.17
395.46	315.97
395.65	332.36
395.84	306.61
396.04	322.99
396.23	231.71
396.42	241.08
396.62	177.88
396.81	259.80
397.00	287.89
397.19	374.49
397.39	311.29
397.58	369.80
397.77	353.42
397.97	395.55
398.16	425.98
398.35	535.98
398.55	414.27
398.74	465.77
398.93	505.56
399.12	430.66
399.32	465.77
399.51	367.46
399.70	456.40
399.90	568.75
400.09	468.11
400.28	400.23
400.47	402.57
400.67	397.89
400.86	470.45
401.05	503.22
401.24	493.85
401.44	507.90
401.63	486.83
401.82	482.15
402.01	561.73
402.21	468.11
402.40	496.19
402.59	489.17
402.78	486.83
402.97	491.51
403.17	524.28
403.36	524.28
403.55	470.45
403.74	482.15
403.93	510.24
404.13	580.45
404.32	624.92
404.51	669.39
404.70	643.65
404.89	526.62
405.09	503.22
405.28	421.30
405.47	554.71
405.66	423.64
405.85	472.79
406.05	416.62
406.24	475.13
406.43	468.11
406.62	535.98
406.81	521.94
407.00	528.96
407.20	489.17
407.39	430.66
407.58	606.20
407.77	428.32
407.96	585.13
408.15	589.82
408.34	543.00
408.54	557.05
408.73	559.39
408.92	535.98
409.11	575.77
409.30	535.98
409.49	496.19
409.68	444.70
409.87	486.83
410.07	543.00
410.26	514.92
410.45	564.07
410.64	493.85
410.83	543.00
411.02	559.39
411.21	557.05
411.40	505.56
411.59	573.43
411.78	578.11
411.98	566.41
412.17	594.50
412.36	589.82
412.55	538.32
412.74	550.03
412.93	601.52
413.12	552.37
413.31	695.14
413.50	540.66
413.69	580.45
413.88	557.05
414.07	533.64
414.26	662.37
414.45	519.60
414.64	615.56
414.83	557.05
415.02	587.47
415.22	573.43
415.41	606.20
415.60	624.92
415.79	638.97
415.98	688.12
416.17	678.76
416.36	655.35
416.55	610.88
416.74	585.13
416.93	559.39
417.12	601.52
417.31	568.75
417.50	535.98
417.69	622.58
417.88	727.91
418.07	603.86
418.26	596.84
418.45	599.18
418.64	641.31
418.83	608.54
419.02	634.29
419.21	566.41
419.39	627.26
419.58	585.13
419.77	521.94
419.96	627.26
420.15	683.44
420.34	603.86
420.53	716.20
420.72	615.56
420.91	528.96
421.10	699.82
421.29	695.14
421.48	678.76
421.67	744.29
421.86	695.14
422.05	582.79
422.24	552.37
422.43	561.73
422.61	631.94
422.80	615.56
422.99	587.47
423.18	636.63
423.37	690.46
423.56	589.82
423.75	636.63
423.94	643.65
424.13	613.22
424.32	638.97
424.50	587.47
424.69	643.65
424.88	657.69
425.07	594.50
425.26	641.31
425.45	589.82
425.64	592.16
425.83	643.65
426.01	683.44
426.20	678.76
426.39	622.58
426.58	582.79
426.77	519.60
426.96	500.87
427.15	599.18
427.33	662.37
427.52	601.52
427.71	594.50
427.90	587.47
428.09	653.01
428.28	496.19
428.46	507.90
428.65	505.56
428.84	552.37
429.03	613.22
429.22	582.79
429.40	571.09
429.59	524.28
429.78	482.15
429.97	500.87
430.16	402.57
430.34	456.40
430.53	468.11
430.72	482.15
430.91	510.24
431.10	578.11
431.28	681.10
431.47	725.57
431.66	645.99
431.85	566.41
432.03	608.54
432.22	617.90
432.41	653.01
432.60	784.08
432.79	669.39
432.97	744.29
433.16	655.35
433.35	624.92
433.54	596.84
433.72	596.84
433.91	627.26
434.10	643.65
434.28	641.31
434.47	748.97
434.66	709.18
434.85	692.80
435.03	837.91
435.22	1123.46
435.41	1650.08
435.59	1589.22
435.78	1476.88
435.97	1069.62
436.16	770.04
436.34	734.93
436.53	753.65
436.72	763.01
436.90	695.14
437.09	718.54
437.28	706.84
437.46	667.05
437.65	692.80
437.84	641.31
438.02	580.45
438.21	608.54
438.40	610.88
438.58	617.90
438.77	624.92
438.96	685.78
439.14	709.18
439.33	723.23
439.52	807.48
439.70	723.23
439.89	774.72
440.08	716.20
440.26	730.25
440.45	795.78
440.63	774.72
440.82	847.27
441.01	798.12
441.19	795.78
441.38	765.36
441.57	758.33
441.75	732.59
441.94	812.17
442.12	809.83
442.31	809.83
442.50	758.33
442.68	753.65
442.87	791.10
443.05	840.25
443.24	779.40
443.43	833.23
443.61	840.25
443.80	887.06
443.98	814.51
444.17	807.48
444.35	816.85
444.54	863.66
444.73	819.19
444.91	770.04
445.10	713.86
445.28	716.20
445.47	774.72
445.65	727.91
445.84	784.08
446.02	786.42
446.21	788.76
446.39	823.87
446.58	866.00
446.77	798.12
446.95	800.46
447.14	849.61
447.32	959.62
447.51	826.21
447.69	788.76
447.88	868.34
448.06	926.85
448.25	779.40
448.43	823.87
448.62	849.61
448.80	828.55
448.99	896.43
449.17	873.02
449.36	802.80
449.54	856.64
449.73	917.49
449.91	861.32
450.10	931.53
450.28	985.37
450.46	940.90
450.65	922.17
450.83	887.06
451.02	844.93
451.20	938.55
451.39	816.85
451.57	854.30
451.76	781.74
451.94	866.00
452.13	884.72
452.31	866.00
452.49	842.59
452.68	833.23
452.86	744.29
453.05	877.70
453.23	915.15
453.42	833.23
453.60	725.57
453.78	833.23
453.97	788.76
454.15	896.43
454.34	805.14
454.52	910.47
454.70	823.87
454.89	767.70
455.07	816.85
455.26	901.11
455.44	823.87
455.62	908.13
455.81	866.00
455.99	926.85
456.17	863.66
456.36	830.89
456.54	866.00
456.73	873.02
456.91	912.81
457.09	837.91
457.28	898.77
457.46	908.13
457.64	821.53
457.83	812.17
458.01	877.70
458.19	812.17
458.38	887.06
458.56	922.17
458.74	861.32
458.93	851.96
459.11	910.47
459.29	823.87
459.48	870.68
459.66	945.58
459.84	922.17
460.03	1001.75
460.21	978.34
460.39	861.32
460.57	987.71
460.76	980.68
460.94	1027.50
461.12	976.00
461.31	873.02
461.49	788.76
461.67	870.68
461.85	854.30
462.04	908.13
462.22	1088.35
462.40	1022.81
462.59	947.92
462.77	1006.43
462.95	950.26
463.13	936.21
463.32	938.55
463.50	931.53
463.68	959.62
463.86	910.47
464.05	938.55
464.23	875.36
464.41	849.61
464.59	798.12
464.78	856.64
464.96	898.77
465.14	847.27
465.32	889.40
465.50	945.58
465.69	917.49
465.87	861.32
466.05	828.55
466.23	812.17
466.41	842.59
466.60	903.45
466.78	847.27
466.96	844.93
467.14	945.58
467.32	997.07
467.51	894.08
467.69	915.15
467.87	894.08
468.05	901.11
468.23	821.53
468.41	882.38
468.60	912.81
468.78	891.74
468.96	826.21
469.14	994.73
469.32	966.64
469.50	915.15
469.69	912.81
469.87	894.08
470.05	887.06
470.23	786.42
470.41	917.49
470.59	908.13
470.77	828.55
470.95	891.74
471.14	828.55
471.32	917.49
471.50	1064.94
471.68	898.77
471.86	954.94
472.04	973.66
472.22	917.49
472.40	901.11
472.58	945.58
472.77	940.90
472.95	926.85
473.13	1025.15
473.31	1011.11
473.49	1001.75
473.67	978.34
473.85	957.28
474.03	1048.56
474.21	994.73
474.39	1062.60
474.57	1069.62
474.75	1055.58
474.93	1018.13
475.12	880.04
475.30	917.49
475.48	889.40
475.66	954.94
475.84	940.90
476.02	938.55
476.20	936.21
476.38	987.71
476.56	987.71
476.74	1036.86
476.92	1034.52
477.10	1109.41
477.28	999.41
477.46	894.08
477.64	1034.52
477.82	1039.20
478.00	1008.77
478.18	1067.28
478.36	1050.90
478.54	1022.81
478.72	1050.90
478.90	1039.20
479.08	1083.67
479.26	1086.01
479.44	1088.35
479.62	1086.01
479.80	1095.37
479.98	1088.35
480.16	1174.95
480.34	1067.28
480.52	1100.05
480.70	1170.27
480.88	1088.35
481.06	1179.63
481.24	1102.39
481.41	1177.29
481.59	1200.69
481.77	1256.87
481.95	1224.10
482.13	1191.33
482.31	1224.10
482.49	1210.06
482.67	1247.51
482.85	1235.80
483.03	1224.10
483.21	1203.04
483.39	1235.80
483.57	1172.61
483.74	1259.21
483.92	1184.31
484.10	1306.02
484.28	1247.51
484.46	1294.32
484.64	1324.74
484.82	1219.42
485.00	1334.11
485.18	1289.64
485.35	1261.55
485.53	1231.12
485.71	1135.16
485.89	1081.33
486.07	1146.86
486.25	1196.01
486.43	1249.85
486.61	1287.29
486.78	1287.29
486.96	1270.91
487.14	1308.36
487.32	1306.02
487.50	1322.40
487.68	1455.81
487.85	1287.29
488.03	1446.45
488.21	1500.28
488.39	1390.28
488.57	1409.00
488.75	1313.04
488.92	1671.14
489.10	1511.99
489.28	1502.62
489.46	1439.43
489.64	1413.68
489.81	1537.73
489.99	1568.16
490.17	1462.83
490.35	1537.73
490.53	1549.43
490.70	1451.13
490.88	1404.32
491.06	1575.18
491.24	1626.67
491.41	1434.75
491.59	1521.35
491.77	1336.45
491.95	1437.09
492.13	1521.35
492.30	1411.34
492.48	1579.86
492.66	1547.09
492.84	1605.61
493.01	1568.16
493.19	1614.97
493.37	1528.37
493.54	1600.93
493.72	1507.30
493.90	1540.07
494.08	1586.88
494.25	1633.69
494.43	1582.20
494.61	1692.21
494.79	1701.57
494.96	1486.24
495.14	1694.55
495.32	1509.65
495.49	1544.75
495.67	1671.14
495.85	1636.03
496.02	1638.38
496.20	1612.63
496.38	1647.74
496.55	1647.74
496.73	1673.48
496.91	1696.89
497.09	1717.95
497.26	1696.89
497.44	1710.93
497.62	1654.76
497.79	1666.46
497.97	1575.18
498.14	1584.54
498.32	1577.52
498.50	1579.86
498.67	1657.10
498.85	1694.55
499.03	1652.42
499.20	1633.69
499.38	1633.69
499.56	1582.20
499.73	1614.97
499.91	1521.35
500.08	1610.29
500.26	1530.71
500.44	1621.99
500.61	1563.48
500.79	1561.14
500.97	1570.50
501.14	1533.05
501.32	1593.90
501.49	1638.38
501.67	1610.29
501.84	1572.84
502.02	1626.67
502.20	1610.29
502.37	1593.90
502.55	1570.50
502.72	1589.22
502.90	1610.29
503.07	1528.37
503.25	1631.35
503.43	1579.86
503.60	1502.62
503.78	1437.09
503.95	1502.62
504.13	1572.84
504.30	1577.52
504.48	1682.85
504.65	1694.55
504.83	1713.27
505.01	1645.40
505.18	1736.68
505.36	1792.85
505.53	1626.67
505.71	1710.93
505.88	1783.49
506.06	1717.95
506.23	1575.18
506.41	1575.18
506.58	1750.72
506.76	1689.87
506.93	1652.42
507.11	1757.74
507.28	1650.08
507.46	1605.61
507.63	1544.75
507.81	1528.37
507.98	1607.95
508.16	1710.93
508.33	1584.54
508.50	1748.38
508.68	1629.01
508.85	1661.78
509.03	1596.25
509.20	1699.23
509.38	1715.61
509.55	1619.65
509.73	1734.34
509.90	1755.40
510.08	1687.53
510.25	1675.82
510.42	1757.74
510.60	1619.65
510.77	1727.32
510.95	1685.19
511.12	1570.50
511.30	1654.76
511.47	1802.21
511.64	1830.30
511.82	1736.68
511.99	1638.38
512.17	1682.85
512.34	1584.54
512.51	1661.78
512.69	1755.40
512.86	1746.04
513.04	1755.40
513.21	1764.76
513.38	1708.59
513.56	1682.85
513.73	1673.48
513.90	1614.97
514.08	1661.78
514.25	1631.35
514.43	1694.55
514.60	1753.06
514.77	1680.50
514.95	1659.44
515.12	1626.67
515.29	1654.76
515.47	1696.89
515.64	1732.00
515.81	1680.50
515.99	1764.76
516.16	1565.82
516.33	1437.09
516.51	1479.22
516.68	1394.96
516.85	1369.21
517.03	1355.17
517.20	1666.46
517.37	1753.06
517.54	1743.70
517.72	1650.08
517.89	1551.78
518.06	1394.96
518.24	1437.09
518.41	1530.71
518.58	1596.25
518.75	1570.50
518.93	1598.59
519.10	1633.69
519.27	1563.48
519.45	1638.38
519.62	1729.66
519.79	1746.04
519.96	1720.29
520.14	1696.89
520.31	1600.93
520.48	1682.85
520.65	1699.23
520.83	1710.93
521.00	1755.40
521.17	1713.27
521.34	1624.33
521.52	1757.74
521.69	1795.19
521.86	1781.15
522.03	1678.16
522.20	1647.74
522.38	1579.86
522.55	1643.06
522.72	1605.61
522.89	1687.53
523.07	1680.50
523.24	1720.29
523.41	1757.74
523.58	1732.00
523.75	1816.26
523.92	1624.33
524.10	1792.85
524.27	1820.94
524.44	1701.57
524.61	1755.40
524.78	1689.87
524.96	1820.94
525.13	1675.82
525.30	1685.19
525.47	1856.04
525.64	1778.81
525.81	1762.42
525.98	1636.03
526.16	1577.52
526.33	1696.89
526.50	1481.56
526.67	1490.92
526.84	1481.56
527.01	1563.48
527.18	1556.46
527.36	1701.57
527.53	1720.29
527.70	1734.34
527.87	1657.10
528.04	1753.06
528.21	1727.32
528.38	1781.15
528.55	1961.37
528.72	1837.32
528.89	1818.60
529.07	1771.79
529.24	1643.06
529.41	1769.44
529.58	1741.36
529.75	1720.29
529.92	1687.53
530.09	1734.34
530.26	1771.79
530.43	1750.72
530.60	1886.47
530.77	1834.98
530.94	1748.38
531.11	1884.13
531.28	1792.85
531.46	1654.76
531.63	1860.73
531.80	1762.42
531.97	1689.87
532.14	1769.44
532.31	1724.97
532.48	1547.09
532.65	1645.40
532.82	1631.35
532.99	1734.34
533.16	1825.62
533.33	1762.42
533.50	1769.44
533.67	1764.76
533.84	1685.19
534.01	1631.35
534.18	1830.30
534.35	1743.70
534.52	1785.83
534.69	1823.28
534.86	1741.36
535.03	1715.61
535.20	1816.26
535.37	1858.39
535.54	1762.42
535.71	1802.21
535.88	1851.36
536.05	1774.13
536.22	1867.75
536.38	1713.27
536.55	1668.80
536.72	1736.68
536.89	1706.25
537.06	1703.91
537.23	1891.15
537.40	1783.49
537.57	1935.62
537.74	1877.11
537.91	1895.83
538.08	1820.94
538.25	1827.96
538.42	1849.02
538.59	1914.56
538.75	1856.04
538.92	1879.45
539.09	1863.07
539.26	1865.41
539.43	1884.13
539.60	1961.37
539.77	1966.05
539.94	1919.24
540.11	2026.90
540.28	2033.93
540.44	2008.18
540.61	2024.56
540.78	2148.61
540.95	2356.92
541.12	2506.71
541.29	2485.65
541.46	2719.70
541.62	2726.72
541.79	2682.25
541.96	2555.86
542.13	2553.52
542.30	2562.89
542.47	2487.99
542.63	2476.29
542.80	2436.50
542.97	2345.22
543.14	2450.54
543.31	2366.28
543.48	2436.50
543.64	2427.14
543.81	2513.74
543.98	2413.09
544.15	2431.82
544.32	2331.17
544.48	2537.14
544.65	2235.21
544.82	2438.84
544.99	2401.39
545.16	2380.32
545.32	2445.86
545.49	3047.38
545.66	3927.42
545.83	4339.35
546.00	4014.02
546.16	3337.60
546.33	2794.60
546.50	2527.78
546.67	2352.24
546.83	2190.74
547.00	2181.38
547.17	2080.74
547.34	2069.03
547.50	2230.53
547.67	1977.75
547.84	2155.63
548.00	2134.57
548.17	2040.95
548.34	2069.03
548.51	2118.18
548.67	2143.93
548.84	1996.48
549.01	2106.48
549.18	1933.28
549.34	2062.01
549.51	2047.97
549.68	2043.29
549.84	1870.09
550.01	1891.15
550.18	2010.52
550.34	1961.37
550.51	2029.24
550.68	1811.57
550.84	1834.98
551.01	1837.32
551.18	1877.11
551.34	1739.02
551.51	1839.66
551.68	1856.04
551.84	1884.13
552.01	1827.96
552.18	1797.53
552.34	1774.13
552.51	1760.08
552.68	1741.36
552.84	1776.47
553.01	1790.51
553.18	1879.45
553.34	1837.32
553.51	1753.06
553.67	1750.72
553.84	1846.68
554.01	1853.70
554.17	1760.08
554.34	1757.74
554.51	1659.44
554.67	1818.60
554.84	1813.92
555.00	1685.19
555.17	1746.04
555.33	1659.44
555.50	1781.15
555.67	1666.46
555.83	1556.46
556.00	1607.95
556.16	1837.32
556.33	1626.67
556.50	1558.80
556.66	1605.61
556.83	1582.20
556.99	1519.01
557.16	1600.93
557.32	1682.85
557.49	1614.97
557.65	1617.31
557.82	1629.01
557.98	1556.46
558.15	1645.40
558.32	1647.74
558.48	1516.67
558.65	1394.96
558.81	1540.07
558.98	1624.33
559.14	1617.31
559.31	1570.50
559.47	1533.05
559.64	1504.96
559.80	1542.41
559.97	1626.67
560.13	1500.28
560.30	1507.30
560.46	1568.16
560.63	1694.55
560.79	1673.48
560.96	1781.15
561.12	1535.39
561.29	1519.01
561.45	1469.86
561.61	1589.22
561.78	1537.73
561.94	1528.37
562.11	1633.69
562.27	1521.35
562.44	1561.14
562.60	1584.54
562.77	1577.52
562.93	1689.87
563.10	1589.22
563.26	1610.29
563.42	1619.65
563.59	1502.62
563.75	1519.01
563.92	1540.07
564.08	1600.93
564.24	1584.54
564.41	1568.16
564.57	1668.80
564.74	1462.83
564.90	1519.01
565.07	1533.05
565.23	1486.24
565.39	1385.60
565.56	1488.58
565.72	1397.30
565.88	1446.45
566.05	1439.43
566.21	1455.81
566.38	1533.05
566.54	1519.01
566.70	1488.58
566.87	1488.58
567.03	1519.01
567.19	1511.99
567.36	1455.81
567.52	1526.03
567.68	1537.73
567.85	1486.24
568.01	1486.24
568.17	1380.92
568.34	1380.92
568.50	1458.15
568.66	1427.73
568.83	1530.71
568.99	1446.45
569.15	1427.73
569.32	1476.88
569.48	1423.05
569.64	1420.71
569.81	1434.75
569.97	1385.60
570.13	1458.15
570.30	1364.53
570.46	1366.87
570.62	1394.96
570.78	1287.29
570.95	1423.05
571.11	1497.94
571.27	1404.32
571.43	1378.58
571.60	1376.24
571.76	1399.64
571.92	1324.74
572.09	1502.62
572.25	1401.98
572.41	1495.60
572.57	1313.04
572.74	1465.18
572.90	1416.02
573.06	1406.66
573.22	1441.77
573.38	1497.94
573.55	1411.34
573.71	1399.64
573.87	1394.96
574.03	1397.30
574.20	1390.28
574.36	1472.20
574.52	1497.94
574.68	1345.81
574.84	1404.32
575.01	1315.38
575.17	1387.94
575.33	1324.74
575.49	1341.13
575.65	1366.87
575.82	1455.81
575.98	1390.28
576.14	1299.00
576.30	1474.54
576.46	1675.82
576.62	1839.66
576.79	1900.52
576.95	1818.60
577.11	1696.89
577.27	1465.18
577.43	1568.16
577.59	1467.52
577.75	1364.53
577.92	1371.55
578.08	1327.08
578.24	1406.66
578.40	1406.66
578.56	1682.85
578.72	1767.10
578.88	1797.53
579.04	1699.23
579.21	1605.61
579.37	1490.92
579.53	1451.13
579.69	1385.60
579.85	1434.75
580.01	1474.54
580.17	1547.09
580.33	1493.26
580.49	1460.49
580.65	1495.60
580.82	1490.92
580.98	1406.66
581.14	1483.90
581.30	1533.05
581.46	1495.60
581.62	1425.39
581.78	1481.56
581.94	1528.37
582.10	1495.60
582.26	1490.92
582.42	1563.48
582.58	1502.62
582.74	1572.84
582.90	1535.39
583.06	1610.29
583.22	1451.13
583.38	1575.18
583.54	1551.78
583.70	1584.54
583.86	1514.33
584.02	1500.28
584.18	1521.35
584.34	1486.24
584.50	1558.80
584.66	1600.93
584.82	1540.07
584.98	1523.69
585.14	1448.79
585.30	1537.73
585.46	1469.86
585.62	1369.21
585.78	1465.18
585.94	1598.59
586.10	1341.13
586.26	1441.77
586.42	1528.37
586.58	1490.92
586.74	1610.29
586.90	1657.10
587.06	1519.01
587.22	1645.40
587.38	1624.33
587.54	1549.43
587.70	1416.02
587.86	1401.98
588.02	1273.25
588.18	1294.32
588.34	1217.08
588.49	1142.18
588.65	1226.44
588.81	1123.46
588.97	1022.81
589.13	1111.75
589.29	1139.84
589.45	1104.73
589.61	1104.73
589.77	1114.10
589.93	1181.97
590.08	1118.78
590.24	1212.40
590.40	1259.21
590.56	1219.42
590.72	1137.50
590.88	1156.22
591.04	1242.82
591.20	1196.01
591.35	1268.57
591.51	1188.99
591.67	1224.10
591.83	1123.46
591.99	1240.48
592.15	1217.08
592.31	1373.89
592.46	1376.24
592.62	1401.98
592.78	1376.24
592.94	1453.47
593.10	1427.73
593.26	1359.85
593.41	1350.49
593.57	1369.21
593.73	1273.25
593.89	1203.04
594.05	1221.76
594.20	1114.10
594.36	1186.65
594.52	1177.29
594.68	1111.75
594.84	1144.52
594.99	1287.29
595.15	1247.51
595.31	1231.12
595.47	1263.89
595.62	1221.76
595.78	1224.10
595.94	1207.72
596.10	1303.68
596.25	1249.85
596.41	1259.21
596.57	1219.42
596.73	1301.34
596.88	1252.19
597.04	1256.87
597.20	1165.59
597.36	1245.16
597.51	1156.22
597.67	1273.25
597.83	1188.99
597.99	1287.29
598.14	1228.78
598.30	1212.40
598.46	1198.35
598.61	1240.48
598.77	1233.46
598.93	1359.85
599.09	1268.57
599.24	1387.94
599.40	1439.43
599.56	1329.42
599.71	1383.26
599.87	1331.76
600.03	1282.61
600.18	1179.63
600.34	1341.13
600.50	1315.38
600.65	1275.59
600.81	1214.74
600.97	1270.91
601.12	1322.40
601.28	1242.82
601.44	1315.38
601.59	1203.04
601.75	1280.27
601.91	1205.38
602.06	1235.80
602.22	1275.59
602.37	1191.33
602.53	1203.04
602.69	1153.88
602.84	1188.99
603.00	1259.21
603.16	1345.81
603.31	1306.02
603.47	1226.44
603.62	1235.80
603.78	1341.13
603.94	1167.93
604.09	1268.57
604.25	1266.23
604.40	1294.32
604.56	1193.67
604.71	1310.70
604.87	1228.78
605.03	1259.21
605.18	1203.04
605.34	1219.42
605.49	1233.46
605.65	1249.85
605.80	1296.66
605.96	1205.38
606.12	1299.00
606.27	1249.85
606.43	1214.74
606.58	1266.23
606.74	1228.78
606.89	1299.00
607.05	1256.87
607.20	1198.35
607.36	1177.29
607.51	1181.97
607.67	1324.74
607.82	1420.71
607.98	1310.70
608.13	1273.25
608.29	1364.53
608.44	1357.51
608.60	1369.21
608.75	1394.96
608.91	1437.09
609.06	1467.52
609.22	1399.64
609.37	1563.48
609.53	1561.14
609.68	1666.46
609.84	1544.75
609.99	1774.13
610.15	1837.32
610.30	2064.35
610.46	2300.75
610.61	2640.12
610.76	2991.20
610.92	3393.78
611.07	3644.21
611.23	3784.65
611.38	3585.70
611.54	3241.64
611.69	2928.01
611.84	2607.36
612.00	2300.75
612.15	2195.42
612.31	2012.86
612.46	1921.58
612.62	1827.96
612.77	1774.13
612.92	1884.13
613.08	1788.17
613.23	1755.40
613.39	1696.89
613.54	1703.91
613.69	1621.99
613.85	1509.65
614.00	1643.06
614.15	1680.50
614.31	1568.16
614.46	1699.23
614.62	1558.80
614.77	1570.50
614.92	1556.46
615.08	1549.43
615.23	1392.62
615.38	1495.60
615.54	1317.72
615.69	1284.95
615.84	1224.10
616.00	1256.87
616.15	1179.63
616.30	1210.06
616.46	1165.59
616.61	1193.67
616.76	1252.19
616.92	1228.78
617.07	1167.93
617.22	1151.54
617.37	1123.46
617.53	1170.27
617.68	1221.76
617.83	1170.27
617.99	1235.80
618.14	1238.14
618.29	1177.29
618.45	1212.40
618.60	1167.93
618.75	1076.65
618.90	1153.88
619.06	1088.35
619.21	1163.25
619.36	1102.39
619.51	1053.24
619.67	1203.04
619.82	1135.16
619.97	1100.05
620.12	1174.95
620.28	1193.67
620.43	1170.27
620.58	1226.44
620.73	1198.35
620.89	1142.18
621.04	1160.91
621.19	1193.67
621.34	1163.25
621.49	1193.67
621.65	1186.65
621.80	1135.16
621.95	1135.16
622.10	1142.18
622.25	1137.50
622.41	1029.84
622.56	1128.14
622.71	1060.26
622.86	1107.07
623.01	1107.07
623.16	1123.46
623.32	1128.14
623.47	1128.14
623.62	1104.73
623.77	1198.35
623.92	1086.01
624.07	1006.43
624.23	1090.69
624.38	1177.29
624.53	1104.73
624.68	1053.24
624.83	1104.73
624.98	1083.67
625.13	950.26
625.29	964.30
625.44	1097.71
625.59	1025.15
625.74	1146.86
625.89	1071.97
626.04	1088.35
626.19	1114.10
626.34	1093.03
626.49	1069.62
626.65	1011.11
626.80	1100.05
626.95	1011.11
627.10	1114.10
627.25	1046.22
627.40	983.02
627.55	990.05
627.70	933.87
627.85	1004.09
628.00	985.37
628.15	968.98
628.30	968.98
628.45	1006.43
628.60	912.81
628.76	1013.45
628.91	950.26
629.06	1043.88
629.21	983.02
629.36	1039.20
629.51	1053.24
629.66	1029.84
629.81	954.94
629.96	1001.75
630.11	1008.77
630.26	1060.26
630.41	1111.75
630.56	1111.75
630.71	1165.59
630.86	1160.91
631.01	1139.84
631.16	1118.78
631.31	1006.43
631.46	1057.92
631.61	1004.09
631.76	959.62
631.91	952.60
632.06	931.53
632.21	973.66
632.36	891.74
632.51	903.45
632.66	931.53
632.81	978.34
632.96	894.08
633.10	866.00
633.25	971.32
633.40	861.32
633.55	938.55
633.70	880.04
633.85	898.77
634.00	905.79
634.15	968.98
634.30	877.70
634.45	880.04
634.60	917.49
634.75	880.04
634.90	922.17
635.05	856.64
635.19	922.17
635.34	847.27
635.49	849.61
635.64	908.13
635.79	880.04
635.94	840.25
636.09	884.72
636.24	847.27
636.39	866.00
636.53	844.93
636.68	805.14
636.83	868.34
636.98	999.41
637.13	898.77
637.28	926.85
637.43	887.06
637.57	922.17
637.72	954.94
637.87	858.98
638.02	837.91
638.17	976.00
638.32	912.81
638.46	940.90
638.61	936.21
638.76	926.85
638.91	887.06
639.06	840.25
639.20	847.27
639.35	887.06
639.50	854.30
639.65	863.66
639.80	880.04
639.94	961.96
640.09	875.36
640.24	786.42
640.39	861.32
640.54	767.70
640.68	842.59
640.83	931.53
640.98	833.23
641.13	833.23
641.27	861.32
641.42	800.46
641.57	856.64
641.72	774.72
641.86	833.23
642.01	777.06
642.16	816.85
642.31	903.45
642.45	896.43
642.60	809.83
642.75	807.48
642.90	819.19
643.04	767.70
643.19	826.21
643.34	814.51
643.48	753.65
643.63	798.12
643.78	833.23
643.93	929.19
644.07	866.00
644.22	793.44
644.37	826.21
644.51	821.53
644.66	779.40
644.81	798.12
644.95	882.38
645.10	823.87
645.25	800.46
645.39	863.66
645.54	791.10
645.69	875.36
645.83	791.10
645.98	826.21
646.13	741.95
646.27	734.93
646.42	643.65
646.57	706.84
646.71	709.18
646.86	650.67
647.00	753.65
647.15	746.63
647.30	709.18
647.44	683.44
647.59	732.59
647.74	660.03
647.88	683.44
648.03	732.59
648.17	681.10
648.32	716.20
648.47	678.76
648.61	695.14
648.76	758.33
648.90	725.57
649.05	582.79
649.20	575.77
649.34	627.26
649.49	648.33
649.63	636.63
649.78	748.97
649.92	807.48
650.07	795.78
650.21	788.76
650.36	765.36
650.51	905.79
650.65	861.32
650.80	770.04
650.94	711.52
651.09	751.31
651.23	697.48
651.38	781.74
651.52	697.48
651.67	688.12
651.81	737.27
651.96	660.03
652.10	788.76
652.25	683.44
652.39	737.27
652.54	683.44
652.68	781.74
652.83	760.67
652.97	732.59
653.12	807.48
653.26	763.01
653.41	802.80
653.55	770.04
653.70	725.57
653.84	711.52
653.99	793.44
654.13	603.86
654.27	718.54
654.42	690.46
654.56	657.69
654.71	739.61
654.85	669.39
655.00	678.76
655.14	709.18
655.29	765.36
655.43	615.56
655.57	620.24
655.72	631.94
655.86	580.45
656.01	580.45
656.15	617.90
656.30	580.45
656.44	557.05
656.58	615.56
656.73	667.05
656.87	603.86
657.01	620.24
657.16	711.52
657.30	690.46
657.45	772.38
657.59	674.07
657.73	678.76
657.88	683.44
658.02	716.20
658.16	753.65
658.31	704.50
658.45	727.91
658.60	704.50
658.74	669.39
658.88	634.29
659.03	603.86
659.17	692.80
659.31	739.61
659.46	685.78
659.60	753.65
659.74	734.93
659.89	751.31
660.03	702.16
660.17	683.44
660.32	741.95
660.46	772.38
660.60	662.37
660.74	620.24
660.89	692.80
661.03	643.65
661.17	718.54
661.32	711.52
661.46	711.52
661.60	650.67
661.74	690.46
661.89	823.87
662.03	744.29
662.17	676.41
662.31	805.14
662.46	720.88
662.60	753.65
662.74	781.74
662.88	732.59
663.03	725.57
663.17	667.05
663.31	772.38
663.45	678.76
663.60	596.84
663.74	660.03
663.88	685.78
664.02	723.23
664.17	641.31
664.31	704.50
664.45	755.99
664.59	587.47
664.73	702.16
664.88	713.86
665.02	641.31
665.16	685.78
665.30	695.14
665.44	664.71
665.59	676.41
665.73	653.01
665.87	692.80
666.01	685.78
666.15	655.35
666.29	594.50
666.44	688.12
666.58	732.59
666.72	608.54
666.86	608.54
667.00	704.50
667.14	664.71
667.28	669.39
667.43	627.26
667.57	681.10
667.71	706.84
667.85	606.20
667.99	688.12
668.13	695.14
668.27	669.39
668.41	662.37
668.56	606.20
668.70	690.46
668.84	645.99
668.98	627.26
669.12	674.07
669.26	634.29
669.40	788.76
669.54	648.33
669.68	657.69
669.82	608.54
669.96	608.54
670.10	634.29
670.25	631.94
670.39	573.43
670.53	519.60
670.67	545.34
670.81	636.63
670.95	627.26
671.09	585.13
671.23	650.67
671.37	587.47
671.51	662.37
671.65	653.01
671.79	566.41
671.93	634.29
672.07	662.37
672.21	594.50
672.35	550.03
672.49	587.47
672.63	704.50
672.77	617.90
672.91	608.54
673.05	627.26
673.19	540.66
673.33	578.11
673.47	615.56
673.61	587.47
673.75	547.69
673.89	575.77
674.03	575.77
674.17	692.80
674.31	603.86
674.45	603.86
674.59	519.60
674.73	543.00
674.87	582.79
675.01	514.92
675.15	594.50
675.29	669.39
675.43	559.39
675.56	587.47
675.70	592.16
675.84	578.11
675.98	634.29
676.12	608.54
676.26	561.73
676.40	512.58
676.54	538.32
676.68	615.56
676.82	559.39
676.96	528.96
677.10	573.43
677.23	582.79
677.37	472.79
677.51	580.45
677.65	603.86
677.79	531.30
677.93	589.82
678.07	592.16
678.21	486.83
678.34	491.51
678.48	540.66
678.62	638.97
678.76	566.41
678.90	545.34
679.04	524.28
679.18	526.62
679.31	528.96
679.45	554.71
679.59	592.16
679.73	540.66
679.87	491.51
680.00	493.85
680.14	505.56
680.28	505.56
680.42	531.30
680.56	547.69
680.70	554.71
680.83	592.16
680.97	521.94
681.11	526.62
681.25	564.07
681.39	435.34
681.52	557.05
681.66	575.77
681.80	498.53
681.94	538.32
682.07	505.56
682.21	496.19
682.35	465.77
682.49	465.77
682.62	447.04
682.76	479.81
682.90	507.90
683.04	482.15
683.17	465.77
683.31	484.49
683.45	557.05
683.59	538.32
683.72	538.32
683.86	468.11
684.00	402.57
684.13	493.85
684.27	533.64
684.41	477.47
684.55	477.47
684.68	475.13
684.82	507.90
684.96	367.46
685.09	463.43
685.23	475.13
685.37	479.81
685.50	514.92
685.64	479.81
685.78	526.62
685.91	437.68
686.05	442.36
686.19	454.06
686.32	458.74
686.46	367.46
686.60	327.68
686.73	383.85
686.87	381.51
687.01	287.89
687.14	325.33
687.28	266.82
687.42	337.04
687.55	292.57
687.69	379.17
687.82	402.57
687.96	362.78
688.10	465.77
688.23	348.74
688.37	301.93
688.50	353.42
688.64	311.29
688.78	360.44
688.91	379.17
689.05	393.21
689.18	332.36
689.32	369.80
689.46	262.14
689.59	383.85
689.73	372.15
689.86	332.36
690.00	358.10
690.13	383.85
690.27	301.93
690.41	313.63
690.54	367.46
690.68	409.59
690.81	423.64
690.95	259.80
691.08	334.70
691.22	337.04
691.35	353.42
691.49	325.33
691.62	472.79
691.76	383.85
691.89	425.98
692.03	271.50
692.16	358.10
692.30	292.57
692.43	383.85
692.57	299.59
692.70	346.40
692.84	341.72
692.97	332.36
693.11	287.89
693.24	264.48
693.38	315.97
693.51	365.12
693.65	346.40
693.78	393.21
693.92	252.78
694.05	372.15
694.19	327.68
694.32	306.61
694.45	351.08
694.59	285.55
694.72	252.78
694.86	325.33
694.99	306.61
695.13	264.48
695.26	322.99
695.39	355.76
695.53	390.87
695.66	351.08
695.80	367.46
695.93	299.59
696.07	283.20
696.20	306.61
696.33	283.20
696.47	320.65
696.60	369.80
696.73	238.73
696.87	231.71
697.00	325.33
697.14	255.12
697.27	381.51
697.40	418.96
697.54	330.02
697.67	327.68
697.80	327.68
697.94	327.68
698.07	379.17
698.21	355.76
698.34	346.40
698.47	283.20
698.61	257.46
698.74	245.76
698.87	276.18
699.01	259.80
699.14	348.74
699.27	339.38
699.40	425.98
699.54	294.91
699.67	322.99
699.80	252.78
699.94	234.05
700.07	320.65
700.20	266.82
700.34	248.10
700.47	241.08
700.60	203.63
700.73	248.10
700.87	290.23
701.00	306.61
701.13	250.44
701.26	285.55
701.40	327.68
701.53	273.84
701.66	262.14
701.79	306.61
701.93	276.18
702.06	290.23
702.19	292.57
702.32	294.91
702.46	325.33
702.59	184.90
702.72	224.69
702.85	299.59
702.99	217.67
703.12	292.57
703.25	252.78
703.38	320.65
703.51	313.63
703.65	262.14
703.78	306.61
703.91	231.71
704.04	294.91
704.17	198.95
704.31	231.71
704.44	283.20
704.57	234.05
704.70	248.10
704.83	252.78
704.96	238.73
705.10	262.14
705.23	212.99
>>>>>End Processed Spectral Data<<<<<
