SpectraSuite Data File
++++++++++++++++++++++++++++++++++++
Date: Fri Oct 04 11:41:59 GMT-05:00 2013
User: price-jones
Dark Spectrum Present: No
Reference Spectrum Present: No
Number of Sampled Component Spectra: 1
Spectrometers: USB2+H05261
Integration Time (usec): 100000 (USB2+H05261)
Spectra Averaged: 1 (USB2+H05261)
Boxcar Smoothing: 0 (USB2+H05261)
Correct for Electrical Dark: No (USB2+H05261)
Strobe/Lamp Enabled: No (USB2+H05261)
Correct for Detector Non-linearity: No (USB2+H05261)
Correct for Stray Light: No (USB2+H05261)
Number of Pixels in Processed Spectrum: 2048
>>>>>Begin Processed Spectral Data<<<<<
365.73	131.07
365.92	131.07
366.12	131.07
366.32	0.00
366.52	0.00
366.72	18.72
366.91	0.00
367.11	0.00
367.31	0.00
367.51	0.00
367.70	14.04
367.90	0.00
368.10	0.00
368.30	0.00
368.49	0.00
368.69	0.00
368.89	0.00
369.09	0.00
369.28	0.00
369.48	0.00
369.68	0.00
369.87	18.72
370.07	16.38
370.27	28.09
370.47	11.70
370.66	11.70
370.86	102.98
371.06	37.45
371.25	14.04
371.45	0.00
371.65	163.84
371.84	88.94
372.04	81.92
372.24	81.92
372.44	105.32
372.63	72.56
372.83	182.56
373.03	95.96
373.22	79.58
373.42	74.90
373.62	168.52
373.81	149.79
374.01	105.32
374.21	135.75
374.40	95.96
374.60	196.60
374.79	152.13
374.99	142.77
375.19	168.52
375.38	102.98
375.58	128.73
375.78	98.30
375.97	147.45
376.17	168.52
376.37	182.56
376.56	128.73
376.76	88.94
376.95	74.90
377.15	124.05
377.35	60.85
377.54	86.60
377.74	72.56
377.93	133.41
378.13	149.79
378.33	166.18
378.52	163.84
378.72	170.86
378.91	124.05
379.11	170.86
379.31	110.01
379.50	98.30
379.70	163.84
379.89	81.92
380.09	77.24
380.28	91.28
380.48	79.58
380.68	102.98
380.87	154.48
381.07	147.45
381.26	117.03
381.46	126.39
381.65	88.94
381.85	126.39
382.04	84.26
382.24	56.17
382.43	74.90
382.63	133.41
382.83	128.73
383.02	119.37
383.22	220.01
383.41	100.64
383.61	248.10
383.80	84.26
384.00	140.43
384.19	128.73
384.39	145.11
384.58	74.90
384.78	138.09
384.97	177.88
385.17	140.43
385.36	86.60
385.56	175.54
385.75	131.07
385.95	88.94
386.14	79.58
386.34	91.28
386.53	117.03
386.72	121.71
386.92	117.03
387.11	135.75
387.31	131.07
387.50	39.79
387.70	126.39
387.89	112.35
388.09	138.09
388.28	114.69
388.48	86.60
388.67	110.01
388.86	32.77
389.06	117.03
389.25	124.05
389.45	128.73
389.64	110.01
389.84	124.05
390.03	145.11
390.22	98.30
390.42	102.98
390.61	124.05
390.81	42.13
391.00	74.90
391.19	133.41
391.39	124.05
391.58	131.07
391.78	119.37
391.97	102.98
392.16	81.92
392.36	201.29
392.55	145.11
392.75	184.90
392.94	163.84
393.13	187.24
393.33	84.26
393.52	60.85
393.71	114.69
393.91	110.01
394.10	105.32
394.29	112.35
394.49	140.43
394.68	79.58
394.88	177.88
395.07	170.86
395.26	110.01
395.46	159.16
395.65	159.16
395.84	131.07
396.04	259.80
396.23	140.43
396.42	128.73
396.62	124.05
396.81	131.07
397.00	180.22
397.19	105.32
397.39	110.01
397.58	187.24
397.77	114.69
397.97	140.43
398.16	124.05
398.35	152.13
398.55	65.54
398.74	121.71
398.93	100.64
399.12	112.35
399.32	156.82
399.51	126.39
399.70	110.01
399.90	194.26
400.09	189.58
400.28	135.75
400.47	196.60
400.67	105.32
400.86	175.54
401.05	198.95
401.24	177.88
401.44	107.66
401.63	224.69
401.82	170.86
402.01	194.26
402.21	168.52
402.40	180.22
402.59	102.98
402.78	149.79
402.97	163.84
403.17	177.88
403.36	175.54
403.55	257.46
403.74	535.98
403.93	1708.59
404.13	3499.10
404.32	4304.25
404.51	3468.67
404.70	1935.62
404.89	784.08
405.09	327.68
405.28	161.50
405.47	170.86
405.66	290.23
405.85	187.24
406.05	93.62
406.24	128.73
406.43	177.88
406.62	180.22
406.81	227.03
407.00	297.25
407.20	608.54
407.39	706.84
407.58	599.18
407.77	430.66
407.96	325.33
408.15	177.88
408.34	182.56
408.54	147.45
408.73	173.20
408.92	140.43
409.11	168.52
409.30	217.67
409.49	161.50
409.68	93.62
409.87	161.50
410.07	205.97
410.26	215.33
410.45	187.24
410.64	117.03
410.83	166.18
411.02	159.16
411.21	229.37
411.40	187.24
411.59	182.56
411.78	168.52
411.98	156.82
412.17	170.86
412.36	135.75
412.55	105.32
412.74	227.03
412.93	170.86
413.12	191.92
413.31	227.03
413.50	177.88
413.69	175.54
413.88	271.50
414.07	294.91
414.26	124.05
414.45	154.48
414.64	229.37
414.83	184.90
415.02	231.71
415.22	236.39
415.41	238.73
415.60	201.29
415.79	203.63
415.98	194.26
416.17	212.99
416.36	234.05
416.55	224.69
416.74	201.29
416.93	276.18
417.12	212.99
417.31	166.18
417.50	189.58
417.69	248.10
417.88	149.79
418.07	112.35
418.26	177.88
418.45	241.08
418.64	175.54
418.83	128.73
419.02	196.60
419.21	243.42
419.39	201.29
419.58	175.54
419.77	159.16
419.96	187.24
420.15	271.50
420.34	234.05
420.53	266.82
420.72	278.52
420.91	189.58
421.10	147.45
421.29	250.44
421.48	297.25
421.67	283.20
421.86	191.92
422.05	215.33
422.24	156.82
422.43	170.86
422.61	189.58
422.80	201.29
422.99	163.84
423.18	210.65
423.37	278.52
423.56	243.42
423.75	203.63
423.94	208.31
424.13	201.29
424.32	222.35
424.50	205.97
424.69	205.97
424.88	292.57
425.07	220.01
425.26	285.55
425.45	217.67
425.64	224.69
425.83	231.71
426.01	372.15
426.20	299.59
426.39	278.52
426.58	243.42
426.77	220.01
426.96	229.37
427.15	252.78
427.33	271.50
427.52	205.97
427.71	245.76
427.90	280.86
428.09	234.05
428.28	252.78
428.46	250.44
428.65	308.95
428.84	273.84
429.03	280.86
429.22	215.33
429.40	257.46
429.59	290.23
429.78	229.37
429.97	217.67
430.16	266.82
430.34	245.76
430.53	325.33
430.72	238.73
430.91	348.74
431.10	313.63
431.28	257.46
431.47	276.18
431.66	346.40
431.85	287.89
432.03	297.25
432.22	339.38
432.41	318.31
432.60	381.51
432.79	358.10
432.97	308.95
433.16	386.19
433.35	435.34
433.54	437.68
433.72	428.32
433.91	367.46
434.10	533.64
434.28	596.84
434.47	617.90
434.66	695.14
434.85	926.85
435.03	2644.81
435.22	9942.60
435.41	19534.11
435.59	18143.83
435.78	11508.41
435.97	5682.82
436.16	2183.72
436.34	870.68
436.53	603.86
436.72	465.77
436.90	428.32
437.09	386.19
437.28	353.42
437.46	365.12
437.65	444.70
437.84	388.53
438.02	344.06
438.21	362.78
438.40	322.99
438.58	315.97
438.77	334.70
438.96	367.46
439.14	294.91
439.33	390.87
439.52	334.70
439.70	327.68
439.89	379.17
440.08	358.10
440.26	313.63
440.45	337.04
440.63	402.57
440.82	379.17
441.01	304.27
441.19	341.72
441.38	383.85
441.57	301.93
441.75	451.72
441.94	330.02
442.12	327.68
442.31	374.49
442.50	400.23
442.68	351.08
442.87	271.50
443.05	304.27
443.24	320.65
443.43	327.68
443.61	381.51
443.80	325.33
443.98	313.63
444.17	304.27
444.35	360.44
444.54	306.61
444.73	337.04
444.91	388.53
445.10	262.14
445.28	330.02
445.47	278.52
445.65	414.27
445.84	337.04
446.02	400.23
446.21	301.93
446.39	266.82
446.58	358.10
446.77	294.91
446.95	390.87
447.14	322.99
447.32	315.97
447.51	325.33
447.69	313.63
447.88	369.80
448.06	402.57
448.25	386.19
448.43	297.25
448.62	243.42
448.80	318.31
448.99	276.18
449.17	362.78
449.36	299.59
449.54	344.06
449.73	280.86
449.91	388.53
450.10	313.63
450.28	362.78
450.46	414.27
450.65	322.99
450.83	322.99
451.02	306.61
451.20	365.12
451.39	358.10
451.57	304.27
451.76	332.36
451.94	346.40
452.13	404.91
452.31	332.36
452.49	330.02
452.68	353.42
452.86	304.27
453.05	315.97
453.23	360.44
453.42	327.68
453.60	346.40
453.78	372.15
453.97	306.61
454.15	325.33
454.34	318.31
454.52	374.49
454.70	280.86
454.89	276.18
455.07	386.19
455.26	383.85
455.44	365.12
455.62	383.85
455.81	337.04
455.99	334.70
456.17	301.93
456.36	365.12
456.54	301.93
456.73	334.70
456.91	353.42
457.09	393.21
457.28	365.12
457.46	351.08
457.64	337.04
457.83	358.10
458.01	285.55
458.19	259.80
458.38	308.95
458.56	327.68
458.74	276.18
458.93	367.46
459.11	322.99
459.29	276.18
459.48	271.50
459.66	346.40
459.84	325.33
460.03	358.10
460.21	369.80
460.39	344.06
460.57	388.53
460.76	318.31
460.94	330.02
461.12	280.86
461.31	348.74
461.49	320.65
461.67	292.57
461.85	332.36
462.04	393.21
462.22	800.46
462.40	353.42
462.59	339.38
462.77	306.61
462.95	285.55
463.13	334.70
463.32	365.12
463.50	330.02
463.68	292.57
463.86	301.93
464.05	400.23
464.23	294.91
464.41	411.93
464.59	372.15
464.78	395.55
464.96	297.25
465.14	390.87
465.32	290.23
465.50	283.20
465.69	390.87
465.87	259.80
466.05	358.10
466.23	278.52
466.41	365.12
466.60	376.83
466.78	404.91
466.96	369.80
467.14	308.95
467.32	376.83
467.51	318.31
467.69	351.08
467.87	299.59
468.05	322.99
468.23	379.17
468.41	334.70
468.60	315.97
468.78	273.84
468.96	353.42
469.14	299.59
469.32	330.02
469.50	276.18
469.69	262.14
469.87	306.61
470.05	306.61
470.23	262.14
470.41	308.95
470.59	315.97
470.77	334.70
470.95	294.91
471.14	325.33
471.32	315.97
471.50	337.04
471.68	325.33
471.86	351.08
472.04	273.84
472.22	367.46
472.40	308.95
472.58	344.06
472.77	241.08
472.95	313.63
473.13	362.78
473.31	353.42
473.49	262.14
473.67	337.04
473.85	337.04
474.03	367.46
474.21	304.27
474.39	294.91
474.57	341.72
474.75	386.19
474.93	311.29
475.12	306.61
475.30	339.38
475.48	327.68
475.66	337.04
475.84	318.31
476.02	393.21
476.20	376.83
476.38	337.04
476.56	416.62
476.74	346.40
476.92	372.15
477.10	322.99
477.28	304.27
477.46	337.04
477.64	360.44
477.82	353.42
478.00	269.16
478.18	304.27
478.36	339.38
478.54	320.65
478.72	475.13
478.90	374.49
479.08	330.02
479.26	437.68
479.44	386.19
479.62	430.66
479.80	444.70
479.98	367.46
480.16	507.90
480.34	503.22
480.52	428.32
480.70	451.72
480.88	458.74
481.06	503.22
481.24	545.34
481.41	589.82
481.59	608.54
481.77	653.01
481.95	678.76
482.13	636.63
482.31	772.38
482.49	732.59
482.67	770.04
482.85	844.93
483.03	858.98
483.21	947.92
483.39	959.62
483.57	1006.43
483.74	1078.99
483.92	1097.71
484.10	1196.01
484.28	1301.34
484.46	1366.87
484.64	1364.53
484.82	1413.68
485.00	1551.78
485.18	1519.01
485.35	1692.21
485.53	1755.40
485.71	1874.77
485.89	1846.68
486.07	1916.90
486.25	1966.05
486.43	1900.52
486.61	1921.58
486.78	2057.33
486.96	1930.94
487.14	1973.07
487.32	1933.28
487.50	1973.07
487.68	1947.33
487.85	1933.28
488.03	1900.52
488.21	1895.83
488.39	1811.57
488.57	1774.13
488.75	1748.38
488.92	2001.16
489.10	1633.69
489.28	1582.20
489.46	1600.93
489.64	1526.03
489.81	1689.87
489.99	1631.35
490.17	1488.58
490.35	1626.67
490.53	1519.01
490.70	1563.48
490.88	1572.84
491.06	1582.20
491.24	1685.19
491.41	1699.23
491.59	1540.07
491.77	1453.47
491.95	1451.13
492.13	1497.94
492.30	1338.79
492.48	1242.82
492.66	1343.47
492.84	1238.14
493.01	1217.08
493.19	1212.40
493.37	1338.79
493.54	1315.38
493.72	1252.19
493.90	1186.65
494.08	1263.89
494.25	1235.80
494.43	1207.72
494.61	1240.48
494.79	1181.97
494.96	1109.41
495.14	1118.78
495.32	1125.80
495.49	1163.25
495.67	1046.22
495.85	1086.01
496.02	1069.62
496.20	1018.13
496.38	933.87
496.55	1025.15
496.73	1036.86
496.91	997.07
497.09	945.58
497.26	1022.81
497.44	945.58
497.62	936.21
497.79	851.96
497.97	882.38
498.14	898.77
498.32	833.23
498.50	767.70
498.67	861.32
498.85	816.85
499.03	814.51
499.20	805.14
499.38	751.31
499.56	685.78
499.73	697.48
499.91	781.74
500.08	692.80
500.26	638.97
500.44	669.39
500.61	655.35
500.79	585.13
500.97	667.05
501.14	660.03
501.32	613.22
501.49	610.88
501.67	578.11
501.84	557.05
502.02	573.43
502.20	709.18
502.37	606.20
502.55	461.09
502.72	599.18
502.90	587.47
503.07	496.19
503.25	479.81
503.43	528.96
503.60	468.11
503.78	444.70
503.95	528.96
504.13	512.58
504.30	402.57
504.48	425.98
504.65	444.70
504.83	475.13
505.01	397.89
505.18	437.68
505.36	409.59
505.53	369.80
505.71	489.17
505.88	442.36
506.06	411.93
506.23	400.23
506.41	397.89
506.58	390.87
506.76	306.61
506.93	311.29
507.11	416.62
507.28	381.51
507.46	374.49
507.63	362.78
507.81	404.91
507.98	351.08
508.16	344.06
508.33	402.57
508.50	404.91
508.68	339.38
508.85	402.57
509.03	451.72
509.20	456.40
509.38	386.19
509.55	402.57
509.73	435.34
509.90	416.62
510.08	404.91
510.25	407.25
510.42	301.93
510.60	358.10
510.77	362.78
510.95	278.52
511.12	407.25
511.30	367.46
511.47	388.53
511.64	407.25
511.82	388.53
511.99	348.74
512.17	330.02
512.34	344.06
512.51	330.02
512.69	322.99
512.86	433.00
513.04	353.42
513.21	290.23
513.38	365.12
513.56	374.49
513.73	383.85
513.90	393.21
514.08	308.95
514.25	402.57
514.43	374.49
514.60	318.31
514.77	306.61
514.95	320.65
515.12	353.42
515.29	325.33
515.47	327.68
515.64	278.52
515.81	325.33
515.99	344.06
516.16	360.44
516.33	414.27
516.51	358.10
516.68	280.86
516.85	259.80
517.03	318.31
517.20	334.70
517.37	325.33
517.54	337.04
517.72	212.99
517.89	257.46
518.06	325.33
518.24	332.36
518.41	395.55
518.58	273.84
518.75	294.91
518.93	402.57
519.10	278.52
519.27	315.97
519.45	311.29
519.62	327.68
519.79	308.95
519.96	341.72
520.14	360.44
520.31	337.04
520.48	285.55
520.65	334.70
520.83	278.52
521.00	297.25
521.17	264.48
521.34	437.68
521.52	334.70
521.69	292.57
521.86	322.99
522.03	397.89
522.20	346.40
522.38	283.20
522.55	285.55
522.72	358.10
522.89	374.49
523.07	301.93
523.24	367.46
523.41	369.80
523.58	304.27
523.75	376.83
523.92	362.78
524.10	337.04
524.27	308.95
524.44	318.31
524.61	416.62
524.78	383.85
524.96	353.42
525.13	376.83
525.30	409.59
525.47	402.57
525.64	344.06
525.81	348.74
525.98	395.55
526.16	262.14
526.33	304.27
526.50	386.19
526.67	269.16
526.84	304.27
527.01	351.08
527.18	351.08
527.36	477.47
527.53	458.74
527.70	337.04
527.87	339.38
528.04	465.77
528.21	322.99
528.38	482.15
528.55	465.77
528.72	379.17
528.89	486.83
529.07	430.66
529.24	376.83
529.41	414.27
529.58	393.21
529.75	404.91
529.92	437.68
530.09	409.59
530.26	463.43
530.43	397.89
530.60	428.32
530.77	390.87
530.94	465.77
531.11	533.64
531.28	395.55
531.46	294.91
531.63	505.56
531.80	454.06
531.97	512.58
532.14	631.94
532.31	720.88
532.48	744.29
532.65	835.57
532.82	971.32
532.99	1095.37
533.16	1160.91
533.33	1268.57
533.50	1041.54
533.67	933.87
533.84	812.17
534.01	802.80
534.18	791.10
534.35	772.38
534.52	788.76
534.69	837.91
534.86	826.21
535.03	849.61
535.20	786.42
535.37	964.30
535.54	985.37
535.71	950.26
535.88	1114.10
536.05	1102.39
536.22	1207.72
536.38	1270.91
536.55	1423.05
536.72	1537.73
536.89	1661.78
537.06	1952.01
537.23	2153.29
537.40	2265.64
537.57	2434.16
537.74	2619.06
537.91	2684.59
538.08	2623.74
538.25	2684.59
538.42	2719.70
538.59	2803.96
538.75	2925.67
538.92	3005.25
539.09	3229.94
539.26	3606.77
539.43	4084.23
539.60	4617.88
539.77	5062.58
539.94	5762.40
540.11	6436.47
540.28	6878.83
540.44	7660.57
540.61	8355.71
540.78	10059.62
540.95	11901.62
541.12	13944.91
541.29	15899.26
541.46	16049.05
541.62	15747.12
541.79	15295.40
541.96	13591.49
542.13	13231.05
542.30	12116.95
542.47	11496.71
542.63	10836.68
542.80	10644.76
542.97	10345.17
543.14	10541.77
543.31	10476.24
543.48	10665.82
543.64	10649.44
543.81	10815.62
543.98	10738.38
544.15	10888.17
544.32	10890.51
544.48	11173.72
544.65	11044.99
544.82	11061.37
544.99	10600.29
545.16	11073.07
545.32	11843.11
545.49	21963.59
545.66	38962.90
545.83	43999.73
546.00	35842.96
546.16	24547.54
546.33	17755.30
546.50	13694.47
546.67	10927.96
546.83	9654.71
547.00	9343.42
547.17	8769.99
547.34	8498.49
547.50	8037.40
547.67	7943.78
547.84	7534.18
548.00	7262.68
548.17	7148.00
548.34	6874.15
548.51	6492.65
548.67	6186.04
548.84	6017.52
549.01	5724.95
549.18	5411.32
549.34	5273.23
549.51	5085.98
549.68	4959.60
549.84	4629.58
550.01	4505.53
550.18	4332.33
550.34	4175.52
550.51	3992.95
550.68	3742.52
550.84	3529.53
551.01	3372.71
551.18	3309.52
551.34	2937.37
551.51	2911.63
551.68	2761.83
551.84	2787.58
552.01	2637.78
552.18	2553.52
552.34	2480.97
552.51	2312.45
552.68	2202.44
552.84	2186.06
553.01	2146.27
553.18	1989.46
553.34	1966.05
553.51	1809.23
553.67	1820.94
553.84	1818.60
554.01	1727.32
554.17	1462.83
554.34	1474.54
554.51	1497.94
554.67	1434.75
554.84	1254.53
555.00	1256.87
555.17	1203.04
555.33	1203.04
555.50	1151.54
555.67	1008.77
555.83	1008.77
556.00	898.77
556.16	1102.39
556.33	873.02
556.50	908.13
556.66	910.47
556.83	870.68
556.99	821.53
557.16	849.61
557.32	856.64
557.49	725.57
557.65	746.63
557.82	737.27
557.98	723.23
558.15	755.99
558.32	674.07
558.48	671.73
558.65	655.35
558.81	543.00
558.98	580.45
559.14	671.73
559.31	557.05
559.47	645.99
559.64	592.16
559.80	601.52
559.97	550.03
560.13	589.82
560.30	582.79
560.46	636.63
560.63	596.84
560.79	631.94
560.96	678.76
561.12	594.50
561.29	550.03
561.45	641.31
561.61	627.26
561.78	617.90
561.94	578.11
562.11	528.96
562.27	519.60
562.44	631.94
562.60	535.98
562.77	547.69
562.93	617.90
563.10	568.75
563.26	561.73
563.42	545.34
563.59	528.96
563.75	519.60
563.92	589.82
564.08	505.56
564.24	582.79
564.41	573.43
564.57	484.49
564.74	458.74
564.90	573.43
565.07	503.22
565.23	491.51
565.39	379.17
565.56	482.15
565.72	442.36
565.88	456.40
566.05	465.77
566.21	496.19
566.38	372.15
566.54	475.13
566.70	571.09
566.87	514.92
567.03	526.62
567.19	435.34
567.36	496.19
567.52	468.11
567.68	465.77
567.85	449.38
568.01	470.45
568.17	428.32
568.34	444.70
568.50	561.73
568.66	390.87
568.83	592.16
568.99	512.58
569.15	454.06
569.32	369.80
569.48	358.10
569.64	379.17
569.81	381.51
569.97	334.70
570.13	388.53
570.30	404.91
570.46	381.51
570.62	397.89
570.78	308.95
570.95	388.53
571.11	468.11
571.27	472.79
571.43	318.31
571.60	355.76
571.76	322.99
571.92	440.02
572.09	421.30
572.25	381.51
572.41	388.53
572.57	374.49
572.74	444.70
572.90	425.98
573.06	374.49
573.22	428.32
573.38	421.30
573.55	484.49
573.71	414.27
573.87	365.12
574.03	416.62
574.20	470.45
574.36	421.30
574.52	470.45
574.68	482.15
574.84	449.38
575.01	512.58
575.17	482.15
575.33	564.07
575.49	610.88
575.65	603.86
575.82	582.79
575.98	758.33
576.14	748.97
576.30	1598.59
576.46	4968.96
576.62	7531.84
576.79	7503.76
576.95	5210.03
577.11	3496.76
577.27	2565.23
577.43	1771.79
577.59	1186.65
577.75	1036.86
577.92	940.90
578.08	870.68
578.24	971.32
578.40	1720.29
578.56	4711.50
578.72	6693.93
578.88	6965.43
579.04	5027.47
579.21	3487.40
579.37	2846.09
579.53	2143.93
579.69	2160.31
579.85	2616.72
580.01	2888.22
580.17	2759.49
580.33	2509.05
580.49	2118.18
580.65	1912.22
580.82	1849.02
580.98	1673.48
581.14	1694.55
581.30	1966.05
581.46	1977.75
581.62	2115.84
581.78	2293.72
581.94	2340.54
582.10	2443.52
582.26	2640.12
582.42	2651.83
582.58	2789.92
582.74	2764.17
582.90	2785.24
583.06	2759.49
583.22	2810.98
583.38	2974.82
583.54	2829.71
583.70	2696.30
583.86	2775.88
584.02	2719.70
584.18	2778.22
584.34	2747.79
584.50	2654.17
584.66	2567.57
584.82	2576.93
584.98	2525.44
585.14	2476.29
585.30	2490.33
585.46	2509.05
585.62	2361.60
585.78	2321.81
585.94	2464.58
586.10	2485.65
586.26	2633.10
586.42	3000.57
586.58	3625.49
586.74	4418.93
586.90	4952.57
587.06	5612.60
587.22	5313.02
587.38	4786.40
587.54	4070.19
587.70	3548.25
587.86	3000.57
588.02	2576.93
588.18	2183.72
588.34	2078.40
588.49	1867.75
588.65	1856.04
588.81	1753.06
588.97	1675.82
589.13	1661.78
589.29	1614.97
589.45	1624.33
589.61	1535.39
589.77	1750.72
589.93	1675.82
590.08	1685.19
590.24	1717.95
590.40	1858.39
590.56	1874.77
590.72	1781.15
590.88	1888.81
591.04	2026.90
591.20	2010.52
591.35	2207.13
591.51	2230.53
591.67	2267.98
591.83	2487.99
591.99	2661.19
592.15	2787.58
592.31	3056.74
592.46	3321.22
592.62	3658.26
592.78	3864.22
592.94	3887.63
593.10	3854.86
593.26	3737.84
593.41	3297.81
593.57	3082.49
593.73	2682.25
593.89	2492.67
594.05	2104.14
594.20	1947.33
594.36	1839.66
594.52	1668.80
594.68	1563.48
594.84	1519.01
594.99	1493.26
595.15	1488.58
595.31	1575.18
595.47	1397.30
595.62	1507.30
595.78	1401.98
595.94	1460.49
596.10	1514.33
596.25	1460.49
596.41	1462.83
596.57	1465.18
596.73	1390.28
596.88	1399.64
597.04	1476.88
597.20	1474.54
597.36	1533.05
597.51	1636.03
597.67	1437.09
597.83	1626.67
597.99	1703.91
598.14	1802.21
598.30	1989.46
598.46	2073.71
598.61	2181.38
598.77	2251.60
598.93	2218.83
599.09	2307.77
599.24	2356.92
599.40	2389.69
599.56	2237.55
599.71	2188.40
599.87	2097.12
600.03	1923.92
600.18	1799.87
600.34	1783.49
600.50	1544.75
600.65	1549.43
600.81	1394.96
600.97	1394.96
601.12	1341.13
601.28	1231.12
601.44	1228.78
601.59	1114.10
601.75	1104.73
601.91	1151.54
602.06	1123.46
602.22	1146.86
602.37	987.71
602.53	1025.15
602.69	1039.20
602.84	1034.52
603.00	1137.50
603.16	1104.73
603.31	987.71
603.47	1116.44
603.62	1013.45
603.78	1083.67
603.94	1111.75
604.09	1137.50
604.25	1151.54
604.40	1165.59
604.56	1062.60
604.71	1205.38
604.87	1263.89
605.03	1252.19
605.18	1275.59
605.34	1299.00
605.49	1219.42
605.65	1252.19
605.80	1366.87
605.96	1308.36
606.12	1376.24
606.27	1488.58
606.43	1526.03
606.58	1673.48
606.74	1661.78
606.89	1816.26
607.05	1895.83
607.20	1984.77
607.36	2031.58
607.51	2062.01
607.67	2321.81
607.82	2370.96
607.98	2640.12
608.13	2738.43
608.29	2986.52
608.44	3145.68
608.60	3426.54
608.75	3737.84
608.91	4180.20
609.06	4505.53
609.22	5163.22
609.37	5493.24
609.53	6174.33
609.68	7045.01
609.84	7829.09
609.99	9013.40
610.15	11169.04
610.30	13575.11
610.46	17394.86
610.61	22511.27
610.76	28664.54
610.92	33869.89
611.07	37855.82
611.23	38459.68
611.38	36039.57
611.54	31576.17
611.69	27175.96
611.84	22628.30
612.00	18642.37
612.15	16018.63
612.31	13785.76
612.46	12468.03
612.62	11843.11
612.77	10927.96
612.92	10324.10
613.08	9504.92
613.23	9350.44
613.39	8844.88
613.54	8671.68
613.69	8390.82
613.85	8397.84
614.00	8503.17
614.15	8344.01
614.31	8152.09
614.46	7892.29
614.62	7674.62
614.77	7403.11
614.92	6867.13
615.08	6392.00
615.23	5937.94
615.38	5462.81
615.54	4994.70
615.69	4697.46
615.84	4287.86
616.00	3988.27
616.15	3698.05
616.30	3452.29
616.46	3243.98
616.61	3075.46
616.76	2956.10
616.92	2736.09
617.07	2609.70
617.22	2438.84
617.37	2403.73
617.53	2312.45
617.68	2251.60
617.83	2167.34
617.99	2148.61
618.14	2148.61
618.29	2033.93
618.45	1991.80
618.60	1839.66
618.75	1776.47
618.90	1797.53
619.06	1816.26
619.21	1797.53
619.36	1739.02
619.51	1764.76
619.67	1790.51
619.82	1834.98
619.97	1949.67
620.12	1996.48
620.28	1905.20
620.43	1921.58
620.58	1935.62
620.73	2043.29
620.89	1959.03
621.04	1923.92
621.19	2050.31
621.34	2026.90
621.49	1996.48
621.65	1797.53
621.80	1860.73
621.95	1881.79
622.10	1916.90
622.25	1874.77
622.41	1989.46
622.56	1952.01
622.71	2085.42
622.86	2216.49
623.01	2134.57
623.16	2083.08
623.32	2139.25
623.47	2087.76
623.62	2127.55
623.77	2113.50
623.92	2099.46
624.07	2115.84
624.23	2052.65
624.38	2050.31
624.53	2113.50
624.68	2146.27
624.83	2148.61
624.98	2146.27
625.13	2132.23
625.29	2129.89
625.44	2216.49
625.59	2181.38
625.74	2195.42
625.89	2193.08
626.04	2174.36
626.19	2181.38
626.34	2148.61
626.49	2244.57
626.65	2125.21
626.80	2115.84
626.95	2200.10
627.10	1987.11
627.25	1994.14
627.40	1980.09
627.55	2052.65
627.70	1966.05
627.85	1872.43
628.00	1935.62
628.15	1884.13
628.30	1998.82
628.45	1966.05
628.60	1989.46
628.76	1968.39
628.91	1919.24
629.06	2040.95
629.21	2003.50
629.36	1977.75
629.51	2111.16
629.66	2265.64
629.81	2429.48
629.96	2530.12
630.11	2825.03
630.26	3206.53
630.41	3386.76
630.56	3833.80
630.71	3840.82
630.86	4133.39
631.01	3791.67
631.16	3634.85
631.31	3328.24
631.46	2878.86
631.61	2459.90
631.76	2052.65
631.91	1680.50
632.06	1533.05
632.21	1306.02
632.36	1149.20
632.51	1060.26
632.66	968.98
632.81	898.77
632.96	870.68
633.10	940.90
633.25	830.89
633.40	765.36
633.55	638.97
633.70	664.71
633.85	699.82
634.00	709.18
634.15	645.99
634.30	737.27
634.45	624.92
634.60	674.07
634.75	671.73
634.90	636.63
635.05	688.12
635.19	533.64
635.34	653.01
635.49	622.58
635.64	678.76
635.79	521.94
635.94	594.50
636.09	578.11
636.24	727.91
636.39	533.64
636.53	589.82
636.68	578.11
636.83	552.37
636.98	470.45
637.13	552.37
637.28	599.18
637.43	550.03
637.57	451.72
637.72	573.43
637.87	491.51
638.02	521.94
638.17	470.45
638.32	428.32
638.46	475.13
638.61	442.36
638.76	468.11
638.91	489.17
639.06	383.85
639.20	433.00
639.35	414.27
639.50	386.19
639.65	463.43
639.80	465.77
639.94	447.04
640.09	531.30
640.24	531.30
640.39	519.60
640.54	435.34
640.68	411.93
640.83	482.15
640.98	388.53
641.13	475.13
641.27	395.55
641.42	484.49
641.57	491.51
641.72	449.38
641.86	416.62
642.01	383.85
642.16	463.43
642.31	475.13
642.45	561.73
642.60	437.68
642.75	423.64
642.90	528.96
643.04	505.56
643.19	418.96
643.34	369.80
643.48	456.40
643.63	475.13
643.78	496.19
643.93	517.26
644.07	409.59
644.22	351.08
644.37	461.09
644.51	423.64
644.66	484.49
644.81	514.92
644.95	414.27
645.10	421.30
645.25	388.53
645.39	461.09
645.54	400.23
645.69	430.66
645.83	376.83
645.98	545.34
646.13	482.15
646.27	418.96
646.42	430.66
646.57	341.72
646.71	404.91
646.86	407.25
647.00	458.74
647.15	325.33
647.30	367.46
647.44	414.27
647.59	372.15
647.74	332.36
647.88	461.09
648.03	414.27
648.17	433.00
648.32	390.87
648.47	332.36
648.61	376.83
648.76	484.49
648.90	444.70
649.05	496.19
649.20	512.58
649.34	521.94
649.49	533.64
649.63	669.39
649.78	774.72
649.92	882.38
650.07	1100.05
650.21	1088.35
650.36	1238.14
650.51	1179.63
650.65	999.41
650.80	1041.54
650.94	894.08
651.09	786.42
651.23	758.33
651.38	655.35
651.52	599.18
651.67	634.29
651.81	561.73
651.96	479.81
652.10	519.60
652.25	514.92
652.39	601.52
652.54	545.34
652.68	634.29
652.83	636.63
652.97	594.50
653.12	599.18
653.26	610.88
653.41	550.03
653.55	552.37
653.70	524.28
653.84	411.93
653.99	545.34
654.13	510.24
654.27	472.79
654.42	418.96
654.56	444.70
654.71	409.59
654.85	430.66
655.00	374.49
655.14	421.30
655.29	400.23
655.43	353.42
655.57	421.30
655.72	376.83
655.86	390.87
656.01	365.12
656.15	395.55
656.30	463.43
656.44	479.81
656.58	313.63
656.73	449.38
656.87	362.78
657.01	407.25
657.16	486.83
657.30	416.62
657.45	500.87
657.59	430.66
657.73	486.83
657.88	428.32
658.02	557.05
658.16	430.66
658.31	430.66
658.45	381.51
658.60	358.10
658.74	311.29
658.88	320.65
659.03	325.33
659.17	327.68
659.31	315.97
659.46	264.48
659.60	264.48
659.74	308.95
659.89	348.74
660.03	358.10
660.17	395.55
660.32	376.83
660.46	358.10
660.60	297.25
660.74	325.33
660.89	337.04
661.03	334.70
661.17	353.42
661.32	416.62
661.46	409.59
661.60	514.92
661.74	517.26
661.89	664.71
662.03	716.20
662.17	727.91
662.31	730.25
662.46	748.97
662.60	727.91
662.74	674.07
662.88	564.07
663.03	465.77
663.17	510.24
663.31	484.49
663.45	496.19
663.60	416.62
663.74	365.12
663.88	351.08
664.02	355.76
664.17	299.59
664.31	383.85
664.45	344.06
664.59	376.83
664.73	287.89
664.88	322.99
665.02	365.12
665.16	320.65
665.30	304.27
665.44	330.02
665.59	332.36
665.73	304.27
665.87	273.84
666.01	280.86
666.15	248.10
666.29	297.25
666.44	337.04
666.58	337.04
666.72	311.29
666.86	355.76
667.00	311.29
667.14	313.63
667.28	355.76
667.43	294.91
667.57	308.95
667.71	252.78
667.85	318.31
667.99	369.80
668.13	311.29
668.27	315.97
668.41	259.80
668.56	407.25
668.70	311.29
668.84	315.97
668.98	339.38
669.12	292.57
669.26	351.08
669.40	271.50
669.54	311.29
669.68	257.46
669.82	259.80
669.96	294.91
670.10	313.63
670.25	306.61
670.39	290.23
670.53	280.86
670.67	299.59
670.81	292.57
670.95	369.80
671.09	269.16
671.23	283.20
671.37	262.14
671.51	250.44
671.65	327.68
671.79	292.57
671.93	358.10
672.07	315.97
672.21	339.38
672.35	285.55
672.49	217.67
672.63	285.55
672.77	330.02
672.91	184.90
673.05	266.82
673.19	205.97
673.33	304.27
673.47	290.23
673.61	215.33
673.75	294.91
673.89	292.57
674.03	283.20
674.17	194.26
674.31	292.57
674.45	341.72
674.59	238.73
674.73	194.26
674.87	257.46
675.01	217.67
675.15	297.25
675.29	308.95
675.43	250.44
675.56	290.23
675.70	266.82
675.84	262.14
675.98	257.46
676.12	191.92
676.26	243.42
676.40	224.69
676.54	159.16
676.68	210.65
676.82	250.44
676.96	297.25
677.10	280.86
677.23	217.67
677.37	177.88
677.51	212.99
677.65	287.89
677.79	266.82
677.93	229.37
678.07	266.82
678.21	269.16
678.34	271.50
678.48	180.22
678.62	339.38
678.76	280.86
678.90	252.78
679.04	234.05
679.18	208.31
679.31	306.61
679.45	252.78
679.59	245.76
679.73	264.48
679.87	212.99
680.00	250.44
680.14	327.68
680.28	294.91
680.42	229.37
680.56	159.16
680.70	168.52
680.83	313.63
680.97	229.37
681.11	271.50
681.25	341.72
681.39	285.55
681.52	301.93
681.66	248.10
681.80	252.78
681.94	177.88
682.07	166.18
682.21	184.90
682.35	201.29
682.49	224.69
682.62	290.23
682.76	273.84
682.90	222.35
683.04	217.67
683.17	173.20
683.31	184.90
683.45	201.29
683.59	304.27
683.72	301.93
683.86	198.95
684.00	203.63
684.13	241.08
684.27	198.95
684.41	248.10
684.55	287.89
684.68	208.31
684.82	191.92
684.96	248.10
685.09	287.89
685.23	278.52
685.37	205.97
685.50	264.48
685.64	266.82
685.78	217.67
685.91	299.59
686.05	360.44
686.19	332.36
686.32	287.89
686.46	294.91
686.60	229.37
686.73	341.72
686.87	428.32
687.01	379.17
687.14	351.08
687.28	351.08
687.42	388.53
687.55	402.57
687.69	444.70
687.82	447.04
687.96	538.32
688.10	402.57
688.23	425.98
688.37	383.85
688.50	416.62
688.64	330.02
688.78	367.46
688.91	231.71
689.05	266.82
689.18	231.71
689.32	304.27
689.46	227.03
689.59	313.63
689.73	243.42
689.86	222.35
690.00	217.67
690.13	224.69
690.27	222.35
690.41	252.78
690.54	269.16
690.68	154.48
690.81	217.67
690.95	224.69
691.08	177.88
691.22	205.97
691.35	184.90
691.49	182.56
691.62	166.18
691.76	149.79
691.89	215.33
692.03	227.03
692.16	194.26
692.30	124.05
692.43	243.42
692.57	168.52
692.70	182.56
692.84	227.03
692.97	217.67
693.11	198.95
693.24	269.16
693.38	273.84
693.51	334.70
693.65	360.44
693.78	339.38
693.92	411.93
694.05	353.42
694.19	287.89
694.32	304.27
694.45	243.42
694.59	191.92
694.72	133.41
694.86	196.60
694.99	208.31
695.13	121.71
695.26	180.22
695.39	189.58
695.53	257.46
695.66	135.75
695.80	159.16
695.93	152.13
696.07	166.18
696.20	215.33
696.33	222.35
696.47	229.37
696.60	147.45
696.73	133.41
696.87	194.26
697.00	205.97
697.14	177.88
697.27	156.82
697.40	203.63
697.54	161.50
697.67	161.50
697.80	91.28
697.94	140.43
698.07	187.24
698.21	154.48
698.34	131.07
698.47	119.37
698.61	124.05
698.74	128.73
698.87	152.13
699.01	147.45
699.14	191.92
699.27	180.22
699.40	271.50
699.54	133.41
699.67	166.18
699.80	128.73
699.94	187.24
700.07	156.82
700.20	81.92
700.34	198.95
700.47	126.39
700.60	198.95
700.73	173.20
700.87	203.63
701.00	187.24
701.13	110.01
701.26	173.20
701.40	112.35
701.53	208.31
701.66	131.07
701.79	100.64
701.93	208.31
702.06	173.20
702.19	177.88
702.32	163.84
702.46	135.75
702.59	149.79
702.72	110.01
702.85	196.60
702.99	166.18
703.12	255.12
703.25	168.52
703.38	168.52
703.51	135.75
703.65	161.50
703.78	159.16
703.91	138.09
704.04	255.12
704.17	152.13
704.31	238.73
704.44	203.63
704.57	180.22
704.70	189.58
704.83	201.29
704.96	184.90
705.10	198.95
705.23	250.44
>>>>>End Processed Spectral Data<<<<<
