SpectraSuite Data File
++++++++++++++++++++++++++++++++++++
Date: Fri Oct 04 11:41:59 GMT-05:00 2013
User: price-jones
Dark Spectrum Present: No
Reference Spectrum Present: No
Number of Sampled Component Spectra: 1
Spectrometers: USB2+H05261
Integration Time (usec): 100000 (USB2+H05261)
Spectra Averaged: 1 (USB2+H05261)
Boxcar Smoothing: 0 (USB2+H05261)
Correct for Electrical Dark: No (USB2+H05261)
Strobe/Lamp Enabled: No (USB2+H05261)
Correct for Detector Non-linearity: No (USB2+H05261)
Correct for Stray Light: No (USB2+H05261)
Number of Pixels in Processed Spectrum: 2048
>>>>>Begin Processed Spectral Data<<<<<
365.73	7.02
365.92	7.02
366.12	7.02
366.32	0.00
366.52	0.00
366.72	32.77
366.91	0.00
367.11	0.00
367.31	0.00
367.51	0.00
367.70	0.00
367.90	0.00
368.10	0.00
368.30	0.00
368.49	0.00
368.69	0.00
368.89	0.00
369.09	4.68
369.28	0.00
369.48	0.00
369.68	0.00
369.87	46.81
370.07	0.00
370.27	100.64
370.47	0.00
370.66	39.79
370.86	30.43
371.06	65.54
371.25	117.03
371.45	63.19
371.65	65.54
371.84	39.79
372.04	42.13
372.24	67.88
372.44	60.85
372.63	84.26
372.83	163.84
373.03	30.43
373.22	65.54
373.42	131.07
373.62	74.90
373.81	105.32
374.01	114.69
374.21	182.56
374.40	74.90
374.60	154.48
374.79	112.35
374.99	135.75
375.19	166.18
375.38	128.73
375.58	135.75
375.78	117.03
375.97	138.09
376.17	184.90
376.37	138.09
376.56	142.77
376.76	119.37
376.95	107.66
377.15	88.94
377.35	145.11
377.54	140.43
377.74	110.01
377.93	100.64
378.13	95.96
378.33	154.48
378.52	67.88
378.72	140.43
378.91	166.18
379.11	102.98
379.31	100.64
379.50	147.45
379.70	124.05
379.89	117.03
380.09	107.66
380.28	49.15
380.48	46.81
380.68	105.32
380.87	39.79
381.07	149.79
381.26	100.64
381.46	70.22
381.65	65.54
381.85	161.50
382.04	131.07
382.24	105.32
382.43	124.05
382.63	51.49
382.83	107.66
383.02	112.35
383.22	149.79
383.41	46.81
383.61	84.26
383.80	93.62
384.00	39.79
384.19	154.48
384.39	107.66
384.58	84.26
384.78	159.16
384.97	163.84
385.17	112.35
385.36	77.24
385.56	138.09
385.75	98.30
385.95	112.35
386.14	131.07
386.34	159.16
386.53	88.94
386.72	74.90
386.92	145.11
387.11	210.65
387.31	119.37
387.50	46.81
387.70	145.11
387.89	86.60
388.09	131.07
388.28	117.03
388.48	86.60
388.67	156.82
388.86	156.82
389.06	168.52
389.25	168.52
389.45	79.58
389.64	98.30
389.84	98.30
390.03	86.60
390.22	117.03
390.42	86.60
390.61	46.81
390.81	93.62
391.00	77.24
391.19	117.03
391.39	121.71
391.58	107.66
391.78	81.92
391.97	93.62
392.16	105.32
392.36	145.11
392.55	42.13
392.75	166.18
392.94	77.24
393.13	42.13
393.33	53.83
393.52	98.30
393.71	152.13
393.91	117.03
394.10	126.39
394.29	98.30
394.49	175.54
394.68	126.39
394.88	177.88
395.07	117.03
395.26	119.37
395.46	49.15
395.65	131.07
395.84	93.62
396.04	170.86
396.23	7.02
396.42	107.66
396.62	65.54
396.81	86.60
397.00	114.69
397.19	84.26
397.39	84.26
397.58	149.79
397.77	105.32
397.97	119.37
398.16	107.66
398.35	119.37
398.55	23.41
398.74	117.03
398.93	124.05
399.12	128.73
399.32	145.11
399.51	74.90
399.70	117.03
399.90	133.41
400.09	98.30
400.28	161.50
400.47	77.24
400.67	149.79
400.86	98.30
401.05	67.88
401.24	124.05
401.44	42.13
401.63	189.58
401.82	112.35
402.01	30.43
402.21	131.07
402.40	124.05
402.59	147.45
402.78	112.35
402.97	98.30
403.17	119.37
403.36	224.69
403.55	159.16
403.74	166.18
403.93	177.88
404.13	222.35
404.32	252.78
404.51	217.67
404.70	140.43
404.89	124.05
405.09	210.65
405.28	124.05
405.47	128.73
405.66	173.20
405.85	220.01
406.05	105.32
406.24	95.96
406.43	95.96
406.62	102.98
406.81	177.88
407.00	189.58
407.20	156.82
407.39	154.48
407.58	128.73
407.77	170.86
407.96	196.60
408.15	152.13
408.34	212.99
408.54	215.33
408.73	110.01
408.92	32.77
409.11	131.07
409.30	175.54
409.49	88.94
409.68	142.77
409.87	163.84
410.07	159.16
410.26	177.88
410.45	163.84
410.64	182.56
410.83	100.64
411.02	147.45
411.21	175.54
411.40	105.32
411.59	133.41
411.78	107.66
411.98	161.50
412.17	81.92
412.36	70.22
412.55	152.13
412.74	138.09
412.93	187.24
413.12	201.29
413.31	170.86
413.50	163.84
413.69	140.43
413.88	201.29
414.07	70.22
414.26	196.60
414.45	42.13
414.64	110.01
414.83	79.58
415.02	105.32
415.22	91.28
415.41	128.73
415.60	170.86
415.79	135.75
415.98	107.66
416.17	135.75
416.36	166.18
416.55	128.73
416.74	128.73
416.93	154.48
417.12	84.26
417.31	114.69
417.50	149.79
417.69	198.95
417.88	159.16
418.07	81.92
418.26	175.54
418.45	161.50
418.64	208.31
418.83	191.92
419.02	133.41
419.21	196.60
419.39	142.77
419.58	168.52
419.77	105.32
419.96	166.18
420.15	187.24
420.34	175.54
420.53	117.03
420.72	191.92
420.91	177.88
421.10	135.75
421.29	149.79
421.48	196.60
421.67	175.54
421.86	128.73
422.05	91.28
422.24	184.90
422.43	84.26
422.61	95.96
422.80	194.26
422.99	152.13
423.18	198.95
423.37	149.79
423.56	210.65
423.75	194.26
423.94	175.54
424.13	184.90
424.32	135.75
424.50	72.56
424.69	135.75
424.88	234.05
425.07	142.77
425.26	93.62
425.45	145.11
425.64	110.01
425.83	163.84
426.01	166.18
426.20	84.26
426.39	65.54
426.58	110.01
426.77	128.73
426.96	170.86
427.15	126.39
427.33	110.01
427.52	173.20
427.71	163.84
427.90	131.07
428.09	119.37
428.28	138.09
428.46	145.11
428.65	88.94
428.84	154.48
429.03	152.13
429.22	126.39
429.40	184.90
429.59	119.37
429.78	205.97
429.97	133.41
430.16	119.37
430.34	147.45
430.53	152.13
430.72	163.84
430.91	187.24
431.10	124.05
431.28	182.56
431.47	229.37
431.66	196.60
431.85	170.86
432.03	208.31
432.22	252.78
432.41	154.48
432.60	208.31
432.79	131.07
432.97	145.11
433.16	124.05
433.35	135.75
433.54	107.66
433.72	98.30
433.91	110.01
434.10	112.35
434.28	184.90
434.47	114.69
434.66	145.11
434.85	208.31
435.03	327.68
435.22	620.24
435.41	1071.97
435.59	1156.22
435.78	837.91
435.97	433.00
436.16	304.27
436.34	184.90
436.53	126.39
436.72	229.37
436.90	142.77
437.09	152.13
437.28	140.43
437.46	74.90
437.65	182.56
437.84	215.33
438.02	184.90
438.21	220.01
438.40	147.45
438.58	91.28
438.77	154.48
438.96	180.22
439.14	102.98
439.33	152.13
439.52	205.97
439.70	72.56
439.89	161.50
440.08	131.07
440.26	112.35
440.45	245.76
440.63	152.13
440.82	110.01
441.01	175.54
441.19	173.20
441.38	128.73
441.57	140.43
441.75	198.95
441.94	152.13
442.12	173.20
442.31	222.35
442.50	133.41
442.68	163.84
442.87	196.60
443.05	231.71
443.24	180.22
443.43	215.33
443.61	166.18
443.80	100.64
443.98	86.60
444.17	133.41
444.35	154.48
444.54	124.05
444.73	98.30
444.91	224.69
445.10	182.56
445.28	149.79
445.47	149.79
445.65	93.62
445.84	201.29
446.02	173.20
446.21	168.52
446.39	102.98
446.58	166.18
446.77	138.09
446.95	117.03
447.14	131.07
447.32	191.92
447.51	159.16
447.69	98.30
447.88	170.86
448.06	203.63
448.25	201.29
448.43	234.05
448.62	222.35
448.80	138.09
448.99	217.67
449.17	156.82
449.36	212.99
449.54	238.73
449.73	191.92
449.91	175.54
450.10	229.37
450.28	182.56
450.46	196.60
450.65	215.33
450.83	135.75
451.02	191.92
451.20	191.92
451.39	205.97
451.57	170.86
451.76	117.03
451.94	166.18
452.13	168.52
452.31	138.09
452.49	187.24
452.68	72.56
452.86	107.66
453.05	285.55
453.23	133.41
453.42	159.16
453.60	147.45
453.78	154.48
453.97	154.48
454.15	112.35
454.34	184.90
454.52	107.66
454.70	222.35
454.89	255.12
455.07	131.07
455.26	196.60
455.44	201.29
455.62	215.33
455.81	161.50
455.99	191.92
456.17	173.20
456.36	128.73
456.54	189.58
456.73	152.13
456.91	149.79
457.09	208.31
457.28	170.86
457.46	159.16
457.64	168.52
457.83	135.75
458.01	133.41
458.19	180.22
458.38	138.09
458.56	212.99
458.74	154.48
458.93	142.77
459.11	189.58
459.29	156.82
459.48	187.24
459.66	297.25
459.84	215.33
460.03	264.48
460.21	175.54
460.39	187.24
460.57	147.45
460.76	147.45
460.94	147.45
461.12	231.71
461.31	182.56
461.49	140.43
461.67	159.16
461.85	173.20
462.04	74.90
462.22	538.32
462.40	231.71
462.59	140.43
462.77	180.22
462.95	243.42
463.13	177.88
463.32	262.14
463.50	102.98
463.68	156.82
463.86	126.39
464.05	166.18
464.23	201.29
464.41	173.20
464.59	112.35
464.78	149.79
464.96	175.54
465.14	156.82
465.32	142.77
465.50	105.32
465.69	191.92
465.87	194.26
466.05	264.48
466.23	196.60
466.41	163.84
466.60	166.18
466.78	168.52
466.96	152.13
467.14	201.29
467.32	227.03
467.51	110.01
467.69	217.67
467.87	177.88
468.05	95.96
468.23	210.65
468.41	154.48
468.60	168.52
468.78	201.29
468.96	262.14
469.14	276.18
469.32	154.48
469.50	145.11
469.69	231.71
469.87	201.29
470.05	191.92
470.23	102.98
470.41	168.52
470.59	156.82
470.77	198.95
470.95	224.69
471.14	205.97
471.32	140.43
471.50	220.01
471.68	166.18
471.86	250.44
472.04	220.01
472.22	175.54
472.40	140.43
472.58	182.56
472.77	161.50
472.95	205.97
473.13	229.37
473.31	138.09
473.49	110.01
473.67	215.33
473.85	252.78
474.03	121.71
474.21	102.98
474.39	180.22
474.57	187.24
474.75	170.86
474.93	180.22
475.12	121.71
475.30	196.60
475.48	131.07
475.66	180.22
475.84	149.79
476.02	140.43
476.20	224.69
476.38	152.13
476.56	222.35
476.74	238.73
476.92	194.26
477.10	248.10
477.28	145.11
477.46	184.90
477.64	156.82
477.82	175.54
478.00	121.71
478.18	210.65
478.36	182.56
478.54	205.97
478.72	222.35
478.90	170.86
479.08	217.67
479.26	175.54
479.44	86.60
479.62	236.39
479.80	140.43
479.98	236.39
480.16	205.97
480.34	182.56
480.52	220.01
480.70	205.97
480.88	196.60
481.06	184.90
481.24	168.52
481.41	234.05
481.59	124.05
481.77	217.67
481.95	280.86
482.13	245.76
482.31	220.01
482.49	236.39
482.67	285.55
482.85	215.33
483.03	182.56
483.21	234.05
483.39	187.24
483.57	205.97
483.74	238.73
483.92	154.48
484.10	210.65
484.28	292.57
484.46	287.89
484.64	259.80
484.82	241.08
485.00	264.48
485.18	250.44
485.35	299.59
485.53	266.82
485.71	320.65
485.89	280.86
486.07	238.73
486.25	257.46
486.43	308.95
486.61	292.57
486.78	306.61
486.96	292.57
487.14	297.25
487.32	276.18
487.50	304.27
487.68	266.82
487.85	280.86
488.03	245.76
488.21	283.20
488.39	311.29
488.57	250.44
488.75	283.20
488.92	517.26
489.10	145.11
489.28	330.02
489.46	283.20
489.64	390.87
489.81	287.89
489.99	325.33
490.17	224.69
490.35	299.59
490.53	327.68
490.70	301.93
490.88	297.25
491.06	362.78
491.24	294.91
491.41	339.38
491.59	315.97
491.77	346.40
491.95	262.14
492.13	318.31
492.30	287.89
492.48	332.36
492.66	292.57
492.84	276.18
493.01	301.93
493.19	304.27
493.37	353.42
493.54	224.69
493.72	245.76
493.90	259.80
494.08	255.12
494.25	334.70
494.43	322.99
494.61	299.59
494.79	220.01
494.96	285.55
495.14	212.99
495.32	276.18
495.49	280.86
495.67	234.05
495.85	283.20
496.02	360.44
496.20	308.95
496.38	299.59
496.55	318.31
496.73	292.57
496.91	245.76
497.09	290.23
497.26	311.29
497.44	266.82
497.62	276.18
497.79	234.05
497.97	297.25
498.14	290.23
498.32	248.10
498.50	238.73
498.67	337.04
498.85	311.29
499.03	234.05
499.20	241.08
499.38	177.88
499.56	194.26
499.73	297.25
499.91	269.16
500.08	266.82
500.26	252.78
500.44	262.14
500.61	248.10
500.79	264.48
500.97	262.14
501.14	294.91
501.32	184.90
501.49	273.84
501.67	334.70
501.84	262.14
502.02	229.37
502.20	248.10
502.37	212.99
502.55	278.52
502.72	203.63
502.90	250.44
503.07	262.14
503.25	269.16
503.43	236.39
503.60	241.08
503.78	283.20
503.95	201.29
504.13	325.33
504.30	175.54
504.48	205.97
504.65	234.05
504.83	304.27
505.01	182.56
505.18	210.65
505.36	224.69
505.53	299.59
505.71	266.82
505.88	278.52
506.06	215.33
506.23	227.03
506.41	245.76
506.58	177.88
506.76	252.78
506.93	241.08
507.11	170.86
507.28	234.05
507.46	294.91
507.63	203.63
507.81	266.82
507.98	238.73
508.16	170.86
508.33	198.95
508.50	201.29
508.68	285.55
508.85	276.18
509.03	194.26
509.20	262.14
509.38	236.39
509.55	227.03
509.73	313.63
509.90	259.80
510.08	231.71
510.25	283.20
510.42	264.48
510.60	248.10
510.77	301.93
510.95	250.44
511.12	203.63
511.30	332.36
511.47	315.97
511.64	315.97
511.82	224.69
511.99	208.31
512.17	234.05
512.34	229.37
512.51	196.60
512.69	299.59
512.86	290.23
513.04	266.82
513.21	229.37
513.38	194.26
513.56	212.99
513.73	227.03
513.90	299.59
514.08	231.71
514.25	250.44
514.43	245.76
514.60	248.10
514.77	238.73
514.95	231.71
515.12	198.95
515.29	212.99
515.47	250.44
515.64	217.67
515.81	334.70
515.99	283.20
516.16	210.65
516.33	276.18
516.51	173.20
516.68	177.88
516.85	196.60
517.03	236.39
517.20	229.37
517.37	224.69
517.54	264.48
517.72	201.29
517.89	227.03
518.06	173.20
518.24	241.08
518.41	241.08
518.58	313.63
518.75	198.95
518.93	194.26
519.10	220.01
519.27	241.08
519.45	222.35
519.62	229.37
519.79	280.86
519.96	203.63
520.14	177.88
520.31	264.48
520.48	227.03
520.65	203.63
520.83	243.42
521.00	245.76
521.17	250.44
521.34	238.73
521.52	313.63
521.69	250.44
521.86	212.99
522.03	198.95
522.20	299.59
522.38	304.27
522.55	264.48
522.72	189.58
522.89	280.86
523.07	322.99
523.24	212.99
523.41	196.60
523.58	203.63
523.75	252.78
523.92	262.14
524.10	276.18
524.27	255.12
524.44	250.44
524.61	280.86
524.78	177.88
524.96	217.67
525.13	224.69
525.30	332.36
525.47	262.14
525.64	297.25
525.81	266.82
525.98	294.91
526.16	245.76
526.33	187.24
526.50	205.97
526.67	224.69
526.84	173.20
527.01	187.24
527.18	238.73
527.36	229.37
527.53	205.97
527.70	241.08
527.87	266.82
528.04	220.01
528.21	280.86
528.38	273.84
528.55	280.86
528.72	283.20
528.89	250.44
529.07	236.39
529.24	187.24
529.41	187.24
529.58	266.82
529.75	227.03
529.92	262.14
530.09	173.20
530.26	290.23
530.43	259.80
530.60	215.33
530.77	229.37
530.94	234.05
531.11	287.89
531.28	236.39
531.46	266.82
531.63	318.31
531.80	250.44
531.97	301.93
532.14	318.31
532.31	266.82
532.48	346.40
532.65	299.59
532.82	285.55
532.99	203.63
533.16	283.20
533.33	351.08
533.50	313.63
533.67	220.01
533.84	304.27
534.01	297.25
534.18	285.55
534.35	325.33
534.52	276.18
534.69	287.89
534.86	266.82
535.03	266.82
535.20	322.99
535.37	287.89
535.54	276.18
535.71	299.59
535.88	313.63
536.05	313.63
536.22	243.42
536.38	255.12
536.55	278.52
536.72	362.78
536.89	306.61
537.06	208.31
537.23	278.52
537.40	393.21
537.57	351.08
537.74	376.83
537.91	440.02
538.08	423.64
538.25	449.38
538.42	425.98
538.59	463.43
538.75	484.49
538.92	496.19
539.09	461.09
539.26	454.06
539.43	514.92
539.60	521.94
539.77	510.24
539.94	503.22
540.11	624.92
540.28	688.12
540.44	718.54
540.61	706.84
540.78	770.04
540.95	901.11
541.12	999.41
541.29	1025.15
541.46	1221.76
541.62	1132.82
541.79	1167.93
541.96	1078.99
542.13	1125.80
542.30	1081.33
542.47	1062.60
542.63	973.66
542.80	1034.52
542.97	959.62
543.14	901.11
543.31	1156.22
543.48	1015.79
543.64	964.30
543.81	978.34
543.98	1034.52
544.15	940.90
544.32	947.92
544.48	1076.65
544.65	877.70
544.82	938.55
544.99	987.71
545.16	936.21
545.32	901.11
545.49	1476.88
545.66	2270.32
545.83	2761.83
546.00	2347.56
546.16	1788.17
546.33	1259.21
546.50	1043.88
546.67	898.77
546.83	751.31
547.00	744.29
547.17	669.39
547.34	627.26
547.50	697.48
547.67	671.73
547.84	664.71
548.00	662.37
548.17	667.05
548.34	587.47
548.51	627.26
548.67	688.12
548.84	648.33
549.01	655.35
549.18	526.62
549.34	517.26
549.51	514.92
549.68	538.32
549.84	533.64
550.01	503.22
550.18	484.49
550.34	601.52
550.51	524.28
550.68	606.20
550.84	444.70
551.01	428.32
551.18	463.43
551.34	376.83
551.51	458.74
551.68	461.09
551.84	507.90
552.01	390.87
552.18	414.27
552.34	372.15
552.51	425.98
552.68	383.85
552.84	322.99
553.01	465.77
553.18	404.91
553.34	374.49
553.51	444.70
553.67	367.46
553.84	383.85
554.01	339.38
554.17	327.68
554.34	327.68
554.51	318.31
554.67	332.36
554.84	311.29
555.00	344.06
555.17	301.93
555.33	273.84
555.50	299.59
555.67	351.08
555.83	306.61
556.00	276.18
556.16	395.55
556.33	292.57
556.50	276.18
556.66	266.82
556.83	304.27
556.99	264.48
557.16	262.14
557.32	271.50
557.49	285.55
557.65	217.67
557.82	294.91
557.98	262.14
558.15	264.48
558.32	229.37
558.48	208.31
558.65	304.27
558.81	278.52
558.98	245.76
559.14	297.25
559.31	238.73
559.47	262.14
559.64	255.12
559.80	339.38
559.97	196.60
560.13	196.60
560.30	266.82
560.46	210.65
560.63	222.35
560.79	184.90
560.96	306.61
561.12	194.26
561.29	264.48
561.45	313.63
561.61	318.31
561.78	334.70
561.94	208.31
562.11	264.48
562.27	259.80
562.44	259.80
562.60	252.78
562.77	168.52
562.93	285.55
563.10	273.84
563.26	262.14
563.42	325.33
563.59	294.91
563.75	255.12
563.92	269.16
564.08	255.12
564.24	278.52
564.41	210.65
564.57	173.20
564.74	257.46
564.90	208.31
565.07	280.86
565.23	341.72
565.39	269.16
565.56	262.14
565.72	205.97
565.88	243.42
566.05	182.56
566.21	266.82
566.38	187.24
566.54	220.01
566.70	217.67
566.87	231.71
567.03	269.16
567.19	224.69
567.36	243.42
567.52	311.29
567.68	266.82
567.85	280.86
568.01	264.48
568.17	238.73
568.34	236.39
568.50	294.91
568.66	205.97
568.83	332.36
568.99	273.84
569.15	285.55
569.32	259.80
569.48	283.20
569.64	191.92
569.81	217.67
569.97	203.63
570.13	241.08
570.30	184.90
570.46	278.52
570.62	203.63
570.78	234.05
570.95	203.63
571.11	322.99
571.27	280.86
571.43	210.65
571.60	212.99
571.76	266.82
571.92	222.35
572.09	220.01
572.25	243.42
572.41	205.97
572.57	236.39
572.74	339.38
572.90	229.37
573.06	273.84
573.22	191.92
573.38	304.27
573.55	271.50
573.71	229.37
573.87	215.33
574.03	243.42
574.20	339.38
574.36	301.93
574.52	196.60
574.68	201.29
574.84	266.82
575.01	250.44
575.17	259.80
575.33	227.03
575.49	227.03
575.65	327.68
575.82	217.67
575.98	280.86
576.14	322.99
576.30	299.59
576.46	486.83
576.62	676.41
576.79	681.10
576.95	629.60
577.11	388.53
577.27	325.33
577.43	327.68
577.59	362.78
577.75	322.99
577.92	304.27
578.08	231.71
578.24	241.08
578.40	360.44
578.56	557.05
578.72	653.01
578.88	765.36
579.04	543.00
579.21	344.06
579.37	355.76
579.53	320.65
579.69	395.55
579.85	393.21
580.01	493.85
580.17	393.21
580.33	381.51
580.49	301.93
580.65	341.72
580.82	315.97
580.98	372.15
581.14	339.38
581.30	297.25
581.46	327.68
581.62	330.02
581.78	367.46
581.94	386.19
582.10	348.74
582.26	374.49
582.42	379.17
582.58	451.72
582.74	404.91
582.90	458.74
583.06	393.21
583.22	344.06
583.38	414.27
583.54	404.91
583.70	477.47
583.86	423.64
584.02	449.38
584.18	435.34
584.34	383.85
584.50	346.40
584.66	409.59
584.82	374.49
584.98	358.10
585.14	379.17
585.30	428.32
585.46	416.62
585.62	393.21
585.78	353.42
585.94	397.89
586.10	376.83
586.26	332.36
586.42	442.36
586.58	461.09
586.74	521.94
586.90	535.98
587.06	472.79
587.22	557.05
587.38	484.49
587.54	503.22
587.70	472.79
587.86	393.21
588.02	376.83
588.18	472.79
588.34	334.70
588.49	334.70
588.65	332.36
588.81	271.50
588.97	304.27
589.13	264.48
589.29	325.33
589.45	287.89
589.61	273.84
589.77	325.33
589.93	304.27
590.08	259.80
590.24	264.48
590.40	393.21
590.56	287.89
590.72	411.93
590.88	348.74
591.04	322.99
591.20	306.61
591.35	353.42
591.51	318.31
591.67	388.53
591.83	306.61
591.99	339.38
592.15	433.00
592.31	423.64
592.46	425.98
592.62	418.96
592.78	407.25
592.94	386.19
593.10	484.49
593.26	407.25
593.41	447.04
593.57	393.21
593.73	348.74
593.89	325.33
594.05	262.14
594.20	238.73
594.36	271.50
594.52	304.27
594.68	243.42
594.84	229.37
594.99	322.99
595.15	280.86
595.31	325.33
595.47	346.40
595.62	299.59
595.78	292.57
595.94	318.31
596.10	358.10
596.25	285.55
596.41	280.86
596.57	362.78
596.73	198.95
596.88	283.20
597.04	299.59
597.20	322.99
597.36	320.65
597.51	348.74
597.67	243.42
597.83	318.31
597.99	285.55
598.14	299.59
598.30	341.72
598.46	318.31
598.61	365.12
598.77	353.42
598.93	376.83
599.09	313.63
599.24	374.49
599.40	393.21
599.56	318.31
599.71	294.91
599.87	339.38
600.03	301.93
600.18	259.80
600.34	360.44
600.50	313.63
600.65	252.78
600.81	339.38
600.97	283.20
601.12	304.27
601.28	278.52
601.44	287.89
601.59	294.91
601.75	278.52
601.91	269.16
602.06	227.03
602.22	381.51
602.37	280.86
602.53	290.23
602.69	255.12
602.84	257.46
603.00	220.01
603.16	290.23
603.31	210.65
603.47	283.20
603.62	297.25
603.78	283.20
603.94	301.93
604.09	245.76
604.25	287.89
604.40	362.78
604.56	257.46
604.71	276.18
604.87	306.61
605.03	308.95
605.18	285.55
605.34	320.65
605.49	292.57
605.65	264.48
605.80	280.86
605.96	325.33
606.12	332.36
606.27	297.25
606.43	266.82
606.58	299.59
606.74	365.12
606.89	238.73
607.05	341.72
607.20	290.23
607.36	402.57
607.51	313.63
607.67	365.12
607.82	346.40
607.98	470.45
608.13	395.55
608.29	327.68
608.44	362.78
608.60	463.43
608.75	514.92
608.91	472.79
609.06	463.43
609.22	463.43
609.37	521.94
609.53	552.37
609.68	608.54
609.84	660.03
609.99	826.21
610.15	849.61
610.30	945.58
610.46	1266.23
610.61	1519.01
610.76	1952.01
610.92	2321.81
611.07	2413.09
611.23	2553.52
611.38	2340.54
611.54	2092.44
611.69	1825.62
611.84	1521.35
612.00	1231.12
612.15	1146.86
612.31	1011.11
612.46	973.66
612.62	837.91
612.77	947.92
612.92	861.32
613.08	891.74
613.23	805.14
613.39	739.61
613.54	627.26
613.69	685.78
613.85	704.50
614.00	664.71
614.15	697.48
614.31	655.35
614.46	613.22
614.62	585.13
614.77	699.82
614.92	596.84
615.08	624.92
615.23	580.45
615.38	585.13
615.54	505.56
615.69	414.27
615.84	346.40
616.00	395.55
616.15	407.25
616.30	402.57
616.46	449.38
616.61	318.31
616.76	414.27
616.92	301.93
617.07	330.02
617.22	351.08
617.37	383.85
617.53	339.38
617.68	299.59
617.83	320.65
617.99	325.33
618.14	355.76
618.29	341.72
618.45	351.08
618.60	327.68
618.75	276.18
618.90	315.97
619.06	287.89
619.21	360.44
619.36	315.97
619.51	278.52
619.67	276.18
619.82	346.40
619.97	332.36
620.12	339.38
620.28	348.74
620.43	290.23
620.58	351.08
620.73	330.02
620.89	360.44
621.04	318.31
621.19	341.72
621.34	367.46
621.49	294.91
621.65	341.72
621.80	318.31
621.95	332.36
622.10	294.91
622.25	383.85
622.41	196.60
622.56	311.29
622.71	402.57
622.86	320.65
623.01	339.38
623.16	301.93
623.32	311.29
623.47	365.12
623.62	362.78
623.77	283.20
623.92	365.12
624.07	304.27
624.23	330.02
624.38	332.36
624.53	294.91
624.68	325.33
624.83	294.91
624.98	308.95
625.13	325.33
625.29	245.76
625.44	351.08
625.59	322.99
625.74	344.06
625.89	322.99
626.04	271.50
626.19	367.46
626.34	332.36
626.49	290.23
626.65	285.55
626.80	344.06
626.95	332.36
627.10	234.05
627.25	332.36
627.40	337.04
627.55	346.40
627.70	245.76
627.85	339.38
628.00	299.59
628.15	259.80
628.30	308.95
628.45	280.86
628.60	308.95
628.76	416.62
628.91	313.63
629.06	318.31
629.21	220.01
629.36	339.38
629.51	287.89
629.66	273.84
629.81	269.16
629.96	353.42
630.11	334.70
630.26	341.72
630.41	400.23
630.56	433.00
630.71	437.68
630.86	404.91
631.01	400.23
631.16	334.70
631.31	407.25
631.46	362.78
631.61	435.34
631.76	299.59
631.91	245.76
632.06	276.18
632.21	285.55
632.36	276.18
632.51	177.88
632.66	241.08
632.81	222.35
632.96	262.14
633.10	283.20
633.25	266.82
633.40	238.73
633.55	215.33
633.70	135.75
633.85	231.71
634.00	264.48
634.15	177.88
634.30	175.54
634.45	124.05
634.60	269.16
634.75	196.60
634.90	217.67
635.05	201.29
635.19	201.29
635.34	294.91
635.49	191.92
635.64	238.73
635.79	234.05
635.94	271.50
636.09	203.63
636.24	147.45
636.39	224.69
636.53	194.26
636.68	187.24
636.83	191.92
636.98	191.92
637.13	166.18
637.28	110.01
637.43	229.37
637.57	168.52
637.72	217.67
637.87	133.41
638.02	194.26
638.17	201.29
638.32	227.03
638.46	245.76
638.61	236.39
638.76	205.97
638.91	210.65
639.06	203.63
639.20	156.82
639.35	161.50
639.50	189.58
639.65	252.78
639.80	234.05
639.94	163.84
640.09	145.11
640.24	276.18
640.39	184.90
640.54	182.56
640.68	273.84
640.83	294.91
640.98	252.78
641.13	133.41
641.27	205.97
641.42	191.92
641.57	201.29
641.72	177.88
641.86	166.18
642.01	121.71
642.16	210.65
642.31	238.73
642.45	198.95
642.60	222.35
642.75	189.58
642.90	177.88
643.04	180.22
643.19	187.24
643.34	170.86
643.48	198.95
643.63	175.54
643.78	304.27
643.93	264.48
644.07	273.84
644.22	177.88
644.37	128.73
644.51	227.03
644.66	187.24
644.81	198.95
644.95	259.80
645.10	105.32
645.25	198.95
645.39	255.12
645.54	124.05
645.69	205.97
645.83	234.05
645.98	224.69
646.13	117.03
646.27	147.45
646.42	177.88
646.57	182.56
646.71	229.37
646.86	236.39
647.00	194.26
647.15	180.22
647.30	194.26
647.44	138.09
647.59	201.29
647.74	168.52
647.88	145.11
648.03	114.69
648.17	234.05
648.32	220.01
648.47	156.82
648.61	156.82
648.76	147.45
648.90	259.80
649.05	119.37
649.20	100.64
649.34	121.71
649.49	152.13
649.63	224.69
649.78	184.90
649.92	177.88
650.07	182.56
650.21	149.79
650.36	259.80
650.51	285.55
650.65	266.82
650.80	283.20
650.94	187.24
651.09	196.60
651.23	217.67
651.38	180.22
651.52	93.62
651.67	182.56
651.81	180.22
651.96	194.26
652.10	198.95
652.25	170.86
652.39	196.60
652.54	189.58
652.68	177.88
652.83	255.12
652.97	205.97
653.12	278.52
653.26	248.10
653.41	198.95
653.55	189.58
653.70	173.20
653.84	138.09
653.99	208.31
654.13	177.88
654.27	152.13
654.42	210.65
654.56	191.92
654.71	180.22
654.85	91.28
655.00	187.24
655.14	168.52
655.29	170.86
655.43	128.73
655.57	133.41
655.72	215.33
655.86	142.77
656.01	196.60
656.15	241.08
656.30	308.95
656.44	159.16
656.58	142.77
656.73	243.42
656.87	156.82
657.01	161.50
657.16	255.12
657.30	196.60
657.45	264.48
657.59	114.69
657.73	100.64
657.88	140.43
658.02	273.84
658.16	194.26
658.31	147.45
658.45	93.62
658.60	112.35
658.74	203.63
658.88	142.77
659.03	166.18
659.17	142.77
659.31	175.54
659.46	191.92
659.60	168.52
659.74	105.32
659.89	95.96
660.03	88.94
660.17	191.92
660.32	196.60
660.46	203.63
660.60	170.86
660.74	210.65
660.89	198.95
661.03	91.28
661.17	177.88
661.32	191.92
661.46	234.05
661.60	161.50
661.74	156.82
661.89	234.05
662.03	220.01
662.17	149.79
662.31	177.88
662.46	259.80
662.60	156.82
662.74	128.73
662.88	238.73
663.03	128.73
663.17	131.07
663.31	114.69
663.45	191.92
663.60	112.35
663.74	124.05
663.88	124.05
664.02	238.73
664.17	182.56
664.31	161.50
664.45	140.43
664.59	224.69
664.73	182.56
664.88	180.22
665.02	152.13
665.16	170.86
665.30	147.45
665.44	173.20
665.59	194.26
665.73	205.97
665.87	180.22
666.01	182.56
666.15	212.99
666.29	91.28
666.44	138.09
666.58	276.18
666.72	175.54
666.86	154.48
667.00	163.84
667.14	257.46
667.28	175.54
667.43	166.18
667.57	194.26
667.71	126.39
667.85	203.63
667.99	131.07
668.13	224.69
668.27	142.77
668.41	194.26
668.56	154.48
668.70	184.90
668.84	227.03
668.98	159.16
669.12	184.90
669.26	215.33
669.40	208.31
669.54	255.12
669.68	145.11
669.82	187.24
669.96	187.24
670.10	140.43
670.25	231.71
670.39	238.73
670.53	117.03
670.67	231.71
670.81	117.03
670.95	147.45
671.09	100.64
671.23	278.52
671.37	173.20
671.51	135.75
671.65	175.54
671.79	210.65
671.93	105.32
672.07	227.03
672.21	145.11
672.35	168.52
672.49	147.45
672.63	149.79
672.77	163.84
672.91	159.16
673.05	182.56
673.19	135.75
673.33	168.52
673.47	98.30
673.61	128.73
673.75	212.99
673.89	161.50
674.03	203.63
674.17	156.82
674.31	138.09
674.45	124.05
674.59	100.64
674.73	135.75
674.87	222.35
675.01	238.73
675.15	152.13
675.29	177.88
675.43	191.92
675.56	161.50
675.70	220.01
675.84	126.39
675.98	149.79
676.12	154.48
676.26	128.73
676.40	128.73
676.54	212.99
676.68	222.35
676.82	133.41
676.96	128.73
677.10	147.45
677.23	187.24
677.37	173.20
677.51	105.32
677.65	236.39
677.79	107.66
677.93	142.77
678.07	187.24
678.21	138.09
678.34	159.16
678.48	152.13
678.62	189.58
678.76	110.01
678.90	191.92
679.04	95.96
679.18	149.79
679.31	88.94
679.45	142.77
679.59	112.35
679.73	198.95
679.87	149.79
680.00	222.35
680.14	189.58
680.28	191.92
680.42	86.60
680.56	142.77
680.70	198.95
680.83	168.52
680.97	177.88
681.11	152.13
681.25	163.84
681.39	149.79
681.52	180.22
681.66	168.52
681.80	224.69
681.94	145.11
682.07	189.58
682.21	227.03
682.35	114.69
682.49	102.98
682.62	215.33
682.76	74.90
682.90	91.28
683.04	140.43
683.17	168.52
683.31	138.09
683.45	124.05
683.59	196.60
683.72	168.52
683.86	124.05
684.00	154.48
684.13	175.54
684.27	187.24
684.41	147.45
684.55	100.64
684.68	152.13
684.82	168.52
684.96	173.20
685.09	189.58
685.23	131.07
685.37	107.66
685.50	220.01
685.64	208.31
685.78	110.01
685.91	208.31
686.05	184.90
686.19	217.67
686.32	142.77
686.46	154.48
686.60	121.71
686.73	215.33
686.87	182.56
687.01	107.66
687.14	154.48
687.28	110.01
687.42	93.62
687.55	110.01
687.69	173.20
687.82	166.18
687.96	168.52
688.10	168.52
688.23	126.39
688.37	149.79
688.50	191.92
688.64	140.43
688.78	105.32
688.91	93.62
689.05	222.35
689.18	128.73
689.32	149.79
689.46	44.47
689.59	140.43
689.73	182.56
689.86	107.66
690.00	135.75
690.13	126.39
690.27	79.58
690.41	91.28
690.54	147.45
690.68	135.75
690.81	149.79
690.95	205.97
691.08	126.39
691.22	149.79
691.35	140.43
691.49	170.86
691.62	135.75
691.76	86.60
691.89	145.11
692.03	142.77
692.16	84.26
692.30	161.50
692.43	72.56
692.57	145.11
692.70	135.75
692.84	147.45
692.97	180.22
693.11	63.19
693.24	121.71
693.38	145.11
693.51	166.18
693.65	210.65
693.78	210.65
693.92	175.54
694.05	131.07
694.19	37.45
694.32	198.95
694.45	79.58
694.59	121.71
694.72	161.50
694.86	142.77
694.99	79.58
695.13	163.84
695.26	84.26
695.39	135.75
695.53	107.66
695.66	117.03
695.80	124.05
695.93	166.18
696.07	112.35
696.20	135.75
696.33	159.16
696.47	121.71
696.60	145.11
696.73	138.09
696.87	154.48
697.00	138.09
697.14	194.26
697.27	173.20
697.40	243.42
697.54	117.03
697.67	107.66
697.80	126.39
697.94	74.90
698.07	170.86
698.21	126.39
698.34	152.13
698.47	102.98
698.61	140.43
698.74	149.79
698.87	126.39
699.01	112.35
699.14	65.54
699.27	121.71
699.40	250.44
699.54	187.24
699.67	110.01
699.80	114.69
699.94	135.75
700.07	138.09
700.20	119.37
700.34	112.35
700.47	67.88
700.60	91.28
700.73	149.79
700.87	159.16
701.00	117.03
701.13	25.75
701.26	63.19
701.40	126.39
701.53	88.94
701.66	70.22
701.79	142.77
701.93	177.88
702.06	161.50
702.19	156.82
702.32	102.98
702.46	128.73
702.59	149.79
702.72	105.32
702.85	189.58
702.99	138.09
703.12	131.07
703.25	161.50
703.38	110.01
703.51	184.90
703.65	56.17
703.78	60.85
703.91	231.71
704.04	102.98
704.17	95.96
704.31	140.43
704.44	95.96
704.57	142.77
704.70	140.43
704.83	88.94
704.96	177.88
705.10	72.56
705.23	112.35
>>>>>End Processed Spectral Data<<<<<
