SpectraSuite Data File
++++++++++++++++++++++++++++++++++++
Date: Fri Oct 04 11:42:08 GMT-05:00 2013
User: price-jones
Dark Spectrum Present: No
Reference Spectrum Present: No
Number of Sampled Component Spectra: 1
Spectrometers: USB2+H05261
Integration Time (usec): 100000 (USB2+H05261)
Spectra Averaged: 1 (USB2+H05261)
Boxcar Smoothing: 0 (USB2+H05261)
Correct for Electrical Dark: No (USB2+H05261)
Strobe/Lamp Enabled: No (USB2+H05261)
Correct for Detector Non-linearity: No (USB2+H05261)
Correct for Stray Light: No (USB2+H05261)
Number of Pixels in Processed Spectrum: 2048
>>>>>Begin Processed Spectral Data<<<<<
365.73	35.11
365.92	35.11
366.12	35.11
366.32	0.00
366.52	0.00
366.72	0.00
366.91	0.00
367.11	0.00
367.31	0.00
367.51	0.00
367.70	0.00
367.90	0.00
368.10	4.68
368.30	0.00
368.49	0.00
368.69	0.00
368.89	0.00
369.09	0.00
369.28	0.00
369.48	0.00
369.68	0.00
369.87	0.00
370.07	23.41
370.27	91.28
370.47	7.02
370.66	4.68
370.86	44.47
371.06	88.94
371.25	9.36
371.45	4.68
371.65	114.69
371.84	9.36
372.04	0.00
372.24	67.88
372.44	60.85
372.63	117.03
372.83	58.51
373.03	161.50
373.22	84.26
373.42	77.24
373.62	95.96
373.81	194.26
374.01	121.71
374.21	142.77
374.40	51.49
374.60	131.07
374.79	74.90
374.99	72.56
375.19	168.52
375.38	70.22
375.58	149.79
375.78	135.75
375.97	128.73
376.17	74.90
376.37	149.79
376.56	84.26
376.76	74.90
376.95	79.58
377.15	70.22
377.35	79.58
377.54	112.35
377.74	21.06
377.93	86.60
378.13	74.90
378.33	114.69
378.52	84.26
378.72	110.01
378.91	173.20
379.11	70.22
379.31	86.60
379.50	58.51
379.70	198.95
379.89	145.11
380.09	138.09
380.28	145.11
380.48	63.19
380.68	93.62
380.87	70.22
381.07	30.43
381.26	135.75
381.46	119.37
381.65	154.48
381.85	77.24
382.04	93.62
382.24	100.64
382.43	114.69
382.63	37.45
382.83	74.90
383.02	126.39
383.22	112.35
383.41	32.77
383.61	84.26
383.80	35.11
384.00	23.41
384.19	128.73
384.39	119.37
384.58	100.64
384.78	67.88
384.97	133.41
385.17	105.32
385.36	93.62
385.56	0.00
385.75	53.83
385.95	159.16
386.14	145.11
386.34	93.62
386.53	170.86
386.72	161.50
386.92	117.03
387.11	110.01
387.31	60.85
387.50	88.94
387.70	81.92
387.89	53.83
388.09	58.51
388.28	86.60
388.48	56.17
388.67	117.03
388.86	88.94
389.06	138.09
389.25	128.73
389.45	98.30
389.64	112.35
389.84	88.94
390.03	131.07
390.22	145.11
390.42	112.35
390.61	152.13
390.81	110.01
391.00	145.11
391.19	159.16
391.39	91.28
391.58	21.06
391.78	81.92
391.97	2.34
392.16	72.56
392.36	42.13
392.55	175.54
392.75	124.05
392.94	182.56
393.13	194.26
393.33	117.03
393.52	149.79
393.71	156.82
393.91	100.64
394.10	133.41
394.29	100.64
394.49	117.03
394.68	77.24
394.88	124.05
395.07	117.03
395.26	145.11
395.46	128.73
395.65	70.22
395.84	124.05
396.04	184.90
396.23	112.35
396.42	93.62
396.62	39.79
396.81	65.54
397.00	81.92
397.19	149.79
397.39	140.43
397.58	95.96
397.77	173.20
397.97	67.88
398.16	77.24
398.35	126.39
398.55	77.24
398.74	128.73
398.93	91.28
399.12	56.17
399.32	121.71
399.51	63.19
399.70	140.43
399.90	142.77
400.09	177.88
400.28	166.18
400.47	124.05
400.67	88.94
400.86	88.94
401.05	110.01
401.24	114.69
401.44	65.54
401.63	154.48
401.82	161.50
402.01	126.39
402.21	152.13
402.40	147.45
402.59	86.60
402.78	126.39
402.97	117.03
403.17	112.35
403.36	84.26
403.55	177.88
403.74	126.39
403.93	107.66
404.13	180.22
404.32	114.69
404.51	131.07
404.70	156.82
404.89	131.07
405.09	154.48
405.28	196.60
405.47	110.01
405.66	170.86
405.85	124.05
406.05	95.96
406.24	112.35
406.43	63.19
406.62	124.05
406.81	198.95
407.00	156.82
407.20	84.26
407.39	77.24
407.58	84.26
407.77	184.90
407.96	142.77
408.15	81.92
408.34	131.07
408.54	74.90
408.73	63.19
408.92	124.05
409.11	154.48
409.30	138.09
409.49	161.50
409.68	72.56
409.87	131.07
410.07	117.03
410.26	112.35
410.45	23.41
410.64	88.94
410.83	124.05
411.02	77.24
411.21	145.11
411.40	70.22
411.59	131.07
411.78	107.66
411.98	95.96
412.17	124.05
412.36	102.98
412.55	133.41
412.74	110.01
412.93	133.41
413.12	107.66
413.31	107.66
413.50	149.79
413.69	124.05
413.88	138.09
414.07	93.62
414.26	79.58
414.45	70.22
414.64	170.86
414.83	112.35
415.02	74.90
415.22	184.90
415.41	173.20
415.60	227.03
415.79	86.60
415.98	159.16
416.17	121.71
416.36	142.77
416.55	124.05
416.74	194.26
416.93	159.16
417.12	102.98
417.31	149.79
417.50	154.48
417.69	166.18
417.88	81.92
418.07	119.37
418.26	161.50
418.45	84.26
418.64	168.52
418.83	98.30
419.02	166.18
419.21	126.39
419.39	112.35
419.58	147.45
419.77	23.41
419.96	145.11
420.15	191.92
420.34	124.05
420.53	156.82
420.72	135.75
420.91	128.73
421.10	154.48
421.29	126.39
421.48	154.48
421.67	112.35
421.86	107.66
422.05	102.98
422.24	95.96
422.43	112.35
422.61	121.71
422.80	107.66
422.99	102.98
423.18	131.07
423.37	145.11
423.56	98.30
423.75	138.09
423.94	140.43
424.13	58.51
424.32	98.30
424.50	145.11
424.69	152.13
424.88	138.09
425.07	126.39
425.26	114.69
425.45	117.03
425.64	95.96
425.83	198.95
426.01	168.52
426.20	100.64
426.39	124.05
426.58	117.03
426.77	121.71
426.96	119.37
427.15	156.82
427.33	81.92
427.52	124.05
427.71	100.64
427.90	220.01
428.09	74.90
428.28	102.98
428.46	149.79
428.65	149.79
428.84	124.05
429.03	142.77
429.22	124.05
429.40	77.24
429.59	107.66
429.78	194.26
429.97	182.56
430.16	98.30
430.34	124.05
430.53	117.03
430.72	72.56
430.91	98.30
431.10	93.62
431.28	74.90
431.47	159.16
431.66	194.26
431.85	100.64
432.03	63.19
432.22	184.90
432.41	112.35
432.60	140.43
432.79	9.36
432.97	112.35
433.16	74.90
433.35	98.30
433.54	95.96
433.72	147.45
433.91	145.11
434.10	88.94
434.28	91.28
434.47	159.16
434.66	196.60
434.85	170.86
435.03	135.75
435.22	276.18
435.41	379.17
435.59	355.76
435.78	271.50
435.97	168.52
436.16	180.22
436.34	121.71
436.53	105.32
436.72	182.56
436.90	161.50
437.09	63.19
437.28	86.60
437.46	79.58
437.65	140.43
437.84	173.20
438.02	86.60
438.21	215.33
438.40	142.77
438.58	107.66
438.77	177.88
438.96	142.77
439.14	152.13
439.33	166.18
439.52	133.41
439.70	145.11
439.89	112.35
440.08	175.54
440.26	18.72
440.45	210.65
440.63	107.66
440.82	93.62
441.01	117.03
441.19	79.58
441.38	133.41
441.57	84.26
441.75	236.39
441.94	147.45
442.12	119.37
442.31	138.09
442.50	131.07
442.68	166.18
442.87	79.58
443.05	117.03
443.24	126.39
443.43	154.48
443.61	215.33
443.80	191.92
443.98	107.66
444.17	152.13
444.35	138.09
444.54	119.37
444.73	170.86
444.91	140.43
445.10	138.09
445.28	147.45
445.47	124.05
445.65	187.24
445.84	196.60
446.02	110.01
446.21	124.05
446.39	88.94
446.58	205.97
446.77	138.09
446.95	128.73
447.14	273.84
447.32	145.11
447.51	95.96
447.69	126.39
447.88	140.43
448.06	175.54
448.25	147.45
448.43	133.41
448.62	79.58
448.80	147.45
448.99	191.92
449.17	74.90
449.36	166.18
449.54	161.50
449.73	79.58
449.91	189.58
450.10	161.50
450.28	205.97
450.46	217.67
450.65	135.75
450.83	156.82
451.02	196.60
451.20	133.41
451.39	93.62
451.57	196.60
451.76	128.73
451.94	98.30
452.13	173.20
452.31	142.77
452.49	135.75
452.68	95.96
452.86	105.32
453.05	168.52
453.23	201.29
453.42	149.79
453.60	196.60
453.78	128.73
453.97	131.07
454.15	145.11
454.34	152.13
454.52	131.07
454.70	138.09
454.89	145.11
455.07	98.30
455.26	156.82
455.44	175.54
455.62	161.50
455.81	138.09
455.99	142.77
456.17	166.18
456.36	170.86
456.54	128.73
456.73	161.50
456.91	128.73
457.09	208.31
457.28	180.22
457.46	147.45
457.64	212.99
457.83	114.69
458.01	84.26
458.19	205.97
458.38	93.62
458.56	159.16
458.74	91.28
458.93	142.77
459.11	140.43
459.29	173.20
459.48	182.56
459.66	110.01
459.84	212.99
460.03	187.24
460.21	124.05
460.39	163.84
460.57	140.43
460.76	196.60
460.94	191.92
461.12	212.99
461.31	194.26
461.49	142.77
461.67	88.94
461.85	126.39
462.04	168.52
462.22	587.47
462.40	205.97
462.59	154.48
462.77	110.01
462.95	168.52
463.13	124.05
463.32	107.66
463.50	196.60
463.68	210.65
463.86	156.82
464.05	140.43
464.23	110.01
464.41	170.86
464.59	124.05
464.78	126.39
464.96	154.48
465.14	131.07
465.32	117.03
465.50	147.45
465.69	166.18
465.87	191.92
466.05	156.82
466.23	138.09
466.41	215.33
466.60	102.98
466.78	152.13
466.96	180.22
467.14	119.37
467.32	187.24
467.51	91.28
467.69	149.79
467.87	262.14
468.05	170.86
468.23	117.03
468.41	220.01
468.60	147.45
468.78	208.31
468.96	229.37
469.14	156.82
469.32	110.01
469.50	159.16
469.69	189.58
469.87	142.77
470.05	114.69
470.23	145.11
470.41	222.35
470.59	65.54
470.77	154.48
470.95	224.69
471.14	187.24
471.32	142.77
471.50	170.86
471.68	88.94
471.86	105.32
472.04	189.58
472.22	217.67
472.40	166.18
472.58	142.77
472.77	107.66
472.95	131.07
473.13	276.18
473.31	166.18
473.49	91.28
473.67	117.03
473.85	117.03
474.03	173.20
474.21	119.37
474.39	142.77
474.57	222.35
474.75	180.22
474.93	124.05
475.12	79.58
475.30	210.65
475.48	124.05
475.66	91.28
475.84	170.86
476.02	126.39
476.20	159.16
476.38	142.77
476.56	191.92
476.74	107.66
476.92	163.84
477.10	161.50
477.28	128.73
477.46	191.92
477.64	182.56
477.82	149.79
478.00	173.20
478.18	133.41
478.36	173.20
478.54	124.05
478.72	187.24
478.90	121.71
479.08	217.67
479.26	173.20
479.44	168.52
479.62	121.71
479.80	86.60
479.98	117.03
480.16	142.77
480.34	184.90
480.52	166.18
480.70	121.71
480.88	126.39
481.06	128.73
481.24	189.58
481.41	227.03
481.59	152.13
481.77	198.95
481.95	126.39
482.13	217.67
482.31	128.73
482.49	163.84
482.67	140.43
482.85	112.35
483.03	168.52
483.21	126.39
483.39	107.66
483.57	156.82
483.74	194.26
483.92	149.79
484.10	117.03
484.28	166.18
484.46	217.67
484.64	154.48
484.82	229.37
485.00	180.22
485.18	168.52
485.35	201.29
485.53	208.31
485.71	229.37
485.89	124.05
486.07	238.73
486.25	259.80
486.43	138.09
486.61	161.50
486.78	161.50
486.96	264.48
487.14	177.88
487.32	128.73
487.50	191.92
487.68	220.01
487.85	138.09
488.03	175.54
488.21	217.67
488.39	259.80
488.57	220.01
488.75	236.39
488.92	545.34
489.10	220.01
489.28	212.99
489.46	149.79
489.64	227.03
489.81	215.33
489.99	208.31
490.17	255.12
490.35	276.18
490.53	166.18
490.70	159.16
490.88	215.33
491.06	208.31
491.24	217.67
491.41	245.76
491.59	257.46
491.77	154.48
491.95	191.92
492.13	163.84
492.30	161.50
492.48	168.52
492.66	196.60
492.84	236.39
493.01	264.48
493.19	271.50
493.37	257.46
493.54	161.50
493.72	215.33
493.90	196.60
494.08	159.16
494.25	215.33
494.43	156.82
494.61	177.88
494.79	205.97
494.96	156.82
495.14	189.58
495.32	145.11
495.49	203.63
495.67	170.86
495.85	229.37
496.02	227.03
496.20	198.95
496.38	269.16
496.55	196.60
496.73	229.37
496.91	208.31
497.09	234.05
497.26	168.52
497.44	184.90
497.62	248.10
497.79	182.56
497.97	175.54
498.14	212.99
498.32	191.92
498.50	241.08
498.67	184.90
498.85	191.92
499.03	236.39
499.20	168.52
499.38	234.05
499.56	222.35
499.73	212.99
499.91	142.77
500.08	238.73
500.26	250.44
500.44	187.24
500.61	191.92
500.79	170.86
500.97	215.33
501.14	84.26
501.32	145.11
501.49	198.95
501.67	220.01
501.84	217.67
502.02	163.84
502.20	208.31
502.37	215.33
502.55	229.37
502.72	191.92
502.90	203.63
503.07	191.92
503.25	212.99
503.43	220.01
503.60	166.18
503.78	175.54
503.95	196.60
504.13	135.75
504.30	191.92
504.48	203.63
504.65	231.71
504.83	163.84
505.01	107.66
505.18	236.39
505.36	107.66
505.53	107.66
505.71	161.50
505.88	229.37
506.06	196.60
506.23	201.29
506.41	227.03
506.58	187.24
506.76	117.03
506.93	168.52
507.11	198.95
507.28	180.22
507.46	168.52
507.63	177.88
507.81	201.29
507.98	166.18
508.16	210.65
508.33	168.52
508.50	107.66
508.68	201.29
508.85	156.82
509.03	245.76
509.20	198.95
509.38	177.88
509.55	210.65
509.73	189.58
509.90	175.54
510.08	285.55
510.25	196.60
510.42	224.69
510.60	110.01
510.77	168.52
510.95	191.92
511.12	163.84
511.30	220.01
511.47	182.56
511.64	252.78
511.82	170.86
511.99	154.48
512.17	198.95
512.34	194.26
512.51	194.26
512.69	152.13
512.86	238.73
513.04	138.09
513.21	182.56
513.38	184.90
513.56	177.88
513.73	145.11
513.90	194.26
514.08	145.11
514.25	196.60
514.43	175.54
514.60	191.92
514.77	208.31
514.95	248.10
515.12	224.69
515.29	191.92
515.47	231.71
515.64	142.77
515.81	147.45
515.99	166.18
516.16	163.84
516.33	287.89
516.51	243.42
516.68	170.86
516.85	131.07
517.03	135.75
517.20	255.12
517.37	191.92
517.54	201.29
517.72	187.24
517.89	175.54
518.06	110.01
518.24	131.07
518.41	224.69
518.58	205.97
518.75	201.29
518.93	196.60
519.10	205.97
519.27	231.71
519.45	224.69
519.62	215.33
519.79	177.88
519.96	133.41
520.14	173.20
520.31	191.92
520.48	241.08
520.65	222.35
520.83	149.79
521.00	271.50
521.17	156.82
521.34	222.35
521.52	133.41
521.69	149.79
521.86	196.60
522.03	161.50
522.20	131.07
522.38	175.54
522.55	203.63
522.72	128.73
522.89	248.10
523.07	170.86
523.24	154.48
523.41	131.07
523.58	119.37
523.75	191.92
523.92	222.35
524.10	180.22
524.27	215.33
524.44	203.63
524.61	222.35
524.78	126.39
524.96	191.92
525.13	252.78
525.30	189.58
525.47	196.60
525.64	182.56
525.81	184.90
525.98	173.20
526.16	159.16
526.33	182.56
526.50	201.29
526.67	212.99
526.84	184.90
527.01	182.56
527.18	252.78
527.36	161.50
527.53	217.67
527.70	196.60
527.87	154.48
528.04	271.50
528.21	212.99
528.38	264.48
528.55	182.56
528.72	203.63
528.89	259.80
529.07	210.65
529.24	241.08
529.41	250.44
529.58	121.71
529.75	187.24
529.92	105.32
530.09	208.31
530.26	238.73
530.43	217.67
530.60	175.54
530.77	203.63
530.94	231.71
531.11	234.05
531.28	231.71
531.46	133.41
531.63	203.63
531.80	231.71
531.97	241.08
532.14	222.35
532.31	196.60
532.48	161.50
532.65	128.73
532.82	182.56
532.99	212.99
533.16	231.71
533.33	259.80
533.50	245.76
533.67	201.29
533.84	248.10
534.01	227.03
534.18	222.35
534.35	194.26
534.52	177.88
534.69	166.18
534.86	217.67
535.03	236.39
535.20	184.90
535.37	205.97
535.54	259.80
535.71	119.37
535.88	163.84
536.05	259.80
536.22	205.97
536.38	217.67
536.55	163.84
536.72	220.01
536.89	133.41
537.06	220.01
537.23	252.78
537.40	180.22
537.57	201.29
537.74	241.08
537.91	264.48
538.08	231.71
538.25	212.99
538.42	203.63
538.59	264.48
538.75	294.91
538.92	278.52
539.09	252.78
539.26	294.91
539.43	252.78
539.60	248.10
539.77	227.03
539.94	304.27
540.11	315.97
540.28	299.59
540.44	255.12
540.61	322.99
540.78	330.02
540.95	332.36
541.12	423.64
541.29	400.23
541.46	461.09
541.62	512.58
541.79	365.12
541.96	440.02
542.13	503.22
542.30	358.10
542.47	486.83
542.63	397.89
542.80	470.45
542.97	428.32
543.14	407.25
543.31	421.30
543.48	411.93
543.64	355.76
543.81	365.12
543.98	444.70
544.15	360.44
544.32	367.46
544.48	379.17
544.65	348.74
544.82	388.53
544.99	325.33
545.16	463.43
545.32	386.19
545.49	685.78
545.66	777.06
545.83	793.44
546.00	664.71
546.16	543.00
546.33	411.93
546.50	416.62
546.67	360.44
546.83	346.40
547.00	306.61
547.17	344.06
547.34	271.50
547.50	287.89
547.67	297.25
547.84	283.20
548.00	292.57
548.17	273.84
548.34	290.23
548.51	386.19
548.67	325.33
548.84	292.57
549.01	257.46
549.18	346.40
549.34	278.52
549.51	264.48
549.68	220.01
549.84	318.31
550.01	210.65
550.18	411.93
550.34	322.99
550.51	266.82
550.68	332.36
550.84	287.89
551.01	243.42
551.18	248.10
551.34	220.01
551.51	224.69
551.68	297.25
551.84	243.42
552.01	175.54
552.18	166.18
552.34	222.35
552.51	276.18
552.68	245.76
552.84	220.01
553.01	287.89
553.18	234.05
553.34	259.80
553.51	224.69
553.67	248.10
553.84	332.36
554.01	217.67
554.17	262.14
554.34	166.18
554.51	257.46
554.67	250.44
554.84	252.78
555.00	154.48
555.17	297.25
555.33	234.05
555.50	208.31
555.67	250.44
555.83	159.16
556.00	252.78
556.16	390.87
556.33	187.24
556.50	241.08
556.66	201.29
556.83	152.13
556.99	175.54
557.16	189.58
557.32	220.01
557.49	203.63
557.65	184.90
557.82	231.71
557.98	203.63
558.15	203.63
558.32	264.48
558.48	187.24
558.65	138.09
558.81	241.08
558.98	217.67
559.14	278.52
559.31	159.16
559.47	217.67
559.64	184.90
559.80	187.24
559.97	205.97
560.13	269.16
560.30	201.29
560.46	217.67
560.63	163.84
560.79	187.24
560.96	138.09
561.12	187.24
561.29	227.03
561.45	187.24
561.61	170.86
561.78	294.91
561.94	210.65
562.11	222.35
562.27	180.22
562.44	114.69
562.60	196.60
562.77	229.37
562.93	250.44
563.10	191.92
563.26	262.14
563.42	280.86
563.59	173.20
563.75	133.41
563.92	234.05
564.08	154.48
564.24	234.05
564.41	243.42
564.57	250.44
564.74	131.07
564.90	152.13
565.07	161.50
565.23	198.95
565.39	177.88
565.56	205.97
565.72	208.31
565.88	149.79
566.05	241.08
566.21	184.90
566.38	236.39
566.54	180.22
566.70	166.18
566.87	222.35
567.03	166.18
567.19	98.30
567.36	222.35
567.52	133.41
567.68	189.58
567.85	203.63
568.01	238.73
568.17	168.52
568.34	163.84
568.50	161.50
568.66	205.97
568.83	273.84
568.99	250.44
569.15	245.76
569.32	147.45
569.48	220.01
569.64	142.77
569.81	234.05
569.97	145.11
570.13	173.20
570.30	163.84
570.46	154.48
570.62	159.16
570.78	231.71
570.95	119.37
571.11	196.60
571.27	299.59
571.43	149.79
571.60	234.05
571.76	152.13
571.92	177.88
572.09	140.43
572.25	203.63
572.41	168.52
572.57	163.84
572.74	234.05
572.90	220.01
573.06	212.99
573.22	154.48
573.38	182.56
573.55	238.73
573.71	201.29
573.87	238.73
574.03	220.01
574.20	138.09
574.36	201.29
574.52	203.63
574.68	184.90
574.84	205.97
575.01	241.08
575.17	236.39
575.33	128.73
575.49	196.60
575.65	187.24
575.82	140.43
575.98	184.90
576.14	184.90
576.30	187.24
576.46	292.57
576.62	320.65
576.79	238.73
576.95	311.29
577.11	248.10
577.27	220.01
577.43	236.39
577.59	304.27
577.75	196.60
577.92	203.63
578.08	191.92
578.24	166.18
578.40	264.48
578.56	273.84
578.72	330.02
578.88	376.83
579.04	238.73
579.21	248.10
579.37	255.12
579.53	283.20
579.69	212.99
579.85	238.73
580.01	201.29
580.17	145.11
580.33	212.99
580.49	224.69
580.65	184.90
580.82	205.97
580.98	198.95
581.14	215.33
581.30	315.97
581.46	198.95
581.62	297.25
581.78	217.67
581.94	248.10
582.10	168.52
582.26	231.71
582.42	156.82
582.58	210.65
582.74	229.37
582.90	224.69
583.06	248.10
583.22	203.63
583.38	191.92
583.54	212.99
583.70	362.78
583.86	231.71
584.02	271.50
584.18	306.61
584.34	388.53
584.50	264.48
584.66	182.56
584.82	201.29
584.98	262.14
585.14	241.08
585.30	285.55
585.46	191.92
585.62	222.35
585.78	163.84
585.94	255.12
586.10	138.09
586.26	257.46
586.42	241.08
586.58	243.42
586.74	339.38
586.90	341.72
587.06	327.68
587.22	222.35
587.38	346.40
587.54	241.08
587.70	220.01
587.86	269.16
588.02	231.71
588.18	88.94
588.34	149.79
588.49	198.95
588.65	234.05
588.81	243.42
588.97	238.73
589.13	191.92
589.29	152.13
589.45	196.60
589.61	156.82
589.77	170.86
589.93	161.50
590.08	184.90
590.24	187.24
590.40	234.05
590.56	234.05
590.72	189.58
590.88	227.03
591.04	161.50
591.20	264.48
591.35	269.16
591.51	203.63
591.67	224.69
591.83	203.63
591.99	259.80
592.15	196.60
592.31	182.56
592.46	194.26
592.62	276.18
592.78	231.71
592.94	255.12
593.10	215.33
593.26	205.97
593.41	187.24
593.57	271.50
593.73	163.84
593.89	227.03
594.05	255.12
594.20	124.05
594.36	224.69
594.52	198.95
594.68	159.16
594.84	191.92
594.99	238.73
595.15	175.54
595.31	180.22
595.47	255.12
595.62	203.63
595.78	184.90
595.94	189.58
596.10	201.29
596.25	255.12
596.41	222.35
596.57	203.63
596.73	215.33
596.88	191.92
597.04	243.42
597.20	170.86
597.36	201.29
597.51	189.58
597.67	220.01
597.83	198.95
597.99	250.44
598.14	241.08
598.30	198.95
598.46	262.14
598.61	224.69
598.77	264.48
598.93	128.73
599.09	163.84
599.24	243.42
599.40	191.92
599.56	222.35
599.71	220.01
599.87	236.39
600.03	145.11
600.18	182.56
600.34	220.01
600.50	217.67
600.65	234.05
600.81	255.12
600.97	191.92
601.12	182.56
601.28	196.60
601.44	154.48
601.59	236.39
601.75	194.26
601.91	166.18
602.06	131.07
602.22	234.05
602.37	191.92
602.53	241.08
602.69	145.11
602.84	149.79
603.00	182.56
603.16	142.77
603.31	231.71
603.47	177.88
603.62	124.05
603.78	168.52
603.94	224.69
604.09	149.79
604.25	229.37
604.40	191.92
604.56	159.16
604.71	149.79
604.87	180.22
605.03	180.22
605.18	205.97
605.34	201.29
605.49	189.58
605.65	173.20
605.80	208.31
605.96	229.37
606.12	140.43
606.27	234.05
606.43	175.54
606.58	245.76
606.74	234.05
606.89	166.18
607.05	229.37
607.20	222.35
607.36	250.44
607.51	149.79
607.67	128.73
607.82	212.99
607.98	276.18
608.13	220.01
608.29	231.71
608.44	224.69
608.60	194.26
608.75	243.42
608.91	224.69
609.06	248.10
609.22	320.65
609.37	252.78
609.53	231.71
609.68	252.78
609.84	292.57
609.99	409.59
610.15	470.45
610.30	374.49
610.46	437.68
610.61	615.56
610.76	692.80
610.92	763.01
611.07	795.78
611.23	926.85
611.38	734.93
611.54	671.73
611.69	603.86
611.84	538.32
612.00	472.79
612.15	451.72
612.31	376.83
612.46	341.72
612.62	355.76
612.77	372.15
612.92	320.65
613.08	416.62
613.23	341.72
613.39	341.72
613.54	348.74
613.69	355.76
613.85	320.65
614.00	299.59
614.15	337.04
614.31	313.63
614.46	327.68
614.62	264.48
614.77	330.02
614.92	308.95
615.08	273.84
615.23	297.25
615.38	297.25
615.54	262.14
615.69	215.33
615.84	238.73
616.00	229.37
616.15	220.01
616.30	194.26
616.46	234.05
616.61	257.46
616.76	238.73
616.92	299.59
617.07	135.75
617.22	177.88
617.37	168.52
617.53	227.03
617.68	222.35
617.83	180.22
617.99	198.95
618.14	266.82
618.29	231.71
618.45	229.37
618.60	229.37
618.75	236.39
618.90	196.60
619.06	220.01
619.21	243.42
619.36	250.44
619.51	184.90
619.67	191.92
619.82	224.69
619.97	224.69
620.12	241.08
620.28	182.56
620.43	201.29
620.58	276.18
620.73	280.86
620.89	255.12
621.04	252.78
621.19	236.39
621.34	198.95
621.49	140.43
621.65	159.16
621.80	154.48
621.95	196.60
622.10	196.60
622.25	205.97
622.41	262.14
622.56	224.69
622.71	227.03
622.86	187.24
623.01	210.65
623.16	224.69
623.32	135.75
623.47	182.56
623.62	159.16
623.77	184.90
623.92	154.48
624.07	203.63
624.23	203.63
624.38	238.73
624.53	208.31
624.68	245.76
624.83	184.90
624.98	224.69
625.13	159.16
625.29	205.97
625.44	184.90
625.59	194.26
625.74	250.44
625.89	168.52
626.04	156.82
626.19	215.33
626.34	220.01
626.49	182.56
626.65	236.39
626.80	245.76
626.95	203.63
627.10	201.29
627.25	154.48
627.40	121.71
627.55	290.23
627.70	173.20
627.85	170.86
628.00	252.78
628.15	182.56
628.30	152.13
628.45	201.29
628.60	203.63
628.76	224.69
628.91	215.33
629.06	203.63
629.21	231.71
629.36	184.90
629.51	175.54
629.66	271.50
629.81	212.99
629.96	217.67
630.11	203.63
630.26	231.71
630.41	156.82
630.56	248.10
630.71	173.20
630.86	292.57
631.01	203.63
631.16	234.05
631.31	269.16
631.46	234.05
631.61	161.50
631.76	212.99
631.91	205.97
632.06	191.92
632.21	217.67
632.36	208.31
632.51	121.71
632.66	131.07
632.81	142.77
632.96	194.26
633.10	175.54
633.25	231.71
633.40	175.54
633.55	173.20
633.70	98.30
633.85	177.88
634.00	184.90
634.15	250.44
634.30	182.56
634.45	229.37
634.60	175.54
634.75	152.13
634.90	86.60
635.05	205.97
635.19	236.39
635.34	140.43
635.49	149.79
635.64	145.11
635.79	175.54
635.94	142.77
636.09	210.65
636.24	98.30
636.39	135.75
636.53	203.63
636.68	102.98
636.83	107.66
636.98	248.10
637.13	227.03
637.28	114.69
637.43	163.84
637.57	163.84
637.72	243.42
637.87	187.24
638.02	140.43
638.17	198.95
638.32	189.58
638.46	131.07
638.61	152.13
638.76	133.41
638.91	191.92
639.06	145.11
639.20	210.65
639.35	138.09
639.50	184.90
639.65	248.10
639.80	142.77
639.94	173.20
640.09	208.31
640.24	175.54
640.39	238.73
640.54	91.28
640.68	201.29
640.83	236.39
640.98	117.03
641.13	203.63
641.27	119.37
641.42	191.92
641.57	196.60
641.72	187.24
641.86	100.64
642.01	140.43
642.16	191.92
642.31	117.03
642.45	147.45
642.60	201.29
642.75	168.52
642.90	215.33
643.04	102.98
643.19	67.88
643.34	238.73
643.48	131.07
643.63	163.84
643.78	191.92
643.93	173.20
644.07	140.43
644.22	110.01
644.37	198.95
644.51	147.45
644.66	191.92
644.81	119.37
644.95	168.52
645.10	166.18
645.25	194.26
645.39	173.20
645.54	95.96
645.69	142.77
645.83	128.73
645.98	180.22
646.13	180.22
646.27	283.20
646.42	138.09
646.57	159.16
646.71	126.39
646.86	163.84
647.00	140.43
647.15	196.60
647.30	86.60
647.44	95.96
647.59	140.43
647.74	142.77
647.88	243.42
648.03	117.03
648.17	51.49
648.32	126.39
648.47	187.24
648.61	124.05
648.76	100.64
648.90	138.09
649.05	135.75
649.20	212.99
649.34	142.77
649.49	72.56
649.63	166.18
649.78	166.18
649.92	145.11
650.07	180.22
650.21	88.94
650.36	229.37
650.51	140.43
650.65	224.69
650.80	170.86
650.94	119.37
651.09	217.67
651.23	166.18
651.38	159.16
651.52	107.66
651.67	189.58
651.81	184.90
651.96	156.82
652.10	152.13
652.25	142.77
652.39	189.58
652.54	212.99
652.68	154.48
652.83	191.92
652.97	44.47
653.12	154.48
653.26	159.16
653.41	175.54
653.55	140.43
653.70	91.28
653.84	58.51
653.99	124.05
654.13	194.26
654.27	107.66
654.42	217.67
654.56	152.13
654.71	255.12
654.85	210.65
655.00	182.56
655.14	161.50
655.29	74.90
655.43	107.66
655.57	124.05
655.72	138.09
655.86	156.82
656.01	154.48
656.15	121.71
656.30	152.13
656.44	156.82
656.58	170.86
656.73	245.76
656.87	152.13
657.01	191.92
657.16	187.24
657.30	205.97
657.45	220.01
657.59	208.31
657.73	100.64
657.88	114.69
658.02	252.78
658.16	161.50
658.31	107.66
658.45	187.24
658.60	145.11
658.74	163.84
658.88	110.01
659.03	168.52
659.17	198.95
659.31	152.13
659.46	152.13
659.60	152.13
659.74	210.65
659.89	142.77
660.03	133.41
660.17	170.86
660.32	184.90
660.46	121.71
660.60	224.69
660.74	212.99
660.89	114.69
661.03	112.35
661.17	37.45
661.32	107.66
661.46	117.03
661.60	128.73
661.74	177.88
661.89	203.63
662.03	210.65
662.17	184.90
662.31	156.82
662.46	145.11
662.60	194.26
662.74	152.13
662.88	156.82
663.03	126.39
663.17	149.79
663.31	126.39
663.45	112.35
663.60	177.88
663.74	119.37
663.88	152.13
664.02	152.13
664.17	210.65
664.31	135.75
664.45	189.58
664.59	198.95
664.73	173.20
664.88	182.56
665.02	156.82
665.16	147.45
665.30	182.56
665.44	255.12
665.59	131.07
665.73	140.43
665.87	119.37
666.01	149.79
666.15	173.20
666.29	126.39
666.44	161.50
666.58	297.25
666.72	168.52
666.86	149.79
667.00	168.52
667.14	203.63
667.28	152.13
667.43	191.92
667.57	170.86
667.71	187.24
667.85	194.26
667.99	110.01
668.13	30.43
668.27	98.30
668.41	128.73
668.56	184.90
668.70	152.13
668.84	124.05
668.98	194.26
669.12	180.22
669.26	161.50
669.40	217.67
669.54	102.98
669.68	142.77
669.82	170.86
669.96	131.07
670.10	145.11
670.25	145.11
670.39	191.92
670.53	161.50
670.67	154.48
670.81	72.56
670.95	138.09
671.09	166.18
671.23	156.82
671.37	128.73
671.51	84.26
671.65	187.24
671.79	110.01
671.93	147.45
672.07	182.56
672.21	161.50
672.35	67.88
672.49	147.45
672.63	131.07
672.77	91.28
672.91	126.39
673.05	117.03
673.19	241.08
673.33	168.52
673.47	196.60
673.61	145.11
673.75	184.90
673.89	142.77
674.03	149.79
674.17	149.79
674.31	154.48
674.45	126.39
674.59	187.24
674.73	145.11
674.87	191.92
675.01	187.24
675.15	98.30
675.29	131.07
675.43	182.56
675.56	252.78
675.70	205.97
675.84	180.22
675.98	117.03
676.12	124.05
676.26	98.30
676.40	86.60
676.54	110.01
676.68	163.84
676.82	142.77
676.96	140.43
677.10	161.50
677.23	135.75
677.37	152.13
677.51	105.32
677.65	149.79
677.79	128.73
677.93	128.73
678.07	131.07
678.21	110.01
678.34	156.82
678.48	114.69
678.62	133.41
678.76	107.66
678.90	145.11
679.04	105.32
679.18	93.62
679.31	102.98
679.45	203.63
679.59	133.41
679.73	180.22
679.87	145.11
680.00	114.69
680.14	110.01
680.28	198.95
680.42	170.86
680.56	149.79
680.70	86.60
680.83	189.58
680.97	77.24
681.11	210.65
681.25	114.69
681.39	105.32
681.52	177.88
681.66	119.37
681.80	170.86
681.94	112.35
682.07	156.82
682.21	180.22
682.35	53.83
682.49	100.64
682.62	102.98
682.76	163.84
682.90	112.35
683.04	70.22
683.17	105.32
683.31	142.77
683.45	156.82
683.59	182.56
683.72	131.07
683.86	173.20
684.00	95.96
684.13	112.35
684.27	145.11
684.41	107.66
684.55	135.75
684.68	177.88
684.82	119.37
684.96	86.60
685.09	163.84
685.23	114.69
685.37	100.64
685.50	138.09
685.64	126.39
685.78	79.58
685.91	222.35
686.05	161.50
686.19	168.52
686.32	175.54
686.46	142.77
686.60	112.35
686.73	264.48
686.87	140.43
687.01	91.28
687.14	126.39
687.28	107.66
687.42	163.84
687.55	189.58
687.69	100.64
687.82	67.88
687.96	135.75
688.10	140.43
688.23	117.03
688.37	138.09
688.50	203.63
688.64	117.03
688.78	119.37
688.91	42.13
689.05	100.64
689.18	191.92
689.32	133.41
689.46	44.47
689.59	119.37
689.73	138.09
689.86	98.30
690.00	84.26
690.13	131.07
690.27	110.01
690.41	182.56
690.54	182.56
690.68	131.07
690.81	147.45
690.95	98.30
691.08	135.75
691.22	175.54
691.35	135.75
691.49	112.35
691.62	107.66
691.76	117.03
691.89	166.18
692.03	93.62
692.16	135.75
692.30	114.69
692.43	154.48
692.57	114.69
692.70	107.66
692.84	119.37
692.97	170.86
693.11	88.94
693.24	0.00
693.38	159.16
693.51	81.92
693.65	56.17
693.78	102.98
693.92	14.04
694.05	121.71
694.19	65.54
694.32	161.50
694.45	95.96
694.59	135.75
694.72	110.01
694.86	131.07
694.99	142.77
695.13	93.62
695.26	166.18
695.39	154.48
695.53	159.16
695.66	119.37
695.80	170.86
695.93	173.20
696.07	105.32
696.20	145.11
696.33	95.96
696.47	156.82
696.60	147.45
696.73	140.43
696.87	128.73
697.00	175.54
697.14	79.58
697.27	138.09
697.40	189.58
697.54	91.28
697.67	140.43
697.80	140.43
697.94	177.88
698.07	88.94
698.21	70.22
698.34	159.16
698.47	100.64
698.61	91.28
698.74	133.41
698.87	142.77
699.01	88.94
699.14	93.62
699.27	128.73
699.40	194.26
699.54	42.13
699.67	145.11
699.80	126.39
699.94	131.07
700.07	152.13
700.20	135.75
700.34	119.37
700.47	84.26
700.60	121.71
700.73	124.05
700.87	126.39
701.00	86.60
701.13	91.28
701.26	100.64
701.40	154.48
701.53	110.01
701.66	124.05
701.79	177.88
701.93	121.71
702.06	149.79
702.19	42.13
702.32	154.48
702.46	119.37
702.59	149.79
702.72	100.64
702.85	110.01
702.99	161.50
703.12	133.41
703.25	163.84
703.38	149.79
703.51	194.26
703.65	77.24
703.78	100.64
703.91	95.96
704.04	138.09
704.17	135.75
704.31	112.35
704.44	88.94
704.57	156.82
704.70	154.48
704.83	184.90
704.96	138.09
705.10	121.71
705.23	121.71
>>>>>End Processed Spectral Data<<<<<
