SpectraSuite Data File
++++++++++++++++++++++++++++++++++++
Date: Fri Oct 04 11:42:10 GMT-05:00 2013
User: price-jones
Dark Spectrum Present: No
Reference Spectrum Present: No
Number of Sampled Component Spectra: 1
Spectrometers: USB2+H05261
Integration Time (usec): 100000 (USB2+H05261)
Spectra Averaged: 1 (USB2+H05261)
Boxcar Smoothing: 0 (USB2+H05261)
Correct for Electrical Dark: No (USB2+H05261)
Strobe/Lamp Enabled: No (USB2+H05261)
Correct for Detector Non-linearity: No (USB2+H05261)
Correct for Stray Light: No (USB2+H05261)
Number of Pixels in Processed Spectrum: 2048
>>>>>Begin Processed Spectral Data<<<<<
365.73	60.85
365.92	60.85
366.12	60.85
366.32	0.00
366.52	0.00
366.72	0.00
366.91	0.00
367.11	0.00
367.31	0.00
367.51	0.00
367.70	0.00
367.90	0.00
368.10	0.00
368.30	28.09
368.49	0.00
368.69	0.00
368.89	28.09
369.09	0.00
369.28	0.00
369.48	0.00
369.68	0.00
369.87	0.00
370.07	0.00
370.27	14.04
370.47	0.00
370.66	11.70
370.86	95.96
371.06	112.35
371.25	142.77
371.45	37.45
371.65	95.96
371.84	9.36
372.04	102.98
372.24	70.22
372.44	105.32
372.63	72.56
372.83	152.13
373.03	110.01
373.22	88.94
373.42	93.62
373.62	35.11
373.81	95.96
374.01	156.82
374.21	128.73
374.40	175.54
374.60	119.37
374.79	56.17
374.99	100.64
375.19	154.48
375.38	128.73
375.58	77.24
375.78	121.71
375.97	74.90
376.17	140.43
376.37	147.45
376.56	170.86
376.76	107.66
376.95	91.28
377.15	135.75
377.35	161.50
377.54	77.24
377.74	124.05
377.93	102.98
378.13	95.96
378.33	11.70
378.52	142.77
378.72	91.28
378.91	112.35
379.11	112.35
379.31	95.96
379.50	42.13
379.70	95.96
379.89	147.45
380.09	67.88
380.28	2.34
380.48	63.19
380.68	51.49
380.87	51.49
381.07	46.81
381.26	56.17
381.46	74.90
381.65	86.60
381.85	145.11
382.04	65.54
382.24	102.98
382.43	93.62
382.63	175.54
382.83	42.13
383.02	100.64
383.22	173.20
383.41	135.75
383.61	112.35
383.80	138.09
384.00	128.73
384.19	173.20
384.39	114.69
384.58	121.71
384.78	119.37
384.97	88.94
385.17	102.98
385.36	112.35
385.56	44.47
385.75	135.75
385.95	72.56
386.14	128.73
386.34	114.69
386.53	70.22
386.72	35.11
386.92	142.77
387.11	133.41
387.31	147.45
387.50	91.28
387.70	70.22
387.89	121.71
388.09	37.45
388.28	114.69
388.48	128.73
388.67	74.90
388.86	95.96
389.06	81.92
389.25	81.92
389.45	135.75
389.64	74.90
389.84	121.71
390.03	95.96
390.22	77.24
390.42	121.71
390.61	110.01
390.81	81.92
391.00	107.66
391.19	128.73
391.39	145.11
391.58	154.48
391.78	135.75
391.97	170.86
392.16	84.26
392.36	105.32
392.55	170.86
392.75	121.71
392.94	93.62
393.13	88.94
393.33	142.77
393.52	77.24
393.71	208.31
393.91	126.39
394.10	117.03
394.29	100.64
394.49	65.54
394.68	128.73
394.88	72.56
395.07	135.75
395.26	145.11
395.46	133.41
395.65	159.16
395.84	70.22
396.04	154.48
396.23	65.54
396.42	117.03
396.62	201.29
396.81	79.58
397.00	70.22
397.19	166.18
397.39	131.07
397.58	161.50
397.77	119.37
397.97	95.96
398.16	93.62
398.35	149.79
398.55	58.51
398.74	25.75
398.93	74.90
399.12	124.05
399.32	84.26
399.51	135.75
399.70	142.77
399.90	114.69
400.09	124.05
400.28	161.50
400.47	208.31
400.67	152.13
400.86	112.35
401.05	156.82
401.24	95.96
401.44	124.05
401.63	126.39
401.82	110.01
402.01	81.92
402.21	14.04
402.40	102.98
402.59	182.56
402.78	107.66
402.97	93.62
403.17	159.16
403.36	67.88
403.55	191.92
403.74	119.37
403.93	88.94
404.13	159.16
404.32	203.63
404.51	227.03
404.70	234.05
404.89	154.48
405.09	107.66
405.28	140.43
405.47	117.03
405.66	131.07
405.85	91.28
406.05	86.60
406.24	128.73
406.43	107.66
406.62	121.71
406.81	105.32
407.00	112.35
407.20	100.64
407.39	152.13
407.58	63.19
407.77	138.09
407.96	222.35
408.15	187.24
408.34	147.45
408.54	156.82
408.73	117.03
408.92	126.39
409.11	166.18
409.30	114.69
409.49	133.41
409.68	74.90
409.87	114.69
410.07	152.13
410.26	84.26
410.45	84.26
410.64	128.73
410.83	124.05
411.02	117.03
411.21	163.84
411.40	86.60
411.59	133.41
411.78	110.01
411.98	145.11
412.17	35.11
412.36	100.64
412.55	177.88
412.74	128.73
412.93	189.58
413.12	184.90
413.31	105.32
413.50	84.26
413.69	86.60
413.88	147.45
414.07	126.39
414.26	121.71
414.45	98.30
414.64	128.73
414.83	147.45
415.02	142.77
415.22	140.43
415.41	133.41
415.60	147.45
415.79	74.90
415.98	114.69
416.17	170.86
416.36	170.86
416.55	88.94
416.74	124.05
416.93	74.90
417.12	93.62
417.31	133.41
417.50	95.96
417.69	184.90
417.88	142.77
418.07	133.41
418.26	56.17
418.45	168.52
418.64	98.30
418.83	128.73
419.02	152.13
419.21	138.09
419.39	117.03
419.58	102.98
419.77	105.32
419.96	156.82
420.15	196.60
420.34	100.64
420.53	126.39
420.72	173.20
420.91	159.16
421.10	100.64
421.29	74.90
421.48	154.48
421.67	170.86
421.86	184.90
422.05	114.69
422.24	93.62
422.43	156.82
422.61	100.64
422.80	105.32
422.99	112.35
423.18	173.20
423.37	98.30
423.56	98.30
423.75	107.66
423.94	196.60
424.13	140.43
424.32	79.58
424.50	93.62
424.69	102.98
424.88	142.77
425.07	74.90
425.26	142.77
425.45	161.50
425.64	166.18
425.83	126.39
426.01	191.92
426.20	105.32
426.39	56.17
426.58	60.85
426.77	184.90
426.96	131.07
427.15	117.03
427.33	86.60
427.52	114.69
427.71	156.82
427.90	154.48
428.09	102.98
428.28	135.75
428.46	114.69
428.65	112.35
428.84	119.37
429.03	175.54
429.22	124.05
429.40	84.26
429.59	154.48
429.78	189.58
429.97	170.86
430.16	138.09
430.34	128.73
430.53	95.96
430.72	245.76
430.91	170.86
431.10	133.41
431.28	182.56
431.47	156.82
431.66	128.73
431.85	70.22
432.03	138.09
432.22	238.73
432.41	79.58
432.60	138.09
432.79	147.45
432.97	114.69
433.16	187.24
433.35	145.11
433.54	110.01
433.72	189.58
433.91	154.48
434.10	93.62
434.28	135.75
434.47	107.66
434.66	170.86
434.85	187.24
435.03	229.37
435.22	411.93
435.41	557.05
435.59	540.66
435.78	437.68
435.97	231.71
436.16	182.56
436.34	147.45
436.53	124.05
436.72	212.99
436.90	187.24
437.09	114.69
437.28	161.50
437.46	138.09
437.65	147.45
437.84	152.13
438.02	133.41
438.21	152.13
438.40	154.48
438.58	140.43
438.77	191.92
438.96	212.99
439.14	88.94
439.33	114.69
439.52	161.50
439.70	138.09
439.89	121.71
440.08	198.95
440.26	145.11
440.45	175.54
440.63	161.50
440.82	77.24
441.01	166.18
441.19	95.96
441.38	98.30
441.57	175.54
441.75	180.22
441.94	184.90
442.12	131.07
442.31	161.50
442.50	154.48
442.68	255.12
442.87	105.32
443.05	124.05
443.24	100.64
443.43	163.84
443.61	180.22
443.80	175.54
443.98	95.96
444.17	93.62
444.35	138.09
444.54	182.56
444.73	156.82
444.91	163.84
445.10	159.16
445.28	180.22
445.47	168.52
445.65	126.39
445.84	126.39
446.02	166.18
446.21	107.66
446.39	170.86
446.58	138.09
446.77	161.50
446.95	198.95
447.14	166.18
447.32	175.54
447.51	95.96
447.69	191.92
447.88	114.69
448.06	156.82
448.25	152.13
448.43	84.26
448.62	56.17
448.80	145.11
448.99	110.01
449.17	168.52
449.36	234.05
449.54	212.99
449.73	170.86
449.91	128.73
450.10	159.16
450.28	238.73
450.46	170.86
450.65	184.90
450.83	194.26
451.02	84.26
451.20	154.48
451.39	128.73
451.57	114.69
451.76	184.90
451.94	173.20
452.13	133.41
452.31	180.22
452.49	161.50
452.68	248.10
452.86	67.88
453.05	234.05
453.23	128.73
453.42	95.96
453.60	67.88
453.78	220.01
453.97	156.82
454.15	135.75
454.34	100.64
454.52	110.01
454.70	198.95
454.89	259.80
455.07	110.01
455.26	152.13
455.44	98.30
455.62	100.64
455.81	173.20
455.99	126.39
456.17	114.69
456.36	140.43
456.54	124.05
456.73	93.62
456.91	180.22
457.09	177.88
457.28	215.33
457.46	149.79
457.64	147.45
457.83	110.01
458.01	168.52
458.19	131.07
458.38	184.90
458.56	220.01
458.74	175.54
458.93	201.29
459.11	224.69
459.29	163.84
459.48	177.88
459.66	215.33
459.84	229.37
460.03	287.89
460.21	168.52
460.39	154.48
460.57	154.48
460.76	133.41
460.94	107.66
461.12	257.46
461.31	154.48
461.49	163.84
461.67	121.71
461.85	163.84
462.04	140.43
462.22	657.69
462.40	196.60
462.59	161.50
462.77	114.69
462.95	194.26
463.13	117.03
463.32	182.56
463.50	149.79
463.68	149.79
463.86	147.45
464.05	231.71
464.23	145.11
464.41	212.99
464.59	93.62
464.78	201.29
464.96	110.01
465.14	105.32
465.32	161.50
465.50	114.69
465.69	131.07
465.87	147.45
466.05	138.09
466.23	161.50
466.41	252.78
466.60	173.20
466.78	173.20
466.96	126.39
467.14	170.86
467.32	224.69
467.51	142.77
467.69	203.63
467.87	154.48
468.05	91.28
468.23	166.18
468.41	220.01
468.60	105.32
468.78	112.35
468.96	187.24
469.14	184.90
469.32	152.13
469.50	91.28
469.69	138.09
469.87	170.86
470.05	194.26
470.23	152.13
470.41	147.45
470.59	201.29
470.77	189.58
470.95	166.18
471.14	191.92
471.32	191.92
471.50	166.18
471.68	149.79
471.86	196.60
472.04	154.48
472.22	154.48
472.40	77.24
472.58	142.77
472.77	170.86
472.95	163.84
473.13	114.69
473.31	222.35
473.49	138.09
473.67	177.88
473.85	180.22
474.03	212.99
474.21	149.79
474.39	227.03
474.57	205.97
474.75	182.56
474.93	102.98
475.12	220.01
475.30	156.82
475.48	208.31
475.66	187.24
475.84	163.84
476.02	135.75
476.20	154.48
476.38	205.97
476.56	220.01
476.74	175.54
476.92	140.43
477.10	161.50
477.28	194.26
477.46	145.11
477.64	166.18
477.82	210.65
478.00	166.18
478.18	156.82
478.36	189.58
478.54	114.69
478.72	152.13
478.90	191.92
479.08	140.43
479.26	102.98
479.44	217.67
479.62	159.16
479.80	128.73
479.98	114.69
480.16	161.50
480.34	173.20
480.52	180.22
480.70	234.05
480.88	159.16
481.06	110.01
481.24	177.88
481.41	117.03
481.59	166.18
481.77	166.18
481.95	241.08
482.13	210.65
482.31	201.29
482.49	194.26
482.67	189.58
482.85	163.84
483.03	241.08
483.21	241.08
483.39	215.33
483.57	173.20
483.74	210.65
483.92	142.77
484.10	203.63
484.28	224.69
484.46	238.73
484.64	166.18
484.82	149.79
485.00	201.29
485.18	208.31
485.35	173.20
485.53	203.63
485.71	231.71
485.89	159.16
486.07	159.16
486.25	257.46
486.43	241.08
486.61	168.52
486.78	205.97
486.96	182.56
487.14	201.29
487.32	166.18
487.50	208.31
487.68	280.86
487.85	175.54
488.03	210.65
488.21	269.16
488.39	238.73
488.57	243.42
488.75	170.86
488.92	517.26
489.10	283.20
489.28	220.01
489.46	215.33
489.64	191.92
489.81	241.08
489.99	166.18
490.17	203.63
490.35	280.86
490.53	280.86
490.70	170.86
490.88	264.48
491.06	201.29
491.24	287.89
491.41	203.63
491.59	224.69
491.77	142.77
491.95	234.05
492.13	203.63
492.30	205.97
492.48	297.25
492.66	238.73
492.84	180.22
493.01	203.63
493.19	182.56
493.37	334.70
493.54	278.52
493.72	234.05
493.90	163.84
494.08	252.78
494.25	198.95
494.43	257.46
494.61	194.26
494.79	147.45
494.96	168.52
495.14	180.22
495.32	198.95
495.49	234.05
495.67	224.69
495.85	229.37
496.02	161.50
496.20	194.26
496.38	278.52
496.55	191.92
496.73	231.71
496.91	243.42
497.09	194.26
497.26	194.26
497.44	262.14
497.62	231.71
497.79	131.07
497.97	245.76
498.14	227.03
498.32	210.65
498.50	168.52
498.67	229.37
498.85	173.20
499.03	222.35
499.20	114.69
499.38	227.03
499.56	208.31
499.73	266.82
499.91	196.60
500.08	217.67
500.26	215.33
500.44	191.92
500.61	194.26
500.79	163.84
500.97	250.44
501.14	210.65
501.32	203.63
501.49	248.10
501.67	177.88
501.84	241.08
502.02	173.20
502.20	243.42
502.37	194.26
502.55	170.86
502.72	159.16
502.90	241.08
503.07	177.88
503.25	271.50
503.43	173.20
503.60	121.71
503.78	198.95
503.95	241.08
504.13	159.16
504.30	212.99
504.48	201.29
504.65	184.90
504.83	229.37
505.01	205.97
505.18	173.20
505.36	212.99
505.53	243.42
505.71	215.33
505.88	229.37
506.06	191.92
506.23	163.84
506.41	201.29
506.58	180.22
506.76	140.43
506.93	231.71
507.11	191.92
507.28	203.63
507.46	147.45
507.63	168.52
507.81	227.03
507.98	212.99
508.16	198.95
508.33	203.63
508.50	191.92
508.68	203.63
508.85	201.29
509.03	217.67
509.20	145.11
509.38	210.65
509.55	222.35
509.73	208.31
509.90	252.78
510.08	166.18
510.25	252.78
510.42	168.52
510.60	168.52
510.77	177.88
510.95	138.09
511.12	175.54
511.30	252.78
511.47	259.80
511.64	234.05
511.82	238.73
511.99	105.32
512.17	166.18
512.34	184.90
512.51	187.24
512.69	175.54
512.86	285.55
513.04	88.94
513.21	210.65
513.38	149.79
513.56	135.75
513.73	168.52
513.90	196.60
514.08	203.63
514.25	180.22
514.43	264.48
514.60	147.45
514.77	168.52
514.95	210.65
515.12	117.03
515.29	229.37
515.47	154.48
515.64	285.55
515.81	175.54
515.99	196.60
516.16	191.92
516.33	201.29
516.51	180.22
516.68	156.82
516.85	191.92
517.03	215.33
517.20	269.16
517.37	196.60
517.54	229.37
517.72	248.10
517.89	163.84
518.06	156.82
518.24	241.08
518.41	299.59
518.58	217.67
518.75	217.67
518.93	191.92
519.10	271.50
519.27	234.05
519.45	212.99
519.62	168.52
519.79	278.52
519.96	152.13
520.14	168.52
520.31	252.78
520.48	220.01
520.65	229.37
520.83	166.18
521.00	287.89
521.17	131.07
521.34	259.80
521.52	182.56
521.69	180.22
521.86	196.60
522.03	273.84
522.20	175.54
522.38	243.42
522.55	201.29
522.72	220.01
522.89	248.10
523.07	283.20
523.24	205.97
523.41	215.33
523.58	156.82
523.75	196.60
523.92	215.33
524.10	191.92
524.27	210.65
524.44	126.39
524.61	227.03
524.78	231.71
524.96	315.97
525.13	189.58
525.30	264.48
525.47	264.48
525.64	173.20
525.81	243.42
525.98	194.26
526.16	182.56
526.33	177.88
526.50	175.54
526.67	119.37
526.84	121.71
527.01	88.94
527.18	250.44
527.36	189.58
527.53	229.37
527.70	299.59
527.87	278.52
528.04	217.67
528.21	215.33
528.38	205.97
528.55	234.05
528.72	224.69
528.89	224.69
529.07	210.65
529.24	248.10
529.41	252.78
529.58	257.46
529.75	196.60
529.92	212.99
530.09	205.97
530.26	231.71
530.43	229.37
530.60	182.56
530.77	234.05
530.94	227.03
531.11	264.48
531.28	217.67
531.46	257.46
531.63	280.86
531.80	205.97
531.97	245.76
532.14	250.44
532.31	229.37
532.48	285.55
532.65	236.39
532.82	222.35
532.99	266.82
533.16	203.63
533.33	243.42
533.50	257.46
533.67	212.99
533.84	280.86
534.01	259.80
534.18	177.88
534.35	255.12
534.52	184.90
534.69	294.91
534.86	264.48
535.03	243.42
535.20	189.58
535.37	189.58
535.54	210.65
535.71	215.33
535.88	191.92
536.05	320.65
536.22	224.69
536.38	215.33
536.55	234.05
536.72	191.92
536.89	215.33
537.06	266.82
537.23	227.03
537.40	297.25
537.57	337.04
537.74	269.16
537.91	266.82
538.08	252.78
538.25	330.02
538.42	266.82
538.59	259.80
538.75	299.59
538.92	301.93
539.09	304.27
539.26	250.44
539.43	348.74
539.60	271.50
539.77	414.27
539.94	355.76
540.11	437.68
540.28	437.68
540.44	463.43
540.61	409.59
540.78	479.81
540.95	489.17
541.12	592.16
541.29	514.92
541.46	650.67
541.62	582.79
541.79	517.26
541.96	533.64
542.13	608.54
542.30	594.50
542.47	510.24
542.63	540.66
542.80	552.37
542.97	550.03
543.14	568.75
543.31	514.92
543.48	606.20
543.64	585.13
543.81	566.41
543.98	540.66
544.15	470.45
544.32	552.37
544.48	503.22
544.65	510.24
544.82	533.64
544.99	550.03
545.16	571.09
545.32	568.75
545.49	819.19
545.66	1179.63
545.83	1242.82
546.00	1048.56
546.16	814.51
546.33	606.20
546.50	573.43
546.67	559.39
546.83	440.02
547.00	344.06
547.17	374.49
547.34	409.59
547.50	304.27
547.67	360.44
547.84	458.74
548.00	435.34
548.17	374.49
548.34	409.59
548.51	416.62
548.67	353.42
548.84	372.15
549.01	395.55
549.18	362.78
549.34	297.25
549.51	381.51
549.68	330.02
549.84	353.42
550.01	327.68
550.18	332.36
550.34	290.23
550.51	294.91
550.68	362.78
550.84	252.78
551.01	362.78
551.18	278.52
551.34	283.20
551.51	304.27
551.68	320.65
551.84	327.68
552.01	229.37
552.18	285.55
552.34	292.57
552.51	278.52
552.68	294.91
552.84	264.48
553.01	231.71
553.18	285.55
553.34	182.56
553.51	201.29
553.67	311.29
553.84	259.80
554.01	245.76
554.17	250.44
554.34	189.58
554.51	257.46
554.67	252.78
554.84	187.24
555.00	266.82
555.17	297.25
555.33	313.63
555.50	306.61
555.67	280.86
555.83	252.78
556.00	227.03
556.16	369.80
556.33	285.55
556.50	259.80
556.66	287.89
556.83	227.03
556.99	175.54
557.16	212.99
557.32	243.42
557.49	217.67
557.65	227.03
557.82	257.46
557.98	156.82
558.15	257.46
558.32	124.05
558.48	112.35
558.65	205.97
558.81	278.52
558.98	189.58
559.14	154.48
559.31	243.42
559.47	224.69
559.64	189.58
559.80	205.97
559.97	248.10
560.13	248.10
560.30	194.26
560.46	198.95
560.63	196.60
560.79	175.54
560.96	224.69
561.12	224.69
561.29	205.97
561.45	266.82
561.61	170.86
561.78	234.05
561.94	170.86
562.11	231.71
562.27	140.43
562.44	161.50
562.60	215.33
562.77	280.86
562.93	285.55
563.10	189.58
563.26	105.32
563.42	255.12
563.59	259.80
563.75	170.86
563.92	285.55
564.08	212.99
564.24	231.71
564.41	299.59
564.57	205.97
564.74	243.42
564.90	262.14
565.07	243.42
565.23	241.08
565.39	205.97
565.56	229.37
565.72	215.33
565.88	248.10
566.05	187.24
566.21	252.78
566.38	294.91
566.54	201.29
566.70	248.10
566.87	196.60
567.03	170.86
567.19	194.26
567.36	236.39
567.52	191.92
567.68	238.73
567.85	175.54
568.01	220.01
568.17	215.33
568.34	196.60
568.50	231.71
568.66	285.55
568.83	212.99
568.99	220.01
569.15	217.67
569.32	259.80
569.48	276.18
569.64	208.31
569.81	245.76
569.97	182.56
570.13	191.92
570.30	170.86
570.46	177.88
570.62	145.11
570.78	175.54
570.95	241.08
571.11	238.73
571.27	210.65
571.43	220.01
571.60	231.71
571.76	145.11
571.92	191.92
572.09	149.79
572.25	212.99
572.41	208.31
572.57	208.31
572.74	292.57
572.90	205.97
573.06	198.95
573.22	259.80
573.38	166.18
573.55	311.29
573.71	194.26
573.87	252.78
574.03	187.24
574.20	177.88
574.36	269.16
574.52	229.37
574.68	224.69
574.84	257.46
575.01	191.92
575.17	168.52
575.33	177.88
575.49	250.44
575.65	220.01
575.82	180.22
575.98	248.10
576.14	220.01
576.30	276.18
576.46	390.87
576.62	374.49
576.79	388.53
576.95	257.46
577.11	308.95
577.27	243.42
577.43	184.90
577.59	238.73
577.75	194.26
577.92	250.44
578.08	227.03
578.24	163.84
578.40	290.23
578.56	348.74
578.72	486.83
578.88	369.80
579.04	397.89
579.21	292.57
579.37	229.37
579.53	227.03
579.69	294.91
579.85	212.99
580.01	318.31
580.17	285.55
580.33	262.14
580.49	346.40
580.65	259.80
580.82	243.42
580.98	264.48
581.14	145.11
581.30	259.80
581.46	255.12
581.62	257.46
581.78	280.86
581.94	285.55
582.10	304.27
582.26	339.38
582.42	313.63
582.58	290.23
582.74	299.59
582.90	285.55
583.06	278.52
583.22	248.10
583.38	217.67
583.54	266.82
583.70	285.55
583.86	327.68
584.02	348.74
584.18	276.18
584.34	222.35
584.50	339.38
584.66	262.14
584.82	224.69
584.98	266.82
585.14	283.20
585.30	299.59
585.46	248.10
585.62	231.71
585.78	252.78
585.94	313.63
586.10	271.50
586.26	238.73
586.42	262.14
586.58	273.84
586.74	440.02
586.90	374.49
587.06	404.91
587.22	313.63
587.38	390.87
587.54	297.25
587.70	372.15
587.86	346.40
588.02	285.55
588.18	297.25
588.34	229.37
588.49	222.35
588.65	264.48
588.81	299.59
588.97	201.29
589.13	229.37
589.29	252.78
589.45	224.69
589.61	217.67
589.77	257.46
589.93	280.86
590.08	257.46
590.24	243.42
590.40	234.05
590.56	280.86
590.72	205.97
590.88	191.92
591.04	262.14
591.20	234.05
591.35	194.26
591.51	224.69
591.67	175.54
591.83	273.84
591.99	217.67
592.15	276.18
592.31	220.01
592.46	280.86
592.62	358.10
592.78	227.03
592.94	238.73
593.10	301.93
593.26	280.86
593.41	252.78
593.57	301.93
593.73	278.52
593.89	241.08
594.05	280.86
594.20	208.31
594.36	212.99
594.52	210.65
594.68	147.45
594.84	212.99
594.99	234.05
595.15	210.65
595.31	231.71
595.47	243.42
595.62	259.80
595.78	252.78
595.94	131.07
596.10	208.31
596.25	234.05
596.41	264.48
596.57	194.26
596.73	191.92
596.88	227.03
597.04	255.12
597.20	149.79
597.36	285.55
597.51	208.31
597.67	173.20
597.83	194.26
597.99	243.42
598.14	203.63
598.30	313.63
598.46	311.29
598.61	217.67
598.77	259.80
598.93	273.84
599.09	229.37
599.24	259.80
599.40	278.52
599.56	287.89
599.71	191.92
599.87	322.99
600.03	278.52
600.18	262.14
600.34	245.76
600.50	222.35
600.65	285.55
600.81	248.10
600.97	194.26
601.12	177.88
601.28	177.88
601.44	224.69
601.59	283.20
601.75	196.60
601.91	236.39
602.06	269.16
602.22	390.87
602.37	292.57
602.53	243.42
602.69	212.99
602.84	231.71
603.00	163.84
603.16	210.65
603.31	229.37
603.47	187.24
603.62	180.22
603.78	262.14
603.94	252.78
604.09	220.01
604.25	273.84
604.40	259.80
604.56	243.42
604.71	212.99
604.87	217.67
605.03	229.37
605.18	283.20
605.34	311.29
605.49	231.71
605.65	182.56
605.80	220.01
605.96	196.60
606.12	217.67
606.27	276.18
606.43	248.10
606.58	259.80
606.74	271.50
606.89	159.16
607.05	241.08
607.20	229.37
607.36	227.03
607.51	224.69
607.67	238.73
607.82	248.10
607.98	322.99
608.13	250.44
608.29	238.73
608.44	294.91
608.60	290.23
608.75	353.42
608.91	339.38
609.06	320.65
609.22	388.53
609.37	322.99
609.53	411.93
609.68	397.89
609.84	461.09
609.99	519.60
610.15	603.86
610.30	608.54
610.46	767.70
610.61	976.00
610.76	1027.50
610.92	1273.25
611.07	1317.72
611.23	1406.66
611.38	1439.43
611.54	1210.06
611.69	957.28
611.84	856.64
612.00	777.06
612.15	622.58
612.31	645.99
612.46	594.50
612.62	561.73
612.77	559.39
612.92	601.52
613.08	507.90
613.23	503.22
613.39	397.89
613.54	470.45
613.69	486.83
613.85	465.77
614.00	472.79
614.15	505.56
614.31	444.70
614.46	477.47
614.62	470.45
614.77	397.89
614.92	376.83
615.08	421.30
615.23	402.57
615.38	463.43
615.54	390.87
615.69	365.12
615.84	346.40
616.00	276.18
616.15	365.12
616.30	351.08
616.46	290.23
616.61	234.05
616.76	322.99
616.92	245.76
617.07	259.80
617.22	250.44
617.37	269.16
617.53	257.46
617.68	222.35
617.83	280.86
617.99	266.82
618.14	337.04
618.29	203.63
618.45	198.95
618.60	248.10
618.75	255.12
618.90	229.37
619.06	243.42
619.21	306.61
619.36	234.05
619.51	205.97
619.67	320.65
619.82	294.91
619.97	264.48
620.12	276.18
620.28	229.37
620.43	271.50
620.58	212.99
620.73	276.18
620.89	273.84
621.04	322.99
621.19	339.38
621.34	229.37
621.49	189.58
621.65	315.97
621.80	257.46
621.95	203.63
622.10	252.78
622.25	262.14
622.41	264.48
622.56	245.76
622.71	299.59
622.86	287.89
623.01	184.90
623.16	278.52
623.32	220.01
623.47	201.29
623.62	252.78
623.77	224.69
623.92	294.91
624.07	227.03
624.23	250.44
624.38	257.46
624.53	290.23
624.68	236.39
624.83	285.55
624.98	163.84
625.13	243.42
625.29	222.35
625.44	252.78
625.59	294.91
625.74	315.97
625.89	243.42
626.04	224.69
626.19	220.01
626.34	259.80
626.49	241.08
626.65	266.82
626.80	266.82
626.95	269.16
627.10	297.25
627.25	210.65
627.40	182.56
627.55	241.08
627.70	245.76
627.85	259.80
628.00	205.97
628.15	292.57
628.30	262.14
628.45	238.73
628.60	245.76
628.76	231.71
628.91	222.35
629.06	220.01
629.21	278.52
629.36	203.63
629.51	238.73
629.66	215.33
629.81	215.33
629.96	217.67
630.11	325.33
630.26	339.38
630.41	273.84
630.56	376.83
630.71	311.29
630.86	322.99
631.01	276.18
631.16	322.99
631.31	250.44
631.46	271.50
631.61	227.03
631.76	248.10
631.91	187.24
632.06	327.68
632.21	264.48
632.36	231.71
632.51	201.29
632.66	243.42
632.81	133.41
632.96	201.29
633.10	196.60
633.25	327.68
633.40	229.37
633.55	156.82
633.70	180.22
633.85	245.76
634.00	280.86
634.15	220.01
634.30	163.84
634.45	128.73
634.60	198.95
634.75	292.57
634.90	170.86
635.05	259.80
635.19	168.52
635.34	227.03
635.49	255.12
635.64	182.56
635.79	173.20
635.94	124.05
636.09	210.65
636.24	238.73
636.39	184.90
636.53	252.78
636.68	163.84
636.83	227.03
636.98	166.18
637.13	173.20
637.28	191.92
637.43	222.35
637.57	224.69
637.72	184.90
637.87	117.03
638.02	191.92
638.17	163.84
638.32	203.63
638.46	175.54
638.61	161.50
638.76	187.24
638.91	156.82
639.06	248.10
639.20	196.60
639.35	105.32
639.50	187.24
639.65	201.29
639.80	170.86
639.94	133.41
640.09	222.35
640.24	241.08
640.39	259.80
640.54	194.26
640.68	194.26
640.83	220.01
640.98	184.90
641.13	220.01
641.27	159.16
641.42	222.35
641.57	220.01
641.72	196.60
641.86	203.63
642.01	210.65
642.16	208.31
642.31	227.03
642.45	170.86
642.60	173.20
642.75	121.71
642.90	168.52
643.04	126.39
643.19	220.01
643.34	182.56
643.48	238.73
643.63	135.75
643.78	220.01
643.93	222.35
644.07	159.16
644.22	170.86
644.37	180.22
644.51	163.84
644.66	212.99
644.81	142.77
644.95	198.95
645.10	224.69
645.25	128.73
645.39	229.37
645.54	177.88
645.69	238.73
645.83	198.95
645.98	205.97
646.13	168.52
646.27	229.37
646.42	241.08
646.57	107.66
646.71	220.01
646.86	149.79
647.00	194.26
647.15	161.50
647.30	135.75
647.44	124.05
647.59	135.75
647.74	154.48
647.88	166.18
648.03	95.96
648.17	205.97
648.32	117.03
648.47	145.11
648.61	124.05
648.76	163.84
648.90	224.69
649.05	142.77
649.20	145.11
649.34	119.37
649.49	107.66
649.63	229.37
649.78	177.88
649.92	182.56
650.07	238.73
650.21	217.67
650.36	201.29
650.51	229.37
650.65	252.78
650.80	180.22
650.94	196.60
651.09	224.69
651.23	191.92
651.38	187.24
651.52	138.09
651.67	224.69
651.81	208.31
651.96	257.46
652.10	184.90
652.25	177.88
652.39	149.79
652.54	177.88
652.68	159.16
652.83	152.13
652.97	217.67
653.12	173.20
653.26	198.95
653.41	215.33
653.55	241.08
653.70	133.41
653.84	149.79
653.99	229.37
654.13	175.54
654.27	131.07
654.42	220.01
654.56	245.76
654.71	142.77
654.85	238.73
655.00	205.97
655.14	91.28
655.29	180.22
655.43	220.01
655.57	168.52
655.72	184.90
655.86	198.95
656.01	210.65
656.15	180.22
656.30	163.84
656.44	170.86
656.58	93.62
656.73	124.05
656.87	161.50
657.01	126.39
657.16	269.16
657.30	210.65
657.45	173.20
657.59	154.48
657.73	220.01
657.88	266.82
658.02	283.20
658.16	133.41
658.31	175.54
658.45	184.90
658.60	140.43
658.74	184.90
658.88	114.69
659.03	182.56
659.17	191.92
659.31	166.18
659.46	159.16
659.60	175.54
659.74	203.63
659.89	138.09
660.03	194.26
660.17	177.88
660.32	243.42
660.46	112.35
660.60	166.18
660.74	177.88
660.89	154.48
661.03	163.84
661.17	117.03
661.32	210.65
661.46	234.05
661.60	208.31
661.74	194.26
661.89	198.95
662.03	177.88
662.17	191.92
662.31	222.35
662.46	170.86
662.60	138.09
662.74	159.16
662.88	182.56
663.03	154.48
663.17	177.88
663.31	140.43
663.45	191.92
663.60	203.63
663.74	154.48
663.88	100.64
664.02	194.26
664.17	147.45
664.31	156.82
664.45	112.35
664.59	126.39
664.73	173.20
664.88	227.03
665.02	182.56
665.16	159.16
665.30	138.09
665.44	156.82
665.59	238.73
665.73	229.37
665.87	201.29
666.01	159.16
666.15	114.69
666.29	149.79
666.44	191.92
666.58	170.86
666.72	147.45
666.86	140.43
667.00	222.35
667.14	241.08
667.28	292.57
667.43	201.29
667.57	201.29
667.71	175.54
667.85	187.24
667.99	220.01
668.13	159.16
668.27	184.90
668.41	220.01
668.56	203.63
668.70	252.78
668.84	140.43
668.98	224.69
669.12	147.45
669.26	161.50
669.40	241.08
669.54	135.75
669.68	231.71
669.82	243.42
669.96	117.03
670.10	168.52
670.25	194.26
670.39	201.29
670.53	81.92
670.67	177.88
670.81	196.60
670.95	187.24
671.09	107.66
671.23	217.67
671.37	241.08
671.51	110.01
671.65	198.95
671.79	170.86
671.93	128.73
672.07	217.67
672.21	140.43
672.35	175.54
672.49	105.32
672.63	175.54
672.77	184.90
672.91	156.82
673.05	170.86
673.19	110.01
673.33	100.64
673.47	149.79
673.61	177.88
673.75	175.54
673.89	241.08
674.03	208.31
674.17	110.01
674.31	114.69
674.45	149.79
674.59	88.94
674.73	163.84
674.87	215.33
675.01	175.54
675.15	224.69
675.29	105.32
675.43	138.09
675.56	229.37
675.70	217.67
675.84	112.35
675.98	203.63
676.12	107.66
676.26	147.45
676.40	119.37
676.54	198.95
676.68	133.41
676.82	224.69
676.96	105.32
677.10	142.77
677.23	77.24
677.37	77.24
677.51	86.60
677.65	201.29
677.79	177.88
677.93	220.01
678.07	175.54
678.21	149.79
678.34	163.84
678.48	220.01
678.62	154.48
678.76	107.66
678.90	135.75
679.04	205.97
679.18	220.01
679.31	107.66
679.45	100.64
679.59	201.29
679.73	124.05
679.87	198.95
680.00	133.41
680.14	88.94
680.28	173.20
680.42	189.58
680.56	177.88
680.70	74.90
680.83	177.88
680.97	203.63
681.11	140.43
681.25	184.90
681.39	135.75
681.52	93.62
681.66	142.77
681.80	222.35
681.94	79.58
682.07	135.75
682.21	154.48
682.35	98.30
682.49	189.58
682.62	194.26
682.76	145.11
682.90	147.45
683.04	131.07
683.17	93.62
683.31	124.05
683.45	215.33
683.59	196.60
683.72	234.05
683.86	154.48
684.00	121.71
684.13	191.92
684.27	191.92
684.41	166.18
684.55	215.33
684.68	142.77
684.82	138.09
684.96	163.84
685.09	159.16
685.23	124.05
685.37	205.97
685.50	177.88
685.64	177.88
685.78	93.62
685.91	119.37
686.05	95.96
686.19	140.43
686.32	156.82
686.46	215.33
686.60	135.75
686.73	212.99
686.87	152.13
687.01	152.13
687.14	102.98
687.28	180.22
687.42	112.35
687.55	138.09
687.69	170.86
687.82	161.50
687.96	147.45
688.10	227.03
688.23	135.75
688.37	145.11
688.50	159.16
688.64	156.82
688.78	124.05
688.91	131.07
689.05	56.17
689.18	142.77
689.32	98.30
689.46	117.03
689.59	187.24
689.73	170.86
689.86	86.60
690.00	147.45
690.13	140.43
690.27	131.07
690.41	117.03
690.54	161.50
690.68	163.84
690.81	138.09
690.95	91.28
691.08	142.77
691.22	93.62
691.35	177.88
691.49	46.81
691.62	56.17
691.76	46.81
691.89	128.73
692.03	205.97
692.16	159.16
692.30	147.45
692.43	140.43
692.57	72.56
692.70	147.45
692.84	70.22
692.97	145.11
693.11	142.77
693.24	154.48
693.38	112.35
693.51	128.73
693.65	135.75
693.78	142.77
693.92	166.18
694.05	107.66
694.19	110.01
694.32	131.07
694.45	135.75
694.59	154.48
694.72	173.20
694.86	140.43
694.99	147.45
695.13	105.32
695.26	107.66
695.39	60.85
695.53	166.18
695.66	201.29
695.80	152.13
695.93	110.01
696.07	135.75
696.20	74.90
696.33	152.13
696.47	110.01
696.60	147.45
696.73	154.48
696.87	119.37
697.00	142.77
697.14	126.39
697.27	180.22
697.40	105.32
697.54	135.75
697.67	138.09
697.80	128.73
697.94	93.62
698.07	159.16
698.21	107.66
698.34	105.32
698.47	98.30
698.61	124.05
698.74	201.29
698.87	119.37
699.01	177.88
699.14	79.58
699.27	189.58
699.40	264.48
699.54	154.48
699.67	105.32
699.80	142.77
699.94	147.45
700.07	154.48
700.20	86.60
700.34	166.18
700.47	149.79
700.60	112.35
700.73	91.28
700.87	152.13
701.00	154.48
701.13	105.32
701.26	135.75
701.40	161.50
701.53	65.54
701.66	131.07
701.79	128.73
701.93	149.79
702.06	168.52
702.19	114.69
702.32	98.30
702.46	133.41
702.59	163.84
702.72	77.24
702.85	98.30
702.99	126.39
703.12	154.48
703.25	224.69
703.38	117.03
703.51	121.71
703.65	163.84
703.78	163.84
703.91	142.77
704.04	163.84
704.17	74.90
704.31	93.62
704.44	138.09
704.57	42.13
704.70	180.22
704.83	42.13
704.96	102.98
705.10	128.73
705.23	67.88
>>>>>End Processed Spectral Data<<<<<
