SpectraSuite Data File
++++++++++++++++++++++++++++++++++++
Date: Fri Oct 04 11:42:18 GMT-05:00 2013
User: price-jones
Dark Spectrum Present: No
Reference Spectrum Present: No
Number of Sampled Component Spectra: 1
Spectrometers: USB2+H05261
Integration Time (usec): 100000 (USB2+H05261)
Spectra Averaged: 1 (USB2+H05261)
Boxcar Smoothing: 0 (USB2+H05261)
Correct for Electrical Dark: No (USB2+H05261)
Strobe/Lamp Enabled: No (USB2+H05261)
Correct for Detector Non-linearity: No (USB2+H05261)
Correct for Stray Light: No (USB2+H05261)
Number of Pixels in Processed Spectrum: 2048
>>>>>Begin Processed Spectral Data<<<<<
365.73	117.03
365.92	117.03
366.12	117.03
366.32	0.00
366.52	0.00
366.72	0.00
366.91	0.00
367.11	0.00
367.31	0.00
367.51	0.00
367.70	0.00
367.90	0.00
368.10	0.00
368.30	0.00
368.49	0.00
368.69	0.00
368.89	0.00
369.09	0.00
369.28	2.34
369.48	0.00
369.68	0.00
369.87	0.00
370.07	0.00
370.27	14.04
370.47	0.00
370.66	7.02
370.86	91.28
371.06	93.62
371.25	119.37
371.45	44.47
371.65	93.62
371.84	49.15
372.04	65.54
372.24	70.22
372.44	79.58
372.63	159.16
372.83	175.54
373.03	124.05
373.22	112.35
373.42	142.77
373.62	145.11
373.81	93.62
374.01	166.18
374.21	135.75
374.40	131.07
374.60	91.28
374.79	84.26
374.99	119.37
375.19	135.75
375.38	184.90
375.58	88.94
375.78	163.84
375.97	156.82
376.17	119.37
376.37	135.75
376.56	135.75
376.76	126.39
376.95	149.79
377.15	198.95
377.35	163.84
377.54	140.43
377.74	145.11
377.93	77.24
378.13	114.69
378.33	110.01
378.52	100.64
378.72	163.84
378.91	149.79
379.11	175.54
379.31	105.32
379.50	88.94
379.70	135.75
379.89	147.45
380.09	189.58
380.28	142.77
380.48	140.43
380.68	142.77
380.87	187.24
381.07	135.75
381.26	180.22
381.46	131.07
381.65	152.13
381.85	107.66
382.04	138.09
382.24	77.24
382.43	49.15
382.63	91.28
382.83	163.84
383.02	159.16
383.22	142.77
383.41	102.98
383.61	84.26
383.80	140.43
384.00	60.85
384.19	187.24
384.39	112.35
384.58	154.48
384.78	180.22
384.97	184.90
385.17	184.90
385.36	102.98
385.56	187.24
385.75	95.96
385.95	198.95
386.14	86.60
386.34	124.05
386.53	119.37
386.72	159.16
386.92	124.05
387.11	110.01
387.31	156.82
387.50	67.88
387.70	161.50
387.89	138.09
388.09	191.92
388.28	145.11
388.48	126.39
388.67	121.71
388.86	152.13
389.06	124.05
389.25	77.24
389.45	107.66
389.64	86.60
389.84	161.50
390.03	191.92
390.22	154.48
390.42	175.54
390.61	102.98
390.81	93.62
391.00	102.98
391.19	210.65
391.39	14.04
391.58	131.07
391.78	63.19
391.97	124.05
392.16	119.37
392.36	135.75
392.55	142.77
392.75	117.03
392.94	145.11
393.13	126.39
393.33	95.96
393.52	65.54
393.71	147.45
393.91	93.62
394.10	138.09
394.29	234.05
394.49	102.98
394.68	91.28
394.88	189.58
395.07	182.56
395.26	102.98
395.46	110.01
395.65	149.79
395.84	114.69
396.04	203.63
396.23	175.54
396.42	93.62
396.62	128.73
396.81	86.60
397.00	133.41
397.19	98.30
397.39	126.39
397.58	135.75
397.77	166.18
397.97	112.35
398.16	102.98
398.35	156.82
398.55	117.03
398.74	121.71
398.93	138.09
399.12	98.30
399.32	229.37
399.51	91.28
399.70	156.82
399.90	114.69
400.09	166.18
400.28	229.37
400.47	156.82
400.67	182.56
400.86	222.35
401.05	121.71
401.24	135.75
401.44	203.63
401.63	187.24
401.82	189.58
402.01	156.82
402.21	95.96
402.40	159.16
402.59	145.11
402.78	245.76
402.97	252.78
403.17	231.71
403.36	273.84
403.55	308.95
403.74	620.24
403.93	1928.60
404.13	5083.64
404.32	7971.86
404.51	7576.31
404.70	4912.78
404.89	1799.87
405.09	561.73
405.28	252.78
405.47	231.71
405.66	252.78
405.85	250.44
406.05	196.60
406.24	210.65
406.43	208.31
406.62	222.35
406.81	306.61
407.00	322.99
407.20	650.67
407.39	1004.09
407.58	1203.04
407.77	861.32
407.96	458.74
408.15	299.59
408.34	222.35
408.54	173.20
408.73	184.90
408.92	170.86
409.11	227.03
409.30	215.33
409.49	173.20
409.68	154.48
409.87	154.48
410.07	248.10
410.26	238.73
410.45	278.52
410.64	245.76
410.83	224.69
411.02	210.65
411.21	280.86
411.40	236.39
411.59	234.05
411.78	182.56
411.98	250.44
412.17	177.88
412.36	180.22
412.55	257.46
412.74	273.84
412.93	278.52
413.12	285.55
413.31	196.60
413.50	191.92
413.69	173.20
413.88	220.01
414.07	283.20
414.26	215.33
414.45	220.01
414.64	217.67
414.83	285.55
415.02	210.65
415.22	222.35
415.41	276.18
415.60	238.73
415.79	266.82
415.98	236.39
416.17	229.37
416.36	313.63
416.55	334.70
416.74	241.08
416.93	224.69
417.12	229.37
417.31	306.61
417.50	250.44
417.69	351.08
417.88	222.35
418.07	184.90
418.26	241.08
418.45	285.55
418.64	341.72
418.83	280.86
419.02	308.95
419.21	280.86
419.39	271.50
419.58	315.97
419.77	280.86
419.96	294.91
420.15	315.97
420.34	257.46
420.53	320.65
420.72	294.91
420.91	304.27
421.10	255.12
421.29	259.80
421.48	362.78
421.67	337.04
421.86	315.97
422.05	276.18
422.24	205.97
422.43	283.20
422.61	283.20
422.80	276.18
422.99	311.29
423.18	229.37
423.37	390.87
423.56	320.65
423.75	280.86
423.94	271.50
424.13	322.99
424.32	304.27
424.50	297.25
424.69	360.44
424.88	334.70
425.07	266.82
425.26	262.14
425.45	374.49
425.64	294.91
425.83	320.65
426.01	337.04
426.20	362.78
426.39	367.46
426.58	372.15
426.77	262.14
426.96	372.15
427.15	351.08
427.33	393.21
427.52	386.19
427.71	372.15
427.90	344.06
428.09	301.93
428.28	374.49
428.46	337.04
428.65	294.91
428.84	306.61
429.03	362.78
429.22	353.42
429.40	322.99
429.59	308.95
429.78	395.55
429.97	355.76
430.16	430.66
430.34	311.29
430.53	395.55
430.72	416.62
430.91	475.13
431.10	461.09
431.28	404.91
431.47	397.89
431.66	507.90
431.85	442.36
432.03	348.74
432.22	538.32
432.41	465.77
432.60	540.66
432.79	428.32
432.97	489.17
433.16	528.96
433.35	557.05
433.54	667.05
433.72	692.80
433.91	739.61
434.10	751.31
434.28	903.45
434.47	1064.94
434.66	1191.33
434.85	1373.89
435.03	3463.99
435.22	12432.93
435.41	30712.51
435.59	39416.96
435.78	27110.43
435.97	12954.87
436.16	5041.51
436.34	1713.27
436.53	1018.13
436.72	791.10
436.90	695.14
437.09	624.92
437.28	521.94
437.46	596.84
437.65	550.03
437.84	468.11
438.02	500.87
438.21	596.84
438.40	500.87
438.58	486.83
438.77	552.37
438.96	475.13
439.14	533.64
439.33	475.13
439.52	477.47
439.70	451.72
439.89	510.24
440.08	533.64
440.26	463.43
440.45	524.28
440.63	491.51
440.82	582.79
441.01	442.36
441.19	535.98
441.38	489.17
441.57	571.09
441.75	524.28
441.94	540.66
442.12	491.51
442.31	486.83
442.50	496.19
442.68	519.60
442.87	564.07
443.05	507.90
443.24	503.22
443.43	510.24
443.61	540.66
443.80	550.03
443.98	505.56
444.17	440.02
444.35	533.64
444.54	550.03
444.73	510.24
444.91	526.62
445.10	472.79
445.28	449.38
445.47	491.51
445.65	458.74
445.84	482.15
446.02	500.87
446.21	580.45
446.39	493.85
446.58	519.60
446.77	454.06
446.95	489.17
447.14	512.58
447.32	519.60
447.51	461.09
447.69	470.45
447.88	493.85
448.06	540.66
448.25	524.28
448.43	447.04
448.62	470.45
448.80	512.58
448.99	500.87
449.17	505.56
449.36	437.68
449.54	528.96
449.73	423.64
449.91	582.79
450.10	578.11
450.28	531.30
450.46	491.51
450.65	514.92
450.83	414.27
451.02	533.64
451.20	489.17
451.39	472.79
451.57	519.60
451.76	435.34
451.94	566.41
452.13	484.49
452.31	528.96
452.49	552.37
452.68	510.24
452.86	552.37
453.05	561.73
453.23	500.87
453.42	519.60
453.60	451.72
453.78	472.79
453.97	519.60
454.15	451.72
454.34	437.68
454.52	564.07
454.70	514.92
454.89	470.45
455.07	430.66
455.26	482.15
455.44	479.81
455.62	514.92
455.81	442.36
455.99	535.98
456.17	425.98
456.36	472.79
456.54	489.17
456.73	505.56
456.91	531.30
457.09	470.45
457.28	533.64
457.46	524.28
457.64	524.28
457.83	433.00
458.01	451.72
458.19	365.12
458.38	468.11
458.56	465.77
458.74	418.96
458.93	437.68
459.11	535.98
459.29	433.00
459.48	510.24
459.66	552.37
459.84	514.92
460.03	482.15
460.21	477.47
460.39	440.02
460.57	456.40
460.76	514.92
460.94	472.79
461.12	500.87
461.31	496.19
461.49	486.83
461.67	442.36
461.85	498.53
462.04	465.77
462.22	571.09
462.40	440.02
462.59	524.28
462.77	519.60
462.95	496.19
463.13	491.51
463.32	585.13
463.50	505.56
463.68	521.94
463.86	379.17
464.05	416.62
464.23	472.79
464.41	550.03
464.59	531.30
464.78	533.64
464.96	498.53
465.14	479.81
465.32	599.18
465.50	521.94
465.69	461.09
465.87	407.25
466.05	524.28
466.23	404.91
466.41	456.40
466.60	557.05
466.78	589.82
466.96	505.56
467.14	540.66
467.32	388.53
467.51	468.11
467.69	440.02
467.87	503.22
468.05	489.17
468.23	475.13
468.41	390.87
468.60	437.68
468.78	465.77
468.96	374.49
469.14	465.77
469.32	442.36
469.50	376.83
469.69	503.22
469.87	447.04
470.05	416.62
470.23	397.89
470.41	365.12
470.59	414.27
470.77	449.38
470.95	388.53
471.14	468.11
471.32	402.57
471.50	552.37
471.68	440.02
471.86	449.38
472.04	416.62
472.22	491.51
472.40	503.22
472.58	496.19
472.77	395.55
472.95	505.56
473.13	533.64
473.31	472.79
473.49	440.02
473.67	491.51
473.85	458.74
474.03	477.47
474.21	416.62
474.39	491.51
474.57	477.47
474.75	465.77
474.93	407.25
475.12	433.00
475.30	454.06
475.48	449.38
475.66	493.85
475.84	430.66
476.02	423.64
476.20	470.45
476.38	451.72
476.56	512.58
476.74	528.96
476.92	430.66
477.10	433.00
477.28	461.09
477.46	351.08
477.64	510.24
477.82	505.56
478.00	535.98
478.18	493.85
478.36	465.77
478.54	461.09
478.72	517.26
478.90	585.13
479.08	493.85
479.26	575.77
479.44	582.79
479.62	624.92
479.80	650.67
479.98	615.56
480.16	615.56
480.34	741.95
480.52	755.99
480.70	753.65
480.88	739.61
481.06	777.06
481.24	891.74
481.41	880.04
481.59	959.62
481.77	919.83
481.95	994.73
482.13	1060.26
482.31	1121.12
482.49	1282.61
482.67	1306.02
482.85	1282.61
483.03	1455.81
483.21	1537.73
483.39	1671.14
483.57	1762.42
483.74	1879.45
483.92	1923.92
484.10	2003.50
484.28	2218.83
484.46	2396.71
484.64	2492.67
484.82	2436.50
485.00	2630.76
485.18	2862.48
485.35	3033.33
485.53	3047.38
485.71	3365.69
485.89	3480.38
486.07	3241.64
486.25	3536.55
486.43	3618.47
486.61	3440.59
486.78	3478.04
486.96	3426.54
487.14	3513.14
487.32	3559.95
487.50	3435.91
487.68	3517.83
487.85	3536.55
488.03	3328.24
488.21	3365.69
488.39	3396.12
488.57	3309.52
488.75	3110.57
488.92	3361.01
489.10	3082.49
489.28	2979.50
489.46	2874.18
489.64	2818.00
489.81	2803.96
489.99	2745.45
490.17	2757.15
490.35	2703.32
490.53	2574.59
490.70	2761.83
490.88	2693.96
491.06	2738.43
491.24	3021.63
491.41	3122.27
491.59	2799.28
491.77	2586.29
491.95	2513.74
492.13	2502.03
492.30	2502.03
492.48	2293.72
492.66	2363.94
492.84	2394.37
493.01	2342.88
493.19	2317.13
493.37	2249.25
493.54	2181.38
493.72	2204.78
493.90	2101.80
494.08	2181.38
494.25	2052.65
494.43	2047.97
494.61	1961.37
494.79	2008.18
494.96	1893.49
495.14	2005.84
495.32	1944.99
495.49	1956.69
495.67	1877.11
495.85	1809.23
496.02	1916.90
496.20	1834.98
496.38	1820.94
496.55	1748.38
496.73	1753.06
496.91	1689.87
497.09	1673.48
497.26	1774.13
497.44	1666.46
497.62	1514.33
497.79	1600.93
497.97	1516.67
498.14	1467.52
498.32	1404.32
498.50	1411.34
498.67	1357.51
498.85	1303.68
499.03	1345.81
499.20	1357.51
499.38	1254.53
499.56	1289.64
499.73	1308.36
499.91	1224.10
500.08	1181.97
500.26	1074.31
500.44	1137.50
500.61	1111.75
500.79	1109.41
500.97	1036.86
501.14	985.37
501.32	980.68
501.49	917.49
501.67	870.68
501.84	931.53
502.02	800.46
502.20	896.43
502.37	800.46
502.55	774.72
502.72	748.97
502.90	849.61
503.07	800.46
503.25	718.54
503.43	737.27
503.60	662.37
503.78	676.41
503.95	697.48
504.13	718.54
504.30	755.99
504.48	592.16
504.65	643.65
504.83	622.58
505.01	596.84
505.18	716.20
505.36	655.35
505.53	552.37
505.71	554.71
505.88	653.01
506.06	552.37
506.23	557.05
506.41	454.06
506.58	601.52
506.76	475.13
506.93	533.64
507.11	543.00
507.28	512.58
507.46	552.37
507.63	521.94
507.81	440.02
507.98	561.73
508.16	489.17
508.33	496.19
508.50	477.47
508.68	514.92
508.85	517.26
509.03	573.43
509.20	627.26
509.38	566.41
509.55	543.00
509.73	540.66
509.90	514.92
510.08	524.28
510.25	477.47
510.42	484.49
510.60	458.74
510.77	428.32
510.95	404.91
511.12	451.72
511.30	489.17
511.47	374.49
511.64	524.28
511.82	416.62
511.99	479.81
512.17	397.89
512.34	416.62
512.51	435.34
512.69	472.79
512.86	395.55
513.04	465.77
513.21	477.47
513.38	440.02
513.56	414.27
513.73	440.02
513.90	463.43
514.08	341.72
514.25	470.45
514.43	390.87
514.60	355.76
514.77	435.34
514.95	393.21
515.12	416.62
515.29	402.57
515.47	416.62
515.64	451.72
515.81	353.42
515.99	386.19
516.16	393.21
516.33	521.94
516.51	351.08
516.68	454.06
516.85	416.62
517.03	388.53
517.20	348.74
517.37	397.89
517.54	416.62
517.72	386.19
517.89	409.59
518.06	337.04
518.24	425.98
518.41	381.51
518.58	390.87
518.75	437.68
518.93	393.21
519.10	327.68
519.27	411.93
519.45	355.76
519.62	404.91
519.79	365.12
519.96	390.87
520.14	346.40
520.31	360.44
520.48	442.36
520.65	435.34
520.83	423.64
521.00	444.70
521.17	344.06
521.34	395.55
521.52	407.25
521.69	320.65
521.86	376.83
522.03	486.83
522.20	418.96
522.38	339.38
522.55	386.19
522.72	327.68
522.89	379.17
523.07	491.51
523.24	355.76
523.41	285.55
523.58	386.19
523.75	416.62
523.92	425.98
524.10	355.76
524.27	461.09
524.44	425.98
524.61	463.43
524.78	388.53
524.96	486.83
525.13	400.23
525.30	423.64
525.47	454.06
525.64	411.93
525.81	468.11
525.98	383.85
526.16	411.93
526.33	411.93
526.50	365.12
526.67	418.96
526.84	463.43
527.01	512.58
527.18	498.53
527.36	489.17
527.53	550.03
527.70	533.64
527.87	533.64
528.04	554.71
528.21	430.66
528.38	547.69
528.55	505.56
528.72	486.83
528.89	533.64
529.07	505.56
529.24	573.43
529.41	575.77
529.58	540.66
529.75	447.04
529.92	538.32
530.09	559.39
530.26	643.65
530.43	496.19
530.60	580.45
530.77	533.64
530.94	554.71
531.11	596.84
531.28	631.94
531.46	718.54
531.63	709.18
531.80	704.50
531.97	704.50
532.14	889.40
532.31	994.73
532.48	1142.18
532.65	1329.42
532.82	1495.60
532.99	1706.25
533.16	2008.18
533.33	2197.76
533.50	2022.22
533.67	1834.98
533.84	1530.71
534.01	1359.85
534.18	1165.59
534.35	1284.95
534.52	1198.35
534.69	1306.02
534.86	1331.76
535.03	1341.13
535.20	1481.56
535.37	1561.14
535.54	1598.59
535.71	1603.27
535.88	1746.04
536.05	1891.15
536.22	1863.07
536.38	2160.31
536.55	2321.81
536.72	2506.71
536.89	2850.77
537.06	3152.70
537.23	3646.55
537.40	4021.04
537.57	4290.20
537.74	4526.60
537.91	4592.13
538.08	4573.41
538.25	4786.40
538.42	4877.68
538.59	4933.85
538.75	5067.26
538.92	5280.25
539.09	5949.64
539.26	6516.05
539.43	7501.42
539.60	8234.00
539.77	9282.56
539.94	10647.10
540.11	11756.51
540.28	12631.87
540.44	14193.01
540.61	15477.96
540.78	17483.80
540.95	21184.19
541.12	25078.84
541.29	28872.85
541.46	30815.49
541.62	30445.69
541.79	28863.49
541.96	27381.93
542.13	24964.15
542.30	23639.41
542.47	22047.85
542.63	20950.14
542.80	20357.98
542.97	19644.12
543.14	19473.26
543.31	19651.14
543.48	19805.61
543.64	20460.96
543.81	20259.68
543.98	20498.41
544.15	20704.38
544.32	20727.78
544.48	20470.33
544.65	20496.07
544.82	19932.00
544.99	20269.04
545.16	20449.26
545.32	21654.64
545.49	32762.82
545.66	55281.11
545.83	64790.71
546.00	62944.03
546.16	49284.66
546.33	35807.86
546.50	26803.82
546.67	20870.56
546.83	18319.37
547.00	17832.54
547.17	16802.71
547.34	16374.39
547.50	15665.21
547.67	15096.46
547.84	14607.28
548.00	13729.58
548.17	13296.58
548.34	12645.91
548.51	12458.67
548.67	12006.95
548.84	11293.08
549.01	10630.71
549.18	10015.15
549.34	9561.09
549.51	9376.19
549.68	9291.93
549.84	8842.54
550.01	8278.47
550.18	7955.48
550.34	7606.74
550.51	7225.23
550.68	6836.70
550.84	6459.88
551.01	6249.23
551.18	5743.67
551.34	5465.15
551.51	5320.04
551.68	5081.30
551.84	4973.64
552.01	4767.67
552.18	4454.04
552.34	4444.68
552.51	4109.98
552.68	4021.04
552.84	3805.71
553.01	3676.98
553.18	3559.95
553.34	3590.38
553.51	3379.73
553.67	3234.62
553.84	3166.74
554.01	3005.25
554.17	2843.75
554.34	2532.46
554.51	2480.97
554.67	2375.64
554.84	2200.10
555.00	2043.29
555.17	2008.18
555.33	1907.54
555.50	1804.55
555.67	1743.70
555.83	1673.48
556.00	1654.76
556.16	1631.35
556.33	1495.60
556.50	1488.58
556.66	1455.81
556.83	1369.21
556.99	1235.80
557.16	1291.98
557.32	1193.67
557.49	1233.46
557.65	1212.40
557.82	1184.31
557.98	1153.88
558.15	1100.05
558.32	1048.56
558.48	1069.62
558.65	933.87
558.81	971.32
558.98	1008.77
559.14	901.11
559.31	887.06
559.47	884.72
559.64	868.34
559.80	987.71
559.97	894.08
560.13	875.36
560.30	917.49
560.46	840.25
560.63	819.19
560.79	763.01
560.96	931.53
561.12	851.96
561.29	877.70
561.45	873.02
561.61	873.02
561.78	858.98
561.94	901.11
562.11	908.13
562.27	875.36
562.44	798.12
562.60	847.27
562.77	833.23
562.93	884.72
563.10	847.27
563.26	748.97
563.42	758.33
563.59	821.53
563.75	727.91
563.92	753.65
564.08	678.76
564.24	751.31
564.41	814.51
564.57	678.76
564.74	695.14
564.90	725.57
565.07	739.61
565.23	772.38
565.39	641.31
565.56	758.33
565.72	720.88
565.88	594.50
566.05	699.82
566.21	660.03
566.38	662.37
566.54	732.59
566.70	727.91
566.87	667.05
567.03	734.93
567.19	650.67
567.36	608.54
567.52	678.76
567.68	681.10
567.85	692.80
568.01	631.94
568.17	692.80
568.34	699.82
568.50	765.36
568.66	613.22
568.83	718.54
568.99	622.58
569.15	674.07
569.32	603.86
569.48	636.63
569.64	554.71
569.81	514.92
569.97	585.13
570.13	580.45
570.30	603.86
570.46	451.72
570.62	496.19
570.78	458.74
570.95	435.34
571.11	491.51
571.27	479.81
571.43	533.64
571.60	517.26
571.76	514.92
571.92	437.68
572.09	468.11
572.25	451.72
572.41	496.19
572.57	535.98
572.74	552.37
572.90	575.77
573.06	498.53
573.22	580.45
573.38	571.09
573.55	559.39
573.71	540.66
573.87	575.77
574.03	636.63
574.20	641.31
574.36	620.24
574.52	521.94
574.68	671.73
574.84	627.26
575.01	685.78
575.17	746.63
575.33	685.78
575.49	814.51
575.65	931.53
575.82	994.73
575.98	1039.20
576.14	1053.24
576.30	2064.35
576.46	6382.64
576.62	12732.51
576.79	16095.86
576.95	11173.72
577.11	6951.39
577.27	4828.53
577.43	3215.90
577.59	2129.89
577.75	1650.08
577.92	1570.50
578.08	1366.87
578.24	1416.02
578.40	2396.71
578.56	5891.13
578.72	11346.92
578.88	14764.10
579.04	10775.83
579.21	6789.89
579.37	4961.94
579.53	3808.05
579.69	3637.19
579.85	4334.67
580.01	5224.08
580.17	5151.52
580.33	4491.49
580.49	3899.33
580.65	3417.18
580.82	3016.95
580.98	2974.82
581.14	2942.05
581.30	3126.96
581.46	3234.62
581.62	3520.17
581.78	3889.97
581.94	4156.79
582.10	4411.91
582.26	4690.43
582.42	4788.74
582.58	4865.97
582.74	5146.84
582.90	5121.09
583.06	5074.28
583.22	5053.22
583.38	5210.03
583.54	5135.14
583.70	5205.35
583.86	5034.49
584.02	5022.79
584.18	4926.83
584.34	4725.54
584.50	4765.33
584.66	4568.73
584.82	4662.35
584.98	4601.49
585.14	4641.28
585.30	4397.87
585.46	4287.86
585.62	4124.02
585.78	4301.90
585.94	4294.88
586.10	4365.10
586.26	4617.88
586.42	5036.83
586.58	6071.35
586.74	7466.31
586.90	8926.80
587.06	10047.92
587.22	10141.54
587.38	9029.79
587.54	7777.60
587.70	6682.23
587.86	5495.58
588.02	4734.90
588.18	4166.15
588.34	3796.35
588.49	3566.98
588.65	3222.92
588.81	3194.83
588.97	3063.76
589.13	2841.41
589.29	2876.52
589.45	2888.22
589.61	2675.23
589.77	2832.05
589.93	2867.16
590.08	2780.56
590.24	2953.76
590.40	3087.17
590.56	3318.88
590.72	3321.22
590.88	3356.33
591.04	3531.87
591.20	3702.73
591.35	3871.25
591.51	3918.06
591.67	4035.08
591.83	4339.35
591.99	4617.88
592.15	5151.52
592.31	5514.30
592.46	6050.28
592.62	6806.28
592.78	6853.09
592.94	7190.13
593.10	7094.16
593.26	6792.23
593.41	6366.26
593.57	5586.86
593.73	4945.55
593.89	4503.19
594.05	4032.74
594.20	3466.33
594.36	3246.32
594.52	3103.55
594.68	2836.73
594.84	2878.86
594.99	2715.02
595.15	2562.89
595.31	2548.84
595.47	2597.99
595.62	2534.80
595.78	2509.05
595.94	2532.46
596.10	2546.50
596.25	2670.55
596.41	2466.92
596.57	2527.78
596.73	2551.18
596.88	2553.52
597.04	2457.56
597.20	2480.97
597.36	2630.76
597.51	2733.75
597.67	2883.54
597.83	2923.33
597.99	3023.97
598.14	3201.85
598.30	3449.95
598.46	3667.62
598.61	3824.44
598.77	3878.27
598.93	4203.60
599.09	4159.13
599.24	4278.50
599.40	4287.86
599.56	4191.90
599.71	4002.32
599.87	3763.58
600.03	3576.34
600.18	3417.18
600.34	3138.66
600.50	2832.05
600.65	2857.79
600.81	2794.60
600.97	2382.67
601.12	2314.79
601.28	2223.51
601.44	2160.31
601.59	2122.87
601.75	1916.90
601.91	1823.28
602.06	1879.45
602.22	1762.42
602.37	1739.02
602.53	1713.27
602.69	1720.29
602.84	1610.29
603.00	1645.40
603.16	1682.85
603.31	1732.00
603.47	1888.81
603.62	1865.41
603.78	1884.13
603.94	1881.79
604.09	1905.20
604.25	2001.16
604.40	1865.41
604.56	2017.54
604.71	1996.48
604.87	2036.27
605.03	2033.93
605.18	2031.58
605.34	2101.80
605.49	2183.72
605.65	2286.70
605.80	2277.34
605.96	2436.50
606.12	2565.23
606.27	2544.16
606.43	2764.17
606.58	2789.92
606.74	2909.29
606.89	3171.43
607.05	3133.98
607.20	3293.13
607.36	3503.78
607.51	3784.65
607.67	4093.60
607.82	4301.90
607.98	4484.47
608.13	4861.29
608.29	5198.33
608.44	5671.12
608.60	6160.29
608.75	6722.02
608.91	7499.08
609.06	8191.88
609.22	9097.66
609.37	9795.14
609.53	11159.67
609.68	12362.71
609.84	14310.04
609.99	16648.23
610.15	20025.62
610.30	24489.03
610.46	30939.54
610.61	39426.32
610.76	49872.14
610.92	56486.49
611.07	59760.90
611.23	61008.40
611.38	59550.25
611.54	56765.01
611.69	51927.13
611.84	45074.04
612.00	37179.41
612.15	31456.80
612.31	27215.75
612.46	24226.89
612.62	22239.77
612.77	21120.99
612.92	19948.39
613.08	19094.09
613.23	18122.77
613.39	17233.36
613.54	16718.45
613.69	16519.50
613.85	16238.64
614.00	16245.66
614.15	15866.49
614.31	15487.32
614.46	15351.57
614.62	14970.07
614.77	14031.51
614.92	13296.58
615.08	12210.57
615.23	11405.43
615.38	10487.94
615.54	9458.10
615.69	8898.72
615.84	7969.52
616.00	7478.01
616.15	7000.54
616.30	6450.52
616.46	6029.22
616.61	5760.06
616.76	5350.46
616.92	5170.24
617.07	4788.74
617.22	4617.88
617.37	4318.29
617.53	4072.53
617.68	4086.58
617.83	3985.93
617.99	3896.99
618.14	3595.06
618.29	3618.47
618.45	3492.08
618.60	3417.18
618.75	3344.63
618.90	3204.19
619.06	3396.12
619.21	3262.71
619.36	3253.34
619.51	3302.50
619.67	3133.98
619.82	3353.99
619.97	3368.03
620.12	3471.01
620.28	3517.83
620.43	3581.02
620.58	3709.75
620.73	3576.34
620.89	3527.19
621.04	3496.76
621.19	3679.32
621.34	3494.42
621.49	3550.59
621.65	3300.16
621.80	3358.67
621.95	3393.78
622.10	3351.65
622.25	3424.20
622.41	3361.01
622.56	3602.08
622.71	3599.74
622.86	3861.88
623.01	3707.41
623.16	3873.59
623.32	3873.59
623.47	3861.88
623.62	3768.26
623.77	3744.86
623.92	3824.44
624.07	3782.31
624.23	3702.73
624.38	3775.28
624.53	3829.12
624.68	3875.93
624.83	3929.76
624.98	3911.04
625.13	3782.31
625.29	4016.36
625.44	3999.98
625.59	3927.42
625.74	4081.89
625.89	4035.08
626.04	3957.85
626.19	3885.29
626.34	3953.16
626.49	4081.89
626.65	3957.85
626.80	3850.18
626.95	3845.50
627.10	3737.84
627.25	3655.92
627.40	3609.11
627.55	3681.66
627.70	3641.87
627.85	3452.29
628.00	3513.14
628.15	3438.25
628.30	3531.87
628.45	3452.29
628.60	3536.55
628.76	3480.38
628.91	3506.12
629.06	3522.51
629.21	3644.21
629.36	3770.60
629.51	3747.20
629.66	3957.85
629.81	4276.16
629.96	4526.60
630.11	5100.03
630.26	5753.04
630.41	6394.34
630.56	6949.05
630.71	7384.39
630.86	7798.66
631.01	7747.17
631.16	7063.74
631.31	6179.01
631.46	5486.22
631.61	4493.83
631.76	3791.67
631.91	3300.16
632.06	2839.07
632.21	2417.77
632.36	2085.42
632.51	1771.79
632.66	1664.12
632.81	1661.78
632.96	1537.73
633.10	1387.94
633.25	1444.11
633.40	1315.38
633.55	1345.81
633.70	1263.89
633.85	1203.04
634.00	1184.31
634.15	1125.80
634.30	1076.65
634.45	1146.86
634.60	1153.88
634.75	987.71
634.90	950.26
635.05	1006.43
635.19	901.11
635.34	922.17
635.49	1025.15
635.64	922.17
635.79	973.66
635.94	940.90
636.09	987.71
636.24	898.77
636.39	837.91
636.53	823.87
636.68	868.34
636.83	800.46
636.98	858.98
637.13	816.85
637.28	851.96
637.43	786.42
637.57	777.06
637.72	746.63
637.87	786.42
638.02	765.36
638.17	767.70
638.32	802.80
638.46	725.57
638.61	772.38
638.76	723.23
638.91	770.04
639.06	702.16
639.20	758.33
639.35	631.94
639.50	660.03
639.65	671.73
639.80	734.93
639.94	678.76
640.09	650.67
640.24	709.18
640.39	674.07
640.54	606.20
640.68	730.25
640.83	676.41
640.98	617.90
641.13	690.46
641.27	678.76
641.42	545.34
641.57	751.31
641.72	753.65
641.86	716.20
642.01	681.10
642.16	683.44
642.31	636.63
642.45	770.04
642.60	692.80
642.75	660.03
642.90	704.50
643.04	641.31
643.19	716.20
643.34	669.39
643.48	676.41
643.63	685.78
643.78	720.88
643.93	727.91
644.07	681.10
644.22	741.95
644.37	674.07
644.51	669.39
644.66	631.94
644.81	657.69
644.95	716.20
645.10	681.10
645.25	645.99
645.39	608.54
645.54	587.47
645.69	692.80
645.83	594.50
645.98	695.14
646.13	620.24
646.27	634.29
646.42	648.33
646.57	608.54
646.71	657.69
646.86	589.82
647.00	601.52
647.15	617.90
647.30	613.22
647.44	657.69
647.59	596.84
647.74	629.60
647.88	608.54
648.03	629.60
648.17	662.37
648.32	624.92
648.47	734.93
648.61	760.67
648.76	692.80
648.90	784.08
649.05	737.27
649.20	774.72
649.34	802.80
649.49	978.34
649.63	1013.45
649.78	1245.16
649.92	1458.15
650.07	1778.81
650.21	1952.01
650.36	2223.51
650.51	2092.44
650.65	2026.90
650.80	1806.89
650.94	1586.88
651.09	1434.75
651.23	1310.70
651.38	1170.27
651.52	1064.94
651.67	917.49
651.81	999.41
651.96	922.17
652.10	840.25
652.25	910.47
652.39	929.19
652.54	957.28
652.68	917.49
652.83	1076.65
652.97	1086.01
653.12	1181.97
653.26	1067.28
653.41	978.34
653.55	943.24
653.70	842.59
653.84	814.51
653.99	725.57
654.13	720.88
654.27	732.59
654.42	603.86
654.56	660.03
654.71	753.65
654.85	699.82
655.00	634.29
655.14	585.13
655.29	557.05
655.43	664.71
655.57	580.45
655.72	585.13
655.86	528.96
656.01	580.45
656.15	552.37
656.30	606.20
656.44	578.11
656.58	599.18
656.73	573.43
656.87	540.66
657.01	660.03
657.16	685.78
657.30	683.44
657.45	685.78
657.59	784.08
657.73	638.97
657.88	741.95
658.02	732.59
658.16	720.88
658.31	730.25
658.45	599.18
658.60	575.77
658.74	634.29
658.88	512.58
659.03	517.26
659.17	521.94
659.31	458.74
659.46	458.74
659.60	423.64
659.74	479.81
659.89	461.09
660.03	512.58
660.17	496.19
660.32	491.51
660.46	454.06
660.60	477.47
660.74	486.83
660.89	514.92
661.03	458.74
661.17	557.05
661.32	482.15
661.46	655.35
661.60	737.27
661.74	880.04
661.89	1062.60
662.03	1170.27
662.17	1149.20
662.31	1373.89
662.46	1336.45
662.60	1198.35
662.74	1048.56
662.88	1060.26
663.03	908.13
663.17	751.31
663.31	786.42
663.45	622.58
663.60	681.10
663.74	711.52
663.88	533.64
664.02	587.47
664.17	512.58
664.31	486.83
664.45	510.24
664.59	440.02
664.73	510.24
664.88	538.32
665.02	493.85
665.16	454.06
665.30	454.06
665.44	381.51
665.59	496.19
665.73	433.00
665.87	475.13
666.01	451.72
666.15	423.64
666.29	437.68
666.44	479.81
666.58	395.55
666.72	491.51
666.86	479.81
667.00	489.17
667.14	418.96
667.28	423.64
667.43	440.02
667.57	477.47
667.71	372.15
667.85	454.06
667.99	442.36
668.13	463.43
668.27	430.66
668.41	458.74
668.56	430.66
668.70	444.70
668.84	409.59
668.98	514.92
669.12	430.66
669.26	447.04
669.40	435.34
669.54	496.19
669.68	423.64
669.82	407.25
669.96	407.25
670.10	454.06
670.25	456.40
670.39	418.96
670.53	433.00
670.67	365.12
670.81	393.21
670.95	447.04
671.09	418.96
671.23	458.74
671.37	423.64
671.51	496.19
671.65	416.62
671.79	360.44
671.93	433.00
672.07	458.74
672.21	402.57
672.35	409.59
672.49	383.85
672.63	362.78
672.77	322.99
672.91	301.93
673.05	393.21
673.19	437.68
673.33	334.70
673.47	435.34
673.61	334.70
673.75	395.55
673.89	304.27
674.03	393.21
674.17	327.68
674.31	280.86
674.45	402.57
674.59	318.31
674.73	372.15
674.87	390.87
675.01	388.53
675.15	327.68
675.29	358.10
675.43	355.76
675.56	449.38
675.70	414.27
675.84	334.70
675.98	341.72
676.12	259.80
676.26	313.63
676.40	301.93
676.54	287.89
676.68	313.63
676.82	374.49
676.96	372.15
677.10	379.17
677.23	337.04
677.37	346.40
677.51	220.01
677.65	444.70
677.79	344.06
677.93	315.97
678.07	339.38
678.21	301.93
678.34	269.16
678.48	315.97
678.62	297.25
678.76	301.93
678.90	320.65
679.04	283.20
679.18	386.19
679.31	325.33
679.45	250.44
679.59	351.08
679.73	341.72
679.87	400.23
680.00	374.49
680.14	400.23
680.28	402.57
680.42	381.51
680.56	444.70
680.70	360.44
680.83	369.80
680.97	339.38
681.11	348.74
681.25	440.02
681.39	376.83
681.52	285.55
681.66	400.23
681.80	320.65
681.94	355.76
682.07	334.70
682.21	346.40
682.35	315.97
682.49	416.62
682.62	383.85
682.76	322.99
682.90	304.27
683.04	376.83
683.17	313.63
683.31	351.08
683.45	315.97
683.59	318.31
683.72	292.57
683.86	315.97
684.00	339.38
684.13	320.65
684.27	339.38
684.41	276.18
684.55	339.38
684.68	285.55
684.82	257.46
684.96	304.27
685.09	330.02
685.23	341.72
685.37	351.08
685.50	393.21
685.64	376.83
685.78	304.27
685.91	325.33
686.05	437.68
686.19	397.89
686.32	355.76
686.46	463.43
686.60	465.77
686.73	608.54
686.87	676.41
687.01	575.77
687.14	645.99
687.28	596.84
687.42	678.76
687.55	662.37
687.69	737.27
687.82	746.63
687.96	711.52
688.10	690.46
688.23	627.26
688.37	767.70
688.50	589.82
688.64	514.92
688.78	465.77
688.91	470.45
689.05	322.99
689.18	264.48
689.32	327.68
689.46	334.70
689.59	339.38
689.73	262.14
689.86	358.10
690.00	297.25
690.13	278.52
690.27	271.50
690.41	287.89
690.54	332.36
690.68	472.79
690.81	334.70
690.95	269.16
691.08	271.50
691.22	264.48
691.35	283.20
691.49	208.31
691.62	147.45
691.76	194.26
691.89	182.56
692.03	126.39
692.16	203.63
692.30	212.99
692.43	215.33
692.57	198.95
692.70	264.48
692.84	266.82
692.97	325.33
693.11	402.57
693.24	409.59
693.38	496.19
693.51	535.98
693.65	582.79
693.78	580.45
693.92	657.69
694.05	533.64
694.19	456.40
694.32	458.74
694.45	360.44
694.59	381.51
694.72	306.61
694.86	257.46
694.99	252.78
695.13	114.69
695.26	250.44
695.39	154.48
695.53	262.14
695.66	238.73
695.80	189.58
695.93	191.92
696.07	154.48
696.20	241.08
696.33	252.78
696.47	231.71
696.60	250.44
696.73	212.99
696.87	245.76
697.00	266.82
697.14	222.35
697.27	210.65
697.40	322.99
697.54	173.20
697.67	187.24
697.80	187.24
697.94	173.20
698.07	182.56
698.21	269.16
698.34	205.97
698.47	168.52
698.61	203.63
698.74	220.01
698.87	168.52
699.01	201.29
699.14	159.16
699.27	224.69
699.40	236.39
699.54	222.35
699.67	175.54
699.80	220.01
699.94	133.41
700.07	168.52
700.20	105.32
700.34	168.52
700.47	156.82
700.60	234.05
700.73	194.26
700.87	84.26
701.00	191.92
701.13	152.13
701.26	205.97
701.40	147.45
701.53	177.88
701.66	215.33
701.79	208.31
701.93	229.37
702.06	198.95
702.19	149.79
702.32	212.99
702.46	264.48
702.59	198.95
702.72	170.86
702.85	205.97
702.99	180.22
703.12	224.69
703.25	243.42
703.38	243.42
703.51	304.27
703.65	203.63
703.78	264.48
703.91	224.69
704.04	308.95
704.17	243.42
704.31	269.16
704.44	320.65
704.57	327.68
704.70	353.42
704.83	285.55
704.96	315.97
705.10	322.99
705.23	290.23
>>>>>End Processed Spectral Data<<<<<
