SpectraSuite Data File
++++++++++++++++++++++++++++++++++++
Date: Fri Oct 04 11:42:07 GMT-05:00 2013
User: price-jones
Dark Spectrum Present: No
Reference Spectrum Present: No
Number of Sampled Component Spectra: 1
Spectrometers: USB2+H05261
Integration Time (usec): 100000 (USB2+H05261)
Spectra Averaged: 1 (USB2+H05261)
Boxcar Smoothing: 0 (USB2+H05261)
Correct for Electrical Dark: No (USB2+H05261)
Strobe/Lamp Enabled: No (USB2+H05261)
Correct for Detector Non-linearity: No (USB2+H05261)
Correct for Stray Light: No (USB2+H05261)
Number of Pixels in Processed Spectrum: 2048
>>>>>Begin Processed Spectral Data<<<<<
365.73	28.09
365.92	28.09
366.12	28.09
366.32	0.00
366.52	0.00
366.72	0.00
366.91	0.00
367.11	0.00
367.31	0.00
367.51	0.00
367.70	0.00
367.90	0.00
368.10	0.00
368.30	0.00
368.49	0.00
368.69	0.00
368.89	0.00
369.09	0.00
369.28	0.00
369.48	0.00
369.68	79.58
369.87	0.00
370.07	32.77
370.27	42.13
370.47	2.34
370.66	16.38
370.86	39.79
371.06	79.58
371.25	133.41
371.45	98.30
371.65	23.41
371.84	63.19
372.04	102.98
372.24	114.69
372.44	42.13
372.63	88.94
372.83	124.05
373.03	147.45
373.22	126.39
373.42	63.19
373.62	60.85
373.81	168.52
374.01	156.82
374.21	121.71
374.40	91.28
374.60	161.50
374.79	133.41
374.99	147.45
375.19	91.28
375.38	112.35
375.58	117.03
375.78	63.19
375.97	170.86
376.17	159.16
376.37	131.07
376.56	110.01
376.76	170.86
376.95	110.01
377.15	170.86
377.35	60.85
377.54	25.75
377.74	124.05
377.93	112.35
378.13	105.32
378.33	131.07
378.52	56.17
378.72	142.77
378.91	114.69
379.11	67.88
379.31	98.30
379.50	124.05
379.70	91.28
379.89	191.92
380.09	138.09
380.28	65.54
380.48	86.60
380.68	77.24
380.87	161.50
381.07	107.66
381.26	72.56
381.46	184.90
381.65	124.05
381.85	147.45
382.04	35.11
382.24	117.03
382.43	135.75
382.63	56.17
382.83	161.50
383.02	159.16
383.22	128.73
383.41	98.30
383.61	114.69
383.80	77.24
384.00	191.92
384.19	37.45
384.39	86.60
384.58	95.96
384.78	84.26
384.97	107.66
385.17	110.01
385.36	95.96
385.56	170.86
385.75	39.79
385.95	107.66
386.14	142.77
386.34	84.26
386.53	35.11
386.72	79.58
386.92	124.05
387.11	142.77
387.31	84.26
387.50	170.86
387.70	81.92
387.89	88.94
388.09	70.22
388.28	119.37
388.48	133.41
388.67	121.71
388.86	135.75
389.06	105.32
389.25	166.18
389.45	133.41
389.64	49.15
389.84	84.26
390.03	147.45
390.22	128.73
390.42	217.67
390.61	121.71
390.81	42.13
391.00	67.88
391.19	161.50
391.39	142.77
391.58	53.83
391.78	77.24
391.97	102.98
392.16	86.60
392.36	77.24
392.55	156.82
392.75	147.45
392.94	28.09
393.13	133.41
393.33	84.26
393.52	135.75
393.71	168.52
393.91	98.30
394.10	65.54
394.29	86.60
394.49	133.41
394.68	145.11
394.88	154.48
395.07	102.98
395.26	119.37
395.46	110.01
395.65	110.01
395.84	95.96
396.04	126.39
396.23	154.48
396.42	4.68
396.62	112.35
396.81	119.37
397.00	81.92
397.19	119.37
397.39	79.58
397.58	107.66
397.77	145.11
397.97	124.05
398.16	98.30
398.35	168.52
398.55	91.28
398.74	95.96
398.93	79.58
399.12	100.64
399.32	147.45
399.51	117.03
399.70	128.73
399.90	121.71
400.09	133.41
400.28	124.05
400.47	133.41
400.67	149.79
400.86	105.32
401.05	142.77
401.24	203.63
401.44	110.01
401.63	168.52
401.82	124.05
402.01	91.28
402.21	212.99
402.40	154.48
402.59	131.07
402.78	79.58
402.97	100.64
403.17	138.09
403.36	81.92
403.55	102.98
403.74	135.75
403.93	107.66
404.13	149.79
404.32	175.54
404.51	184.90
404.70	145.11
404.89	156.82
405.09	210.65
405.28	182.56
405.47	128.73
405.66	124.05
405.85	159.16
406.05	32.77
406.24	205.97
406.43	135.75
406.62	133.41
406.81	196.60
407.00	138.09
407.20	187.24
407.39	142.77
407.58	77.24
407.77	100.64
407.96	182.56
408.15	147.45
408.34	124.05
408.54	88.94
408.73	175.54
408.92	79.58
409.11	98.30
409.30	110.01
409.49	149.79
409.68	131.07
409.87	156.82
410.07	161.50
410.26	117.03
410.45	145.11
410.64	77.24
410.83	110.01
411.02	84.26
411.21	102.98
411.40	86.60
411.59	182.56
411.78	93.62
411.98	98.30
412.17	119.37
412.36	124.05
412.55	154.48
412.74	84.26
412.93	142.77
413.12	175.54
413.31	196.60
413.50	114.69
413.69	126.39
413.88	166.18
414.07	51.49
414.26	189.58
414.45	166.18
414.64	205.97
414.83	105.32
415.02	131.07
415.22	119.37
415.41	149.79
415.60	84.26
415.79	95.96
415.98	117.03
416.17	119.37
416.36	145.11
416.55	93.62
416.74	105.32
416.93	154.48
417.12	140.43
417.31	124.05
417.50	88.94
417.69	159.16
417.88	128.73
418.07	79.58
418.26	67.88
418.45	128.73
418.64	177.88
418.83	110.01
419.02	156.82
419.21	112.35
419.39	154.48
419.58	149.79
419.77	156.82
419.96	98.30
420.15	168.52
420.34	124.05
420.53	128.73
420.72	168.52
420.91	140.43
421.10	156.82
421.29	88.94
421.48	138.09
421.67	74.90
421.86	93.62
422.05	161.50
422.24	159.16
422.43	131.07
422.61	35.11
422.80	145.11
422.99	159.16
423.18	133.41
423.37	98.30
423.56	102.98
423.75	170.86
423.94	100.64
424.13	135.75
424.32	135.75
424.50	124.05
424.69	131.07
424.88	168.52
425.07	117.03
425.26	152.13
425.45	217.67
425.64	166.18
425.83	161.50
426.01	175.54
426.20	142.77
426.39	161.50
426.58	114.69
426.77	110.01
426.96	187.24
427.15	86.60
427.33	152.13
427.52	215.33
427.71	140.43
427.90	177.88
428.09	154.48
428.28	177.88
428.46	95.96
428.65	105.32
428.84	215.33
429.03	84.26
429.22	145.11
429.40	173.20
429.59	95.96
429.78	210.65
429.97	95.96
430.16	117.03
430.34	112.35
430.53	107.66
430.72	112.35
430.91	168.52
431.10	110.01
431.28	81.92
431.47	145.11
431.66	170.86
431.85	147.45
432.03	161.50
432.22	217.67
432.41	88.94
432.60	119.37
432.79	135.75
432.97	149.79
433.16	107.66
433.35	133.41
433.54	110.01
433.72	156.82
433.91	175.54
434.10	100.64
434.28	112.35
434.47	138.09
434.66	124.05
434.85	105.32
435.03	259.80
435.22	315.97
435.41	442.36
435.59	393.21
435.78	294.91
435.97	154.48
436.16	231.71
436.34	187.24
436.53	145.11
436.72	114.69
436.90	156.82
437.09	168.52
437.28	79.58
437.46	177.88
437.65	142.77
437.84	198.95
438.02	112.35
438.21	138.09
438.40	180.22
438.58	154.48
438.77	117.03
438.96	220.01
439.14	180.22
439.33	227.03
439.52	112.35
439.70	124.05
439.89	180.22
440.08	149.79
440.26	135.75
440.45	173.20
440.63	154.48
440.82	175.54
441.01	163.84
441.19	100.64
441.38	105.32
441.57	100.64
441.75	217.67
441.94	201.29
442.12	187.24
442.31	138.09
442.50	147.45
442.68	110.01
442.87	107.66
443.05	140.43
443.24	161.50
443.43	79.58
443.61	175.54
443.80	140.43
443.98	121.71
444.17	191.92
444.35	241.08
444.54	112.35
444.73	100.64
444.91	154.48
445.10	107.66
445.28	173.20
445.47	128.73
445.65	159.16
445.84	128.73
446.02	170.86
446.21	168.52
446.39	58.51
446.58	170.86
446.77	135.75
446.95	156.82
447.14	184.90
447.32	203.63
447.51	140.43
447.69	112.35
447.88	175.54
448.06	198.95
448.25	131.07
448.43	39.79
448.62	124.05
448.80	177.88
448.99	180.22
449.17	154.48
449.36	86.60
449.54	121.71
449.73	189.58
449.91	173.20
450.10	170.86
450.28	208.31
450.46	177.88
450.65	220.01
450.83	138.09
451.02	119.37
451.20	93.62
451.39	189.58
451.57	145.11
451.76	140.43
451.94	224.69
452.13	187.24
452.31	187.24
452.49	110.01
452.68	170.86
452.86	168.52
453.05	234.05
453.23	180.22
453.42	121.71
453.60	166.18
453.78	100.64
453.97	180.22
454.15	128.73
454.34	173.20
454.52	84.26
454.70	191.92
454.89	156.82
455.07	86.60
455.26	124.05
455.44	135.75
455.62	110.01
455.81	138.09
455.99	128.73
456.17	102.98
456.36	114.69
456.54	177.88
456.73	252.78
456.91	138.09
457.09	140.43
457.28	147.45
457.46	161.50
457.64	168.52
457.83	215.33
458.01	121.71
458.19	231.71
458.38	126.39
458.56	110.01
458.74	119.37
458.93	231.71
459.11	161.50
459.29	42.13
459.48	126.39
459.66	170.86
459.84	156.82
460.03	243.42
460.21	156.82
460.39	93.62
460.57	156.82
460.76	161.50
460.94	161.50
461.12	203.63
461.31	168.52
461.49	126.39
461.67	182.56
461.85	126.39
462.04	154.48
462.22	667.05
462.40	156.82
462.59	196.60
462.77	131.07
462.95	152.13
463.13	72.56
463.32	248.10
463.50	98.30
463.68	121.71
463.86	184.90
464.05	177.88
464.23	105.32
464.41	81.92
464.59	117.03
464.78	107.66
464.96	140.43
465.14	81.92
465.32	98.30
465.50	168.52
465.69	168.52
465.87	133.41
466.05	187.24
466.23	142.77
466.41	124.05
466.60	175.54
466.78	149.79
466.96	135.75
467.14	131.07
467.32	189.58
467.51	107.66
467.69	203.63
467.87	198.95
468.05	147.45
468.23	196.60
468.41	182.56
468.60	208.31
468.78	149.79
468.96	142.77
469.14	117.03
469.32	74.90
469.50	135.75
469.69	114.69
469.87	140.43
470.05	124.05
470.23	147.45
470.41	142.77
470.59	196.60
470.77	222.35
470.95	180.22
471.14	159.16
471.32	215.33
471.50	156.82
471.68	224.69
471.86	91.28
472.04	117.03
472.22	124.05
472.40	124.05
472.58	133.41
472.77	215.33
472.95	128.73
473.13	170.86
473.31	217.67
473.49	173.20
473.67	121.71
473.85	156.82
474.03	184.90
474.21	163.84
474.39	156.82
474.57	184.90
474.75	149.79
474.93	184.90
475.12	161.50
475.30	259.80
475.48	175.54
475.66	142.77
475.84	91.28
476.02	196.60
476.20	201.29
476.38	187.24
476.56	180.22
476.74	184.90
476.92	114.69
477.10	102.98
477.28	114.69
477.46	128.73
477.64	189.58
477.82	124.05
478.00	119.37
478.18	163.84
478.36	184.90
478.54	220.01
478.72	182.56
478.90	177.88
479.08	194.26
479.26	121.71
479.44	215.33
479.62	147.45
479.80	243.42
479.98	189.58
480.16	117.03
480.34	245.76
480.52	184.90
480.70	147.45
480.88	161.50
481.06	142.77
481.24	180.22
481.41	168.52
481.59	229.37
481.77	156.82
481.95	187.24
482.13	184.90
482.31	175.54
482.49	189.58
482.67	166.18
482.85	168.52
483.03	166.18
483.21	201.29
483.39	173.20
483.57	135.75
483.74	187.24
483.92	198.95
484.10	154.48
484.28	262.14
484.46	332.36
484.64	229.37
484.82	156.82
485.00	198.95
485.18	194.26
485.35	180.22
485.53	184.90
485.71	161.50
485.89	119.37
486.07	173.20
486.25	243.42
486.43	201.29
486.61	220.01
486.78	212.99
486.96	159.16
487.14	196.60
487.32	159.16
487.50	234.05
487.68	177.88
487.85	147.45
488.03	159.16
488.21	231.71
488.39	262.14
488.57	212.99
488.75	163.84
488.92	496.19
489.10	203.63
489.28	215.33
489.46	173.20
489.64	135.75
489.81	234.05
489.99	243.42
490.17	215.33
490.35	269.16
490.53	114.69
490.70	135.75
490.88	196.60
491.06	194.26
491.24	245.76
491.41	215.33
491.59	198.95
491.77	208.31
491.95	131.07
492.13	208.31
492.30	210.65
492.48	170.86
492.66	173.20
492.84	231.71
493.01	212.99
493.19	248.10
493.37	222.35
493.54	222.35
493.72	212.99
493.90	166.18
494.08	227.03
494.25	224.69
494.43	156.82
494.61	241.08
494.79	198.95
494.96	147.45
495.14	191.92
495.32	299.59
495.49	133.41
495.67	252.78
495.85	182.56
496.02	182.56
496.20	205.97
496.38	140.43
496.55	212.99
496.73	215.33
496.91	149.79
497.09	170.86
497.26	166.18
497.44	133.41
497.62	227.03
497.79	220.01
497.97	203.63
498.14	234.05
498.32	198.95
498.50	163.84
498.67	273.84
498.85	311.29
499.03	222.35
499.20	217.67
499.38	107.66
499.56	184.90
499.73	210.65
499.91	170.86
500.08	184.90
500.26	196.60
500.44	142.77
500.61	175.54
500.79	276.18
500.97	231.71
501.14	166.18
501.32	189.58
501.49	182.56
501.67	156.82
501.84	149.79
502.02	194.26
502.20	259.80
502.37	180.22
502.55	168.52
502.72	142.77
502.90	266.82
503.07	203.63
503.25	107.66
503.43	133.41
503.60	147.45
503.78	126.39
503.95	135.75
504.13	212.99
504.30	152.13
504.48	163.84
504.65	234.05
504.83	184.90
505.01	138.09
505.18	180.22
505.36	203.63
505.53	196.60
505.71	133.41
505.88	205.97
506.06	210.65
506.23	180.22
506.41	147.45
506.58	203.63
506.76	182.56
506.93	248.10
507.11	217.67
507.28	175.54
507.46	140.43
507.63	152.13
507.81	212.99
507.98	133.41
508.16	163.84
508.33	191.92
508.50	189.58
508.68	147.45
508.85	166.18
509.03	215.33
509.20	191.92
509.38	168.52
509.55	250.44
509.73	208.31
509.90	227.03
510.08	191.92
510.25	166.18
510.42	236.39
510.60	196.60
510.77	196.60
510.95	224.69
511.12	227.03
511.30	191.92
511.47	131.07
511.64	222.35
511.82	149.79
511.99	201.29
512.17	126.39
512.34	154.48
512.51	166.18
512.69	159.16
512.86	196.60
513.04	220.01
513.21	159.16
513.38	159.16
513.56	142.77
513.73	234.05
513.90	149.79
514.08	159.16
514.25	208.31
514.43	161.50
514.60	175.54
514.77	168.52
514.95	203.63
515.12	210.65
515.29	126.39
515.47	177.88
515.64	234.05
515.81	159.16
515.99	276.18
516.16	205.97
516.33	238.73
516.51	168.52
516.68	180.22
516.85	212.99
517.03	168.52
517.20	194.26
517.37	173.20
517.54	196.60
517.72	189.58
517.89	168.52
518.06	126.39
518.24	161.50
518.41	259.80
518.58	72.56
518.75	217.67
518.93	177.88
519.10	140.43
519.27	217.67
519.45	166.18
519.62	231.71
519.79	224.69
519.96	168.52
520.14	248.10
520.31	194.26
520.48	170.86
520.65	201.29
520.83	154.48
521.00	236.39
521.17	217.67
521.34	266.82
521.52	210.65
521.69	212.99
521.86	236.39
522.03	252.78
522.20	285.55
522.38	173.20
522.55	205.97
522.72	198.95
522.89	212.99
523.07	250.44
523.24	187.24
523.41	187.24
523.58	177.88
523.75	208.31
523.92	147.45
524.10	231.71
524.27	198.95
524.44	224.69
524.61	182.56
524.78	229.37
524.96	250.44
525.13	110.01
525.30	257.46
525.47	285.55
525.64	257.46
525.81	262.14
525.98	238.73
526.16	145.11
526.33	173.20
526.50	194.26
526.67	173.20
526.84	194.26
527.01	147.45
527.18	173.20
527.36	126.39
527.53	163.84
527.70	147.45
527.87	217.67
528.04	264.48
528.21	191.92
528.38	243.42
528.55	276.18
528.72	201.29
528.89	140.43
529.07	212.99
529.24	166.18
529.41	250.44
529.58	128.73
529.75	222.35
529.92	177.88
530.09	217.67
530.26	248.10
530.43	252.78
530.60	220.01
530.77	201.29
530.94	259.80
531.11	201.29
531.28	203.63
531.46	149.79
531.63	175.54
531.80	234.05
531.97	133.41
532.14	187.24
532.31	205.97
532.48	184.90
532.65	238.73
532.82	198.95
532.99	212.99
533.16	170.86
533.33	166.18
533.50	152.13
533.67	208.31
533.84	255.12
534.01	194.26
534.18	215.33
534.35	250.44
534.52	212.99
534.69	271.50
534.86	224.69
535.03	222.35
535.20	187.24
535.37	198.95
535.54	227.03
535.71	159.16
535.88	234.05
536.05	189.58
536.22	234.05
536.38	212.99
536.55	184.90
536.72	255.12
536.89	175.54
537.06	224.69
537.23	245.76
537.40	163.84
537.57	198.95
537.74	196.60
537.91	320.65
538.08	320.65
538.25	308.95
538.42	252.78
538.59	191.92
538.75	238.73
538.92	210.65
539.09	269.16
539.26	210.65
539.43	313.63
539.60	273.84
539.77	276.18
539.94	299.59
540.11	290.23
540.28	386.19
540.44	355.76
540.61	278.52
540.78	313.63
540.95	337.04
541.12	421.30
541.29	444.70
541.46	512.58
541.62	440.02
541.79	435.34
541.96	507.90
542.13	454.06
542.30	332.36
542.47	461.09
542.63	372.15
542.80	468.11
542.97	416.62
543.14	374.49
543.31	454.06
543.48	461.09
543.64	425.98
543.81	421.30
543.98	430.66
544.15	325.33
544.32	365.12
544.48	390.87
544.65	421.30
544.82	514.92
544.99	400.23
545.16	486.83
545.32	386.19
545.49	641.31
545.66	713.86
545.83	828.55
546.00	685.78
546.16	538.32
546.33	491.51
546.50	362.78
546.67	383.85
546.83	339.38
547.00	367.46
547.17	259.80
547.34	376.83
547.50	299.59
547.67	367.46
547.84	177.88
548.00	313.63
548.17	255.12
548.34	294.91
548.51	334.70
548.67	374.49
548.84	212.99
549.01	271.50
549.18	297.25
549.34	346.40
549.51	351.08
549.68	299.59
549.84	271.50
550.01	259.80
550.18	372.15
550.34	376.83
550.51	285.55
550.68	245.76
550.84	255.12
551.01	266.82
551.18	255.12
551.34	330.02
551.51	236.39
551.68	280.86
551.84	224.69
552.01	163.84
552.18	264.48
552.34	306.61
552.51	236.39
552.68	285.55
552.84	224.69
553.01	212.99
553.18	243.42
553.34	224.69
553.51	168.52
553.67	285.55
553.84	255.12
554.01	212.99
554.17	203.63
554.34	259.80
554.51	248.10
554.67	210.65
554.84	276.18
555.00	140.43
555.17	208.31
555.33	238.73
555.50	297.25
555.67	208.31
555.83	212.99
556.00	234.05
556.16	299.59
556.33	217.67
556.50	166.18
556.66	208.31
556.83	224.69
556.99	222.35
557.16	182.56
557.32	110.01
557.49	212.99
557.65	266.82
557.82	149.79
557.98	205.97
558.15	198.95
558.32	234.05
558.48	196.60
558.65	227.03
558.81	217.67
558.98	140.43
559.14	241.08
559.31	229.37
559.47	189.58
559.64	152.13
559.80	222.35
559.97	283.20
560.13	234.05
560.30	222.35
560.46	201.29
560.63	166.18
560.79	236.39
560.96	191.92
561.12	175.54
561.29	252.78
561.45	250.44
561.61	229.37
561.78	266.82
561.94	208.31
562.11	161.50
562.27	227.03
562.44	210.65
562.60	245.76
562.77	184.90
562.93	229.37
563.10	194.26
563.26	182.56
563.42	262.14
563.59	131.07
563.75	156.82
563.92	234.05
564.08	243.42
564.24	177.88
564.41	287.89
564.57	229.37
564.74	147.45
564.90	196.60
565.07	154.48
565.23	203.63
565.39	184.90
565.56	250.44
565.72	124.05
565.88	212.99
566.05	147.45
566.21	149.79
566.38	163.84
566.54	163.84
566.70	205.97
566.87	227.03
567.03	184.90
567.19	224.69
567.36	198.95
567.52	191.92
567.68	243.42
567.85	238.73
568.01	215.33
568.17	210.65
568.34	114.69
568.50	201.29
568.66	166.18
568.83	269.16
568.99	147.45
569.15	220.01
569.32	173.20
569.48	234.05
569.64	203.63
569.81	203.63
569.97	273.84
570.13	220.01
570.30	208.31
570.46	154.48
570.62	152.13
570.78	128.73
570.95	182.56
571.11	266.82
571.27	191.92
571.43	205.97
571.60	168.52
571.76	194.26
571.92	159.16
572.09	156.82
572.25	236.39
572.41	180.22
572.57	203.63
572.74	194.26
572.90	222.35
573.06	194.26
573.22	161.50
573.38	215.33
573.55	217.67
573.71	205.97
573.87	163.84
574.03	138.09
574.20	187.24
574.36	290.23
574.52	189.58
574.68	187.24
574.84	208.31
575.01	234.05
575.17	177.88
575.33	126.39
575.49	234.05
575.65	198.95
575.82	224.69
575.98	280.86
576.14	180.22
576.30	210.65
576.46	278.52
576.62	283.20
576.79	224.69
576.95	301.93
577.11	175.54
577.27	234.05
577.43	262.14
577.59	222.35
577.75	257.46
577.92	182.56
578.08	152.13
578.24	117.03
578.40	234.05
578.56	299.59
578.72	325.33
578.88	311.29
579.04	325.33
579.21	248.10
579.37	264.48
579.53	234.05
579.69	264.48
579.85	175.54
580.01	194.26
580.17	191.92
580.33	248.10
580.49	184.90
580.65	205.97
580.82	208.31
580.98	177.88
581.14	168.52
581.30	220.01
581.46	166.18
581.62	212.99
581.78	259.80
581.94	208.31
582.10	168.52
582.26	262.14
582.42	166.18
582.58	220.01
582.74	191.92
582.90	194.26
583.06	276.18
583.22	243.42
583.38	269.16
583.54	180.22
583.70	283.20
583.86	210.65
584.02	264.48
584.18	299.59
584.34	248.10
584.50	180.22
584.66	248.10
584.82	203.63
584.98	210.65
585.14	243.42
585.30	294.91
585.46	292.57
585.62	170.86
585.78	191.92
585.94	163.84
586.10	224.69
586.26	252.78
586.42	170.86
586.58	238.73
586.74	276.18
586.90	278.52
587.06	332.36
587.22	301.93
587.38	117.03
587.54	287.89
587.70	191.92
587.86	252.78
588.02	299.59
588.18	301.93
588.34	250.44
588.49	177.88
588.65	266.82
588.81	215.33
588.97	191.92
589.13	142.77
589.29	243.42
589.45	229.37
589.61	191.92
589.77	189.58
589.93	173.20
590.08	98.30
590.24	198.95
590.40	187.24
590.56	201.29
590.72	140.43
590.88	227.03
591.04	250.44
591.20	210.65
591.35	283.20
591.51	184.90
591.67	133.41
591.83	220.01
591.99	266.82
592.15	187.24
592.31	252.78
592.46	257.46
592.62	238.73
592.78	243.42
592.94	227.03
593.10	222.35
593.26	182.56
593.41	215.33
593.57	212.99
593.73	212.99
593.89	229.37
594.05	234.05
594.20	191.92
594.36	248.10
594.52	203.63
594.68	112.35
594.84	180.22
594.99	227.03
595.15	189.58
595.31	285.55
595.47	243.42
595.62	128.73
595.78	198.95
595.94	152.13
596.10	229.37
596.25	198.95
596.41	196.60
596.57	189.58
596.73	198.95
596.88	173.20
597.04	236.39
597.20	159.16
597.36	217.67
597.51	161.50
597.67	205.97
597.83	210.65
597.99	201.29
598.14	208.31
598.30	180.22
598.46	194.26
598.61	278.52
598.77	191.92
598.93	198.95
599.09	252.78
599.24	250.44
599.40	180.22
599.56	220.01
599.71	215.33
599.87	191.92
600.03	227.03
600.18	168.52
600.34	255.12
600.50	255.12
600.65	161.50
600.81	227.03
600.97	201.29
601.12	224.69
601.28	227.03
601.44	166.18
601.59	175.54
601.75	304.27
601.91	175.54
602.06	187.24
602.22	257.46
602.37	266.82
602.53	180.22
602.69	184.90
602.84	208.31
603.00	147.45
603.16	229.37
603.31	229.37
603.47	201.29
603.62	220.01
603.78	208.31
603.94	215.33
604.09	149.79
604.25	126.39
604.40	208.31
604.56	98.30
604.71	224.69
604.87	107.66
605.03	180.22
605.18	234.05
605.34	243.42
605.49	245.76
605.65	194.26
605.80	203.63
605.96	201.29
606.12	266.82
606.27	198.95
606.43	215.33
606.58	238.73
606.74	180.22
606.89	255.12
607.05	222.35
607.20	196.60
607.36	161.50
607.51	234.05
607.67	170.86
607.82	227.03
607.98	278.52
608.13	290.23
608.29	236.39
608.44	276.18
608.60	306.61
608.75	355.76
608.91	215.33
609.06	271.50
609.22	262.14
609.37	248.10
609.53	290.23
609.68	229.37
609.84	365.12
609.99	325.33
610.15	440.02
610.30	411.93
610.46	449.38
610.61	540.66
610.76	716.20
610.92	798.12
611.07	807.48
611.23	819.19
611.38	662.37
611.54	606.20
611.69	610.88
611.84	493.85
612.00	428.32
612.15	414.27
612.31	409.59
612.46	358.10
612.62	407.25
612.77	430.66
612.92	341.72
613.08	395.55
613.23	322.99
613.39	269.16
613.54	299.59
613.69	262.14
613.85	337.04
614.00	318.31
614.15	304.27
614.31	320.65
614.46	360.44
614.62	339.38
614.77	381.51
614.92	264.48
615.08	224.69
615.23	351.08
615.38	250.44
615.54	269.16
615.69	264.48
615.84	271.50
616.00	238.73
616.15	191.92
616.30	201.29
616.46	273.84
616.61	243.42
616.76	238.73
616.92	222.35
617.07	234.05
617.22	152.13
617.37	177.88
617.53	236.39
617.68	180.22
617.83	163.84
617.99	198.95
618.14	212.99
618.29	208.31
618.45	271.50
618.60	191.92
618.75	154.48
618.90	220.01
619.06	159.16
619.21	217.67
619.36	266.82
619.51	154.48
619.67	149.79
619.82	107.66
619.97	177.88
620.12	180.22
620.28	173.20
620.43	229.37
620.58	280.86
620.73	217.67
620.89	201.29
621.04	177.88
621.19	215.33
621.34	220.01
621.49	173.20
621.65	208.31
621.80	245.76
621.95	208.31
622.10	166.18
622.25	220.01
622.41	170.86
622.56	189.58
622.71	224.69
622.86	248.10
623.01	220.01
623.16	215.33
623.32	163.84
623.47	194.26
623.62	238.73
623.77	227.03
623.92	220.01
624.07	182.56
624.23	168.52
624.38	163.84
624.53	257.46
624.68	177.88
624.83	196.60
624.98	194.26
625.13	203.63
625.29	149.79
625.44	180.22
625.59	262.14
625.74	131.07
625.89	222.35
626.04	266.82
626.19	142.77
626.34	257.46
626.49	187.24
626.65	220.01
626.80	194.26
626.95	241.08
627.10	166.18
627.25	184.90
627.40	220.01
627.55	227.03
627.70	257.46
627.85	198.95
628.00	210.65
628.15	238.73
628.30	234.05
628.45	191.92
628.60	149.79
628.76	264.48
628.91	212.99
629.06	142.77
629.21	166.18
629.36	189.58
629.51	159.16
629.66	201.29
629.81	224.69
629.96	236.39
630.11	299.59
630.26	250.44
630.41	198.95
630.56	262.14
630.71	168.52
630.86	255.12
631.01	224.69
631.16	156.82
631.31	271.50
631.46	140.43
631.61	203.63
631.76	194.26
631.91	147.45
632.06	250.44
632.21	168.52
632.36	259.80
632.51	95.96
632.66	189.58
632.81	110.01
632.96	114.69
633.10	187.24
633.25	283.20
633.40	159.16
633.55	112.35
633.70	140.43
633.85	110.01
634.00	114.69
634.15	140.43
634.30	154.48
634.45	138.09
634.60	117.03
634.75	191.92
634.90	229.37
635.05	147.45
635.19	147.45
635.34	161.50
635.49	93.62
635.64	159.16
635.79	159.16
635.94	229.37
636.09	138.09
636.24	187.24
636.39	161.50
636.53	191.92
636.68	98.30
636.83	210.65
636.98	198.95
637.13	74.90
637.28	117.03
637.43	238.73
637.57	166.18
637.72	135.75
637.87	124.05
638.02	126.39
638.17	117.03
638.32	224.69
638.46	168.52
638.61	306.61
638.76	159.16
638.91	163.84
639.06	243.42
639.20	245.76
639.35	212.99
639.50	133.41
639.65	252.78
639.80	161.50
639.94	231.71
640.09	203.63
640.24	191.92
640.39	184.90
640.54	100.64
640.68	147.45
640.83	177.88
640.98	142.77
641.13	93.62
641.27	152.13
641.42	114.69
641.57	173.20
641.72	147.45
641.86	210.65
642.01	135.75
642.16	220.01
642.31	140.43
642.45	177.88
642.60	159.16
642.75	175.54
642.90	147.45
643.04	154.48
643.19	212.99
643.34	77.24
643.48	142.77
643.63	166.18
643.78	93.62
643.93	234.05
644.07	163.84
644.22	194.26
644.37	135.75
644.51	205.97
644.66	102.98
644.81	135.75
644.95	180.22
645.10	177.88
645.25	110.01
645.39	168.52
645.54	184.90
645.69	180.22
645.83	77.24
645.98	236.39
646.13	175.54
646.27	177.88
646.42	128.73
646.57	145.11
646.71	187.24
646.86	170.86
647.00	138.09
647.15	154.48
647.30	98.30
647.44	124.05
647.59	140.43
647.74	117.03
647.88	205.97
648.03	95.96
648.17	184.90
648.32	135.75
648.47	203.63
648.61	168.52
648.76	161.50
648.90	168.52
649.05	112.35
649.20	105.32
649.34	121.71
649.49	110.01
649.63	180.22
649.78	198.95
649.92	135.75
650.07	156.82
650.21	184.90
650.36	182.56
650.51	191.92
650.65	163.84
650.80	149.79
650.94	182.56
651.09	124.05
651.23	128.73
651.38	138.09
651.52	135.75
651.67	126.39
651.81	110.01
651.96	210.65
652.10	180.22
652.25	161.50
652.39	145.11
652.54	166.18
652.68	184.90
652.83	161.50
652.97	184.90
653.12	180.22
653.26	198.95
653.41	175.54
653.55	161.50
653.70	175.54
653.84	145.11
653.99	175.54
654.13	154.48
654.27	175.54
654.42	112.35
654.56	107.66
654.71	203.63
654.85	170.86
655.00	131.07
655.14	184.90
655.29	112.35
655.43	140.43
655.57	152.13
655.72	152.13
655.86	140.43
656.01	67.88
656.15	154.48
656.30	166.18
656.44	159.16
656.58	91.28
656.73	152.13
656.87	140.43
657.01	138.09
657.16	117.03
657.30	184.90
657.45	152.13
657.59	107.66
657.73	112.35
657.88	170.86
658.02	236.39
658.16	133.41
658.31	124.05
658.45	112.35
658.60	191.92
658.74	234.05
658.88	102.98
659.03	70.22
659.17	39.79
659.31	81.92
659.46	112.35
659.60	170.86
659.74	180.22
659.89	114.69
660.03	145.11
660.17	173.20
660.32	159.16
660.46	117.03
660.60	161.50
660.74	135.75
660.89	112.35
661.03	105.32
661.17	100.64
661.32	173.20
661.46	110.01
661.60	168.52
661.74	145.11
661.89	145.11
662.03	121.71
662.17	187.24
662.31	138.09
662.46	220.01
662.60	135.75
662.74	147.45
662.88	173.20
663.03	180.22
663.17	133.41
663.31	161.50
663.45	159.16
663.60	124.05
663.74	152.13
663.88	124.05
664.02	163.84
664.17	81.92
664.31	133.41
664.45	121.71
664.59	208.31
664.73	182.56
664.88	187.24
665.02	124.05
665.16	156.82
665.30	229.37
665.44	156.82
665.59	229.37
665.73	74.90
665.87	142.77
666.01	152.13
666.15	177.88
666.29	170.86
666.44	175.54
666.58	198.95
666.72	105.32
666.86	117.03
667.00	170.86
667.14	128.73
667.28	145.11
667.43	110.01
667.57	121.71
667.71	175.54
667.85	110.01
667.99	121.71
668.13	128.73
668.27	152.13
668.41	114.69
668.56	184.90
668.70	105.32
668.84	175.54
668.98	105.32
669.12	149.79
669.26	112.35
669.40	245.76
669.54	133.41
669.68	154.48
669.82	154.48
669.96	208.31
670.10	198.95
670.25	112.35
670.39	184.90
670.53	117.03
670.67	105.32
670.81	168.52
670.95	184.90
671.09	224.69
671.23	227.03
671.37	124.05
671.51	88.94
671.65	100.64
671.79	170.86
671.93	184.90
672.07	215.33
672.21	149.79
672.35	208.31
672.49	100.64
672.63	238.73
672.77	156.82
672.91	161.50
673.05	147.45
673.19	215.33
673.33	119.37
673.47	152.13
673.61	184.90
673.75	152.13
673.89	117.03
674.03	117.03
674.17	194.26
674.31	189.58
674.45	133.41
674.59	173.20
674.73	128.73
674.87	187.24
675.01	112.35
675.15	124.05
675.29	124.05
675.43	231.71
675.56	161.50
675.70	166.18
675.84	180.22
675.98	191.92
676.12	140.43
676.26	117.03
676.40	65.54
676.54	131.07
676.68	133.41
676.82	184.90
676.96	140.43
677.10	173.20
677.23	112.35
677.37	142.77
677.51	170.86
677.65	189.58
677.79	145.11
677.93	173.20
678.07	110.01
678.21	147.45
678.34	161.50
678.48	168.52
678.62	145.11
678.76	124.05
678.90	140.43
679.04	161.50
679.18	159.16
679.31	77.24
679.45	46.81
679.59	142.77
679.73	187.24
679.87	102.98
680.00	140.43
680.14	145.11
680.28	105.32
680.42	74.90
680.56	194.26
680.70	156.82
680.83	128.73
680.97	156.82
681.11	98.30
681.25	128.73
681.39	140.43
681.52	189.58
681.66	121.71
681.80	117.03
681.94	67.88
682.07	149.79
682.21	67.88
682.35	60.85
682.49	110.01
682.62	168.52
682.76	93.62
682.90	114.69
683.04	145.11
683.17	131.07
683.31	147.45
683.45	124.05
683.59	135.75
683.72	107.66
683.86	198.95
684.00	112.35
684.13	163.84
684.27	121.71
684.41	110.01
684.55	168.52
684.68	102.98
684.82	77.24
684.96	173.20
685.09	138.09
685.23	182.56
685.37	98.30
685.50	187.24
685.64	196.60
685.78	100.64
685.91	201.29
686.05	252.78
686.19	147.45
686.32	152.13
686.46	112.35
686.60	105.32
686.73	203.63
686.87	102.98
687.01	128.73
687.14	93.62
687.28	81.92
687.42	105.32
687.55	133.41
687.69	124.05
687.82	131.07
687.96	112.35
688.10	110.01
688.23	44.47
688.37	168.52
688.50	166.18
688.64	58.51
688.78	133.41
688.91	67.88
689.05	102.98
689.18	149.79
689.32	107.66
689.46	124.05
689.59	110.01
689.73	140.43
689.86	152.13
690.00	152.13
690.13	86.60
690.27	131.07
690.41	86.60
690.54	173.20
690.68	180.22
690.81	168.52
690.95	138.09
691.08	140.43
691.22	128.73
691.35	196.60
691.49	112.35
691.62	159.16
691.76	121.71
691.89	121.71
692.03	98.30
692.16	170.86
692.30	91.28
692.43	128.73
692.57	53.83
692.70	86.60
692.84	124.05
692.97	126.39
693.11	72.56
693.24	182.56
693.38	114.69
693.51	156.82
693.65	126.39
693.78	145.11
693.92	119.37
694.05	170.86
694.19	77.24
694.32	93.62
694.45	121.71
694.59	121.71
694.72	170.86
694.86	147.45
694.99	243.42
695.13	65.54
695.26	156.82
695.39	81.92
695.53	184.90
695.66	88.94
695.80	156.82
695.93	79.58
696.07	112.35
696.20	159.16
696.33	128.73
696.47	102.98
696.60	46.81
696.73	149.79
696.87	93.62
697.00	152.13
697.14	63.19
697.27	128.73
697.40	191.92
697.54	163.84
697.67	163.84
697.80	58.51
697.94	168.52
698.07	177.88
698.21	91.28
698.34	44.47
698.47	100.64
698.61	154.48
698.74	208.31
698.87	257.46
699.01	140.43
699.14	131.07
699.27	159.16
699.40	173.20
699.54	182.56
699.67	58.51
699.80	107.66
699.94	140.43
700.07	182.56
700.20	173.20
700.34	93.62
700.47	124.05
700.60	110.01
700.73	81.92
700.87	170.86
701.00	175.54
701.13	149.79
701.26	131.07
701.40	175.54
701.53	81.92
701.66	110.01
701.79	121.71
701.93	149.79
702.06	67.88
702.19	177.88
702.32	166.18
702.46	93.62
702.59	91.28
702.72	74.90
702.85	105.32
702.99	65.54
703.12	126.39
703.25	166.18
703.38	70.22
703.51	182.56
703.65	149.79
703.78	70.22
703.91	74.90
704.04	180.22
704.17	117.03
704.31	112.35
704.44	152.13
704.57	110.01
704.70	133.41
704.83	147.45
704.96	46.81
705.10	147.45
705.23	95.96
>>>>>End Processed Spectral Data<<<<<
