SpectraSuite Data File
++++++++++++++++++++++++++++++++++++
Date: Fri Oct 04 11:41:40 GMT-05:00 2013
User: price-jones
Dark Spectrum Present: No
Reference Spectrum Present: No
Number of Sampled Component Spectra: 1
Spectrometers: USB2+H05261
Integration Time (usec): 100000 (USB2+H05261)
Spectra Averaged: 1 (USB2+H05261)
Boxcar Smoothing: 0 (USB2+H05261)
Correct for Electrical Dark: No (USB2+H05261)
Strobe/Lamp Enabled: No (USB2+H05261)
Correct for Detector Non-linearity: No (USB2+H05261)
Correct for Stray Light: No (USB2+H05261)
Number of Pixels in Processed Spectrum: 2048
>>>>>Begin Processed Spectral Data<<<<<
365.73	79.58
365.92	79.58
366.12	79.58
366.32	0.00
366.52	0.00
366.72	4.68
366.91	0.00
367.11	0.00
367.31	0.00
367.51	0.00
367.70	0.00
367.90	21.06
368.10	0.00
368.30	0.00
368.49	0.00
368.69	0.00
368.89	0.00
369.09	0.00
369.28	0.00
369.48	4.68
369.68	0.00
369.87	0.00
370.07	0.00
370.27	0.00
370.47	32.77
370.66	14.04
370.86	0.00
371.06	25.75
371.25	91.28
371.45	49.15
371.65	107.66
371.84	60.85
372.04	7.02
372.24	77.24
372.44	60.85
372.63	128.73
372.83	100.64
373.03	91.28
373.22	161.50
373.42	102.98
373.62	63.19
373.81	128.73
374.01	145.11
374.21	154.48
374.40	84.26
374.60	142.77
374.79	95.96
374.99	133.41
375.19	175.54
375.38	152.13
375.58	131.07
375.78	100.64
375.97	131.07
376.17	168.52
376.37	126.39
376.56	133.41
376.76	117.03
376.95	142.77
377.15	102.98
377.35	112.35
377.54	147.45
377.74	112.35
377.93	170.86
378.13	67.88
378.33	161.50
378.52	77.24
378.72	159.16
378.91	149.79
379.11	128.73
379.31	21.06
379.50	102.98
379.70	121.71
379.89	117.03
380.09	105.32
380.28	117.03
380.48	49.15
380.68	93.62
380.87	105.32
381.07	124.05
381.26	140.43
381.46	105.32
381.65	156.82
381.85	42.13
382.04	44.47
382.24	145.11
382.43	88.94
382.63	112.35
382.83	110.01
383.02	105.32
383.22	124.05
383.41	51.49
383.61	93.62
383.80	100.64
384.00	95.96
384.19	42.13
384.39	60.85
384.58	112.35
384.78	166.18
384.97	72.56
385.17	119.37
385.36	88.94
385.56	86.60
385.75	152.13
385.95	121.71
386.14	140.43
386.34	51.49
386.53	88.94
386.72	168.52
386.92	128.73
387.11	147.45
387.31	93.62
387.50	131.07
387.70	131.07
387.89	191.92
388.09	93.62
388.28	46.81
388.48	37.45
388.67	112.35
388.86	149.79
389.06	81.92
389.25	91.28
389.45	65.54
389.64	74.90
389.84	140.43
390.03	135.75
390.22	128.73
390.42	121.71
390.61	119.37
390.81	67.88
391.00	98.30
391.19	95.96
391.39	133.41
391.58	98.30
391.78	32.77
391.97	198.95
392.16	21.06
392.36	170.86
392.55	173.20
392.75	107.66
392.94	88.94
393.13	161.50
393.33	60.85
393.52	159.16
393.71	126.39
393.91	117.03
394.10	124.05
394.29	63.19
394.49	77.24
394.68	121.71
394.88	163.84
395.07	72.56
395.26	112.35
395.46	98.30
395.65	124.05
395.84	112.35
396.04	245.76
396.23	147.45
396.42	67.88
396.62	119.37
396.81	105.32
397.00	128.73
397.19	37.45
397.39	91.28
397.58	70.22
397.77	126.39
397.97	147.45
398.16	170.86
398.35	65.54
398.55	105.32
398.74	93.62
398.93	117.03
399.12	161.50
399.32	175.54
399.51	142.77
399.70	138.09
399.90	84.26
400.09	102.98
400.28	173.20
400.47	46.81
400.67	102.98
400.86	149.79
401.05	145.11
401.24	110.01
401.44	140.43
401.63	102.98
401.82	121.71
402.01	102.98
402.21	177.88
402.40	147.45
402.59	95.96
402.78	86.60
402.97	198.95
403.17	100.64
403.36	72.56
403.55	114.69
403.74	156.82
403.93	105.32
404.13	308.95
404.32	215.33
404.51	198.95
404.70	273.84
404.89	147.45
405.09	194.26
405.28	126.39
405.47	140.43
405.66	114.69
405.85	114.69
406.05	112.35
406.24	110.01
406.43	140.43
406.62	86.60
406.81	166.18
407.00	77.24
407.20	102.98
407.39	105.32
407.58	135.75
407.77	168.52
407.96	95.96
408.15	93.62
408.34	140.43
408.54	161.50
408.73	191.92
408.92	91.28
409.11	128.73
409.30	147.45
409.49	140.43
409.68	86.60
409.87	133.41
410.07	128.73
410.26	145.11
410.45	227.03
410.64	145.11
410.83	142.77
411.02	147.45
411.21	88.94
411.40	149.79
411.59	88.94
411.78	184.90
411.98	138.09
412.17	149.79
412.36	142.77
412.55	81.92
412.74	88.94
412.93	189.58
413.12	133.41
413.31	149.79
413.50	126.39
413.69	145.11
413.88	205.97
414.07	163.84
414.26	63.19
414.45	84.26
414.64	114.69
414.83	138.09
415.02	140.43
415.22	147.45
415.41	177.88
415.60	152.13
415.79	156.82
415.98	95.96
416.17	145.11
416.36	67.88
416.55	114.69
416.74	203.63
416.93	117.03
417.12	138.09
417.31	166.18
417.50	142.77
417.69	145.11
417.88	212.99
418.07	135.75
418.26	161.50
418.45	110.01
418.64	170.86
418.83	147.45
419.02	210.65
419.21	145.11
419.39	131.07
419.58	102.98
419.77	138.09
419.96	102.98
420.15	177.88
420.34	110.01
420.53	126.39
420.72	229.37
420.91	215.33
421.10	140.43
421.29	168.52
421.48	166.18
421.67	112.35
421.86	196.60
422.05	175.54
422.24	168.52
422.43	119.37
422.61	98.30
422.80	119.37
422.99	189.58
423.18	189.58
423.37	149.79
423.56	149.79
423.75	184.90
423.94	128.73
424.13	140.43
424.32	117.03
424.50	156.82
424.69	159.16
424.88	187.24
425.07	126.39
425.26	175.54
425.45	229.37
425.64	60.85
425.83	159.16
426.01	163.84
426.20	114.69
426.39	175.54
426.58	74.90
426.77	161.50
426.96	67.88
427.15	170.86
427.33	187.24
427.52	189.58
427.71	170.86
427.90	124.05
428.09	128.73
428.28	182.56
428.46	105.32
428.65	161.50
428.84	163.84
429.03	180.22
429.22	133.41
429.40	88.94
429.59	84.26
429.78	175.54
429.97	170.86
430.16	60.85
430.34	145.11
430.53	95.96
430.72	95.96
430.91	229.37
431.10	91.28
431.28	154.48
431.47	133.41
431.66	184.90
431.85	100.64
432.03	175.54
432.22	177.88
432.41	163.84
432.60	187.24
432.79	152.13
432.97	98.30
433.16	189.58
433.35	152.13
433.54	149.79
433.72	163.84
433.91	201.29
434.10	170.86
434.28	215.33
434.47	196.60
434.66	252.78
434.85	138.09
435.03	376.83
435.22	662.37
435.41	1287.29
435.59	1329.42
435.78	990.05
435.97	535.98
436.16	271.50
436.34	215.33
436.53	140.43
436.72	198.95
436.90	189.58
437.09	194.26
437.28	142.77
437.46	180.22
437.65	180.22
437.84	177.88
438.02	152.13
438.21	163.84
438.40	236.39
438.58	142.77
438.77	138.09
438.96	194.26
439.14	138.09
439.33	154.48
439.52	198.95
439.70	168.52
439.89	205.97
440.08	114.69
440.26	201.29
440.45	278.52
440.63	222.35
440.82	145.11
441.01	224.69
441.19	154.48
441.38	133.41
441.57	135.75
441.75	222.35
441.94	154.48
442.12	182.56
442.31	163.84
442.50	173.20
442.68	168.52
442.87	189.58
443.05	168.52
443.24	149.79
443.43	205.97
443.61	203.63
443.80	168.52
443.98	180.22
444.17	161.50
444.35	201.29
444.54	133.41
444.73	166.18
444.91	163.84
445.10	138.09
445.28	161.50
445.47	121.71
445.65	117.03
445.84	70.22
446.02	135.75
446.21	170.86
446.39	140.43
446.58	175.54
446.77	145.11
446.95	194.26
447.14	156.82
447.32	248.10
447.51	210.65
447.69	163.84
447.88	205.97
448.06	189.58
448.25	166.18
448.43	180.22
448.62	95.96
448.80	212.99
448.99	271.50
449.17	135.75
449.36	152.13
449.54	180.22
449.73	229.37
449.91	217.67
450.10	114.69
450.28	229.37
450.46	203.63
450.65	196.60
450.83	189.58
451.02	142.77
451.20	191.92
451.39	161.50
451.57	177.88
451.76	145.11
451.94	203.63
452.13	147.45
452.31	189.58
452.49	170.86
452.68	107.66
452.86	138.09
453.05	259.80
453.23	182.56
453.42	159.16
453.60	95.96
453.78	173.20
453.97	194.26
454.15	149.79
454.34	194.26
454.52	222.35
454.70	212.99
454.89	159.16
455.07	119.37
455.26	245.76
455.44	257.46
455.62	170.86
455.81	170.86
455.99	248.10
456.17	236.39
456.36	182.56
456.54	217.67
456.73	208.31
456.91	163.84
457.09	189.58
457.28	182.56
457.46	177.88
457.64	266.82
457.83	231.71
458.01	117.03
458.19	203.63
458.38	194.26
458.56	252.78
458.74	161.50
458.93	166.18
459.11	175.54
459.29	180.22
459.48	121.71
459.66	177.88
459.84	203.63
460.03	194.26
460.21	234.05
460.39	182.56
460.57	234.05
460.76	182.56
460.94	135.75
461.12	241.08
461.31	287.89
461.49	117.03
461.67	191.92
461.85	222.35
462.04	250.44
462.22	332.36
462.40	203.63
462.59	194.26
462.77	114.69
462.95	163.84
463.13	177.88
463.32	210.65
463.50	168.52
463.68	154.48
463.86	133.41
464.05	135.75
464.23	180.22
464.41	220.01
464.59	168.52
464.78	86.60
464.96	131.07
465.14	222.35
465.32	154.48
465.50	180.22
465.69	173.20
465.87	147.45
466.05	152.13
466.23	133.41
466.41	229.37
466.60	182.56
466.78	163.84
466.96	159.16
467.14	184.90
467.32	166.18
467.51	189.58
467.69	168.52
467.87	152.13
468.05	128.73
468.23	166.18
468.41	217.67
468.60	184.90
468.78	198.95
468.96	203.63
469.14	245.76
469.32	168.52
469.50	182.56
469.69	128.73
469.87	215.33
470.05	191.92
470.23	201.29
470.41	191.92
470.59	170.86
470.77	189.58
470.95	203.63
471.14	203.63
471.32	159.16
471.50	215.33
471.68	159.16
471.86	222.35
472.04	191.92
472.22	262.14
472.40	117.03
472.58	205.97
472.77	154.48
472.95	208.31
473.13	278.52
473.31	248.10
473.49	177.88
473.67	170.86
473.85	191.92
474.03	205.97
474.21	224.69
474.39	252.78
474.57	222.35
474.75	224.69
474.93	147.45
475.12	217.67
475.30	196.60
475.48	212.99
475.66	173.20
475.84	222.35
476.02	203.63
476.20	159.16
476.38	180.22
476.56	313.63
476.74	187.24
476.92	145.11
477.10	173.20
477.28	283.20
477.46	234.05
477.64	198.95
477.82	191.92
478.00	184.90
478.18	217.67
478.36	189.58
478.54	220.01
478.72	196.60
478.90	266.82
479.08	168.52
479.26	182.56
479.44	259.80
479.62	196.60
479.80	86.60
479.98	128.73
480.16	238.73
480.34	238.73
480.52	184.90
480.70	248.10
480.88	201.29
481.06	189.58
481.24	238.73
481.41	184.90
481.59	243.42
481.77	119.37
481.95	224.69
482.13	236.39
482.31	238.73
482.49	170.86
482.67	278.52
482.85	245.76
483.03	187.24
483.21	264.48
483.39	217.67
483.57	231.71
483.74	245.76
483.92	196.60
484.10	273.84
484.28	313.63
484.46	353.42
484.64	262.14
484.82	273.84
485.00	320.65
485.18	313.63
485.35	297.25
485.53	273.84
485.71	341.72
485.89	198.95
486.07	280.86
486.25	425.98
486.43	311.29
486.61	264.48
486.78	315.97
486.96	362.78
487.14	369.80
487.32	330.02
487.50	306.61
487.68	332.36
487.85	313.63
488.03	330.02
488.21	395.55
488.39	423.64
488.57	332.36
488.75	372.15
488.92	538.32
489.10	327.68
489.28	353.42
489.46	344.06
489.64	334.70
489.81	353.42
489.99	313.63
490.17	369.80
490.35	411.93
490.53	353.42
490.70	264.48
490.88	308.95
491.06	290.23
491.24	332.36
491.41	360.44
491.59	318.31
491.77	330.02
491.95	344.06
492.13	266.82
492.30	318.31
492.48	283.20
492.66	348.74
492.84	271.50
493.01	259.80
493.19	311.29
493.37	322.99
493.54	313.63
493.72	259.80
493.90	344.06
494.08	332.36
494.25	332.36
494.43	238.73
494.61	269.16
494.79	351.08
494.96	294.91
495.14	311.29
495.32	299.59
495.49	325.33
495.67	301.93
495.85	259.80
496.02	243.42
496.20	259.80
496.38	430.66
496.55	330.02
496.73	297.25
496.91	297.25
497.09	322.99
497.26	271.50
497.44	227.03
497.62	250.44
497.79	287.89
497.97	250.44
498.14	238.73
498.32	245.76
498.50	334.70
498.67	273.84
498.85	297.25
499.03	252.78
499.20	301.93
499.38	337.04
499.56	241.08
499.73	294.91
499.91	234.05
500.08	273.84
500.26	203.63
500.44	273.84
500.61	311.29
500.79	332.36
500.97	224.69
501.14	306.61
501.32	301.93
501.49	280.86
501.67	255.12
501.84	271.50
502.02	290.23
502.20	278.52
502.37	315.97
502.55	224.69
502.72	229.37
502.90	252.78
503.07	194.26
503.25	203.63
503.43	154.48
503.60	161.50
503.78	276.18
503.95	313.63
504.13	229.37
504.30	266.82
504.48	322.99
504.65	241.08
504.83	231.71
505.01	234.05
505.18	224.69
505.36	271.50
505.53	208.31
505.71	245.76
505.88	252.78
506.06	269.16
506.23	224.69
506.41	222.35
506.58	229.37
506.76	234.05
506.93	182.56
507.11	278.52
507.28	322.99
507.46	166.18
507.63	227.03
507.81	278.52
507.98	262.14
508.16	229.37
508.33	290.23
508.50	266.82
508.68	189.58
508.85	201.29
509.03	227.03
509.20	119.37
509.38	229.37
509.55	297.25
509.73	229.37
509.90	271.50
510.08	222.35
510.25	227.03
510.42	264.48
510.60	327.68
510.77	283.20
510.95	290.23
511.12	194.26
511.30	189.58
511.47	266.82
511.64	297.25
511.82	259.80
511.99	266.82
512.17	238.73
512.34	238.73
512.51	276.18
512.69	198.95
512.86	212.99
513.04	201.29
513.21	182.56
513.38	250.44
513.56	243.42
513.73	201.29
513.90	229.37
514.08	229.37
514.25	325.33
514.43	294.91
514.60	264.48
514.77	245.76
514.95	236.39
515.12	292.57
515.29	264.48
515.47	255.12
515.64	234.05
515.81	210.65
515.99	252.78
516.16	182.56
516.33	308.95
516.51	215.33
516.68	175.54
516.85	159.16
517.03	222.35
517.20	269.16
517.37	252.78
517.54	276.18
517.72	161.50
517.89	156.82
518.06	194.26
518.24	311.29
518.41	252.78
518.58	262.14
518.75	222.35
518.93	273.84
519.10	198.95
519.27	187.24
519.45	227.03
519.62	220.01
519.79	248.10
519.96	294.91
520.14	264.48
520.31	283.20
520.48	304.27
520.65	191.92
520.83	325.33
521.00	269.16
521.17	278.52
521.34	266.82
521.52	257.46
521.69	250.44
521.86	224.69
522.03	318.31
522.20	287.89
522.38	220.01
522.55	231.71
522.72	238.73
522.89	306.61
523.07	283.20
523.24	264.48
523.41	266.82
523.58	297.25
523.75	290.23
523.92	224.69
524.10	299.59
524.27	234.05
524.44	278.52
524.61	311.29
524.78	257.46
524.96	271.50
525.13	301.93
525.30	276.18
525.47	308.95
525.64	168.52
525.81	243.42
525.98	276.18
526.16	299.59
526.33	191.92
526.50	259.80
526.67	131.07
526.84	198.95
527.01	280.86
527.18	241.08
527.36	262.14
527.53	191.92
527.70	388.53
527.87	290.23
528.04	248.10
528.21	250.44
528.38	231.71
528.55	327.68
528.72	339.38
528.89	285.55
529.07	297.25
529.24	248.10
529.41	259.80
529.58	266.82
529.75	278.52
529.92	322.99
530.09	334.70
530.26	262.14
530.43	301.93
530.60	259.80
530.77	264.48
530.94	203.63
531.11	306.61
531.28	220.01
531.46	271.50
531.63	203.63
531.80	222.35
531.97	344.06
532.14	306.61
532.31	252.78
532.48	334.70
532.65	231.71
532.82	287.89
532.99	287.89
533.16	311.29
533.33	344.06
533.50	285.55
533.67	276.18
533.84	299.59
534.01	337.04
534.18	287.89
534.35	297.25
534.52	212.99
534.69	262.14
534.86	290.23
535.03	301.93
535.20	369.80
535.37	346.40
535.54	311.29
535.71	292.57
535.88	292.57
536.05	376.83
536.22	386.19
536.38	299.59
536.55	341.72
536.72	433.00
536.89	187.24
537.06	379.17
537.23	367.46
537.40	358.10
537.57	475.13
537.74	430.66
537.91	372.15
538.08	397.89
538.25	451.72
538.42	449.38
538.59	433.00
538.75	437.68
538.92	533.64
539.09	517.26
539.26	519.60
539.43	566.41
539.60	582.79
539.77	657.69
539.94	615.56
540.11	734.93
540.28	816.85
540.44	849.61
540.61	798.12
540.78	954.94
540.95	1029.84
541.12	1270.91
541.29	1275.59
541.46	1399.64
541.62	1455.81
541.79	1378.58
541.96	1359.85
542.13	1336.45
542.30	1296.66
542.47	1254.53
542.63	1198.35
542.80	1188.99
542.97	1158.57
543.14	1207.72
543.31	1228.78
543.48	1121.12
543.64	1233.46
543.81	1151.54
543.98	1198.35
544.15	1088.35
544.32	1188.99
544.48	1193.67
544.65	1043.88
544.82	1121.12
544.99	1069.62
545.16	1174.95
545.32	1254.53
545.49	1774.13
545.66	2820.35
545.83	3482.72
546.00	3075.46
546.16	2118.18
546.33	1526.03
546.50	1151.54
546.67	1081.33
546.83	924.51
547.00	882.38
547.17	863.66
547.34	805.14
547.50	788.76
547.67	873.02
547.84	807.48
548.00	788.76
548.17	795.78
548.34	760.67
548.51	718.54
548.67	793.44
548.84	699.82
549.01	671.73
549.18	711.52
549.34	608.54
549.51	643.65
549.68	622.58
549.84	655.35
550.01	599.18
550.18	685.78
550.34	660.03
550.51	582.79
550.68	592.16
550.84	477.47
551.01	514.92
551.18	435.34
551.34	500.87
551.51	519.60
551.68	440.02
551.84	435.34
552.01	435.34
552.18	369.80
552.34	447.04
552.51	414.27
552.68	510.24
552.84	472.79
553.01	421.30
553.18	421.30
553.34	332.36
553.51	315.97
553.67	440.02
553.84	500.87
554.01	283.20
554.17	451.72
554.34	330.02
554.51	348.74
554.67	299.59
554.84	386.19
555.00	318.31
555.17	285.55
555.33	393.21
555.50	327.68
555.67	367.46
555.83	283.20
556.00	276.18
556.16	528.96
556.33	325.33
556.50	301.93
556.66	220.01
556.83	245.76
556.99	287.89
557.16	351.08
557.32	280.86
557.49	201.29
557.65	210.65
557.82	315.97
557.98	276.18
558.15	264.48
558.32	276.18
558.48	245.76
558.65	269.16
558.81	252.78
558.98	269.16
559.14	339.38
559.31	245.76
559.47	346.40
559.64	339.38
559.80	308.95
559.97	297.25
560.13	231.71
560.30	238.73
560.46	390.87
560.63	257.46
560.79	231.71
560.96	231.71
561.12	262.14
561.29	308.95
561.45	278.52
561.61	278.52
561.78	320.65
561.94	308.95
562.11	278.52
562.27	266.82
562.44	276.18
562.60	264.48
562.77	255.12
562.93	315.97
563.10	334.70
563.26	306.61
563.42	248.10
563.59	236.39
563.75	241.08
563.92	273.84
564.08	269.16
564.24	290.23
564.41	259.80
564.57	250.44
564.74	273.84
564.90	315.97
565.07	262.14
565.23	292.57
565.39	210.65
565.56	311.29
565.72	222.35
565.88	339.38
566.05	264.48
566.21	231.71
566.38	304.27
566.54	276.18
566.70	262.14
566.87	315.97
567.03	266.82
567.19	215.33
567.36	283.20
567.52	280.86
567.68	250.44
567.85	266.82
568.01	255.12
568.17	259.80
568.34	308.95
568.50	301.93
568.66	208.31
568.83	360.44
568.99	250.44
569.15	255.12
569.32	264.48
569.48	231.71
569.64	220.01
569.81	259.80
569.97	227.03
570.13	245.76
570.30	245.76
570.46	238.73
570.62	205.97
570.78	215.33
570.95	227.03
571.11	266.82
571.27	205.97
571.43	220.01
571.60	196.60
571.76	222.35
571.92	285.55
572.09	191.92
572.25	259.80
572.41	236.39
572.57	212.99
572.74	276.18
572.90	287.89
573.06	273.84
573.22	320.65
573.38	248.10
573.55	304.27
573.71	297.25
573.87	257.46
574.03	208.31
574.20	191.92
574.36	318.31
574.52	285.55
574.68	149.79
574.84	234.05
575.01	266.82
575.17	241.08
575.33	229.37
575.49	290.23
575.65	283.20
575.82	313.63
575.98	395.55
576.14	198.95
576.30	248.10
576.46	573.43
576.62	690.46
576.79	842.59
576.95	746.63
577.11	519.60
577.27	430.66
577.43	437.68
577.59	332.36
577.75	269.16
577.92	306.61
578.08	248.10
578.24	290.23
578.40	311.29
578.56	566.41
578.72	720.88
578.88	746.63
579.04	732.59
579.21	505.56
579.37	425.98
579.53	376.83
579.69	425.98
579.85	470.45
580.01	440.02
580.17	463.43
580.33	437.68
580.49	400.23
580.65	341.72
580.82	393.21
580.98	339.38
581.14	407.25
581.30	404.91
581.46	339.38
581.62	358.10
581.78	407.25
581.94	472.79
582.10	355.76
582.26	430.66
582.42	449.38
582.58	397.89
582.74	404.91
582.90	472.79
583.06	482.15
583.22	510.24
583.38	458.74
583.54	442.36
583.70	423.64
583.86	526.62
584.02	425.98
584.18	512.58
584.34	449.38
584.50	425.98
584.66	409.59
584.82	430.66
584.98	411.93
585.14	456.40
585.30	430.66
585.46	416.62
585.62	393.21
585.78	416.62
585.94	407.25
586.10	416.62
586.26	430.66
586.42	437.68
586.58	603.86
586.74	568.75
586.90	653.01
587.06	613.22
587.22	627.26
587.38	653.01
587.54	550.03
587.70	491.51
587.86	444.70
588.02	468.11
588.18	358.10
588.34	369.80
588.49	402.57
588.65	400.23
588.81	344.06
588.97	224.69
589.13	318.31
589.29	292.57
589.45	341.72
589.61	423.64
589.77	379.17
589.93	330.02
590.08	390.87
590.24	311.29
590.40	304.27
590.56	451.72
590.72	330.02
590.88	337.04
591.04	311.29
591.20	360.44
591.35	390.87
591.51	383.85
591.67	344.06
591.83	421.30
591.99	451.72
592.15	465.77
592.31	470.45
592.46	531.30
592.62	571.09
592.78	484.49
592.94	491.51
593.10	540.66
593.26	557.05
593.41	442.36
593.57	449.38
593.73	393.21
593.89	400.23
594.05	344.06
594.20	376.83
594.36	292.57
594.52	292.57
594.68	264.48
594.84	346.40
594.99	257.46
595.15	348.74
595.31	222.35
595.47	383.85
595.62	341.72
595.78	301.93
595.94	365.12
596.10	304.27
596.25	353.42
596.41	311.29
596.57	327.68
596.73	358.10
596.88	304.27
597.04	287.89
597.20	304.27
597.36	348.74
597.51	339.38
597.67	334.70
597.83	311.29
597.99	355.76
598.14	287.89
598.30	372.15
598.46	374.49
598.61	414.27
598.77	379.17
598.93	390.87
599.09	376.83
599.24	451.72
599.40	442.36
599.56	365.12
599.71	383.85
599.87	325.33
600.03	395.55
600.18	318.31
600.34	416.62
600.50	376.83
600.65	388.53
600.81	365.12
600.97	313.63
601.12	301.93
601.28	372.15
601.44	315.97
601.59	299.59
601.75	243.42
601.91	241.08
602.06	271.50
602.22	334.70
602.37	276.18
602.53	285.55
602.69	339.38
602.84	205.97
603.00	238.73
603.16	250.44
603.31	262.14
603.47	259.80
603.62	222.35
603.78	313.63
603.94	290.23
604.09	341.72
604.25	252.78
604.40	278.52
604.56	283.20
604.71	287.89
604.87	201.29
605.03	283.20
605.18	308.95
605.34	367.46
605.49	294.91
605.65	283.20
605.80	358.10
605.96	315.97
606.12	358.10
606.27	297.25
606.43	365.12
606.58	297.25
606.74	292.57
606.89	348.74
607.05	362.78
607.20	306.61
607.36	421.30
607.51	395.55
607.67	379.17
607.82	472.79
607.98	444.70
608.13	383.85
608.29	447.04
608.44	486.83
608.60	465.77
608.75	512.58
608.91	594.50
609.06	561.73
609.22	608.54
609.37	613.22
609.53	613.22
609.68	779.40
609.84	805.14
609.99	903.45
610.15	1053.24
610.30	1219.42
610.46	1558.80
610.61	1893.49
610.76	2293.72
610.92	2794.60
611.07	3110.57
611.23	3229.94
611.38	3012.27
611.54	2738.43
611.69	2410.75
611.84	2108.82
612.00	1701.57
612.15	1460.49
612.31	1313.04
612.46	1193.67
612.62	1156.22
612.77	1025.15
612.92	1008.77
613.08	1034.52
613.23	936.21
613.39	880.04
613.54	835.57
613.69	851.96
613.85	929.19
614.00	856.64
614.15	812.17
614.31	819.19
614.46	863.66
614.62	851.96
614.77	835.57
614.92	753.65
615.08	685.78
615.23	643.65
615.38	589.82
615.54	557.05
615.69	533.64
615.84	482.15
616.00	524.28
616.15	552.37
616.30	475.13
616.46	346.40
616.61	486.83
616.76	447.04
616.92	470.45
617.07	388.53
617.22	418.96
617.37	376.83
617.53	332.36
617.68	458.74
617.83	341.72
617.99	393.21
618.14	376.83
618.29	372.15
618.45	393.21
618.60	297.25
618.75	351.08
618.90	411.93
619.06	229.37
619.21	362.78
619.36	362.78
619.51	332.36
619.67	325.33
619.82	341.72
619.97	374.49
620.12	421.30
620.28	461.09
620.43	411.93
620.58	367.46
620.73	315.97
620.89	374.49
621.04	369.80
621.19	400.23
621.34	372.15
621.49	360.44
621.65	442.36
621.80	351.08
621.95	383.85
622.10	367.46
622.25	376.83
622.41	376.83
622.56	397.89
622.71	351.08
622.86	416.62
623.01	308.95
623.16	390.87
623.32	348.74
623.47	386.19
623.62	388.53
623.77	299.59
623.92	367.46
624.07	322.99
624.23	348.74
624.38	248.10
624.53	243.42
624.68	404.91
624.83	451.72
624.98	330.02
625.13	372.15
625.29	266.82
625.44	301.93
625.59	276.18
625.74	369.80
625.89	339.38
626.04	308.95
626.19	383.85
626.34	400.23
626.49	322.99
626.65	358.10
626.80	360.44
626.95	383.85
627.10	353.42
627.25	404.91
627.40	271.50
627.55	362.78
627.70	346.40
627.85	283.20
628.00	348.74
628.15	315.97
628.30	301.93
628.45	297.25
628.60	276.18
628.76	290.23
628.91	372.15
629.06	374.49
629.21	358.10
629.36	353.42
629.51	341.72
629.66	365.12
629.81	409.59
629.96	404.91
630.11	379.17
630.26	486.83
630.41	440.02
630.56	418.96
630.71	580.45
630.86	449.38
631.01	507.90
631.16	493.85
631.31	498.53
631.46	416.62
631.61	381.51
631.76	332.36
631.91	266.82
632.06	346.40
632.21	271.50
632.36	278.52
632.51	285.55
632.66	257.46
632.81	252.78
632.96	187.24
633.10	248.10
633.25	217.67
633.40	280.86
633.55	283.20
633.70	283.20
633.85	255.12
634.00	212.99
634.15	231.71
634.30	231.71
634.45	285.55
634.60	292.57
634.75	159.16
634.90	126.39
635.05	245.76
635.19	182.56
635.34	241.08
635.49	266.82
635.64	210.65
635.79	210.65
635.94	159.16
636.09	264.48
636.24	287.89
636.39	257.46
636.53	217.67
636.68	208.31
636.83	168.52
636.98	203.63
637.13	203.63
637.28	187.24
637.43	245.76
637.57	182.56
637.72	285.55
637.87	184.90
638.02	222.35
638.17	191.92
638.32	245.76
638.46	248.10
638.61	238.73
638.76	131.07
638.91	205.97
639.06	187.24
639.20	196.60
639.35	224.69
639.50	201.29
639.65	248.10
639.80	259.80
639.94	229.37
640.09	280.86
640.24	241.08
640.39	227.03
640.54	262.14
640.68	187.24
640.83	266.82
640.98	175.54
641.13	191.92
641.27	177.88
641.42	194.26
641.57	212.99
641.72	245.76
641.86	229.37
642.01	224.69
642.16	287.89
642.31	224.69
642.45	201.29
642.60	208.31
642.75	184.90
642.90	238.73
643.04	196.60
643.19	231.71
643.34	205.97
643.48	217.67
643.63	231.71
643.78	215.33
643.93	285.55
644.07	166.18
644.22	170.86
644.37	100.64
644.51	234.05
644.66	201.29
644.81	180.22
644.95	248.10
645.10	227.03
645.25	182.56
645.39	243.42
645.54	238.73
645.69	290.23
645.83	142.77
645.98	248.10
646.13	208.31
646.27	184.90
646.42	248.10
646.57	184.90
646.71	220.01
646.86	133.41
647.00	182.56
647.15	217.67
647.30	145.11
647.44	224.69
647.59	156.82
647.74	187.24
647.88	194.26
648.03	126.39
648.17	201.29
648.32	121.71
648.47	234.05
648.61	177.88
648.76	201.29
648.90	166.18
649.05	215.33
649.20	126.39
649.34	177.88
649.49	227.03
649.63	285.55
649.78	250.44
649.92	264.48
650.07	250.44
650.21	187.24
650.36	337.04
650.51	236.39
650.65	238.73
650.80	266.82
650.94	229.37
651.09	248.10
651.23	257.46
651.38	266.82
651.52	198.95
651.67	173.20
651.81	262.14
651.96	175.54
652.10	173.20
652.25	173.20
652.39	259.80
652.54	205.97
652.68	276.18
652.83	212.99
652.97	234.05
653.12	273.84
653.26	133.41
653.41	259.80
653.55	168.52
653.70	154.48
653.84	227.03
653.99	170.86
654.13	173.20
654.27	170.86
654.42	198.95
654.56	163.84
654.71	131.07
654.85	205.97
655.00	149.79
655.14	191.92
655.29	152.13
655.43	142.77
655.57	191.92
655.72	175.54
655.86	212.99
656.01	222.35
656.15	35.11
656.30	243.42
656.44	184.90
656.58	173.20
656.73	273.84
656.87	187.24
657.01	271.50
657.16	224.69
657.30	135.75
657.45	262.14
657.59	224.69
657.73	131.07
657.88	217.67
658.02	250.44
658.16	234.05
658.31	107.66
658.45	154.48
658.60	107.66
658.74	142.77
658.88	168.52
659.03	196.60
659.17	142.77
659.31	191.92
659.46	205.97
659.60	257.46
659.74	210.65
659.89	208.31
660.03	210.65
660.17	259.80
660.32	262.14
660.46	142.77
660.60	189.58
660.74	255.12
660.89	196.60
661.03	245.76
661.17	175.54
661.32	191.92
661.46	198.95
661.60	159.16
661.74	191.92
661.89	210.65
662.03	257.46
662.17	177.88
662.31	266.82
662.46	278.52
662.60	241.08
662.74	241.08
662.88	208.31
663.03	152.13
663.17	166.18
663.31	177.88
663.45	208.31
663.60	177.88
663.74	184.90
663.88	201.29
664.02	161.50
664.17	208.31
664.31	234.05
664.45	156.82
664.59	189.58
664.73	210.65
664.88	205.97
665.02	198.95
665.16	182.56
665.30	271.50
665.44	177.88
665.59	184.90
665.73	180.22
665.87	224.69
666.01	203.63
666.15	180.22
666.29	133.41
666.44	287.89
666.58	208.31
666.72	161.50
666.86	177.88
667.00	100.64
667.14	180.22
667.28	217.67
667.43	175.54
667.57	140.43
667.71	112.35
667.85	119.37
667.99	187.24
668.13	205.97
668.27	156.82
668.41	229.37
668.56	208.31
668.70	220.01
668.84	149.79
668.98	271.50
669.12	138.09
669.26	154.48
669.40	234.05
669.54	170.86
669.68	173.20
669.82	168.52
669.96	131.07
670.10	182.56
670.25	166.18
670.39	229.37
670.53	105.32
670.67	100.64
670.81	145.11
670.95	238.73
671.09	147.45
671.23	252.78
671.37	222.35
671.51	184.90
671.65	189.58
671.79	191.92
671.93	156.82
672.07	196.60
672.21	156.82
672.35	91.28
672.49	100.64
672.63	170.86
672.77	180.22
672.91	222.35
673.05	102.98
673.19	203.63
673.33	184.90
673.47	194.26
673.61	159.16
673.75	191.92
673.89	124.05
674.03	245.76
674.17	105.32
674.31	163.84
674.45	145.11
674.59	124.05
674.73	135.75
674.87	173.20
675.01	175.54
675.15	102.98
675.29	250.44
675.43	161.50
675.56	189.58
675.70	205.97
675.84	138.09
675.98	168.52
676.12	161.50
676.26	131.07
676.40	140.43
676.54	124.05
676.68	142.77
676.82	189.58
676.96	102.98
677.10	198.95
677.23	126.39
677.37	128.73
677.51	110.01
677.65	210.65
677.79	198.95
677.93	196.60
678.07	182.56
678.21	105.32
678.34	58.51
678.48	138.09
678.62	152.13
678.76	212.99
678.90	166.18
679.04	203.63
679.18	198.95
679.31	112.35
679.45	161.50
679.59	163.84
679.73	194.26
679.87	166.18
680.00	152.13
680.14	173.20
680.28	149.79
680.42	140.43
680.56	201.29
680.70	145.11
680.83	133.41
680.97	149.79
681.11	180.22
681.25	196.60
681.39	161.50
681.52	173.20
681.66	208.31
681.80	271.50
681.94	175.54
682.07	163.84
682.21	273.84
682.35	168.52
682.49	156.82
682.62	187.24
682.76	198.95
682.90	84.26
683.04	142.77
683.17	145.11
683.31	126.39
683.45	189.58
683.59	255.12
683.72	170.86
683.86	182.56
684.00	191.92
684.13	191.92
684.27	180.22
684.41	147.45
684.55	147.45
684.68	154.48
684.82	95.96
684.96	126.39
685.09	128.73
685.23	121.71
685.37	208.31
685.50	182.56
685.64	142.77
685.78	173.20
685.91	177.88
686.05	138.09
686.19	154.48
686.32	156.82
686.46	98.30
686.60	105.32
686.73	156.82
686.87	131.07
687.01	135.75
687.14	121.71
687.28	149.79
687.42	166.18
687.55	124.05
687.69	147.45
687.82	147.45
687.96	196.60
688.10	210.65
688.23	124.05
688.37	205.97
688.50	147.45
688.64	126.39
688.78	107.66
688.91	142.77
689.05	93.62
689.18	154.48
689.32	140.43
689.46	163.84
689.59	119.37
689.73	222.35
689.86	166.18
690.00	112.35
690.13	81.92
690.27	102.98
690.41	156.82
690.54	131.07
690.68	184.90
690.81	135.75
690.95	173.20
691.08	119.37
691.22	124.05
691.35	86.60
691.49	138.09
691.62	105.32
691.76	67.88
691.89	173.20
692.03	105.32
692.16	86.60
692.30	135.75
692.43	152.13
692.57	140.43
692.70	140.43
692.84	152.13
692.97	114.69
693.11	93.62
693.24	63.19
693.38	119.37
693.51	210.65
693.65	180.22
693.78	177.88
693.92	163.84
694.05	163.84
694.19	112.35
694.32	149.79
694.45	91.28
694.59	142.77
694.72	147.45
694.86	194.26
694.99	145.11
695.13	124.05
695.26	98.30
695.39	128.73
695.53	208.31
695.66	135.75
695.80	201.29
695.93	117.03
696.07	79.58
696.20	142.77
696.33	58.51
696.47	133.41
696.60	187.24
696.73	170.86
696.87	72.56
697.00	189.58
697.14	149.79
697.27	77.24
697.40	93.62
697.54	138.09
697.67	98.30
697.80	152.13
697.94	98.30
698.07	100.64
698.21	114.69
698.34	138.09
698.47	126.39
698.61	135.75
698.74	128.73
698.87	128.73
699.01	187.24
699.14	105.32
699.27	161.50
699.40	215.33
699.54	161.50
699.67	131.07
699.80	131.07
699.94	114.69
700.07	145.11
700.20	142.77
700.34	166.18
700.47	131.07
700.60	154.48
700.73	107.66
700.87	131.07
701.00	105.32
701.13	112.35
701.26	145.11
701.40	74.90
701.53	79.58
701.66	203.63
701.79	121.71
701.93	149.79
702.06	191.92
702.19	138.09
702.32	196.60
702.46	112.35
702.59	86.60
702.72	102.98
702.85	117.03
702.99	154.48
703.12	189.58
703.25	63.19
703.38	72.56
703.51	191.92
703.65	112.35
703.78	149.79
703.91	105.32
704.04	124.05
704.17	121.71
704.31	86.60
704.44	65.54
704.57	117.03
704.70	145.11
704.83	114.69
704.96	175.54
705.10	86.60
705.23	170.86
>>>>>End Processed Spectral Data<<<<<
