SpectraSuite Data File
++++++++++++++++++++++++++++++++++++
Date: Fri Oct 04 11:42:27 GMT-05:00 2013
User: price-jones
Dark Spectrum Present: No
Reference Spectrum Present: No
Number of Sampled Component Spectra: 1
Spectrometers: USB2+H05261
Integration Time (usec): 100000 (USB2+H05261)
Spectra Averaged: 1 (USB2+H05261)
Boxcar Smoothing: 0 (USB2+H05261)
Correct for Electrical Dark: No (USB2+H05261)
Strobe/Lamp Enabled: No (USB2+H05261)
Correct for Detector Non-linearity: No (USB2+H05261)
Correct for Stray Light: No (USB2+H05261)
Number of Pixels in Processed Spectrum: 2048
>>>>>Begin Processed Spectral Data<<<<<
365.73	39.79
365.92	39.79
366.12	39.79
366.32	0.00
366.52	0.00
366.72	0.00
366.91	0.00
367.11	0.00
367.31	0.00
367.51	0.00
367.70	0.00
367.90	0.00
368.10	0.00
368.30	0.00
368.49	0.00
368.69	0.00
368.89	0.00
369.09	0.00
369.28	0.00
369.48	0.00
369.68	0.00
369.87	2.34
370.07	9.36
370.27	124.05
370.47	0.00
370.66	0.00
370.86	49.15
371.06	63.19
371.25	135.75
371.45	112.35
371.65	91.28
371.84	42.13
372.04	4.68
372.24	121.71
372.44	107.66
372.63	102.98
372.83	117.03
373.03	79.58
373.22	159.16
373.42	88.94
373.62	124.05
373.81	124.05
374.01	110.01
374.21	163.84
374.40	42.13
374.60	86.60
374.79	131.07
374.99	84.26
375.19	154.48
375.38	93.62
375.58	156.82
375.78	145.11
375.97	79.58
376.17	98.30
376.37	65.54
376.56	91.28
376.76	126.39
376.95	140.43
377.15	100.64
377.35	88.94
377.54	37.45
377.74	86.60
377.93	53.83
378.13	70.22
378.33	175.54
378.52	112.35
378.72	187.24
378.91	161.50
379.11	142.77
379.31	131.07
379.50	138.09
379.70	117.03
379.89	119.37
380.09	74.90
380.28	117.03
380.48	102.98
380.68	140.43
380.87	56.17
381.07	95.96
381.26	124.05
381.46	77.24
381.65	112.35
381.85	53.83
382.04	112.35
382.24	114.69
382.43	112.35
382.63	91.28
382.83	177.88
383.02	86.60
383.22	142.77
383.41	74.90
383.61	70.22
383.80	88.94
384.00	0.00
384.19	98.30
384.39	86.60
384.58	84.26
384.78	154.48
384.97	149.79
385.17	105.32
385.36	46.81
385.56	100.64
385.75	114.69
385.95	154.48
386.14	112.35
386.34	138.09
386.53	60.85
386.72	149.79
386.92	161.50
387.11	114.69
387.31	147.45
387.50	102.98
387.70	126.39
387.89	81.92
388.09	93.62
388.28	114.69
388.48	67.88
388.67	93.62
388.86	142.77
389.06	88.94
389.25	154.48
389.45	77.24
389.64	98.30
389.84	119.37
390.03	159.16
390.22	145.11
390.42	100.64
390.61	91.28
390.81	124.05
391.00	107.66
391.19	196.60
391.39	70.22
391.58	77.24
391.78	107.66
391.97	93.62
392.16	67.88
392.36	119.37
392.55	102.98
392.75	177.88
392.94	98.30
393.13	184.90
393.33	84.26
393.52	112.35
393.71	154.48
393.91	37.45
394.10	88.94
394.29	135.75
394.49	42.13
394.68	102.98
394.88	189.58
395.07	147.45
395.26	56.17
395.46	100.64
395.65	220.01
395.84	163.84
396.04	215.33
396.23	145.11
396.42	95.96
396.62	56.17
396.81	147.45
397.00	161.50
397.19	128.73
397.39	131.07
397.58	140.43
397.77	81.92
397.97	65.54
398.16	177.88
398.35	124.05
398.55	93.62
398.74	128.73
398.93	180.22
399.12	84.26
399.32	79.58
399.51	128.73
399.70	149.79
399.90	177.88
400.09	119.37
400.28	163.84
400.47	140.43
400.67	152.13
400.86	210.65
401.05	159.16
401.24	131.07
401.44	170.86
401.63	131.07
401.82	133.41
402.01	112.35
402.21	110.01
402.40	56.17
402.59	105.32
402.78	86.60
402.97	124.05
403.17	147.45
403.36	100.64
403.55	128.73
403.74	229.37
403.93	489.17
404.13	704.50
404.32	786.42
404.51	692.80
404.70	454.06
404.89	238.73
405.09	198.95
405.28	142.77
405.47	166.18
405.66	149.79
405.85	95.96
406.05	53.83
406.24	140.43
406.43	145.11
406.62	163.84
406.81	175.54
407.00	135.75
407.20	276.18
407.39	154.48
407.58	177.88
407.77	182.56
407.96	215.33
408.15	187.24
408.34	173.20
408.54	149.79
408.73	161.50
408.92	117.03
409.11	138.09
409.30	163.84
409.49	58.51
409.68	161.50
409.87	124.05
410.07	189.58
410.26	154.48
410.45	105.32
410.64	163.84
410.83	175.54
411.02	102.98
411.21	149.79
411.40	163.84
411.59	114.69
411.78	124.05
411.98	145.11
412.17	124.05
412.36	49.15
412.55	138.09
412.74	121.71
412.93	121.71
413.12	133.41
413.31	100.64
413.50	173.20
413.69	93.62
413.88	79.58
414.07	142.77
414.26	196.60
414.45	124.05
414.64	161.50
414.83	168.52
415.02	117.03
415.22	182.56
415.41	191.92
415.60	124.05
415.79	215.33
415.98	205.97
416.17	140.43
416.36	140.43
416.55	98.30
416.74	152.13
416.93	220.01
417.12	102.98
417.31	187.24
417.50	180.22
417.69	175.54
417.88	131.07
418.07	131.07
418.26	124.05
418.45	131.07
418.64	184.90
418.83	135.75
419.02	154.48
419.21	126.39
419.39	189.58
419.58	119.37
419.77	175.54
419.96	154.48
420.15	166.18
420.34	128.73
420.53	147.45
420.72	236.39
420.91	163.84
421.10	131.07
421.29	102.98
421.48	182.56
421.67	140.43
421.86	145.11
422.05	107.66
422.24	135.75
422.43	147.45
422.61	131.07
422.80	149.79
422.99	110.01
423.18	255.12
423.37	201.29
423.56	205.97
423.75	154.48
423.94	121.71
424.13	290.23
424.32	156.82
424.50	133.41
424.69	142.77
424.88	205.97
425.07	177.88
425.26	131.07
425.45	175.54
425.64	121.71
425.83	140.43
426.01	117.03
426.20	166.18
426.39	159.16
426.58	112.35
426.77	208.31
426.96	131.07
427.15	124.05
427.33	128.73
427.52	222.35
427.71	159.16
427.90	191.92
428.09	163.84
428.28	63.19
428.46	229.37
428.65	184.90
428.84	201.29
429.03	163.84
429.22	117.03
429.40	105.32
429.59	72.56
429.78	154.48
429.97	175.54
430.16	119.37
430.34	173.20
430.53	205.97
430.72	187.24
430.91	184.90
431.10	124.05
431.28	124.05
431.47	163.84
431.66	149.79
431.85	182.56
432.03	196.60
432.22	182.56
432.41	208.31
432.60	266.82
432.79	184.90
432.97	154.48
433.16	234.05
433.35	154.48
433.54	142.77
433.72	191.92
433.91	187.24
434.10	198.95
434.28	156.82
434.47	175.54
434.66	231.71
434.85	229.37
435.03	716.20
435.22	1860.73
435.41	2881.20
435.59	2644.81
435.78	1727.32
435.97	1011.11
436.16	503.22
436.34	278.52
436.53	175.54
436.72	168.52
436.90	159.16
437.09	252.78
437.28	212.99
437.46	88.94
437.65	203.63
437.84	194.26
438.02	138.09
438.21	119.37
438.40	210.65
438.58	248.10
438.77	182.56
438.96	231.71
439.14	105.32
439.33	238.73
439.52	224.69
439.70	140.43
439.89	224.69
440.08	201.29
440.26	243.42
440.45	231.71
440.63	222.35
440.82	198.95
441.01	257.46
441.19	203.63
441.38	175.54
441.57	175.54
441.75	177.88
441.94	166.18
442.12	227.03
442.31	145.11
442.50	168.52
442.68	152.13
442.87	243.42
443.05	262.14
443.24	187.24
443.43	243.42
443.61	168.52
443.80	140.43
443.98	117.03
444.17	117.03
444.35	177.88
444.54	212.99
444.73	124.05
444.91	224.69
445.10	257.46
445.28	177.88
445.47	149.79
445.65	231.71
445.84	184.90
446.02	131.07
446.21	184.90
446.39	194.26
446.58	205.97
446.77	133.41
446.95	180.22
447.14	182.56
447.32	163.84
447.51	215.33
447.69	163.84
447.88	163.84
448.06	187.24
448.25	238.73
448.43	173.20
448.62	170.86
448.80	217.67
448.99	212.99
449.17	191.92
449.36	170.86
449.54	187.24
449.73	229.37
449.91	241.08
450.10	133.41
450.28	245.76
450.46	287.89
450.65	238.73
450.83	196.60
451.02	173.20
451.20	180.22
451.39	142.77
451.57	156.82
451.76	236.39
451.94	156.82
452.13	128.73
452.31	220.01
452.49	292.57
452.68	215.33
452.86	222.35
453.05	292.57
453.23	208.31
453.42	175.54
453.60	145.11
453.78	180.22
453.97	168.52
454.15	133.41
454.34	175.54
454.52	224.69
454.70	245.76
454.89	234.05
455.07	170.86
455.26	177.88
455.44	166.18
455.62	180.22
455.81	145.11
455.99	173.20
456.17	194.26
456.36	217.67
456.54	215.33
456.73	105.32
456.91	194.26
457.09	217.67
457.28	266.82
457.46	145.11
457.64	241.08
457.83	201.29
458.01	175.54
458.19	112.35
458.38	110.01
458.56	187.24
458.74	149.79
458.93	189.58
459.11	229.37
459.29	177.88
459.48	191.92
459.66	217.67
459.84	198.95
460.03	227.03
460.21	177.88
460.39	131.07
460.57	152.13
460.76	145.11
460.94	135.75
461.12	222.35
461.31	259.80
461.49	154.48
461.67	182.56
461.85	215.33
462.04	201.29
462.22	313.63
462.40	215.33
462.59	224.69
462.77	234.05
462.95	163.84
463.13	203.63
463.32	198.95
463.50	224.69
463.68	187.24
463.86	175.54
464.05	126.39
464.23	194.26
464.41	224.69
464.59	161.50
464.78	243.42
464.96	205.97
465.14	154.48
465.32	170.86
465.50	128.73
465.69	238.73
465.87	149.79
466.05	168.52
466.23	182.56
466.41	198.95
466.60	187.24
466.78	173.20
466.96	149.79
467.14	145.11
467.32	234.05
467.51	205.97
467.69	133.41
467.87	191.92
468.05	217.67
468.23	292.57
468.41	220.01
468.60	201.29
468.78	238.73
468.96	180.22
469.14	138.09
469.32	152.13
469.50	128.73
469.69	114.69
469.87	168.52
470.05	203.63
470.23	126.39
470.41	177.88
470.59	203.63
470.77	133.41
470.95	110.01
471.14	203.63
471.32	196.60
471.50	325.33
471.68	180.22
471.86	180.22
472.04	248.10
472.22	168.52
472.40	180.22
472.58	138.09
472.77	217.67
472.95	131.07
473.13	184.90
473.31	290.23
473.49	124.05
473.67	198.95
473.85	255.12
474.03	175.54
474.21	238.73
474.39	250.44
474.57	238.73
474.75	229.37
474.93	238.73
475.12	170.86
475.30	175.54
475.48	170.86
475.66	175.54
475.84	142.77
476.02	234.05
476.20	170.86
476.38	163.84
476.56	262.14
476.74	210.65
476.92	182.56
477.10	168.52
477.28	149.79
477.46	177.88
477.64	243.42
477.82	236.39
478.00	234.05
478.18	194.26
478.36	252.78
478.54	217.67
478.72	271.50
478.90	163.84
479.08	227.03
479.26	215.33
479.44	184.90
479.62	189.58
479.80	243.42
479.98	210.65
480.16	255.12
480.34	229.37
480.52	262.14
480.70	217.67
480.88	224.69
481.06	177.88
481.24	180.22
481.41	212.99
481.59	201.29
481.77	264.48
481.95	248.10
482.13	301.93
482.31	224.69
482.49	198.95
482.67	297.25
482.85	278.52
483.03	367.46
483.21	299.59
483.39	290.23
483.57	315.97
483.74	369.80
483.92	386.19
484.10	315.97
484.28	285.55
484.46	287.89
484.64	269.16
484.82	386.19
485.00	351.08
485.18	332.36
485.35	383.85
485.53	423.64
485.71	395.55
485.89	425.98
486.07	437.68
486.25	458.74
486.43	458.74
486.61	482.15
486.78	463.43
486.96	451.72
487.14	507.90
487.32	411.93
487.50	454.06
487.68	559.39
487.85	381.51
488.03	404.91
488.21	465.77
488.39	383.85
488.57	463.43
488.75	362.78
488.92	662.37
489.10	456.40
489.28	468.11
489.46	322.99
489.64	346.40
489.81	451.72
489.99	374.49
490.17	313.63
490.35	477.47
490.53	346.40
490.70	292.57
490.88	320.65
491.06	428.32
491.24	463.43
491.41	482.15
491.59	433.00
491.77	369.80
491.95	322.99
492.13	313.63
492.30	447.04
492.48	383.85
492.66	353.42
492.84	318.31
493.01	372.15
493.19	421.30
493.37	360.44
493.54	311.29
493.72	362.78
493.90	320.65
494.08	351.08
494.25	306.61
494.43	379.17
494.61	294.91
494.79	315.97
494.96	306.61
495.14	362.78
495.32	414.27
495.49	341.72
495.67	245.76
495.85	348.74
496.02	264.48
496.20	299.59
496.38	416.62
496.55	257.46
496.73	339.38
496.91	318.31
497.09	423.64
497.26	348.74
497.44	245.76
497.62	308.95
497.79	271.50
497.97	325.33
498.14	414.27
498.32	337.04
498.50	304.27
498.67	252.78
498.85	255.12
499.03	257.46
499.20	351.08
499.38	325.33
499.56	337.04
499.73	360.44
499.91	322.99
500.08	259.80
500.26	259.80
500.44	264.48
500.61	198.95
500.79	224.69
500.97	318.31
501.14	273.84
501.32	259.80
501.49	285.55
501.67	243.42
501.84	212.99
502.02	266.82
502.20	266.82
502.37	248.10
502.55	259.80
502.72	255.12
502.90	238.73
503.07	224.69
503.25	320.65
503.43	238.73
503.60	278.52
503.78	264.48
503.95	212.99
504.13	250.44
504.30	285.55
504.48	308.95
504.65	234.05
504.83	236.39
505.01	290.23
505.18	266.82
505.36	315.97
505.53	231.71
505.71	252.78
505.88	287.89
506.06	304.27
506.23	208.31
506.41	243.42
506.58	159.16
506.76	184.90
506.93	290.23
507.11	236.39
507.28	238.73
507.46	196.60
507.63	227.03
507.81	236.39
507.98	234.05
508.16	168.52
508.33	234.05
508.50	252.78
508.68	245.76
508.85	266.82
509.03	245.76
509.20	241.08
509.38	269.16
509.55	264.48
509.73	276.18
509.90	245.76
510.08	259.80
510.25	231.71
510.42	212.99
510.60	229.37
510.77	266.82
510.95	241.08
511.12	215.33
511.30	252.78
511.47	215.33
511.64	339.38
511.82	287.89
511.99	224.69
512.17	215.33
512.34	182.56
512.51	100.64
512.69	196.60
512.86	255.12
513.04	220.01
513.21	294.91
513.38	229.37
513.56	177.88
513.73	236.39
513.90	208.31
514.08	184.90
514.25	205.97
514.43	292.57
514.60	311.29
514.77	264.48
514.95	285.55
515.12	156.82
515.29	234.05
515.47	285.55
515.64	187.24
515.81	201.29
515.99	292.57
516.16	306.61
516.33	266.82
516.51	229.37
516.68	229.37
516.85	191.92
517.03	255.12
517.20	301.93
517.37	276.18
517.54	215.33
517.72	173.20
517.89	236.39
518.06	217.67
518.24	170.86
518.41	325.33
518.58	369.80
518.75	229.37
518.93	304.27
519.10	283.20
519.27	194.26
519.45	264.48
519.62	259.80
519.79	184.90
519.96	229.37
520.14	264.48
520.31	325.33
520.48	234.05
520.65	259.80
520.83	337.04
521.00	196.60
521.17	266.82
521.34	224.69
521.52	252.78
521.69	252.78
521.86	355.76
522.03	290.23
522.20	201.29
522.38	227.03
522.55	276.18
522.72	175.54
522.89	308.95
523.07	327.68
523.24	231.71
523.41	245.76
523.58	287.89
523.75	255.12
523.92	231.71
524.10	198.95
524.27	294.91
524.44	276.18
524.61	304.27
524.78	262.14
524.96	210.65
525.13	231.71
525.30	271.50
525.47	320.65
525.64	203.63
525.81	222.35
525.98	259.80
526.16	234.05
526.33	297.25
526.50	191.92
526.67	161.50
526.84	283.20
527.01	210.65
527.18	227.03
527.36	220.01
527.53	231.71
527.70	292.57
527.87	301.93
528.04	304.27
528.21	292.57
528.38	355.76
528.55	397.89
528.72	332.36
528.89	257.46
529.07	217.67
529.24	287.89
529.41	341.72
529.58	292.57
529.75	231.71
529.92	301.93
530.09	264.48
530.26	346.40
530.43	248.10
530.60	278.52
530.77	299.59
530.94	315.97
531.11	332.36
531.28	283.20
531.46	262.14
531.63	264.48
531.80	311.29
531.97	271.50
532.14	283.20
532.31	285.55
532.48	299.59
532.65	276.18
532.82	283.20
532.99	294.91
533.16	360.44
533.33	435.34
533.50	388.53
533.67	348.74
533.84	262.14
534.01	360.44
534.18	276.18
534.35	315.97
534.52	313.63
534.69	339.38
534.86	379.17
535.03	280.86
535.20	278.52
535.37	327.68
535.54	383.85
535.71	315.97
535.88	463.43
536.05	337.04
536.22	358.10
536.38	358.10
536.55	353.42
536.72	489.17
536.89	390.87
537.06	395.55
537.23	447.04
537.40	430.66
537.57	451.72
537.74	531.30
537.91	547.69
538.08	524.28
538.25	564.07
538.42	496.19
538.59	550.03
538.75	561.73
538.92	592.16
539.09	615.56
539.26	739.61
539.43	730.25
539.60	763.01
539.77	828.55
539.94	786.42
540.11	929.19
540.28	997.07
540.44	1121.12
540.61	1132.82
540.78	1249.85
540.95	1476.88
541.12	1692.21
541.29	1832.64
541.46	1954.35
541.62	1954.35
541.79	1916.90
541.96	1771.79
542.13	1778.81
542.30	1657.10
542.47	1607.95
542.63	1549.43
542.80	1565.82
542.97	1551.78
543.14	1650.08
543.31	1544.75
543.48	1631.35
543.64	1551.78
543.81	1486.24
543.98	1565.82
544.15	1472.20
544.32	1451.13
544.48	1500.28
544.65	1563.48
544.82	1533.05
544.99	1437.09
545.16	1458.15
545.32	1542.41
545.49	2860.13
545.66	4107.64
545.83	4610.86
546.00	4067.85
546.16	2757.15
546.33	2080.74
546.50	1685.19
546.67	1437.09
546.83	1247.51
547.00	1170.27
547.17	1193.67
547.34	1078.99
547.50	1057.92
547.67	968.98
547.84	973.66
548.00	1055.58
548.17	910.47
548.34	884.72
548.51	887.06
548.67	954.94
548.84	858.98
549.01	973.66
549.18	774.72
549.34	802.80
549.51	760.67
549.68	720.88
549.84	784.08
550.01	657.69
550.18	816.85
550.34	713.86
550.51	741.95
550.68	685.78
550.84	552.37
551.01	589.82
551.18	667.05
551.34	645.99
551.51	634.29
551.68	533.64
551.84	589.82
552.01	484.49
552.18	526.62
552.34	486.83
552.51	517.26
552.68	512.58
552.84	393.21
553.01	500.87
553.18	531.30
553.34	425.98
553.51	346.40
553.67	442.36
553.84	437.68
554.01	376.83
554.17	418.96
554.34	372.15
554.51	301.93
554.67	397.89
554.84	369.80
555.00	262.14
555.17	388.53
555.33	325.33
555.50	334.70
555.67	348.74
555.83	287.89
556.00	337.04
556.16	444.70
556.33	360.44
556.50	337.04
556.66	301.93
556.83	299.59
556.99	299.59
557.16	393.21
557.32	308.95
557.49	341.72
557.65	339.38
557.82	276.18
557.98	346.40
558.15	299.59
558.32	320.65
558.48	332.36
558.65	322.99
558.81	341.72
558.98	341.72
559.14	306.61
559.31	304.27
559.47	313.63
559.64	327.68
559.80	306.61
559.97	184.90
560.13	306.61
560.30	250.44
560.46	358.10
560.63	257.46
560.79	327.68
560.96	250.44
561.12	248.10
561.29	280.86
561.45	346.40
561.61	264.48
561.78	360.44
561.94	196.60
562.11	255.12
562.27	304.27
562.44	241.08
562.60	299.59
562.77	273.84
562.93	346.40
563.10	241.08
563.26	308.95
563.42	271.50
563.59	306.61
563.75	245.76
563.92	236.39
564.08	245.76
564.24	337.04
564.41	341.72
564.57	208.31
564.74	297.25
564.90	262.14
565.07	269.16
565.23	271.50
565.39	187.24
565.56	198.95
565.72	201.29
565.88	297.25
566.05	210.65
566.21	182.56
566.38	299.59
566.54	276.18
566.70	224.69
566.87	292.57
567.03	278.52
567.19	255.12
567.36	271.50
567.52	285.55
567.68	285.55
567.85	264.48
568.01	264.48
568.17	231.71
568.34	234.05
568.50	243.42
568.66	271.50
568.83	320.65
568.99	292.57
569.15	264.48
569.32	191.92
569.48	292.57
569.64	259.80
569.81	292.57
569.97	201.29
570.13	280.86
570.30	250.44
570.46	215.33
570.62	201.29
570.78	250.44
570.95	229.37
571.11	313.63
571.27	222.35
571.43	191.92
571.60	243.42
571.76	191.92
571.92	194.26
572.09	234.05
572.25	264.48
572.41	191.92
572.57	238.73
572.74	243.42
572.90	292.57
573.06	334.70
573.22	292.57
573.38	255.12
573.55	308.95
573.71	348.74
573.87	330.02
574.03	224.69
574.20	231.71
574.36	266.82
574.52	205.97
574.68	280.86
574.84	227.03
575.01	231.71
575.17	339.38
575.33	220.01
575.49	315.97
575.65	337.04
575.82	306.61
575.98	322.99
576.14	294.91
576.30	400.23
576.46	727.91
576.62	990.05
576.79	954.94
576.95	798.12
577.11	519.60
577.27	449.38
577.43	397.89
577.59	318.31
577.75	346.40
577.92	332.36
578.08	243.42
578.24	325.33
578.40	379.17
578.56	744.29
578.72	814.51
578.88	976.00
579.04	739.61
579.21	538.32
579.37	528.96
579.53	402.57
579.69	430.66
579.85	498.53
580.01	571.09
580.17	491.51
580.33	458.74
580.49	423.64
580.65	386.19
580.82	379.17
580.98	341.72
581.14	285.55
581.30	465.77
581.46	388.53
581.62	517.26
581.78	416.62
581.94	444.70
582.10	465.77
582.26	589.82
582.42	411.93
582.58	564.07
582.74	503.22
582.90	566.41
583.06	507.90
583.22	599.18
583.38	496.19
583.54	533.64
583.70	531.30
583.86	547.69
584.02	486.83
584.18	552.37
584.34	538.32
584.50	512.58
584.66	493.85
584.82	507.90
584.98	585.13
585.14	475.13
585.30	404.91
585.46	470.45
585.62	416.62
585.78	428.32
585.94	561.73
586.10	571.09
586.26	428.32
586.42	566.41
586.58	484.49
586.74	662.37
586.90	767.70
587.06	730.25
587.22	870.68
587.38	690.46
587.54	592.16
587.70	667.05
587.86	526.62
588.02	547.69
588.18	486.83
588.34	369.80
588.49	418.96
588.65	454.06
588.81	437.68
588.97	334.70
589.13	379.17
589.29	414.27
589.45	365.12
589.61	407.25
589.77	348.74
589.93	372.15
590.08	369.80
590.24	346.40
590.40	351.08
590.56	379.17
590.72	346.40
590.88	416.62
591.04	315.97
591.20	400.23
591.35	475.13
591.51	433.00
591.67	381.51
591.83	400.23
591.99	449.38
592.15	463.43
592.31	564.07
592.46	582.79
592.62	578.11
592.78	524.28
592.94	638.97
593.10	594.50
593.26	585.13
593.41	566.41
593.57	557.05
593.73	496.19
593.89	421.30
594.05	397.89
594.20	365.12
594.36	458.74
594.52	355.76
594.68	266.82
594.84	367.46
594.99	386.19
595.15	353.42
595.31	379.17
595.47	369.80
595.62	393.21
595.78	386.19
595.94	238.73
596.10	360.44
596.25	351.08
596.41	330.02
596.57	348.74
596.73	220.01
596.88	339.38
597.04	348.74
597.20	374.49
597.36	285.55
597.51	248.10
597.67	325.33
597.83	353.42
597.99	376.83
598.14	409.59
598.30	372.15
598.46	416.62
598.61	477.47
598.77	353.42
598.93	423.64
599.09	421.30
599.24	440.02
599.40	454.06
599.56	379.17
599.71	484.49
599.87	440.02
600.03	358.10
600.18	381.51
600.34	322.99
600.50	362.78
600.65	386.19
600.81	315.97
600.97	337.04
601.12	353.42
601.28	299.59
601.44	304.27
601.59	299.59
601.75	332.36
601.91	320.65
602.06	245.76
602.22	308.95
602.37	273.84
602.53	297.25
602.69	327.68
602.84	229.37
603.00	299.59
603.16	301.93
603.31	287.89
603.47	332.36
603.62	231.71
603.78	339.38
603.94	383.85
604.09	341.72
604.25	348.74
604.40	280.86
604.56	327.68
604.71	306.61
604.87	304.27
605.03	287.89
605.18	297.25
605.34	313.63
605.49	332.36
605.65	313.63
605.80	325.33
605.96	306.61
606.12	376.83
606.27	306.61
606.43	285.55
606.58	374.49
606.74	423.64
606.89	454.06
607.05	416.62
607.20	383.85
607.36	440.02
607.51	407.25
607.67	372.15
607.82	428.32
607.98	395.55
608.13	531.30
608.29	533.64
608.44	566.41
608.60	535.98
608.75	578.11
608.91	547.69
609.06	596.84
609.22	697.48
609.37	624.92
609.53	748.97
609.68	891.74
609.84	966.64
609.99	1036.86
610.15	1233.46
610.30	1547.09
610.46	1928.60
610.61	2303.09
610.76	2960.78
610.92	3578.68
611.07	3700.39
611.23	3918.06
611.38	3679.32
611.54	3206.53
611.69	2752.47
611.84	2319.47
612.00	2085.42
612.15	1671.14
612.31	1497.94
612.46	1401.98
612.62	1392.62
612.77	1203.04
612.92	1170.27
613.08	1149.20
613.23	1064.94
613.39	992.39
613.54	938.55
613.69	1001.75
613.85	1025.15
614.00	1048.56
614.15	1067.28
614.31	919.83
614.46	985.37
614.62	924.51
614.77	901.11
614.92	873.02
615.08	894.08
615.23	802.80
615.38	683.44
615.54	690.46
615.69	669.39
615.84	589.82
616.00	531.30
616.15	517.26
616.30	484.49
616.46	533.64
616.61	444.70
616.76	543.00
616.92	566.41
617.07	433.00
617.22	409.59
617.37	390.87
617.53	337.04
617.68	369.80
617.83	320.65
617.99	472.79
618.14	418.96
618.29	409.59
618.45	418.96
618.60	374.49
618.75	334.70
618.90	407.25
619.06	393.21
619.21	465.77
619.36	449.38
619.51	351.08
619.67	379.17
619.82	407.25
619.97	437.68
620.12	423.64
620.28	409.59
620.43	451.72
620.58	444.70
620.73	402.57
620.89	428.32
621.04	442.36
621.19	416.62
621.34	386.19
621.49	365.12
621.65	411.93
621.80	395.55
621.95	337.04
622.10	433.00
622.25	308.95
622.41	428.32
622.56	374.49
622.71	407.25
622.86	463.43
623.01	374.49
623.16	430.66
623.32	306.61
623.47	463.43
623.62	458.74
623.77	365.12
623.92	390.87
624.07	360.44
624.23	421.30
624.38	252.78
624.53	395.55
624.68	404.91
624.83	365.12
624.98	386.19
625.13	346.40
625.29	374.49
625.44	339.38
625.59	383.85
625.74	444.70
625.89	386.19
626.04	400.23
626.19	409.59
626.34	430.66
626.49	395.55
626.65	376.83
626.80	287.89
626.95	407.25
627.10	315.97
627.25	397.89
627.40	353.42
627.55	404.91
627.70	322.99
627.85	425.98
628.00	348.74
628.15	402.57
628.30	318.31
628.45	353.42
628.60	365.12
628.76	381.51
628.91	308.95
629.06	320.65
629.21	297.25
629.36	346.40
629.51	355.76
629.66	348.74
629.81	372.15
629.96	442.36
630.11	444.70
630.26	456.40
630.41	484.49
630.56	568.75
630.71	557.05
630.86	540.66
631.01	491.51
631.16	610.88
631.31	468.11
631.46	489.17
631.61	416.62
631.76	379.17
631.91	407.25
632.06	346.40
632.21	273.84
632.36	348.74
632.51	222.35
632.66	276.18
632.81	332.36
632.96	243.42
633.10	210.65
633.25	278.52
633.40	187.24
633.55	191.92
633.70	311.29
633.85	210.65
634.00	227.03
634.15	227.03
634.30	276.18
634.45	227.03
634.60	280.86
634.75	159.16
634.90	215.33
635.05	255.12
635.19	283.20
635.34	208.31
635.49	297.25
635.64	236.39
635.79	220.01
635.94	217.67
636.09	224.69
636.24	238.73
636.39	236.39
636.53	201.29
636.68	180.22
636.83	184.90
636.98	269.16
637.13	140.43
637.28	217.67
637.43	280.86
637.57	252.78
637.72	212.99
637.87	236.39
638.02	196.60
638.17	173.20
638.32	168.52
638.46	220.01
638.61	208.31
638.76	297.25
638.91	210.65
639.06	215.33
639.20	278.52
639.35	220.01
639.50	224.69
639.65	262.14
639.80	273.84
639.94	217.67
640.09	264.48
640.24	159.16
640.39	292.57
640.54	184.90
640.68	222.35
640.83	269.16
640.98	140.43
641.13	222.35
641.27	182.56
641.42	131.07
641.57	262.14
641.72	201.29
641.86	220.01
642.01	227.03
642.16	266.82
642.31	196.60
642.45	208.31
642.60	184.90
642.75	175.54
642.90	198.95
643.04	198.95
643.19	124.05
643.34	189.58
643.48	327.68
643.63	210.65
643.78	271.50
643.93	234.05
644.07	234.05
644.22	161.50
644.37	234.05
644.51	203.63
644.66	257.46
644.81	142.77
644.95	262.14
645.10	184.90
645.25	187.24
645.39	224.69
645.54	255.12
645.69	264.48
645.83	173.20
645.98	234.05
646.13	133.41
646.27	224.69
646.42	152.13
646.57	131.07
646.71	229.37
646.86	184.90
647.00	177.88
647.15	180.22
647.30	208.31
647.44	196.60
647.59	100.64
647.74	135.75
647.88	287.89
648.03	222.35
648.17	166.18
648.32	184.90
648.47	212.99
648.61	241.08
648.76	198.95
648.90	252.78
649.05	170.86
649.20	224.69
649.34	259.80
649.49	175.54
649.63	280.86
649.78	215.33
649.92	250.44
650.07	231.71
650.21	290.23
650.36	334.70
650.51	245.76
650.65	320.65
650.80	180.22
650.94	196.60
651.09	231.71
651.23	248.10
651.38	159.16
651.52	222.35
651.67	166.18
651.81	308.95
651.96	187.24
652.10	234.05
652.25	156.82
652.39	234.05
652.54	196.60
652.68	283.20
652.83	262.14
652.97	215.33
653.12	217.67
653.26	140.43
653.41	205.97
653.55	266.82
653.70	161.50
653.84	142.77
653.99	180.22
654.13	161.50
654.27	231.71
654.42	222.35
654.56	182.56
654.71	243.42
654.85	163.84
655.00	114.69
655.14	198.95
655.29	102.98
655.43	121.71
655.57	161.50
655.72	147.45
655.86	147.45
656.01	93.62
656.15	128.73
656.30	255.12
656.44	142.77
656.58	152.13
656.73	154.48
656.87	147.45
657.01	217.67
657.16	264.48
657.30	154.48
657.45	173.20
657.59	177.88
657.73	189.58
657.88	166.18
658.02	276.18
658.16	156.82
658.31	217.67
658.45	145.11
658.60	222.35
658.74	250.44
658.88	154.48
659.03	145.11
659.17	140.43
659.31	166.18
659.46	173.20
659.60	187.24
659.74	187.24
659.89	252.78
660.03	168.52
660.17	180.22
660.32	224.69
660.46	168.52
660.60	236.39
660.74	259.80
660.89	142.77
661.03	177.88
661.17	161.50
661.32	234.05
661.46	243.42
661.60	168.52
661.74	234.05
661.89	238.73
662.03	245.76
662.17	238.73
662.31	203.63
662.46	215.33
662.60	210.65
662.74	224.69
662.88	215.33
663.03	138.09
663.17	161.50
663.31	168.52
663.45	119.37
663.60	198.95
663.74	201.29
663.88	131.07
664.02	215.33
664.17	93.62
664.31	168.52
664.45	227.03
664.59	212.99
664.73	152.13
664.88	201.29
665.02	177.88
665.16	182.56
665.30	191.92
665.44	105.32
665.59	212.99
665.73	196.60
665.87	175.54
666.01	236.39
666.15	220.01
666.29	65.54
666.44	161.50
666.58	163.84
666.72	182.56
666.86	194.26
667.00	229.37
667.14	198.95
667.28	161.50
667.43	145.11
667.57	210.65
667.71	187.24
667.85	201.29
667.99	212.99
668.13	149.79
668.27	184.90
668.41	191.92
668.56	187.24
668.70	255.12
668.84	182.56
668.98	212.99
669.12	133.41
669.26	175.54
669.40	203.63
669.54	259.80
669.68	93.62
669.82	175.54
669.96	182.56
670.10	191.92
670.25	142.77
670.39	208.31
670.53	156.82
670.67	145.11
670.81	217.67
670.95	196.60
671.09	177.88
671.23	217.67
671.37	189.58
671.51	140.43
671.65	210.65
671.79	187.24
671.93	198.95
672.07	224.69
672.21	236.39
672.35	250.44
672.49	196.60
672.63	250.44
672.77	205.97
672.91	191.92
673.05	187.24
673.19	166.18
673.33	210.65
673.47	212.99
673.61	126.39
673.75	170.86
673.89	196.60
674.03	182.56
674.17	152.13
674.31	175.54
674.45	182.56
674.59	152.13
674.73	182.56
674.87	177.88
675.01	248.10
675.15	149.79
675.29	264.48
675.43	196.60
675.56	175.54
675.70	147.45
675.84	105.32
675.98	182.56
676.12	121.71
676.26	189.58
676.40	95.96
676.54	149.79
676.68	201.29
676.82	201.29
676.96	201.29
677.10	154.48
677.23	173.20
677.37	145.11
677.51	166.18
677.65	220.01
677.79	145.11
677.93	212.99
678.07	182.56
678.21	135.75
678.34	152.13
678.48	147.45
678.62	208.31
678.76	140.43
678.90	152.13
679.04	191.92
679.18	166.18
679.31	135.75
679.45	112.35
679.59	161.50
679.73	147.45
679.87	142.77
680.00	121.71
680.14	135.75
680.28	142.77
680.42	110.01
680.56	313.63
680.70	142.77
680.83	147.45
680.97	191.92
681.11	168.52
681.25	248.10
681.39	112.35
681.52	152.13
681.66	126.39
681.80	156.82
681.94	77.24
682.07	177.88
682.21	117.03
682.35	84.26
682.49	149.79
682.62	191.92
682.76	168.52
682.90	88.94
683.04	173.20
683.17	149.79
683.31	191.92
683.45	154.48
683.59	180.22
683.72	184.90
683.86	147.45
684.00	152.13
684.13	212.99
684.27	145.11
684.41	131.07
684.55	105.32
684.68	124.05
684.82	147.45
684.96	149.79
685.09	175.54
685.23	74.90
685.37	161.50
685.50	191.92
685.64	173.20
685.78	93.62
685.91	117.03
686.05	173.20
686.19	126.39
686.32	121.71
686.46	175.54
686.60	98.30
686.73	187.24
686.87	234.05
687.01	91.28
687.14	110.01
687.28	149.79
687.42	121.71
687.55	173.20
687.69	175.54
687.82	166.18
687.96	180.22
688.10	224.69
688.23	175.54
688.37	187.24
688.50	180.22
688.64	138.09
688.78	131.07
688.91	154.48
689.05	145.11
689.18	161.50
689.32	110.01
689.46	131.07
689.59	180.22
689.73	248.10
689.86	112.35
690.00	77.24
690.13	72.56
690.27	140.43
690.41	161.50
690.54	276.18
690.68	119.37
690.81	175.54
690.95	212.99
691.08	140.43
691.22	131.07
691.35	149.79
691.49	114.69
691.62	112.35
691.76	145.11
691.89	212.99
692.03	67.88
692.16	147.45
692.30	173.20
692.43	72.56
692.57	135.75
692.70	65.54
692.84	107.66
692.97	156.82
693.11	112.35
693.24	182.56
693.38	84.26
693.51	142.77
693.65	131.07
693.78	196.60
693.92	131.07
694.05	156.82
694.19	173.20
694.32	170.86
694.45	128.73
694.59	168.52
694.72	65.54
694.86	138.09
694.99	142.77
695.13	133.41
695.26	67.88
695.39	159.16
695.53	194.26
695.66	74.90
695.80	173.20
695.93	145.11
696.07	133.41
696.20	145.11
696.33	159.16
696.47	161.50
696.60	119.37
696.73	135.75
696.87	110.01
697.00	177.88
697.14	131.07
697.27	184.90
697.40	168.52
697.54	117.03
697.67	126.39
697.80	161.50
697.94	60.85
698.07	114.69
698.21	110.01
698.34	142.77
698.47	107.66
698.61	112.35
698.74	135.75
698.87	198.95
699.01	152.13
699.14	191.92
699.27	117.03
699.40	205.97
699.54	184.90
699.67	156.82
699.80	88.94
699.94	161.50
700.07	102.98
700.20	182.56
700.34	131.07
700.47	107.66
700.60	128.73
700.73	117.03
700.87	222.35
701.00	147.45
701.13	119.37
701.26	98.30
701.40	81.92
701.53	98.30
701.66	138.09
701.79	46.81
701.93	88.94
702.06	243.42
702.19	177.88
702.32	107.66
702.46	67.88
702.59	126.39
702.72	140.43
702.85	145.11
702.99	135.75
703.12	189.58
703.25	107.66
703.38	105.32
703.51	128.73
703.65	100.64
703.78	142.77
703.91	191.92
704.04	180.22
704.17	133.41
704.31	142.77
704.44	88.94
704.57	121.71
704.70	112.35
704.83	170.86
704.96	168.52
705.10	156.82
705.23	133.41
>>>>>End Processed Spectral Data<<<<<
