SpectraSuite Data File
++++++++++++++++++++++++++++++++++++
Date: Fri Oct 04 11:42:15 GMT-05:00 2013
User: price-jones
Dark Spectrum Present: No
Reference Spectrum Present: No
Number of Sampled Component Spectra: 1
Spectrometers: USB2+H05261
Integration Time (usec): 100000 (USB2+H05261)
Spectra Averaged: 1 (USB2+H05261)
Boxcar Smoothing: 0 (USB2+H05261)
Correct for Electrical Dark: No (USB2+H05261)
Strobe/Lamp Enabled: No (USB2+H05261)
Correct for Detector Non-linearity: No (USB2+H05261)
Correct for Stray Light: No (USB2+H05261)
Number of Pixels in Processed Spectrum: 2048
>>>>>Begin Processed Spectral Data<<<<<
365.73	0.00
365.92	0.00
366.12	0.00
366.32	0.00
366.52	0.00
366.72	0.00
366.91	0.00
367.11	0.00
367.31	0.00
367.51	0.00
367.70	0.00
367.90	0.00
368.10	0.00
368.30	0.00
368.49	0.00
368.69	2.34
368.89	0.00
369.09	0.00
369.28	0.00
369.48	0.00
369.68	0.00
369.87	0.00
370.07	0.00
370.27	74.90
370.47	100.64
370.66	280.86
370.86	346.40
371.06	290.23
371.25	290.23
371.45	245.76
371.65	339.38
371.84	297.25
372.04	306.61
372.24	318.31
372.44	276.18
372.63	301.93
372.83	367.46
373.03	315.97
373.22	280.86
373.42	311.29
373.62	276.18
373.81	308.95
374.01	337.04
374.21	360.44
374.40	362.78
374.60	330.02
374.79	320.65
374.99	397.89
375.19	395.55
375.38	423.64
375.58	330.02
375.78	393.21
375.97	416.62
376.17	414.27
376.37	369.80
376.56	355.76
376.76	393.21
376.95	388.53
377.15	507.90
377.35	440.02
377.54	437.68
377.74	489.17
377.93	425.98
378.13	463.43
378.33	418.96
378.52	454.06
378.72	477.47
378.91	362.78
379.11	381.51
379.31	355.76
379.50	390.87
379.70	433.00
379.89	411.93
380.09	421.30
380.28	482.15
380.48	557.05
380.68	550.03
380.87	404.91
381.07	449.38
381.26	447.04
381.46	416.62
381.65	351.08
381.85	341.72
382.04	353.42
382.24	367.46
382.43	325.33
382.63	318.31
382.83	388.53
383.02	404.91
383.22	365.12
383.41	278.52
383.61	313.63
383.80	358.10
384.00	355.76
384.19	425.98
384.39	435.34
384.58	437.68
384.78	500.87
384.97	411.93
385.17	409.59
385.36	433.00
385.56	404.91
385.75	367.46
385.95	414.27
386.14	383.85
386.34	393.21
386.53	386.19
386.72	442.36
386.92	526.62
387.11	395.55
387.31	547.69
387.50	528.96
387.70	521.94
387.89	486.83
388.09	414.27
388.28	418.96
388.48	390.87
388.67	440.02
388.86	512.58
389.06	538.32
389.25	596.84
389.45	624.92
389.64	559.39
389.84	521.94
390.03	519.60
390.22	535.98
390.42	524.28
390.61	571.09
390.81	547.69
391.00	603.86
391.19	699.82
391.39	660.03
391.58	545.34
391.78	514.92
391.97	554.71
392.16	566.41
392.36	454.06
392.55	393.21
392.75	334.70
392.94	292.57
393.13	332.36
393.33	322.99
393.52	299.59
393.71	547.69
393.91	430.66
394.10	564.07
394.29	535.98
394.49	543.00
394.68	650.67
394.88	699.82
395.07	648.33
395.26	674.07
395.46	622.58
395.65	678.76
395.84	589.82
396.04	535.98
396.23	402.57
396.42	365.12
396.62	339.38
396.81	430.66
397.00	547.69
397.19	575.77
397.39	634.29
397.58	772.38
397.77	833.23
397.97	692.80
398.16	748.97
398.35	770.04
398.55	727.91
398.74	814.51
398.93	807.48
399.12	748.97
399.32	819.19
399.51	840.25
399.70	809.83
399.90	840.25
400.09	901.11
400.28	849.61
400.47	812.17
400.67	968.98
400.86	936.21
401.05	945.58
401.24	945.58
401.44	908.13
401.63	1015.79
401.82	922.17
402.01	931.53
402.21	891.74
402.40	987.71
402.59	884.72
402.78	912.81
402.97	884.72
403.17	990.05
403.36	929.19
403.55	978.34
403.74	1020.47
403.93	1039.20
404.13	1025.15
404.32	1001.75
404.51	1074.31
404.70	1048.56
404.89	1006.43
405.09	1036.86
405.28	891.74
405.47	931.53
405.66	919.83
405.85	866.00
406.05	844.93
406.24	807.48
406.43	985.37
406.62	987.71
406.81	1050.90
407.00	1018.13
407.20	873.02
407.39	971.32
407.58	959.62
407.77	957.28
407.96	1011.11
408.15	1027.50
408.34	952.60
408.54	968.98
408.73	1057.92
408.92	985.37
409.11	1020.47
409.30	1062.60
409.49	954.94
409.68	837.91
409.87	868.34
410.07	936.21
410.26	1057.92
410.45	1060.26
410.64	992.39
410.83	1083.67
411.02	1043.88
411.21	1170.27
411.40	1135.16
411.59	1111.75
411.78	1062.60
411.98	1137.50
412.17	1053.24
412.36	1069.62
412.55	1074.31
412.74	1123.46
412.93	1200.69
413.12	1046.22
413.31	1174.95
413.50	1207.72
413.69	1174.95
413.88	1128.14
414.07	1252.19
414.26	1181.97
414.45	1156.22
414.64	1235.80
414.83	1121.12
415.02	1097.71
415.22	1102.39
415.41	1193.67
415.60	1163.25
415.79	1240.48
415.98	1233.46
416.17	1247.51
416.36	1238.14
416.55	1172.61
416.74	1172.61
416.93	1139.84
417.12	1107.07
417.31	1121.12
417.50	1188.99
417.69	1383.26
417.88	1242.82
418.07	1090.69
418.26	1116.44
418.45	1167.93
418.64	1256.87
418.83	1217.08
419.02	1242.82
419.21	1240.48
419.39	1196.01
419.58	1081.33
419.77	1210.06
419.96	1167.93
420.15	1256.87
420.34	1277.93
420.53	1331.76
420.72	1322.40
420.91	1299.00
421.10	1369.21
421.29	1334.11
421.48	1212.40
421.67	1275.59
421.86	1275.59
422.05	1193.67
422.24	1064.94
422.43	1210.06
422.61	1181.97
422.80	1327.08
422.99	1266.23
423.18	1156.22
423.37	1242.82
423.56	1252.19
423.75	1289.64
423.94	1210.06
424.13	1233.46
424.32	1184.31
424.50	1170.27
424.69	1224.10
424.88	1193.67
425.07	1193.67
425.26	1160.91
425.45	1074.31
425.64	1123.46
425.83	1254.53
426.01	1200.69
426.20	1177.29
426.39	1083.67
426.58	1104.73
426.77	1076.65
426.96	1158.57
427.15	1116.44
427.33	1228.78
427.52	1193.67
427.71	1177.29
427.90	1207.72
428.09	1160.91
428.28	1062.60
428.46	1041.54
428.65	1107.07
428.84	1144.52
429.03	1083.67
429.22	1025.15
429.40	1048.56
429.59	945.58
429.78	882.38
429.97	858.98
430.16	812.17
430.34	809.83
430.53	854.30
430.72	926.85
430.91	1008.77
431.10	1135.16
431.28	1317.72
431.47	1406.66
431.66	1390.28
431.85	1170.27
432.03	1226.44
432.22	1212.40
432.41	1224.10
432.60	1416.02
432.79	1406.66
432.97	1455.81
433.16	1263.89
433.35	1224.10
433.54	1149.20
433.72	1086.01
433.91	1074.31
434.10	1280.27
434.28	1214.74
434.47	1364.53
434.66	1373.89
434.85	1385.60
435.03	1427.73
435.22	1741.36
435.41	2113.50
435.59	2239.89
435.78	1977.75
435.97	1762.42
436.16	1530.71
436.34	1460.49
436.53	1451.13
436.72	1378.58
436.90	1299.00
437.09	1383.26
437.28	1341.13
437.46	1289.64
437.65	1378.58
437.84	1275.59
438.02	1299.00
438.21	1156.22
438.40	1254.53
438.58	1324.74
438.77	1392.62
438.96	1366.87
439.14	1437.09
439.33	1493.26
439.52	1437.09
439.70	1397.30
439.89	1394.96
440.08	1376.24
440.26	1327.08
440.45	1497.94
440.63	1479.22
440.82	1509.65
441.01	1572.84
441.19	1547.09
441.38	1610.29
441.57	1619.65
441.75	1673.48
441.94	1591.56
442.12	1589.22
442.31	1619.65
442.50	1610.29
442.68	1565.82
442.87	1671.14
443.05	1509.65
443.24	1631.35
443.43	1561.14
443.61	1619.65
443.80	1654.76
443.98	1603.27
444.17	1577.52
444.35	1657.10
444.54	1668.80
444.73	1612.63
444.91	1621.99
445.10	1561.14
445.28	1483.90
445.47	1467.52
445.65	1509.65
445.84	1462.83
446.02	1549.43
446.21	1652.42
446.39	1600.93
446.58	1654.76
446.77	1687.53
446.95	1577.52
447.14	1682.85
447.32	1762.42
447.51	1703.91
447.69	1577.52
447.88	1511.99
448.06	1614.97
448.25	1699.23
448.43	1703.91
448.62	1596.25
448.80	1631.35
448.99	1629.01
449.17	1673.48
449.36	1643.06
449.54	1746.04
449.73	1769.44
449.91	1860.73
450.10	1750.72
450.28	1830.30
450.46	1865.41
450.65	1867.75
450.83	1692.21
451.02	1664.12
451.20	1720.29
451.39	1715.61
451.57	1715.61
451.76	1680.50
451.94	1781.15
452.13	1682.85
452.31	1715.61
452.49	1607.95
452.68	1561.14
452.86	1636.03
453.05	1626.67
453.23	1680.50
453.42	1605.61
453.60	1722.63
453.78	1785.83
453.97	1671.14
454.15	1750.72
454.34	1708.59
454.52	1746.04
454.70	1591.56
454.89	1739.02
455.07	1703.91
455.26	1727.32
455.44	1797.53
455.62	1755.40
455.81	1764.76
455.99	1820.94
456.17	1767.10
456.36	1769.44
456.54	1823.28
456.73	1762.42
456.91	1874.77
457.09	1870.09
457.28	1804.55
457.46	1720.29
457.64	1769.44
457.83	1867.75
458.01	1708.59
458.19	1818.60
458.38	1727.32
458.56	1727.32
458.74	1732.00
458.93	1823.28
459.11	1799.87
459.29	1830.30
459.48	1785.83
459.66	1834.98
459.84	1757.74
460.03	1830.30
460.21	1753.06
460.39	1734.34
460.57	1818.60
460.76	1806.89
460.94	1928.60
461.12	1952.01
461.31	1804.55
461.49	1783.49
461.67	1837.32
461.85	1921.58
462.04	1837.32
462.22	2115.84
462.40	1952.01
462.59	1846.68
462.77	1912.22
462.95	1867.75
463.13	1839.66
463.32	1879.45
463.50	1886.47
463.68	1846.68
463.86	1881.79
464.05	1792.85
464.23	1778.81
464.41	1717.95
464.59	1687.53
464.78	1736.68
464.96	1818.60
465.14	1715.61
465.32	1774.13
465.50	1799.87
465.69	1802.21
465.87	1748.38
466.05	1767.10
466.23	1717.95
466.41	1746.04
466.60	1778.81
466.78	1783.49
466.96	1884.13
467.14	1860.73
467.32	1816.26
467.51	1769.44
467.69	1804.55
467.87	1809.23
468.05	1830.30
468.23	1806.89
468.41	1820.94
468.60	1769.44
468.78	1750.72
468.96	1783.49
469.14	1865.41
469.32	1928.60
469.50	1799.87
469.69	1837.32
469.87	1732.00
470.05	1813.92
470.23	1671.14
470.41	1717.95
470.59	1802.21
470.77	1781.15
470.95	1771.79
471.14	1863.07
471.32	1778.81
471.50	2031.58
471.68	2001.16
471.86	2008.18
472.04	1923.92
472.22	1952.01
472.40	1870.09
472.58	1900.52
472.77	1785.83
472.95	1816.26
473.13	1909.88
473.31	1879.45
473.49	1795.19
473.67	1909.88
473.85	1982.43
474.03	2024.56
474.21	2024.56
474.39	1998.82
474.57	2120.53
474.75	1930.94
474.93	1947.33
475.12	1952.01
475.30	1926.26
475.48	1926.26
475.66	2010.52
475.84	1874.77
476.02	2040.95
476.20	1921.58
476.38	1935.62
476.56	2017.54
476.74	1970.73
476.92	2050.31
477.10	2111.16
477.28	2244.57
477.46	2069.03
477.64	2090.10
477.82	2157.97
478.00	2221.17
478.18	2148.61
478.36	2050.31
478.54	2118.18
478.72	2017.54
478.90	2202.44
479.08	2312.45
479.26	2338.20
479.44	2190.74
479.62	2275.00
479.80	2204.78
479.98	2265.64
480.16	2244.57
480.34	2272.66
480.52	2251.60
480.70	2256.28
480.88	2314.79
481.06	2431.82
481.24	2368.62
481.41	2377.98
481.59	2427.14
481.77	2396.71
481.95	2523.10
482.13	2443.52
482.31	2361.60
482.49	2459.90
482.67	2448.20
482.85	2392.03
483.03	2420.11
483.21	2579.27
483.39	2548.84
483.57	2504.37
483.74	2548.84
483.92	2408.41
484.10	2438.84
484.28	2410.75
484.46	2628.42
484.64	2576.93
484.82	2520.76
485.00	2480.97
485.18	2518.42
485.35	2356.92
485.53	2265.64
485.71	2120.53
485.89	2115.84
486.07	2176.70
486.25	2331.17
486.43	2471.61
486.61	2499.69
486.78	2483.31
486.96	2511.39
487.14	2654.17
487.32	2626.08
487.50	2623.74
487.68	2750.13
487.85	2806.30
488.03	2813.32
488.21	2818.00
488.39	2656.51
488.57	2801.62
488.75	2605.02
488.92	2899.92
489.10	2876.52
489.28	3035.67
489.46	3002.91
489.64	3052.06
489.81	3019.29
489.99	2853.11
490.17	3005.25
490.35	3162.06
490.53	3016.95
490.70	2867.16
490.88	2974.82
491.06	3002.91
491.24	2967.80
491.41	3091.85
491.59	2806.30
491.77	2890.56
491.95	2878.86
492.13	2810.98
492.30	2988.86
492.48	3054.40
492.66	3187.81
492.84	3243.98
493.01	3059.08
493.19	3164.40
493.37	3119.93
493.54	2942.05
493.72	3087.17
493.90	3239.30
494.08	3213.56
494.25	3356.33
494.43	3351.65
494.61	3304.84
494.79	3288.45
494.96	3279.09
495.14	3288.45
495.32	3098.87
495.49	3122.27
495.67	3206.53
495.85	3286.11
496.02	3403.14
496.20	3330.58
496.38	3302.50
496.55	3346.97
496.73	3410.16
496.91	3337.60
497.09	3440.59
497.26	3461.65
497.44	3396.12
497.62	3290.79
497.79	3229.94
497.97	3176.11
498.14	3059.08
498.32	3178.45
498.50	3295.47
498.67	3274.41
498.85	3459.31
499.03	3536.55
499.20	3611.45
499.38	3454.63
499.56	3426.54
499.73	3379.73
499.91	3297.81
500.08	3391.44
500.26	3234.62
500.44	3197.17
500.61	3307.18
500.79	3241.64
500.97	3414.84
501.14	3272.07
501.32	3148.02
501.49	3166.74
501.67	3143.34
501.84	3218.24
502.02	3323.56
502.20	3351.65
502.37	3304.84
502.55	3353.99
502.72	3323.56
502.90	3499.10
503.07	3269.73
503.25	3419.52
503.43	3290.79
503.60	3112.91
503.78	3119.93
503.95	3108.23
504.13	3112.91
504.30	3400.80
504.48	3515.48
504.65	3407.82
504.83	3473.36
505.01	3456.97
505.18	3400.80
505.36	3508.46
505.53	3487.40
505.71	3452.29
505.88	3681.66
506.06	3403.14
506.23	3599.74
506.41	3417.18
506.58	3431.23
506.76	3426.54
506.93	3410.16
507.11	3323.56
507.28	3435.91
507.46	3309.52
507.63	3176.11
507.81	3262.71
507.98	3311.86
508.16	3461.65
508.33	3524.85
508.50	3499.10
508.68	3613.79
508.85	3742.52
509.03	3555.27
509.20	3651.24
509.38	3574.00
509.55	3501.44
509.73	3419.52
509.90	3665.28
510.08	3506.12
510.25	3588.04
510.42	3552.93
510.60	3520.17
510.77	3548.25
510.95	3606.77
511.12	3578.68
511.30	3688.68
511.47	3812.73
511.64	3857.20
511.82	3681.66
511.99	3588.04
512.17	3630.17
512.34	3520.17
512.51	3499.10
512.69	3564.64
512.86	3606.77
513.04	3618.47
513.21	3625.49
513.38	3492.08
513.56	3445.27
513.73	3421.86
513.90	3382.07
514.08	3515.48
514.25	3585.70
514.43	3524.85
514.60	3515.48
514.77	3585.70
514.95	3655.92
515.12	3632.51
515.29	3520.17
515.47	3639.53
515.64	3688.68
515.81	3667.62
515.99	3400.80
516.16	3272.07
516.33	3047.38
516.51	3098.87
516.68	2895.24
516.85	2888.22
517.03	2895.24
517.20	3194.83
517.37	3382.07
517.54	3550.59
517.72	3428.88
517.89	3220.58
518.06	2967.80
518.24	2988.86
518.41	3396.12
518.58	3389.10
518.75	3365.69
518.93	3311.86
519.10	3332.92
519.27	3517.83
519.45	3527.19
519.62	3583.36
519.79	3712.09
519.96	3637.19
520.14	3494.42
520.31	3459.31
520.48	3461.65
520.65	3543.57
520.83	3606.77
521.00	3637.19
521.17	3559.95
521.34	3590.38
521.52	3564.64
521.69	3684.00
521.86	3559.95
522.03	3730.81
522.20	3531.87
522.38	3372.71
522.55	3489.74
522.72	3456.97
522.89	3599.74
523.07	3667.62
523.24	3524.85
523.41	3602.08
523.58	3742.52
523.75	3801.03
523.92	3735.50
524.10	3794.01
524.27	3772.94
524.44	3681.66
524.61	3744.86
524.78	3541.23
524.96	3627.83
525.13	3716.77
525.30	3590.38
525.47	3751.88
525.64	3761.24
525.81	3658.26
525.98	3529.53
526.16	3260.37
526.33	3187.81
526.50	3173.77
526.67	3173.77
526.84	3300.16
527.01	3229.94
527.18	3346.97
527.36	3669.96
527.53	3653.58
527.70	3658.26
527.87	3510.80
528.04	3625.49
528.21	3475.70
528.38	3770.60
528.55	3798.69
528.72	3761.24
528.89	3885.29
529.07	3786.99
529.24	3679.32
529.41	3684.00
529.58	3627.83
529.75	3520.17
529.92	3712.09
530.09	3538.89
530.26	3691.02
530.43	3695.71
530.60	3644.21
530.77	3772.94
530.94	3925.08
531.11	3838.48
531.28	3742.52
531.46	3564.64
531.63	3857.20
531.80	3702.73
531.97	3632.51
532.14	3669.96
532.31	3449.95
532.48	3370.37
532.65	3346.97
532.82	3456.97
532.99	3433.57
533.16	3637.19
533.33	3719.11
533.50	3815.07
533.67	3421.86
533.84	3557.61
534.01	3620.81
534.18	3471.01
534.35	3651.24
534.52	3597.40
534.69	3744.86
534.86	3613.79
535.03	3791.67
535.20	3726.13
535.37	3796.35
535.54	3794.01
535.71	3836.14
535.88	3796.35
536.05	3712.09
536.22	3618.47
536.38	3616.13
536.55	3623.15
536.72	3571.66
536.89	3595.06
537.06	3571.66
537.23	3684.00
537.40	3796.35
537.57	3679.32
537.74	3822.09
537.91	3791.67
538.08	3679.32
538.25	3566.98
538.42	3808.05
538.59	3698.05
538.75	3653.58
538.92	3728.47
539.09	3712.09
539.26	3599.74
539.43	3716.77
539.60	3660.60
539.77	3817.41
539.94	3702.73
540.11	3688.68
540.28	3658.26
540.44	3712.09
540.61	3735.50
540.78	3714.43
540.95	3992.95
541.12	4107.64
541.29	4156.79
541.46	4365.10
541.62	4351.06
541.79	4273.82
541.96	4283.18
542.13	4074.87
542.30	4194.24
542.47	4217.65
542.63	4072.53
542.80	4117.00
542.97	4053.81
543.14	3976.57
543.31	4039.76
543.48	4011.68
543.64	4189.56
543.81	4250.41
543.98	4278.50
544.15	4180.20
544.32	3911.04
544.48	4161.47
544.65	4070.19
544.82	4196.58
544.99	4159.13
545.16	4025.72
545.32	4065.51
545.49	4613.20
545.66	5394.93
545.83	5626.65
546.00	5467.49
546.16	4629.58
546.33	4449.36
546.50	4187.22
546.67	4060.83
546.83	3925.08
547.00	4074.87
547.17	3786.99
547.34	3761.24
547.50	3712.09
547.67	3880.61
547.84	3967.21
548.00	3859.54
548.17	3878.27
548.34	3962.53
548.51	3887.63
548.67	3772.94
548.84	3887.63
549.01	3786.99
549.18	3833.80
549.34	3796.35
549.51	3758.90
549.68	3723.79
549.84	3754.22
550.01	3632.51
550.18	3686.34
550.34	3620.81
550.51	3669.96
550.68	3606.77
550.84	3604.42
551.01	3604.42
551.18	3515.48
551.34	3538.89
551.51	3719.11
551.68	3684.00
551.84	3791.67
552.01	3581.02
552.18	3611.45
552.34	3501.44
552.51	3386.76
552.68	3536.55
552.84	3492.08
553.01	3583.36
553.18	3545.91
553.34	3597.40
553.51	3597.40
553.67	3475.70
553.84	3529.53
554.01	3346.97
554.17	3456.97
554.34	3616.13
554.51	3466.33
554.67	3592.72
554.84	3550.59
555.00	3482.72
555.17	3496.76
555.33	3463.99
555.50	3466.33
555.67	3370.37
555.83	3344.63
556.00	3353.99
556.16	3475.70
556.33	3346.97
556.50	3358.67
556.66	3321.22
556.83	3419.52
556.99	3286.11
557.16	3302.50
557.32	3316.54
557.49	3382.07
557.65	3309.52
557.82	3368.03
557.98	3478.04
558.15	3269.73
558.32	3300.16
558.48	3187.81
558.65	3232.28
558.81	3286.11
558.98	3183.13
559.14	3133.98
559.31	3248.66
559.47	3393.78
559.64	3274.41
559.80	3124.62
559.97	3173.77
560.13	3229.94
560.30	3220.58
560.46	3356.33
560.63	3368.03
560.79	3412.50
560.96	3466.33
561.12	3180.79
561.29	3136.32
561.45	3136.32
561.61	3173.77
561.78	3400.80
561.94	3218.24
562.11	3236.96
562.27	3199.51
562.44	3325.90
562.60	3232.28
562.77	3248.66
562.93	3365.69
563.10	3396.12
563.26	3288.45
563.42	3351.65
563.59	3197.17
563.75	3201.85
563.92	3456.97
564.08	3150.36
564.24	3166.74
564.41	3173.77
564.57	3206.53
564.74	3157.38
564.90	3220.58
565.07	3213.56
565.23	3208.87
565.39	3063.76
565.56	3019.29
565.72	3033.33
565.88	3021.63
566.05	3112.91
566.21	3119.93
566.38	3068.44
566.54	3190.15
566.70	3112.91
566.87	3148.02
567.03	3229.94
567.19	3145.68
567.36	3166.74
567.52	3311.86
567.68	3129.30
567.85	3096.53
568.01	2949.08
568.17	2881.20
568.34	2810.98
568.50	2949.08
568.66	2832.05
568.83	2974.82
568.99	2960.78
569.15	3007.59
569.32	2958.44
569.48	2972.48
569.64	2860.13
569.81	2981.84
569.97	2946.73
570.13	2899.92
570.30	2963.12
570.46	2862.48
570.62	2829.71
570.78	2827.37
570.95	2771.19
571.11	2881.20
571.27	2944.39
571.43	2881.20
571.60	2890.56
571.76	3042.70
571.92	2885.88
572.09	2963.12
572.25	2937.37
572.41	2869.50
572.57	2942.05
572.74	2937.37
572.90	2963.12
573.06	2906.95
573.22	2986.52
573.38	2967.80
573.55	2888.22
573.71	3045.04
573.87	2930.35
574.03	2928.01
574.20	2874.18
574.36	2885.88
574.52	2960.78
574.68	2960.78
574.84	2841.41
575.01	2857.79
575.17	2930.35
575.33	2855.45
575.49	2902.26
575.65	2867.16
575.82	2792.26
575.98	2890.56
576.14	2960.78
576.30	2958.44
576.46	2981.84
576.62	3199.51
576.79	3370.37
576.95	3272.07
577.11	2963.12
577.27	2942.05
577.43	2925.67
577.59	2979.50
577.75	2745.45
577.92	2801.62
578.08	2867.16
578.24	2768.85
578.40	2956.10
578.56	3042.70
578.72	3283.77
578.88	3316.54
579.04	3213.56
579.21	2874.18
579.37	2937.37
579.53	2939.71
579.69	3136.32
579.85	2939.71
580.01	3061.42
580.17	2974.82
580.33	2911.63
580.49	2925.67
580.65	2986.52
580.82	2939.71
580.98	2981.84
581.14	2906.95
581.30	2930.35
581.46	3026.31
581.62	3002.91
581.78	2874.18
581.94	2995.89
582.10	2937.37
582.26	3129.30
582.42	2888.22
582.58	3026.31
582.74	3033.33
582.90	2986.52
583.06	3091.85
583.22	2913.97
583.38	2895.24
583.54	2951.42
583.70	3000.57
583.86	2951.42
584.02	3005.25
584.18	3049.72
584.34	2993.55
584.50	2930.35
584.66	2918.65
584.82	2899.92
584.98	3023.97
585.14	2944.39
585.30	2911.63
585.46	2829.71
585.62	2930.35
585.78	2801.62
585.94	2761.83
586.10	2775.88
586.26	2862.48
586.42	2862.48
586.58	2904.60
586.74	2920.99
586.90	3033.33
587.06	3016.95
587.22	3028.65
587.38	2834.39
587.54	2825.03
587.70	2801.62
587.86	2616.72
588.02	2743.11
588.18	2495.01
588.34	2413.09
588.49	2106.48
588.65	2146.27
588.81	2108.82
588.97	2115.84
589.13	2090.10
589.29	2008.18
589.45	2195.42
589.61	2157.97
589.77	2253.94
589.93	2275.00
590.08	2380.32
590.24	2368.62
590.40	2445.86
590.56	2436.50
590.72	2310.11
590.88	2387.35
591.04	2464.58
591.20	2462.24
591.35	2410.75
591.51	2392.03
591.67	2338.20
591.83	2279.68
591.99	2328.83
592.15	2487.99
592.31	2539.48
592.46	2567.57
592.62	2487.99
592.78	2506.71
592.94	2600.34
593.10	2560.55
593.26	2588.63
593.41	2579.27
593.57	2553.52
593.73	2431.82
593.89	2420.11
594.05	2349.90
594.20	2235.21
594.36	2289.04
594.52	2251.60
594.68	2326.49
594.84	2286.70
594.99	2434.16
595.15	2345.22
595.31	2333.51
595.47	2389.69
595.62	2427.14
595.78	2417.77
595.94	2436.50
596.10	2548.84
596.25	2429.48
596.41	2310.11
596.57	2312.45
596.73	2459.90
596.88	2436.50
597.04	2534.80
597.20	2487.99
597.36	2394.37
597.51	2399.05
597.67	2420.11
597.83	2403.73
597.99	2417.77
598.14	2455.22
598.30	2525.44
598.46	2441.18
598.61	2429.48
598.77	2553.52
598.93	2469.27
599.09	2567.57
599.24	2569.91
599.40	2511.39
599.56	2499.69
599.71	2621.40
599.87	2497.35
600.03	2612.04
600.18	2544.16
600.34	2628.42
600.50	2553.52
600.65	2431.82
600.81	2612.04
600.97	2527.78
601.12	2520.76
601.28	2483.31
601.44	2499.69
601.59	2438.84
601.75	2408.41
601.91	2427.14
602.06	2471.61
602.22	2462.24
602.37	2438.84
602.53	2541.82
602.69	2605.02
602.84	2537.14
603.00	2569.91
603.16	2544.16
603.31	2583.95
603.47	2485.65
603.62	2523.10
603.78	2464.58
603.94	2424.80
604.09	2595.65
604.25	2417.77
604.40	2532.46
604.56	2436.50
604.71	2480.97
604.87	2551.18
605.03	2551.18
605.18	2544.16
605.34	2473.95
605.49	2480.97
605.65	2457.56
605.80	2377.98
605.96	2530.12
606.12	2600.34
606.27	2513.74
606.43	2661.19
606.58	2534.80
606.74	2497.35
606.89	2490.33
607.05	2490.33
607.20	2534.80
607.36	2525.44
607.51	2485.65
607.67	2583.95
607.82	2509.05
607.98	2502.03
608.13	2506.71
608.29	2466.92
608.44	2410.75
608.60	2527.78
608.75	2551.18
608.91	2480.97
609.06	2583.95
609.22	2616.72
609.37	2658.85
609.53	2700.98
609.68	2689.28
609.84	2722.04
609.99	2672.89
610.15	2988.86
610.30	2979.50
610.46	3332.92
610.61	3480.38
610.76	3831.46
610.92	4067.85
611.07	4322.97
611.23	4592.13
611.38	4414.25
611.54	4124.02
611.69	3749.54
611.84	3478.04
612.00	3169.09
612.15	3138.66
612.31	3117.59
612.46	2932.69
612.62	2839.07
612.77	2768.85
612.92	2942.05
613.08	2827.37
613.23	2810.98
613.39	2663.53
613.54	2703.32
613.69	2663.53
613.85	2693.96
614.00	2464.58
614.15	2736.09
614.31	2525.44
614.46	2803.96
614.62	2649.49
614.77	2565.23
614.92	2555.86
615.08	2558.21
615.23	2502.03
615.38	2478.63
615.54	2335.85
615.69	2448.20
615.84	2345.22
616.00	2352.24
616.15	2338.20
616.30	2282.02
616.46	2275.00
616.61	2167.34
616.76	2165.00
616.92	2157.97
617.07	2289.04
617.22	2237.55
617.37	2256.28
617.53	2204.78
617.68	2230.53
617.83	2385.01
617.99	2293.72
618.14	2338.20
618.29	2265.64
618.45	2090.10
618.60	2256.28
618.75	2172.02
618.90	2204.78
619.06	2193.08
619.21	2225.85
619.36	2225.85
619.51	2218.83
619.67	2303.09
619.82	2127.55
619.97	2197.76
620.12	2104.14
620.28	2183.72
620.43	2207.13
620.58	2279.68
620.73	2352.24
620.89	2232.87
621.04	2188.40
621.19	2239.89
621.34	2120.53
621.49	2207.13
621.65	2054.99
621.80	2167.34
621.95	2225.85
622.10	2218.83
622.25	2148.61
622.41	2120.53
622.56	2108.82
622.71	2083.08
622.86	2160.31
623.01	2033.93
623.16	2129.89
623.32	2076.06
623.47	2097.12
623.62	2024.56
623.77	2045.63
623.92	2113.50
624.07	1991.80
624.23	2024.56
624.38	2047.97
624.53	2015.20
624.68	2106.48
624.83	2036.27
624.98	2019.88
625.13	2017.54
625.29	2015.20
625.44	2012.86
625.59	1944.99
625.74	1940.30
625.89	2017.54
626.04	1935.62
626.19	1991.80
626.34	1900.52
626.49	2073.71
626.65	2038.61
626.80	2087.76
626.95	2045.63
627.10	1959.03
627.25	1933.28
627.40	1877.11
627.55	1863.07
627.70	1713.27
627.85	1729.66
628.00	1778.81
628.15	1888.81
628.30	1806.89
628.45	1928.60
628.60	1877.11
628.76	1949.67
628.91	1865.41
629.06	1984.77
629.21	1818.60
629.36	1837.32
629.51	1860.73
629.66	1912.22
629.81	1907.54
629.96	1891.15
630.11	1928.60
630.26	1909.88
630.41	2073.71
630.56	1984.77
630.71	2188.40
630.86	1933.28
631.01	1970.73
631.16	2001.16
631.31	1930.94
631.46	1940.30
631.61	1778.81
631.76	1750.72
631.91	1713.27
632.06	1741.36
632.21	1720.29
632.36	1858.39
632.51	1842.00
632.66	1856.04
632.81	1811.57
632.96	1802.21
633.10	1865.41
633.25	1842.00
633.40	1820.94
633.55	1788.17
633.70	1734.34
633.85	1790.51
634.00	1755.40
634.15	1732.00
634.30	1746.04
634.45	1757.74
634.60	1785.83
634.75	1769.44
634.90	1802.21
635.05	1710.93
635.19	1750.72
635.34	1846.68
635.49	1834.98
635.64	1804.55
635.79	1748.38
635.94	1734.34
636.09	1696.89
636.24	1774.13
636.39	1678.16
636.53	1689.87
636.68	1715.61
636.83	1774.13
636.98	1886.47
637.13	1734.34
637.28	1799.87
637.43	1724.97
637.57	1699.23
637.72	1877.11
637.87	1898.17
638.02	1802.21
638.17	1774.13
638.32	1778.81
638.46	1781.15
638.61	1753.06
638.76	1722.63
638.91	1774.13
639.06	1668.80
639.20	1816.26
639.35	1706.25
639.50	1666.46
639.65	1710.93
639.80	1734.34
639.94	1638.38
640.09	1715.61
640.24	1666.46
640.39	1701.57
640.54	1706.25
640.68	1610.29
640.83	1657.10
640.98	1727.32
641.13	1657.10
641.27	1643.06
641.42	1694.55
641.57	1673.48
641.72	1554.12
641.86	1680.50
642.01	1568.16
642.16	1612.63
642.31	1645.40
642.45	1692.21
642.60	1645.40
642.75	1586.88
642.90	1626.67
643.04	1544.75
643.19	1720.29
643.34	1629.01
643.48	1610.29
643.63	1593.90
643.78	1675.82
643.93	1668.80
644.07	1556.46
644.22	1636.03
644.37	1568.16
644.51	1544.75
644.66	1607.95
644.81	1586.88
644.95	1565.82
645.10	1537.73
645.25	1544.75
645.39	1579.86
645.54	1444.11
645.69	1565.82
645.83	1500.28
645.98	1479.22
646.13	1535.39
646.27	1488.58
646.42	1369.21
646.57	1401.98
646.71	1488.58
646.86	1378.58
647.00	1411.34
647.15	1313.04
647.30	1345.81
647.44	1401.98
647.59	1306.02
647.74	1411.34
647.88	1404.32
648.03	1390.28
648.17	1357.51
648.32	1334.11
648.47	1416.02
648.61	1394.96
648.76	1317.72
648.90	1341.13
649.05	1308.36
649.20	1282.61
649.34	1299.00
649.49	1320.06
649.63	1406.66
649.78	1432.41
649.92	1519.01
650.07	1558.80
650.21	1607.95
650.36	1624.33
650.51	1526.03
650.65	1610.29
650.80	1596.25
650.94	1472.20
651.09	1434.75
651.23	1362.19
651.38	1315.38
651.52	1186.65
651.67	1366.87
651.81	1331.76
651.96	1401.98
652.10	1376.24
652.25	1401.98
652.39	1530.71
652.54	1390.28
652.68	1519.01
652.83	1439.43
652.97	1462.83
653.12	1469.86
653.26	1380.92
653.41	1528.37
653.55	1411.34
653.70	1544.75
653.84	1493.26
653.99	1376.24
654.13	1315.38
654.27	1336.45
654.42	1263.89
654.56	1315.38
654.71	1411.34
654.85	1345.81
655.00	1364.53
655.14	1324.74
655.29	1296.66
655.43	1345.81
655.57	1308.36
655.72	1212.40
655.86	1088.35
656.01	1086.01
656.15	1018.13
656.30	1060.26
656.44	1114.10
656.58	1214.74
656.73	1231.12
656.87	1310.70
657.01	1308.36
657.16	1273.25
657.30	1270.91
657.45	1334.11
657.59	1341.13
657.73	1277.93
657.88	1362.19
658.02	1390.28
658.16	1322.40
658.31	1437.09
658.45	1334.11
658.60	1406.66
658.74	1369.21
658.88	1317.72
659.03	1338.79
659.17	1301.34
659.31	1359.85
659.46	1217.08
659.60	1378.58
659.74	1336.45
659.89	1394.96
660.03	1296.66
660.17	1455.81
660.32	1448.79
660.46	1376.24
660.60	1418.36
660.74	1359.85
660.89	1306.02
661.03	1425.39
661.17	1284.95
661.32	1376.24
661.46	1404.32
661.60	1362.19
661.74	1387.94
661.89	1399.64
662.03	1413.68
662.17	1416.02
662.31	1324.74
662.46	1441.77
662.60	1423.05
662.74	1324.74
662.88	1320.06
663.03	1324.74
663.17	1310.70
663.31	1308.36
663.45	1299.00
663.60	1282.61
663.74	1294.32
663.88	1310.70
664.02	1299.00
664.17	1380.92
664.31	1439.43
664.45	1411.34
664.59	1324.74
664.73	1301.34
664.88	1362.19
665.02	1313.04
665.16	1259.21
665.30	1280.27
665.44	1261.55
665.59	1280.27
665.73	1268.57
665.87	1310.70
666.01	1184.31
666.15	1296.66
666.29	1350.49
666.44	1310.70
666.58	1338.79
666.72	1315.38
666.86	1296.66
667.00	1268.57
667.14	1411.34
667.28	1334.11
667.43	1196.01
667.57	1198.35
667.71	1125.80
667.85	1217.08
667.99	1240.48
668.13	1331.76
668.27	1331.76
668.41	1273.25
668.56	1259.21
668.70	1191.33
668.84	1196.01
668.98	1224.10
669.12	1270.91
669.26	1226.44
669.40	1256.87
669.54	1291.98
669.68	1273.25
669.82	1280.27
669.96	1294.32
670.10	1226.44
670.25	1289.64
670.39	1174.95
670.53	1198.35
670.67	1146.86
670.81	1233.46
670.95	1198.35
671.09	1186.65
671.23	1289.64
671.37	1179.63
671.51	1245.16
671.65	1142.18
671.79	1191.33
671.93	1172.61
672.07	1322.40
672.21	1186.65
672.35	1135.16
672.49	1160.91
672.63	1184.31
672.77	1217.08
672.91	1156.22
673.05	1121.12
673.19	1167.93
673.33	1132.82
673.47	1315.38
673.61	1203.04
673.75	1100.05
673.89	1149.20
674.03	1118.78
674.17	1097.71
674.31	1210.06
674.45	1137.50
674.59	1095.37
674.73	1167.93
674.87	1071.97
675.01	1151.54
675.15	1153.88
675.29	1118.78
675.43	1137.50
675.56	1160.91
675.70	1130.48
675.84	1130.48
675.98	1013.45
676.12	997.07
676.26	1121.12
676.40	1050.90
676.54	1067.28
676.68	1057.92
676.82	1034.52
676.96	985.37
677.10	1163.25
677.23	1102.39
677.37	1109.41
677.51	1074.31
677.65	1221.76
677.79	1025.15
677.93	1064.94
678.07	1008.77
678.21	1128.14
678.34	1018.13
678.48	1022.81
678.62	1062.60
678.76	1034.52
678.90	1095.37
679.04	1020.47
679.18	1055.58
679.31	896.43
679.45	912.81
679.59	1093.03
679.73	976.00
679.87	985.37
680.00	964.30
680.14	1046.22
680.28	1043.88
680.42	1029.84
680.56	1064.94
680.70	954.94
680.83	1008.77
680.97	1053.24
681.11	1022.81
681.25	999.41
681.39	961.96
681.52	1025.15
681.66	1027.50
681.80	1057.92
681.94	1015.79
682.07	863.66
682.21	992.39
682.35	866.00
682.49	959.62
682.62	940.90
682.76	957.28
682.90	1025.15
683.04	917.49
683.17	980.68
683.31	908.13
683.45	919.83
683.59	938.55
683.72	926.85
683.86	826.21
684.00	844.93
684.13	936.21
684.27	856.64
684.41	873.02
684.55	868.34
684.68	926.85
684.82	863.66
684.96	786.42
685.09	903.45
685.23	896.43
685.37	952.60
685.50	884.72
685.64	898.77
685.78	912.81
685.91	875.36
686.05	884.72
686.19	844.93
686.32	847.27
686.46	760.67
686.60	681.10
686.73	660.03
686.87	648.33
687.01	601.52
687.14	491.51
687.28	486.83
687.42	547.69
687.55	526.62
687.69	683.44
687.82	681.10
687.96	702.16
688.10	709.18
688.23	695.14
688.37	758.33
688.50	690.46
688.64	653.01
688.78	634.29
688.91	664.71
689.05	671.73
689.18	622.58
689.32	695.14
689.46	685.78
689.59	653.01
689.73	622.58
689.86	622.58
690.00	671.73
690.13	685.78
690.27	627.26
690.41	624.92
690.54	613.22
690.68	662.37
690.81	613.22
690.95	636.63
691.08	610.88
691.22	641.31
691.35	674.07
691.49	636.63
691.62	713.86
691.76	627.26
691.89	660.03
692.03	620.24
692.16	580.45
692.30	620.24
692.43	608.54
692.57	568.75
692.70	573.43
692.84	725.57
692.97	493.85
693.11	578.11
693.24	526.62
693.38	484.49
693.51	575.77
693.65	564.07
693.78	489.17
693.92	484.49
694.05	557.05
694.19	475.13
694.32	571.09
694.45	503.22
694.59	617.90
694.72	578.11
694.86	557.05
694.99	528.96
695.13	589.82
695.26	561.73
695.39	554.71
695.53	601.52
695.66	493.85
695.80	568.75
695.93	564.07
696.07	592.16
696.20	559.39
696.33	538.32
696.47	557.05
696.60	627.26
696.73	704.50
696.87	566.41
697.00	716.20
697.14	624.92
697.27	540.66
697.40	655.35
697.54	571.09
697.67	613.22
697.80	599.18
697.94	596.84
698.07	547.69
698.21	601.52
698.34	641.31
698.47	517.26
698.61	517.26
698.74	484.49
698.87	566.41
699.01	517.26
699.14	479.81
699.27	533.64
699.40	669.39
699.54	538.32
699.67	491.51
699.80	510.24
699.94	500.87
700.07	465.77
700.20	461.09
700.34	444.70
700.47	479.81
700.60	409.59
700.73	458.74
700.87	451.72
701.00	531.30
701.13	437.68
701.26	535.98
701.40	425.98
701.53	463.43
701.66	498.53
701.79	440.02
701.93	470.45
702.06	496.19
702.19	491.51
702.32	559.39
702.46	428.32
702.59	397.89
702.72	482.15
702.85	493.85
702.99	510.24
703.12	547.69
703.25	456.40
703.38	514.92
703.51	521.94
703.65	482.15
703.78	400.23
703.91	449.38
704.04	498.53
704.17	435.34
704.31	477.47
704.44	449.38
704.57	484.49
704.70	437.68
704.83	479.81
704.96	468.11
705.10	444.70
705.23	463.43
>>>>>End Processed Spectral Data<<<<<
