SpectraSuite Data File
++++++++++++++++++++++++++++++++++++
Date: Fri Oct 04 11:41:41 GMT-05:00 2013
User: price-jones
Dark Spectrum Present: No
Reference Spectrum Present: No
Number of Sampled Component Spectra: 1
Spectrometers: USB2+H05261
Integration Time (usec): 100000 (USB2+H05261)
Spectra Averaged: 1 (USB2+H05261)
Boxcar Smoothing: 0 (USB2+H05261)
Correct for Electrical Dark: No (USB2+H05261)
Strobe/Lamp Enabled: No (USB2+H05261)
Correct for Detector Non-linearity: No (USB2+H05261)
Correct for Stray Light: No (USB2+H05261)
Number of Pixels in Processed Spectrum: 2048
>>>>>Begin Processed Spectral Data<<<<<
365.73	25.75
365.92	25.75
366.12	25.75
366.32	0.00
366.52	0.00
366.72	0.00
366.91	0.00
367.11	0.00
367.31	0.00
367.51	0.00
367.70	0.00
367.90	0.00
368.10	0.00
368.30	16.38
368.49	0.00
368.69	0.00
368.89	0.00
369.09	0.00
369.28	0.00
369.48	2.34
369.68	0.00
369.87	7.02
370.07	35.11
370.27	0.00
370.47	25.75
370.66	58.51
370.86	128.73
371.06	67.88
371.25	79.58
371.45	0.00
371.65	100.64
371.84	28.09
372.04	60.85
372.24	117.03
372.44	112.35
372.63	93.62
372.83	138.09
373.03	44.47
373.22	140.43
373.42	88.94
373.62	154.48
373.81	142.77
374.01	234.05
374.21	140.43
374.40	131.07
374.60	149.79
374.79	177.88
374.99	133.41
375.19	88.94
375.38	166.18
375.58	161.50
375.78	177.88
375.97	105.32
376.17	191.92
376.37	112.35
376.56	107.66
376.76	110.01
376.95	173.20
377.15	86.60
377.35	79.58
377.54	231.71
377.74	147.45
377.93	60.85
378.13	163.84
378.33	105.32
378.52	114.69
378.72	124.05
378.91	70.22
379.11	46.81
379.31	49.15
379.50	145.11
379.70	131.07
379.89	135.75
380.09	145.11
380.28	121.71
380.48	51.49
380.68	88.94
380.87	133.41
381.07	203.63
381.26	152.13
381.46	135.75
381.65	126.39
381.85	156.82
382.04	135.75
382.24	163.84
382.43	140.43
382.63	107.66
382.83	168.52
383.02	156.82
383.22	196.60
383.41	166.18
383.61	149.79
383.80	168.52
384.00	105.32
384.19	154.48
384.39	81.92
384.58	74.90
384.78	196.60
384.97	201.29
385.17	124.05
385.36	131.07
385.56	187.24
385.75	72.56
385.95	72.56
386.14	102.98
386.34	84.26
386.53	119.37
386.72	177.88
386.92	126.39
387.11	107.66
387.31	105.32
387.50	102.98
387.70	49.15
387.89	133.41
388.09	112.35
388.28	102.98
388.48	147.45
388.67	77.24
388.86	86.60
389.06	124.05
389.25	177.88
389.45	102.98
389.64	147.45
389.84	175.54
390.03	126.39
390.22	142.77
390.42	175.54
390.61	81.92
390.81	86.60
391.00	128.73
391.19	177.88
391.39	88.94
391.58	114.69
391.78	119.37
391.97	114.69
392.16	105.32
392.36	140.43
392.55	180.22
392.75	70.22
392.94	131.07
393.13	93.62
393.33	112.35
393.52	128.73
393.71	159.16
393.91	152.13
394.10	119.37
394.29	161.50
394.49	110.01
394.68	147.45
394.88	128.73
395.07	231.71
395.26	112.35
395.46	166.18
395.65	65.54
395.84	184.90
396.04	175.54
396.23	100.64
396.42	266.82
396.62	154.48
396.81	119.37
397.00	102.98
397.19	131.07
397.39	140.43
397.58	194.26
397.77	142.77
397.97	117.03
398.16	138.09
398.35	138.09
398.55	191.92
398.74	149.79
398.93	222.35
399.12	142.77
399.32	163.84
399.51	107.66
399.70	149.79
399.90	175.54
400.09	161.50
400.28	201.29
400.47	149.79
400.67	205.97
400.86	142.77
401.05	168.52
401.24	131.07
401.44	168.52
401.63	79.58
401.82	220.01
402.01	187.24
402.21	182.56
402.40	173.20
402.59	161.50
402.78	215.33
402.97	170.86
403.17	215.33
403.36	238.73
403.55	290.23
403.74	655.35
403.93	2090.10
404.13	5261.52
404.32	7826.75
404.51	7290.77
404.70	4400.21
404.89	1689.87
405.09	594.50
405.28	285.55
405.47	220.01
405.66	238.73
405.85	236.39
406.05	131.07
406.24	180.22
406.43	229.37
406.62	224.69
406.81	245.76
407.00	257.46
407.20	667.05
407.39	1036.86
407.58	1170.27
407.77	858.98
407.96	486.83
408.15	250.44
408.34	201.29
408.54	210.65
408.73	255.12
408.92	215.33
409.11	177.88
409.30	227.03
409.49	182.56
409.68	189.58
409.87	220.01
410.07	198.95
410.26	196.60
410.45	255.12
410.64	220.01
410.83	241.08
411.02	208.31
411.21	163.84
411.40	184.90
411.59	222.35
411.78	163.84
411.98	224.69
412.17	210.65
412.36	205.97
412.55	196.60
412.74	217.67
412.93	269.16
413.12	220.01
413.31	271.50
413.50	217.67
413.69	243.42
413.88	297.25
414.07	250.44
414.26	330.02
414.45	198.95
414.64	170.86
414.83	250.44
415.02	250.44
415.22	250.44
415.41	264.48
415.60	227.03
415.79	224.69
415.98	201.29
416.17	308.95
416.36	229.37
416.55	236.39
416.74	341.72
416.93	290.23
417.12	236.39
417.31	252.78
417.50	297.25
417.69	325.33
417.88	245.76
418.07	301.93
418.26	259.80
418.45	255.12
418.64	243.42
418.83	257.46
419.02	264.48
419.21	259.80
419.39	308.95
419.58	250.44
419.77	287.89
419.96	299.59
420.15	365.12
420.34	252.78
420.53	301.93
420.72	330.02
420.91	266.82
421.10	292.57
421.29	292.57
421.48	299.59
421.67	285.55
421.86	308.95
422.05	264.48
422.24	262.14
422.43	301.93
422.61	313.63
422.80	311.29
422.99	325.33
423.18	334.70
423.37	360.44
423.56	355.76
423.75	334.70
423.94	278.52
424.13	315.97
424.32	294.91
424.50	334.70
424.69	257.46
424.88	325.33
425.07	299.59
425.26	418.96
425.45	332.36
425.64	358.10
425.83	360.44
426.01	355.76
426.20	341.72
426.39	344.06
426.58	383.85
426.77	313.63
426.96	308.95
427.15	325.33
427.33	372.15
427.52	365.12
427.71	383.85
427.90	344.06
428.09	390.87
428.28	369.80
428.46	360.44
428.65	400.23
428.84	365.12
429.03	414.27
429.22	395.55
429.40	395.55
429.59	304.27
429.78	454.06
429.97	355.76
430.16	404.91
430.34	318.31
430.53	346.40
430.72	362.78
430.91	435.34
431.10	388.53
431.28	397.89
431.47	400.23
431.66	430.66
431.85	498.53
432.03	437.68
432.22	430.66
432.41	442.36
432.60	524.28
432.79	404.91
432.97	465.77
433.16	566.41
433.35	559.39
433.54	695.14
433.72	739.61
433.91	671.73
434.10	718.54
434.28	915.15
434.47	1039.20
434.66	1160.91
434.85	1462.83
435.03	3534.21
435.22	13282.54
435.41	32474.93
435.59	38948.85
435.78	25848.88
435.97	12173.13
436.16	4851.93
436.34	1631.35
436.53	931.53
436.72	835.57
436.90	702.16
437.09	578.11
437.28	571.09
437.46	545.34
437.65	550.03
437.84	540.66
438.02	475.13
438.21	517.26
438.40	517.26
438.58	503.22
438.77	510.24
438.96	505.56
439.14	430.66
439.33	491.51
439.52	400.23
439.70	503.22
439.89	547.69
440.08	498.53
440.26	512.58
440.45	477.47
440.63	482.15
440.82	428.32
441.01	465.77
441.19	442.36
441.38	500.87
441.57	594.50
441.75	557.05
441.94	507.90
442.12	505.56
442.31	552.37
442.50	557.05
442.68	465.77
442.87	493.85
443.05	472.79
443.24	545.34
443.43	543.00
443.61	484.49
443.80	566.41
443.98	423.64
444.17	409.59
444.35	528.96
444.54	430.66
444.73	482.15
444.91	491.51
445.10	414.27
445.28	521.94
445.47	463.43
445.65	557.05
445.84	507.90
446.02	568.75
446.21	559.39
446.39	475.13
446.58	505.56
446.77	528.96
446.95	561.73
447.14	585.13
447.32	489.17
447.51	498.53
447.69	454.06
447.88	454.06
448.06	533.64
448.25	454.06
448.43	461.09
448.62	409.59
448.80	510.24
448.99	547.69
449.17	496.19
449.36	414.27
449.54	547.69
449.73	510.24
449.91	552.37
450.10	411.93
450.28	482.15
450.46	510.24
450.65	468.11
450.83	507.90
451.02	423.64
451.20	526.62
451.39	493.85
451.57	400.23
451.76	486.83
451.94	507.90
452.13	521.94
452.31	498.53
452.49	489.17
452.68	456.40
452.86	447.04
453.05	486.83
453.23	393.21
453.42	369.80
453.60	486.83
453.78	578.11
453.97	479.81
454.15	458.74
454.34	470.45
454.52	482.15
454.70	526.62
454.89	428.32
455.07	458.74
455.26	482.15
455.44	552.37
455.62	472.79
455.81	486.83
455.99	503.22
456.17	468.11
456.36	477.47
456.54	484.49
456.73	444.70
456.91	468.11
457.09	521.94
457.28	496.19
457.46	437.68
457.64	484.49
457.83	496.19
458.01	535.98
458.19	486.83
458.38	505.56
458.56	514.92
458.74	447.04
458.93	486.83
459.11	463.43
459.29	475.13
459.48	510.24
459.66	484.49
459.84	491.51
460.03	519.60
460.21	463.43
460.39	461.09
460.57	582.79
460.76	561.73
460.94	500.87
461.12	500.87
461.31	559.39
461.49	526.62
461.67	514.92
461.85	468.11
462.04	470.45
462.22	629.60
462.40	531.30
462.59	550.03
462.77	454.06
462.95	402.57
463.13	503.22
463.32	479.81
463.50	491.51
463.68	458.74
463.86	390.87
464.05	442.36
464.23	491.51
464.41	512.58
464.59	407.25
464.78	521.94
464.96	489.17
465.14	503.22
465.32	433.00
465.50	484.49
465.69	468.11
465.87	447.04
466.05	456.40
466.23	418.96
466.41	491.51
466.60	514.92
466.78	507.90
466.96	512.58
467.14	528.96
467.32	493.85
467.51	557.05
467.69	521.94
467.87	484.49
468.05	402.57
468.23	489.17
468.41	449.38
468.60	404.91
468.78	428.32
468.96	435.34
469.14	409.59
469.32	425.98
469.50	463.43
469.69	477.47
469.87	435.34
470.05	430.66
470.23	461.09
470.41	449.38
470.59	447.04
470.77	451.72
470.95	411.93
471.14	489.17
471.32	500.87
471.50	528.96
471.68	430.66
471.86	400.23
472.04	475.13
472.22	552.37
472.40	383.85
472.58	470.45
472.77	423.64
472.95	416.62
473.13	430.66
473.31	491.51
473.49	475.13
473.67	409.59
473.85	418.96
474.03	447.04
474.21	440.02
474.39	468.11
474.57	470.45
474.75	437.68
474.93	533.64
475.12	470.45
475.30	454.06
475.48	423.64
475.66	442.36
475.84	437.68
476.02	397.89
476.20	458.74
476.38	456.40
476.56	489.17
476.74	411.93
476.92	454.06
477.10	486.83
477.28	491.51
477.46	402.57
477.64	428.32
477.82	475.13
478.00	411.93
478.18	566.41
478.36	559.39
478.54	535.98
478.72	582.79
478.90	615.56
479.08	528.96
479.26	592.16
479.44	510.24
479.62	610.88
479.80	620.24
479.98	603.86
480.16	624.92
480.34	606.20
480.52	777.06
480.70	748.97
480.88	774.72
481.06	734.93
481.24	866.00
481.41	826.21
481.59	905.79
481.77	1015.79
481.95	1011.11
482.13	1043.88
482.31	1181.97
482.49	1233.46
482.67	1294.32
482.85	1446.45
483.03	1540.07
483.21	1591.56
483.39	1710.93
483.57	1727.32
483.74	1877.11
483.92	1944.99
484.10	1998.82
484.28	2249.25
484.46	2356.92
484.64	2382.67
484.82	2469.27
485.00	2782.90
485.18	2750.13
485.35	2979.50
485.53	3059.08
485.71	3218.24
485.89	3356.33
486.07	3435.91
486.25	3501.44
486.43	3555.27
486.61	3480.38
486.78	3489.74
486.96	3466.33
487.14	3581.02
487.32	3473.36
487.50	3337.60
487.68	3466.33
487.85	3431.23
488.03	3236.96
488.21	3391.44
488.39	3169.09
488.57	3098.87
488.75	3136.32
488.92	3304.84
489.10	3066.10
489.28	2911.63
489.46	2888.22
489.64	2738.43
489.81	2848.43
489.99	2747.79
490.17	2537.14
490.35	2729.06
490.53	2677.57
490.70	2576.93
490.88	2614.38
491.06	2775.88
491.24	2780.56
491.41	3047.38
491.59	2794.60
491.77	2628.42
491.95	2581.61
492.13	2485.65
492.30	2392.03
492.48	2307.77
492.66	2333.51
492.84	2253.94
493.01	2375.64
493.19	2342.88
493.37	2270.32
493.54	2195.42
493.72	2174.36
493.90	2186.06
494.08	2167.34
494.25	2038.61
494.43	1933.28
494.61	2038.61
494.79	2003.50
494.96	1900.52
495.14	1856.04
495.32	1870.09
495.49	1771.79
495.67	1851.36
495.85	1771.79
496.02	1816.26
496.20	1790.51
496.38	1710.93
496.55	1720.29
496.73	1654.76
496.91	1603.27
497.09	1675.82
497.26	1600.93
497.44	1540.07
497.62	1497.94
497.79	1584.54
497.97	1540.07
498.14	1453.47
498.32	1453.47
498.50	1448.79
498.67	1287.29
498.85	1191.33
499.03	1256.87
499.20	1226.44
499.38	1238.14
499.56	1317.72
499.73	1280.27
499.91	1191.33
500.08	1107.07
500.26	1123.46
500.44	1210.06
500.61	1088.35
500.79	947.92
500.97	945.58
501.14	987.71
501.32	952.60
501.49	968.98
501.67	903.45
501.84	992.39
502.02	795.78
502.20	844.93
502.37	755.99
502.55	791.10
502.72	786.42
502.90	770.04
503.07	772.38
503.25	741.95
503.43	655.35
503.60	699.82
503.78	704.50
503.95	671.73
504.13	587.47
504.30	702.16
504.48	657.69
504.65	657.69
504.83	606.20
505.01	585.13
505.18	599.18
505.36	526.62
505.53	662.37
505.71	552.37
505.88	533.64
506.06	540.66
506.23	526.62
506.41	533.64
506.58	496.19
506.76	564.07
506.93	510.24
507.11	484.49
507.28	435.34
507.46	589.82
507.63	573.43
507.81	411.93
507.98	461.09
508.16	475.13
508.33	477.47
508.50	547.69
508.68	521.94
508.85	573.43
509.03	578.11
509.20	519.60
509.38	557.05
509.55	547.69
509.73	510.24
509.90	437.68
510.08	435.34
510.25	510.24
510.42	430.66
510.60	479.81
510.77	451.72
510.95	519.60
511.12	397.89
511.30	449.38
511.47	470.45
511.64	461.09
511.82	458.74
511.99	440.02
512.17	428.32
512.34	456.40
512.51	418.96
512.69	351.08
512.86	578.11
513.04	416.62
513.21	435.34
513.38	507.90
513.56	379.17
513.73	437.68
513.90	470.45
514.08	447.04
514.25	383.85
514.43	430.66
514.60	397.89
514.77	355.76
514.95	372.15
515.12	416.62
515.29	400.23
515.47	407.25
515.64	367.46
515.81	372.15
515.99	465.77
516.16	414.27
516.33	491.51
516.51	423.64
516.68	339.38
516.85	416.62
517.03	430.66
517.20	435.34
517.37	463.43
517.54	351.08
517.72	425.98
517.89	386.19
518.06	351.08
518.24	435.34
518.41	423.64
518.58	381.51
518.75	318.31
518.93	365.12
519.10	388.53
519.27	397.89
519.45	374.49
519.62	451.72
519.79	404.91
519.96	390.87
520.14	409.59
520.31	435.34
520.48	365.12
520.65	344.06
520.83	465.77
521.00	339.38
521.17	411.93
521.34	430.66
521.52	327.68
521.69	390.87
521.86	337.04
522.03	430.66
522.20	376.83
522.38	430.66
522.55	395.55
522.72	327.68
522.89	379.17
523.07	400.23
523.24	404.91
523.41	351.08
523.58	402.57
523.75	447.04
523.92	358.10
524.10	379.17
524.27	353.42
524.44	411.93
524.61	388.53
524.78	369.80
524.96	397.89
525.13	402.57
525.30	381.51
525.47	470.45
525.64	418.96
525.81	402.57
525.98	437.68
526.16	416.62
526.33	421.30
526.50	397.89
526.67	367.46
526.84	468.11
527.01	543.00
527.18	472.79
527.36	596.84
527.53	585.13
527.70	564.07
527.87	482.15
528.04	510.24
528.21	458.74
528.38	531.30
528.55	521.94
528.72	486.83
528.89	543.00
529.07	423.64
529.24	470.45
529.41	496.19
529.58	470.45
529.75	472.79
529.92	571.09
530.09	526.62
530.26	617.90
530.43	547.69
530.60	550.03
530.77	559.39
530.94	594.50
531.11	636.63
531.28	627.26
531.46	667.05
531.63	699.82
531.80	765.36
531.97	770.04
532.14	877.70
532.31	1001.75
532.48	1114.10
532.65	1357.51
532.82	1502.62
532.99	1736.68
533.16	2094.78
533.33	2120.53
533.50	1937.96
533.67	1715.61
533.84	1411.34
534.01	1373.89
534.18	1125.80
534.35	1188.99
534.52	1226.44
534.69	1301.34
534.86	1210.06
535.03	1254.53
535.20	1418.36
535.37	1380.92
535.54	1509.65
535.71	1479.22
535.88	1673.48
536.05	1834.98
536.22	1977.75
536.38	2059.67
536.55	2377.98
536.72	2609.70
536.89	2785.24
537.06	3241.64
537.23	3375.05
537.40	3878.27
537.57	4191.90
537.74	4409.57
537.91	4664.69
538.08	4629.58
538.25	4739.58
538.42	4779.37
538.59	4858.95
538.75	4994.70
538.92	5322.38
539.09	5734.31
539.26	6581.59
539.43	7218.21
539.60	8154.43
539.77	9254.48
539.94	10289.00
540.11	11442.88
540.28	12631.87
540.44	13540.00
540.61	15419.45
540.78	17451.03
540.95	20957.16
541.12	25027.35
541.29	28584.96
541.46	29851.19
541.62	30033.75
541.79	28292.40
541.96	26642.32
542.13	24809.68
542.30	22822.56
542.47	21579.74
542.63	20336.91
542.80	19763.48
542.97	19391.34
543.14	19204.10
543.31	19241.54
543.48	19477.94
543.64	19665.18
543.81	19470.92
543.98	19948.39
544.15	20409.47
544.32	20341.60
544.48	20046.69
544.65	20013.92
544.82	19772.85
544.99	19791.57
545.16	19995.20
545.32	20973.54
545.49	32858.78
545.66	55573.68
545.83	64041.74
546.00	60966.27
546.16	48336.74
546.33	35625.29
546.50	26417.63
546.67	20304.15
546.83	17991.70
547.00	17692.11
547.17	16498.44
547.34	16081.82
547.50	15597.33
547.67	14782.82
547.84	14171.94
548.00	13635.96
548.17	12924.44
548.34	12327.60
548.51	11910.99
548.67	11700.34
548.84	10771.15
549.01	10377.94
549.18	9813.87
549.34	9493.21
549.51	9308.31
549.68	8933.82
549.84	8491.46
550.01	8124.00
550.18	7658.23
550.34	7351.62
550.51	7171.40
550.68	6700.95
550.84	6502.01
551.01	5951.98
551.18	5657.07
551.34	5387.91
551.51	5261.52
551.68	5018.11
551.84	4931.51
552.01	4709.16
552.18	4535.96
552.34	4133.39
552.51	4077.21
552.68	3904.01
552.84	3812.73
553.01	3620.81
553.18	3456.97
553.34	3405.48
553.51	3412.50
553.67	3225.26
553.84	3141.00
554.01	2857.79
554.17	2726.72
554.34	2551.18
554.51	2307.77
554.67	2221.17
554.84	2101.80
555.00	2012.86
555.17	1961.37
555.33	1783.49
555.50	1853.70
555.67	1734.34
555.83	1600.93
556.00	1610.29
556.16	1652.42
556.33	1416.02
556.50	1376.24
556.66	1378.58
556.83	1411.34
556.99	1291.98
557.16	1174.95
557.32	1205.38
557.49	1233.46
557.65	1071.97
557.82	1034.52
557.98	1062.60
558.15	1006.43
558.32	1032.18
558.48	985.37
558.65	1090.69
558.81	924.51
558.98	903.45
559.14	983.02
559.31	943.24
559.47	905.79
559.64	870.68
559.80	870.68
559.97	877.70
560.13	866.00
560.30	812.17
560.46	767.70
560.63	851.96
560.79	901.11
560.96	837.91
561.12	779.40
561.29	809.83
561.45	905.79
561.61	821.53
561.78	849.61
561.94	840.25
562.11	856.64
562.27	788.76
562.44	753.65
562.60	812.17
562.77	809.83
562.93	847.27
563.10	854.30
563.26	748.97
563.42	807.48
563.59	713.86
563.75	716.20
563.92	739.61
564.08	699.82
564.24	662.37
564.41	840.25
564.57	702.16
564.74	662.37
564.90	706.84
565.07	716.20
565.23	648.33
565.39	643.65
565.56	599.18
565.72	617.90
565.88	671.73
566.05	622.58
566.21	641.31
566.38	617.90
566.54	669.39
566.70	643.65
566.87	667.05
567.03	606.20
567.19	737.27
567.36	664.71
567.52	638.97
567.68	676.41
567.85	643.65
568.01	578.11
568.17	624.92
568.34	737.27
568.50	765.36
568.66	636.63
568.83	688.12
568.99	634.29
569.15	681.10
569.32	580.45
569.48	627.26
569.64	566.41
569.81	550.03
569.97	559.39
570.13	540.66
570.30	512.58
570.46	493.85
570.62	449.38
570.78	521.94
570.95	416.62
571.11	538.32
571.27	472.79
571.43	444.70
571.60	507.90
571.76	475.13
571.92	489.17
572.09	486.83
572.25	557.05
572.41	514.92
572.57	575.77
572.74	517.26
572.90	571.09
573.06	524.28
573.22	578.11
573.38	538.32
573.55	571.09
573.71	557.05
573.87	547.69
574.03	468.11
574.20	493.85
574.36	638.97
574.52	599.18
574.68	566.41
574.84	645.99
575.01	620.24
575.17	690.46
575.33	753.65
575.49	793.44
575.65	805.14
575.82	889.40
575.98	924.51
576.14	1076.65
576.30	1926.26
576.46	6169.65
576.62	12491.44
576.79	15040.28
576.95	10731.36
577.11	6679.89
577.27	4779.37
577.43	3173.77
577.59	2073.71
577.75	1528.37
577.92	1474.54
578.08	1420.71
578.24	1448.79
578.40	2443.52
578.56	5877.09
578.72	11440.54
578.88	13418.29
579.04	10129.84
579.21	6689.25
579.37	4894.06
579.53	3859.54
579.69	3489.74
579.85	4306.59
580.01	5083.64
580.17	4973.64
580.33	4358.08
580.49	3868.91
580.65	3426.54
580.82	3112.91
580.98	2827.37
581.14	3028.65
581.30	3019.29
581.46	3281.43
581.62	3618.47
581.78	3712.09
581.94	4079.55
582.10	4255.09
582.26	4482.13
582.42	4662.35
582.58	4725.54
582.74	4870.65
582.90	5027.47
583.06	5046.20
583.22	5104.71
583.38	5329.40
583.54	5067.26
583.70	5020.45
583.86	4959.60
584.02	4704.48
584.18	4880.02
584.34	4615.54
584.50	4706.82
584.66	4477.44
584.82	4559.36
584.98	4311.27
585.14	4390.84
585.30	4325.31
585.46	4320.63
585.62	4060.83
585.78	4227.01
585.94	4156.79
586.10	4283.18
586.26	4622.56
586.42	4994.70
586.58	6148.59
586.74	7316.51
586.90	8908.08
587.06	9853.66
587.22	9811.53
587.38	8795.73
587.54	7592.70
587.70	6380.30
587.86	5338.76
588.02	4594.47
588.18	4014.02
588.34	3737.84
588.49	3361.01
588.65	3150.36
588.81	2890.56
588.97	2970.14
589.13	2839.07
589.29	2930.35
589.45	2780.56
589.61	2691.62
589.77	2771.19
589.93	2871.84
590.08	2867.16
590.24	2988.86
590.40	3075.46
590.56	3206.53
590.72	3241.64
590.88	3335.26
591.04	3253.34
591.20	3627.83
591.35	3613.79
591.51	3784.65
591.67	3906.35
591.83	4198.92
591.99	4617.88
592.15	4880.02
592.31	5294.29
592.46	5959.00
592.62	6340.51
592.78	6960.75
592.94	7253.32
593.10	7040.33
593.26	6637.76
593.41	6277.32
593.57	5535.37
593.73	4798.10
593.89	4404.89
594.05	3665.28
594.20	3578.68
594.36	3133.98
594.52	2993.55
594.68	2796.94
594.84	2705.66
594.99	2565.23
595.15	2569.91
595.31	2466.92
595.47	2436.50
595.62	2476.29
595.78	2558.21
595.94	2504.37
596.10	2560.55
596.25	2445.86
596.41	2534.80
596.57	2473.95
596.73	2469.27
596.88	2436.50
597.04	2387.35
597.20	2516.08
597.36	2532.46
597.51	2509.05
597.67	2628.42
597.83	2740.77
597.99	3075.46
598.14	3108.23
598.30	3440.59
598.46	3623.15
598.61	3803.37
598.77	3873.59
598.93	3946.14
599.09	4124.02
599.24	4170.83
599.40	4109.98
599.56	4109.98
599.71	3913.38
599.87	3641.87
600.03	3538.89
600.18	3141.00
600.34	2892.90
600.50	2771.19
600.65	2759.49
600.81	2478.63
600.97	2286.70
601.12	2148.61
601.28	2244.57
601.44	2008.18
601.59	1879.45
601.75	1937.96
601.91	1870.09
602.06	1825.62
602.22	1753.06
602.37	1685.19
602.53	1659.44
602.69	1659.44
602.84	1596.25
603.00	1713.27
603.16	1666.46
603.31	1685.19
603.47	1717.95
603.62	1558.80
603.78	1701.57
603.94	1888.81
604.09	1930.94
604.25	1879.45
604.40	2024.56
604.56	1832.64
604.71	2024.56
604.87	1980.09
605.03	2040.95
605.18	2122.87
605.34	2153.29
605.49	2066.69
605.65	2270.32
605.80	2136.91
605.96	2291.38
606.12	2495.01
606.27	2518.42
606.43	2562.89
606.58	2668.21
606.74	2855.45
606.89	2862.48
607.05	3211.22
607.20	3300.16
607.36	3356.33
607.51	3651.24
607.67	3796.35
607.82	4135.73
607.98	4519.57
608.13	4720.86
608.29	4971.30
608.44	5713.25
608.60	6071.35
608.75	6715.00
608.91	7232.26
609.06	7707.38
609.22	8702.11
609.37	9493.21
609.53	10820.30
609.68	12259.73
609.84	14111.09
609.99	16210.55
610.15	19314.10
610.30	23922.62
610.46	30707.83
610.61	39154.82
610.76	48821.23
610.92	55636.87
611.07	59189.81
611.23	59875.58
611.38	58621.06
611.54	55613.47
611.69	50609.40
611.84	43363.11
612.00	36699.60
612.15	30586.12
612.31	26471.46
612.46	23229.82
612.62	21935.50
612.77	20463.30
612.92	19379.64
613.08	18265.54
613.23	17245.07
613.39	16711.42
613.54	15978.84
613.69	15805.64
613.85	15936.71
614.00	15735.42
614.15	15669.89
614.31	15239.23
614.46	14883.47
614.62	14260.88
614.77	13544.68
614.92	12952.52
615.08	11796.30
615.23	11075.42
615.38	10312.40
615.54	9181.92
615.69	8521.89
615.84	7683.98
616.00	7183.10
616.15	6647.12
616.30	6127.52
616.46	6022.20
616.61	5600.90
616.76	5172.58
616.92	4873.00
617.07	4582.77
617.22	4327.65
617.37	4287.86
617.53	3922.74
617.68	3904.01
617.83	3705.07
617.99	3634.85
618.14	3510.80
618.29	3342.28
618.45	3344.63
618.60	3300.16
618.75	3227.60
618.90	3056.74
619.06	3110.57
619.21	3251.00
619.36	3194.83
619.51	3061.42
619.67	3075.46
619.82	3253.34
619.97	3382.07
620.12	3232.28
620.28	3234.62
620.43	3358.67
620.58	3400.80
620.73	3396.12
620.89	3524.85
621.04	3471.01
621.19	3414.84
621.34	3288.45
621.49	3281.43
621.65	3403.14
621.80	3234.62
621.95	3236.96
622.10	3169.09
622.25	3241.64
622.41	3220.58
622.56	3351.65
622.71	3456.97
622.86	3548.25
623.01	3571.66
623.16	3641.87
623.32	3730.81
623.47	3772.94
623.62	3702.73
623.77	3786.99
623.92	3826.78
624.07	3655.92
624.23	3709.75
624.38	3712.09
624.53	3744.86
624.68	3599.74
624.83	3801.03
624.98	3892.31
625.13	3798.69
625.29	3740.18
625.44	3791.67
625.59	3789.33
625.74	3943.80
625.89	3999.98
626.04	3871.25
626.19	3789.33
626.34	3674.64
626.49	3875.93
626.65	3887.63
626.80	3786.99
626.95	3712.09
627.10	3655.92
627.25	3684.00
627.40	3536.55
627.55	3487.40
627.70	3510.80
627.85	3438.25
628.00	3365.69
628.15	3496.76
628.30	3384.41
628.45	3258.03
628.60	3361.01
628.76	3321.22
628.91	3328.24
629.06	3314.20
629.21	3478.04
629.36	3564.64
629.51	3721.45
629.66	3681.66
629.81	4063.17
629.96	4575.75
630.11	4901.08
630.26	5444.09
630.41	5865.38
630.56	6705.63
630.71	7075.44
630.86	7414.82
631.01	7204.17
631.16	6775.85
631.31	6066.67
631.46	5069.60
631.61	4442.34
631.76	3822.09
631.91	3255.69
632.06	2689.28
632.21	2216.49
632.36	1977.75
632.51	1795.19
632.66	1715.61
632.81	1521.35
632.96	1535.39
633.10	1462.83
633.25	1334.11
633.40	1362.19
633.55	1139.84
633.70	1167.93
633.85	1100.05
634.00	1043.88
634.15	1022.81
634.30	1064.94
634.45	976.00
634.60	990.05
634.75	957.28
634.90	964.30
635.05	978.34
635.19	959.62
635.34	877.70
635.49	976.00
635.64	870.68
635.79	915.15
635.94	940.90
636.09	910.47
636.24	924.51
636.39	823.87
636.53	816.85
636.68	812.17
636.83	833.23
636.98	711.52
637.13	765.36
637.28	793.44
637.43	786.42
637.57	805.14
637.72	833.23
637.87	795.78
638.02	674.07
638.17	751.31
638.32	634.29
638.46	723.23
638.61	746.63
638.76	767.70
638.91	683.44
639.06	678.76
639.20	667.05
639.35	688.12
639.50	692.80
639.65	730.25
639.80	645.99
639.94	711.52
640.09	678.76
640.24	627.26
640.39	702.16
640.54	683.44
640.68	636.63
640.83	678.76
640.98	688.12
641.13	622.58
641.27	559.39
641.42	650.67
641.57	662.37
641.72	653.01
641.86	669.39
642.01	655.35
642.16	685.78
642.31	610.88
642.45	692.80
642.60	718.54
642.75	678.76
642.90	718.54
643.04	664.71
643.19	610.88
643.34	720.88
643.48	683.44
643.63	723.23
643.78	653.01
643.93	706.84
644.07	596.84
644.22	660.03
644.37	617.90
644.51	692.80
644.66	671.73
644.81	643.65
644.95	711.52
645.10	641.31
645.25	692.80
645.39	622.58
645.54	622.58
645.69	629.60
645.83	681.10
645.98	629.60
646.13	547.69
646.27	617.90
646.42	582.79
646.57	592.16
646.71	552.37
646.86	617.90
647.00	648.33
647.15	653.01
647.30	592.16
647.44	540.66
647.59	629.60
647.74	519.60
647.88	610.88
648.03	573.43
648.17	571.09
648.32	561.73
648.47	608.54
648.61	681.10
648.76	636.63
648.90	676.41
649.05	741.95
649.20	732.59
649.34	854.30
649.49	814.51
649.63	1078.99
649.78	1179.63
649.92	1308.36
650.07	1675.82
650.21	1928.60
650.36	1975.41
650.51	2092.44
650.65	1898.17
650.80	1708.59
650.94	1535.39
651.09	1418.36
651.23	1245.16
651.38	1088.35
651.52	980.68
651.67	933.87
651.81	926.85
651.96	875.36
652.10	842.59
652.25	793.44
652.39	739.61
652.54	898.77
652.68	854.30
652.83	980.68
652.97	1011.11
653.12	1132.82
653.26	954.94
653.41	980.68
653.55	987.71
653.70	816.85
653.84	774.72
653.99	716.20
654.13	781.74
654.27	690.46
654.42	699.82
654.56	620.24
654.71	685.78
654.85	620.24
655.00	589.82
655.14	622.58
655.29	566.41
655.43	578.11
655.57	592.16
655.72	561.73
655.86	564.07
656.01	484.49
656.15	566.41
656.30	631.94
656.44	571.09
656.58	578.11
656.73	557.05
656.87	620.24
657.01	629.60
657.16	676.41
657.30	669.39
657.45	739.61
657.59	634.29
657.73	746.63
657.88	725.57
658.02	793.44
658.16	744.29
658.31	559.39
658.45	653.01
658.60	526.62
658.74	617.90
658.88	550.03
659.03	500.87
659.17	521.94
659.31	444.70
659.46	491.51
659.60	482.15
659.74	409.59
659.89	435.34
660.03	440.02
660.17	463.43
660.32	418.96
660.46	400.23
660.60	440.02
660.74	456.40
660.89	500.87
661.03	475.13
661.17	479.81
661.32	538.32
661.46	608.54
661.60	709.18
661.74	786.42
661.89	987.71
662.03	1142.18
662.17	1233.46
662.31	1240.48
662.46	1177.29
662.60	1165.59
662.74	919.83
662.88	912.81
663.03	915.15
663.17	746.63
663.31	725.57
663.45	774.72
663.60	676.41
663.74	550.03
663.88	491.51
664.02	573.43
664.17	533.64
664.31	456.40
664.45	491.51
664.59	479.81
664.73	451.72
664.88	475.13
665.02	395.55
665.16	454.06
665.30	395.55
665.44	437.68
665.59	475.13
665.73	393.21
665.87	489.17
666.01	454.06
666.15	442.36
666.29	383.85
666.44	449.38
666.58	524.28
666.72	395.55
666.86	435.34
667.00	484.49
667.14	402.57
667.28	442.36
667.43	407.25
667.57	517.26
667.71	454.06
667.85	507.90
667.99	416.62
668.13	416.62
668.27	442.36
668.41	376.83
668.56	379.17
668.70	421.30
668.84	454.06
668.98	404.91
669.12	376.83
669.26	442.36
669.40	540.66
669.54	407.25
669.68	346.40
669.82	355.76
669.96	351.08
670.10	311.29
670.25	376.83
670.39	407.25
670.53	440.02
670.67	388.53
670.81	400.23
670.95	421.30
671.09	428.32
671.23	477.47
671.37	437.68
671.51	435.34
671.65	407.25
671.79	400.23
671.93	416.62
672.07	430.66
672.21	418.96
672.35	362.78
672.49	390.87
672.63	337.04
672.77	379.17
672.91	301.93
673.05	325.33
673.19	280.86
673.33	390.87
673.47	386.19
673.61	313.63
673.75	318.31
673.89	358.10
674.03	428.32
674.17	334.70
674.31	337.04
674.45	372.15
674.59	348.74
674.73	339.38
674.87	327.68
675.01	444.70
675.15	322.99
675.29	400.23
675.43	344.06
675.56	346.40
675.70	423.64
675.84	304.27
675.98	308.95
676.12	304.27
676.26	292.57
676.40	322.99
676.54	353.42
676.68	341.72
676.82	299.59
676.96	297.25
677.10	365.12
677.23	341.72
677.37	325.33
677.51	341.72
677.65	369.80
677.79	292.57
677.93	210.65
678.07	294.91
678.21	257.46
678.34	294.91
678.48	262.14
678.62	339.38
678.76	285.55
678.90	299.59
679.04	341.72
679.18	273.84
679.31	290.23
679.45	262.14
679.59	327.68
679.73	320.65
679.87	318.31
680.00	332.36
680.14	262.14
680.28	334.70
680.42	360.44
680.56	381.51
680.70	358.10
680.83	423.64
680.97	344.06
681.11	379.17
681.25	369.80
681.39	308.95
681.52	425.98
681.66	306.61
681.80	327.68
681.94	313.63
682.07	301.93
682.21	301.93
682.35	360.44
682.49	311.29
682.62	341.72
682.76	294.91
682.90	287.89
683.04	280.86
683.17	372.15
683.31	325.33
683.45	327.68
683.59	311.29
683.72	344.06
683.86	351.08
684.00	271.50
684.13	269.16
684.27	299.59
684.41	318.31
684.55	290.23
684.68	271.50
684.82	334.70
684.96	306.61
685.09	264.48
685.23	269.16
685.37	283.20
685.50	355.76
685.64	355.76
685.78	313.63
685.91	292.57
686.05	404.91
686.19	355.76
686.32	421.30
686.46	402.57
686.60	468.11
686.73	519.60
686.87	475.13
687.01	547.69
687.14	507.90
687.28	662.37
687.42	582.79
687.55	692.80
687.69	788.76
687.82	657.69
687.96	648.33
688.10	676.41
688.23	655.35
688.37	561.73
688.50	568.75
688.64	451.72
688.78	386.19
688.91	341.72
689.05	407.25
689.18	334.70
689.32	365.12
689.46	250.44
689.59	360.44
689.73	285.55
689.86	283.20
690.00	315.97
690.13	294.91
690.27	299.59
690.41	257.46
690.54	351.08
690.68	353.42
690.81	259.80
690.95	234.05
691.08	210.65
691.22	330.02
691.35	234.05
691.49	212.99
691.62	224.69
691.76	182.56
691.89	196.60
692.03	156.82
692.16	201.29
692.30	257.46
692.43	220.01
692.57	220.01
692.70	145.11
692.84	238.73
692.97	266.82
693.11	276.18
693.24	402.57
693.38	456.40
693.51	498.53
693.65	594.50
693.78	643.65
693.92	552.37
694.05	510.24
694.19	437.68
694.32	388.53
694.45	353.42
694.59	334.70
694.72	257.46
694.86	264.48
694.99	215.33
695.13	208.31
695.26	245.76
695.39	208.31
695.53	280.86
695.66	241.08
695.80	290.23
695.93	156.82
696.07	220.01
696.20	217.67
696.33	231.71
696.47	205.97
696.60	234.05
696.73	217.67
696.87	210.65
697.00	257.46
697.14	175.54
697.27	131.07
697.40	133.41
697.54	95.96
697.67	117.03
697.80	163.84
697.94	191.92
698.07	180.22
698.21	149.79
698.34	243.42
698.47	140.43
698.61	191.92
698.74	175.54
698.87	166.18
699.01	138.09
699.14	102.98
699.27	170.86
699.40	304.27
699.54	173.20
699.67	100.64
699.80	98.30
699.94	133.41
700.07	217.67
700.20	126.39
700.34	184.90
700.47	184.90
700.60	177.88
700.73	161.50
700.87	145.11
701.00	212.99
701.13	161.50
701.26	173.20
701.40	175.54
701.53	170.86
701.66	100.64
701.79	180.22
701.93	133.41
702.06	212.99
702.19	145.11
702.32	173.20
702.46	135.75
702.59	135.75
702.72	131.07
702.85	138.09
702.99	156.82
703.12	212.99
703.25	222.35
703.38	252.78
703.51	301.93
703.65	299.59
703.78	229.37
703.91	227.03
704.04	353.42
704.17	341.72
704.31	234.05
704.44	236.39
704.57	271.50
704.70	308.95
704.83	280.86
704.96	257.46
705.10	358.10
705.23	332.36
>>>>>End Processed Spectral Data<<<<<
