SpectraSuite Data File
++++++++++++++++++++++++++++++++++++
Date: Mon Oct 07 15:00:00 GMT-05:00 2013
User: price-jones
Dark Spectrum Present: No
Reference Spectrum Present: No
Number of Sampled Component Spectra: 1
Spectrometers: USB2+H05261
Integration Time (usec): 100000 (USB2+H05261)
Spectra Averaged: 1 (USB2+H05261)
Boxcar Smoothing: 0 (USB2+H05261)
Correct for Electrical Dark: No (USB2+H05261)
Strobe/Lamp Enabled: No (USB2+H05261)
Correct for Detector Non-linearity: No (USB2+H05261)
Correct for Stray Light: No (USB2+H05261)
Number of Pixels in Processed Spectrum: 2048
>>>>>Begin Processed Spectral Data<<<<<
365.73	0.00
365.92	0.00
366.12	0.00
366.32	0.00
366.52	0.00
366.72	0.00
366.91	0.00
367.11	0.00
367.31	0.00
367.51	0.00
367.70	0.00
367.90	0.00
368.10	0.00
368.30	0.00
368.49	0.00
368.69	0.00
368.89	0.00
369.09	0.00
369.28	0.00
369.48	0.00
369.68	0.00
369.87	0.00
370.07	0.00
370.27	0.00
370.47	0.00
370.66	0.00
370.86	0.00
371.06	0.00
371.25	0.00
371.45	0.00
371.65	0.00
371.84	0.00
372.04	0.00
372.24	0.00
372.44	0.00
372.63	0.00
372.83	0.00
373.03	0.00
373.22	0.00
373.42	0.00
373.62	0.00
373.81	0.00
374.01	0.00
374.21	0.00
374.40	0.00
374.60	0.00
374.79	0.00
374.99	0.00
375.19	0.00
375.38	0.00
375.58	0.00
375.78	0.00
375.97	0.00
376.17	0.00
376.37	0.00
376.56	0.00
376.76	0.00
376.95	0.00
377.15	0.00
377.35	0.00
377.54	0.00
377.74	0.00
377.93	0.00
378.13	0.00
378.33	0.00
378.52	0.00
378.72	0.00
378.91	0.00
379.11	0.00
379.31	0.00
379.50	0.00
379.70	0.00
379.89	0.00
380.09	0.00
380.28	0.00
380.48	0.00
380.68	0.00
380.87	0.00
381.07	0.00
381.26	0.00
381.46	0.00
381.65	0.00
381.85	0.00
382.04	0.00
382.24	0.00
382.43	0.00
382.63	0.00
382.83	0.00
383.02	0.00
383.22	0.00
383.41	0.00
383.61	0.00
383.80	0.00
384.00	0.00
384.19	0.00
384.39	0.00
384.58	0.00
384.78	0.00
384.97	0.00
385.17	0.00
385.36	0.00
385.56	0.00
385.75	0.00
385.95	0.00
386.14	0.00
386.34	0.00
386.53	0.00
386.72	0.00
386.92	0.00
387.11	0.00
387.31	0.00
387.50	0.00
387.70	0.00
387.89	0.00
388.09	0.00
388.28	0.00
388.48	0.00
388.67	0.00
388.86	0.00
389.06	0.00
389.25	0.00
389.45	0.00
389.64	0.00
389.84	0.00
390.03	0.00
390.22	0.00
390.42	0.00
390.61	0.00
390.81	0.00
391.00	0.00
391.19	0.00
391.39	0.00
391.58	0.00
391.78	0.00
391.97	0.00
392.16	0.00
392.36	0.00
392.55	0.00
392.75	0.00
392.94	0.00
393.13	0.00
393.33	0.00
393.52	0.00
393.71	0.00
393.91	0.00
394.10	0.00
394.29	0.00
394.49	0.00
394.68	0.00
394.88	0.00
395.07	0.00
395.26	0.00
395.46	0.00
395.65	0.00
395.84	0.00
396.04	0.00
396.23	0.00
396.42	0.00
396.62	0.00
396.81	0.00
397.00	0.00
397.19	0.00
397.39	0.00
397.58	0.00
397.77	0.00
397.97	0.00
398.16	0.00
398.35	0.00
398.55	0.00
398.74	0.00
398.93	0.00
399.12	0.00
399.32	0.00
399.51	0.00
399.70	0.00
399.90	0.00
400.09	0.00
400.28	0.00
400.47	0.00
400.67	0.00
400.86	0.00
401.05	0.00
401.24	0.00
401.44	0.00
401.63	0.00
401.82	0.00
402.01	0.00
402.21	0.00
402.40	0.00
402.59	0.00
402.78	0.00
402.97	0.00
403.17	0.00
403.36	0.00
403.55	0.00
403.74	0.00
403.93	0.00
404.13	0.00
404.32	0.00
404.51	0.00
404.70	0.00
404.89	0.00
405.09	0.00
405.28	0.00
405.47	0.00
405.66	0.00
405.85	0.00
406.05	0.00
406.24	0.00
406.43	0.00
406.62	0.00
406.81	0.00
407.00	0.00
407.20	0.00
407.39	0.00
407.58	0.00
407.77	0.00
407.96	0.00
408.15	0.00
408.34	0.00
408.54	0.00
408.73	0.00
408.92	0.00
409.11	0.00
409.30	0.00
409.49	0.00
409.68	0.00
409.87	0.00
410.07	0.00
410.26	0.00
410.45	0.00
410.64	0.00
410.83	0.00
411.02	0.00
411.21	0.00
411.40	0.00
411.59	0.00
411.78	0.00
411.98	0.00
412.17	0.00
412.36	0.00
412.55	0.00
412.74	0.00
412.93	0.00
413.12	0.00
413.31	0.00
413.50	0.00
413.69	0.00
413.88	0.00
414.07	0.00
414.26	0.00
414.45	0.00
414.64	0.00
414.83	0.00
415.02	0.00
415.22	0.00
415.41	0.00
415.60	0.00
415.79	0.00
415.98	0.00
416.17	0.00
416.36	0.00
416.55	0.00
416.74	0.00
416.93	0.00
417.12	0.00
417.31	0.00
417.50	0.00
417.69	0.00
417.88	0.00
418.07	0.00
418.26	0.00
418.45	0.00
418.64	0.00
418.83	0.00
419.02	0.00
419.21	0.00
419.39	0.00
419.58	0.00
419.77	0.00
419.96	0.00
420.15	0.00
420.34	0.00
420.53	0.00
420.72	0.00
420.91	0.00
421.10	0.00
421.29	0.00
421.48	0.00
421.67	0.00
421.86	0.00
422.05	0.00
422.24	0.00
422.43	0.00
422.61	0.00
422.80	0.00
422.99	0.00
423.18	0.00
423.37	0.00
423.56	0.00
423.75	0.00
423.94	0.00
424.13	0.00
424.32	0.00
424.50	0.00
424.69	0.00
424.88	0.00
425.07	0.00
425.26	0.00
425.45	0.00
425.64	0.00
425.83	0.00
426.01	0.00
426.20	0.00
426.39	0.00
426.58	0.00
426.77	0.00
426.96	0.00
427.15	0.00
427.33	0.00
427.52	0.00
427.71	0.00
427.90	0.00
428.09	0.00
428.28	0.00
428.46	0.00
428.65	0.00
428.84	0.00
429.03	0.00
429.22	0.00
429.40	0.00
429.59	0.00
429.78	0.00
429.97	0.00
430.16	0.00
430.34	0.00
430.53	0.00
430.72	0.00
430.91	0.00
431.10	0.00
431.28	0.00
431.47	0.00
431.66	0.00
431.85	0.00
432.03	0.00
432.22	35.11
432.41	0.00
432.60	0.00
432.79	0.00
432.97	0.00
433.16	0.00
433.35	0.00
433.54	0.00
433.72	0.00
433.91	0.00
434.10	0.00
434.28	0.00
434.47	0.00
434.66	0.00
434.85	0.00
435.03	0.00
435.22	0.00
435.41	0.00
435.59	0.00
435.78	0.00
435.97	0.00
436.16	0.00
436.34	0.00
436.53	0.00
436.72	0.00
436.90	0.00
437.09	0.00
437.28	0.00
437.46	0.00
437.65	0.00
437.84	0.00
438.02	0.00
438.21	0.00
438.40	0.00
438.58	0.00
438.77	0.00
438.96	0.00
439.14	0.00
439.33	0.00
439.52	0.00
439.70	0.00
439.89	0.00
440.08	0.00
440.26	0.00
440.45	0.00
440.63	0.00
440.82	0.00
441.01	0.00
441.19	0.00
441.38	0.00
441.57	0.00
441.75	0.00
441.94	0.00
442.12	0.00
442.31	0.00
442.50	0.00
442.68	0.00
442.87	0.00
443.05	0.00
443.24	0.00
443.43	0.00
443.61	0.00
443.80	0.00
443.98	0.00
444.17	0.00
444.35	58.51
444.54	0.00
444.73	0.00
444.91	0.00
445.10	0.00
445.28	0.00
445.47	0.00
445.65	0.00
445.84	0.00
446.02	0.00
446.21	0.00
446.39	0.00
446.58	0.00
446.77	0.00
446.95	0.00
447.14	4.68
447.32	0.00
447.51	0.00
447.69	0.00
447.88	0.00
448.06	0.00
448.25	0.00
448.43	0.00
448.62	0.00
448.80	0.00
448.99	0.00
449.17	0.00
449.36	9.36
449.54	0.00
449.73	0.00
449.91	0.00
450.10	0.00
450.28	0.00
450.46	30.43
450.65	81.92
450.83	0.00
451.02	0.00
451.20	0.00
451.39	0.00
451.57	0.00
451.76	0.00
451.94	0.00
452.13	0.00
452.31	0.00
452.49	0.00
452.68	0.00
452.86	0.00
453.05	32.77
453.23	0.00
453.42	0.00
453.60	46.81
453.78	0.00
453.97	0.00
454.15	0.00
454.34	0.00
454.52	0.00
454.70	0.00
454.89	0.00
455.07	0.00
455.26	0.00
455.44	49.15
455.62	0.00
455.81	16.38
455.99	0.00
456.17	0.00
456.36	0.00
456.54	0.00
456.73	18.72
456.91	0.00
457.09	0.00
457.28	46.81
457.46	0.00
457.64	0.00
457.83	0.00
458.01	0.00
458.19	0.00
458.38	0.00
458.56	0.00
458.74	0.00
458.93	0.00
459.11	49.15
459.29	0.00
459.48	0.00
459.66	0.00
459.84	2.34
460.03	117.03
460.21	16.38
460.39	7.02
460.57	0.00
460.76	14.04
460.94	0.00
461.12	11.70
461.31	0.00
461.49	0.00
461.67	0.00
461.85	0.00
462.04	51.49
462.22	564.07
462.40	0.00
462.59	70.22
462.77	0.00
462.95	0.00
463.13	0.00
463.32	0.00
463.50	0.00
463.68	0.00
463.86	0.00
464.05	0.00
464.23	0.00
464.41	0.00
464.59	11.70
464.78	0.00
464.96	0.00
465.14	23.41
465.32	0.00
465.50	0.00
465.69	0.00
465.87	0.00
466.05	98.30
466.23	0.00
466.41	0.00
466.60	0.00
466.78	14.04
466.96	0.00
467.14	21.06
467.32	53.83
467.51	2.34
467.69	0.00
467.87	32.77
468.05	0.00
468.23	23.41
468.41	77.24
468.60	0.00
468.78	0.00
468.96	0.00
469.14	9.36
469.32	0.00
469.50	0.00
469.69	0.00
469.87	0.00
470.05	0.00
470.23	0.00
470.41	0.00
470.59	0.00
470.77	32.77
470.95	0.00
471.14	21.06
471.32	0.00
471.50	7.02
471.68	0.00
471.86	0.00
472.04	4.68
472.22	2.34
472.40	0.00
472.58	23.41
472.77	0.00
472.95	0.00
473.13	46.81
473.31	0.00
473.49	0.00
473.67	42.13
473.85	0.00
474.03	0.00
474.21	0.00
474.39	67.88
474.57	93.62
474.75	0.00
474.93	0.00
475.12	56.17
475.30	0.00
475.48	0.00
475.66	0.00
475.84	0.00
476.02	0.00
476.20	0.00
476.38	0.00
476.56	16.38
476.74	0.00
476.92	0.00
477.10	0.00
477.28	37.45
477.46	44.47
477.64	28.09
477.82	2.34
478.00	0.00
478.18	4.68
478.36	65.54
478.54	32.77
478.72	49.15
478.90	53.83
479.08	4.68
479.26	28.09
479.44	51.49
479.62	0.00
479.80	18.72
479.98	128.73
480.16	30.43
480.34	0.00
480.52	37.45
480.70	18.72
480.88	53.83
481.06	30.43
481.24	4.68
481.41	60.85
481.59	51.49
481.77	0.00
481.95	65.54
482.13	74.90
482.31	37.45
482.49	35.11
482.67	159.16
482.85	67.88
483.03	95.96
483.21	37.45
483.39	18.72
483.57	86.60
483.74	70.22
483.92	67.88
484.10	9.36
484.28	112.35
484.46	128.73
484.64	88.94
484.82	147.45
485.00	2.34
485.18	23.41
485.35	0.00
485.53	37.45
485.71	39.79
485.89	0.00
486.07	0.00
486.25	98.30
486.43	53.83
486.61	107.66
486.78	14.04
486.96	67.88
487.14	70.22
487.32	84.26
487.50	70.22
487.68	46.81
487.85	65.54
488.03	135.75
488.21	133.41
488.39	25.75
488.57	102.98
488.75	124.05
488.92	461.09
489.10	131.07
489.28	67.88
489.46	154.48
489.64	79.58
489.81	191.92
489.99	145.11
490.17	184.90
490.35	238.73
490.53	124.05
490.70	140.43
490.88	149.79
491.06	114.69
491.24	163.84
491.41	227.03
491.59	133.41
491.77	93.62
491.95	98.30
492.13	21.06
492.30	95.96
492.48	194.26
492.66	131.07
492.84	86.60
493.01	152.13
493.19	86.60
493.37	124.05
493.54	110.01
493.72	205.97
493.90	131.07
494.08	81.92
494.25	156.82
494.43	135.75
494.61	205.97
494.79	173.20
494.96	117.03
495.14	229.37
495.32	142.77
495.49	133.41
495.67	182.56
495.85	145.11
496.02	131.07
496.20	227.03
496.38	238.73
496.55	184.90
496.73	163.84
496.91	105.32
497.09	196.60
497.26	177.88
497.44	147.45
497.62	234.05
497.79	166.18
497.97	175.54
498.14	128.73
498.32	182.56
498.50	175.54
498.67	166.18
498.85	231.71
499.03	180.22
499.20	220.01
499.38	159.16
499.56	156.82
499.73	259.80
499.91	241.08
500.08	196.60
500.26	135.75
500.44	168.52
500.61	163.84
500.79	131.07
500.97	196.60
501.14	250.44
501.32	124.05
501.49	262.14
501.67	229.37
501.84	161.50
502.02	177.88
502.20	297.25
502.37	285.55
502.55	245.76
502.72	117.03
502.90	166.18
503.07	161.50
503.25	222.35
503.43	128.73
503.60	205.97
503.78	133.41
503.95	217.67
504.13	234.05
504.30	126.39
504.48	234.05
504.65	248.10
504.83	177.88
505.01	191.92
505.18	255.12
505.36	203.63
505.53	215.33
505.71	124.05
505.88	234.05
506.06	259.80
506.23	259.80
506.41	161.50
506.58	273.84
506.76	243.42
506.93	241.08
507.11	191.92
507.28	203.63
507.46	133.41
507.63	191.92
507.81	175.54
507.98	227.03
508.16	210.65
508.33	210.65
508.50	203.63
508.68	287.89
508.85	175.54
509.03	236.39
509.20	250.44
509.38	208.31
509.55	278.52
509.73	243.42
509.90	234.05
510.08	250.44
510.25	264.48
510.42	215.33
510.60	313.63
510.77	238.73
510.95	388.53
511.12	245.76
511.30	315.97
511.47	292.57
511.64	262.14
511.82	243.42
511.99	245.76
512.17	301.93
512.34	166.18
512.51	168.52
512.69	318.31
512.86	299.59
513.04	241.08
513.21	238.73
513.38	208.31
513.56	201.29
513.73	215.33
513.90	145.11
514.08	285.55
514.25	208.31
514.43	241.08
514.60	210.65
514.77	276.18
514.95	198.95
515.12	241.08
515.29	311.29
515.47	250.44
515.64	208.31
515.81	259.80
515.99	271.50
516.16	322.99
516.33	187.24
516.51	243.42
516.68	212.99
516.85	163.84
517.03	208.31
517.20	245.76
517.37	325.33
517.54	243.42
517.72	252.78
517.89	182.56
518.06	205.97
518.24	198.95
518.41	287.89
518.58	292.57
518.75	257.46
518.93	229.37
519.10	217.67
519.27	229.37
519.45	313.63
519.62	294.91
519.79	243.42
519.96	229.37
520.14	294.91
520.31	304.27
520.48	255.12
520.65	294.91
520.83	297.25
521.00	344.06
521.17	238.73
521.34	234.05
521.52	245.76
521.69	360.44
521.86	283.20
522.03	276.18
522.20	243.42
522.38	234.05
522.55	271.50
522.72	285.55
522.89	351.08
523.07	318.31
523.24	299.59
523.41	306.61
523.58	362.78
523.75	311.29
523.92	325.33
524.10	355.76
524.27	308.95
524.44	152.13
524.61	301.93
524.78	220.01
524.96	318.31
525.13	208.31
525.30	313.63
525.47	243.42
525.64	220.01
525.81	273.84
525.98	315.97
526.16	187.24
526.33	276.18
526.50	175.54
526.67	121.71
526.84	187.24
527.01	184.90
527.18	283.20
527.36	269.16
527.53	248.10
527.70	294.91
527.87	325.33
528.04	386.19
528.21	285.55
528.38	311.29
528.55	367.46
528.72	386.19
528.89	376.83
529.07	351.08
529.24	346.40
529.41	327.68
529.58	252.78
529.75	283.20
529.92	313.63
530.09	365.12
530.26	306.61
530.43	327.68
530.60	259.80
530.77	355.76
530.94	308.95
531.11	278.52
531.28	229.37
531.46	280.86
531.63	306.61
531.80	348.74
531.97	320.65
532.14	201.29
532.31	243.42
532.48	322.99
532.65	255.12
532.82	290.23
532.99	210.65
533.16	271.50
533.33	346.40
533.50	320.65
533.67	313.63
533.84	311.29
534.01	276.18
534.18	304.27
534.35	318.31
534.52	313.63
534.69	402.57
534.86	355.76
535.03	252.78
535.20	257.46
535.37	353.42
535.54	325.33
535.71	320.65
535.88	304.27
536.05	332.36
536.22	315.97
536.38	365.12
536.55	255.12
536.72	259.80
536.89	250.44
537.06	292.57
537.23	290.23
537.40	334.70
537.57	330.02
537.74	341.72
537.91	344.06
538.08	330.02
538.25	311.29
538.42	337.04
538.59	339.38
538.75	313.63
538.92	283.20
539.09	383.85
539.26	294.91
539.43	304.27
539.60	341.72
539.77	344.06
539.94	362.78
540.11	266.82
540.28	339.38
540.44	374.49
540.61	313.63
540.78	318.31
540.95	257.46
541.12	290.23
541.29	252.78
541.46	322.99
541.62	353.42
541.79	294.91
541.96	411.93
542.13	294.91
542.30	196.60
542.47	381.51
542.63	264.48
542.80	344.06
542.97	292.57
543.14	318.31
543.31	315.97
543.48	339.38
543.64	315.97
543.81	257.46
543.98	308.95
544.15	313.63
544.32	402.57
544.48	365.12
544.65	320.65
544.82	381.51
544.99	334.70
545.16	409.59
545.32	297.25
545.49	379.17
545.66	285.55
545.83	339.38
546.00	290.23
546.16	320.65
546.33	360.44
546.50	341.72
546.67	372.15
546.83	367.46
547.00	379.17
547.17	360.44
547.34	259.80
547.50	285.55
547.67	393.21
547.84	273.84
548.00	311.29
548.17	341.72
548.34	341.72
548.51	386.19
548.67	442.36
548.84	358.10
549.01	379.17
549.18	383.85
549.34	341.72
549.51	367.46
549.68	273.84
549.84	308.95
550.01	271.50
550.18	472.79
550.34	433.00
550.51	332.36
550.68	322.99
550.84	257.46
551.01	320.65
551.18	287.89
551.34	299.59
551.51	330.02
551.68	332.36
551.84	355.76
552.01	271.50
552.18	269.16
552.34	339.38
552.51	341.72
552.68	372.15
552.84	294.91
553.01	294.91
553.18	348.74
553.34	332.36
553.51	334.70
553.67	301.93
553.84	374.49
554.01	379.17
554.17	322.99
554.34	428.32
554.51	292.57
554.67	369.80
554.84	341.72
555.00	341.72
555.17	348.74
555.33	355.76
555.50	381.51
555.67	334.70
555.83	372.15
556.00	311.29
556.16	503.22
556.33	337.04
556.50	290.23
556.66	346.40
556.83	276.18
556.99	285.55
557.16	325.33
557.32	306.61
557.49	285.55
557.65	332.36
557.82	276.18
557.98	353.42
558.15	236.39
558.32	259.80
558.48	330.02
558.65	266.82
558.81	266.82
558.98	334.70
559.14	313.63
559.31	355.76
559.47	273.84
559.64	259.80
559.80	381.51
559.97	346.40
560.13	358.10
560.30	297.25
560.46	271.50
560.63	311.29
560.79	334.70
560.96	283.20
561.12	393.21
561.29	283.20
561.45	311.29
561.61	327.68
561.78	454.06
561.94	257.46
562.11	318.31
562.27	313.63
562.44	266.82
562.60	341.72
562.77	353.42
562.93	451.72
563.10	351.08
563.26	257.46
563.42	367.46
563.59	337.04
563.75	292.57
563.92	372.15
564.08	327.68
564.24	290.23
564.41	327.68
564.57	313.63
564.74	306.61
564.90	322.99
565.07	360.44
565.23	285.55
565.39	313.63
565.56	341.72
565.72	315.97
565.88	273.84
566.05	404.91
566.21	318.31
566.38	351.08
566.54	287.89
566.70	311.29
566.87	308.95
567.03	299.59
567.19	330.02
567.36	437.68
567.52	353.42
567.68	358.10
567.85	304.27
568.01	287.89
568.17	269.16
568.34	287.89
568.50	341.72
568.66	250.44
568.83	301.93
568.99	294.91
569.15	306.61
569.32	332.36
569.48	390.87
569.64	257.46
569.81	292.57
569.97	229.37
570.13	278.52
570.30	301.93
570.46	227.03
570.62	301.93
570.78	208.31
570.95	234.05
571.11	344.06
571.27	337.04
571.43	337.04
571.60	290.23
571.76	280.86
571.92	327.68
572.09	327.68
572.25	306.61
572.41	362.78
572.57	269.16
572.74	402.57
572.90	360.44
573.06	325.33
573.22	344.06
573.38	297.25
573.55	304.27
573.71	393.21
573.87	271.50
574.03	262.14
574.20	304.27
574.36	330.02
574.52	308.95
574.68	365.12
574.84	376.83
575.01	337.04
575.17	306.61
575.33	271.50
575.49	330.02
575.65	369.80
575.82	348.74
575.98	311.29
576.14	325.33
576.30	334.70
576.46	337.04
576.62	306.61
576.79	339.38
576.95	346.40
577.11	203.63
577.27	182.56
577.43	330.02
577.59	304.27
577.75	332.36
577.92	325.33
578.08	271.50
578.24	304.27
578.40	393.21
578.56	315.97
578.72	322.99
578.88	341.72
579.04	332.36
579.21	330.02
579.37	283.20
579.53	287.89
579.69	318.31
579.85	318.31
580.01	414.27
580.17	318.31
580.33	299.59
580.49	269.16
580.65	334.70
580.82	280.86
580.98	222.35
581.14	266.82
581.30	299.59
581.46	212.99
581.62	273.84
581.78	348.74
581.94	294.91
582.10	395.55
582.26	332.36
582.42	273.84
582.58	337.04
582.74	341.72
582.90	360.44
583.06	292.57
583.22	322.99
583.38	294.91
583.54	259.80
583.70	325.33
583.86	297.25
584.02	327.68
584.18	358.10
584.34	220.01
584.50	325.33
584.66	210.65
584.82	205.97
584.98	320.65
585.14	372.15
585.30	248.10
585.46	245.76
585.62	294.91
585.78	299.59
585.94	318.31
586.10	299.59
586.26	259.80
586.42	271.50
586.58	313.63
586.74	273.84
586.90	297.25
587.06	386.19
587.22	320.65
587.38	306.61
587.54	341.72
587.70	379.17
587.86	369.80
588.02	271.50
588.18	322.99
588.34	266.82
588.49	234.05
588.65	299.59
588.81	168.52
588.97	117.03
589.13	205.97
589.29	259.80
589.45	306.61
589.61	318.31
589.77	264.48
589.93	205.97
590.08	234.05
590.24	255.12
590.40	299.59
590.56	339.38
590.72	273.84
590.88	297.25
591.04	250.44
591.20	278.52
591.35	362.78
591.51	250.44
591.67	236.39
591.83	306.61
591.99	330.02
592.15	304.27
592.31	325.33
592.46	355.76
592.62	280.86
592.78	243.42
592.94	278.52
593.10	290.23
593.26	210.65
593.41	348.74
593.57	376.83
593.73	255.12
593.89	205.97
594.05	266.82
594.20	318.31
594.36	276.18
594.52	311.29
594.68	344.06
594.84	355.76
594.99	337.04
595.15	346.40
595.31	346.40
595.47	353.42
595.62	355.76
595.78	266.82
595.94	259.80
596.10	367.46
596.25	285.55
596.41	264.48
596.57	212.99
596.73	264.48
596.88	301.93
597.04	358.10
597.20	252.78
597.36	252.78
597.51	299.59
597.67	273.84
597.83	234.05
597.99	285.55
598.14	248.10
598.30	344.06
598.46	264.48
598.61	250.44
598.77	271.50
598.93	280.86
599.09	224.69
599.24	285.55
599.40	374.49
599.56	318.31
599.71	191.92
599.87	177.88
600.03	255.12
600.18	231.71
600.34	227.03
600.50	313.63
600.65	217.67
600.81	234.05
600.97	229.37
601.12	257.46
601.28	259.80
601.44	175.54
601.59	290.23
601.75	222.35
601.91	273.84
602.06	212.99
602.22	416.62
602.37	262.14
602.53	231.71
602.69	269.16
602.84	278.52
603.00	224.69
603.16	290.23
603.31	271.50
603.47	234.05
603.62	203.63
603.78	255.12
603.94	257.46
604.09	287.89
604.25	297.25
604.40	346.40
604.56	177.88
604.71	227.03
604.87	294.91
605.03	208.31
605.18	266.82
605.34	269.16
605.49	245.76
605.65	248.10
605.80	147.45
605.96	276.18
606.12	241.08
606.27	236.39
606.43	301.93
606.58	285.55
606.74	308.95
606.89	271.50
607.05	346.40
607.20	210.65
607.36	215.33
607.51	243.42
607.67	283.20
607.82	266.82
607.98	287.89
608.13	217.67
608.29	224.69
608.44	341.72
608.60	175.54
608.75	255.12
608.91	248.10
609.06	161.50
609.22	290.23
609.37	177.88
609.53	259.80
609.68	180.22
609.84	147.45
609.99	156.82
610.15	210.65
610.30	236.39
610.46	278.52
610.61	180.22
610.76	224.69
610.92	210.65
611.07	201.29
611.23	395.55
611.38	264.48
611.54	243.42
611.69	173.20
611.84	177.88
612.00	175.54
612.15	236.39
612.31	147.45
612.46	238.73
612.62	205.97
612.77	327.68
612.92	292.57
613.08	203.63
613.23	182.56
613.39	110.01
613.54	201.29
613.69	212.99
613.85	163.84
614.00	243.42
614.15	262.14
614.31	234.05
614.46	266.82
614.62	175.54
614.77	191.92
614.92	173.20
615.08	262.14
615.23	276.18
615.38	224.69
615.54	210.65
615.69	224.69
615.84	140.43
616.00	262.14
616.15	133.41
616.30	187.24
616.46	280.86
616.61	138.09
616.76	201.29
616.92	166.18
617.07	189.58
617.22	175.54
617.37	177.88
617.53	224.69
617.68	229.37
617.83	248.10
617.99	243.42
618.14	297.25
618.29	222.35
618.45	187.24
618.60	236.39
618.75	133.41
618.90	194.26
619.06	105.32
619.21	311.29
619.36	201.29
619.51	182.56
619.67	229.37
619.82	259.80
619.97	208.31
620.12	248.10
620.28	227.03
620.43	245.76
620.58	184.90
620.73	285.55
620.89	189.58
621.04	220.01
621.19	245.76
621.34	243.42
621.49	201.29
621.65	220.01
621.80	215.33
621.95	142.77
622.10	292.57
622.25	156.82
622.41	168.52
622.56	196.60
622.71	131.07
622.86	205.97
623.01	215.33
623.16	156.82
623.32	156.82
623.47	149.79
623.62	191.92
623.77	102.98
623.92	107.66
624.07	257.46
624.23	222.35
624.38	196.60
624.53	236.39
624.68	196.60
624.83	234.05
624.98	189.58
625.13	177.88
625.29	189.58
625.44	187.24
625.59	152.13
625.74	182.56
625.89	264.48
626.04	201.29
626.19	194.26
626.34	241.08
626.49	259.80
626.65	220.01
626.80	145.11
626.95	194.26
627.10	168.52
627.25	58.51
627.40	149.79
627.55	128.73
627.70	100.64
627.85	121.71
628.00	168.52
628.15	224.69
628.30	159.16
628.45	215.33
628.60	163.84
628.76	159.16
628.91	98.30
629.06	145.11
629.21	191.92
629.36	170.86
629.51	168.52
629.66	177.88
629.81	42.13
629.96	220.01
630.11	229.37
630.26	250.44
630.41	156.82
630.56	194.26
630.71	105.32
630.86	198.95
631.01	161.50
631.16	112.35
631.31	222.35
631.46	208.31
631.61	161.50
631.76	191.92
631.91	196.60
632.06	191.92
632.21	191.92
632.36	159.16
632.51	135.75
632.66	187.24
632.81	147.45
632.96	128.73
633.10	135.75
633.25	208.31
633.40	168.52
633.55	180.22
633.70	86.60
633.85	105.32
634.00	163.84
634.15	161.50
634.30	241.08
634.45	222.35
634.60	140.43
634.75	248.10
634.90	173.20
635.05	126.39
635.19	121.71
635.34	98.30
635.49	191.92
635.64	117.03
635.79	112.35
635.94	191.92
636.09	149.79
636.24	198.95
636.39	217.67
636.53	191.92
636.68	72.56
636.83	121.71
636.98	156.82
637.13	203.63
637.28	187.24
637.43	180.22
637.57	95.96
637.72	112.35
637.87	166.18
638.02	133.41
638.17	105.32
638.32	180.22
638.46	191.92
638.61	210.65
638.76	98.30
638.91	93.62
639.06	135.75
639.20	194.26
639.35	170.86
639.50	161.50
639.65	159.16
639.80	128.73
639.94	217.67
640.09	138.09
640.24	173.20
640.39	212.99
640.54	98.30
640.68	107.66
640.83	252.78
640.98	175.54
641.13	81.92
641.27	70.22
641.42	107.66
641.57	163.84
641.72	145.11
641.86	149.79
642.01	126.39
642.16	217.67
642.31	194.26
642.45	198.95
642.60	210.65
642.75	170.86
642.90	93.62
643.04	121.71
643.19	65.54
643.34	65.54
643.48	140.43
643.63	168.52
643.78	168.52
643.93	124.05
644.07	131.07
644.22	63.19
644.37	140.43
644.51	156.82
644.66	145.11
644.81	58.51
644.95	159.16
645.10	133.41
645.25	72.56
645.39	187.24
645.54	84.26
645.69	236.39
645.83	114.69
645.98	205.97
646.13	126.39
646.27	131.07
646.42	88.94
646.57	128.73
646.71	234.05
646.86	131.07
647.00	184.90
647.15	110.01
647.30	60.85
647.44	124.05
647.59	105.32
647.74	74.90
647.88	84.26
648.03	49.15
648.17	93.62
648.32	93.62
648.47	114.69
648.61	161.50
648.76	95.96
648.90	98.30
649.05	21.06
649.20	100.64
649.34	126.39
649.49	84.26
649.63	112.35
649.78	91.28
649.92	58.51
650.07	72.56
650.21	133.41
650.36	140.43
650.51	35.11
650.65	105.32
650.80	117.03
650.94	119.37
651.09	53.83
651.23	88.94
651.38	100.64
651.52	93.62
651.67	112.35
651.81	196.60
651.96	161.50
652.10	91.28
652.25	84.26
652.39	119.37
652.54	100.64
652.68	138.09
652.83	114.69
652.97	114.69
653.12	166.18
653.26	86.60
653.41	110.01
653.55	196.60
653.70	65.54
653.84	119.37
653.99	184.90
654.13	138.09
654.27	67.88
654.42	0.00
654.56	156.82
654.71	110.01
654.85	77.24
655.00	170.86
655.14	91.28
655.29	159.16
655.43	142.77
655.57	72.56
655.72	28.09
655.86	65.54
656.01	25.75
656.15	112.35
656.30	173.20
656.44	37.45
656.58	9.36
656.73	112.35
656.87	32.77
657.01	138.09
657.16	194.26
657.30	117.03
657.45	77.24
657.59	112.35
657.73	72.56
657.88	53.83
658.02	142.77
658.16	72.56
658.31	72.56
658.45	163.84
658.60	95.96
658.74	140.43
658.88	18.72
659.03	147.45
659.17	56.17
659.31	114.69
659.46	86.60
659.60	67.88
659.74	67.88
659.89	60.85
660.03	65.54
660.17	142.77
660.32	107.66
660.46	60.85
660.60	124.05
660.74	112.35
660.89	56.17
661.03	56.17
661.17	58.51
661.32	0.00
661.46	53.83
661.60	117.03
661.74	86.60
661.89	124.05
662.03	128.73
662.17	39.79
662.31	65.54
662.46	21.06
662.60	117.03
662.74	70.22
662.88	74.90
663.03	39.79
663.17	77.24
663.31	42.13
663.45	35.11
663.60	37.45
663.74	100.64
663.88	25.75
664.02	37.45
664.17	60.85
664.31	114.69
664.45	86.60
664.59	39.79
664.73	131.07
664.88	168.52
665.02	30.43
665.16	126.39
665.30	112.35
665.44	63.19
665.59	93.62
665.73	72.56
665.87	42.13
666.01	63.19
666.15	81.92
666.29	102.98
666.44	126.39
666.58	119.37
666.72	65.54
666.86	60.85
667.00	107.66
667.14	56.17
667.28	95.96
667.43	37.45
667.57	4.68
667.71	95.96
667.85	74.90
667.99	114.69
668.13	56.17
668.27	81.92
668.41	112.35
668.56	30.43
668.70	110.01
668.84	9.36
668.98	117.03
669.12	7.02
669.26	23.41
669.40	126.39
669.54	70.22
669.68	88.94
669.82	128.73
669.96	0.00
670.10	86.60
670.25	65.54
670.39	105.32
670.53	25.75
670.67	65.54
670.81	72.56
670.95	46.81
671.09	21.06
671.23	77.24
671.37	39.79
671.51	100.64
671.65	42.13
671.79	2.34
671.93	16.38
672.07	28.09
672.21	21.06
672.35	56.17
672.49	51.49
672.63	23.41
672.77	32.77
672.91	46.81
673.05	86.60
673.19	32.77
673.33	18.72
673.47	128.73
673.61	102.98
673.75	42.13
673.89	23.41
674.03	7.02
674.17	65.54
674.31	35.11
674.45	63.19
674.59	0.00
674.73	51.49
674.87	128.73
675.01	28.09
675.15	0.00
675.29	98.30
675.43	107.66
675.56	128.73
675.70	16.38
675.84	25.75
675.98	0.00
676.12	7.02
676.26	18.72
676.40	0.00
676.54	84.26
676.68	0.00
676.82	9.36
676.96	0.00
677.10	28.09
677.23	0.00
677.37	0.00
677.51	0.00
677.65	72.56
677.79	0.00
677.93	0.00
678.07	0.00
678.21	0.00
678.34	0.00
678.48	0.00
678.62	4.68
678.76	51.49
678.90	44.47
679.04	18.72
679.18	0.00
679.31	51.49
679.45	0.00
679.59	37.45
679.73	77.24
679.87	30.43
680.00	0.00
680.14	2.34
680.28	0.00
680.42	16.38
680.56	93.62
680.70	18.72
680.83	35.11
680.97	0.00
681.11	0.00
681.25	4.68
681.39	18.72
681.52	0.00
681.66	30.43
681.80	81.92
681.94	28.09
682.07	0.00
682.21	0.00
682.35	0.00
682.49	0.00
682.62	32.77
682.76	4.68
682.90	46.81
683.04	65.54
683.17	0.00
683.31	0.00
683.45	21.06
683.59	114.69
683.72	0.00
683.86	46.81
684.00	28.09
684.13	7.02
684.27	7.02
684.41	4.68
684.55	0.00
684.68	70.22
684.82	4.68
684.96	0.00
685.09	18.72
685.23	0.00
685.37	2.34
685.50	9.36
685.64	0.00
685.78	0.00
685.91	16.38
686.05	79.58
686.19	0.00
686.32	0.00
686.46	0.00
686.60	0.00
686.73	21.06
686.87	0.00
687.01	0.00
687.14	0.00
687.28	0.00
687.42	0.00
687.55	0.00
687.69	9.36
687.82	0.00
687.96	0.00
688.10	18.72
688.23	0.00
688.37	25.75
688.50	0.00
688.64	9.36
688.78	0.00
688.91	0.00
689.05	0.00
689.18	0.00
689.32	0.00
689.46	0.00
689.59	0.00
689.73	0.00
689.86	0.00
690.00	0.00
690.13	0.00
690.27	0.00
690.41	0.00
690.54	0.00
690.68	0.00
690.81	0.00
690.95	0.00
691.08	18.72
691.22	0.00
691.35	0.00
691.49	0.00
691.62	0.00
691.76	0.00
691.89	0.00
692.03	0.00
692.16	0.00
692.30	0.00
692.43	0.00
692.57	0.00
692.70	0.00
692.84	0.00
692.97	0.00
693.11	0.00
693.24	0.00
693.38	0.00
693.51	0.00
693.65	14.04
693.78	0.00
693.92	0.00
694.05	0.00
694.19	0.00
694.32	0.00
694.45	0.00
694.59	0.00
694.72	0.00
694.86	0.00
694.99	0.00
695.13	0.00
695.26	0.00
695.39	0.00
695.53	0.00
695.66	0.00
695.80	0.00
695.93	0.00
696.07	0.00
696.20	0.00
696.33	0.00
696.47	0.00
696.60	0.00
696.73	0.00
696.87	0.00
697.00	0.00
697.14	0.00
697.27	0.00
697.40	14.04
697.54	0.00
697.67	0.00
697.80	0.00
697.94	0.00
698.07	0.00
698.21	0.00
698.34	2.34
698.47	0.00
698.61	0.00
698.74	0.00
698.87	0.00
699.01	0.00
699.14	0.00
699.27	0.00
699.40	0.00
699.54	0.00
699.67	0.00
699.80	0.00
699.94	0.00
700.07	0.00
700.20	0.00
700.34	0.00
700.47	0.00
700.60	0.00
700.73	0.00
700.87	0.00
701.00	0.00
701.13	0.00
701.26	0.00
701.40	0.00
701.53	0.00
701.66	0.00
701.79	0.00
701.93	0.00
702.06	2.34
702.19	0.00
702.32	0.00
702.46	0.00
702.59	0.00
702.72	0.00
702.85	0.00
702.99	0.00
703.12	0.00
703.25	0.00
703.38	0.00
703.51	0.00
703.65	0.00
703.78	0.00
703.91	0.00
704.04	0.00
704.17	0.00
704.31	0.00
704.44	0.00
704.57	0.00
704.70	0.00
704.83	0.00
704.96	0.00
705.10	0.00
705.23	0.00
>>>>>End Processed Spectral Data<<<<<
