SpectraSuite Data File
++++++++++++++++++++++++++++++++++++
Date: Mon Oct 07 15:00:19 GMT-05:00 2013
User: price-jones
Dark Spectrum Present: No
Reference Spectrum Present: No
Number of Sampled Component Spectra: 1
Spectrometers: USB2+H05261
Integration Time (usec): 1000000 (USB2+H05261)
Spectra Averaged: 1 (USB2+H05261)
Boxcar Smoothing: 0 (USB2+H05261)
Correct for Electrical Dark: No (USB2+H05261)
Strobe/Lamp Enabled: No (USB2+H05261)
Correct for Detector Non-linearity: No (USB2+H05261)
Correct for Stray Light: No (USB2+H05261)
Number of Pixels in Processed Spectrum: 2048
>>>>>Begin Processed Spectral Data<<<<<
365.73	0.00
365.92	0.00
366.12	0.00
366.32	0.00
366.52	0.00
366.72	264.48
366.91	0.00
367.11	175.54
367.31	37.45
367.51	156.82
367.70	161.50
367.90	435.34
368.10	196.60
368.30	205.97
368.49	0.00
368.69	341.72
368.89	156.82
369.09	35.11
369.28	110.01
369.48	0.00
369.68	42.13
369.87	245.76
370.07	28.09
370.27	454.06
370.47	227.03
370.66	198.95
370.86	421.30
371.06	809.83
371.25	929.19
371.45	220.01
371.65	580.45
371.84	245.76
372.04	138.09
372.24	365.12
372.44	287.89
372.63	416.62
372.83	915.15
373.03	358.10
373.22	252.78
373.42	322.99
373.62	411.93
373.81	498.53
374.01	627.26
374.21	620.24
374.40	351.08
374.60	730.25
374.79	456.40
374.99	360.44
375.19	547.69
375.38	582.79
375.58	491.51
375.78	638.97
375.97	571.09
376.17	1022.81
376.37	461.09
376.56	540.66
376.76	236.39
376.95	283.20
377.15	557.05
377.35	496.19
377.54	517.26
377.74	348.74
377.93	332.36
378.13	472.79
378.33	688.12
378.52	374.49
378.72	697.48
378.91	561.73
379.11	320.65
379.31	301.93
379.50	196.60
379.70	709.18
379.89	706.84
380.09	339.38
380.28	154.48
380.48	400.23
380.68	227.03
380.87	255.12
381.07	543.00
381.26	755.99
381.46	224.69
381.65	634.29
381.85	290.23
382.04	564.07
382.24	533.64
382.43	379.17
382.63	234.05
382.83	353.42
383.02	578.11
383.22	819.19
383.41	280.86
383.61	463.43
383.80	798.12
384.00	451.72
384.19	346.40
384.39	535.98
384.58	435.34
384.78	559.39
384.97	526.62
385.17	447.04
385.36	332.36
385.56	702.16
385.75	229.37
385.95	414.27
386.14	631.94
386.34	351.08
386.53	454.06
386.72	404.91
386.92	854.30
387.11	676.41
387.31	704.50
387.50	255.12
387.70	245.76
387.89	440.02
388.09	248.10
388.28	257.46
388.48	264.48
388.67	669.39
388.86	423.64
389.06	444.70
389.25	491.51
389.45	447.04
389.64	433.00
389.84	720.88
390.03	613.22
390.22	524.28
390.42	348.74
390.61	252.78
390.81	234.05
391.00	404.91
391.19	781.74
391.39	433.00
391.58	608.54
391.78	519.60
391.97	559.39
392.16	250.44
392.36	795.78
392.55	704.50
392.75	388.53
392.94	304.27
393.13	622.58
393.33	252.78
393.52	285.55
393.71	793.44
393.91	407.25
394.10	285.55
394.29	400.23
394.49	355.76
394.68	472.79
394.88	772.38
395.07	755.99
395.26	465.77
395.46	493.85
395.65	767.70
395.84	610.88
396.04	1301.34
396.23	416.62
396.42	372.15
396.62	524.28
396.81	608.54
397.00	498.53
397.19	552.37
397.39	477.47
397.58	807.48
397.77	421.30
397.97	472.79
398.16	580.45
398.35	720.88
398.55	344.06
398.74	493.85
398.93	805.14
399.12	393.21
399.32	690.46
399.51	547.69
399.70	727.91
399.90	599.18
400.09	645.99
400.28	727.91
400.47	414.27
400.67	709.18
400.86	533.64
401.05	685.78
401.24	858.98
401.44	755.99
401.63	718.54
401.82	866.00
402.01	421.30
402.21	758.33
402.40	650.67
402.59	456.40
402.78	451.72
402.97	580.45
403.17	650.67
403.36	580.45
403.55	482.15
403.74	479.81
403.93	535.98
404.13	863.66
404.32	451.72
404.51	554.71
404.70	833.23
404.89	451.72
405.09	1121.12
405.28	550.03
405.47	456.40
405.66	779.40
405.85	894.08
406.05	622.58
406.24	655.35
406.43	781.74
406.62	767.70
406.81	1303.68
407.00	856.64
407.20	681.10
407.39	552.37
407.58	524.28
407.77	737.27
407.96	987.71
408.15	819.19
408.34	774.72
408.54	744.29
408.73	739.61
408.92	669.39
409.11	908.13
409.30	947.92
409.49	512.58
409.68	615.56
409.87	699.82
410.07	472.79
410.26	636.63
410.45	704.50
410.64	461.09
410.83	720.88
411.02	627.26
411.21	887.06
411.40	905.79
411.59	674.07
411.78	585.13
411.98	732.59
412.17	559.39
412.36	650.67
412.55	657.69
412.74	760.67
412.93	1181.97
413.12	535.98
413.31	968.98
413.50	816.85
413.69	676.41
413.88	1046.22
414.07	723.23
414.26	706.84
414.45	589.82
414.64	912.81
414.83	908.13
415.02	763.01
415.22	961.96
415.41	1104.73
415.60	688.12
415.79	887.06
415.98	1130.48
416.17	741.95
416.36	821.53
416.55	657.69
416.74	922.17
416.93	1008.77
417.12	765.36
417.31	718.54
417.50	798.12
417.69	1249.85
417.88	788.76
418.07	500.87
418.26	695.14
418.45	793.44
418.64	1231.12
418.83	903.45
419.02	908.13
419.21	767.70
419.39	884.72
419.58	645.99
419.77	643.65
419.96	1050.90
420.15	1207.72
420.34	732.59
420.53	844.93
420.72	1069.62
420.91	882.38
421.10	929.19
421.29	802.80
421.48	959.62
421.67	1064.94
421.86	821.53
422.05	809.83
422.24	727.91
422.43	835.57
422.61	702.16
422.80	755.99
422.99	805.14
423.18	645.99
423.37	1217.08
423.56	901.11
423.75	985.37
423.94	627.26
424.13	791.10
424.32	723.23
424.50	760.67
424.69	819.19
424.88	1245.16
425.07	755.99
425.26	943.24
425.45	950.26
425.64	683.44
425.83	849.61
426.01	1081.33
426.20	866.00
426.39	732.59
426.58	781.74
426.77	748.97
426.96	1022.81
427.15	788.76
427.33	795.78
427.52	830.89
427.71	851.96
427.90	868.34
428.09	748.97
428.28	631.94
428.46	741.95
428.65	1006.43
428.84	788.76
429.03	1188.99
429.22	720.88
429.40	601.52
429.59	573.43
429.78	954.94
429.97	706.84
430.16	653.01
430.34	636.63
430.53	575.77
430.72	674.07
430.91	1015.79
431.10	655.35
431.28	959.62
431.47	1174.95
431.66	1053.24
431.85	779.40
432.03	798.12
432.22	1558.80
432.41	851.96
432.60	1308.36
432.79	734.93
432.97	889.40
433.16	945.58
433.35	674.07
433.54	753.65
433.72	1064.94
433.91	945.58
434.10	788.76
434.28	912.81
434.47	786.42
434.66	1170.27
434.85	835.57
435.03	931.53
435.22	1383.26
435.41	1448.79
435.59	1034.52
435.78	1170.27
435.97	777.06
436.16	1146.86
436.34	1022.81
436.53	1137.50
436.72	1369.21
436.90	1193.67
437.09	940.90
437.28	985.37
437.46	952.60
437.65	1069.62
437.84	1093.03
438.02	1086.01
438.21	1116.44
438.40	833.23
438.58	795.78
438.77	945.58
438.96	1015.79
439.14	912.81
439.33	1156.22
439.52	929.19
439.70	1025.15
439.89	1224.10
440.08	1015.79
440.26	1001.75
440.45	1416.02
440.63	1144.52
440.82	1109.41
441.01	1125.80
441.19	985.37
441.38	1025.15
441.57	1114.10
441.75	1329.42
441.94	1488.58
442.12	1139.84
442.31	1137.50
442.50	1039.20
442.68	1057.92
442.87	1174.95
443.05	1107.07
443.24	1090.69
443.43	1210.06
443.61	1495.60
443.80	1104.73
443.98	1041.54
444.17	999.41
444.35	1313.04
444.54	1128.14
444.73	1149.20
444.91	1549.43
445.10	968.98
445.28	1041.54
445.47	1064.94
445.65	1025.15
445.84	980.68
446.02	1226.44
446.21	1041.54
446.39	1050.90
446.58	1301.34
446.77	1060.26
446.95	1090.69
447.14	1350.49
447.32	1563.48
447.51	1078.99
447.69	1245.16
447.88	1217.08
448.06	1589.22
448.25	1242.82
448.43	1041.54
448.62	889.40
448.80	1125.80
448.99	1416.02
449.17	1041.54
449.36	1046.22
449.54	1401.98
449.73	1074.31
449.91	1369.21
450.10	1081.33
450.28	1858.39
450.46	1806.89
450.65	1500.28
450.83	1277.93
451.02	1118.78
451.20	1156.22
451.39	1151.54
451.57	1188.99
451.76	1060.26
451.94	1254.53
452.13	1399.64
452.31	1392.62
452.49	1221.76
452.68	908.13
452.86	1186.65
453.05	1748.38
453.23	1184.31
453.42	957.28
453.60	1149.20
453.78	1310.70
453.97	1032.18
454.15	992.39
454.34	1055.58
454.52	985.37
454.70	1605.61
454.89	1455.81
455.07	1130.48
455.26	1366.87
455.44	1418.36
455.62	1270.91
455.81	1362.19
455.99	1352.83
456.17	1425.39
456.36	1135.16
456.54	1284.95
456.73	1050.90
456.91	1282.61
457.09	1359.85
457.28	1493.26
457.46	1284.95
457.64	1521.35
457.83	1291.98
458.01	1128.14
458.19	1205.38
458.38	1299.00
458.56	1352.83
458.74	1088.35
458.93	1385.60
459.11	1448.79
459.29	1090.69
459.48	1458.15
459.66	1818.60
459.84	1483.90
460.03	2413.09
460.21	1614.97
460.39	1322.40
460.57	1671.14
460.76	1291.98
460.94	1399.64
461.12	1877.11
461.31	1654.76
461.49	1345.81
461.67	1167.93
461.85	1444.11
462.04	1254.53
462.22	7613.76
462.40	1750.72
462.59	1792.85
462.77	1228.78
462.95	1380.92
463.13	1053.24
463.32	1540.07
463.50	1406.66
463.68	1488.58
463.86	1362.19
464.05	1252.19
464.23	1554.12
464.41	1493.26
464.59	1179.63
464.78	1252.19
464.96	1095.37
465.14	1334.11
465.32	1144.52
465.50	1413.68
465.69	1542.41
465.87	1205.38
466.05	1455.81
466.23	1064.94
466.41	1303.68
466.60	1291.98
466.78	1401.98
466.96	1593.90
467.14	1406.66
467.32	1750.72
467.51	1488.58
467.69	1530.71
467.87	1832.64
468.05	1397.30
468.23	1839.66
468.41	1645.40
468.60	1336.45
468.78	1376.24
468.96	1661.78
469.14	1509.65
469.32	1160.91
469.50	1107.07
469.69	1474.54
469.87	1387.94
470.05	1350.49
470.23	1228.78
470.41	1097.71
470.59	1224.10
470.77	1451.13
470.95	1364.53
471.14	1584.54
471.32	1409.00
471.50	1921.58
471.68	1376.24
471.86	1472.20
472.04	1299.00
472.22	1528.37
472.40	1210.06
472.58	1261.55
472.77	1149.20
472.95	1427.73
473.13	1944.99
473.31	1699.23
473.49	1207.72
473.67	1261.55
473.85	1582.20
474.03	1500.28
474.21	1425.39
474.39	1762.42
474.57	1860.73
474.75	1610.29
474.93	1329.42
475.12	1226.44
475.30	1301.34
475.48	1404.32
475.66	1509.65
475.84	1500.28
476.02	1401.98
476.20	1638.38
476.38	1511.99
476.56	2335.85
476.74	1519.01
476.92	1455.81
477.10	1540.07
477.28	1834.98
477.46	1497.94
477.64	1795.19
477.82	1710.93
478.00	1516.67
478.18	1596.25
478.36	1500.28
478.54	1528.37
478.72	1490.92
478.90	1593.90
479.08	1703.91
479.26	1610.29
479.44	1502.62
479.62	1383.26
479.80	1542.41
479.98	1533.05
480.16	1474.54
480.34	1834.98
480.52	1575.18
480.70	1834.98
480.88	1563.48
481.06	1497.94
481.24	1558.80
481.41	1652.42
481.59	1884.13
481.77	1771.79
481.95	1661.78
482.13	2094.78
482.31	1710.93
482.49	1689.87
482.67	1832.64
482.85	2043.29
483.03	1919.24
483.21	1776.47
483.39	1591.56
483.57	1872.43
483.74	2146.27
483.92	1755.40
484.10	1605.61
484.28	2094.78
484.46	2511.39
484.64	1802.21
484.82	1694.55
485.00	1811.57
485.18	1764.76
485.35	1748.38
485.53	1437.09
485.71	1886.47
485.89	1327.08
486.07	1544.75
486.25	2431.82
486.43	1933.28
486.61	2008.18
486.78	1898.17
486.96	1631.35
487.14	1699.23
487.32	1839.66
487.50	1790.51
487.68	2143.93
487.85	1732.00
488.03	2104.14
488.21	2265.64
488.39	1959.03
488.57	2087.76
488.75	1764.76
488.92	5497.92
489.10	2246.91
489.28	2658.85
489.46	1860.73
489.64	2012.86
489.81	2106.48
489.99	2305.43
490.17	2143.93
490.35	2974.82
490.53	2101.80
490.70	1940.30
490.88	2375.64
491.06	2043.29
491.24	2221.17
491.41	2450.54
491.59	2141.59
491.77	1706.25
491.95	1860.73
492.13	2078.40
492.30	2120.53
492.48	2120.53
492.66	2246.91
492.84	2176.70
493.01	2312.45
493.19	2115.84
493.37	2698.64
493.54	2354.58
493.72	2424.80
493.90	2253.94
494.08	2305.43
494.25	2471.61
494.43	2410.75
494.61	2251.60
494.79	2188.40
494.96	2054.99
495.14	2403.73
495.32	2069.03
495.49	2246.91
495.67	2298.41
495.85	2207.13
496.02	2188.40
496.20	2588.63
496.38	2590.97
496.55	2359.26
496.73	2672.89
496.91	2342.88
497.09	2658.85
497.26	2532.46
497.44	2368.62
497.62	2326.49
497.79	2354.58
497.97	2448.20
498.14	2579.27
498.32	2523.10
498.50	2527.78
498.67	2394.37
498.85	2651.83
499.03	2380.32
499.20	2420.11
499.38	2572.25
499.56	2509.05
499.73	3056.74
499.91	2703.32
500.08	2597.99
500.26	2403.73
500.44	2239.89
500.61	2616.72
500.79	2282.02
500.97	2558.21
501.14	2841.41
501.32	2504.37
501.49	2780.56
501.67	2424.80
501.84	2588.63
502.02	2239.89
502.20	3002.91
502.37	2778.22
502.55	2487.99
502.72	2490.33
502.90	2696.30
503.07	2649.49
503.25	2717.36
503.43	2244.57
503.60	2312.45
503.78	2455.22
503.95	2511.39
504.13	2385.01
504.30	2722.04
504.48	2841.41
504.65	2808.64
504.83	2827.37
505.01	2595.65
505.18	2766.51
505.36	2642.46
505.53	2600.34
505.71	2745.45
505.88	3016.95
506.06	2593.31
506.23	2640.12
506.41	2560.55
506.58	2773.53
506.76	2691.62
506.93	2574.59
507.11	2719.70
507.28	2436.50
507.46	2417.77
507.63	2630.76
507.81	2401.39
507.98	2511.39
508.16	2469.27
508.33	2590.97
508.50	2757.15
508.68	2663.53
508.85	2825.03
509.03	2513.74
509.20	2583.95
509.38	2808.64
509.55	3028.65
509.73	2960.78
509.90	3056.74
510.08	2516.08
510.25	2869.50
510.42	2511.39
510.60	2857.79
510.77	2869.50
510.95	2979.50
511.12	2717.36
511.30	2754.81
511.47	2930.35
511.64	3204.19
511.82	2651.83
511.99	2693.96
512.17	2525.44
512.34	2516.08
512.51	2576.93
512.69	2712.68
512.86	3112.91
513.04	2640.12
513.21	2717.36
513.38	2450.54
513.56	2672.89
513.73	2693.96
513.90	2520.76
514.08	2513.74
514.25	2853.11
514.43	2909.29
514.60	2518.42
514.77	2684.59
514.95	2820.35
515.12	2679.91
515.29	2897.58
515.47	2789.92
515.64	2874.18
515.81	2658.85
515.99	3138.66
516.16	2663.53
516.33	2822.69
516.51	2387.35
516.68	2122.87
516.85	2230.53
517.03	2256.28
517.20	2700.98
517.37	2743.11
517.54	2981.84
517.72	2661.19
517.89	2389.69
518.06	2239.89
518.24	2993.55
518.41	3070.78
518.58	2757.15
518.75	2647.15
518.93	2696.30
519.10	2843.75
519.27	2703.32
519.45	2799.28
519.62	2890.56
519.79	2913.97
519.96	2588.63
520.14	2867.16
520.31	3213.56
520.48	2656.51
520.65	2862.48
520.83	3178.45
521.00	2953.76
521.17	3080.14
521.34	2860.13
521.52	3038.02
521.69	2909.29
521.86	2836.73
522.03	3068.44
522.20	3318.88
522.38	2630.76
522.55	2808.64
522.72	2525.44
522.89	3070.78
523.07	3534.21
523.24	2867.16
523.41	2972.48
523.58	2876.52
523.75	2935.03
523.92	2857.79
524.10	3103.55
524.27	3056.74
524.44	2768.85
524.61	3337.60
524.78	2796.94
524.96	3038.02
525.13	2946.73
525.30	3307.18
525.47	3206.53
525.64	3136.32
525.81	2951.42
525.98	2920.99
526.16	2670.55
526.33	2586.29
526.50	2518.42
526.67	2415.43
526.84	2431.82
527.01	2602.68
527.18	2965.46
527.36	2860.13
527.53	2609.70
527.70	3286.11
527.87	2899.92
528.04	3438.25
528.21	2745.45
528.38	3297.81
528.55	3398.46
528.72	3531.87
528.89	3772.94
529.07	3122.27
529.24	2892.90
529.41	3339.94
529.58	3002.91
529.75	2951.42
529.92	3148.02
530.09	3108.23
530.26	3412.50
530.43	3307.18
530.60	3108.23
530.77	3208.87
530.94	3281.43
531.11	3309.52
531.28	3028.65
531.46	2881.20
531.63	3138.66
531.80	3206.53
531.97	3098.87
532.14	3075.46
532.31	2867.16
532.48	2956.10
532.65	2944.39
532.82	2724.38
532.99	2841.41
533.16	2972.48
533.33	3171.43
533.50	2913.97
533.67	2754.81
533.84	3108.23
534.01	3073.12
534.18	2932.69
534.35	3105.89
534.52	3131.64
534.69	3716.77
534.86	3005.25
535.03	3063.76
535.20	3112.91
535.37	3424.20
535.54	3274.41
535.71	3110.57
535.88	3609.11
536.05	3080.14
536.22	3344.63
536.38	3063.76
536.55	3049.72
536.72	3311.86
536.89	2766.51
537.06	2902.26
537.23	3052.06
537.40	3056.74
537.57	3042.70
537.74	3307.18
537.91	3344.63
538.08	3105.89
538.25	3169.09
538.42	3084.83
538.59	3152.70
538.75	2972.48
538.92	3054.40
539.09	3253.34
539.26	2890.56
539.43	3426.54
539.60	3023.97
539.77	3192.49
539.94	2904.60
540.11	3059.08
540.28	3421.86
540.44	3339.94
540.61	2972.48
540.78	2974.82
540.95	2789.92
541.12	3538.89
541.29	3026.31
541.46	3468.67
541.62	3101.21
541.79	3040.36
541.96	2766.51
542.13	2874.18
542.30	2881.20
542.47	3258.03
542.63	3089.51
542.80	3124.62
542.97	3342.28
543.14	2895.24
543.31	3307.18
543.48	3138.66
543.64	3234.62
543.81	3112.91
543.98	3002.91
544.15	2768.85
544.32	3075.46
544.48	3066.10
544.65	3066.10
544.82	3045.04
544.99	3045.04
545.16	3356.33
545.32	2979.50
545.49	3122.27
545.66	3089.51
545.83	2979.50
546.00	2768.85
546.16	2988.86
546.33	3059.08
546.50	3136.32
546.67	3463.99
546.83	3236.96
547.00	3119.93
547.17	2785.24
547.34	2827.37
547.50	2949.08
547.67	3056.74
547.84	2953.76
548.00	3300.16
548.17	3070.78
548.34	2942.05
548.51	3590.38
548.67	3485.06
548.84	2972.48
549.01	3243.98
549.18	3073.12
549.34	3185.47
549.51	3215.90
549.68	3206.53
549.84	3033.33
550.01	2902.26
550.18	4521.92
550.34	3861.88
550.51	3126.96
550.68	3583.36
550.84	3054.40
551.01	3101.21
551.18	3368.03
551.34	3040.36
551.51	3094.19
551.68	3164.40
551.84	3403.14
552.01	3094.19
552.18	3045.04
552.34	3049.72
552.51	3110.57
552.68	3169.09
552.84	3007.59
553.01	3155.04
553.18	3239.30
553.34	3012.27
553.51	2832.05
553.67	3248.66
553.84	3749.54
554.01	3396.12
554.17	3356.33
554.34	3124.62
554.51	3290.79
554.67	3485.06
554.84	3461.65
555.00	3246.32
555.17	3185.47
555.33	3393.78
555.50	3131.64
555.67	3229.94
555.83	2883.54
556.00	3122.27
556.16	5107.05
556.33	3300.16
556.50	3129.30
556.66	3014.61
556.83	2946.73
556.99	2836.73
557.16	3007.59
557.32	2909.29
557.49	3019.29
557.65	2981.84
557.82	2853.11
557.98	3131.64
558.15	2719.70
558.32	2925.67
558.48	2785.24
558.65	2825.03
558.81	3035.67
558.98	2867.16
559.14	3218.24
559.31	3070.78
559.47	3169.09
559.64	2832.05
559.80	3176.11
559.97	2715.02
560.13	2848.43
560.30	2857.79
560.46	3002.91
560.63	3068.44
560.79	3073.12
560.96	3000.57
561.12	2920.99
561.29	3042.70
561.45	2965.46
561.61	2981.84
561.78	3974.23
561.94	3021.63
562.11	2930.35
562.27	2944.39
562.44	2888.22
562.60	2963.12
562.77	2909.29
562.93	3733.15
563.10	3068.44
563.26	2956.10
563.42	3232.28
563.59	3164.40
563.75	2906.95
563.92	3321.22
564.08	3286.11
564.24	3126.96
564.41	3588.04
564.57	2890.56
564.74	2918.65
564.90	3148.02
565.07	3080.14
565.23	3183.13
565.39	2789.92
565.56	2935.03
565.72	2759.49
565.88	2937.37
566.05	2782.90
566.21	2867.16
566.38	3066.10
566.54	3122.27
566.70	2885.88
566.87	2857.79
567.03	2684.59
567.19	3042.70
567.36	3190.15
567.52	2888.22
567.68	3103.55
567.85	2946.73
568.01	2796.94
568.17	2555.86
568.34	2794.60
568.50	3229.94
568.66	2675.23
568.83	3826.78
568.99	2752.47
569.15	3166.74
569.32	3009.93
569.48	2825.03
569.64	2551.18
569.81	2853.11
569.97	2754.81
570.13	3080.14
570.30	2649.49
570.46	2637.78
570.62	2876.52
570.78	2787.58
570.95	2630.76
571.11	3353.99
571.27	3358.67
571.43	2771.19
571.60	3105.89
571.76	2946.73
571.92	2878.86
572.09	2895.24
572.25	2883.54
572.41	2949.08
572.57	3002.91
572.74	3421.86
572.90	3199.51
573.06	2942.05
573.22	3141.00
573.38	3258.03
573.55	3192.49
573.71	3225.26
573.87	3014.61
574.03	2782.90
574.20	2818.00
574.36	3288.45
574.52	2813.32
574.68	2698.64
574.84	3145.68
575.01	2888.22
575.17	2883.54
575.33	2925.67
575.49	3274.41
575.65	3272.07
575.82	3094.19
575.98	3501.44
576.14	2885.88
576.30	2818.00
576.46	2813.32
576.62	2923.33
576.79	3056.74
576.95	3288.45
577.11	2759.49
577.27	2731.41
577.43	3150.36
577.59	3295.47
577.75	2998.23
577.92	2658.85
578.08	2616.72
578.24	2537.14
578.40	3094.19
578.56	3136.32
578.72	3321.22
578.88	3211.22
579.04	2794.60
579.21	2993.55
579.37	2935.03
579.53	2785.24
579.69	3148.02
579.85	2656.51
580.01	2988.86
580.17	2813.32
580.33	2787.58
580.49	2935.03
580.65	3059.08
580.82	2918.65
580.98	2942.05
581.14	2745.45
581.30	3304.84
581.46	2930.35
581.62	3246.32
581.78	2815.66
581.94	3014.61
582.10	2623.74
582.26	2899.92
582.42	2686.94
582.58	3052.06
582.74	2860.13
582.90	2991.20
583.06	2972.48
583.22	3192.49
583.38	2869.50
583.54	2827.37
583.70	3297.81
583.86	2998.23
584.02	2918.65
584.18	3293.13
584.34	2878.86
584.50	2885.88
584.66	2733.75
584.82	2733.75
584.98	2871.84
585.14	2836.73
585.30	3276.75
585.46	2888.22
585.62	2633.10
585.78	2715.02
585.94	3040.36
586.10	2920.99
586.26	2834.39
586.42	3358.67
586.58	2977.16
586.74	2911.63
586.90	2906.95
587.06	3028.65
587.22	3066.10
587.38	2799.28
587.54	2876.52
587.70	3059.08
587.86	3049.72
588.02	2799.28
588.18	2928.01
588.34	2818.00
588.49	2298.41
588.65	2441.18
588.81	2441.18
588.97	2211.81
589.13	2408.41
589.29	2539.48
589.45	2862.48
589.61	2593.31
589.77	3019.29
589.93	2567.57
590.08	2675.23
590.24	2562.89
590.40	2829.71
590.56	3030.99
590.72	2693.96
590.88	2525.44
591.04	2775.88
591.20	2562.89
591.35	3073.12
591.51	2670.55
591.67	2597.99
591.83	2677.57
591.99	2935.03
592.15	3080.14
592.31	2729.06
592.46	2752.47
592.62	2993.55
592.78	2672.89
592.94	2637.78
593.10	2583.95
593.26	2588.63
593.41	2965.46
593.57	2736.09
593.73	2612.04
593.89	3014.61
594.05	2672.89
594.20	2651.83
594.36	2981.84
594.52	2518.42
594.68	2408.41
594.84	2937.37
594.99	3143.34
595.15	2810.98
595.31	2939.71
595.47	3361.01
595.62	2759.49
595.78	2738.43
595.94	2740.77
596.10	3211.22
596.25	2892.90
596.41	2834.39
596.57	2663.53
596.73	2572.25
596.88	2719.70
597.04	2773.53
597.20	2518.42
597.36	2733.75
597.51	2705.66
597.67	2637.78
597.83	2593.31
597.99	3026.31
598.14	2672.89
598.30	2988.86
598.46	2544.16
598.61	3075.46
598.77	2899.92
598.93	2581.61
599.09	2684.59
599.24	2841.41
599.40	2993.55
599.56	2621.40
599.71	2796.94
599.87	2532.46
600.03	2644.81
600.18	2609.70
600.34	2832.05
600.50	2532.46
600.65	2450.54
600.81	2855.45
600.97	2452.88
601.12	2511.39
601.28	2794.60
601.44	2745.45
601.59	2480.97
601.75	2696.30
601.91	2434.16
602.06	2602.68
602.22	3524.85
602.37	2839.07
602.53	2551.18
602.69	2532.46
602.84	2420.11
603.00	2569.91
603.16	2860.13
603.31	2808.64
603.47	2808.64
603.62	2296.07
603.78	2649.49
603.94	2724.38
604.09	2644.81
604.25	2768.85
604.40	2928.01
604.56	2551.18
604.71	2600.34
604.87	2499.69
605.03	2602.68
605.18	2810.98
605.34	2897.58
605.49	2590.97
605.65	2609.70
605.80	2527.78
605.96	2731.41
606.12	2890.56
606.27	2878.86
606.43	2754.81
606.58	2897.58
606.74	2621.40
606.89	2693.96
607.05	2778.22
607.20	2651.83
607.36	2661.19
607.51	2272.66
607.67	2621.40
607.82	2780.56
607.98	2932.69
608.13	2654.17
608.29	2539.48
608.44	2850.77
608.60	2607.36
608.75	2768.85
608.91	2752.47
609.06	2801.62
609.22	2864.82
609.37	2415.43
609.53	2424.80
609.68	2436.50
609.84	2232.87
609.99	2237.55
610.15	2581.61
610.30	2630.76
610.46	2780.56
610.61	2548.84
610.76	2502.03
610.92	2626.08
611.07	2415.43
611.23	3304.84
611.38	2792.26
611.54	2291.38
611.69	2289.04
611.84	2476.29
612.00	2305.43
612.15	2300.75
612.31	2427.14
612.46	2352.24
612.62	2282.02
612.77	2712.68
612.92	2548.84
613.08	2869.50
613.23	2427.14
613.39	2392.03
613.54	2188.40
613.69	2296.07
613.85	2211.81
614.00	2211.81
614.15	2422.45
614.31	2221.17
614.46	2600.34
614.62	2377.98
614.77	2722.04
614.92	2251.60
615.08	2539.48
615.23	2485.65
615.38	2413.09
615.54	2314.79
615.69	2310.11
615.84	2174.36
616.00	2345.22
616.15	2204.78
616.30	2319.47
616.46	2333.51
616.61	2188.40
616.76	2546.50
616.92	2464.58
617.07	2263.30
617.22	2193.08
617.37	2340.54
617.53	2445.86
617.68	2361.60
617.83	2420.11
617.99	2722.04
618.14	2944.39
618.29	2775.88
618.45	2359.26
618.60	2331.17
618.75	2195.42
618.90	2094.78
619.06	2445.86
619.21	2967.80
619.36	2855.45
619.51	2291.38
619.67	2225.85
619.82	2282.02
619.97	2609.70
620.12	2628.42
620.28	2478.63
620.43	2436.50
620.58	2513.74
620.73	2548.84
620.89	2410.75
621.04	2387.35
621.19	2843.75
621.34	2204.78
621.49	2204.78
621.65	2516.08
621.80	2083.08
621.95	2244.57
622.10	2476.29
622.25	2015.20
622.41	2179.04
622.56	2207.13
622.71	2385.01
622.86	2544.16
623.01	2204.78
623.16	2715.02
623.32	2146.27
623.47	2394.37
623.62	2207.13
623.77	2342.88
623.92	2120.53
624.07	2115.84
624.23	2214.15
624.38	2052.65
624.53	2221.17
624.68	2422.45
624.83	2605.02
624.98	2452.88
625.13	2113.50
625.29	2015.20
625.44	2179.04
625.59	2289.04
625.74	2256.28
625.89	2642.46
626.04	1987.11
626.19	2050.31
626.34	2120.53
626.49	2260.96
626.65	2024.56
626.80	2040.95
626.95	2333.51
627.10	2024.56
627.25	2176.70
627.40	2008.18
627.55	2200.10
627.70	2083.08
627.85	2282.02
628.00	2118.18
628.15	1952.01
628.30	2143.93
628.45	1963.71
628.60	2085.42
628.76	2286.70
628.91	2134.57
629.06	2232.87
629.21	1977.75
629.36	2317.13
629.51	1898.17
629.66	2195.42
629.81	2005.84
629.96	2165.00
630.11	2298.41
630.26	2218.83
630.41	2054.99
630.56	2204.78
630.71	1886.47
630.86	2033.93
631.01	1998.82
631.16	1916.90
631.31	2506.71
631.46	2385.01
631.61	2026.90
631.76	2225.85
631.91	2106.48
632.06	2340.54
632.21	2321.81
632.36	2150.95
632.51	1949.67
632.66	2160.31
632.81	2057.33
632.96	2186.06
633.10	2181.38
633.25	2534.80
633.40	2136.91
633.55	2155.63
633.70	2066.69
633.85	2277.34
634.00	1818.60
634.15	1895.83
634.30	2211.81
634.45	2127.55
634.60	2038.61
634.75	1877.11
634.90	1926.26
635.05	2059.67
635.19	2139.25
635.34	2099.46
635.49	2342.88
635.64	2071.37
635.79	1991.80
635.94	2303.09
636.09	2310.11
636.24	2139.25
636.39	2246.91
636.53	2181.38
636.68	1888.81
636.83	2143.93
636.98	2441.18
637.13	1996.48
637.28	2204.78
637.43	2553.52
637.57	2342.88
637.72	2560.55
637.87	2230.53
638.02	1909.88
638.17	2076.06
638.32	2431.82
638.46	2073.71
638.61	2576.93
638.76	1856.04
638.91	1996.48
639.06	1952.01
639.20	2476.29
639.35	2293.72
639.50	2043.29
639.65	2649.49
639.80	2146.27
639.94	2375.64
640.09	2520.76
640.24	2338.20
640.39	2249.25
640.54	2235.21
640.68	2038.61
640.83	2352.24
640.98	1975.41
641.13	1966.05
641.27	1797.53
641.42	1909.88
641.57	2298.41
641.72	1968.39
641.86	1982.43
642.01	1914.56
642.16	2326.49
642.31	1825.62
642.45	2530.12
642.60	2359.26
642.75	1865.41
642.90	2270.32
643.04	1827.96
643.19	1879.45
643.34	1987.11
643.48	2015.20
643.63	1919.24
643.78	2356.92
643.93	2443.52
644.07	2050.31
644.22	1959.03
644.37	1708.59
644.51	2111.16
644.66	2029.24
644.81	1987.11
644.95	2211.81
645.10	1898.17
645.25	1783.49
645.39	2239.89
645.54	1804.55
645.69	2520.76
645.83	1640.72
645.98	2668.21
646.13	1937.96
646.27	2094.78
646.42	1710.93
646.57	1849.02
646.71	1891.15
646.86	1792.85
647.00	1963.71
647.15	2076.06
647.30	1692.21
647.44	1846.68
647.59	1692.21
647.74	1633.69
647.88	1818.60
648.03	1570.50
648.17	2167.34
648.32	1654.76
648.47	1930.94
648.61	1790.51
648.76	1717.95
648.90	1724.97
649.05	1774.13
649.20	1493.26
649.34	1664.12
649.49	1612.63
649.63	1795.19
649.78	1629.01
649.92	1830.30
650.07	1977.75
650.21	1776.47
650.36	2078.40
650.51	1748.38
650.65	2413.09
650.80	1795.19
650.94	1668.80
651.09	1802.21
651.23	1717.95
651.38	1600.93
651.52	1715.61
651.67	1727.32
651.81	1863.07
651.96	2275.00
652.10	2181.38
652.25	1900.52
652.39	1963.71
652.54	1898.17
652.68	1996.48
652.83	1935.62
652.97	1886.47
653.12	1935.62
653.26	1739.02
653.41	2169.68
653.55	1994.14
653.70	1631.35
653.84	1827.96
653.99	1722.63
654.13	1563.48
654.27	1755.40
654.42	1519.01
654.56	1837.32
654.71	2064.35
654.85	1593.90
655.00	1579.86
655.14	1727.32
655.29	1493.26
655.43	1928.60
655.57	1717.95
655.72	1416.02
655.86	1504.96
656.01	1626.67
656.15	1404.32
656.30	2008.18
656.44	1460.49
656.58	1390.28
656.73	1659.44
656.87	1483.90
657.01	1713.27
657.16	2263.30
657.30	1937.96
657.45	2179.04
657.59	1907.54
657.73	1502.62
657.88	1774.13
658.02	2644.81
658.16	1685.19
658.31	1806.89
658.45	1750.72
658.60	1416.02
658.74	1643.06
658.88	1591.56
659.03	1551.78
659.17	1626.67
659.31	1708.59
659.46	1671.14
659.60	1809.23
659.74	1776.47
659.89	1570.50
660.03	1729.66
660.17	2279.68
660.32	1834.98
660.46	1804.55
660.60	1659.44
660.74	1823.28
660.89	1724.97
661.03	1537.73
661.17	1645.40
661.32	1633.69
661.46	1722.63
661.60	1579.86
661.74	1799.87
661.89	1987.11
662.03	1806.89
662.17	1626.67
662.31	1809.23
662.46	1825.62
662.60	1790.51
662.74	1713.27
662.88	1844.34
663.03	1598.59
663.17	1526.03
663.31	1636.03
663.45	1774.13
663.60	1474.54
663.74	1430.07
663.88	1394.96
664.02	1736.68
664.17	1502.62
664.31	1397.30
664.45	1741.36
664.59	1462.83
664.73	1673.48
664.88	1900.52
665.02	1507.30
665.16	1521.35
665.30	2012.86
665.44	1640.72
665.59	1952.01
665.73	1650.08
665.87	1603.27
666.01	1579.86
666.15	1591.56
666.29	1434.75
666.44	2033.93
666.58	2298.41
666.72	1490.92
666.86	1540.07
667.00	1781.15
667.14	1514.33
667.28	1767.10
667.43	1535.39
667.57	1647.74
667.71	1771.79
667.85	1687.53
667.99	1706.25
668.13	1638.38
668.27	1799.87
668.41	1774.13
668.56	1542.41
668.70	1942.64
668.84	1554.12
668.98	1647.74
669.12	1341.13
669.26	1610.29
669.40	2349.90
669.54	1743.70
669.68	1863.07
669.82	1472.20
669.96	1652.42
670.10	1678.16
670.25	1834.98
670.39	1902.86
670.53	1558.80
670.67	1764.76
670.81	1369.21
670.95	1600.93
671.09	1530.71
671.23	1968.39
671.37	1715.61
671.51	1544.75
671.65	1614.97
671.79	1430.07
671.93	1661.78
672.07	2146.27
672.21	1673.48
672.35	1448.79
672.49	1362.19
672.63	1764.76
672.77	1626.67
672.91	1582.20
673.05	1577.52
673.19	1584.54
673.33	1282.61
673.47	2050.31
673.61	1497.94
673.75	1373.89
673.89	1263.89
674.03	1811.57
674.17	1481.56
674.31	1610.29
674.45	1748.38
674.59	1568.16
674.73	1540.07
674.87	1619.65
675.01	1647.74
675.15	1336.45
675.29	1797.53
675.43	1820.94
675.56	1933.28
675.70	1811.57
675.84	1411.34
675.98	1542.41
676.12	1207.72
676.26	1322.40
676.40	1196.01
676.54	1465.18
676.68	1259.21
676.82	1621.99
676.96	1188.99
677.10	1481.56
677.23	1249.85
677.37	1214.74
677.51	1479.22
677.65	2078.40
677.79	1261.55
677.93	1275.59
678.07	1277.93
678.21	1207.72
678.34	1172.61
678.48	1170.27
678.62	1434.75
678.76	1088.35
678.90	1504.96
679.04	1322.40
679.18	1198.35
679.31	1109.41
679.45	1149.20
679.59	1390.28
679.73	1352.83
679.87	1076.65
680.00	1488.58
680.14	1411.34
680.28	1469.86
680.42	1231.12
680.56	1504.96
680.70	1121.12
680.83	1444.11
680.97	1184.31
681.11	1109.41
681.25	1547.09
681.39	1301.34
681.52	1313.04
681.66	1336.45
681.80	1432.41
681.94	1015.79
682.07	1296.66
682.21	1371.55
682.35	1158.57
682.49	1057.92
682.62	1476.88
682.76	1156.22
682.90	1231.12
683.04	1413.68
683.17	1371.55
683.31	1167.93
683.45	1455.81
683.59	1666.46
683.72	1586.88
683.86	1219.42
684.00	1156.22
684.13	1507.30
684.27	1387.94
684.41	1315.38
684.55	1217.08
684.68	1207.72
684.82	1090.69
684.96	1139.84
685.09	1266.23
685.23	1013.45
685.37	971.32
685.50	1380.92
685.64	1561.14
685.78	987.71
685.91	1270.91
686.05	1565.82
686.19	1233.46
686.32	1111.75
686.46	1053.24
686.60	713.86
686.73	1666.46
686.87	1196.01
687.01	765.36
687.14	641.31
687.28	741.95
687.42	844.93
687.55	1020.47
687.69	1411.34
687.82	870.68
687.96	1050.90
688.10	1310.70
688.23	1006.43
688.37	1441.77
688.50	1172.61
688.64	1128.14
688.78	856.64
688.91	877.70
689.05	915.15
689.18	690.46
689.32	922.17
689.46	805.14
689.59	1020.47
689.73	1207.72
689.86	819.19
690.00	929.19
690.13	858.98
690.27	788.76
690.41	1104.73
690.54	1399.64
690.68	1013.45
690.81	901.11
690.95	1027.50
691.08	1071.97
691.22	795.78
691.35	929.19
691.49	809.83
691.62	903.45
691.76	725.57
691.89	1034.52
692.03	739.61
692.16	847.27
692.30	1071.97
692.43	992.39
692.57	767.70
692.70	725.57
692.84	1153.88
692.97	791.10
693.11	755.99
693.24	870.68
693.38	896.43
693.51	922.17
693.65	1174.95
693.78	894.08
693.92	734.93
694.05	994.73
694.19	699.82
694.32	1022.81
694.45	744.29
694.59	856.64
694.72	819.19
694.86	851.96
694.99	1013.45
695.13	765.36
695.26	973.66
695.39	924.51
695.53	1692.21
695.66	912.81
695.80	1165.59
695.93	830.89
696.07	861.32
696.20	896.43
696.33	669.39
696.47	713.86
696.60	922.17
696.73	1027.50
696.87	791.10
697.00	1373.89
697.14	835.57
697.27	919.83
697.40	1617.31
697.54	840.25
697.67	959.62
697.80	940.90
697.94	805.14
698.07	851.96
698.21	784.08
698.34	1081.33
698.47	727.91
698.61	702.16
698.74	816.85
698.87	1123.46
699.01	786.42
699.14	711.52
699.27	994.73
699.40	2181.38
699.54	732.59
699.67	704.50
699.80	664.71
699.94	767.70
700.07	758.33
700.20	725.57
700.34	828.55
700.47	575.77
700.60	660.03
700.73	802.80
700.87	1224.10
701.00	788.76
701.13	730.25
701.26	854.30
701.40	788.76
701.53	706.84
701.66	631.94
701.79	795.78
701.93	734.93
702.06	1221.76
702.19	741.95
702.32	1090.69
702.46	697.48
702.59	730.25
702.72	503.22
702.85	786.42
702.99	638.97
703.12	1174.95
703.25	716.20
703.38	777.06
703.51	1041.54
703.65	571.09
703.78	706.84
703.91	830.89
704.04	978.34
704.17	711.52
704.31	507.90
704.44	645.99
704.57	655.35
704.70	704.50
704.83	692.80
704.96	713.86
705.10	763.01
705.23	737.27
>>>>>End Processed Spectral Data<<<<<
