SpectraSuite Data File
++++++++++++++++++++++++++++++++++++
Date: Mon Sep 30 18:11:52 GMT-05:00 2013
User: stostad
Dark Spectrum Present: No
Reference Spectrum Present: No
Number of Sampled Component Spectra: 1
Spectrometers: USB2+H05261
Integration Time (usec): 100000 (USB2+H05261)
Spectra Averaged: 1 (USB2+H05261)
Boxcar Smoothing: 0 (USB2+H05261)
Correct for Electrical Dark: No (USB2+H05261)
Strobe/Lamp Enabled: No (USB2+H05261)
Correct for Detector Non-linearity: No (USB2+H05261)
Correct for Stray Light: No (USB2+H05261)
Number of Pixels in Processed Spectrum: 2048
>>>>>Begin Processed Spectral Data<<<<<
365.73	114.69
365.92	114.69
366.12	114.69
366.32	79.58
366.52	44.47
366.72	21.06
366.91	0.00
367.11	32.77
367.31	63.19
367.51	0.00
367.70	79.58
367.90	88.94
368.10	0.00
368.30	18.72
368.49	49.15
368.69	49.15
368.89	0.00
369.09	0.00
369.28	4.68
369.48	46.81
369.68	95.96
369.87	70.22
370.07	4.68
370.27	84.26
370.47	154.48
370.66	224.69
370.86	271.50
371.06	264.48
371.25	334.70
371.45	285.55
371.65	292.57
371.84	308.95
372.04	290.23
372.24	334.70
372.44	322.99
372.63	383.85
372.83	390.87
373.03	304.27
373.22	346.40
373.42	344.06
373.62	355.76
373.81	400.23
374.01	395.55
374.21	362.78
374.40	308.95
374.60	386.19
374.79	383.85
374.99	400.23
375.19	442.36
375.38	416.62
375.58	351.08
375.78	386.19
375.97	383.85
376.17	423.64
376.37	367.46
376.56	386.19
376.76	472.79
376.95	388.53
377.15	491.51
377.35	500.87
377.54	461.09
377.74	470.45
377.93	461.09
378.13	505.56
378.33	463.43
378.52	465.77
378.72	449.38
378.91	423.64
379.11	407.25
379.31	379.17
379.50	386.19
379.70	386.19
379.89	397.89
380.09	386.19
380.28	477.47
380.48	456.40
380.68	475.13
380.87	440.02
381.07	458.74
381.26	451.72
381.46	390.87
381.65	402.57
381.85	414.27
382.04	477.47
382.24	334.70
382.43	292.57
382.63	327.68
382.83	433.00
383.02	311.29
383.22	367.46
383.41	386.19
383.61	447.04
383.80	404.91
384.00	430.66
384.19	454.06
384.39	479.81
384.58	491.51
384.78	512.58
384.97	430.66
385.17	383.85
385.36	411.93
385.56	433.00
385.75	411.93
385.95	407.25
386.14	414.27
386.34	449.38
386.53	451.72
386.72	388.53
386.92	421.30
387.11	519.60
387.31	468.11
387.50	475.13
387.70	418.96
387.89	430.66
388.09	386.19
388.28	454.06
388.48	477.47
388.67	505.56
388.86	538.32
389.06	524.28
389.25	505.56
389.45	580.45
389.64	601.52
389.84	561.73
390.03	528.96
390.22	500.87
390.42	468.11
390.61	561.73
390.81	608.54
391.00	557.05
391.19	550.03
391.39	580.45
391.58	561.73
391.78	507.90
391.97	433.00
392.16	400.23
392.36	456.40
392.55	411.93
392.75	367.46
392.94	367.46
393.13	355.76
393.33	334.70
393.52	465.77
393.71	575.77
393.91	547.69
394.10	484.49
394.29	568.75
394.49	648.33
394.68	629.60
394.88	613.22
395.07	634.29
395.26	594.50
395.46	709.18
395.65	615.56
395.84	603.86
396.04	505.56
396.23	428.32
396.42	414.27
396.62	395.55
396.81	456.40
397.00	582.79
397.19	554.71
397.39	725.57
397.58	744.29
397.77	704.50
397.97	704.50
398.16	664.71
398.35	711.52
398.55	767.70
398.74	779.40
398.93	774.72
399.12	781.74
399.32	814.51
399.51	695.14
399.70	711.52
399.90	800.46
400.09	734.93
400.28	870.68
400.47	784.08
400.67	866.00
400.86	884.72
401.05	798.12
401.24	905.79
401.44	856.64
401.63	898.77
401.82	868.34
402.01	840.25
402.21	898.77
402.40	873.02
402.59	788.76
402.78	814.51
402.97	861.32
403.17	816.85
403.36	866.00
403.55	840.25
403.74	814.51
403.93	837.91
404.13	896.43
404.32	779.40
404.51	856.64
404.70	910.47
404.89	861.32
405.09	919.83
405.28	809.83
405.47	875.36
405.66	854.30
405.85	833.23
406.05	858.98
406.24	819.19
406.43	908.13
406.62	779.40
406.81	922.17
407.00	877.70
407.20	868.34
407.39	802.80
407.58	800.46
407.77	1001.75
407.96	1022.81
408.15	950.26
408.34	896.43
408.54	959.62
408.73	851.96
408.92	847.27
409.11	938.55
409.30	891.74
409.49	753.65
409.68	807.48
409.87	760.67
410.07	842.59
410.26	910.47
410.45	912.81
410.64	933.87
410.83	980.68
411.02	987.71
411.21	1088.35
411.40	952.60
411.59	1025.15
411.78	1090.69
411.98	980.68
412.17	1076.65
412.36	880.04
412.55	987.71
412.74	835.57
412.93	903.45
413.12	1022.81
413.31	1034.52
413.50	1088.35
413.69	1034.52
413.88	980.68
414.07	926.85
414.26	1055.58
414.45	1095.37
414.64	1013.45
414.83	1020.47
415.02	1055.58
415.22	1046.22
415.41	1053.24
415.60	1114.10
415.79	1160.91
415.98	1055.58
416.17	1078.99
416.36	1086.01
416.55	1125.80
416.74	1006.43
416.93	1053.24
417.12	1022.81
417.31	1071.97
417.50	1060.26
417.69	1123.46
417.88	1053.24
418.07	1083.67
418.26	1069.62
418.45	1069.62
418.64	1116.44
418.83	1172.61
419.02	1034.52
419.21	1074.31
419.39	1074.31
419.58	985.37
419.77	1039.20
419.96	1111.75
420.15	1181.97
420.34	1188.99
420.53	1172.61
420.72	1174.95
420.91	1200.69
421.10	1266.23
421.29	1146.86
421.48	1160.91
421.67	1210.06
421.86	1114.10
422.05	1020.47
422.24	840.25
422.43	1055.58
422.61	1036.86
422.80	1231.12
422.99	1090.69
423.18	1135.16
423.37	1137.50
423.56	1069.62
423.75	1167.93
423.94	1160.91
424.13	1078.99
424.32	1071.97
424.50	1043.88
424.69	1076.65
424.88	1184.31
425.07	1060.26
425.26	1076.65
425.45	1078.99
425.64	1069.62
425.83	1053.24
426.01	1142.18
426.20	1114.10
426.39	1107.07
426.58	1006.43
426.77	887.06
426.96	1008.77
427.15	1004.09
427.33	999.41
427.52	1062.60
427.71	1053.24
427.90	1025.15
428.09	1036.86
428.28	987.71
428.46	968.98
428.65	978.34
428.84	1046.22
429.03	1008.77
429.22	990.05
429.40	844.93
429.59	908.13
429.78	830.89
429.97	861.32
430.16	842.59
430.34	898.77
430.53	777.06
430.72	816.85
430.91	992.39
431.10	1104.73
431.28	1203.04
431.47	1369.21
431.66	1217.08
431.85	1011.11
432.03	1008.77
432.22	1097.71
432.41	1158.57
432.60	1317.72
432.79	1188.99
432.97	1193.67
433.16	1254.53
433.35	1018.13
433.54	1006.43
433.72	983.02
433.91	1109.41
434.10	1191.33
434.28	1179.63
434.47	1207.72
434.66	1259.21
434.85	1135.16
435.03	1203.04
435.22	1418.36
435.41	1451.13
435.59	1315.38
435.78	1313.04
435.97	1233.46
436.16	1352.83
436.34	1338.79
436.53	1174.95
436.72	1179.63
436.90	1186.65
437.09	1219.42
437.28	1160.91
437.46	1327.08
437.65	1167.93
437.84	1128.14
438.02	1203.04
438.21	1069.62
438.40	1217.08
438.58	1282.61
438.77	1235.80
438.96	1231.12
439.14	1254.53
439.33	1207.72
439.52	1242.82
439.70	1212.40
439.89	1268.57
440.08	1132.82
440.26	1315.38
440.45	1329.42
440.63	1453.47
440.82	1533.05
441.01	1352.83
441.19	1348.15
441.38	1313.04
441.57	1432.41
441.75	1413.68
441.94	1411.34
442.12	1406.66
442.31	1387.94
442.50	1401.98
442.68	1317.72
442.87	1446.45
443.05	1348.15
443.24	1448.79
443.43	1413.68
443.61	1362.19
443.80	1409.00
443.98	1294.32
444.17	1313.04
444.35	1519.01
444.54	1490.92
444.73	1427.73
444.91	1476.88
445.10	1427.73
445.28	1313.04
445.47	1270.91
445.65	1366.87
445.84	1357.51
446.02	1329.42
446.21	1423.05
446.39	1486.24
446.58	1401.98
446.77	1416.02
446.95	1441.77
447.14	1533.05
447.32	1586.88
447.51	1437.09
447.69	1420.71
447.88	1514.33
448.06	1420.71
448.25	1481.56
448.43	1406.66
448.62	1404.32
448.80	1458.15
448.99	1383.26
449.17	1439.43
449.36	1540.07
449.54	1629.01
449.73	1575.18
449.91	1603.27
450.10	1582.20
450.28	1699.23
450.46	1605.61
450.65	1551.78
450.83	1540.07
451.02	1493.26
451.20	1472.20
451.39	1528.37
451.57	1430.07
451.76	1577.52
451.94	1565.82
452.13	1455.81
452.31	1404.32
452.49	1366.87
452.68	1350.49
452.86	1455.81
453.05	1472.20
453.23	1530.71
453.42	1495.60
453.60	1490.92
453.78	1526.03
453.97	1607.95
454.15	1467.52
454.34	1458.15
454.52	1355.17
454.70	1458.15
454.89	1373.89
455.07	1495.60
455.26	1497.94
455.44	1556.46
455.62	1570.50
455.81	1509.65
455.99	1558.80
456.17	1572.84
456.36	1591.56
456.54	1556.46
456.73	1614.97
456.91	1612.63
457.09	1621.99
457.28	1668.80
457.46	1572.84
457.64	1551.78
457.83	1409.00
458.01	1493.26
458.19	1500.28
458.38	1577.52
458.56	1638.38
458.74	1451.13
458.93	1523.69
459.11	1551.78
459.29	1542.41
459.48	1486.24
459.66	1575.18
459.84	1614.97
460.03	1607.95
460.21	1673.48
460.39	1561.14
460.57	1610.29
460.76	1668.80
460.94	1652.42
461.12	1664.12
461.31	1544.75
461.49	1666.46
461.67	1495.60
461.85	1589.22
462.04	1596.25
462.22	1839.66
462.40	1650.08
462.59	1650.08
462.77	1647.74
462.95	1633.69
463.13	1671.14
463.32	1621.99
463.50	1621.99
463.68	1577.52
463.86	1696.89
464.05	1521.35
464.23	1488.58
464.41	1558.80
464.59	1533.05
464.78	1624.33
464.96	1540.07
465.14	1638.38
465.32	1668.80
465.50	1720.29
465.69	1647.74
465.87	1603.27
466.05	1584.54
466.23	1486.24
466.41	1355.17
466.60	1497.94
466.78	1526.03
466.96	1605.61
467.14	1521.35
467.32	1605.61
467.51	1570.50
467.69	1455.81
467.87	1605.61
468.05	1586.88
468.23	1603.27
468.41	1680.50
468.60	1547.09
468.78	1547.09
468.96	1603.27
469.14	1610.29
469.32	1631.35
469.50	1551.78
469.69	1453.47
469.87	1575.18
470.05	1568.16
470.23	1535.39
470.41	1497.94
470.59	1561.14
470.77	1563.48
470.95	1593.90
471.14	1650.08
471.32	1540.07
471.50	1809.23
471.68	1701.57
471.86	1689.87
472.04	1661.78
472.22	1647.74
472.40	1570.50
472.58	1554.12
472.77	1596.25
472.95	1579.86
473.13	1610.29
473.31	1717.95
473.49	1661.78
473.67	1680.50
473.85	1673.48
474.03	1867.75
474.21	1614.97
474.39	1748.38
474.57	1732.00
474.75	1757.74
474.93	1687.53
475.12	1600.93
475.30	1647.74
475.48	1643.06
475.66	1659.44
475.84	1734.34
476.02	1647.74
476.20	1680.50
476.38	1626.67
476.56	1739.02
476.74	1724.97
476.92	1710.93
477.10	1781.15
477.28	1818.60
477.46	1806.89
477.64	1886.47
477.82	1886.47
478.00	1823.28
478.18	1830.30
478.36	1849.02
478.54	1877.11
478.72	1760.08
478.90	1867.75
479.08	2031.58
479.26	1942.64
479.44	1921.58
479.62	1870.09
479.80	1902.86
479.98	1909.88
480.16	1879.45
480.34	1893.49
480.52	2026.90
480.70	1975.41
480.88	1886.47
481.06	1909.88
481.24	2057.33
481.41	2038.61
481.59	2080.74
481.77	2080.74
481.95	1977.75
482.13	1926.26
482.31	1984.77
482.49	2062.01
482.67	1998.82
482.85	2207.13
483.03	2134.57
483.21	2127.55
483.39	2029.24
483.57	1968.39
483.74	2062.01
483.92	2146.27
484.10	2197.76
484.28	2083.08
484.46	2115.84
484.64	2099.46
484.82	2101.80
485.00	1991.80
485.18	1987.11
485.35	1774.13
485.53	1717.95
485.71	1713.27
485.89	1694.55
486.07	1891.15
486.25	2045.63
486.43	2005.84
486.61	2153.29
486.78	2045.63
486.96	2139.25
487.14	2113.50
487.32	2260.96
487.50	2291.38
487.68	2307.77
487.85	2286.70
488.03	2289.04
488.21	2237.55
488.39	2275.00
488.57	2193.08
488.75	2169.68
488.92	2532.46
489.10	2431.82
489.28	2539.48
489.46	2546.50
489.64	2448.20
489.81	2380.32
489.99	2469.27
490.17	2441.18
490.35	2537.14
490.53	2504.37
490.70	2417.77
490.88	2520.76
491.06	2520.76
491.24	2588.63
491.41	2417.77
491.59	2277.34
491.77	2382.67
491.95	2424.80
492.13	2455.22
492.30	2579.27
492.48	2654.17
492.66	2593.31
492.84	2539.48
493.01	2558.21
493.19	2499.69
493.37	2551.18
493.54	2527.78
493.72	2654.17
493.90	2789.92
494.08	2785.24
494.25	2651.83
494.43	2698.64
494.61	2799.28
494.79	2764.17
494.96	2729.06
495.14	2670.55
495.32	2546.50
495.49	2616.72
495.67	2761.83
495.85	2902.26
496.02	2733.75
496.20	2841.41
496.38	2682.25
496.55	2764.17
496.73	2722.04
496.91	2719.70
497.09	2920.99
497.26	2836.73
497.44	2862.48
497.62	2691.62
497.79	2745.45
497.97	2576.93
498.14	2729.06
498.32	2703.32
498.50	2832.05
498.67	2818.00
498.85	2850.77
499.03	2825.03
499.20	2834.39
499.38	2839.07
499.56	2803.96
499.73	2827.37
499.91	2792.26
500.08	2630.76
500.26	2733.75
500.44	2654.17
500.61	2808.64
500.79	2686.94
500.97	2689.28
501.14	2607.36
501.32	2633.10
501.49	2700.98
501.67	2705.66
501.84	2801.62
502.02	2663.53
502.20	2693.96
502.37	2827.37
502.55	2822.69
502.72	2782.90
502.90	2782.90
503.07	2796.94
503.25	2703.32
503.43	2640.12
503.60	2675.23
503.78	2548.84
503.95	2715.02
504.13	2754.81
504.30	2956.10
504.48	2918.65
504.65	2862.48
504.83	2782.90
505.01	2888.22
505.18	2913.97
505.36	2946.73
505.53	2963.12
505.71	2972.48
505.88	2850.77
506.06	2836.73
506.23	2860.13
506.41	2605.02
506.58	2878.86
506.76	2871.84
506.93	2960.78
507.11	2827.37
507.28	2818.00
507.46	2923.33
507.63	2698.64
507.81	2745.45
507.98	2808.64
508.16	2883.54
508.33	2946.73
508.50	2928.01
508.68	2928.01
508.85	3016.95
509.03	3052.06
509.20	2977.16
509.38	2796.94
509.55	2808.64
509.73	2874.18
509.90	3009.93
510.08	2862.48
510.25	2909.29
510.42	2928.01
510.60	2930.35
510.77	2881.20
510.95	3038.02
511.12	2993.55
511.30	3141.00
511.47	3094.19
511.64	3014.61
511.82	2916.31
511.99	2862.48
512.17	2892.90
512.34	2899.92
512.51	2958.44
512.69	2977.16
512.86	2890.56
513.04	2888.22
513.21	2944.39
513.38	2874.18
513.56	2810.98
513.73	2731.41
513.90	2848.43
514.08	2820.35
514.25	2944.39
514.43	2937.37
514.60	2953.76
514.77	2953.76
514.95	2888.22
515.12	2792.26
515.29	2832.05
515.47	3040.36
515.64	3049.72
515.81	2984.18
515.99	2862.48
516.16	2661.19
516.33	2471.61
516.51	2347.56
516.68	2443.52
516.85	2373.30
517.03	2569.91
517.20	2679.91
517.37	2920.99
517.54	3035.67
517.72	2733.75
517.89	2473.95
518.06	2448.20
518.24	2628.42
518.41	2937.37
518.58	2726.72
518.75	2750.13
518.93	2691.62
519.10	2708.00
519.27	2909.29
519.45	2928.01
519.62	3066.10
519.79	2904.60
519.96	2970.14
520.14	2942.05
520.31	2857.79
520.48	2832.05
520.65	2892.90
520.83	3023.97
521.00	2869.50
521.17	2951.42
521.34	3026.31
521.52	2967.80
521.69	2986.52
521.86	2946.73
522.03	3000.57
522.20	2862.48
522.38	2630.76
522.55	2810.98
522.72	2883.54
522.89	2930.35
523.07	2932.69
523.24	2904.60
523.41	2923.33
523.58	3094.19
523.75	3040.36
523.92	2949.08
524.10	2970.14
524.27	3012.27
524.44	2932.69
524.61	3052.06
524.78	2878.86
524.96	2953.76
525.13	2899.92
525.30	3047.38
525.47	3080.14
525.64	2944.39
525.81	2937.37
525.98	2787.58
526.16	2654.17
526.33	2516.08
526.50	2525.44
526.67	2567.57
526.84	2656.51
527.01	2829.71
527.18	2813.32
527.36	2911.63
527.53	2960.78
527.70	2944.39
527.87	2916.31
528.04	2960.78
528.21	2932.69
528.38	3012.27
528.55	3023.97
528.72	3038.02
528.89	3007.59
529.07	2960.78
529.24	2913.97
529.41	2890.56
529.58	2848.43
529.75	2937.37
529.92	2972.48
530.09	3012.27
530.26	2958.44
530.43	2998.23
530.60	3066.10
530.77	2965.46
530.94	3073.12
531.11	3047.38
531.28	2974.82
531.46	2949.08
531.63	2946.73
531.80	2960.78
531.97	2928.01
532.14	2818.00
532.31	2677.57
532.48	2569.91
532.65	2654.17
532.82	2663.53
532.99	2928.01
533.16	2935.03
533.33	2944.39
533.50	2918.65
533.67	2890.56
533.84	2906.95
534.01	2888.22
534.18	2949.08
534.35	2895.24
534.52	2970.14
534.69	2874.18
534.86	2970.14
535.03	2991.20
535.20	3082.49
535.37	2913.97
535.54	2953.76
535.71	3070.78
535.88	2993.55
536.05	2925.67
536.22	2869.50
536.38	2820.35
536.55	2806.30
536.72	2700.98
536.89	2775.88
537.06	2801.62
537.23	3045.04
537.40	3009.93
537.57	3049.72
537.74	2862.48
537.91	2958.44
538.08	2895.24
538.25	2951.42
538.42	3047.38
538.59	2841.41
538.75	2984.18
538.92	2841.41
539.09	2890.56
539.26	2761.83
539.43	2874.18
539.60	2841.41
539.77	2864.82
539.94	2864.82
540.11	2771.19
540.28	2818.00
540.44	2806.30
540.61	2827.37
540.78	2789.92
540.95	2778.22
541.12	2946.73
541.29	3019.29
541.46	2977.16
541.62	2925.67
541.79	2904.60
541.96	2820.35
542.13	2874.18
542.30	2885.88
542.47	2981.84
542.63	2920.99
542.80	2841.41
542.97	2782.90
543.14	2871.84
543.31	2869.50
543.48	2958.44
543.64	3023.97
543.81	3014.61
543.98	2869.50
544.15	2864.82
544.32	2750.13
544.48	2874.18
544.65	2897.58
544.82	2949.08
544.99	2892.90
545.16	2920.99
545.32	2939.71
545.49	3262.71
545.66	3239.30
545.83	3103.55
546.00	2970.14
546.16	2860.13
546.33	2785.24
546.50	2799.28
546.67	3016.95
546.83	2904.60
547.00	2892.90
547.17	2750.13
547.34	2597.99
547.50	2729.06
547.67	2759.49
547.84	2885.88
548.00	2832.05
548.17	2726.72
548.34	2832.05
548.51	2883.54
548.67	2864.82
548.84	2843.75
549.01	2846.09
549.18	2792.26
549.34	2775.88
549.51	2759.49
549.68	2892.90
549.84	2796.94
550.01	2593.31
550.18	2874.18
550.34	2843.75
550.51	2677.57
550.68	2920.99
550.84	2750.13
551.01	2672.89
551.18	2719.70
551.34	2747.79
551.51	2841.41
551.68	2871.84
551.84	2712.68
552.01	2698.64
552.18	2799.28
552.34	2775.88
552.51	2597.99
552.68	2726.72
552.84	2668.21
553.01	2661.19
553.18	2808.64
553.34	2750.13
553.51	2768.85
553.67	2815.66
553.84	2796.94
554.01	2813.32
554.17	2696.30
554.34	2747.79
554.51	2738.43
554.67	2764.17
554.84	2717.36
555.00	2789.92
555.17	2806.30
555.33	2555.86
555.50	2665.87
555.67	2738.43
555.83	2628.42
556.00	2651.83
556.16	2738.43
556.33	2696.30
556.50	2597.99
556.66	2583.95
556.83	2647.15
556.99	2459.90
557.16	2607.36
557.32	2747.79
557.49	2696.30
557.65	2537.14
557.82	2523.10
557.98	2590.97
558.15	2516.08
558.32	2513.74
558.48	2406.07
558.65	2422.45
558.81	2504.37
558.98	2555.86
559.14	2431.82
559.31	2565.23
559.47	2569.91
559.64	2663.53
559.80	2427.14
559.97	2476.29
560.13	2593.31
560.30	2597.99
560.46	2726.72
560.63	2590.97
560.79	2520.76
560.96	2487.99
561.12	2399.05
561.29	2469.27
561.45	2480.97
561.61	2485.65
561.78	2518.42
561.94	2406.07
562.11	2569.91
562.27	2497.35
562.44	2483.31
562.60	2654.17
562.77	2504.37
562.93	2609.70
563.10	2583.95
563.26	2527.78
563.42	2445.86
563.59	2509.05
563.75	2385.01
563.92	2389.69
564.08	2497.35
564.24	2581.61
564.41	2595.65
564.57	2417.77
564.74	2389.69
564.90	2448.20
565.07	2399.05
565.23	2338.20
565.39	2317.13
565.56	2190.74
565.72	2342.88
565.88	2258.62
566.05	2310.11
566.21	2403.73
566.38	2392.03
566.54	2389.69
566.70	2530.12
566.87	2541.82
567.03	2370.96
567.19	2438.84
567.36	2396.71
567.52	2410.75
567.68	2312.45
567.85	2368.62
568.01	2298.41
568.17	2197.76
568.34	2228.19
568.50	2284.36
568.66	2279.68
568.83	2239.89
568.99	2331.17
569.15	2335.85
569.32	2296.07
569.48	2373.30
569.64	2242.23
569.81	2296.07
569.97	2216.49
570.13	2160.31
570.30	2270.32
570.46	2150.95
570.62	2141.59
570.78	2193.08
570.95	2083.08
571.11	2296.07
571.27	2321.81
571.43	2382.67
571.60	2183.72
571.76	2186.06
571.92	2408.41
572.09	2244.57
572.25	2258.62
572.41	2291.38
572.57	2230.53
572.74	2293.72
572.90	2232.87
573.06	2267.98
573.22	2314.79
573.38	2312.45
573.55	2284.36
573.71	2249.25
573.87	2286.70
574.03	2195.42
574.20	2221.17
574.36	2150.95
574.52	2186.06
574.68	2157.97
574.84	2108.82
575.01	2134.57
575.17	2195.42
575.33	2235.21
575.49	2211.81
575.65	2141.59
575.82	2214.15
575.98	2115.84
576.14	2188.40
576.30	2174.36
576.46	2265.64
576.62	2296.07
576.79	2197.76
576.95	2186.06
577.11	2129.89
577.27	2092.44
577.43	2221.17
577.59	2157.97
577.75	2115.84
577.92	2076.06
578.08	2118.18
578.24	2155.63
578.40	2225.85
578.56	2118.18
578.72	2235.21
578.88	2153.29
579.04	2113.50
579.21	2221.17
579.37	2246.91
579.53	2289.04
579.69	2162.66
579.85	2118.18
580.01	2179.04
580.17	2221.17
580.33	2197.76
580.49	2211.81
580.65	2216.49
580.82	2225.85
580.98	2214.15
581.14	2129.89
581.30	2211.81
581.46	2179.04
581.62	2228.19
581.78	2157.97
581.94	2223.51
582.10	2031.58
582.26	2260.96
582.42	2181.38
582.58	2211.81
582.74	2244.57
582.90	2143.93
583.06	2141.59
583.22	2200.10
583.38	2216.49
583.54	2188.40
583.70	2263.30
583.86	2111.16
584.02	2263.30
584.18	2270.32
584.34	2197.76
584.50	2244.57
584.66	2134.57
584.82	2179.04
584.98	2235.21
585.14	1991.80
585.30	2113.50
585.46	2094.78
585.62	2019.88
585.78	2150.95
585.94	2237.55
586.10	2176.70
586.26	2172.02
586.42	2260.96
586.58	2244.57
586.74	2228.19
586.90	2148.61
587.06	2104.14
587.22	2113.50
587.38	2073.71
587.54	2043.29
587.70	2017.54
587.86	1933.28
588.02	1834.98
588.18	1893.49
588.34	1650.08
588.49	1600.93
588.65	1746.04
588.81	1769.44
588.97	1729.66
589.13	1551.78
589.29	1750.72
589.45	1790.51
589.61	1837.32
589.77	1959.03
589.93	1851.36
590.08	2008.18
590.24	1928.60
590.40	2047.97
590.56	1928.60
590.72	1898.17
590.88	1886.47
591.04	1827.96
591.20	1853.70
591.35	1774.13
591.51	1832.64
591.67	1816.26
591.83	1874.77
591.99	1795.19
592.15	1858.39
592.31	1914.56
592.46	1952.01
592.62	2054.99
592.78	1968.39
592.94	2022.22
593.10	1942.64
593.26	1863.07
593.41	1921.58
593.57	1844.34
593.73	1837.32
593.89	1863.07
594.05	1842.00
594.20	1851.36
594.36	1832.64
594.52	1715.61
594.68	1846.68
594.84	1940.30
594.99	1980.09
595.15	1980.09
595.31	1959.03
595.47	1898.17
595.62	1991.80
595.78	1863.07
595.94	1977.75
596.10	1886.47
596.25	1912.22
596.41	1851.36
596.57	1851.36
596.73	1825.62
596.88	1891.15
597.04	1879.45
597.20	1846.68
597.36	1884.13
597.51	1830.30
597.67	1921.58
597.83	1881.79
597.99	2001.16
598.14	1895.83
598.30	1914.56
598.46	1935.62
598.61	1949.67
598.77	1788.17
598.93	1937.96
599.09	1919.24
599.24	1959.03
599.40	1991.80
599.56	1930.94
599.71	1970.73
599.87	1877.11
600.03	1860.73
600.18	1977.75
600.34	1905.20
600.50	1853.70
600.65	1809.23
600.81	1907.54
600.97	1982.43
601.12	1849.02
601.28	1886.47
601.44	1734.34
601.59	1682.85
601.75	1834.98
601.91	1760.08
602.06	1837.32
602.22	1940.30
602.37	1858.39
602.53	1944.99
602.69	1827.96
602.84	1799.87
603.00	1895.83
603.16	1888.81
603.31	1858.39
603.47	1959.03
603.62	1842.00
603.78	1916.90
603.94	1867.75
604.09	1926.26
604.25	1968.39
604.40	2003.50
604.56	1790.51
604.71	1877.11
604.87	1820.94
605.03	1846.68
605.18	1923.92
605.34	1954.35
605.49	1902.86
605.65	1870.09
605.80	1785.83
605.96	1795.19
606.12	1881.79
606.27	1884.13
606.43	1893.49
606.58	1933.28
606.74	1863.07
606.89	1914.56
607.05	1963.71
607.20	1856.04
607.36	1788.17
607.51	1874.77
607.67	1846.68
607.82	1916.90
607.98	1893.49
608.13	1912.22
608.29	1825.62
608.44	1919.24
608.60	1949.67
608.75	1818.60
608.91	1954.35
609.06	1942.64
609.22	1940.30
609.37	1816.26
609.53	1909.88
609.68	1809.23
609.84	1898.17
609.99	1937.96
610.15	1952.01
610.30	2139.25
610.46	2099.46
610.61	2125.21
610.76	2129.89
610.92	2176.70
611.07	2157.97
611.23	2153.29
611.38	2059.67
611.54	1900.52
611.69	1863.07
611.84	1860.73
612.00	1923.92
612.15	1851.36
612.31	1874.77
612.46	1802.21
612.62	1715.61
612.77	1776.47
612.92	1713.27
613.08	1778.81
613.23	1788.17
613.39	1839.66
613.54	1734.34
613.69	1760.08
613.85	1809.23
614.00	1764.76
614.15	1799.87
614.31	1853.70
614.46	1783.49
614.62	1839.66
614.77	1762.42
614.92	1753.06
615.08	1584.54
615.23	1802.21
615.38	1575.18
615.54	1586.88
615.69	1652.42
615.84	1614.97
616.00	1713.27
616.15	1598.59
616.30	1708.59
616.46	1727.32
616.61	1586.88
616.76	1748.38
616.92	1753.06
617.07	1664.12
617.22	1607.95
617.37	1708.59
617.53	1788.17
617.68	1717.95
617.83	1689.87
617.99	1722.63
618.14	1788.17
618.29	1734.34
618.45	1671.14
618.60	1685.19
618.75	1657.10
618.90	1600.93
619.06	1631.35
619.21	1687.53
619.36	1774.13
619.51	1598.59
619.67	1727.32
619.82	1685.19
619.97	1624.33
620.12	1715.61
620.28	1633.69
620.43	1689.87
620.58	1619.65
620.73	1586.88
620.89	1722.63
621.04	1657.10
621.19	1570.50
621.34	1521.35
621.49	1612.63
621.65	1722.63
621.80	1689.87
621.95	1638.38
622.10	1692.21
622.25	1540.07
622.41	1577.52
622.56	1610.29
622.71	1554.12
622.86	1715.61
623.01	1678.16
623.16	1636.03
623.32	1589.22
623.47	1469.86
623.62	1563.48
623.77	1556.46
623.92	1565.82
624.07	1495.60
624.23	1448.79
624.38	1530.71
624.53	1572.84
624.68	1610.29
624.83	1561.14
624.98	1511.99
625.13	1453.47
625.29	1511.99
625.44	1526.03
625.59	1554.12
625.74	1568.16
625.89	1600.93
626.04	1432.41
626.19	1540.07
626.34	1460.49
626.49	1600.93
626.65	1481.56
626.80	1486.24
626.95	1357.51
627.10	1401.98
627.25	1394.96
627.40	1320.06
627.55	1341.13
627.70	1324.74
627.85	1441.77
628.00	1502.62
628.15	1467.52
628.30	1537.73
628.45	1490.92
628.60	1420.71
628.76	1397.30
628.91	1345.81
629.06	1420.71
629.21	1420.71
629.36	1472.20
629.51	1427.73
629.66	1446.45
629.81	1469.86
629.96	1467.52
630.11	1544.75
630.26	1437.09
630.41	1455.81
630.56	1486.24
630.71	1413.68
630.86	1453.47
631.01	1413.68
631.16	1315.38
631.31	1465.18
631.46	1406.66
631.61	1444.11
631.76	1413.68
631.91	1493.26
632.06	1462.83
632.21	1418.36
632.36	1430.07
632.51	1490.92
632.66	1434.75
632.81	1359.85
632.96	1439.43
633.10	1385.60
633.25	1373.89
633.40	1411.34
633.55	1474.54
633.70	1423.05
633.85	1453.47
634.00	1493.26
634.15	1444.11
634.30	1497.94
634.45	1547.09
634.60	1462.83
634.75	1427.73
634.90	1350.49
635.05	1376.24
635.19	1500.28
635.34	1460.49
635.49	1352.83
635.64	1448.79
635.79	1432.41
635.94	1390.28
636.09	1425.39
636.24	1458.15
636.39	1458.15
636.53	1423.05
636.68	1343.47
636.83	1439.43
636.98	1378.58
637.13	1366.87
637.28	1406.66
637.43	1406.66
637.57	1409.00
637.72	1430.07
637.87	1404.32
638.02	1411.34
638.17	1469.86
638.32	1411.34
638.46	1376.24
638.61	1519.01
638.76	1418.36
638.91	1364.53
639.06	1348.15
639.20	1343.47
639.35	1334.11
639.50	1359.85
639.65	1476.88
639.80	1397.30
639.94	1310.70
640.09	1409.00
640.24	1406.66
640.39	1383.26
640.54	1343.47
640.68	1336.45
640.83	1432.41
640.98	1376.24
641.13	1336.45
641.27	1350.49
641.42	1294.32
641.57	1249.85
641.72	1320.06
641.86	1273.25
642.01	1348.15
642.16	1378.58
642.31	1341.13
642.45	1369.21
642.60	1362.19
642.75	1310.70
642.90	1427.73
643.04	1308.36
643.19	1348.15
643.34	1373.89
643.48	1352.83
643.63	1315.38
643.78	1401.98
643.93	1418.36
644.07	1327.08
644.22	1275.59
644.37	1394.96
644.51	1338.79
644.66	1315.38
644.81	1364.53
644.95	1441.77
645.10	1352.83
645.25	1289.64
645.39	1247.51
645.54	1226.44
645.69	1294.32
645.83	1259.21
645.98	1371.55
646.13	1203.04
646.27	1149.20
646.42	1191.33
646.57	1249.85
646.71	1184.31
646.86	1238.14
647.00	1207.72
647.15	1221.76
647.30	1144.52
647.44	1214.74
647.59	1186.65
647.74	1188.99
647.88	1212.40
648.03	1163.25
648.17	1193.67
648.32	1308.36
648.47	1184.31
648.61	1256.87
648.76	1093.03
648.90	1118.78
649.05	1170.27
649.20	1149.20
649.34	1125.80
649.49	1198.35
649.63	1191.33
649.78	1231.12
649.92	1238.14
650.07	1217.08
650.21	1158.57
650.36	1235.80
650.51	1191.33
650.65	1196.01
650.80	1139.84
650.94	1217.08
651.09	1210.06
651.23	1036.86
651.38	1097.71
651.52	1205.38
651.67	1231.12
651.81	1177.29
651.96	1315.38
652.10	1259.21
652.25	1191.33
652.39	1203.04
652.54	1294.32
652.68	1163.25
652.83	1128.14
652.97	1196.01
653.12	1226.44
653.26	1146.86
653.41	1256.87
653.55	1214.74
653.70	1149.20
653.84	1207.72
653.99	1170.27
654.13	1118.78
654.27	1165.59
654.42	1093.03
654.56	1188.99
654.71	1153.88
654.85	1097.71
655.00	1093.03
655.14	1160.91
655.29	1032.18
655.43	992.39
655.57	924.51
655.72	954.94
655.86	898.77
656.01	936.21
656.15	1020.47
656.30	1130.48
656.44	1060.26
656.58	1083.67
656.73	1032.18
656.87	1097.71
657.01	1135.16
657.16	1235.80
657.30	1217.08
657.45	1186.65
657.59	1221.76
657.73	1174.95
657.88	1228.78
658.02	1203.04
658.16	1203.04
658.31	1095.37
658.45	1121.12
658.60	1100.05
658.74	1142.18
658.88	1076.65
659.03	1090.69
659.17	1116.44
659.31	1114.10
659.46	1029.84
659.60	1163.25
659.74	1095.37
659.89	1135.16
660.03	1160.91
660.17	1179.63
660.32	1184.31
660.46	1170.27
660.60	1107.07
660.74	1093.03
660.89	1167.93
661.03	1121.12
661.17	1217.08
661.32	1123.46
661.46	1100.05
661.60	1086.01
661.74	1160.91
661.89	1165.59
662.03	1123.46
662.17	1146.86
662.31	1109.41
662.46	1132.82
662.60	1057.92
662.74	1121.12
662.88	1064.94
663.03	1163.25
663.17	1071.97
663.31	1062.60
663.45	1090.69
663.60	1032.18
663.74	978.34
663.88	1050.90
664.02	1081.33
664.17	1090.69
664.31	1067.28
664.45	1074.31
664.59	1060.26
664.73	1048.56
664.88	1123.46
665.02	954.94
665.16	1062.60
665.30	1196.01
665.44	1135.16
665.59	1184.31
665.73	1025.15
665.87	1170.27
666.01	1039.20
666.15	1109.41
666.29	1086.01
666.44	1008.77
666.58	1057.92
666.72	1022.81
666.86	1139.84
667.00	1165.59
667.14	1125.80
667.28	1027.50
667.43	1078.99
667.57	1060.26
667.71	1046.22
667.85	1198.35
667.99	1083.67
668.13	1088.35
668.27	1062.60
668.41	1095.37
668.56	1032.18
668.70	1074.31
668.84	1041.54
668.98	1123.46
669.12	1039.20
669.26	997.07
669.40	1013.45
669.54	1032.18
669.68	1074.31
669.82	1032.18
669.96	957.28
670.10	1074.31
670.25	1034.52
670.39	1053.24
670.53	1067.28
670.67	978.34
670.81	1086.01
670.95	924.51
671.09	987.71
671.23	1034.52
671.37	1022.81
671.51	947.92
671.65	976.00
671.79	990.05
671.93	997.07
672.07	1111.75
672.21	1001.75
672.35	908.13
672.49	1048.56
672.63	1020.47
672.77	987.71
672.91	973.66
673.05	938.55
673.19	1041.54
673.33	968.98
673.47	978.34
673.61	1027.50
673.75	1078.99
673.89	1020.47
674.03	1013.45
674.17	880.04
674.31	950.26
674.45	957.28
674.59	936.21
674.73	940.90
674.87	994.73
675.01	1043.88
675.15	957.28
675.29	959.62
675.43	959.62
675.56	1025.15
675.70	997.07
675.84	905.79
675.98	961.96
676.12	866.00
676.26	924.51
676.40	887.06
676.54	798.12
676.68	985.37
676.82	992.39
676.96	966.64
677.10	968.98
677.23	933.87
677.37	936.21
677.51	992.39
677.65	926.85
677.79	933.87
677.93	821.53
678.07	870.68
678.21	929.19
678.34	873.02
678.48	814.51
678.62	910.47
678.76	873.02
678.90	877.70
679.04	863.66
679.18	887.06
679.31	945.58
679.45	884.72
679.59	870.68
679.73	837.91
679.87	858.98
680.00	894.08
680.14	763.01
680.28	802.80
680.42	842.59
680.56	875.36
680.70	870.68
680.83	873.02
680.97	823.87
681.11	767.70
681.25	896.43
681.39	849.61
681.52	875.36
681.66	809.83
681.80	833.23
681.94	863.66
682.07	851.96
682.21	854.30
682.35	814.51
682.49	821.53
682.62	875.36
682.76	908.13
682.90	856.64
683.04	744.29
683.17	741.95
683.31	767.70
683.45	816.85
683.59	777.06
683.72	788.76
683.86	737.27
684.00	746.63
684.13	730.25
684.27	791.10
684.41	781.74
684.55	830.89
684.68	851.96
684.82	800.46
684.96	704.50
685.09	755.99
685.23	798.12
685.37	774.72
685.50	753.65
685.64	760.67
685.78	748.97
685.91	706.84
686.05	751.31
686.19	692.80
686.32	608.54
686.46	587.47
686.60	489.17
686.73	601.52
686.87	458.74
687.01	512.58
687.14	470.45
687.28	566.41
687.42	519.60
687.55	589.82
687.69	645.99
687.82	594.50
687.96	594.50
688.10	533.64
688.23	535.98
688.37	657.69
688.50	617.90
688.64	552.37
688.78	559.39
688.91	622.58
689.05	620.24
689.18	627.26
689.32	603.86
689.46	596.84
689.59	617.90
689.73	634.29
689.86	533.64
690.00	603.86
690.13	606.20
690.27	557.05
690.41	671.73
690.54	645.99
690.68	690.46
690.81	631.94
690.95	636.63
691.08	613.22
691.22	606.20
691.35	685.78
691.49	613.22
691.62	596.84
691.76	615.56
691.89	631.94
692.03	592.16
692.16	601.52
692.30	667.05
692.43	627.26
692.57	552.37
692.70	566.41
692.84	601.52
692.97	631.94
693.11	594.50
693.24	566.41
693.38	580.45
693.51	589.82
693.65	573.43
693.78	596.84
693.92	582.79
694.05	547.69
694.19	585.13
694.32	622.58
694.45	592.16
694.59	587.47
694.72	610.88
694.86	594.50
694.99	566.41
695.13	589.82
695.26	648.33
695.39	517.26
695.53	606.20
695.66	585.13
695.80	589.82
695.93	517.26
696.07	557.05
696.20	582.79
696.33	568.75
696.47	641.31
696.60	538.32
696.73	634.29
696.87	601.52
697.00	648.33
697.14	519.60
697.27	554.71
697.40	615.56
697.54	540.66
697.67	573.43
697.80	620.24
697.94	521.94
698.07	526.62
698.21	503.22
698.34	540.66
698.47	512.58
698.61	486.83
698.74	512.58
698.87	613.22
699.01	535.98
699.14	486.83
699.27	521.94
699.40	664.71
699.54	535.98
699.67	578.11
699.80	517.26
699.94	486.83
700.07	444.70
700.20	458.74
700.34	533.64
700.47	423.64
700.60	484.49
700.73	486.83
700.87	571.09
701.00	482.15
701.13	477.47
701.26	493.85
701.40	458.74
701.53	503.22
701.66	463.43
701.79	503.22
701.93	472.79
702.06	580.45
702.19	447.04
702.32	421.30
702.46	400.23
702.59	526.62
702.72	517.26
702.85	514.92
702.99	543.00
703.12	589.82
703.25	477.47
703.38	521.94
703.51	519.60
703.65	454.06
703.78	425.98
703.91	517.26
704.04	491.51
704.17	472.79
704.31	425.98
704.44	411.93
704.57	559.39
704.70	489.17
704.83	447.04
704.96	484.49
705.10	461.09
705.23	425.98
>>>>>End Processed Spectral Data<<<<<
