SpectraSuite Data File
++++++++++++++++++++++++++++++++++++
Date: Mon Sep 30 18:11:51 GMT-05:00 2013
User: stostad
Dark Spectrum Present: No
Reference Spectrum Present: No
Number of Sampled Component Spectra: 1
Spectrometers: USB2+H05261
Integration Time (usec): 100000 (USB2+H05261)
Spectra Averaged: 1 (USB2+H05261)
Boxcar Smoothing: 0 (USB2+H05261)
Correct for Electrical Dark: No (USB2+H05261)
Strobe/Lamp Enabled: No (USB2+H05261)
Correct for Detector Non-linearity: No (USB2+H05261)
Correct for Stray Light: No (USB2+H05261)
Number of Pixels in Processed Spectrum: 2048
>>>>>Begin Processed Spectral Data<<<<<
365.73	65.54
365.92	65.54
366.12	65.54
366.32	21.06
366.52	0.00
366.72	11.70
366.91	32.77
367.11	32.77
367.31	23.41
367.51	0.00
367.70	74.90
367.90	11.70
368.10	9.36
368.30	11.70
368.49	0.00
368.69	0.00
368.89	0.00
369.09	0.00
369.28	4.68
369.48	46.81
369.68	0.00
369.87	93.62
370.07	21.06
370.27	131.07
370.47	184.90
370.66	294.91
370.86	262.14
371.06	327.68
371.25	344.06
371.45	355.76
371.65	346.40
371.84	283.20
372.04	292.57
372.24	278.52
372.44	339.38
372.63	397.89
372.83	369.80
373.03	332.36
373.22	318.31
373.42	407.25
373.62	423.64
373.81	386.19
374.01	379.17
374.21	360.44
374.40	353.42
374.60	435.34
374.79	407.25
374.99	397.89
375.19	479.81
375.38	440.02
375.58	390.87
375.78	414.27
375.97	435.34
376.17	514.92
376.37	393.21
376.56	411.93
376.76	437.68
376.95	430.66
377.15	524.28
377.35	470.45
377.54	519.60
377.74	498.53
377.93	463.43
378.13	486.83
378.33	510.24
378.52	477.47
378.72	425.98
378.91	503.22
379.11	433.00
379.31	402.57
379.50	428.32
379.70	451.72
379.89	503.22
380.09	411.93
380.28	479.81
380.48	505.56
380.68	425.98
380.87	486.83
381.07	411.93
381.26	411.93
381.46	386.19
381.65	503.22
381.85	390.87
382.04	409.59
382.24	341.72
382.43	393.21
382.63	315.97
382.83	332.36
383.02	447.04
383.22	344.06
383.41	400.23
383.61	444.70
383.80	428.32
384.00	355.76
384.19	437.68
384.39	472.79
384.58	456.40
384.78	404.91
384.97	400.23
385.17	463.43
385.36	395.55
385.56	393.21
385.75	402.57
385.95	479.81
386.14	496.19
386.34	461.09
386.53	402.57
386.72	402.57
386.92	528.96
387.11	491.51
387.31	540.66
387.50	540.66
387.70	411.93
387.89	475.13
388.09	503.22
388.28	416.62
388.48	557.05
388.67	517.26
388.86	505.56
389.06	624.92
389.25	631.94
389.45	578.11
389.64	552.37
389.84	538.32
390.03	573.43
390.22	547.69
390.42	655.35
390.61	564.07
390.81	603.86
391.00	594.50
391.19	674.07
391.39	578.11
391.58	578.11
391.78	564.07
391.97	573.43
392.16	510.24
392.36	528.96
392.55	449.38
392.75	425.98
392.94	411.93
393.13	409.59
393.33	468.11
393.52	470.45
393.71	507.90
393.91	526.62
394.10	547.69
394.29	641.31
394.49	561.73
394.68	669.39
394.88	622.58
395.07	657.69
395.26	692.80
395.46	613.22
395.65	674.07
395.84	531.30
396.04	512.58
396.23	395.55
396.42	348.74
396.62	404.91
396.81	500.87
397.00	550.03
397.19	587.47
397.39	669.39
397.58	725.57
397.77	702.16
397.97	739.61
398.16	795.78
398.35	823.87
398.55	751.31
398.74	870.68
398.93	779.40
399.12	718.54
399.32	765.36
399.51	821.53
399.70	840.25
399.90	880.04
400.09	821.53
400.28	819.19
400.47	858.98
400.67	954.94
400.86	973.66
401.05	1008.77
401.24	915.15
401.44	924.51
401.63	912.81
401.82	1004.09
402.01	987.71
402.21	964.30
402.40	985.37
402.59	884.72
402.78	861.32
402.97	877.70
403.17	880.04
403.36	908.13
403.55	999.41
403.74	976.00
403.93	851.96
404.13	910.47
404.32	854.30
404.51	912.81
404.70	936.21
404.89	940.90
405.09	994.73
405.28	889.40
405.47	875.36
405.66	912.81
405.85	882.38
406.05	763.01
406.24	819.19
406.43	961.96
406.62	990.05
406.81	983.02
407.00	980.68
407.20	858.98
407.39	844.93
407.58	950.26
407.77	1004.09
407.96	917.49
408.15	987.71
408.34	1055.58
408.54	1001.75
408.73	1071.97
408.92	959.62
409.11	917.49
409.30	1036.86
409.49	844.93
409.68	844.93
409.87	821.53
410.07	849.61
410.26	1001.75
410.45	997.07
410.64	945.58
410.83	1090.69
411.02	1095.37
411.21	1100.05
411.40	1006.43
411.59	1121.12
411.78	1067.28
411.98	990.05
412.17	1093.03
412.36	1074.31
412.55	1100.05
412.74	985.37
412.93	1011.11
413.12	1118.78
413.31	1165.59
413.50	1135.16
413.69	1128.14
413.88	1156.22
414.07	1083.67
414.26	1086.01
414.45	1114.10
414.64	1104.73
414.83	1053.24
415.02	1076.65
415.22	1050.90
415.41	1149.20
415.60	1266.23
415.79	1198.35
415.98	1217.08
416.17	1212.40
416.36	1153.88
416.55	1025.15
416.74	1123.46
416.93	1118.78
417.12	1071.97
417.31	1097.71
417.50	1137.50
417.69	1203.04
417.88	1160.91
418.07	1172.61
418.26	1137.50
418.45	1081.33
418.64	1135.16
418.83	1177.29
419.02	1217.08
419.21	1125.80
419.39	1137.50
419.58	1050.90
419.77	1160.91
419.96	1235.80
420.15	1179.63
420.34	1214.74
420.53	1273.25
420.72	1259.21
420.91	1196.01
421.10	1233.46
421.29	1277.93
421.48	1219.42
421.67	1282.61
421.86	1221.76
422.05	1067.28
422.24	1095.37
422.43	1100.05
422.61	1247.51
422.80	1287.29
422.99	1212.40
423.18	1100.05
423.37	1139.84
423.56	1146.86
423.75	1296.66
423.94	1181.97
424.13	1156.22
424.32	1025.15
424.50	1064.94
424.69	1179.63
424.88	1284.95
425.07	1228.78
425.26	1097.71
425.45	1170.27
425.64	1029.84
425.83	1146.86
426.01	1172.61
426.20	1210.06
426.39	1102.39
426.58	1069.62
426.77	1095.37
426.96	1048.56
427.15	1121.12
427.33	1156.22
427.52	1102.39
427.71	1193.67
427.90	1151.54
428.09	1121.12
428.28	1090.69
428.46	1121.12
428.65	1128.14
428.84	1137.50
429.03	1170.27
429.22	1043.88
429.40	1006.43
429.59	917.49
429.78	983.02
429.97	866.00
430.16	922.17
430.34	915.15
430.53	861.32
430.72	980.68
430.91	1036.86
431.10	1116.44
431.28	1219.42
431.47	1341.13
431.66	1273.25
431.85	1109.41
432.03	1062.60
432.22	1151.54
432.41	1135.16
432.60	1277.93
432.79	1137.50
432.97	1303.68
433.16	1228.78
433.35	1125.80
433.54	1107.07
433.72	1032.18
433.91	1015.79
434.10	1259.21
434.28	1287.29
434.47	1289.64
434.66	1224.10
434.85	1334.11
435.03	1259.21
435.22	1373.89
435.41	1380.92
435.59	1430.07
435.78	1359.85
435.97	1439.43
436.16	1416.02
436.34	1334.11
436.53	1280.27
436.72	1294.32
436.90	1273.25
437.09	1320.06
437.28	1266.23
437.46	1310.70
437.65	1303.68
437.84	1139.84
438.02	1015.79
438.21	1132.82
438.40	1153.88
438.58	1254.53
438.77	1277.93
438.96	1350.49
439.14	1385.60
439.33	1423.05
439.52	1409.00
439.70	1324.74
439.89	1273.25
440.08	1280.27
440.26	1299.00
440.45	1355.17
440.63	1437.09
440.82	1455.81
441.01	1418.36
441.19	1472.20
441.38	1453.47
441.57	1476.88
441.75	1528.37
441.94	1486.24
442.12	1474.54
442.31	1430.07
442.50	1519.01
442.68	1427.73
442.87	1474.54
443.05	1439.43
443.24	1458.15
443.43	1504.96
443.61	1591.56
443.80	1589.22
443.98	1540.07
444.17	1467.52
444.35	1612.63
444.54	1629.01
444.73	1558.80
444.91	1420.71
445.10	1404.32
445.28	1338.79
445.47	1554.12
445.65	1373.89
445.84	1444.11
446.02	1474.54
446.21	1521.35
446.39	1399.64
446.58	1607.95
446.77	1556.46
446.95	1530.71
447.14	1434.75
447.32	1563.48
447.51	1577.52
447.69	1481.56
447.88	1504.96
448.06	1516.67
448.25	1619.65
448.43	1589.22
448.62	1544.75
448.80	1540.07
448.99	1556.46
449.17	1425.39
449.36	1521.35
449.54	1643.06
449.73	1624.33
449.91	1643.06
450.10	1675.82
450.28	1685.19
450.46	1734.34
450.65	1734.34
450.83	1586.88
451.02	1671.14
451.20	1607.95
451.39	1589.22
451.57	1715.61
451.76	1732.00
451.94	1614.97
452.13	1537.73
452.31	1575.18
452.49	1430.07
452.68	1544.75
452.86	1493.26
453.05	1572.84
453.23	1633.69
453.42	1582.20
453.60	1652.42
453.78	1647.74
453.97	1598.59
454.15	1624.33
454.34	1572.84
454.52	1509.65
454.70	1418.36
454.89	1526.03
455.07	1561.14
455.26	1540.07
455.44	1671.14
455.62	1689.87
455.81	1617.31
455.99	1582.20
456.17	1661.78
456.36	1533.05
456.54	1708.59
456.73	1713.27
456.91	1706.25
457.09	1776.47
457.28	1643.06
457.46	1643.06
457.64	1610.29
457.83	1650.08
458.01	1600.93
458.19	1664.12
458.38	1657.10
458.56	1629.01
458.74	1692.21
458.93	1596.25
459.11	1666.46
459.29	1605.61
459.48	1638.38
459.66	1636.03
459.84	1682.85
460.03	1689.87
460.21	1692.21
460.39	1629.01
460.57	1652.42
460.76	1715.61
460.94	1818.60
461.12	1760.08
461.31	1680.50
461.49	1699.23
461.67	1682.85
461.85	1743.70
462.04	1750.72
462.22	1820.94
462.40	1720.29
462.59	1734.34
462.77	1755.40
462.95	1757.74
463.13	1732.00
463.32	1661.78
463.50	1657.10
463.68	1736.68
463.86	1713.27
464.05	1739.02
464.23	1633.69
464.41	1584.54
464.59	1544.75
464.78	1757.74
464.96	1694.55
465.14	1652.42
465.32	1734.34
465.50	1722.63
465.69	1778.81
465.87	1668.80
466.05	1647.74
466.23	1533.05
466.41	1619.65
466.60	1631.35
466.78	1652.42
466.96	1661.78
467.14	1636.03
467.32	1687.53
467.51	1643.06
467.69	1540.07
467.87	1680.50
468.05	1739.02
468.23	1699.23
468.41	1750.72
468.60	1659.44
468.78	1713.27
468.96	1706.25
469.14	1673.48
469.32	1671.14
469.50	1584.54
469.69	1589.22
469.87	1645.40
470.05	1551.78
470.23	1540.07
470.41	1582.20
470.59	1654.76
470.77	1563.48
470.95	1650.08
471.14	1813.92
471.32	1743.70
471.50	1797.53
471.68	1778.81
471.86	1893.49
472.04	1830.30
472.22	1785.83
472.40	1682.85
472.58	1640.72
472.77	1682.85
472.95	1727.32
473.13	1816.26
473.31	1811.57
473.49	1708.59
473.67	1746.04
473.85	1788.17
474.03	1909.88
474.21	1816.26
474.39	1921.58
474.57	1823.28
474.75	1809.23
474.93	1753.06
475.12	1729.66
475.30	1853.70
475.48	1753.06
475.66	1916.90
475.84	1673.48
476.02	1722.63
476.20	1734.34
476.38	1746.04
476.56	2019.88
476.74	1919.24
476.92	2005.84
477.10	1881.79
477.28	1933.28
477.46	1975.41
477.64	1867.75
477.82	1970.73
478.00	1881.79
478.18	1891.15
478.36	1977.75
478.54	2005.84
478.72	1952.01
478.90	1942.64
479.08	1987.11
479.26	1987.11
479.44	2054.99
479.62	2017.54
479.80	2132.23
479.98	2083.08
480.16	1954.35
480.34	2040.95
480.52	2050.31
480.70	2064.35
480.88	2104.14
481.06	2092.44
481.24	2129.89
481.41	2143.93
481.59	2172.02
481.77	2225.85
481.95	2129.89
482.13	2139.25
482.31	2169.68
482.49	2263.30
482.67	2319.47
482.85	2296.07
483.03	2265.64
483.21	2242.23
483.39	2193.08
483.57	2181.38
483.74	2127.55
483.92	2237.55
484.10	2167.34
484.28	2305.43
484.46	2272.66
484.64	2319.47
484.82	2239.89
485.00	2092.44
485.18	2118.18
485.35	2012.86
485.53	1891.15
485.71	1909.88
485.89	1907.54
486.07	1975.41
486.25	2141.59
486.43	2214.15
486.61	2225.85
486.78	2193.08
486.96	2263.30
487.14	2279.68
487.32	2352.24
487.50	2476.29
487.68	2492.67
487.85	2422.45
488.03	2478.63
488.21	2389.69
488.39	2342.88
488.57	2298.41
488.75	2321.81
488.92	2649.49
489.10	2686.94
489.28	2696.30
489.46	2654.17
489.64	2684.59
489.81	2532.46
489.99	2729.06
490.17	2642.46
490.35	2768.85
490.53	2665.87
490.70	2726.72
490.88	2679.91
491.06	2698.64
491.24	2682.25
491.41	2607.36
491.59	2403.73
491.77	2443.52
491.95	2541.82
492.13	2635.44
492.30	2773.53
492.48	2771.19
492.66	2827.37
492.84	2780.56
493.01	2764.17
493.19	2679.91
493.37	2637.78
493.54	2729.06
493.72	2792.26
493.90	2897.58
494.08	2939.71
494.25	3033.33
494.43	2967.80
494.61	2881.20
494.79	2899.92
494.96	2771.19
495.14	2698.64
495.32	2789.92
495.49	2813.32
495.67	2874.18
495.85	2988.86
496.02	2993.55
496.20	2972.48
496.38	2920.99
496.55	2939.71
496.73	3087.17
496.91	3061.42
497.09	3103.55
497.26	3194.83
497.44	2986.52
497.62	2939.71
497.79	2883.54
497.97	2712.68
498.14	2825.03
498.32	3131.64
498.50	3028.65
498.67	3009.93
498.85	3009.93
499.03	3028.65
499.20	2958.44
499.38	3005.25
499.56	3148.02
499.73	2960.78
499.91	2906.95
500.08	2967.80
500.26	2923.33
500.44	2920.99
500.61	2939.71
500.79	2888.22
500.97	2843.75
501.14	2916.31
501.32	2857.79
501.49	2846.09
501.67	2932.69
501.84	2958.44
502.02	2937.37
502.20	2930.35
502.37	3019.29
502.55	2913.97
502.72	3077.80
502.90	3096.53
503.07	3000.57
503.25	2923.33
503.43	2738.43
503.60	2836.73
503.78	2731.41
503.95	2834.39
504.13	3045.04
504.30	2986.52
504.48	3112.91
504.65	2878.86
504.83	3021.63
505.01	3035.67
505.18	3054.40
505.36	3265.05
505.53	3239.30
505.71	3321.22
505.88	3183.13
506.06	3042.70
506.23	3038.02
506.41	3049.72
506.58	3019.29
506.76	2949.08
506.93	2953.76
507.11	3047.38
507.28	3101.21
507.46	3026.31
507.63	2923.33
507.81	2850.77
507.98	2958.44
508.16	3061.42
508.33	3098.87
508.50	3201.85
508.68	3084.83
508.85	3157.38
509.03	3199.51
509.20	3152.70
509.38	3033.33
509.55	3002.91
509.73	3094.19
509.90	3229.94
510.08	3019.29
510.25	3150.36
510.42	3056.74
510.60	3061.42
510.77	3070.78
510.95	3251.00
511.12	3211.22
511.30	3234.62
511.47	3255.69
511.64	3300.16
511.82	3148.02
511.99	3215.90
512.17	2960.78
512.34	3035.67
512.51	3021.63
512.69	3038.02
512.86	3129.30
513.04	3110.57
513.21	3201.85
513.38	2930.35
513.56	3016.95
513.73	2998.23
513.90	3047.38
514.08	3066.10
514.25	3042.70
514.43	3136.32
514.60	3084.83
514.77	3068.44
514.95	3087.17
515.12	3009.93
515.29	3251.00
515.47	3162.06
515.64	3222.92
515.81	3105.89
515.99	3059.08
516.16	2808.64
516.33	2658.85
516.51	2675.23
516.68	2560.55
516.85	2555.86
517.03	2670.55
517.20	2874.18
517.37	3019.29
517.54	3206.53
517.72	2883.54
517.89	2656.51
518.06	2663.53
518.24	2853.11
518.41	2998.23
518.58	3005.25
518.75	3007.59
518.93	2946.73
519.10	3052.06
519.27	3096.53
519.45	3096.53
519.62	3084.83
519.79	3112.91
519.96	3119.93
520.14	3005.25
520.31	3009.93
520.48	2979.50
520.65	3108.23
520.83	3304.84
521.00	3178.45
521.17	3014.61
521.34	3131.64
521.52	3101.21
521.69	3269.73
521.86	3101.21
522.03	3028.65
522.20	2949.08
522.38	2904.60
522.55	3068.44
522.72	3087.17
522.89	2991.20
523.07	3208.87
523.24	3129.30
523.41	3077.80
523.58	3272.07
523.75	3122.27
523.92	3239.30
524.10	3353.99
524.27	3187.81
524.44	3084.83
524.61	3204.19
524.78	3119.93
524.96	3150.36
525.13	3159.72
525.30	3279.09
525.47	3288.45
525.64	3300.16
525.81	3070.78
525.98	2867.16
526.16	2789.92
526.33	2771.19
526.50	2813.32
526.67	2775.88
526.84	2862.48
527.01	2902.26
527.18	2932.69
527.36	3080.14
527.53	3143.34
527.70	3178.45
527.87	3133.98
528.04	3019.29
528.21	3145.68
528.38	3279.09
528.55	3269.73
528.72	3304.84
528.89	3232.28
529.07	3173.77
529.24	3169.09
529.41	3084.83
529.58	2944.39
529.75	3166.74
529.92	3164.40
530.09	3185.47
530.26	3171.43
530.43	3222.92
530.60	3213.56
530.77	3321.22
530.94	3152.70
531.11	3164.40
531.28	3126.96
531.46	3201.85
531.63	3138.66
531.80	3087.17
531.97	2991.20
532.14	2911.63
532.31	2846.09
532.48	2827.37
532.65	2867.16
532.82	3054.40
532.99	3155.04
533.16	3145.68
533.33	3129.30
533.50	3117.59
533.67	3108.23
533.84	3005.25
534.01	3220.58
534.18	3084.83
534.35	3148.02
534.52	3131.64
534.69	3112.91
534.86	3112.91
535.03	3112.91
535.20	3183.13
535.37	3283.77
535.54	3375.05
535.71	3229.94
535.88	3176.11
536.05	3126.96
536.22	3089.51
536.38	2988.86
536.55	2946.73
536.72	2928.01
536.89	2988.86
537.06	3068.44
537.23	3274.41
537.40	3091.85
537.57	3283.77
537.74	3208.87
537.91	3119.93
538.08	3009.93
538.25	3152.70
538.42	3089.51
538.59	3136.32
538.75	3066.10
538.92	3084.83
539.09	3054.40
539.26	2967.80
539.43	3042.70
539.60	2986.52
539.77	2995.89
539.94	2904.60
540.11	2993.55
540.28	3066.10
540.44	2953.76
540.61	2972.48
540.78	2988.86
540.95	3047.38
541.12	3192.49
541.29	3080.14
541.46	3136.32
541.62	3213.56
541.79	3110.57
541.96	2986.52
542.13	3019.29
542.30	3068.44
542.47	3040.36
542.63	3009.93
542.80	2949.08
542.97	2960.78
543.14	2981.84
543.31	3056.74
543.48	3290.79
543.64	3274.41
543.81	3162.06
543.98	3019.29
544.15	2953.76
544.32	2937.37
544.48	2869.50
544.65	3035.67
544.82	3110.57
544.99	3009.93
545.16	3101.21
545.32	3110.57
545.49	3562.30
545.66	3449.95
545.83	3159.72
546.00	3066.10
546.16	3159.72
546.33	3033.33
546.50	2993.55
546.67	3187.81
546.83	3091.85
547.00	3129.30
547.17	2949.08
547.34	2883.54
547.50	2902.26
547.67	2995.89
547.84	2902.26
548.00	3117.59
548.17	3164.40
548.34	3098.87
548.51	3000.57
548.67	3021.63
548.84	2963.12
549.01	2895.24
549.18	2944.39
549.34	3026.31
549.51	2967.80
549.68	3061.42
549.84	2956.10
550.01	3014.61
550.18	3007.59
550.34	3124.62
550.51	2972.48
550.68	3000.57
550.84	2979.50
551.01	2881.20
551.18	3014.61
551.34	3014.61
551.51	3014.61
551.68	3054.40
551.84	2991.20
552.01	2906.95
552.18	2796.94
552.34	2850.77
552.51	2808.64
552.68	2813.32
552.84	2902.26
553.01	2928.01
553.18	2888.22
553.34	2916.31
553.51	2986.52
553.67	2981.84
553.84	2979.50
554.01	3014.61
554.17	2888.22
554.34	2935.03
554.51	2939.71
554.67	3068.44
554.84	2965.46
555.00	2841.41
555.17	2885.88
555.33	2897.58
555.50	2846.09
555.67	2864.82
555.83	2848.43
556.00	2801.62
556.16	3030.99
556.33	2899.92
556.50	2928.01
556.66	2846.09
556.83	2698.64
556.99	2747.79
557.16	2747.79
557.32	2848.43
557.49	2693.96
557.65	2841.41
557.82	2928.01
557.98	2724.38
558.15	2761.83
558.32	2670.55
558.48	2654.17
558.65	2602.68
558.81	2806.30
558.98	2794.60
559.14	2764.17
559.31	2621.40
559.47	2729.06
559.64	2750.13
559.80	2626.08
559.97	2715.02
560.13	2651.83
560.30	2745.45
560.46	2864.82
560.63	2864.82
560.79	2885.88
560.96	2750.13
561.12	2602.68
561.29	2579.27
561.45	2780.56
561.61	2703.32
561.78	2780.56
561.94	2778.22
562.11	2628.42
562.27	2597.99
562.44	2780.56
562.60	2846.09
562.77	2729.06
562.93	2773.53
563.10	2733.75
563.26	2588.63
563.42	2696.30
563.59	2649.49
563.75	2537.14
563.92	2619.06
564.08	2705.66
564.24	2647.15
564.41	2654.17
564.57	2668.21
564.74	2825.03
564.90	2775.88
565.07	2586.29
565.23	2516.08
565.39	2506.71
565.56	2576.93
565.72	2485.65
565.88	2581.61
566.05	2588.63
566.21	2562.89
566.38	2649.49
566.54	2518.42
566.70	2656.51
566.87	2616.72
567.03	2541.82
567.19	2623.74
567.36	2562.89
567.52	2609.70
567.68	2555.86
567.85	2588.63
568.01	2387.35
568.17	2448.20
568.34	2429.48
568.50	2455.22
568.66	2462.24
568.83	2464.58
568.99	2523.10
569.15	2464.58
569.32	2424.80
569.48	2441.18
569.64	2298.41
569.81	2352.24
569.97	2370.96
570.13	2459.90
570.30	2338.20
570.46	2335.85
570.62	2289.04
570.78	2349.90
570.95	2324.15
571.11	2427.14
571.27	2399.05
571.43	2387.35
571.60	2534.80
571.76	2455.22
571.92	2377.98
572.09	2382.67
572.25	2340.54
572.41	2417.77
572.57	2401.39
572.74	2459.90
572.90	2375.64
573.06	2476.29
573.22	2406.07
573.38	2457.56
573.55	2319.47
573.71	2480.97
573.87	2487.99
574.03	2328.83
574.20	2286.70
574.36	2347.56
574.52	2307.77
574.68	2282.02
574.84	2307.77
575.01	2366.28
575.17	2331.17
575.33	2221.17
575.49	2345.22
575.65	2312.45
575.82	2197.76
575.98	2356.92
576.14	2377.98
576.30	2387.35
576.46	2576.93
576.62	2403.73
576.79	2385.01
576.95	2338.20
577.11	2326.49
577.27	2352.24
577.43	2406.07
577.59	2380.32
577.75	2303.09
577.92	2193.08
578.08	2190.74
578.24	2207.13
578.40	2345.22
578.56	2303.09
578.72	2401.39
578.88	2300.75
579.04	2284.36
579.21	2441.18
579.37	2314.79
579.53	2298.41
579.69	2441.18
579.85	2422.45
580.01	2443.52
580.17	2352.24
580.33	2223.51
580.49	2319.47
580.65	2424.80
580.82	2403.73
580.98	2401.39
581.14	2263.30
581.30	2403.73
581.46	2359.26
581.62	2466.92
581.78	2459.90
581.94	2438.84
582.10	2392.03
582.26	2415.43
582.42	2370.96
582.58	2422.45
582.74	2354.58
582.90	2340.54
583.06	2368.62
583.22	2518.42
583.38	2466.92
583.54	2335.85
583.70	2385.01
583.86	2401.39
584.02	2321.81
584.18	2366.28
584.34	2326.49
584.50	2406.07
584.66	2342.88
584.82	2286.70
584.98	2305.43
585.14	2275.00
585.30	2256.28
585.46	2225.85
585.62	2324.15
585.78	2303.09
585.94	2349.90
586.10	2291.38
586.26	2319.47
586.42	2347.56
586.58	2317.13
586.74	2225.85
586.90	2239.89
587.06	2289.04
587.22	2225.85
587.38	2230.53
587.54	2069.03
587.70	2246.91
587.86	2071.37
588.02	2050.31
588.18	1963.71
588.34	1895.83
588.49	1743.70
588.65	1818.60
588.81	1877.11
588.97	1886.47
589.13	1736.68
589.29	1851.36
589.45	1870.09
589.61	1996.48
589.77	1961.37
589.93	2029.24
590.08	2179.04
590.24	2050.31
590.40	2036.27
590.56	2094.78
590.72	1966.05
590.88	1982.43
591.04	2047.97
591.20	1968.39
591.35	2029.24
591.51	1935.62
591.67	2012.86
591.83	2052.65
591.99	1930.94
592.15	2132.23
592.31	2022.22
592.46	2045.63
592.62	2066.69
592.78	2069.03
592.94	2122.87
593.10	2150.95
593.26	2052.65
593.41	2090.10
593.57	1900.52
593.73	2008.18
593.89	1912.22
594.05	2022.22
594.20	1874.77
594.36	1834.98
594.52	1954.35
594.68	1994.14
594.84	2033.93
594.99	2073.71
595.15	2008.18
595.31	2078.40
595.47	1984.77
595.62	1921.58
595.78	2043.29
595.94	2001.16
596.10	1998.82
596.25	1982.43
596.41	2064.35
596.57	1973.07
596.73	2052.65
596.88	2052.65
597.04	1970.73
597.20	1928.60
597.36	1991.80
597.51	2064.35
597.67	1909.88
597.83	1966.05
597.99	1966.05
598.14	2015.20
598.30	2104.14
598.46	2059.67
598.61	2071.37
598.77	2010.52
598.93	1998.82
599.09	1935.62
599.24	2038.61
599.40	2052.65
599.56	2097.12
599.71	2005.84
599.87	1968.39
600.03	2026.90
600.18	2005.84
600.34	2012.86
600.50	1984.77
600.65	2094.78
600.81	2029.24
600.97	1963.71
601.12	2008.18
601.28	2029.24
601.44	1963.71
601.59	1851.36
601.75	1970.73
601.91	1949.67
602.06	1989.46
602.22	2052.65
602.37	2017.54
602.53	1940.30
602.69	2010.52
602.84	2050.31
603.00	2022.22
603.16	2090.10
603.31	2005.84
603.47	1952.01
603.62	1989.46
603.78	1949.67
603.94	2069.03
604.09	2005.84
604.25	2033.93
604.40	1989.46
604.56	1966.05
604.71	1973.07
604.87	2010.52
605.03	2019.88
605.18	1923.92
605.34	1940.30
605.49	2038.61
605.65	1926.26
605.80	1942.64
605.96	1987.11
606.12	1961.37
606.27	1987.11
606.43	1991.80
606.58	2045.63
606.74	2050.31
606.89	1966.05
607.05	2108.82
607.20	1942.64
607.36	1881.79
607.51	1902.86
607.67	1968.39
607.82	1900.52
607.98	1944.99
608.13	1947.33
608.29	2045.63
608.44	1998.82
608.60	1994.14
608.75	2024.56
608.91	2069.03
609.06	2022.22
609.22	2071.37
609.37	1968.39
609.53	1956.69
609.68	2064.35
609.84	1968.39
609.99	1975.41
610.15	2080.74
610.30	2043.29
610.46	2221.17
610.61	2326.49
610.76	2429.48
610.92	2331.17
611.07	2204.78
611.23	2193.08
611.38	2188.40
611.54	2097.12
611.69	2052.65
611.84	1933.28
612.00	1935.62
612.15	2108.82
612.31	2026.90
612.46	1898.17
612.62	1961.37
612.77	1909.88
612.92	1942.64
613.08	1984.77
613.23	1956.69
613.39	1940.30
613.54	1884.13
613.69	1832.64
613.85	1907.54
614.00	1879.45
614.15	1874.77
614.31	1942.64
614.46	1956.69
614.62	1919.24
614.77	1928.60
614.92	1961.37
615.08	1956.69
615.23	1888.81
615.38	1944.99
615.54	1788.17
615.69	1783.49
615.84	1811.57
616.00	1764.76
616.15	1771.79
616.30	1753.06
616.46	1832.64
616.61	1797.53
616.76	1792.85
616.92	1755.40
617.07	1816.26
617.22	1818.60
617.37	1853.70
617.53	1834.98
617.68	1755.40
617.83	1811.57
617.99	1703.91
618.14	1881.79
618.29	1809.23
618.45	1771.79
618.60	1827.96
618.75	1729.66
618.90	1830.30
619.06	1753.06
619.21	1774.13
619.36	1743.70
619.51	1802.21
619.67	1760.08
619.82	1818.60
619.97	1832.64
620.12	1722.63
620.28	1811.57
620.43	1769.44
620.58	1795.19
620.73	1795.19
620.89	1804.55
621.04	1729.66
621.19	1701.57
621.34	1746.04
621.49	1701.57
621.65	1818.60
621.80	1755.40
621.95	1717.95
622.10	1673.48
622.25	1661.78
622.41	1638.38
622.56	1760.08
622.71	1739.02
622.86	1657.10
623.01	1701.57
623.16	1643.06
623.32	1692.21
623.47	1668.80
623.62	1668.80
623.77	1689.87
623.92	1565.82
624.07	1631.35
624.23	1685.19
624.38	1708.59
624.53	1624.33
624.68	1629.01
624.83	1764.76
624.98	1687.53
625.13	1537.73
625.29	1652.42
625.44	1692.21
625.59	1633.69
625.74	1741.36
625.89	1612.63
626.04	1657.10
626.19	1586.88
626.34	1626.67
626.49	1687.53
626.65	1631.35
626.80	1540.07
626.95	1631.35
627.10	1563.48
627.25	1437.09
627.40	1341.13
627.55	1467.52
627.70	1380.92
627.85	1521.35
628.00	1638.38
628.15	1481.56
628.30	1488.58
628.45	1439.43
628.60	1549.43
628.76	1570.50
628.91	1516.67
629.06	1483.90
629.21	1547.09
629.36	1493.26
629.51	1542.41
629.66	1572.84
629.81	1575.18
629.96	1657.10
630.11	1600.93
630.26	1598.59
630.41	1607.95
630.56	1584.54
630.71	1563.48
630.86	1593.90
631.01	1439.43
631.16	1472.20
631.31	1596.25
631.46	1500.28
631.61	1460.49
631.76	1544.75
631.91	1490.92
632.06	1540.07
632.21	1537.73
632.36	1603.27
632.51	1530.71
632.66	1460.49
632.81	1551.78
632.96	1511.99
633.10	1523.69
633.25	1483.90
633.40	1544.75
633.55	1446.45
633.70	1432.41
633.85	1528.37
634.00	1432.41
634.15	1462.83
634.30	1490.92
634.45	1563.48
634.60	1521.35
634.75	1523.69
634.90	1453.47
635.05	1563.48
635.19	1465.18
635.34	1472.20
635.49	1514.33
635.64	1568.16
635.79	1544.75
635.94	1474.54
636.09	1502.62
636.24	1467.52
636.39	1535.39
636.53	1549.43
636.68	1526.03
636.83	1504.96
636.98	1570.50
637.13	1495.60
637.28	1516.67
637.43	1542.41
637.57	1481.56
637.72	1584.54
637.87	1500.28
638.02	1493.26
638.17	1528.37
638.32	1547.09
638.46	1533.05
638.61	1535.39
638.76	1507.30
638.91	1423.05
639.06	1390.28
639.20	1542.41
639.35	1437.09
639.50	1394.96
639.65	1441.77
639.80	1394.96
639.94	1394.96
640.09	1537.73
640.24	1385.60
640.39	1509.65
640.54	1458.15
640.68	1481.56
640.83	1504.96
640.98	1401.98
641.13	1472.20
641.27	1282.61
641.42	1357.51
641.57	1306.02
641.72	1371.55
641.86	1348.15
642.01	1420.71
642.16	1439.43
642.31	1458.15
642.45	1507.30
642.60	1411.34
642.75	1341.13
642.90	1497.94
643.04	1533.05
643.19	1378.58
643.34	1341.13
643.48	1359.85
643.63	1432.41
643.78	1425.39
643.93	1409.00
644.07	1416.02
644.22	1451.13
644.37	1430.07
644.51	1437.09
644.66	1434.75
644.81	1291.98
644.95	1355.17
645.10	1385.60
645.25	1324.74
645.39	1282.61
645.54	1329.42
645.69	1359.85
645.83	1380.92
645.98	1380.92
646.13	1315.38
646.27	1334.11
646.42	1224.10
646.57	1376.24
646.71	1172.61
646.86	1233.46
647.00	1259.21
647.15	1378.58
647.30	1315.38
647.44	1282.61
647.59	1226.44
647.74	1252.19
647.88	1280.27
648.03	1254.53
648.17	1366.87
648.32	1207.72
648.47	1240.48
648.61	1231.12
648.76	1200.69
648.90	1198.35
649.05	1273.25
649.20	1249.85
649.34	1247.51
649.49	1254.53
649.63	1287.29
649.78	1331.76
649.92	1380.92
650.07	1299.00
650.21	1341.13
650.36	1399.64
650.51	1291.98
650.65	1331.76
650.80	1224.10
650.94	1207.72
651.09	1165.59
651.23	1167.93
651.38	1184.31
651.52	1235.80
651.67	1329.42
651.81	1214.74
651.96	1401.98
652.10	1362.19
652.25	1287.29
652.39	1252.19
652.54	1280.27
652.68	1303.68
652.83	1247.51
652.97	1270.91
653.12	1282.61
653.26	1294.32
653.41	1299.00
653.55	1383.26
653.70	1352.83
653.84	1245.16
653.99	1205.38
654.13	1205.38
654.27	1203.04
654.42	1275.59
654.56	1188.99
654.71	1198.35
654.85	1181.97
655.00	1130.48
655.14	1036.86
655.29	1125.80
655.43	1055.58
655.57	1034.52
655.72	926.85
655.86	959.62
656.01	1043.88
656.15	1128.14
656.30	1104.73
656.44	1062.60
656.58	1163.25
656.73	1041.54
656.87	1090.69
657.01	1158.57
657.16	1170.27
657.30	1198.35
657.45	1299.00
657.59	1287.29
657.73	1128.14
657.88	1212.40
658.02	1345.81
658.16	1270.91
658.31	1221.76
658.45	1219.42
658.60	1179.63
658.74	1177.29
658.88	1193.67
659.03	1170.27
659.17	1184.31
659.31	1296.66
659.46	1203.04
659.60	1200.69
659.74	1245.16
659.89	1294.32
660.03	1245.16
660.17	1238.14
660.32	1144.52
660.46	1170.27
660.60	1240.48
660.74	1221.76
660.89	1174.95
661.03	1259.21
661.17	1184.31
661.32	1252.19
661.46	1254.53
661.60	1247.51
661.74	1261.55
661.89	1261.55
662.03	1193.67
662.17	1275.59
662.31	1231.12
662.46	1217.08
662.60	1165.59
662.74	1184.31
662.88	1231.12
663.03	1146.86
663.17	1200.69
663.31	1170.27
663.45	1221.76
663.60	1280.27
663.74	1130.48
663.88	1174.95
664.02	1217.08
664.17	1160.91
664.31	1146.86
664.45	1107.07
664.59	1247.51
664.73	1184.31
664.88	1261.55
665.02	1086.01
665.16	1144.52
665.30	1207.72
665.44	1156.22
665.59	1104.73
665.73	1240.48
665.87	1132.82
666.01	1179.63
666.15	1146.86
666.29	1224.10
666.44	1156.22
666.58	1151.54
666.72	1107.07
666.86	1107.07
667.00	1203.04
667.14	1118.78
667.28	1135.16
667.43	1116.44
667.57	1006.43
667.71	1130.48
667.85	1144.52
667.99	1186.65
668.13	1151.54
668.27	1067.28
668.41	1107.07
668.56	1095.37
668.70	1109.41
668.84	1125.80
668.98	1095.37
669.12	1076.65
669.26	1149.20
669.40	1137.50
669.54	1212.40
669.68	1118.78
669.82	1053.24
669.96	994.73
670.10	1137.50
670.25	1139.84
670.39	1107.07
670.53	1132.82
670.67	1078.99
670.81	978.34
670.95	1074.31
671.09	1020.47
671.23	1135.16
671.37	1011.11
671.51	1067.28
671.65	1020.47
671.79	1095.37
671.93	1135.16
672.07	1104.73
672.21	1071.97
672.35	1011.11
672.49	1062.60
672.63	1069.62
672.77	992.39
672.91	1027.50
673.05	1029.84
673.19	1053.24
673.33	936.21
673.47	1027.50
673.61	1006.43
673.75	1055.58
673.89	1135.16
674.03	1006.43
674.17	1034.52
674.31	1071.97
674.45	1032.18
674.59	1043.88
674.73	1043.88
674.87	1104.73
675.01	1057.92
675.15	961.96
675.29	1004.09
675.43	1078.99
675.56	987.71
675.70	1060.26
675.84	973.66
675.98	997.07
676.12	990.05
676.26	1043.88
676.40	997.07
676.54	964.30
676.68	992.39
676.82	933.87
676.96	973.66
677.10	1001.75
677.23	987.71
677.37	952.60
677.51	926.85
677.65	1004.09
677.79	968.98
677.93	943.24
678.07	957.28
678.21	894.08
678.34	915.15
678.48	887.06
678.62	1011.11
678.76	968.98
678.90	887.06
679.04	976.00
679.18	908.13
679.31	957.28
679.45	912.81
679.59	966.64
679.73	910.47
679.87	858.98
680.00	919.83
680.14	910.47
680.28	798.12
680.42	908.13
680.56	940.90
680.70	915.15
680.83	894.08
680.97	851.96
681.11	894.08
681.25	1006.43
681.39	940.90
681.52	894.08
681.66	830.89
681.80	959.62
681.94	940.90
682.07	854.30
682.21	931.53
682.35	866.00
682.49	858.98
682.62	896.43
682.76	854.30
682.90	887.06
683.04	840.25
683.17	861.32
683.31	929.19
683.45	882.38
683.59	835.57
683.72	877.70
683.86	833.23
684.00	800.46
684.13	880.04
684.27	887.06
684.41	868.34
684.55	805.14
684.68	784.08
684.82	884.72
684.96	774.72
685.09	781.74
685.23	718.54
685.37	823.87
685.50	866.00
685.64	819.19
685.78	833.23
685.91	805.14
686.05	798.12
686.19	669.39
686.32	650.67
686.46	566.41
686.60	575.77
686.73	540.66
686.87	578.11
687.01	517.26
687.14	421.30
687.28	524.28
687.42	608.54
687.55	622.58
687.69	676.41
687.82	643.65
687.96	645.99
688.10	634.29
688.23	636.63
688.37	678.76
688.50	664.71
688.64	615.56
688.78	650.67
688.91	592.16
689.05	645.99
689.18	615.56
689.32	554.71
689.46	599.18
689.59	653.01
689.73	629.60
689.86	603.86
690.00	699.82
690.13	667.05
690.27	643.65
690.41	615.56
690.54	664.71
690.68	594.50
690.81	627.26
690.95	631.94
691.08	650.67
691.22	674.07
691.35	638.97
691.49	676.41
691.62	634.29
691.76	643.65
691.89	582.79
692.03	622.58
692.16	514.92
692.30	585.13
692.43	585.13
692.57	559.39
692.70	550.03
692.84	561.73
692.97	571.09
693.11	610.88
693.24	603.86
693.38	564.07
693.51	510.24
693.65	578.11
693.78	603.86
693.92	554.71
694.05	627.26
694.19	564.07
694.32	589.82
694.45	578.11
694.59	533.64
694.72	582.79
694.86	573.43
694.99	514.92
695.13	489.17
695.26	564.07
695.39	624.92
695.53	648.33
695.66	599.18
695.80	676.41
695.93	547.69
696.07	582.79
696.20	620.24
696.33	674.07
696.47	653.01
696.60	568.75
696.73	589.82
696.87	653.01
697.00	683.44
697.14	650.67
697.27	599.18
697.40	669.39
697.54	671.73
697.67	643.65
697.80	575.77
697.94	559.39
698.07	550.03
698.21	482.15
698.34	561.73
698.47	564.07
698.61	554.71
698.74	545.34
698.87	493.85
699.01	498.53
699.14	463.43
699.27	608.54
699.40	631.94
699.54	589.82
699.67	528.96
699.80	477.47
699.94	461.09
700.07	587.47
700.20	514.92
700.34	517.26
700.47	477.47
700.60	512.58
700.73	533.64
700.87	566.41
701.00	571.09
701.13	580.45
701.26	498.53
701.40	617.90
701.53	543.00
701.66	512.58
701.79	447.04
701.93	533.64
702.06	559.39
702.19	521.94
702.32	486.83
702.46	484.49
702.59	475.13
702.72	554.71
702.85	554.71
702.99	535.98
703.12	596.84
703.25	496.19
703.38	517.26
703.51	531.30
703.65	484.49
703.78	585.13
703.91	613.22
704.04	543.00
704.17	533.64
704.31	545.34
704.44	557.05
704.57	482.15
704.70	484.49
704.83	514.92
704.96	454.06
705.10	587.47
705.23	517.26
>>>>>End Processed Spectral Data<<<<<
