SpectraSuite Data File
++++++++++++++++++++++++++++++++++++
Date: Mon Sep 30 18:11:52 GMT-05:00 2013
User: stostad
Dark Spectrum Present: No
Reference Spectrum Present: No
Number of Sampled Component Spectra: 1
Spectrometers: USB2+H05261
Integration Time (usec): 100000 (USB2+H05261)
Spectra Averaged: 1 (USB2+H05261)
Boxcar Smoothing: 0 (USB2+H05261)
Correct for Electrical Dark: No (USB2+H05261)
Strobe/Lamp Enabled: No (USB2+H05261)
Correct for Detector Non-linearity: No (USB2+H05261)
Correct for Stray Light: No (USB2+H05261)
Number of Pixels in Processed Spectrum: 2048
>>>>>Begin Processed Spectral Data<<<<<
365.73	9.36
365.92	9.36
366.12	9.36
366.32	32.77
366.52	0.00
366.72	30.43
366.91	46.81
367.11	86.60
367.31	0.00
367.51	88.94
367.70	11.70
367.90	23.41
368.10	0.00
368.30	79.58
368.49	67.88
368.69	0.00
368.89	58.51
369.09	51.49
369.28	37.45
369.48	0.00
369.68	86.60
369.87	35.11
370.07	63.19
370.27	131.07
370.47	168.52
370.66	264.48
370.86	351.08
371.06	334.70
371.25	334.70
371.45	337.04
371.65	332.36
371.84	287.89
372.04	294.91
372.24	353.42
372.44	327.68
372.63	311.29
372.83	383.85
373.03	294.91
373.22	433.00
373.42	337.04
373.62	334.70
373.81	351.08
374.01	416.62
374.21	381.51
374.40	330.02
374.60	355.76
374.79	315.97
374.99	388.53
375.19	416.62
375.38	414.27
375.58	390.87
375.78	341.72
375.97	409.59
376.17	397.89
376.37	482.15
376.56	491.51
376.76	463.43
376.95	425.98
377.15	477.47
377.35	493.85
377.54	463.43
377.74	318.31
377.93	484.49
378.13	505.56
378.33	503.22
378.52	468.11
378.72	449.38
378.91	447.04
379.11	475.13
379.31	344.06
379.50	374.49
379.70	411.93
379.89	479.81
380.09	437.68
380.28	503.22
380.48	451.72
380.68	407.25
380.87	456.40
381.07	447.04
381.26	327.68
381.46	383.85
381.65	407.25
381.85	449.38
382.04	433.00
382.24	449.38
382.43	337.04
382.63	297.25
382.83	257.46
383.02	365.12
383.22	388.53
383.41	390.87
383.61	402.57
383.80	458.74
384.00	465.77
384.19	447.04
384.39	416.62
384.58	470.45
384.78	463.43
384.97	571.09
385.17	482.15
385.36	430.66
385.56	383.85
385.75	388.53
385.95	479.81
386.14	472.79
386.34	425.98
386.53	484.49
386.72	400.23
386.92	470.45
387.11	531.30
387.31	547.69
387.50	458.74
387.70	451.72
387.89	418.96
388.09	437.68
388.28	505.56
388.48	512.58
388.67	545.34
388.86	582.79
389.06	514.92
389.25	610.88
389.45	601.52
389.64	535.98
389.84	519.60
390.03	528.96
390.22	620.24
390.42	564.07
390.61	575.77
390.81	638.97
391.00	669.39
391.19	627.26
391.39	587.47
391.58	580.45
391.78	545.34
391.97	540.66
392.16	493.85
392.36	510.24
392.55	435.34
392.75	365.12
392.94	346.40
393.13	376.83
393.33	390.87
393.52	507.90
393.71	512.58
393.91	435.34
394.10	500.87
394.29	615.56
394.49	631.94
394.68	683.44
394.88	676.41
395.07	594.50
395.26	641.31
395.46	564.07
395.65	615.56
395.84	484.49
396.04	437.68
396.23	418.96
396.42	383.85
396.62	348.74
396.81	498.53
397.00	507.90
397.19	615.56
397.39	692.80
397.58	748.97
397.77	699.82
397.97	760.67
398.16	746.63
398.35	830.89
398.55	779.40
398.74	837.91
398.93	772.38
399.12	805.14
399.32	779.40
399.51	854.30
399.70	875.36
399.90	873.02
400.09	861.32
400.28	891.74
400.47	814.51
400.67	861.32
400.86	903.45
401.05	898.77
401.24	929.19
401.44	936.21
401.63	868.34
401.82	905.79
402.01	837.91
402.21	898.77
402.40	919.83
402.59	896.43
402.78	814.51
402.97	840.25
403.17	905.79
403.36	908.13
403.55	915.15
403.74	891.74
403.93	903.45
404.13	816.85
404.32	849.61
404.51	947.92
404.70	961.96
404.89	903.45
405.09	924.51
405.28	912.81
405.47	887.06
405.66	905.79
405.85	880.04
406.05	903.45
406.24	875.36
406.43	901.11
406.62	945.58
406.81	938.55
407.00	891.74
407.20	858.98
407.39	894.08
407.58	889.40
407.77	908.13
407.96	1025.15
408.15	1013.45
408.34	933.87
408.54	1057.92
408.73	1064.94
408.92	1001.75
409.11	959.62
409.30	840.25
409.49	896.43
409.68	784.08
409.87	851.96
410.07	919.83
410.26	943.24
410.45	903.45
410.64	912.81
410.83	1029.84
411.02	1050.90
411.21	1104.73
411.40	1046.22
411.59	947.92
411.78	964.30
411.98	959.62
412.17	1029.84
412.36	985.37
412.55	1043.88
412.74	1034.52
412.93	994.73
413.12	1050.90
413.31	1071.97
413.50	1196.01
413.69	1095.37
413.88	1004.09
414.07	1055.58
414.26	1139.84
414.45	1071.97
414.64	994.73
414.83	1090.69
415.02	1069.62
415.22	1100.05
415.41	1100.05
415.60	1123.46
415.79	1188.99
415.98	1167.93
416.17	1139.84
416.36	1109.41
416.55	1116.44
416.74	1151.54
416.93	1022.81
417.12	1083.67
417.31	1036.86
417.50	1076.65
417.69	1151.54
417.88	1116.44
418.07	1109.41
418.26	1050.90
418.45	1104.73
418.64	1217.08
418.83	1158.57
419.02	1139.84
419.21	1177.29
419.39	1057.92
419.58	1015.79
419.77	964.30
419.96	1121.12
420.15	1167.93
420.34	1149.20
420.53	1277.93
420.72	1245.16
420.91	1160.91
421.10	1198.35
421.29	1186.65
421.48	1188.99
421.67	1214.74
421.86	1107.07
422.05	1078.99
422.24	985.37
422.43	1001.75
422.61	1144.52
422.80	1177.29
422.99	1102.39
423.18	1078.99
423.37	1212.40
423.56	1205.38
423.75	1207.72
423.94	1083.67
424.13	1149.20
424.32	1095.37
424.50	1060.26
424.69	1137.50
424.88	1097.71
425.07	1153.88
425.26	1160.91
425.45	1078.99
425.64	1055.58
425.83	1088.35
426.01	1245.16
426.20	1235.80
426.39	1081.33
426.58	999.41
426.77	954.94
426.96	1076.65
427.15	1029.84
427.33	1109.41
427.52	1153.88
427.71	1153.88
427.90	1160.91
428.09	1107.07
428.28	1001.75
428.46	915.15
428.65	1093.03
428.84	1006.43
429.03	1139.84
429.22	933.87
429.40	940.90
429.59	936.21
429.78	875.36
429.97	814.51
430.16	807.48
430.34	866.00
430.53	814.51
430.72	938.55
430.91	1022.81
431.10	1132.82
431.28	1303.68
431.47	1317.72
431.66	1287.29
431.85	1177.29
432.03	1088.35
432.22	1102.39
432.41	1125.80
432.60	1299.00
432.79	1228.78
432.97	1301.34
433.16	1221.76
433.35	1048.56
433.54	1027.50
433.72	992.39
433.91	1057.92
434.10	1170.27
434.28	1252.19
434.47	1282.61
434.66	1219.42
434.85	1179.63
435.03	1291.98
435.22	1296.66
435.41	1523.69
435.59	1497.94
435.78	1205.38
435.97	1427.73
436.16	1341.13
436.34	1254.53
436.53	1235.80
436.72	1277.93
436.90	1172.61
437.09	1294.32
437.28	1259.21
437.46	1275.59
437.65	1303.68
437.84	1219.42
438.02	1067.28
438.21	1170.27
438.40	1240.48
438.58	1249.85
438.77	1221.76
438.96	1235.80
439.14	1291.98
439.33	1345.81
439.52	1294.32
439.70	1277.93
439.89	1217.08
440.08	1242.82
440.26	1198.35
440.45	1359.85
440.63	1371.55
440.82	1462.83
441.01	1448.79
441.19	1306.02
441.38	1376.24
441.57	1490.92
441.75	1526.03
441.94	1530.71
442.12	1526.03
442.31	1486.24
442.50	1554.12
442.68	1460.49
442.87	1469.86
443.05	1444.11
443.24	1540.07
443.43	1504.96
443.61	1533.05
443.80	1514.33
443.98	1397.30
444.17	1444.11
444.35	1540.07
444.54	1509.65
444.73	1500.28
444.91	1437.09
445.10	1371.55
445.28	1245.16
445.47	1380.92
445.65	1282.61
445.84	1474.54
446.02	1444.11
446.21	1423.05
446.39	1565.82
446.58	1413.68
446.77	1554.12
446.95	1521.35
447.14	1530.71
447.32	1593.90
447.51	1451.13
447.69	1406.66
447.88	1472.20
448.06	1638.38
448.25	1542.41
448.43	1511.99
448.62	1444.11
448.80	1544.75
448.99	1425.39
449.17	1500.28
449.36	1549.43
449.54	1507.30
449.73	1589.22
449.91	1556.46
450.10	1605.61
450.28	1713.27
450.46	1694.55
450.65	1675.82
450.83	1633.69
451.02	1600.93
451.20	1558.80
451.39	1570.50
451.57	1598.59
451.76	1591.56
451.94	1565.82
452.13	1441.77
452.31	1439.43
452.49	1441.77
452.68	1390.28
452.86	1437.09
453.05	1542.41
453.23	1401.98
453.42	1486.24
453.60	1542.41
453.78	1474.54
453.97	1575.18
454.15	1511.99
454.34	1444.11
454.52	1446.45
454.70	1488.58
454.89	1537.73
455.07	1528.37
455.26	1528.37
455.44	1685.19
455.62	1689.87
455.81	1673.48
455.99	1593.90
456.17	1657.10
456.36	1523.69
456.54	1582.20
456.73	1619.65
456.91	1675.82
457.09	1671.14
457.28	1706.25
457.46	1621.99
457.64	1619.65
457.83	1563.48
458.01	1507.30
458.19	1547.09
458.38	1652.42
458.56	1603.27
458.74	1596.25
458.93	1619.65
459.11	1636.03
459.29	1544.75
459.48	1593.90
459.66	1614.97
459.84	1706.25
460.03	1741.36
460.21	1673.48
460.39	1696.89
460.57	1638.38
460.76	1626.67
460.94	1626.67
461.12	1689.87
461.31	1629.01
461.49	1668.80
461.67	1619.65
461.85	1785.83
462.04	1739.02
462.22	1851.36
462.40	1694.55
462.59	1729.66
462.77	1748.38
462.95	1701.57
463.13	1636.03
463.32	1643.06
463.50	1584.54
463.68	1579.86
463.86	1694.55
464.05	1654.76
464.23	1603.27
464.41	1554.12
464.59	1556.46
464.78	1629.01
464.96	1596.25
465.14	1689.87
465.32	1724.97
465.50	1769.44
465.69	1781.15
465.87	1556.46
466.05	1626.67
466.23	1519.01
466.41	1540.07
466.60	1551.78
466.78	1621.99
466.96	1696.89
467.14	1624.33
467.32	1650.08
467.51	1556.46
467.69	1563.48
467.87	1666.46
468.05	1675.82
468.23	1633.69
468.41	1638.38
468.60	1687.53
468.78	1640.72
468.96	1706.25
469.14	1729.66
469.32	1734.34
469.50	1633.69
469.69	1659.44
469.87	1652.42
470.05	1629.01
470.23	1488.58
470.41	1596.25
470.59	1631.35
470.77	1708.59
470.95	1593.90
471.14	1675.82
471.32	1743.70
471.50	1727.32
471.68	1750.72
471.86	1797.53
472.04	1802.21
472.22	1710.93
472.40	1659.44
472.58	1692.21
472.77	1654.76
472.95	1668.80
473.13	1767.10
473.31	1741.36
473.49	1717.95
473.67	1753.06
473.85	1760.08
474.03	1884.13
474.21	1769.44
474.39	1888.81
474.57	1802.21
474.75	1771.79
474.93	1715.61
475.12	1675.82
475.30	1790.51
475.48	1699.23
475.66	1743.70
475.84	1673.48
476.02	1708.59
476.20	1743.70
476.38	1771.79
476.56	1806.89
476.74	1825.62
476.92	1795.19
477.10	1806.89
477.28	2008.18
477.46	1860.73
477.64	1849.02
477.82	1940.30
478.00	1877.11
478.18	1834.98
478.36	1891.15
478.54	1870.09
478.72	2005.84
478.90	1987.11
479.08	2113.50
479.26	2043.29
479.44	1970.73
479.62	1914.56
479.80	2062.01
479.98	2015.20
480.16	1909.88
480.34	2127.55
480.52	2069.03
480.70	2066.69
480.88	2064.35
481.06	1975.41
481.24	2099.46
481.41	2143.93
481.59	2214.15
481.77	2230.53
481.95	2235.21
482.13	2099.46
482.31	2069.03
482.49	2127.55
482.67	2176.70
482.85	2235.21
483.03	2122.87
483.21	2120.53
483.39	2136.91
483.57	2062.01
483.74	2059.67
483.92	2174.36
484.10	2157.97
484.28	2225.85
484.46	2207.13
484.64	2277.34
484.82	2267.98
485.00	2143.93
485.18	2031.58
485.35	1977.75
485.53	1891.15
485.71	1717.95
485.89	1657.10
486.07	1998.82
486.25	2197.76
486.43	2111.16
486.61	2352.24
486.78	2101.80
486.96	2218.83
487.14	2303.09
487.32	2282.02
487.50	2377.98
487.68	2448.20
487.85	2424.80
488.03	2331.17
488.21	2373.30
488.39	2298.41
488.57	2354.58
488.75	2298.41
488.92	2700.98
489.10	2663.53
489.28	2654.17
489.46	2572.25
489.64	2523.10
489.81	2619.06
489.99	2719.70
490.17	2579.27
490.35	2640.12
490.53	2546.50
490.70	2558.21
490.88	2511.39
491.06	2597.99
491.24	2546.50
491.41	2548.84
491.59	2389.69
491.77	2436.50
491.95	2548.84
492.13	2438.84
492.30	2686.94
492.48	2693.96
492.66	2689.28
492.84	2729.06
493.01	2715.02
493.19	2616.72
493.37	2583.95
493.54	2780.56
493.72	2792.26
493.90	2815.66
494.08	2977.16
494.25	2761.83
494.43	2876.52
494.61	2827.37
494.79	2787.58
494.96	2857.79
495.14	2658.85
495.32	2637.78
495.49	2686.94
495.67	2825.03
495.85	2949.08
496.02	2991.20
496.20	2953.76
496.38	2843.75
496.55	2768.85
496.73	2972.48
496.91	2860.13
497.09	3000.57
497.26	2920.99
497.44	2902.26
497.62	2829.71
497.79	2654.17
497.97	2705.66
498.14	2693.96
498.32	2761.83
498.50	2881.20
498.67	2939.71
498.85	2944.39
499.03	3012.27
499.20	3056.74
499.38	3040.36
499.56	2949.08
499.73	2928.01
499.91	2841.41
500.08	2843.75
500.26	2825.03
500.44	2780.56
500.61	2745.45
500.79	2836.73
500.97	2899.92
501.14	2778.22
501.32	2754.81
501.49	2810.98
501.67	2836.73
501.84	2944.39
502.02	3005.25
502.20	2909.29
502.37	2806.30
502.55	2984.18
502.72	2993.55
502.90	2918.65
503.07	3012.27
503.25	2799.28
503.43	2759.49
503.60	2640.12
503.78	2593.31
503.95	2789.92
504.13	2942.05
504.30	2918.65
504.48	2946.73
504.65	3054.40
504.83	3028.65
505.01	2944.39
505.18	3056.74
505.36	3007.59
505.53	3047.38
505.71	3105.89
505.88	3192.49
506.06	2937.37
506.23	2848.43
506.41	2871.84
506.58	3038.02
506.76	2979.50
506.93	2892.90
507.11	2951.42
507.28	2944.39
507.46	2963.12
507.63	2906.95
507.81	2815.66
507.98	2888.22
508.16	2888.22
508.33	3005.25
508.50	3103.55
508.68	3047.38
508.85	3110.57
509.03	3164.40
509.20	3087.17
509.38	3063.76
509.55	3026.31
509.73	2967.80
509.90	3157.38
510.08	3110.57
510.25	3035.67
510.42	3061.42
510.60	2778.22
510.77	3002.91
510.95	3194.83
511.12	3225.26
511.30	3222.92
511.47	3129.30
511.64	3183.13
511.82	3073.12
511.99	3030.99
512.17	2946.73
512.34	3035.67
512.51	3077.80
512.69	2946.73
512.86	3080.14
513.04	3075.46
513.21	3089.51
513.38	3028.65
513.56	2937.37
513.73	2913.97
513.90	2916.31
514.08	2906.95
514.25	2979.50
514.43	2995.89
514.60	2920.99
514.77	3070.78
514.95	2960.78
515.12	3070.78
515.29	3054.40
515.47	3192.49
515.64	3126.96
515.81	3014.61
515.99	2843.75
516.16	2810.98
516.33	2630.76
516.51	2565.23
516.68	2431.82
516.85	2485.65
517.03	2476.29
517.20	2764.17
517.37	2897.58
517.54	3094.19
517.72	2860.13
517.89	2553.52
518.06	2523.10
518.24	2637.78
518.41	2796.94
518.58	2958.44
518.75	2979.50
518.93	2888.22
519.10	2902.26
519.27	3038.02
519.45	3066.10
519.62	3000.57
519.79	3176.11
519.96	2986.52
520.14	2953.76
520.31	2946.73
520.48	2918.65
520.65	3117.59
520.83	3042.70
521.00	3056.74
521.17	3141.00
521.34	3075.46
521.52	3066.10
521.69	3133.98
521.86	3143.34
522.03	3068.44
522.20	2902.26
522.38	2899.92
522.55	3019.29
522.72	2920.99
522.89	2951.42
523.07	2981.84
523.24	3007.59
523.41	3038.02
523.58	3112.91
523.75	3091.85
523.92	3084.83
524.10	3141.00
524.27	3136.32
524.44	3040.36
524.61	3103.55
524.78	3082.49
524.96	3045.04
525.13	3007.59
525.30	3115.25
525.47	3169.09
525.64	3122.27
525.81	2942.05
525.98	2759.49
526.16	2710.34
526.33	2546.50
526.50	2658.85
526.67	2637.78
526.84	2825.03
527.01	2782.90
527.18	2944.39
527.36	2925.67
527.53	2988.86
527.70	2960.78
527.87	2883.54
528.04	3049.72
528.21	3080.14
528.38	3190.15
528.55	3218.24
528.72	3265.05
528.89	3159.72
529.07	3075.46
529.24	3033.33
529.41	2986.52
529.58	2942.05
529.75	2949.08
529.92	3164.40
530.09	3077.80
530.26	3042.70
530.43	3068.44
530.60	3075.46
530.77	3190.15
530.94	3066.10
531.11	3045.04
531.28	3042.70
531.46	3049.72
531.63	2981.84
531.80	2902.26
531.97	2860.13
532.14	2935.03
532.31	2841.41
532.48	2850.77
532.65	2792.26
532.82	2935.03
532.99	3028.65
533.16	3012.27
533.33	3047.38
533.50	3059.08
533.67	2895.24
533.84	2825.03
534.01	2937.37
534.18	3112.91
534.35	2937.37
534.52	2970.14
534.69	2942.05
534.86	3087.17
535.03	3033.33
535.20	3148.02
535.37	3272.07
535.54	3222.92
535.71	3073.12
535.88	3054.40
536.05	3056.74
536.22	2960.78
536.38	2993.55
536.55	2792.26
536.72	2832.05
536.89	2923.33
537.06	3054.40
537.23	3098.87
537.40	3101.21
537.57	3054.40
537.74	2916.31
537.91	3082.49
538.08	3038.02
538.25	2942.05
538.42	3023.97
538.59	3038.02
538.75	2963.12
538.92	2953.76
539.09	2951.42
539.26	2942.05
539.43	2874.18
539.60	2916.31
539.77	3000.57
539.94	2986.52
540.11	2773.53
540.28	2820.35
540.44	2932.69
540.61	2909.29
540.78	2904.60
540.95	2876.52
541.12	3019.29
541.29	3056.74
541.46	3173.77
541.62	3030.99
541.79	2972.48
541.96	2892.90
542.13	2902.26
542.30	2949.08
542.47	2977.16
542.63	2932.69
542.80	3023.97
542.97	3028.65
543.14	3084.83
543.31	3007.59
543.48	2974.82
543.64	3155.04
543.81	3199.51
543.98	3068.44
544.15	3030.99
544.32	2897.58
544.48	2993.55
544.65	2937.37
544.82	2993.55
544.99	2932.69
545.16	3052.06
545.32	3068.44
545.49	3279.09
545.66	3311.86
545.83	3241.64
546.00	3115.25
546.16	2991.20
546.33	2923.33
546.50	2864.82
546.67	3033.33
546.83	3056.74
547.00	3101.21
547.17	2794.60
547.34	2932.69
547.50	2843.75
547.67	2871.84
547.84	2881.20
548.00	2899.92
548.17	2981.84
548.34	2829.71
548.51	2843.75
548.67	2949.08
548.84	2801.62
549.01	2902.26
549.18	2899.92
549.34	2836.73
549.51	2803.96
549.68	2923.33
549.84	2981.84
550.01	2864.82
550.18	2932.69
550.34	3023.97
550.51	2958.44
550.68	2930.35
550.84	2768.85
551.01	2974.82
551.18	2932.69
551.34	2775.88
551.51	2925.67
551.68	2885.88
551.84	2904.60
552.01	2822.69
552.18	2745.45
552.34	2705.66
552.51	2775.88
552.68	2771.19
552.84	2836.73
553.01	2846.09
553.18	2843.75
553.34	2864.82
553.51	2850.77
553.67	2897.58
553.84	2745.45
554.01	2843.75
554.17	2850.77
554.34	2867.16
554.51	2869.50
554.67	2930.35
554.84	2815.66
555.00	2787.58
555.17	2801.62
555.33	2803.96
555.50	2850.77
555.67	2745.45
555.83	2733.75
556.00	2684.59
556.16	2890.56
556.33	2757.15
556.50	2729.06
556.66	2745.45
556.83	2663.53
556.99	2675.23
557.16	2677.57
557.32	2693.96
557.49	2586.29
557.65	2836.73
557.82	2743.11
557.98	2689.28
558.15	2623.74
558.32	2562.89
558.48	2441.18
558.65	2590.97
558.81	2626.08
558.98	2607.36
559.14	2698.64
559.31	2534.80
559.47	2583.95
559.64	2583.95
559.80	2626.08
559.97	2616.72
560.13	2684.59
560.30	2642.46
560.46	2712.68
560.63	2663.53
560.79	2677.57
560.96	2724.38
561.12	2597.99
561.29	2619.06
561.45	2605.02
561.61	2541.82
561.78	2724.38
561.94	2593.31
562.11	2513.74
562.27	2473.95
562.44	2506.71
562.60	2768.85
562.77	2590.97
562.93	2768.85
563.10	2572.25
563.26	2600.34
563.42	2523.10
563.59	2525.44
563.75	2504.37
563.92	2670.55
564.08	2565.23
564.24	2651.83
564.41	2600.34
564.57	2612.04
564.74	2562.89
564.90	2637.78
565.07	2516.08
565.23	2497.35
565.39	2408.41
565.56	2443.52
565.72	2443.52
565.88	2497.35
566.05	2504.37
566.21	2466.92
566.38	2429.48
566.54	2459.90
566.70	2504.37
566.87	2661.19
567.03	2511.39
567.19	2551.18
567.36	2626.08
567.52	2565.23
567.68	2401.39
567.85	2476.29
568.01	2420.11
568.17	2462.24
568.34	2363.94
568.50	2352.24
568.66	2366.28
568.83	2483.31
568.99	2424.80
569.15	2406.07
569.32	2331.17
569.48	2420.11
569.64	2335.85
569.81	2282.02
569.97	2366.28
570.13	2363.94
570.30	2312.45
570.46	2214.15
570.62	2183.72
570.78	2239.89
570.95	2342.88
571.11	2284.36
571.27	2422.45
571.43	2354.58
571.60	2328.83
571.76	2293.72
571.92	2373.30
572.09	2293.72
572.25	2253.94
572.41	2373.30
572.57	2413.09
572.74	2443.52
572.90	2385.01
573.06	2282.02
573.22	2375.64
573.38	2296.07
573.55	2373.30
573.71	2324.15
573.87	2319.47
574.03	2377.98
574.20	2354.58
574.36	2406.07
574.52	2143.93
574.68	2216.49
574.84	2188.40
575.01	2186.06
575.17	2310.11
575.33	2275.00
575.49	2389.69
575.65	2235.21
575.82	2223.51
575.98	2221.17
576.14	2270.32
576.30	2347.56
576.46	2335.85
576.62	2230.53
576.79	2307.77
576.95	2289.04
577.11	2155.63
577.27	2345.22
577.43	2267.98
577.59	2176.70
577.75	2167.34
577.92	2197.76
578.08	2188.40
578.24	2214.15
578.40	2342.88
578.56	2260.96
578.72	2237.55
578.88	2228.19
579.04	2148.61
579.21	2275.00
579.37	2282.02
579.53	2303.09
579.69	2275.00
579.85	2385.01
580.01	2399.05
580.17	2244.57
580.33	2333.51
580.49	2286.70
580.65	2284.36
580.82	2282.02
580.98	2303.09
581.14	2251.60
581.30	2214.15
581.46	2396.71
581.62	2263.30
581.78	2307.77
581.94	2359.26
582.10	2270.32
582.26	2317.13
582.42	2289.04
582.58	2232.87
582.74	2335.85
582.90	2300.75
583.06	2207.13
583.22	2300.75
583.38	2312.45
583.54	2221.17
583.70	2286.70
583.86	2258.62
584.02	2251.60
584.18	2338.20
584.34	2176.70
584.50	2303.09
584.66	2242.23
584.82	2305.43
584.98	2209.47
585.14	2284.36
585.30	2139.25
585.46	2134.57
585.62	2087.76
585.78	2197.76
585.94	2148.61
586.10	2127.55
586.26	2143.93
586.42	2307.77
586.58	2253.94
586.74	2244.57
586.90	2225.85
587.06	2232.87
587.22	2286.70
587.38	2260.96
587.54	2113.50
587.70	2244.57
587.86	2136.91
588.02	2026.90
588.18	1921.58
588.34	1834.98
588.49	1732.00
588.65	1722.63
588.81	1788.17
588.97	1748.38
589.13	1853.70
589.29	1834.98
589.45	1783.49
589.61	1851.36
589.77	1867.75
589.93	2022.22
590.08	1977.75
590.24	2043.29
590.40	1994.14
590.56	2033.93
590.72	2026.90
590.88	1952.01
591.04	1914.56
591.20	1952.01
591.35	2052.65
591.51	1984.77
591.67	1921.58
591.83	1898.17
591.99	1952.01
592.15	1898.17
592.31	2001.16
592.46	1956.69
592.62	2057.33
592.78	2033.93
592.94	1998.82
593.10	2031.58
593.26	2033.93
593.41	2022.22
593.57	1942.64
593.73	1956.69
593.89	1888.81
594.05	1844.34
594.20	1898.17
594.36	1823.28
594.52	1832.64
594.68	1933.28
594.84	1909.88
594.99	1980.09
595.15	1909.88
595.31	2019.88
595.47	2015.20
595.62	1926.26
595.78	1944.99
595.94	2080.74
596.10	2015.20
596.25	1926.26
596.41	1987.11
596.57	1987.11
596.73	2036.27
596.88	2078.40
597.04	1893.49
597.20	1888.81
597.36	1851.36
597.51	1937.96
597.67	1991.80
597.83	2005.84
597.99	1912.22
598.14	1877.11
598.30	1937.96
598.46	1912.22
598.61	2003.50
598.77	1966.05
598.93	1937.96
599.09	1973.07
599.24	1982.43
599.40	2024.56
599.56	1987.11
599.71	1912.22
599.87	1984.77
600.03	1977.75
600.18	1952.01
600.34	1856.04
600.50	1949.67
600.65	1844.34
600.81	1998.82
600.97	2017.54
601.12	1902.86
601.28	1853.70
601.44	1893.49
601.59	1905.20
601.75	1856.04
601.91	1952.01
602.06	1898.17
602.22	2010.52
602.37	1963.71
602.53	2019.88
602.69	2036.27
602.84	2026.90
603.00	1944.99
603.16	1961.37
603.31	2012.86
603.47	1998.82
603.62	1860.73
603.78	1935.62
603.94	1935.62
604.09	2062.01
604.25	1870.09
604.40	1947.33
604.56	1991.80
604.71	1905.20
604.87	1877.11
605.03	1816.26
605.18	1952.01
605.34	1842.00
605.49	1877.11
605.65	1895.83
605.80	1909.88
605.96	1811.57
606.12	1914.56
606.27	1963.71
606.43	1952.01
606.58	1909.88
606.74	1912.22
606.89	1987.11
607.05	1966.05
607.20	1856.04
607.36	1870.09
607.51	1902.86
607.67	1900.52
607.82	1888.81
607.98	1980.09
608.13	1914.56
608.29	1877.11
608.44	1952.01
608.60	1893.49
608.75	1923.92
608.91	1849.02
609.06	1900.52
609.22	1874.77
609.37	1921.58
609.53	1834.98
609.68	1933.28
609.84	1949.67
609.99	1973.07
610.15	2113.50
610.30	2057.33
610.46	2127.55
610.61	2153.29
610.76	2249.25
610.92	2211.81
611.07	2176.70
611.23	2209.47
611.38	2146.27
611.54	2057.33
611.69	2024.56
611.84	1982.43
612.00	1935.62
612.15	1849.02
612.31	2015.20
612.46	1893.49
612.62	1991.80
612.77	2062.01
612.92	1886.47
613.08	1820.94
613.23	1881.79
613.39	1839.66
613.54	1788.17
613.69	1891.15
613.85	1921.58
614.00	1928.60
614.15	1891.15
614.31	1860.73
614.46	1830.30
614.62	1757.74
614.77	1757.74
614.92	1860.73
615.08	1886.47
615.23	1881.79
615.38	1741.36
615.54	1717.95
615.69	1694.55
615.84	1795.19
616.00	1643.06
616.15	1610.29
616.30	1750.72
616.46	1781.15
616.61	1710.93
616.76	1736.68
616.92	1792.85
617.07	1764.76
617.22	1727.32
617.37	1659.44
617.53	1799.87
617.68	1694.55
617.83	1701.57
617.99	1797.53
618.14	1856.04
618.29	1837.32
618.45	1736.68
618.60	1715.61
618.75	1781.15
618.90	1760.08
619.06	1806.89
619.21	1675.82
619.36	1746.04
619.51	1734.34
619.67	1799.87
619.82	1811.57
619.97	1755.40
620.12	1760.08
620.28	1797.53
620.43	1729.66
620.58	1799.87
620.73	1743.70
620.89	1696.89
621.04	1556.46
621.19	1657.10
621.34	1680.50
621.49	1757.74
621.65	1708.59
621.80	1661.78
621.95	1584.54
622.10	1689.87
622.25	1785.83
622.41	1586.88
622.56	1715.61
622.71	1549.43
622.86	1682.85
623.01	1701.57
623.16	1717.95
623.32	1645.40
623.47	1654.76
623.62	1682.85
623.77	1661.78
623.92	1647.74
624.07	1603.27
624.23	1621.99
624.38	1598.59
624.53	1549.43
624.68	1575.18
624.83	1638.38
624.98	1673.48
625.13	1537.73
625.29	1636.03
625.44	1605.61
625.59	1685.19
625.74	1603.27
625.89	1619.65
626.04	1570.50
626.19	1633.69
626.34	1537.73
626.49	1526.03
626.65	1589.22
626.80	1657.10
626.95	1439.43
627.10	1500.28
627.25	1383.26
627.40	1394.96
627.55	1385.60
627.70	1392.62
627.85	1439.43
628.00	1502.62
628.15	1535.39
628.30	1582.20
628.45	1554.12
628.60	1427.73
628.76	1514.33
628.91	1490.92
629.06	1380.92
629.21	1425.39
629.36	1502.62
629.51	1387.94
629.66	1462.83
629.81	1455.81
629.96	1507.30
630.11	1556.46
630.26	1575.18
630.41	1542.41
630.56	1476.88
630.71	1378.58
630.86	1472.20
631.01	1570.50
631.16	1427.73
631.31	1455.81
631.46	1577.52
631.61	1488.58
631.76	1423.05
631.91	1486.24
632.06	1509.65
632.21	1504.96
632.36	1490.92
632.51	1516.67
632.66	1493.26
632.81	1394.96
632.96	1434.75
633.10	1460.49
633.25	1544.75
633.40	1511.99
633.55	1411.34
633.70	1462.83
633.85	1427.73
634.00	1437.09
634.15	1516.67
634.30	1481.56
634.45	1469.86
634.60	1423.05
634.75	1348.15
634.90	1406.66
635.05	1465.18
635.19	1401.98
635.34	1469.86
635.49	1437.09
635.64	1380.92
635.79	1327.08
635.94	1409.00
636.09	1441.77
636.24	1523.69
636.39	1472.20
636.53	1509.65
636.68	1537.73
636.83	1430.07
636.98	1483.90
637.13	1460.49
637.28	1448.79
637.43	1542.41
637.57	1504.96
637.72	1554.12
637.87	1504.96
638.02	1530.71
638.17	1526.03
638.32	1441.77
638.46	1540.07
638.61	1535.39
638.76	1387.94
638.91	1366.87
639.06	1397.30
639.20	1481.56
639.35	1371.55
639.50	1446.45
639.65	1355.17
639.80	1437.09
639.94	1446.45
640.09	1502.62
640.24	1495.60
640.39	1380.92
640.54	1418.36
640.68	1399.64
640.83	1383.26
640.98	1359.85
641.13	1390.28
641.27	1387.94
641.42	1341.13
641.57	1409.00
641.72	1357.51
641.86	1259.21
642.01	1451.13
642.16	1474.54
642.31	1511.99
642.45	1404.32
642.60	1441.77
642.75	1369.21
642.90	1399.64
643.04	1284.95
643.19	1448.79
643.34	1376.24
643.48	1373.89
643.63	1430.07
643.78	1364.53
643.93	1432.41
644.07	1345.81
644.22	1441.77
644.37	1327.08
644.51	1348.15
644.66	1345.81
644.81	1350.49
644.95	1317.72
645.10	1284.95
645.25	1327.08
645.39	1376.24
645.54	1266.23
645.69	1249.85
645.83	1320.06
645.98	1329.42
646.13	1270.91
646.27	1256.87
646.42	1214.74
646.57	1226.44
646.71	1233.46
646.86	1240.48
647.00	1217.08
647.15	1191.33
647.30	1172.61
647.44	1153.88
647.59	1217.08
647.74	1324.74
647.88	1198.35
648.03	1242.82
648.17	1310.70
648.32	1191.33
648.47	1231.12
648.61	1179.63
648.76	1186.65
648.90	1174.95
649.05	1116.44
649.20	1261.55
649.34	1266.23
649.49	1219.42
649.63	1245.16
649.78	1226.44
649.92	1259.21
650.07	1299.00
650.21	1219.42
650.36	1268.57
650.51	1315.38
650.65	1275.59
650.80	1240.48
650.94	1177.29
651.09	1179.63
651.23	1090.69
651.38	1142.18
651.52	1259.21
651.67	1174.95
651.81	1207.72
651.96	1219.42
652.10	1226.44
652.25	1343.47
652.39	1219.42
652.54	1329.42
652.68	1212.40
652.83	1231.12
652.97	1275.59
653.12	1249.85
653.26	1301.34
653.41	1301.34
653.55	1224.10
653.70	1242.82
653.84	1156.22
653.99	1226.44
654.13	1296.66
654.27	1254.53
654.42	1174.95
654.56	1200.69
654.71	1228.78
654.85	1093.03
655.00	1090.69
655.14	1109.41
655.29	1053.24
655.43	1139.84
655.57	1041.54
655.72	961.96
655.86	938.55
656.01	994.73
656.15	1034.52
656.30	1170.27
656.44	1081.33
656.58	1114.10
656.73	1174.95
656.87	1191.33
657.01	1156.22
657.16	1188.99
657.30	1310.70
657.45	1313.04
657.59	1207.72
657.73	1163.25
657.88	1186.65
658.02	1308.36
658.16	1149.20
658.31	1287.29
658.45	1327.08
658.60	1146.86
658.74	1282.61
658.88	1181.97
659.03	1142.18
659.17	1217.08
659.31	1137.50
659.46	1172.61
659.60	1247.51
659.74	1121.12
659.89	1177.29
660.03	1137.50
660.17	1249.85
660.32	1123.46
660.46	1259.21
660.60	1205.38
660.74	1177.29
660.89	1210.06
661.03	1081.33
661.17	1184.31
661.32	1116.44
661.46	1062.60
661.60	1151.54
661.74	1226.44
661.89	1193.67
662.03	1142.18
662.17	1114.10
662.31	1254.53
662.46	1165.59
662.60	1212.40
662.74	1203.04
662.88	1174.95
663.03	1186.65
663.17	1160.91
663.31	1193.67
663.45	1177.29
663.60	1121.12
663.74	1233.46
663.88	1130.48
664.02	1198.35
664.17	1139.84
664.31	1184.31
664.45	1123.46
664.59	1132.82
664.73	1137.50
664.88	1177.29
665.02	1111.75
665.16	1067.28
665.30	1210.06
665.44	1062.60
665.59	1123.46
665.73	1121.12
665.87	1093.03
666.01	1144.52
666.15	1144.52
666.29	1135.16
666.44	1146.86
666.58	1130.48
666.72	1198.35
666.86	1055.58
667.00	1132.82
667.14	1097.71
667.28	1069.62
667.43	1060.26
667.57	1107.07
667.71	1123.46
667.85	997.07
667.99	1111.75
668.13	1158.57
668.27	1078.99
668.41	1111.75
668.56	1090.69
668.70	1053.24
668.84	1156.22
668.98	1008.77
669.12	1078.99
669.26	1109.41
669.40	1100.05
669.54	1006.43
669.68	1050.90
669.82	1036.86
669.96	1053.24
670.10	1025.15
670.25	1104.73
670.39	1032.18
670.53	999.41
670.67	966.64
670.81	1097.71
670.95	1071.97
671.09	1109.41
671.23	1055.58
671.37	1048.56
671.51	1083.67
671.65	1032.18
671.79	1029.84
671.93	1032.18
672.07	1062.60
672.21	1057.92
672.35	1025.15
672.49	936.21
672.63	1067.28
672.77	1083.67
672.91	938.55
673.05	1095.37
673.19	1095.37
673.33	959.62
673.47	1053.24
673.61	1132.82
673.75	978.34
673.89	1006.43
674.03	1036.86
674.17	1050.90
674.31	1074.31
674.45	1032.18
674.59	1041.54
674.73	990.05
674.87	992.39
675.01	1004.09
675.15	978.34
675.29	1039.20
675.43	978.34
675.56	976.00
675.70	990.05
675.84	889.40
675.98	957.28
676.12	943.24
676.26	1029.84
676.40	950.26
676.54	1062.60
676.68	868.34
676.82	1064.94
676.96	990.05
677.10	919.83
677.23	961.96
677.37	961.96
677.51	976.00
677.65	980.68
677.79	947.92
677.93	882.38
678.07	922.17
678.21	898.77
678.34	901.11
678.48	823.87
678.62	990.05
678.76	837.91
678.90	938.55
679.04	917.49
679.18	931.53
679.31	910.47
679.45	901.11
679.59	880.04
679.73	992.39
679.87	840.25
680.00	973.66
680.14	978.34
680.28	940.90
680.42	917.49
680.56	891.74
680.70	819.19
680.83	887.06
680.97	837.91
681.11	866.00
681.25	851.96
681.39	889.40
681.52	905.79
681.66	866.00
681.80	887.06
681.94	896.43
682.07	931.53
682.21	894.08
682.35	795.78
682.49	788.76
682.62	880.04
682.76	835.57
682.90	891.74
683.04	882.38
683.17	887.06
683.31	863.66
683.45	842.59
683.59	837.91
683.72	863.66
683.86	903.45
684.00	748.97
684.13	858.98
684.27	854.30
684.41	840.25
684.55	807.48
684.68	905.79
684.82	767.70
684.96	793.44
685.09	842.59
685.23	821.53
685.37	821.53
685.50	791.10
685.64	755.99
685.78	746.63
685.91	723.23
686.05	770.04
686.19	739.61
686.32	587.47
686.46	554.71
686.60	512.58
686.73	486.83
686.87	554.71
687.01	587.47
687.14	543.00
687.28	545.34
687.42	608.54
687.55	484.49
687.69	720.88
687.82	585.13
687.96	636.63
688.10	648.33
688.23	667.05
688.37	627.26
688.50	573.43
688.64	566.41
688.78	578.11
688.91	568.75
689.05	519.60
689.18	564.07
689.32	599.18
689.46	624.92
689.59	587.47
689.73	631.94
689.86	641.31
690.00	660.03
690.13	620.24
690.27	540.66
690.41	636.63
690.54	613.22
690.68	622.58
690.81	636.63
690.95	667.05
691.08	660.03
691.22	697.48
691.35	641.31
691.49	758.33
691.62	678.76
691.76	603.86
691.89	601.52
692.03	603.86
692.16	550.03
692.30	641.31
692.43	620.24
692.57	669.39
692.70	571.09
692.84	531.30
692.97	617.90
693.11	496.19
693.24	564.07
693.38	662.37
693.51	540.66
693.65	547.69
693.78	603.86
693.92	533.64
694.05	575.77
694.19	596.84
694.32	592.16
694.45	540.66
694.59	564.07
694.72	531.30
694.86	585.13
694.99	606.20
695.13	503.22
695.26	575.77
695.39	613.22
695.53	538.32
695.66	552.37
695.80	543.00
695.93	587.47
696.07	613.22
696.20	594.50
696.33	636.63
696.47	629.60
696.60	603.86
696.73	641.31
696.87	568.75
697.00	589.82
697.14	617.90
697.27	645.99
697.40	627.26
697.54	620.24
697.67	575.77
697.80	517.26
697.94	505.56
698.07	514.92
698.21	571.09
698.34	580.45
698.47	510.24
698.61	528.96
698.74	580.45
698.87	545.34
699.01	531.30
699.14	493.85
699.27	543.00
699.40	615.56
699.54	552.37
699.67	559.39
699.80	428.32
699.94	500.87
700.07	484.49
700.20	456.40
700.34	477.47
700.47	456.40
700.60	535.98
700.73	589.82
700.87	566.41
701.00	421.30
701.13	461.09
701.26	517.26
701.40	514.92
701.53	521.94
701.66	482.15
701.79	564.07
701.93	484.49
702.06	540.66
702.19	482.15
702.32	493.85
702.46	500.87
702.59	447.04
702.72	507.90
702.85	521.94
702.99	545.34
703.12	552.37
703.25	388.53
703.38	531.30
703.51	624.92
703.65	484.49
703.78	484.49
703.91	437.68
704.04	468.11
704.17	444.70
704.31	500.87
704.44	500.87
704.57	475.13
704.70	528.96
704.83	547.69
704.96	435.34
705.10	552.37
705.23	428.32
>>>>>End Processed Spectral Data<<<<<
