SpectraSuite Data File
++++++++++++++++++++++++++++++++++++
Date: Fri Oct 04 11:47:13 GMT-05:00 2013
User: price-jones
Dark Spectrum Present: No
Reference Spectrum Present: No
Number of Sampled Component Spectra: 1
Spectrometers: USB2+H05261
Integration Time (usec): 100000 (USB2+H05261)
Spectra Averaged: 1 (USB2+H05261)
Boxcar Smoothing: 0 (USB2+H05261)
Correct for Electrical Dark: No (USB2+H05261)
Strobe/Lamp Enabled: No (USB2+H05261)
Correct for Detector Non-linearity: No (USB2+H05261)
Correct for Stray Light: No (USB2+H05261)
Number of Pixels in Processed Spectrum: 2048
>>>>>Begin Processed Spectral Data<<<<<
365.73	72.56
365.92	72.56
366.12	72.56
366.32	0.00
366.52	0.00
366.72	2.34
366.91	0.00
367.11	0.00
367.31	0.00
367.51	0.00
367.70	0.00
367.90	0.00
368.10	0.00
368.30	0.00
368.49	0.00
368.69	0.00
368.89	0.00
369.09	0.00
369.28	0.00
369.48	0.00
369.68	0.00
369.87	0.00
370.07	0.00
370.27	0.00
370.47	0.00
370.66	46.81
370.86	53.83
371.06	91.28
371.25	58.51
371.45	77.24
371.65	58.51
371.84	0.00
372.04	28.09
372.24	72.56
372.44	128.73
372.63	60.85
372.83	145.11
373.03	84.26
373.22	121.71
373.42	126.39
373.62	58.51
373.81	124.05
374.01	198.95
374.21	154.48
374.40	86.60
374.60	159.16
374.79	98.30
374.99	180.22
375.19	67.88
375.38	28.09
375.58	114.69
375.78	77.24
375.97	18.72
376.17	168.52
376.37	79.58
376.56	184.90
376.76	95.96
376.95	93.62
377.15	142.77
377.35	149.79
377.54	135.75
377.74	65.54
377.93	51.49
378.13	142.77
378.33	58.51
378.52	37.45
378.72	95.96
378.91	93.62
379.11	107.66
379.31	60.85
379.50	95.96
379.70	77.24
379.89	77.24
380.09	56.17
380.28	86.60
380.48	98.30
380.68	28.09
380.87	84.26
381.07	117.03
381.26	91.28
381.46	112.35
381.65	51.49
381.85	65.54
382.04	49.15
382.24	102.98
382.43	23.41
382.63	126.39
382.83	25.75
383.02	124.05
383.22	135.75
383.41	102.98
383.61	135.75
383.80	112.35
384.00	60.85
384.19	77.24
384.39	74.90
384.58	107.66
384.78	124.05
384.97	147.45
385.17	121.71
385.36	79.58
385.56	133.41
385.75	60.85
385.95	74.90
386.14	51.49
386.34	74.90
386.53	70.22
386.72	70.22
386.92	112.35
387.11	159.16
387.31	121.71
387.50	98.30
387.70	79.58
387.89	44.47
388.09	138.09
388.28	107.66
388.48	121.71
388.67	140.43
388.86	58.51
389.06	25.75
389.25	140.43
389.45	100.64
389.64	65.54
389.84	131.07
390.03	112.35
390.22	56.17
390.42	88.94
390.61	67.88
390.81	49.15
391.00	98.30
391.19	74.90
391.39	175.54
391.58	110.01
391.78	70.22
391.97	67.88
392.16	63.19
392.36	147.45
392.55	196.60
392.75	112.35
392.94	46.81
393.13	105.32
393.33	0.00
393.52	86.60
393.71	173.20
393.91	91.28
394.10	77.24
394.29	105.32
394.49	140.43
394.68	182.56
394.88	159.16
395.07	187.24
395.26	145.11
395.46	53.83
395.65	145.11
395.84	105.32
396.04	198.95
396.23	79.58
396.42	149.79
396.62	102.98
396.81	114.69
397.00	102.98
397.19	110.01
397.39	65.54
397.58	124.05
397.77	117.03
397.97	44.47
398.16	58.51
398.35	110.01
398.55	91.28
398.74	177.88
398.93	131.07
399.12	35.11
399.32	107.66
399.51	114.69
399.70	93.62
399.90	112.35
400.09	88.94
400.28	159.16
400.47	110.01
400.67	63.19
400.86	60.85
401.05	131.07
401.24	215.33
401.44	128.73
401.63	107.66
401.82	67.88
402.01	124.05
402.21	163.84
402.40	117.03
402.59	91.28
402.78	161.50
402.97	72.56
403.17	105.32
403.36	126.39
403.55	51.49
403.74	161.50
403.93	63.19
404.13	182.56
404.32	145.11
404.51	149.79
404.70	58.51
404.89	86.60
405.09	98.30
405.28	121.71
405.47	25.75
405.66	79.58
405.85	131.07
406.05	95.96
406.24	105.32
406.43	112.35
406.62	138.09
406.81	180.22
407.00	110.01
407.20	56.17
407.39	117.03
407.58	140.43
407.77	70.22
407.96	98.30
408.15	98.30
408.34	121.71
408.54	154.48
408.73	72.56
408.92	121.71
409.11	67.88
409.30	126.39
409.49	175.54
409.68	126.39
409.87	156.82
410.07	74.90
410.26	51.49
410.45	67.88
410.64	91.28
410.83	126.39
411.02	152.13
411.21	91.28
411.40	142.77
411.59	112.35
411.78	77.24
411.98	98.30
412.17	102.98
412.36	67.88
412.55	91.28
412.74	72.56
412.93	119.37
413.12	112.35
413.31	117.03
413.50	121.71
413.69	128.73
413.88	177.88
414.07	63.19
414.26	105.32
414.45	95.96
414.64	88.94
414.83	154.48
415.02	105.32
415.22	175.54
415.41	147.45
415.60	95.96
415.79	131.07
415.98	180.22
416.17	145.11
416.36	135.75
416.55	67.88
416.74	105.32
416.93	119.37
417.12	81.92
417.31	72.56
417.50	142.77
417.69	161.50
417.88	128.73
418.07	46.81
418.26	126.39
418.45	156.82
418.64	159.16
418.83	168.52
419.02	194.26
419.21	177.88
419.39	140.43
419.58	49.15
419.77	102.98
419.96	210.65
420.15	220.01
420.34	56.17
420.53	49.15
420.72	170.86
420.91	189.58
421.10	77.24
421.29	149.79
421.48	189.58
421.67	114.69
421.86	156.82
422.05	112.35
422.24	74.90
422.43	140.43
422.61	86.60
422.80	168.52
422.99	168.52
423.18	128.73
423.37	119.37
423.56	131.07
423.75	95.96
423.94	121.71
424.13	102.98
424.32	88.94
424.50	100.64
424.69	159.16
424.88	180.22
425.07	58.51
425.26	147.45
425.45	217.67
425.64	140.43
425.83	135.75
426.01	196.60
426.20	133.41
426.39	131.07
426.58	102.98
426.77	86.60
426.96	105.32
427.15	100.64
427.33	88.94
427.52	154.48
427.71	112.35
427.90	77.24
428.09	18.72
428.28	53.83
428.46	74.90
428.65	131.07
428.84	135.75
429.03	140.43
429.22	156.82
429.40	124.05
429.59	65.54
429.78	159.16
429.97	145.11
430.16	124.05
430.34	177.88
430.53	124.05
430.72	145.11
430.91	145.11
431.10	163.84
431.28	93.62
431.47	93.62
431.66	44.47
431.85	126.39
432.03	114.69
432.22	196.60
432.41	180.22
432.60	161.50
432.79	224.69
432.97	152.13
433.16	220.01
433.35	121.71
433.54	184.90
433.72	56.17
433.91	128.73
434.10	128.73
434.28	222.35
434.47	149.79
434.66	145.11
434.85	91.28
435.03	145.11
435.22	173.20
435.41	198.95
435.59	177.88
435.78	102.98
435.97	128.73
436.16	140.43
436.34	177.88
436.53	198.95
436.72	121.71
436.90	149.79
437.09	112.35
437.28	126.39
437.46	56.17
437.65	177.88
437.84	152.13
438.02	107.66
438.21	133.41
438.40	95.96
438.58	117.03
438.77	121.71
438.96	152.13
439.14	105.32
439.33	119.37
439.52	88.94
439.70	147.45
439.89	152.13
440.08	114.69
440.26	156.82
440.45	140.43
440.63	88.94
440.82	105.32
441.01	168.52
441.19	170.86
441.38	105.32
441.57	124.05
441.75	145.11
441.94	149.79
442.12	133.41
442.31	105.32
442.50	77.24
442.68	100.64
442.87	138.09
443.05	84.26
443.24	81.92
443.43	173.20
443.61	121.71
443.80	126.39
443.98	128.73
444.17	138.09
444.35	166.18
444.54	149.79
444.73	152.13
444.91	177.88
445.10	102.98
445.28	95.96
445.47	131.07
445.65	102.98
445.84	166.18
446.02	198.95
446.21	112.35
446.39	191.92
446.58	173.20
446.77	79.58
446.95	170.86
447.14	168.52
447.32	126.39
447.51	128.73
447.69	56.17
447.88	112.35
448.06	180.22
448.25	210.65
448.43	210.65
448.62	177.88
448.80	121.71
448.99	105.32
449.17	147.45
449.36	159.16
449.54	147.45
449.73	215.33
449.91	124.05
450.10	152.13
450.28	152.13
450.46	138.09
450.65	196.60
450.83	149.79
451.02	119.37
451.20	149.79
451.39	159.16
451.57	163.84
451.76	138.09
451.94	117.03
452.13	203.63
452.31	152.13
452.49	138.09
452.68	117.03
452.86	191.92
453.05	168.52
453.23	212.99
453.42	147.45
453.60	121.71
453.78	173.20
453.97	166.18
454.15	102.98
454.34	114.69
454.52	135.75
454.70	170.86
454.89	145.11
455.07	145.11
455.26	149.79
455.44	189.58
455.62	145.11
455.81	39.79
455.99	140.43
456.17	156.82
456.36	201.29
456.54	67.88
456.73	147.45
456.91	149.79
457.09	86.60
457.28	184.90
457.46	154.48
457.64	131.07
457.83	100.64
458.01	168.52
458.19	161.50
458.38	149.79
458.56	147.45
458.74	168.52
458.93	191.92
459.11	119.37
459.29	124.05
459.48	119.37
459.66	212.99
459.84	142.77
460.03	173.20
460.21	255.12
460.39	117.03
460.57	168.52
460.76	159.16
460.94	117.03
461.12	138.09
461.31	187.24
461.49	110.01
461.67	152.13
461.85	212.99
462.04	163.84
462.22	594.50
462.40	189.58
462.59	163.84
462.77	105.32
462.95	156.82
463.13	88.94
463.32	173.20
463.50	128.73
463.68	147.45
463.86	138.09
464.05	175.54
464.23	105.32
464.41	161.50
464.59	70.22
464.78	98.30
464.96	105.32
465.14	107.66
465.32	154.48
465.50	189.58
465.69	81.92
465.87	60.85
466.05	114.69
466.23	133.41
466.41	166.18
466.60	147.45
466.78	121.71
466.96	121.71
467.14	212.99
467.32	159.16
467.51	152.13
467.69	198.95
467.87	149.79
468.05	53.83
468.23	163.84
468.41	138.09
468.60	105.32
468.78	117.03
468.96	215.33
469.14	180.22
469.32	84.26
469.50	133.41
469.69	100.64
469.87	110.01
470.05	86.60
470.23	117.03
470.41	124.05
470.59	156.82
470.77	145.11
470.95	156.82
471.14	126.39
471.32	173.20
471.50	163.84
471.68	159.16
471.86	170.86
472.04	156.82
472.22	138.09
472.40	156.82
472.58	133.41
472.77	107.66
472.95	163.84
473.13	126.39
473.31	147.45
473.49	182.56
473.67	72.56
473.85	133.41
474.03	159.16
474.21	117.03
474.39	173.20
474.57	203.63
474.75	184.90
474.93	86.60
475.12	180.22
475.30	159.16
475.48	140.43
475.66	145.11
475.84	105.32
476.02	152.13
476.20	166.18
476.38	180.22
476.56	229.37
476.74	124.05
476.92	184.90
477.10	138.09
477.28	149.79
477.46	168.52
477.64	142.77
477.82	138.09
478.00	145.11
478.18	135.75
478.36	102.98
478.54	154.48
478.72	138.09
478.90	184.90
479.08	124.05
479.26	102.98
479.44	161.50
479.62	100.64
479.80	121.71
479.98	100.64
480.16	119.37
480.34	161.50
480.52	163.84
480.70	156.82
480.88	184.90
481.06	131.07
481.24	91.28
481.41	201.29
481.59	184.90
481.77	149.79
481.95	124.05
482.13	241.08
482.31	173.20
482.49	161.50
482.67	163.84
482.85	184.90
483.03	156.82
483.21	128.73
483.39	182.56
483.57	110.01
483.74	180.22
483.92	166.18
484.10	131.07
484.28	184.90
484.46	147.45
484.64	128.73
484.82	184.90
485.00	184.90
485.18	74.90
485.35	126.39
485.53	189.58
485.71	138.09
485.89	126.39
486.07	88.94
486.25	124.05
486.43	145.11
486.61	128.73
486.78	152.13
486.96	145.11
487.14	161.50
487.32	168.52
487.50	152.13
487.68	191.92
487.85	145.11
488.03	170.86
488.21	102.98
488.39	105.32
488.57	128.73
488.75	177.88
488.92	449.38
489.10	152.13
489.28	205.97
489.46	189.58
489.64	236.39
489.81	154.48
489.99	217.67
490.17	142.77
490.35	248.10
490.53	222.35
490.70	198.95
490.88	154.48
491.06	110.01
491.24	271.50
491.41	184.90
491.59	189.58
491.77	182.56
491.95	184.90
492.13	255.12
492.30	194.26
492.48	180.22
492.66	212.99
492.84	154.48
493.01	168.52
493.19	126.39
493.37	236.39
493.54	170.86
493.72	142.77
493.90	126.39
494.08	126.39
494.25	208.31
494.43	201.29
494.61	194.26
494.79	46.81
494.96	110.01
495.14	196.60
495.32	189.58
495.49	142.77
495.67	184.90
495.85	222.35
496.02	124.05
496.20	215.33
496.38	166.18
496.55	236.39
496.73	187.24
496.91	215.33
497.09	135.75
497.26	201.29
497.44	194.26
497.62	283.20
497.79	201.29
497.97	117.03
498.14	168.52
498.32	175.54
498.50	184.90
498.67	166.18
498.85	194.26
499.03	163.84
499.20	236.39
499.38	161.50
499.56	173.20
499.73	166.18
499.91	198.95
500.08	236.39
500.26	243.42
500.44	259.80
500.61	142.77
500.79	149.79
500.97	227.03
501.14	205.97
501.32	222.35
501.49	231.71
501.67	194.26
501.84	252.78
502.02	161.50
502.20	201.29
502.37	173.20
502.55	215.33
502.72	170.86
502.90	201.29
503.07	231.71
503.25	262.14
503.43	191.92
503.60	245.76
503.78	220.01
503.95	128.73
504.13	128.73
504.30	201.29
504.48	156.82
504.65	285.55
504.83	140.43
505.01	126.39
505.18	154.48
505.36	220.01
505.53	133.41
505.71	187.24
505.88	217.67
506.06	177.88
506.23	149.79
506.41	177.88
506.58	191.92
506.76	229.37
506.93	140.43
507.11	124.05
507.28	210.65
507.46	222.35
507.63	201.29
507.81	159.16
507.98	250.44
508.16	182.56
508.33	180.22
508.50	191.92
508.68	238.73
508.85	189.58
509.03	198.95
509.20	159.16
509.38	191.92
509.55	229.37
509.73	224.69
509.90	255.12
510.08	201.29
510.25	184.90
510.42	229.37
510.60	177.88
510.77	210.65
510.95	215.33
511.12	187.24
511.30	276.18
511.47	234.05
511.64	175.54
511.82	231.71
511.99	205.97
512.17	180.22
512.34	133.41
512.51	142.77
512.69	227.03
512.86	248.10
513.04	140.43
513.21	198.95
513.38	231.71
513.56	187.24
513.73	203.63
513.90	168.52
514.08	166.18
514.25	194.26
514.43	194.26
514.60	138.09
514.77	198.95
514.95	234.05
515.12	140.43
515.29	135.75
515.47	215.33
515.64	170.86
515.81	210.65
515.99	180.22
516.16	133.41
516.33	287.89
516.51	194.26
516.68	175.54
516.85	140.43
517.03	117.03
517.20	208.31
517.37	140.43
517.54	161.50
517.72	117.03
517.89	140.43
518.06	198.95
518.24	252.78
518.41	273.84
518.58	180.22
518.75	170.86
518.93	105.32
519.10	191.92
519.27	224.69
519.45	220.01
519.62	266.82
519.79	234.05
519.96	180.22
520.14	220.01
520.31	217.67
520.48	196.60
520.65	231.71
520.83	227.03
521.00	140.43
521.17	177.88
521.34	194.26
521.52	152.13
521.69	224.69
521.86	173.20
522.03	348.74
522.20	126.39
522.38	196.60
522.55	147.45
522.72	168.52
522.89	189.58
523.07	269.16
523.24	231.71
523.41	149.79
523.58	168.52
523.75	210.65
523.92	217.67
524.10	238.73
524.27	217.67
524.44	180.22
524.61	205.97
524.78	163.84
524.96	175.54
525.13	259.80
525.30	243.42
525.47	252.78
525.64	208.31
525.81	210.65
525.98	248.10
526.16	196.60
526.33	84.26
526.50	163.84
526.67	121.71
526.84	107.66
527.01	168.52
527.18	215.33
527.36	266.82
527.53	131.07
527.70	156.82
527.87	271.50
528.04	210.65
528.21	241.08
528.38	241.08
528.55	191.92
528.72	231.71
528.89	170.86
529.07	234.05
529.24	163.84
529.41	248.10
529.58	229.37
529.75	177.88
529.92	189.58
530.09	145.11
530.26	215.33
530.43	196.60
530.60	140.43
530.77	238.73
530.94	224.69
531.11	210.65
531.28	131.07
531.46	184.90
531.63	205.97
531.80	173.20
531.97	187.24
532.14	189.58
532.31	248.10
532.48	220.01
532.65	222.35
532.82	255.12
532.99	278.52
533.16	308.95
533.33	234.05
533.50	203.63
533.67	250.44
533.84	315.97
534.01	297.25
534.18	243.42
534.35	224.69
534.52	196.60
534.69	304.27
534.86	175.54
535.03	224.69
535.20	212.99
535.37	201.29
535.54	208.31
535.71	238.73
535.88	273.84
536.05	194.26
536.22	238.73
536.38	259.80
536.55	170.86
536.72	231.71
536.89	224.69
537.06	147.45
537.23	177.88
537.40	236.39
537.57	271.50
537.74	304.27
537.91	266.82
538.08	133.41
538.25	255.12
538.42	205.97
538.59	184.90
538.75	163.84
538.92	194.26
539.09	224.69
539.26	208.31
539.43	355.76
539.60	610.88
539.77	887.06
539.94	779.40
540.11	561.73
540.28	496.19
540.44	236.39
540.61	287.89
540.78	212.99
540.95	159.16
541.12	227.03
541.29	177.88
541.46	212.99
541.62	252.78
541.79	128.73
541.96	205.97
542.13	205.97
542.30	110.01
542.47	250.44
542.63	210.65
542.80	238.73
542.97	217.67
543.14	229.37
543.31	238.73
543.48	175.54
543.64	241.08
543.81	234.05
543.98	173.20
544.15	208.31
544.32	217.67
544.48	196.60
544.65	196.60
544.82	159.16
544.99	201.29
545.16	191.92
545.32	220.01
545.49	205.97
545.66	182.56
545.83	198.95
546.00	159.16
546.16	234.05
546.33	238.73
546.50	215.33
546.67	166.18
546.83	276.18
547.00	187.24
547.17	163.84
547.34	248.10
547.50	173.20
547.67	217.67
547.84	182.56
548.00	217.67
548.17	191.92
548.34	194.26
548.51	341.72
548.67	168.52
548.84	142.77
549.01	184.90
549.18	198.95
549.34	212.99
549.51	243.42
549.68	264.48
549.84	276.18
550.01	217.67
550.18	283.20
550.34	257.46
550.51	243.42
550.68	266.82
550.84	149.79
551.01	306.61
551.18	220.01
551.34	243.42
551.51	262.14
551.68	191.92
551.84	273.84
552.01	269.16
552.18	245.76
552.34	152.13
552.51	224.69
552.68	257.46
552.84	245.76
553.01	255.12
553.18	191.92
553.34	177.88
553.51	224.69
553.67	215.33
553.84	205.97
554.01	259.80
554.17	196.60
554.34	264.48
554.51	173.20
554.67	203.63
554.84	227.03
555.00	182.56
555.17	224.69
555.33	212.99
555.50	245.76
555.67	128.73
555.83	131.07
556.00	187.24
556.16	334.70
556.33	304.27
556.50	238.73
556.66	212.99
556.83	142.77
556.99	215.33
557.16	238.73
557.32	91.28
557.49	149.79
557.65	257.46
557.82	159.16
557.98	231.71
558.15	191.92
558.32	224.69
558.48	184.90
558.65	154.48
558.81	189.58
558.98	175.54
559.14	229.37
559.31	205.97
559.47	180.22
559.64	210.65
559.80	205.97
559.97	191.92
560.13	175.54
560.30	208.31
560.46	215.33
560.63	196.60
560.79	203.63
560.96	184.90
561.12	175.54
561.29	280.86
561.45	170.86
561.61	205.97
561.78	255.12
561.94	224.69
562.11	191.92
562.27	234.05
562.44	163.84
562.60	215.33
562.77	191.92
562.93	294.91
563.10	229.37
563.26	234.05
563.42	236.39
563.59	177.88
563.75	175.54
563.92	248.10
564.08	222.35
564.24	201.29
564.41	238.73
564.57	177.88
564.74	245.76
564.90	227.03
565.07	203.63
565.23	210.65
565.39	269.16
565.56	205.97
565.72	215.33
565.88	156.82
566.05	212.99
566.21	159.16
566.38	201.29
566.54	215.33
566.70	210.65
566.87	131.07
567.03	170.86
567.19	238.73
567.36	177.88
567.52	163.84
567.68	201.29
567.85	208.31
568.01	252.78
568.17	147.45
568.34	161.50
568.50	210.65
568.66	170.86
568.83	266.82
568.99	191.92
569.15	229.37
569.32	208.31
569.48	189.58
569.64	215.33
569.81	205.97
569.97	231.71
570.13	234.05
570.30	196.60
570.46	163.84
570.62	187.24
570.78	131.07
570.95	159.16
571.11	259.80
571.27	224.69
571.43	217.67
571.60	248.10
571.76	205.97
571.92	177.88
572.09	222.35
572.25	290.23
572.41	114.69
572.57	203.63
572.74	210.65
572.90	205.97
573.06	231.71
573.22	229.37
573.38	187.24
573.55	117.03
573.71	163.84
573.87	215.33
574.03	222.35
574.20	182.56
574.36	252.78
574.52	234.05
574.68	257.46
574.84	273.84
575.01	229.37
575.17	208.31
575.33	173.20
575.49	149.79
575.65	203.63
575.82	229.37
575.98	435.34
576.14	393.21
576.30	442.36
576.46	360.44
576.62	266.82
576.79	205.97
576.95	234.05
577.11	170.86
577.27	259.80
577.43	238.73
577.59	248.10
577.75	255.12
577.92	255.12
578.08	156.82
578.24	187.24
578.40	262.14
578.56	271.50
578.72	264.48
578.88	212.99
579.04	177.88
579.21	215.33
579.37	189.58
579.53	269.16
579.69	269.16
579.85	194.26
580.01	163.84
580.17	276.18
580.33	280.86
580.49	252.78
580.65	255.12
580.82	229.37
580.98	285.55
581.14	227.03
581.30	285.55
581.46	294.91
581.62	374.49
581.78	362.78
581.94	409.59
582.10	386.19
582.26	402.57
582.42	243.42
582.58	315.97
582.74	330.02
582.90	346.40
583.06	252.78
583.22	278.52
583.38	273.84
583.54	334.70
583.70	444.70
583.86	393.21
584.02	444.70
584.18	620.24
584.34	697.48
584.50	1717.95
584.66	12215.26
584.82	31536.38
584.98	42714.78
585.14	37628.79
585.30	23058.96
585.46	13970.66
585.62	8674.03
585.78	4014.02
585.94	1673.48
586.10	840.25
586.26	564.07
586.42	526.62
586.58	414.27
586.74	433.00
586.90	351.08
587.06	362.78
587.22	322.99
587.38	344.06
587.54	678.76
587.70	1867.75
587.86	2813.32
588.02	3164.40
588.18	2204.78
588.34	1444.11
588.49	926.85
588.65	645.99
588.81	430.66
588.97	255.12
589.13	224.69
589.29	245.76
589.45	184.90
589.61	299.59
589.77	285.55
589.93	231.71
590.08	234.05
590.24	236.39
590.40	355.76
590.56	313.63
590.72	276.18
590.88	217.67
591.04	332.36
591.20	220.01
591.35	241.08
591.51	217.67
591.67	175.54
591.83	177.88
591.99	184.90
592.15	276.18
592.31	259.80
592.46	234.05
592.62	220.01
592.78	264.48
592.94	227.03
593.10	173.20
593.26	217.67
593.41	264.48
593.57	308.95
593.73	304.27
593.89	1537.73
594.05	3805.71
594.20	5210.03
594.36	5062.58
594.52	3269.73
594.68	2052.65
594.84	1390.28
594.99	917.49
595.15	461.09
595.31	334.70
595.47	229.37
595.62	311.29
595.78	182.56
595.94	220.01
596.10	278.52
596.25	191.92
596.41	196.60
596.57	142.77
596.73	203.63
596.88	374.49
597.04	795.78
597.20	1226.44
597.36	1273.25
597.51	1055.58
597.67	725.57
597.83	517.26
597.99	372.15
598.14	273.84
598.30	248.10
598.46	238.73
598.61	292.57
598.77	255.12
598.93	222.35
599.09	252.78
599.24	201.29
599.40	243.42
599.56	182.56
599.71	117.03
599.87	168.52
600.03	191.92
600.18	184.90
600.34	191.92
600.50	241.08
600.65	212.99
600.81	191.92
600.97	163.84
601.12	166.18
601.28	238.73
601.44	156.82
601.59	114.69
601.75	269.16
601.91	198.95
602.06	210.65
602.22	334.70
602.37	503.22
602.53	992.39
602.69	1507.30
602.84	1455.81
603.00	1006.43
603.16	849.61
603.31	550.03
603.47	395.55
603.62	175.54
603.78	215.33
603.94	198.95
604.09	189.58
604.25	175.54
604.40	271.50
604.56	264.48
604.71	156.82
604.87	166.18
605.03	229.37
605.18	276.18
605.34	220.01
605.49	163.84
605.65	250.44
605.80	243.42
605.96	238.73
606.12	194.26
606.27	203.63
606.43	301.93
606.58	231.71
606.74	517.26
606.89	1830.30
607.05	3529.53
607.20	4610.86
607.36	3775.28
607.51	2630.76
607.67	1795.19
607.82	1163.25
607.98	727.91
608.13	339.38
608.29	322.99
608.44	330.02
608.60	313.63
608.75	339.38
608.91	695.14
609.06	2818.00
609.22	6090.07
609.37	7889.95
609.53	6654.14
609.68	4760.65
609.84	3096.53
609.99	1930.94
610.15	1200.69
610.30	566.41
610.46	374.49
610.61	264.48
610.76	215.33
610.92	271.50
611.07	236.39
611.23	224.69
611.38	337.04
611.54	177.88
611.69	234.05
611.84	231.71
612.00	189.58
612.15	238.73
612.31	271.50
612.46	418.96
612.62	402.57
612.77	428.32
612.92	482.15
613.08	397.89
613.23	292.57
613.39	339.38
613.54	573.43
613.69	2740.77
613.85	7630.15
614.00	11815.02
614.15	12545.27
614.31	8702.11
614.46	5839.64
614.62	3880.61
614.77	2223.51
614.92	1149.20
615.08	613.22
615.23	383.85
615.38	304.27
615.54	290.23
615.69	540.66
615.84	1547.09
616.00	2705.66
616.15	3346.97
616.30	2626.08
616.46	1886.47
616.61	1217.08
616.76	877.70
616.92	531.30
617.07	241.08
617.22	222.35
617.37	208.31
617.53	170.86
617.68	231.71
617.83	224.69
617.99	208.31
618.14	304.27
618.29	196.60
618.45	234.05
618.60	133.41
618.75	252.78
618.90	198.95
619.06	252.78
619.21	285.55
619.36	259.80
619.51	142.77
619.67	168.52
619.82	170.86
619.97	194.26
620.12	210.65
620.28	152.13
620.43	217.67
620.58	215.33
620.73	182.56
620.89	227.03
621.04	315.97
621.19	882.38
621.34	1558.80
621.49	2010.52
621.65	1795.19
621.80	1322.40
621.95	781.74
622.10	580.45
622.25	376.83
622.41	271.50
622.56	257.46
622.71	161.50
622.86	189.58
623.01	248.10
623.16	210.65
623.32	217.67
623.47	222.35
623.62	152.13
623.77	142.77
623.92	191.92
624.07	191.92
624.23	229.37
624.38	208.31
624.53	170.86
624.68	224.69
624.83	252.78
624.98	205.97
625.13	170.86
625.29	194.26
625.44	203.63
625.59	252.78
625.74	182.56
625.89	299.59
626.04	1259.21
626.19	3761.24
626.34	6052.63
626.49	6366.26
626.65	4784.06
626.80	3243.98
626.95	2176.70
627.10	1439.43
627.25	688.12
627.40	369.80
627.55	294.91
627.70	177.88
627.85	243.42
628.00	285.55
628.15	135.75
628.30	187.24
628.45	126.39
628.60	138.09
628.76	147.45
628.91	121.71
629.06	215.33
629.21	128.73
629.36	248.10
629.51	180.22
629.66	245.76
629.81	271.50
629.96	699.82
630.11	1327.08
630.26	1734.34
630.41	1626.67
630.56	1128.14
630.71	833.23
630.86	547.69
631.01	388.53
631.16	276.18
631.31	217.67
631.46	224.69
631.61	154.48
631.76	194.26
631.91	248.10
632.06	184.90
632.21	217.67
632.36	196.60
632.51	222.35
632.66	304.27
632.81	695.14
632.96	2176.70
633.10	3707.41
633.25	4491.49
633.40	3566.98
633.55	2605.02
633.70	1760.08
633.85	1156.22
634.00	627.26
634.15	351.08
634.30	318.31
634.45	208.31
634.60	175.54
634.75	215.33
634.90	194.26
635.05	194.26
635.19	215.33
635.34	147.45
635.49	271.50
635.64	217.67
635.79	245.76
635.94	191.92
636.09	217.67
636.24	189.58
636.39	229.37
636.53	273.84
636.68	177.88
636.83	243.42
636.98	304.27
637.13	196.60
637.28	217.67
637.43	294.91
637.57	454.06
637.72	1905.20
637.87	4933.85
638.02	7499.08
638.17	7990.59
638.32	6061.99
638.46	4175.52
638.61	2841.41
638.76	1769.44
638.91	919.83
639.06	500.87
639.20	418.96
639.35	360.44
639.50	561.73
639.65	2771.19
639.80	7719.09
639.94	11543.52
640.09	12615.49
640.24	9462.79
640.39	6614.35
640.54	4348.72
640.68	2605.02
640.83	1284.95
640.98	634.29
641.13	447.04
641.27	322.99
641.42	278.52
641.57	236.39
641.72	271.50
641.86	283.20
642.01	227.03
642.16	224.69
642.31	168.52
642.45	243.42
642.60	142.77
642.75	138.09
642.90	241.08
643.04	212.99
643.19	86.60
643.34	163.84
643.48	140.43
643.63	205.97
643.78	205.97
643.93	180.22
644.07	177.88
644.22	173.20
644.37	182.56
644.51	163.84
644.66	231.71
644.81	182.56
644.95	161.50
645.10	128.73
645.25	161.50
645.39	187.24
645.54	138.09
645.69	198.95
645.83	93.62
645.98	114.69
646.13	138.09
646.27	201.29
646.42	177.88
646.57	196.60
646.71	145.11
646.86	220.01
647.00	100.64
647.15	161.50
647.30	145.11
647.44	147.45
647.59	138.09
647.74	121.71
647.88	236.39
648.03	191.92
648.17	217.67
648.32	212.99
648.47	205.97
648.61	152.13
648.76	187.24
648.90	187.24
649.05	196.60
649.20	205.97
649.34	161.50
649.49	126.39
649.63	182.56
649.78	222.35
649.92	231.71
650.07	1048.56
650.21	3400.80
650.36	5570.48
650.51	6759.47
650.65	5390.25
650.80	3808.05
650.94	2576.93
651.09	1703.91
651.23	877.70
651.38	505.56
651.52	339.38
651.67	217.67
651.81	201.29
651.96	248.10
652.10	231.71
652.25	166.18
652.39	215.33
652.54	198.95
652.68	411.93
652.83	1027.50
652.97	1881.79
653.12	2429.48
653.26	2005.84
653.41	1521.35
653.55	1090.69
653.70	690.46
653.84	470.45
653.99	292.57
654.13	220.01
654.27	201.29
654.42	212.99
654.56	220.01
654.71	203.63
654.85	110.01
655.00	95.96
655.14	191.92
655.29	126.39
655.43	107.66
655.57	131.07
655.72	203.63
655.86	140.43
656.01	234.05
656.15	173.20
656.30	175.54
656.44	180.22
656.58	86.60
656.73	203.63
656.87	142.77
657.01	212.99
657.16	222.35
657.30	138.09
657.45	252.78
657.59	234.05
657.73	44.47
657.88	79.58
658.02	189.58
658.16	198.95
658.31	140.43
658.45	168.52
658.60	161.50
658.74	187.24
658.88	138.09
659.03	222.35
659.17	205.97
659.31	512.58
659.46	1619.65
659.60	2637.78
659.74	3276.75
659.89	2885.88
660.03	2237.55
660.17	1441.77
660.32	987.71
660.46	465.77
660.60	376.83
660.74	341.72
660.89	126.39
661.03	215.33
661.17	154.48
661.32	184.90
661.46	163.84
661.60	182.56
661.74	229.37
661.89	222.35
662.03	131.07
662.17	184.90
662.31	72.56
662.46	128.73
662.60	98.30
662.74	131.07
662.88	187.24
663.03	91.28
663.17	133.41
663.31	212.99
663.45	212.99
663.60	131.07
663.74	102.98
663.88	95.96
664.02	220.01
664.17	147.45
664.31	168.52
664.45	152.13
664.59	145.11
664.73	128.73
664.88	173.20
665.02	105.32
665.16	58.51
665.30	189.58
665.44	182.56
665.59	121.71
665.73	117.03
665.87	154.48
666.01	191.92
666.15	159.16
666.29	168.52
666.44	234.05
666.58	337.04
666.72	208.31
666.86	142.77
667.00	173.20
667.14	236.39
667.28	1041.54
667.43	2974.82
667.57	4762.99
667.71	5666.44
667.85	4828.53
667.99	3456.97
668.13	2197.76
668.27	1373.89
668.41	786.42
668.56	484.49
668.70	367.46
668.84	266.82
668.98	215.33
669.12	161.50
669.26	189.58
669.40	243.42
669.54	170.86
669.68	220.01
669.82	135.75
669.96	95.96
670.10	173.20
670.25	145.11
670.39	131.07
670.53	131.07
670.67	210.65
670.81	149.79
670.95	210.65
671.09	386.19
671.23	1224.10
671.37	2476.29
671.51	3351.65
671.65	3620.81
671.79	2827.37
671.93	2019.88
672.07	1203.04
672.21	753.65
672.35	435.34
672.49	320.65
672.63	194.26
672.77	201.29
672.91	252.78
673.05	227.03
673.19	156.82
673.33	140.43
673.47	210.65
673.61	149.79
673.75	131.07
673.89	142.77
674.03	126.39
674.17	177.88
674.31	112.35
674.45	117.03
674.59	124.05
674.73	84.26
674.87	142.77
675.01	252.78
675.15	177.88
675.29	182.56
675.43	184.90
675.56	180.22
675.70	203.63
675.84	152.13
675.98	56.17
676.12	177.88
676.26	65.54
676.40	79.58
676.54	131.07
676.68	102.98
676.82	168.52
676.96	142.77
677.10	23.41
677.23	166.18
677.37	112.35
677.51	152.13
677.65	189.58
677.79	149.79
677.93	173.20
678.07	184.90
678.21	117.03
678.34	81.92
678.48	149.79
678.62	128.73
678.76	100.64
678.90	159.16
679.04	119.37
679.18	196.60
679.31	51.49
679.45	74.90
679.59	166.18
679.73	152.13
679.87	182.56
680.00	84.26
680.14	149.79
680.28	156.82
680.42	152.13
680.56	100.64
680.70	131.07
680.83	126.39
680.97	191.92
681.11	140.43
681.25	131.07
681.39	138.09
681.52	98.30
681.66	128.73
681.80	53.83
681.94	107.66
682.07	175.54
682.21	84.26
682.35	140.43
682.49	74.90
682.62	166.18
682.76	98.30
682.90	175.54
683.04	156.82
683.17	166.18
683.31	65.54
683.45	163.84
683.59	194.26
683.72	177.88
683.86	220.01
684.00	159.16
684.13	191.92
684.27	126.39
684.41	173.20
684.55	196.60
684.68	86.60
684.82	70.22
684.96	124.05
685.09	95.96
685.23	105.32
685.37	114.69
685.50	124.05
685.64	79.58
685.78	154.48
685.91	168.52
686.05	175.54
686.19	170.86
686.32	168.52
686.46	135.75
686.60	138.09
686.73	184.90
686.87	238.73
687.01	100.64
687.14	70.22
687.28	154.48
687.42	168.52
687.55	191.92
687.69	156.82
687.82	184.90
687.96	9.36
688.10	81.92
688.23	145.11
688.37	126.39
688.50	81.92
688.64	191.92
688.78	88.94
688.91	126.39
689.05	35.11
689.18	86.60
689.32	93.62
689.46	145.11
689.59	117.03
689.73	110.01
689.86	91.28
690.00	79.58
690.13	81.92
690.27	128.73
690.41	107.66
690.54	163.84
690.68	110.01
690.81	67.88
690.95	98.30
691.08	133.41
691.22	140.43
691.35	56.17
691.49	133.41
691.62	135.75
691.76	128.73
691.89	198.95
692.03	121.71
692.16	168.52
692.30	131.07
692.43	383.85
692.57	1256.87
692.70	2069.03
692.84	2511.39
692.97	2328.83
693.11	1736.68
693.24	1226.44
693.38	861.32
693.51	531.30
693.65	390.87
693.78	238.73
693.92	168.52
694.05	168.52
694.19	126.39
694.32	112.35
694.45	138.09
694.59	107.66
694.72	107.66
694.86	105.32
694.99	86.60
695.13	117.03
695.26	72.56
695.39	86.60
695.53	154.48
695.66	79.58
695.80	133.41
695.93	100.64
696.07	147.45
696.20	229.37
696.33	313.63
696.47	348.74
696.60	255.12
696.73	224.69
696.87	285.55
697.00	266.82
697.14	145.11
697.27	149.79
697.40	208.31
697.54	105.32
697.67	147.45
697.80	138.09
697.94	140.43
698.07	86.60
698.21	149.79
698.34	182.56
698.47	117.03
698.61	95.96
698.74	88.94
698.87	140.43
699.01	79.58
699.14	102.98
699.27	173.20
699.40	290.23
699.54	124.05
699.67	93.62
699.80	60.85
699.94	77.24
700.07	95.96
700.20	53.83
700.34	91.28
700.47	105.32
700.60	112.35
700.73	98.30
700.87	182.56
701.00	105.32
701.13	147.45
701.26	117.03
701.40	182.56
701.53	175.54
701.66	124.05
701.79	110.01
701.93	210.65
702.06	194.26
702.19	243.42
702.32	276.18
702.46	229.37
702.59	355.76
702.72	550.03
702.85	1600.93
702.99	3229.94
703.12	4587.45
703.25	4770.01
703.38	4098.28
703.51	3342.28
703.65	2504.37
703.78	1727.32
703.91	1174.95
704.04	702.16
704.17	447.04
704.31	278.52
704.44	238.73
704.57	248.10
704.70	212.99
704.83	203.63
704.96	93.62
705.10	81.92
705.23	142.77
>>>>>End Processed Spectral Data<<<<<
