SpectraSuite Data File
++++++++++++++++++++++++++++++++++++
Date: Fri Oct 04 11:48:24 GMT-05:00 2013
User: price-jones
Dark Spectrum Present: No
Reference Spectrum Present: No
Number of Sampled Component Spectra: 1
Spectrometers: USB2+H05261
Integration Time (usec): 100000 (USB2+H05261)
Spectra Averaged: 1 (USB2+H05261)
Boxcar Smoothing: 0 (USB2+H05261)
Correct for Electrical Dark: No (USB2+H05261)
Strobe/Lamp Enabled: No (USB2+H05261)
Correct for Detector Non-linearity: No (USB2+H05261)
Correct for Stray Light: No (USB2+H05261)
Number of Pixels in Processed Spectrum: 2048
>>>>>Begin Processed Spectral Data<<<<<
365.73	18.72
365.92	18.72
366.12	18.72
366.32	0.00
366.52	0.00
366.72	0.00
366.91	0.00
367.11	0.00
367.31	0.00
367.51	0.00
367.70	0.00
367.90	0.00
368.10	0.00
368.30	0.00
368.49	0.00
368.69	0.00
368.89	0.00
369.09	0.00
369.28	0.00
369.48	0.00
369.68	0.00
369.87	14.04
370.07	0.00
370.27	100.64
370.47	95.96
370.66	388.53
370.86	472.79
371.06	510.24
371.25	498.53
371.45	507.90
371.65	500.87
371.84	496.19
372.04	440.02
372.24	550.03
372.44	547.69
372.63	592.16
372.83	615.56
373.03	704.50
373.22	690.46
373.42	578.11
373.62	667.05
373.81	699.82
374.01	676.41
374.21	681.10
374.40	697.48
374.60	744.29
374.79	720.88
374.99	704.50
375.19	770.04
375.38	704.50
375.58	795.78
375.78	709.18
375.97	781.74
376.17	835.57
376.37	781.74
376.56	741.95
376.76	812.17
376.95	763.01
377.15	763.01
377.35	793.44
377.54	812.17
377.74	863.66
377.93	835.57
378.13	795.78
378.33	842.59
378.52	805.14
378.72	791.10
378.91	889.40
379.11	870.68
379.31	823.87
379.50	763.01
379.70	912.81
379.89	922.17
380.09	828.55
380.28	816.85
380.48	877.70
380.68	887.06
380.87	884.72
381.07	945.58
381.26	912.81
381.46	896.43
381.65	901.11
381.85	964.30
382.04	980.68
382.24	1006.43
382.43	931.53
382.63	983.02
382.83	1034.52
383.02	1118.78
383.22	1071.97
383.41	1020.47
383.61	1046.22
383.80	992.39
384.00	1053.24
384.19	1074.31
384.39	1060.26
384.58	1083.67
384.78	1078.99
384.97	1125.80
385.17	1053.24
385.36	1142.18
385.56	1074.31
385.75	1060.26
385.95	1132.82
386.14	1081.33
386.34	1095.37
386.53	1142.18
386.72	1130.48
386.92	1114.10
387.11	1203.04
387.31	1186.65
387.50	1235.80
387.70	1102.39
387.89	1118.78
388.09	1210.06
388.28	1331.76
388.48	1277.93
388.67	1294.32
388.86	1207.72
389.06	1348.15
389.25	1329.42
389.45	1235.80
389.64	1247.51
389.84	1446.45
390.03	1308.36
390.22	1409.00
390.42	1378.58
390.61	1362.19
390.81	1355.17
391.00	1425.39
391.19	1376.24
391.39	1556.46
391.58	1427.73
391.78	1324.74
391.97	1472.20
392.16	1401.98
392.36	1589.22
392.55	1514.33
392.75	1519.01
392.94	1504.96
393.13	1530.71
393.33	1568.16
393.52	1565.82
393.71	1453.47
393.91	1582.20
394.10	1558.80
394.29	1596.25
394.49	1645.40
394.68	1678.16
394.88	1633.69
395.07	1626.67
395.26	1682.85
395.46	1722.63
395.65	1802.21
395.84	1816.26
396.04	1884.13
396.23	1715.61
396.42	1881.79
396.62	1919.24
396.81	1818.60
397.00	1858.39
397.19	1898.17
397.39	1832.64
397.58	1996.48
397.77	1858.39
397.97	1891.15
398.16	1846.68
398.35	1909.88
398.55	1914.56
398.74	2062.01
398.93	2059.67
399.12	1860.73
399.32	1797.53
399.51	2076.06
399.70	2026.90
399.90	2033.93
400.09	2054.99
400.28	2111.16
400.47	2181.38
400.67	2153.29
400.86	2167.34
401.05	2157.97
401.24	2246.91
401.44	2246.91
401.63	2188.40
401.82	2146.27
402.01	2263.30
402.21	2305.43
402.40	2165.00
402.59	2279.68
402.78	2324.15
402.97	2345.22
403.17	2387.35
403.36	2310.11
403.55	2354.58
403.74	2356.92
403.93	2427.14
404.13	2448.20
404.32	2527.78
404.51	2282.02
404.70	2471.61
404.89	2422.45
405.09	2588.63
405.28	2586.29
405.47	2656.51
405.66	2642.46
405.85	2656.51
406.05	2684.59
406.24	2523.10
406.43	2651.83
406.62	2710.34
406.81	2717.36
407.00	2672.89
407.20	2527.78
407.39	2796.94
407.58	2874.18
407.77	2881.20
407.96	2827.37
408.15	2874.18
408.34	2956.10
408.54	2869.50
408.73	2984.18
408.92	3084.83
409.11	2960.78
409.30	3089.51
409.49	3016.95
409.68	2991.20
409.87	3005.25
410.07	3169.09
410.26	3155.04
410.45	3131.64
410.64	3227.60
410.83	3185.47
411.02	3255.69
411.21	3213.56
411.40	3344.63
411.59	3314.20
411.78	3471.01
411.98	3414.84
412.17	3405.48
412.36	3433.57
412.55	3473.36
412.74	3463.99
412.93	3639.53
413.12	3527.19
413.31	3679.32
413.50	3510.80
413.69	3751.88
413.88	3613.79
414.07	3819.75
414.26	3763.58
414.45	3981.25
414.64	3852.52
414.83	3943.80
415.02	3988.27
415.22	3978.91
415.41	4032.74
415.60	4051.47
415.79	4079.55
415.98	4182.54
416.17	4257.43
416.36	4212.96
416.55	4278.50
416.74	4299.56
416.93	4297.22
417.12	4346.37
417.31	4461.06
417.50	4409.57
417.69	4547.66
417.88	4486.81
418.07	4372.12
418.26	4461.06
418.45	4512.55
418.64	4650.64
418.83	4732.56
419.02	4645.96
419.21	4844.91
419.39	4676.39
419.58	4608.51
419.77	4751.29
419.96	4723.20
420.15	4713.84
420.34	4734.90
420.53	4821.50
420.72	5057.90
420.91	4880.02
421.10	4999.38
421.29	4983.00
421.48	4968.96
421.67	5139.82
421.86	5046.20
422.05	5170.24
422.24	5163.22
422.43	5064.92
422.61	5153.86
422.80	5149.18
422.99	5095.35
423.18	5240.46
423.37	5261.52
423.56	5348.12
423.75	5275.57
423.94	5160.88
424.13	4884.70
424.32	4990.02
424.50	5242.80
424.69	5287.27
424.88	5355.15
425.07	5100.03
425.26	5153.86
425.45	5212.37
425.64	5294.29
425.83	5247.48
426.01	5259.18
426.20	5310.68
426.39	5313.02
426.58	5294.29
426.77	5390.25
426.96	5331.74
427.15	5254.50
427.33	5453.45
427.52	5369.19
427.71	5547.07
427.90	5572.82
428.09	5535.37
428.28	5853.68
428.46	5617.29
428.65	5682.82
428.84	5809.21
429.03	5799.85
429.22	5633.67
429.40	5839.64
429.59	5834.96
429.78	5526.00
429.97	5568.13
430.16	5837.30
430.34	5816.23
430.53	5996.45
430.72	5975.39
430.91	5905.17
431.10	5881.77
431.28	6113.48
431.47	6169.65
431.66	6120.50
431.85	5968.37
432.03	6186.04
432.22	6408.39
432.41	6377.96
432.60	6417.75
432.79	6244.55
432.97	6555.84
433.16	6314.77
433.35	6342.85
433.54	6349.87
433.72	6494.99
433.91	6387.32
434.10	6448.18
434.28	6487.96
434.47	6513.71
434.66	6658.82
434.85	6583.93
435.03	6761.81
435.22	6789.89
435.41	6930.33
435.59	6745.42
435.78	6670.53
435.97	7042.67
436.16	6857.77
436.34	6918.62
436.53	6869.47
436.72	7073.10
436.90	6932.67
437.09	7178.42
437.28	6981.82
437.46	6991.18
437.65	6993.52
437.84	7295.45
438.02	7206.51
438.21	7183.10
438.40	7159.70
438.58	7300.13
438.77	7372.69
438.96	7487.37
439.14	7552.91
439.33	7573.97
439.52	7721.43
439.70	7817.39
439.89	7768.24
440.08	7648.87
440.26	7698.02
440.45	7754.19
440.63	7817.39
440.82	7969.52
441.01	7847.82
441.19	8219.96
441.38	8189.53
441.57	8353.37
441.75	8318.26
441.94	8603.81
442.12	8582.74
442.31	8730.20
442.50	8557.00
442.68	8472.74
442.87	8606.15
443.05	8603.81
443.24	8879.99
443.43	8587.43
443.61	8887.01
443.80	9132.77
443.98	8592.11
444.17	8533.59
444.35	8950.21
444.54	9057.87
444.73	8926.80
444.91	8901.06
445.10	8990.00
445.28	8676.37
445.47	8858.93
445.65	8912.76
445.84	8861.27
446.02	9015.74
446.21	9139.79
446.39	8833.18
446.58	9015.74
446.77	9132.77
446.95	8870.63
447.14	8980.64
447.32	9121.07
447.51	9057.87
447.69	9046.17
447.88	9357.46
448.06	9130.43
448.25	8889.35
448.43	9249.80
448.62	9111.71
448.80	9114.05
448.99	9245.12
449.17	9535.34
449.36	9221.71
449.54	9432.36
449.73	9460.45
449.91	9591.52
450.10	9605.56
450.28	9645.35
450.46	9781.10
450.65	9888.76
450.83	9776.42
451.02	9638.33
451.20	9720.24
451.39	9839.61
451.57	9863.02
451.76	9998.77
451.94	9888.76
452.13	10178.99
452.31	9865.36
452.49	9727.27
452.68	9888.76
452.86	9935.57
453.05	9961.32
453.23	10024.51
453.42	9809.19
453.60	10040.90
453.78	10209.42
453.97	10064.30
454.15	10321.76
454.34	10153.24
454.52	10511.35
454.70	10314.74
454.89	10560.50
455.07	10509.01
455.26	10501.98
455.44	10296.02
455.62	10530.07
455.81	10736.04
455.99	10485.60
456.17	10796.89
456.36	10759.44
456.54	11009.88
456.73	10930.30
456.91	11283.72
457.09	11154.99
457.28	11452.24
457.46	11140.95
457.64	11215.85
457.83	11304.79
458.01	11152.65
458.19	11555.22
458.38	11370.32
458.56	11555.22
458.74	11475.65
458.93	11506.07
459.11	11513.10
459.29	11723.74
459.48	11920.35
459.66	11728.42
459.84	11936.73
460.03	11964.82
460.21	11620.76
460.39	11953.12
460.57	11683.95
460.76	12098.23
460.94	12257.39
461.12	11812.68
461.31	12032.69
461.49	12009.29
461.67	12002.27
461.85	12510.16
462.04	12126.32
462.22	12601.44
462.40	12353.35
462.59	12362.71
462.77	12500.80
462.95	12446.97
463.13	12517.18
463.32	12325.26
463.50	12540.59
463.68	12472.71
463.86	12793.37
464.05	12603.78
464.23	12732.51
464.41	12711.45
464.59	12650.60
464.78	13109.34
464.96	12809.75
465.14	12788.69
465.32	13011.04
465.50	13202.96
465.69	12896.35
465.87	13214.66
466.05	12985.29
466.23	13085.94
466.41	12891.67
466.60	13572.77
466.78	13006.36
466.96	13233.39
467.14	13437.02
467.32	13289.56
467.51	13678.09
467.69	12926.78
467.87	13547.02
468.05	13516.59
468.23	13465.10
468.41	13549.36
468.60	13675.75
468.78	13900.44
468.96	13301.26
469.14	13671.07
469.32	14054.92
469.50	13369.14
469.69	14097.05
469.87	14256.20
470.05	14085.34
470.23	14174.28
470.41	14153.22
470.59	14303.01
470.77	14080.66
470.95	14181.31
471.14	14504.30
471.32	14565.15
471.50	14810.91
471.68	14567.49
471.86	14780.48
472.04	14902.19
472.22	15112.84
472.40	14658.78
472.58	15077.73
472.77	14841.34
472.95	14970.07
473.13	15791.59
473.31	15222.84
473.49	15229.87
473.67	15316.47
473.85	15300.08
474.03	15885.22
474.21	15807.98
474.39	15789.25
474.57	15957.77
474.75	16088.84
474.93	16285.45
475.12	16091.18
475.30	16219.91
475.48	16400.13
475.66	16353.32
475.84	16606.10
476.02	17025.06
476.20	16496.10
476.38	16879.94
476.56	17209.96
476.74	17310.60
476.92	17048.46
477.10	17575.08
477.28	17736.58
477.46	17357.41
477.64	17907.44
477.82	17884.03
478.00	18281.92
478.18	18185.96
478.36	18520.66
478.54	18836.63
478.72	18677.48
478.90	18782.80
479.08	19264.95
479.26	19194.73
479.44	19201.76
479.62	19449.85
479.80	19201.76
479.98	19651.14
480.16	20231.59
480.34	20049.03
480.52	19960.09
480.70	20196.48
480.88	19908.60
481.06	20589.69
481.24	20613.10
481.41	20919.71
481.59	21177.17
481.77	21170.15
481.95	21390.16
482.13	21593.78
482.31	21490.80
482.49	21832.52
482.67	21884.01
482.85	22417.65
483.03	22611.92
483.21	22487.87
483.39	23058.96
483.57	22527.66
483.74	22855.33
483.92	23051.94
484.10	23227.48
484.28	23513.02
484.46	24070.07
484.64	24283.06
484.82	23964.75
485.00	24065.39
485.18	24566.26
485.35	25041.39
485.53	24924.36
485.71	25111.61
485.89	25261.40
486.07	25083.52
486.25	25603.12
486.43	25724.83
486.61	26075.91
486.78	26466.78
486.96	26321.66
487.14	26892.76
487.32	26558.06
487.50	27229.79
487.68	27449.80
487.85	27557.47
488.03	27733.01
488.21	28215.16
488.39	28346.23
488.57	28299.42
488.75	28348.57
488.92	28664.54
489.10	29490.75
489.28	29633.52
489.46	29706.08
489.64	29610.12
489.81	30345.05
489.99	30178.87
490.17	30431.65
490.35	30892.73
490.53	30848.26
490.70	31192.32
490.88	30717.19
491.06	31501.27
491.24	31477.86
491.41	31908.52
491.59	32126.19
491.77	31938.95
491.95	32165.98
492.13	32818.99
492.30	32865.80
492.48	33048.36
492.66	32847.08
492.84	33406.47
493.01	33483.70
493.19	33703.71
493.37	34115.65
493.54	33804.36
493.72	34532.26
493.90	34171.82
494.08	34873.98
494.25	35421.67
494.43	35299.96
494.61	35351.45
494.79	35487.20
494.96	35229.74
495.14	35686.15
495.32	36280.64
495.49	36147.23
495.67	36105.10
495.85	36533.42
496.02	37048.34
496.20	37343.25
496.38	37347.93
496.55	37242.60
496.73	37631.13
496.91	37635.81
497.09	37846.46
497.26	38185.84
497.44	38019.66
497.62	37965.83
497.79	38855.23
497.97	38576.71
498.14	39512.92
498.32	39498.88
498.50	39096.31
498.67	39894.43
498.85	40163.59
499.03	39976.35
499.20	40360.20
499.38	40423.39
499.56	40442.12
499.73	40914.90
499.91	41223.86
500.08	41209.81
500.26	40975.76
500.44	41116.19
500.61	41502.38
500.79	41813.67
500.97	41654.51
501.14	41706.01
501.32	42005.59
501.49	41951.76
501.67	42391.78
501.84	42487.74
502.02	42628.18
502.20	42794.36
502.37	42890.32
502.55	43056.50
502.72	42796.70
502.90	43138.41
503.07	42892.66
503.25	43442.68
503.43	43194.59
503.60	43973.98
503.78	43959.94
503.95	44009.09
504.13	43913.13
504.30	44479.54
504.48	44315.70
504.65	44282.94
504.83	44715.93
505.01	45118.51
505.18	45191.06
505.36	44910.20
505.53	45052.97
505.71	45134.89
505.88	45333.84
506.06	45228.51
506.23	45993.87
506.41	45621.72
506.58	45689.60
506.76	45921.31
506.93	46188.13
507.11	45820.67
507.28	46202.18
507.46	46674.96
507.63	46710.07
507.81	47086.90
507.98	46632.83
508.16	46656.24
508.33	46817.74
508.50	46979.23
508.68	46887.95
508.85	47835.87
509.03	47480.11
509.20	47833.53
509.38	48158.86
509.55	48130.78
509.73	47929.49
509.90	48266.53
510.08	47742.25
510.25	47931.83
510.42	48259.51
510.60	48619.95
510.77	48795.49
510.95	49251.89
511.12	48774.42
511.30	48601.22
511.47	49247.21
511.64	49240.19
511.82	49415.73
511.99	49485.95
512.17	50094.49
512.34	49418.07
512.51	49682.55
512.69	49813.62
512.86	50064.06
513.04	50560.25
513.21	50450.25
513.38	50265.34
513.56	50417.48
513.73	50059.38
513.90	50571.96
514.08	50377.69
514.25	50801.33
514.43	50834.10
514.60	50967.51
514.77	50908.99
514.95	51065.81
515.12	50923.04
515.29	50773.24
515.47	51494.13
515.64	51447.32
515.81	51536.26
515.99	51889.68
516.16	51896.70
516.33	51903.72
516.51	51950.53
516.68	51564.34
516.85	51826.48
517.03	52259.48
517.20	52105.01
517.37	52528.64
517.54	52128.41
517.72	52266.50
517.89	52299.27
518.06	52435.02
518.24	52715.89
518.41	52341.40
518.58	52339.06
518.75	52802.49
518.93	52949.94
519.10	52851.64
519.27	52823.55
519.45	52650.35
519.62	52954.62
519.79	53022.50
519.96	53294.00
520.14	53368.90
520.31	53492.94
520.48	53635.72
520.65	53748.06
520.83	53497.62
521.00	53595.93
521.17	53338.47
521.34	53708.27
521.52	53670.82
521.69	54049.99
521.86	54272.34
522.03	54028.93
522.20	54197.44
522.38	54232.55
522.55	54459.58
522.72	54181.06
522.89	54101.48
523.07	54644.49
523.24	54513.42
523.41	54693.64
523.58	54302.77
523.75	54789.60
523.92	54569.59
524.10	54529.80
524.27	54871.52
524.44	54871.52
524.61	55143.02
524.78	55466.02
524.96	54995.57
525.13	54934.71
525.30	55248.35
525.47	55313.88
525.64	55201.53
525.81	55835.82
525.98	55714.11
526.16	55449.63
526.33	55510.49
526.50	55760.92
526.67	55400.48
526.84	55753.90
527.01	55599.43
527.18	55903.70
527.36	56126.05
527.53	55819.44
527.70	56149.45
527.87	56289.88
528.04	55800.71
528.21	56072.21
528.38	55924.76
528.55	56346.06
528.72	56109.66
528.89	56254.78
529.07	56097.96
529.24	56250.09
529.41	56463.08
529.58	56214.99
529.75	56126.05
529.92	56530.96
530.09	56584.79
530.26	56573.09
530.43	56800.12
530.60	56502.87
530.77	56727.56
530.94	56690.12
531.11	56598.83
531.28	56757.99
531.46	56980.34
531.63	56966.30
531.80	56914.81
531.97	56940.55
532.14	57090.35
532.31	57020.13
532.48	57059.92
532.65	57403.98
532.82	57153.54
532.99	57432.07
533.16	57315.04
533.33	57263.55
533.50	57542.07
533.67	57476.54
533.84	57303.34
534.01	57315.04
534.18	57380.57
534.35	57532.71
534.52	57572.50
534.69	57839.32
534.86	57879.11
535.03	57804.21
535.20	57794.85
535.37	57790.17
535.54	57902.51
535.71	57666.12
535.88	57694.21
536.05	58096.78
536.22	58143.59
536.38	57989.11
536.55	58138.91
536.72	57932.94
536.89	57790.17
537.06	57991.45
537.23	58122.52
537.40	58138.91
537.57	58375.30
537.74	58155.29
537.91	58614.04
538.08	58569.57
538.25	58391.68
538.42	58478.28
538.59	58534.46
538.75	58258.27
538.92	58454.88
539.09	58712.34
539.26	58518.07
539.43	58761.49
539.60	58576.59
539.77	58754.47
539.94	58681.91
540.11	58698.30
540.28	58803.62
540.44	58922.99
540.61	58808.30
540.78	58773.19
540.95	59035.33
541.12	59007.25
541.29	58941.71
541.46	59018.95
541.62	58782.55
541.79	58908.94
541.96	58805.96
542.13	58922.99
542.30	59168.74
542.47	59346.62
542.63	59304.49
542.80	59250.66
542.97	59550.25
543.14	59498.76
543.31	59545.57
543.48	59337.26
543.64	59576.00
543.81	59667.28
543.98	59737.49
544.15	59742.17
544.32	59938.78
544.48	59990.27
544.65	59723.45
544.82	59646.21
544.99	59756.22
545.16	59948.14
545.32	59807.71
545.49	60198.58
545.66	60102.62
545.83	60130.70
546.00	60140.07
546.16	59901.33
546.33	59671.96
546.50	59742.17
546.67	59999.63
546.83	59753.88
547.00	60009.00
547.17	60126.02
547.34	60177.51
547.50	60268.79
547.67	60498.17
547.84	60430.29
548.00	60451.36
548.17	60500.51
548.34	60516.89
548.51	60526.25
548.67	60535.62
548.84	60750.94
549.01	60594.13
549.18	60346.03
549.34	60643.28
549.51	60624.56
549.68	60547.32
549.84	60563.70
550.01	60727.54
550.18	60449.02
550.34	60608.17
550.51	60814.14
550.68	60729.88
550.84	60559.02
551.01	60640.94
551.18	60523.91
551.34	60743.92
551.51	60729.88
551.68	60924.14
551.84	61057.56
552.01	60919.46
552.18	60804.78
552.34	60959.25
552.51	61130.11
552.68	60877.33
552.84	60992.02
553.01	61214.37
553.18	60933.51
553.34	61221.39
553.51	61315.01
553.67	61282.25
553.84	61352.46
554.01	61422.68
554.17	61165.22
554.34	61319.70
554.51	61209.69
554.67	61455.45
554.84	61240.12
555.00	61235.44
555.17	61237.78
555.33	61509.28
555.50	61324.38
555.67	61481.19
555.83	61268.20
556.00	61436.72
556.16	61406.30
556.33	61504.60
556.50	61413.32
556.66	61806.53
556.83	61647.37
556.99	61904.83
557.16	61759.72
557.32	61684.82
557.49	61843.98
557.65	61680.14
557.82	61591.20
557.98	61736.31
558.15	61769.08
558.32	61827.59
558.48	61879.08
558.65	61977.39
558.81	61914.19
558.98	61890.79
559.14	61691.84
559.31	61851.00
559.47	61778.44
559.64	61851.00
559.80	61979.73
559.97	62026.54
560.13	61790.14
560.30	62033.56
560.46	62078.03
560.63	62040.58
560.79	62012.49
560.96	62159.95
561.12	62110.80
561.29	62024.20
561.45	61958.66
561.61	62071.01
561.78	62110.80
561.94	62209.10
562.11	62157.61
562.27	61968.02
562.44	62190.37
562.60	62183.35
562.77	61996.11
562.93	62073.35
563.10	62344.85
563.26	62312.08
563.42	62433.79
563.59	62089.73
563.75	62300.38
563.92	62436.13
564.08	62136.54
564.24	62258.25
564.41	62265.27
564.57	62295.70
564.74	62344.85
564.90	62386.98
565.07	62576.56
565.23	62621.03
565.39	62527.41
565.56	62487.62
565.72	62480.60
565.88	62534.43
566.05	62321.44
566.21	62307.40
566.38	62508.69
566.54	62431.45
566.70	62592.95
566.87	62644.44
567.03	62548.48
567.19	62712.31
567.36	62478.26
567.52	62635.08
567.68	62396.34
567.85	62461.88
568.01	62569.54
568.17	62571.88
568.34	62653.80
568.50	62658.48
568.66	62686.57
568.83	62915.94
568.99	62494.64
569.15	62459.54
569.32	62508.69
569.48	62660.82
569.64	62773.17
569.81	62637.42
569.97	62653.80
570.13	62817.64
570.30	62756.78
570.46	62695.93
570.62	62735.72
570.78	62637.42
570.95	62553.16
571.11	62770.83
571.27	62501.67
571.43	62574.22
571.60	62953.39
571.76	62822.32
571.92	62983.82
572.09	62824.66
572.25	62801.25
572.41	62754.44
572.57	62831.68
572.74	62953.39
572.90	62838.70
573.06	62681.89
573.22	62761.47
573.38	62798.91
573.55	62803.59
573.71	63009.56
573.87	63009.56
574.03	62878.49
574.20	62719.34
574.36	62773.17
574.52	62908.92
574.68	62934.66
574.84	62845.72
575.01	62967.43
575.17	63131.27
575.33	62866.79
575.49	63014.24
575.65	63047.01
575.82	63124.25
575.98	62951.05
576.14	63215.53
576.30	62934.66
576.46	62754.44
576.62	63142.97
576.79	62932.32
576.95	62929.98
577.11	62983.82
577.27	63061.05
577.43	63110.20
577.59	62988.50
577.75	63103.18
577.92	62913.60
578.08	62941.69
578.24	63065.73
578.40	62855.09
578.56	63068.08
578.72	63014.24
578.88	63381.71
579.04	63241.28
579.21	63185.10
579.37	63098.50
579.53	63213.19
579.69	63007.22
579.85	62997.86
580.01	63063.39
580.17	62965.09
580.33	62927.64
580.49	63238.93
580.65	63182.76
580.82	63276.38
580.98	63084.46
581.14	63264.68
581.30	63245.96
581.46	63000.20
581.62	62981.48
581.78	62932.32
581.94	63117.23
582.10	63164.04
582.26	63206.17
582.42	63292.77
582.58	63196.80
582.74	63056.37
582.90	63208.51
583.06	63381.71
583.22	63276.38
583.38	63142.97
583.54	63133.61
583.70	63089.14
583.86	63152.33
584.02	62962.75
584.18	63337.24
584.34	63334.90
584.50	63400.43
584.66	63093.82
584.82	63072.76
584.98	63126.59
585.14	63290.43
585.30	63238.93
585.46	63149.99
585.62	63128.93
585.78	63386.39
585.94	63037.65
586.10	63318.51
586.26	63318.51
586.42	63627.46
586.58	63503.42
586.74	63264.68
586.90	63117.23
587.06	63173.40
587.22	63423.84
587.38	63206.17
587.54	63402.77
587.70	63622.78
587.86	63515.12
588.02	63377.03
588.18	63477.67
588.34	63400.43
588.49	63543.20
588.65	63187.44
588.81	63358.30
588.97	63487.03
589.13	63271.70
589.29	63323.19
589.45	63402.77
589.61	63456.60
589.77	63564.27
589.93	63606.40
590.08	63543.20
590.24	63728.11
590.40	63604.06
590.56	63423.84
590.72	63608.74
590.88	63498.73
591.04	63398.09
591.20	63606.40
591.35	63709.38
591.51	63859.18
591.67	63725.77
591.83	63889.60
591.99	63737.47
592.15	63613.42
592.31	63594.70
592.46	63531.50
592.62	63440.22
592.78	63461.29
592.94	63538.52
593.10	63571.29
593.26	63756.19
593.41	63625.12
593.57	63613.42
593.73	63622.78
593.89	63676.61
594.05	63557.25
594.20	63370.00
594.36	63800.66
594.52	63524.48
594.68	63470.65
594.84	63494.05
594.99	63646.19
595.15	63800.66
595.31	63889.60
595.47	63847.47
595.62	63873.22
595.78	63657.89
595.94	63685.98
596.10	63786.62
596.25	63751.51
596.41	63533.84
596.57	63552.57
596.73	63894.28
596.88	63641.51
597.04	63859.18
597.20	63805.34
597.36	63704.70
597.51	63840.45
597.67	63653.21
597.83	63613.42
597.99	63693.00
598.14	63641.51
598.30	63767.90
598.46	63657.89
598.61	63810.03
598.77	63564.27
598.93	63814.71
599.09	63910.67
599.24	64196.21
599.40	63683.64
599.56	63950.46
599.71	63732.79
599.87	63831.09
600.03	63903.65
600.18	63814.71
600.34	63770.24
600.50	63810.03
600.65	63852.15
600.81	63894.28
600.97	64001.95
601.12	63866.20
601.28	63943.44
601.44	63838.11
601.59	63828.75
601.75	63812.37
601.91	63898.97
602.06	63744.49
602.22	63966.84
602.37	63674.27
602.53	63774.92
602.69	63971.52
602.84	63835.77
603.00	63920.03
603.16	63927.05
603.31	63866.20
603.47	63788.96
603.62	63636.83
603.78	63795.98
603.94	63723.43
604.09	63810.03
604.25	63868.54
604.40	63702.36
604.56	63758.53
604.71	64060.46
604.87	64081.53
605.03	63945.78
605.18	63763.21
605.34	64020.67
605.49	63601.72
605.65	63807.68
605.80	63564.27
605.96	63828.75
606.12	63824.07
606.27	63714.06
606.43	63810.03
606.58	63889.60
606.74	63767.90
606.89	63957.48
607.05	64001.95
607.20	63964.50
607.36	63913.01
607.51	63819.39
607.67	63732.79
607.82	63723.43
607.98	63648.53
608.13	63861.52
608.29	63788.96
608.44	63702.36
608.60	63845.13
608.75	63842.79
608.91	63971.52
609.06	63566.61
609.22	63812.37
609.37	63580.65
609.53	63646.19
609.68	63685.98
609.84	63622.78
609.99	63774.92
610.15	63688.32
610.30	63763.21
610.46	63664.91
610.61	63742.15
610.76	63711.72
610.92	63772.58
611.07	63824.07
611.23	63849.81
611.38	63695.34
611.54	63627.46
611.69	63545.54
611.84	63487.03
612.00	63465.97
612.15	63554.91
612.31	63868.54
612.46	63749.17
612.62	63543.20
612.77	63636.83
612.92	63725.77
613.08	63529.16
613.23	63707.04
613.39	63704.70
613.54	63456.60
613.69	63416.82
613.85	63407.45
614.00	63501.07
614.15	63765.56
614.31	63650.87
614.46	63632.14
614.62	63428.52
614.77	63606.40
614.92	63657.89
615.08	63552.57
615.23	63487.03
615.38	63351.28
615.54	63189.78
615.69	63330.22
615.84	63306.81
616.00	63444.90
616.15	63388.73
616.30	63646.19
616.46	63414.47
616.61	63468.31
616.76	63505.76
616.92	63395.75
617.07	63393.41
617.22	63248.30
617.37	63370.00
617.53	63252.98
617.68	63309.15
617.83	63236.59
617.99	63231.91
618.14	63250.64
618.29	63271.70
618.45	63351.28
618.60	63358.30
618.75	63288.09
618.90	63355.96
619.06	63288.09
619.21	63149.99
619.36	63215.53
619.51	63182.76
619.67	63091.48
619.82	63220.21
619.97	63161.70
620.12	63194.46
620.28	62988.50
620.43	63185.10
620.58	63332.56
620.73	63196.80
620.89	63126.59
621.04	63238.93
621.19	63032.97
621.34	63196.80
621.49	62862.11
621.65	63004.88
621.80	63117.23
621.95	62852.75
622.10	63068.08
622.25	63007.22
622.41	63009.56
622.56	63079.78
622.71	63023.61
622.86	62965.09
623.01	63028.29
623.16	62892.54
623.32	62791.89
623.47	63002.54
623.62	62944.03
623.77	62803.59
623.92	62883.17
624.07	62932.32
624.23	62768.49
624.38	62894.88
624.53	62852.75
624.68	62831.68
624.83	62789.55
624.98	62801.25
625.13	62513.37
625.29	62724.02
625.44	62812.96
625.59	62623.37
625.74	62419.75
625.89	62511.03
626.04	62478.26
626.19	62536.77
626.34	62646.78
626.49	62391.66
626.65	62644.44
626.80	62595.29
626.95	62639.76
627.10	62588.27
627.25	62684.23
627.40	62377.62
627.55	62424.43
627.70	62326.13
627.85	62314.42
628.00	62386.98
628.15	62344.85
628.30	62300.38
628.45	62340.17
628.60	62372.94
628.76	62457.20
628.91	62496.98
629.06	62232.50
629.21	62480.60
629.36	62372.94
629.51	62127.18
629.66	62365.91
629.81	62003.13
629.96	62265.27
630.11	62087.39
630.26	62279.31
630.41	62391.66
630.56	62099.09
630.71	62323.78
630.86	62237.19
631.01	62213.78
631.16	62096.75
631.31	62220.80
631.46	62192.72
631.61	62234.84
631.76	62113.14
631.91	61961.00
632.06	61872.06
632.21	61916.53
632.36	62061.64
632.51	61701.20
632.66	61984.41
632.81	61968.02
632.96	61890.79
633.10	61843.98
633.25	61890.79
633.40	62068.67
633.55	61862.70
633.70	61937.60
633.85	61764.40
634.00	61785.46
634.15	61801.85
634.30	61780.78
634.45	62033.56
634.60	61921.21
634.75	61914.19
634.90	61853.34
635.05	62042.92
635.19	61759.72
635.34	61855.68
635.49	61666.09
635.64	61783.12
635.79	61591.20
635.94	61829.93
636.09	61663.75
636.24	61551.41
636.39	61399.27
636.53	61696.52
636.68	61450.77
636.83	61696.52
636.98	61752.69
637.13	61563.11
637.28	61537.36
637.43	61532.68
637.57	61843.98
637.72	61542.05
637.87	61520.98
638.02	61642.69
638.17	61689.50
638.32	61361.82
638.46	61352.46
638.61	61418.00
638.76	61167.56
638.91	61331.40
639.06	61446.08
639.20	61312.67
639.35	61572.47
639.50	61331.40
639.65	61584.18
639.80	61485.87
639.94	61392.25
640.09	61558.43
640.24	61066.92
640.39	61219.05
640.54	61279.91
640.68	61034.15
640.83	61286.93
640.98	61219.05
641.13	60870.31
641.27	61434.38
641.42	61212.03
641.57	61392.25
641.72	61509.28
641.86	61307.99
642.01	61031.81
642.16	60961.59
642.31	60889.04
642.45	61155.86
642.60	60727.54
642.75	60811.80
642.90	60992.02
643.04	60814.14
643.19	60982.66
643.34	60982.66
643.48	60989.68
643.63	61038.83
643.78	60977.98
643.93	61034.15
644.07	61008.40
644.22	60966.27
644.37	60816.48
644.51	60893.72
644.66	60931.17
644.81	60769.67
644.95	60928.83
645.10	60814.14
645.25	60659.66
645.39	60870.31
645.54	60968.61
645.69	60837.54
645.83	60867.97
645.98	61069.26
646.13	60945.21
646.27	60802.44
646.42	60844.57
646.57	60598.81
646.71	60577.75
646.86	60683.07
647.00	60580.09
647.15	60692.43
647.30	60535.62
647.44	60629.24
647.59	60416.25
647.74	60645.62
647.88	60521.57
648.03	60598.81
648.17	60669.03
648.32	60514.55
648.47	60530.93
648.61	60388.16
648.76	60561.36
648.90	60367.10
649.05	60425.61
649.20	60537.96
649.34	60486.46
649.49	60282.84
649.63	60308.58
649.78	60477.10
649.92	60357.74
650.07	60612.85
650.21	60341.35
650.36	60355.39
650.51	60331.99
650.65	60566.04
650.80	60362.42
650.94	60364.76
651.09	60217.30
651.23	60055.81
651.38	60088.57
651.52	59987.93
651.67	60196.24
651.81	60207.94
651.96	59835.80
652.10	60147.09
652.25	60240.71
652.39	60107.30
652.54	60339.01
652.68	60343.69
652.83	60390.50
652.97	60170.49
653.12	59978.57
653.26	59950.48
653.41	60259.43
653.55	59863.88
653.70	59821.75
653.84	59723.45
653.99	59817.07
654.13	59819.41
654.27	59711.75
654.42	59709.41
654.56	59653.23
654.71	59788.98
654.85	60009.00
655.00	59978.57
655.14	59784.30
655.29	59554.93
655.43	59810.05
655.57	59655.57
655.72	59489.40
655.86	59320.88
656.01	59606.42
656.15	59208.53
656.30	59461.31
656.44	59482.37
656.58	59463.65
656.73	59391.09
656.87	59669.62
657.01	59709.41
657.16	59615.79
657.30	59559.61
657.45	59522.16
657.59	59531.53
657.73	59402.80
657.88	59379.39
658.02	59421.52
658.16	59437.90
658.31	58988.52
658.45	59086.82
658.60	58997.88
658.74	59145.34
658.88	59327.90
659.03	58967.46
659.17	58820.00
659.31	59007.25
659.46	59056.40
659.60	59276.41
659.74	59220.23
659.89	58988.52
660.03	59021.29
660.17	59133.63
660.32	58745.11
660.46	58784.90
660.60	58815.32
660.74	58782.55
660.89	58794.26
661.03	58646.80
661.17	58754.47
661.32	58759.15
661.46	58841.07
661.60	58899.58
661.74	58672.55
661.89	58644.46
662.03	58752.13
662.17	58733.40
662.31	58721.70
662.46	58871.49
662.60	58555.52
662.74	58471.26
662.88	58234.87
663.03	58220.83
663.17	58248.91
663.31	58159.97
663.45	58408.07
663.60	58398.71
663.74	58239.55
663.88	58485.31
664.02	58478.28
664.17	58365.94
664.31	58314.45
664.45	58157.63
664.59	58178.70
664.73	57977.41
664.88	58014.86
665.02	57567.82
665.16	57759.74
665.30	57890.81
665.44	57939.96
665.59	57762.08
665.73	57942.30
665.87	57666.12
666.01	57790.17
666.15	57731.65
666.29	57595.90
666.44	57392.28
666.58	57532.71
666.72	57429.72
666.86	57666.12
667.00	57570.16
667.14	57432.07
667.28	57268.23
667.43	57125.46
667.57	57516.32
667.71	57078.64
667.85	57069.28
667.99	57263.55
668.13	57029.49
668.27	56882.04
668.41	57249.50
668.56	56797.78
668.70	57207.37
668.84	57027.15
668.98	57167.58
669.12	57151.20
669.26	57013.11
669.40	56823.53
669.54	56750.97
669.68	56659.69
669.82	56779.06
669.96	56781.40
670.10	56530.96
670.25	56603.52
670.39	56313.29
670.53	56540.32
670.67	56444.36
670.81	56711.18
670.95	56556.70
671.09	56397.55
671.23	56477.13
671.37	56339.04
671.51	56413.93
671.65	56236.05
671.79	55994.98
671.93	56154.13
672.07	55994.98
672.21	55915.40
672.35	55620.49
672.49	55770.28
672.63	55737.52
672.77	55498.78
672.91	55386.44
673.05	55650.92
673.19	55700.07
673.33	55622.83
673.47	55636.87
673.61	55578.36
673.75	55529.21
673.89	55531.55
674.03	55320.90
674.17	55164.09
674.31	55063.44
674.45	54948.76
674.59	54960.46
674.73	55056.42
674.87	54925.35
675.01	54824.71
675.15	54873.86
675.29	54796.62
675.43	54604.70
675.56	54740.45
675.70	54518.10
675.84	54609.38
675.98	53853.39
676.12	54623.42
676.26	54466.61
676.40	54244.26
676.54	54262.98
676.68	54071.06
676.82	53446.13
676.96	53649.76
677.10	53633.38
677.23	53694.23
677.37	53907.22
677.51	53516.35
677.65	53399.32
677.79	53172.29
677.93	53371.24
678.07	53298.68
678.21	53073.99
678.34	53191.01
678.48	53153.57
678.62	53055.26
678.76	52828.23
678.90	52903.13
679.04	52547.37
679.18	52538.01
679.31	51791.37
679.45	52222.03
679.59	52037.13
679.73	52374.17
679.87	52086.28
680.00	51868.61
680.14	51800.74
680.28	51910.74
680.42	51721.16
680.56	51569.02
680.70	51543.28
680.83	51538.60
680.97	51597.11
681.11	51824.14
681.25	51227.31
681.39	51077.51
681.52	51028.36
681.66	50450.25
681.80	50405.78
681.94	50181.09
682.07	50167.04
682.21	50234.92
682.35	50298.11
682.49	50000.86
682.62	49925.97
682.76	50309.82
682.90	49591.27
683.04	49848.73
683.17	49406.37
683.31	49996.18
683.45	49820.64
683.59	49193.38
683.72	49518.71
683.86	48982.73
684.00	49078.69
684.13	48350.79
684.27	48662.08
684.41	48121.41
684.55	48011.41
684.68	47950.56
684.82	47917.79
684.96	48369.51
685.09	48002.05
685.23	48133.12
685.37	47824.17
685.50	48086.31
685.64	47878.00
685.78	47650.97
685.91	47590.11
686.05	47468.40
686.19	47545.64
686.32	47299.89
686.46	46281.75
686.60	46073.45
686.73	46445.59
686.87	46380.06
687.01	46288.77
687.14	46092.17
687.28	46309.84
687.42	46115.58
687.55	45687.26
687.69	45624.06
687.82	45591.30
687.96	45867.48
688.10	45464.91
688.23	45404.05
688.37	45450.86
688.50	45155.96
688.64	45165.32
688.78	44961.69
688.91	44535.71
689.05	44605.93
689.18	44215.06
689.32	43454.39
689.46	43627.59
689.59	43777.38
689.73	43407.58
689.86	43384.17
690.00	43386.51
690.13	43103.31
690.27	43398.21
690.41	43033.09
690.54	42815.42
690.68	42752.23
690.81	42953.51
690.95	42909.04
691.08	42249.01
691.22	42232.63
691.35	41965.81
691.49	42356.67
691.62	42157.73
691.76	41766.86
691.89	41141.94
692.03	41326.84
692.16	40961.72
692.30	40746.39
692.43	40957.03
692.57	40547.44
692.70	40781.49
692.84	40425.73
692.97	40168.27
693.11	39957.63
693.24	40392.97
693.38	40563.82
693.51	40158.91
693.65	40079.33
693.78	39770.38
693.92	39667.40
694.05	39147.80
694.19	39302.28
694.32	38569.69
694.45	38347.34
694.59	38422.23
694.72	38485.43
694.86	38422.23
694.99	37727.10
695.13	37914.34
695.26	37600.71
695.39	37476.66
695.53	37986.89
695.66	38134.35
695.80	37598.37
695.93	37425.17
696.07	37343.25
696.20	37633.47
696.33	37156.00
696.47	37275.37
696.60	36992.17
696.73	36687.90
696.87	36381.29
697.00	36156.60
697.14	36154.26
697.27	35784.45
697.40	35686.15
697.54	35543.38
697.67	34754.61
697.80	35054.20
697.94	34843.56
698.07	34480.77
698.21	35014.41
698.34	35086.97
698.47	34988.67
698.61	34391.83
698.74	34291.19
698.87	34286.51
699.01	33902.66
699.14	33881.60
699.27	33759.89
699.40	34026.71
699.54	33432.21
699.67	32896.23
699.80	32996.87
699.94	32582.60
700.07	32362.59
700.20	32624.73
700.34	32217.47
700.47	32318.12
700.60	32273.65
700.73	32645.79
700.87	32755.80
701.00	31967.04
701.13	32074.70
701.26	32002.14
701.40	32067.68
701.53	31924.91
701.66	31531.70
701.79	31281.26
701.93	31374.88
702.06	30899.75
702.19	30370.79
702.32	30670.38
702.46	30586.12
702.59	30059.50
702.72	29605.44
702.85	30195.25
702.99	30066.52
703.12	30033.75
703.25	29886.30
703.38	29577.35
703.51	29521.18
703.65	29249.67
703.78	29347.98
703.91	29142.01
704.04	28943.06
704.17	29233.29
704.31	28980.51
704.44	28465.60
704.57	28526.45
704.70	28109.83
704.83	28004.51
704.96	28341.55
705.10	27786.84
705.23	27859.40
>>>>>End Processed Spectral Data<<<<<
