SpectraSuite Data File
++++++++++++++++++++++++++++++++++++
Date: Fri Oct 04 11:47:12 GMT-05:00 2013
User: price-jones
Dark Spectrum Present: No
Reference Spectrum Present: No
Number of Sampled Component Spectra: 1
Spectrometers: USB2+H05261
Integration Time (usec): 100000 (USB2+H05261)
Spectra Averaged: 1 (USB2+H05261)
Boxcar Smoothing: 0 (USB2+H05261)
Correct for Electrical Dark: No (USB2+H05261)
Strobe/Lamp Enabled: No (USB2+H05261)
Correct for Detector Non-linearity: No (USB2+H05261)
Correct for Stray Light: No (USB2+H05261)
Number of Pixels in Processed Spectrum: 2048
>>>>>Begin Processed Spectral Data<<<<<
365.73	77.24
365.92	77.24
366.12	77.24
366.32	0.00
366.52	0.00
366.72	0.00
366.91	0.00
367.11	0.00
367.31	0.00
367.51	0.00
367.70	0.00
367.90	0.00
368.10	0.00
368.30	0.00
368.49	0.00
368.69	0.00
368.89	0.00
369.09	0.00
369.28	0.00
369.48	0.00
369.68	0.00
369.87	0.00
370.07	37.45
370.27	0.00
370.47	0.00
370.66	18.72
370.86	0.00
371.06	0.00
371.25	95.96
371.45	79.58
371.65	77.24
371.84	65.54
372.04	88.94
372.24	63.19
372.44	84.26
372.63	86.60
372.83	84.26
373.03	86.60
373.22	105.32
373.42	131.07
373.62	121.71
373.81	86.60
374.01	140.43
374.21	93.62
374.40	149.79
374.60	159.16
374.79	49.15
374.99	91.28
375.19	74.90
375.38	175.54
375.58	133.41
375.78	117.03
375.97	168.52
376.17	138.09
376.37	107.66
376.56	128.73
376.76	128.73
376.95	105.32
377.15	98.30
377.35	46.81
377.54	112.35
377.74	117.03
377.93	107.66
378.13	74.90
378.33	93.62
378.52	25.75
378.72	173.20
378.91	173.20
379.11	102.98
379.31	79.58
379.50	58.51
379.70	67.88
379.89	124.05
380.09	126.39
380.28	173.20
380.48	84.26
380.68	79.58
380.87	39.79
381.07	124.05
381.26	145.11
381.46	124.05
381.65	88.94
381.85	63.19
382.04	88.94
382.24	88.94
382.43	93.62
382.63	35.11
382.83	119.37
383.02	114.69
383.22	63.19
383.41	121.71
383.61	44.47
383.80	67.88
384.00	42.13
384.19	105.32
384.39	70.22
384.58	28.09
384.78	79.58
384.97	53.83
385.17	133.41
385.36	72.56
385.56	149.79
385.75	86.60
385.95	37.45
386.14	126.39
386.34	88.94
386.53	112.35
386.72	44.47
386.92	67.88
387.11	124.05
387.31	128.73
387.50	42.13
387.70	72.56
387.89	65.54
388.09	49.15
388.28	98.30
388.48	58.51
388.67	138.09
388.86	84.26
389.06	67.88
389.25	77.24
389.45	117.03
389.64	53.83
389.84	58.51
390.03	159.16
390.22	147.45
390.42	95.96
390.61	95.96
390.81	72.56
391.00	95.96
391.19	51.49
391.39	84.26
391.58	135.75
391.78	72.56
391.97	67.88
392.16	28.09
392.36	117.03
392.55	152.13
392.75	91.28
392.94	49.15
393.13	175.54
393.33	93.62
393.52	133.41
393.71	168.52
393.91	88.94
394.10	124.05
394.29	77.24
394.49	98.30
394.68	110.01
394.88	175.54
395.07	86.60
395.26	152.13
395.46	117.03
395.65	117.03
395.84	67.88
396.04	156.82
396.23	88.94
396.42	135.75
396.62	91.28
396.81	102.98
397.00	42.13
397.19	49.15
397.39	166.18
397.58	74.90
397.77	67.88
397.97	100.64
398.16	63.19
398.35	79.58
398.55	110.01
398.74	81.92
398.93	100.64
399.12	70.22
399.32	126.39
399.51	114.69
399.70	88.94
399.90	53.83
400.09	65.54
400.28	154.48
400.47	72.56
400.67	121.71
400.86	81.92
401.05	49.15
401.24	124.05
401.44	131.07
401.63	42.13
401.82	159.16
402.01	67.88
402.21	102.98
402.40	119.37
402.59	81.92
402.78	100.64
402.97	81.92
403.17	53.83
403.36	110.01
403.55	112.35
403.74	51.49
403.93	126.39
404.13	107.66
404.32	177.88
404.51	72.56
404.70	18.72
404.89	65.54
405.09	182.56
405.28	138.09
405.47	53.83
405.66	121.71
405.85	100.64
406.05	105.32
406.24	98.30
406.43	147.45
406.62	81.92
406.81	198.95
407.00	117.03
407.20	126.39
407.39	53.83
407.58	65.54
407.77	152.13
407.96	121.71
408.15	175.54
408.34	124.05
408.54	154.48
408.73	98.30
408.92	112.35
409.11	131.07
409.30	93.62
409.49	110.01
409.68	51.49
409.87	77.24
410.07	65.54
410.26	121.71
410.45	81.92
410.64	121.71
410.83	124.05
411.02	93.62
411.21	138.09
411.40	166.18
411.59	124.05
411.78	98.30
411.98	124.05
412.17	98.30
412.36	156.82
412.55	65.54
412.74	159.16
412.93	163.84
413.12	74.90
413.31	156.82
413.50	70.22
413.69	105.32
413.88	156.82
414.07	102.98
414.26	149.79
414.45	114.69
414.64	142.77
414.83	114.69
415.02	107.66
415.22	81.92
415.41	133.41
415.60	70.22
415.79	124.05
415.98	124.05
416.17	74.90
416.36	159.16
416.55	126.39
416.74	149.79
416.93	166.18
417.12	135.75
417.31	30.43
417.50	105.32
417.69	98.30
417.88	81.92
418.07	110.01
418.26	86.60
418.45	67.88
418.64	177.88
418.83	131.07
419.02	126.39
419.21	133.41
419.39	161.50
419.58	161.50
419.77	156.82
419.96	196.60
420.15	215.33
420.34	86.60
420.53	110.01
420.72	107.66
420.91	124.05
421.10	138.09
421.29	175.54
421.48	159.16
421.67	95.96
421.86	51.49
422.05	81.92
422.24	112.35
422.43	81.92
422.61	53.83
422.80	79.58
422.99	91.28
423.18	0.00
423.37	95.96
423.56	252.78
423.75	91.28
423.94	107.66
424.13	177.88
424.32	159.16
424.50	166.18
424.69	166.18
424.88	196.60
425.07	114.69
425.26	49.15
425.45	105.32
425.64	124.05
425.83	79.58
426.01	135.75
426.20	175.54
426.39	161.50
426.58	166.18
426.77	182.56
426.96	110.01
427.15	77.24
427.33	170.86
427.52	168.52
427.71	189.58
427.90	105.32
428.09	107.66
428.28	39.79
428.46	81.92
428.65	112.35
428.84	105.32
429.03	170.86
429.22	102.98
429.40	124.05
429.59	95.96
429.78	133.41
429.97	95.96
430.16	16.38
430.34	114.69
430.53	65.54
430.72	72.56
430.91	121.71
431.10	79.58
431.28	131.07
431.47	154.48
431.66	198.95
431.85	93.62
432.03	142.77
432.22	145.11
432.41	147.45
432.60	114.69
432.79	86.60
432.97	147.45
433.16	121.71
433.35	114.69
433.54	79.58
433.72	166.18
433.91	117.03
434.10	128.73
434.28	189.58
434.47	128.73
434.66	110.01
434.85	175.54
435.03	140.43
435.22	95.96
435.41	102.98
435.59	117.03
435.78	105.32
435.97	117.03
436.16	173.20
436.34	140.43
436.53	124.05
436.72	159.16
436.90	105.32
437.09	121.71
437.28	102.98
437.46	138.09
437.65	63.19
437.84	126.39
438.02	86.60
438.21	135.75
438.40	37.45
438.58	149.79
438.77	117.03
438.96	140.43
439.14	135.75
439.33	135.75
439.52	124.05
439.70	105.32
439.89	133.41
440.08	114.69
440.26	121.71
440.45	187.24
440.63	166.18
440.82	175.54
441.01	81.92
441.19	98.30
441.38	184.90
441.57	177.88
441.75	133.41
441.94	105.32
442.12	163.84
442.31	166.18
442.50	133.41
442.68	154.48
442.87	154.48
443.05	142.77
443.24	163.84
443.43	98.30
443.61	112.35
443.80	161.50
443.98	88.94
444.17	126.39
444.35	79.58
444.54	131.07
444.73	117.03
444.91	220.01
445.10	84.26
445.28	70.22
445.47	131.07
445.65	117.03
445.84	119.37
446.02	149.79
446.21	107.66
446.39	126.39
446.58	138.09
446.77	131.07
446.95	133.41
447.14	168.52
447.32	245.76
447.51	112.35
447.69	128.73
447.88	84.26
448.06	163.84
448.25	124.05
448.43	102.98
448.62	114.69
448.80	35.11
448.99	119.37
449.17	102.98
449.36	79.58
449.54	112.35
449.73	102.98
449.91	194.26
450.10	105.32
450.28	196.60
450.46	154.48
450.65	203.63
450.83	166.18
451.02	100.64
451.20	114.69
451.39	110.01
451.57	149.79
451.76	138.09
451.94	119.37
452.13	147.45
452.31	128.73
452.49	95.96
452.68	140.43
452.86	180.22
453.05	194.26
453.23	152.13
453.42	189.58
453.60	147.45
453.78	145.11
453.97	126.39
454.15	100.64
454.34	145.11
454.52	91.28
454.70	166.18
454.89	119.37
455.07	114.69
455.26	191.92
455.44	152.13
455.62	79.58
455.81	100.64
455.99	126.39
456.17	159.16
456.36	133.41
456.54	112.35
456.73	65.54
456.91	173.20
457.09	86.60
457.28	170.86
457.46	180.22
457.64	180.22
457.83	212.99
458.01	91.28
458.19	145.11
458.38	196.60
458.56	58.51
458.74	124.05
458.93	191.92
459.11	161.50
459.29	105.32
459.48	201.29
459.66	149.79
459.84	161.50
460.03	180.22
460.21	124.05
460.39	173.20
460.57	135.75
460.76	138.09
460.94	147.45
461.12	182.56
461.31	112.35
461.49	84.26
461.67	112.35
461.85	133.41
462.04	133.41
462.22	702.16
462.40	112.35
462.59	140.43
462.77	140.43
462.95	201.29
463.13	102.98
463.32	175.54
463.50	191.92
463.68	248.10
463.86	102.98
464.05	184.90
464.23	175.54
464.41	149.79
464.59	152.13
464.78	175.54
464.96	46.81
465.14	142.77
465.32	159.16
465.50	140.43
465.69	145.11
465.87	91.28
466.05	72.56
466.23	138.09
466.41	145.11
466.60	117.03
466.78	110.01
466.96	159.16
467.14	117.03
467.32	166.18
467.51	140.43
467.69	166.18
467.87	215.33
468.05	189.58
468.23	196.60
468.41	163.84
468.60	154.48
468.78	93.62
468.96	191.92
469.14	145.11
469.32	149.79
469.50	53.83
469.69	124.05
469.87	135.75
470.05	161.50
470.23	121.71
470.41	84.26
470.59	95.96
470.77	77.24
470.95	114.69
471.14	142.77
471.32	102.98
471.50	224.69
471.68	91.28
471.86	102.98
472.04	121.71
472.22	124.05
472.40	135.75
472.58	114.69
472.77	173.20
472.95	147.45
473.13	163.84
473.31	210.65
473.49	170.86
473.67	140.43
473.85	203.63
474.03	147.45
474.21	166.18
474.39	98.30
474.57	217.67
474.75	124.05
474.93	156.82
475.12	112.35
475.30	189.58
475.48	154.48
475.66	74.90
475.84	117.03
476.02	44.47
476.20	95.96
476.38	173.20
476.56	224.69
476.74	126.39
476.92	168.52
477.10	259.80
477.28	110.01
477.46	131.07
477.64	149.79
477.82	149.79
478.00	147.45
478.18	215.33
478.36	107.66
478.54	175.54
478.72	203.63
478.90	229.37
479.08	117.03
479.26	100.64
479.44	168.52
479.62	102.98
479.80	147.45
479.98	156.82
480.16	53.83
480.34	187.24
480.52	142.77
480.70	203.63
480.88	154.48
481.06	184.90
481.24	222.35
481.41	182.56
481.59	168.52
481.77	168.52
481.95	128.73
482.13	121.71
482.31	81.92
482.49	102.98
482.67	149.79
482.85	117.03
483.03	135.75
483.21	177.88
483.39	131.07
483.57	112.35
483.74	149.79
483.92	142.77
484.10	152.13
484.28	138.09
484.46	231.71
484.64	154.48
484.82	175.54
485.00	138.09
485.18	168.52
485.35	154.48
485.53	98.30
485.71	163.84
485.89	124.05
486.07	182.56
486.25	210.65
486.43	135.75
486.61	121.71
486.78	163.84
486.96	124.05
487.14	121.71
487.32	124.05
487.50	112.35
487.68	224.69
487.85	198.95
488.03	149.79
488.21	241.08
488.39	170.86
488.57	170.86
488.75	112.35
488.92	383.85
489.10	168.52
489.28	229.37
489.46	210.65
489.64	154.48
489.81	180.22
489.99	187.24
490.17	131.07
490.35	205.97
490.53	117.03
490.70	173.20
490.88	184.90
491.06	149.79
491.24	145.11
491.41	163.84
491.59	159.16
491.77	163.84
491.95	107.66
492.13	161.50
492.30	170.86
492.48	121.71
492.66	189.58
492.84	100.64
493.01	135.75
493.19	128.73
493.37	168.52
493.54	205.97
493.72	184.90
493.90	114.69
494.08	156.82
494.25	243.42
494.43	236.39
494.61	145.11
494.79	173.20
494.96	140.43
495.14	152.13
495.32	98.30
495.49	159.16
495.67	255.12
495.85	180.22
496.02	140.43
496.20	140.43
496.38	142.77
496.55	170.86
496.73	100.64
496.91	159.16
497.09	217.67
497.26	117.03
497.44	159.16
497.62	210.65
497.79	184.90
497.97	173.20
498.14	177.88
498.32	175.54
498.50	203.63
498.67	189.58
498.85	243.42
499.03	194.26
499.20	187.24
499.38	220.01
499.56	203.63
499.73	177.88
499.91	189.58
500.08	252.78
500.26	133.41
500.44	161.50
500.61	159.16
500.79	154.48
500.97	168.52
501.14	290.23
501.32	161.50
501.49	201.29
501.67	198.95
501.84	227.03
502.02	74.90
502.20	191.92
502.37	117.03
502.55	182.56
502.72	215.33
502.90	119.37
503.07	140.43
503.25	248.10
503.43	177.88
503.60	217.67
503.78	119.37
503.95	131.07
504.13	177.88
504.30	182.56
504.48	177.88
504.65	208.31
504.83	250.44
505.01	182.56
505.18	255.12
505.36	222.35
505.53	119.37
505.71	182.56
505.88	297.25
506.06	189.58
506.23	161.50
506.41	198.95
506.58	234.05
506.76	159.16
506.93	128.73
507.11	170.86
507.28	135.75
507.46	170.86
507.63	215.33
507.81	248.10
507.98	154.48
508.16	168.52
508.33	294.91
508.50	203.63
508.68	243.42
508.85	128.73
509.03	102.98
509.20	147.45
509.38	184.90
509.55	210.65
509.73	194.26
509.90	145.11
510.08	180.22
510.25	166.18
510.42	140.43
510.60	189.58
510.77	236.39
510.95	170.86
511.12	224.69
511.30	234.05
511.47	201.29
511.64	229.37
511.82	189.58
511.99	152.13
512.17	168.52
512.34	177.88
512.51	227.03
512.69	205.97
512.86	201.29
513.04	161.50
513.21	187.24
513.38	217.67
513.56	168.52
513.73	212.99
513.90	173.20
514.08	149.79
514.25	271.50
514.43	217.67
514.60	191.92
514.77	156.82
514.95	210.65
515.12	159.16
515.29	145.11
515.47	201.29
515.64	152.13
515.81	210.65
515.99	168.52
516.16	203.63
516.33	262.14
516.51	182.56
516.68	147.45
516.85	231.71
517.03	161.50
517.20	276.18
517.37	276.18
517.54	175.54
517.72	173.20
517.89	175.54
518.06	168.52
518.24	159.16
518.41	330.02
518.58	234.05
518.75	166.18
518.93	180.22
519.10	212.99
519.27	168.52
519.45	152.13
519.62	119.37
519.79	252.78
519.96	135.75
520.14	205.97
520.31	205.97
520.48	189.58
520.65	245.76
520.83	198.95
521.00	201.29
521.17	159.16
521.34	203.63
521.52	152.13
521.69	168.52
521.86	170.86
522.03	238.73
522.20	238.73
522.38	194.26
522.55	273.84
522.72	142.77
522.89	205.97
523.07	210.65
523.24	262.14
523.41	205.97
523.58	210.65
523.75	140.43
523.92	194.26
524.10	189.58
524.27	182.56
524.44	142.77
524.61	245.76
524.78	198.95
524.96	224.69
525.13	245.76
525.30	257.46
525.47	184.90
525.64	315.97
525.81	173.20
525.98	189.58
526.16	170.86
526.33	196.60
526.50	149.79
526.67	196.60
526.84	196.60
527.01	149.79
527.18	187.24
527.36	154.48
527.53	145.11
527.70	133.41
527.87	203.63
528.04	234.05
528.21	187.24
528.38	304.27
528.55	198.95
528.72	269.16
528.89	318.31
529.07	229.37
529.24	231.71
529.41	227.03
529.58	149.79
529.75	215.33
529.92	180.22
530.09	163.84
530.26	313.63
530.43	250.44
530.60	210.65
530.77	133.41
530.94	203.63
531.11	198.95
531.28	203.63
531.46	217.67
531.63	236.39
531.80	201.29
531.97	241.08
532.14	215.33
532.31	161.50
532.48	184.90
532.65	271.50
532.82	208.31
532.99	217.67
533.16	191.92
533.33	187.24
533.50	234.05
533.67	194.26
533.84	238.73
534.01	255.12
534.18	189.58
534.35	243.42
534.52	166.18
534.69	229.37
534.86	205.97
535.03	187.24
535.20	241.08
535.37	168.52
535.54	241.08
535.71	210.65
535.88	220.01
536.05	173.20
536.22	215.33
536.38	191.92
536.55	234.05
536.72	205.97
536.89	173.20
537.06	266.82
537.23	245.76
537.40	177.88
537.57	145.11
537.74	278.52
537.91	152.13
538.08	236.39
538.25	208.31
538.42	184.90
538.59	227.03
538.75	133.41
538.92	203.63
539.09	215.33
539.26	191.92
539.43	229.37
539.60	365.12
539.77	496.19
539.94	421.30
540.11	381.51
540.28	264.48
540.44	285.55
540.61	187.24
540.78	189.58
540.95	273.84
541.12	227.03
541.29	138.09
541.46	224.69
541.62	217.67
541.79	140.43
541.96	175.54
542.13	220.01
542.30	166.18
542.47	145.11
542.63	133.41
542.80	283.20
542.97	198.95
543.14	182.56
543.31	198.95
543.48	229.37
543.64	140.43
543.81	273.84
543.98	201.29
544.15	175.54
544.32	184.90
544.48	241.08
544.65	194.26
544.82	168.52
544.99	269.16
545.16	210.65
545.32	149.79
545.49	145.11
545.66	212.99
545.83	191.92
546.00	154.48
546.16	180.22
546.33	173.20
546.50	145.11
546.67	241.08
546.83	208.31
547.00	236.39
547.17	194.26
547.34	173.20
547.50	135.75
547.67	170.86
547.84	182.56
548.00	201.29
548.17	196.60
548.34	215.33
548.51	177.88
548.67	142.77
548.84	131.07
549.01	187.24
549.18	159.16
549.34	283.20
549.51	210.65
549.68	227.03
549.84	271.50
550.01	145.11
550.18	269.16
550.34	224.69
550.51	250.44
550.68	215.33
550.84	191.92
551.01	187.24
551.18	241.08
551.34	187.24
551.51	184.90
551.68	198.95
551.84	234.05
552.01	166.18
552.18	184.90
552.34	187.24
552.51	220.01
552.68	212.99
552.84	227.03
553.01	248.10
553.18	248.10
553.34	184.90
553.51	205.97
553.67	196.60
553.84	227.03
554.01	180.22
554.17	255.12
554.34	243.42
554.51	285.55
554.67	177.88
554.84	245.76
555.00	170.86
555.17	156.82
555.33	152.13
555.50	184.90
555.67	189.58
555.83	194.26
556.00	255.12
556.16	379.17
556.33	189.58
556.50	196.60
556.66	161.50
556.83	215.33
556.99	194.26
557.16	229.37
557.32	231.71
557.49	241.08
557.65	177.88
557.82	217.67
557.98	234.05
558.15	215.33
558.32	248.10
558.48	191.92
558.65	210.65
558.81	241.08
558.98	208.31
559.14	142.77
559.31	161.50
559.47	175.54
559.64	98.30
559.80	198.95
559.97	154.48
560.13	166.18
560.30	259.80
560.46	227.03
560.63	294.91
560.79	135.75
560.96	198.95
561.12	205.97
561.29	145.11
561.45	173.20
561.61	205.97
561.78	297.25
561.94	86.60
562.11	175.54
562.27	191.92
562.44	180.22
562.60	159.16
562.77	224.69
562.93	201.29
563.10	177.88
563.26	220.01
563.42	236.39
563.59	161.50
563.75	147.45
563.92	184.90
564.08	241.08
564.24	234.05
564.41	152.13
564.57	210.65
564.74	128.73
564.90	198.95
565.07	203.63
565.23	187.24
565.39	182.56
565.56	285.55
565.72	222.35
565.88	201.29
566.05	177.88
566.21	182.56
566.38	212.99
566.54	224.69
566.70	170.86
566.87	236.39
567.03	135.75
567.19	177.88
567.36	191.92
567.52	154.48
567.68	208.31
567.85	131.07
568.01	152.13
568.17	156.82
568.34	145.11
568.50	234.05
568.66	194.26
568.83	222.35
568.99	227.03
569.15	245.76
569.32	110.01
569.48	140.43
569.64	184.90
569.81	128.73
569.97	140.43
570.13	191.92
570.30	138.09
570.46	154.48
570.62	189.58
570.78	205.97
570.95	220.01
571.11	201.29
571.27	224.69
571.43	152.13
571.60	252.78
571.76	163.84
571.92	245.76
572.09	241.08
572.25	252.78
572.41	201.29
572.57	154.48
572.74	259.80
572.90	166.18
573.06	194.26
573.22	203.63
573.38	126.39
573.55	205.97
573.71	163.84
573.87	215.33
574.03	156.82
574.20	114.69
574.36	212.99
574.52	194.26
574.68	161.50
574.84	212.99
575.01	177.88
575.17	203.63
575.33	180.22
575.49	182.56
575.65	205.97
575.82	177.88
575.98	294.91
576.14	308.95
576.30	280.86
576.46	255.12
576.62	330.02
576.79	224.69
576.95	259.80
577.11	196.60
577.27	180.22
577.43	229.37
577.59	217.67
577.75	100.64
577.92	154.48
578.08	163.84
578.24	189.58
578.40	191.92
578.56	184.90
578.72	182.56
578.88	224.69
579.04	187.24
579.21	276.18
579.37	243.42
579.53	161.50
579.69	149.79
579.85	205.97
580.01	224.69
580.17	266.82
580.33	220.01
580.49	159.16
580.65	194.26
580.82	245.76
580.98	222.35
581.14	259.80
581.30	283.20
581.46	269.16
581.62	234.05
581.78	306.61
581.94	313.63
582.10	205.97
582.26	180.22
582.42	205.97
582.58	231.71
582.74	262.14
582.90	259.80
583.06	210.65
583.22	159.16
583.38	231.71
583.54	250.44
583.70	222.35
583.86	297.25
584.02	313.63
584.18	325.33
584.34	379.17
584.50	835.57
584.66	5650.05
584.82	13418.29
584.98	18380.23
585.14	15740.10
585.30	10050.26
585.46	6115.82
585.62	3899.33
585.78	1823.28
585.94	823.87
586.10	547.69
586.26	315.97
586.42	372.15
586.58	238.73
586.74	259.80
586.90	227.03
587.06	205.97
587.22	250.44
587.38	203.63
587.54	407.25
587.70	990.05
587.86	1401.98
588.02	1465.18
588.18	1050.90
588.34	791.10
588.49	582.79
588.65	341.72
588.81	217.67
588.97	159.16
589.13	259.80
589.29	189.58
589.45	191.92
589.61	212.99
589.77	264.48
589.93	271.50
590.08	173.20
590.24	196.60
590.40	166.18
590.56	236.39
590.72	182.56
590.88	133.41
591.04	149.79
591.20	142.77
591.35	205.97
591.51	154.48
591.67	198.95
591.83	217.67
591.99	208.31
592.15	248.10
592.31	156.82
592.46	203.63
592.62	224.69
592.78	194.26
592.94	224.69
593.10	205.97
593.26	245.76
593.41	269.16
593.57	210.65
593.73	334.70
593.89	866.00
594.05	1769.44
594.20	2317.13
594.36	2296.07
594.52	1547.09
594.68	1137.50
594.84	690.46
594.99	430.66
595.15	301.93
595.31	208.31
595.47	301.93
595.62	212.99
595.78	177.88
595.94	149.79
596.10	217.67
596.25	203.63
596.41	145.11
596.57	154.48
596.73	175.54
596.88	283.20
597.04	472.79
597.20	678.76
597.36	727.91
597.51	582.79
597.67	418.96
597.83	339.38
597.99	212.99
598.14	285.55
598.30	320.65
598.46	248.10
598.61	159.16
598.77	217.67
598.93	180.22
599.09	177.88
599.24	180.22
599.40	208.31
599.56	140.43
599.71	177.88
599.87	180.22
600.03	189.58
600.18	285.55
600.34	283.20
600.50	189.58
600.65	152.13
600.81	259.80
600.97	180.22
601.12	259.80
601.28	287.89
601.44	128.73
601.59	220.01
601.75	114.69
601.91	198.95
602.06	175.54
602.22	299.59
602.37	355.76
602.53	575.77
602.69	777.06
602.84	709.18
603.00	641.31
603.16	456.40
603.31	393.21
603.47	220.01
603.62	175.54
603.78	285.55
603.94	198.95
604.09	210.65
604.25	173.20
604.40	208.31
604.56	198.95
604.71	187.24
604.87	241.08
605.03	198.95
605.18	189.58
605.34	259.80
605.49	163.84
605.65	191.92
605.80	210.65
605.96	269.16
606.12	198.95
606.27	243.42
606.43	187.24
606.58	227.03
606.74	339.38
606.89	994.73
607.05	1640.72
607.20	2036.27
607.36	1743.70
607.51	1165.59
607.67	915.15
607.82	603.86
607.98	451.72
608.13	280.86
608.29	166.18
608.44	250.44
608.60	210.65
608.75	229.37
608.91	416.62
609.06	1467.52
609.22	2700.98
609.37	3297.81
609.53	2874.18
609.68	1991.80
609.84	1315.38
609.99	1050.90
610.15	596.84
610.30	355.76
610.46	248.10
610.61	241.08
610.76	191.92
610.92	238.73
611.07	119.37
611.23	238.73
611.38	201.29
611.54	175.54
611.69	259.80
611.84	166.18
612.00	189.58
612.15	133.41
612.31	234.05
612.46	262.14
612.62	241.08
612.77	252.78
612.92	231.71
613.08	264.48
613.23	229.37
613.39	241.08
613.54	299.59
613.69	1430.07
613.85	3520.17
614.00	5043.85
614.15	5341.10
614.31	3777.62
614.46	2562.89
614.62	1804.55
614.77	1137.50
614.92	627.26
615.08	301.93
615.23	311.29
615.38	283.20
615.54	215.33
615.69	308.95
615.84	898.77
616.00	1254.53
616.15	1514.33
616.30	1329.42
616.46	894.08
616.61	748.97
616.76	493.85
616.92	369.80
617.07	212.99
617.22	173.20
617.37	222.35
617.53	278.52
617.68	170.86
617.83	145.11
617.99	255.12
618.14	245.76
618.29	156.82
618.45	168.52
618.60	124.05
618.75	191.92
618.90	170.86
619.06	194.26
619.21	184.90
619.36	163.84
619.51	217.67
619.67	156.82
619.82	133.41
619.97	170.86
620.12	170.86
620.28	152.13
620.43	177.88
620.58	145.11
620.73	166.18
620.89	187.24
621.04	212.99
621.19	580.45
621.34	847.27
621.49	990.05
621.65	866.00
621.80	704.50
621.95	461.09
622.10	409.59
622.25	231.71
622.41	180.22
622.56	252.78
622.71	177.88
622.86	173.20
623.01	159.16
623.16	173.20
623.32	187.24
623.47	159.16
623.62	208.31
623.77	194.26
623.92	180.22
624.07	177.88
624.23	180.22
624.38	117.03
624.53	170.86
624.68	198.95
624.83	215.33
624.98	222.35
625.13	184.90
625.29	187.24
625.44	208.31
625.59	198.95
625.74	131.07
625.89	308.95
626.04	748.97
626.19	1900.52
626.34	2853.11
626.49	2853.11
626.65	2167.34
626.80	1533.05
626.95	1111.75
627.10	664.71
627.25	428.32
627.40	266.82
627.55	250.44
627.70	194.26
627.85	135.75
628.00	124.05
628.15	184.90
628.30	196.60
628.45	133.41
628.60	180.22
628.76	245.76
628.91	156.82
629.06	182.56
629.21	182.56
629.36	191.92
629.51	86.60
629.66	128.73
629.81	180.22
629.96	407.25
630.11	760.67
630.26	880.04
630.41	746.63
630.56	613.22
630.71	425.98
630.86	301.93
631.01	163.84
631.16	198.95
631.31	191.92
631.46	184.90
631.61	124.05
631.76	145.11
631.91	212.99
632.06	182.56
632.21	168.52
632.36	220.01
632.51	245.76
632.66	229.37
632.81	344.06
632.96	1156.22
633.10	1776.47
633.25	2113.50
633.40	1671.14
633.55	1275.59
633.70	847.27
633.85	587.47
634.00	334.70
634.15	184.90
634.30	166.18
634.45	161.50
634.60	212.99
634.75	98.30
634.90	163.84
635.05	145.11
635.19	189.58
635.34	194.26
635.49	243.42
635.64	131.07
635.79	170.86
635.94	212.99
636.09	182.56
636.24	91.28
636.39	102.98
636.53	220.01
636.68	147.45
636.83	173.20
636.98	161.50
637.13	147.45
637.28	196.60
637.43	201.29
637.57	245.76
637.72	999.41
637.87	2342.88
638.02	3440.59
638.17	3548.25
638.32	2665.87
638.46	1907.54
638.61	1439.43
638.76	823.87
638.91	423.64
639.06	311.29
639.20	308.95
639.35	241.08
639.50	400.23
639.65	1495.60
639.80	3538.89
639.94	5181.95
640.09	5528.35
640.24	4238.71
640.39	2960.78
640.54	2003.50
640.68	1212.40
640.83	791.10
640.98	409.59
641.13	320.65
641.27	236.39
641.42	180.22
641.57	180.22
641.72	166.18
641.86	180.22
642.01	135.75
642.16	205.97
642.31	128.73
642.45	135.75
642.60	131.07
642.75	203.63
642.90	175.54
643.04	196.60
643.19	142.77
643.34	194.26
643.48	152.13
643.63	126.39
643.78	175.54
643.93	154.48
644.07	138.09
644.22	177.88
644.37	152.13
644.51	168.52
644.66	220.01
644.81	234.05
644.95	205.97
645.10	126.39
645.25	145.11
645.39	175.54
645.54	84.26
645.69	121.71
645.83	145.11
645.98	135.75
646.13	189.58
646.27	217.67
646.42	121.71
646.57	173.20
646.71	175.54
646.86	173.20
647.00	187.24
647.15	149.79
647.30	110.01
647.44	145.11
647.59	149.79
647.74	117.03
647.88	107.66
648.03	170.86
648.17	147.45
648.32	131.07
648.47	166.18
648.61	126.39
648.76	147.45
648.90	142.77
649.05	154.48
649.20	131.07
649.34	156.82
649.49	140.43
649.63	177.88
649.78	210.65
649.92	273.84
650.07	615.56
650.21	1596.25
650.36	2555.86
650.51	3129.30
650.65	2504.37
650.80	1767.10
650.94	1231.12
651.09	854.30
651.23	507.90
651.38	308.95
651.52	243.42
651.67	135.75
651.81	163.84
651.96	159.16
652.10	252.78
652.25	140.43
652.39	145.11
652.54	126.39
652.68	283.20
652.83	610.88
652.97	964.30
653.12	1090.69
653.26	968.98
653.41	774.72
653.55	587.47
653.70	416.62
653.84	297.25
653.99	236.39
654.13	124.05
654.27	121.71
654.42	72.56
654.56	46.81
654.71	140.43
654.85	42.13
655.00	168.52
655.14	72.56
655.29	138.09
655.43	182.56
655.57	84.26
655.72	133.41
655.86	102.98
656.01	138.09
656.15	203.63
656.30	147.45
656.44	177.88
656.58	91.28
656.73	95.96
656.87	102.98
657.01	93.62
657.16	93.62
657.30	152.13
657.45	180.22
657.59	156.82
657.73	154.48
657.88	149.79
658.02	170.86
658.16	112.35
658.31	152.13
658.45	67.88
658.60	187.24
658.74	205.97
658.88	100.64
659.03	159.16
659.17	163.84
659.31	292.57
659.46	704.50
659.60	1348.15
659.74	1519.01
659.89	1371.55
660.03	994.73
660.17	760.67
660.32	484.49
660.46	290.23
660.60	271.50
660.74	234.05
660.89	124.05
661.03	145.11
661.17	168.52
661.32	107.66
661.46	142.77
661.60	100.64
661.74	124.05
661.89	170.86
662.03	149.79
662.17	128.73
662.31	84.26
662.46	222.35
662.60	124.05
662.74	121.71
662.88	142.77
663.03	177.88
663.17	126.39
663.31	166.18
663.45	175.54
663.60	142.77
663.74	131.07
663.88	145.11
664.02	138.09
664.17	177.88
664.31	203.63
664.45	114.69
664.59	220.01
664.73	117.03
664.88	126.39
665.02	191.92
665.16	135.75
665.30	177.88
665.44	196.60
665.59	163.84
665.73	156.82
665.87	215.33
666.01	140.43
666.15	117.03
666.29	112.35
666.44	180.22
666.58	257.46
666.72	98.30
666.86	145.11
667.00	217.67
667.14	229.37
667.28	580.45
667.43	1345.81
667.57	2265.64
667.71	2619.06
667.85	2113.50
667.99	1638.38
668.13	1078.99
668.27	697.48
668.41	458.74
668.56	320.65
668.70	231.71
668.84	205.97
668.98	168.52
669.12	147.45
669.26	147.45
669.40	149.79
669.54	173.20
669.68	180.22
669.82	145.11
669.96	112.35
670.10	102.98
670.25	93.62
670.39	124.05
670.53	147.45
670.67	138.09
670.81	49.15
670.95	126.39
671.09	248.10
671.23	582.79
671.37	1151.54
671.51	1486.24
671.65	1619.65
671.79	1338.79
671.93	959.62
672.07	648.33
672.21	400.23
672.35	222.35
672.49	208.31
672.63	156.82
672.77	138.09
672.91	227.03
673.05	95.96
673.19	105.32
673.33	133.41
673.47	255.12
673.61	128.73
673.75	142.77
673.89	11.70
674.03	140.43
674.17	142.77
674.31	121.71
674.45	161.50
674.59	149.79
674.73	227.03
674.87	189.58
675.01	112.35
675.15	72.56
675.29	159.16
675.43	166.18
675.56	175.54
675.70	170.86
675.84	177.88
675.98	140.43
676.12	102.98
676.26	170.86
676.40	135.75
676.54	156.82
676.68	63.19
676.82	133.41
676.96	105.32
677.10	105.32
677.23	168.52
677.37	124.05
677.51	149.79
677.65	227.03
677.79	119.37
677.93	156.82
678.07	86.60
678.21	145.11
678.34	128.73
678.48	191.92
678.62	140.43
678.76	86.60
678.90	70.22
679.04	100.64
679.18	117.03
679.31	95.96
679.45	166.18
679.59	79.58
679.73	131.07
679.87	18.72
680.00	159.16
680.14	44.47
680.28	131.07
680.42	128.73
680.56	194.26
680.70	63.19
680.83	79.58
680.97	126.39
681.11	166.18
681.25	91.28
681.39	126.39
681.52	98.30
681.66	152.13
681.80	117.03
681.94	95.96
682.07	217.67
682.21	84.26
682.35	93.62
682.49	114.69
682.62	182.56
682.76	149.79
682.90	128.73
683.04	182.56
683.17	86.60
683.31	67.88
683.45	166.18
683.59	119.37
683.72	161.50
683.86	142.77
684.00	65.54
684.13	152.13
684.27	191.92
684.41	145.11
684.55	154.48
684.68	121.71
684.82	140.43
684.96	135.75
685.09	182.56
685.23	161.50
685.37	140.43
685.50	154.48
685.64	142.77
685.78	32.77
685.91	250.44
686.05	154.48
686.19	142.77
686.32	102.98
686.46	131.07
686.60	88.94
686.73	133.41
686.87	161.50
687.01	93.62
687.14	88.94
687.28	145.11
687.42	126.39
687.55	65.54
687.69	140.43
687.82	39.79
687.96	112.35
688.10	88.94
688.23	72.56
688.37	152.13
688.50	175.54
688.64	58.51
688.78	112.35
688.91	180.22
689.05	126.39
689.18	131.07
689.32	187.24
689.46	140.43
689.59	100.64
689.73	145.11
689.86	126.39
690.00	124.05
690.13	138.09
690.27	102.98
690.41	105.32
690.54	133.41
690.68	79.58
690.81	37.45
690.95	124.05
691.08	117.03
691.22	81.92
691.35	163.84
691.49	159.16
691.62	60.85
691.76	119.37
691.89	114.69
692.03	67.88
692.16	154.48
692.30	145.11
692.43	208.31
692.57	638.97
692.70	964.30
692.84	1217.08
692.97	1083.67
693.11	718.54
693.24	601.52
693.38	454.06
693.51	290.23
693.65	243.42
693.78	205.97
693.92	257.46
694.05	163.84
694.19	100.64
694.32	65.54
694.45	124.05
694.59	140.43
694.72	117.03
694.86	112.35
694.99	142.77
695.13	107.66
695.26	86.60
695.39	112.35
695.53	145.11
695.66	140.43
695.80	131.07
695.93	138.09
696.07	168.52
696.20	138.09
696.33	156.82
696.47	234.05
696.60	117.03
696.73	156.82
696.87	58.51
697.00	161.50
697.14	102.98
697.27	110.01
697.40	212.99
697.54	95.96
697.67	72.56
697.80	128.73
697.94	53.83
698.07	105.32
698.21	126.39
698.34	91.28
698.47	30.43
698.61	53.83
698.74	88.94
698.87	84.26
699.01	154.48
699.14	112.35
699.27	126.39
699.40	184.90
699.54	147.45
699.67	95.96
699.80	58.51
699.94	46.81
700.07	133.41
700.20	91.28
700.34	88.94
700.47	0.00
700.60	32.77
700.73	86.60
700.87	84.26
701.00	72.56
701.13	100.64
701.26	117.03
701.40	65.54
701.53	105.32
701.66	107.66
701.79	112.35
701.93	98.30
702.06	203.63
702.19	145.11
702.32	126.39
702.46	163.84
702.59	166.18
702.72	346.40
702.85	770.04
702.99	1511.99
703.12	2106.48
703.25	2190.74
703.38	1879.45
703.51	1563.48
703.65	1203.04
703.78	833.23
703.91	561.73
704.04	414.27
704.17	285.55
704.31	170.86
704.44	189.58
704.57	163.84
704.70	133.41
704.83	133.41
704.96	81.92
705.10	140.43
705.23	142.77
>>>>>End Processed Spectral Data<<<<<
