SpectraSuite Data File
++++++++++++++++++++++++++++++++++++
Date: Fri Oct 04 11:46:59 GMT-05:00 2013
User: price-jones
Dark Spectrum Present: No
Reference Spectrum Present: No
Number of Sampled Component Spectra: 1
Spectrometers: USB2+H05261
Integration Time (usec): 100000 (USB2+H05261)
Spectra Averaged: 1 (USB2+H05261)
Boxcar Smoothing: 0 (USB2+H05261)
Correct for Electrical Dark: No (USB2+H05261)
Strobe/Lamp Enabled: No (USB2+H05261)
Correct for Detector Non-linearity: No (USB2+H05261)
Correct for Stray Light: No (USB2+H05261)
Number of Pixels in Processed Spectrum: 2048
>>>>>Begin Processed Spectral Data<<<<<
365.73	74.90
365.92	74.90
366.12	74.90
366.32	14.04
366.52	0.00
366.72	0.00
366.91	0.00
367.11	7.02
367.31	0.00
367.51	0.00
367.70	0.00
367.90	0.00
368.10	0.00
368.30	0.00
368.49	0.00
368.69	0.00
368.89	2.34
369.09	0.00
369.28	0.00
369.48	0.00
369.68	0.00
369.87	0.00
370.07	0.00
370.27	0.00
370.47	44.47
370.66	39.79
370.86	46.81
371.06	0.00
371.25	131.07
371.45	4.68
371.65	32.77
371.84	49.15
372.04	74.90
372.24	39.79
372.44	58.51
372.63	81.92
372.83	138.09
373.03	51.49
373.22	81.92
373.42	91.28
373.62	70.22
373.81	112.35
374.01	156.82
374.21	128.73
374.40	107.66
374.60	114.69
374.79	117.03
374.99	86.60
375.19	114.69
375.38	163.84
375.58	154.48
375.78	138.09
375.97	102.98
376.17	175.54
376.37	86.60
376.56	107.66
376.76	79.58
376.95	102.98
377.15	98.30
377.35	159.16
377.54	124.05
377.74	65.54
377.93	42.13
378.13	121.71
378.33	67.88
378.52	124.05
378.72	86.60
378.91	84.26
379.11	44.47
379.31	88.94
379.50	70.22
379.70	86.60
379.89	175.54
380.09	117.03
380.28	32.77
380.48	100.64
380.68	86.60
380.87	28.09
381.07	114.69
381.26	119.37
381.46	88.94
381.65	93.62
381.85	128.73
382.04	110.01
382.24	128.73
382.43	46.81
382.63	98.30
382.83	93.62
383.02	86.60
383.22	56.17
383.41	14.04
383.61	32.77
383.80	110.01
384.00	91.28
384.19	121.71
384.39	21.06
384.58	95.96
384.78	56.17
384.97	93.62
385.17	117.03
385.36	93.62
385.56	81.92
385.75	35.11
385.95	35.11
386.14	119.37
386.34	60.85
386.53	114.69
386.72	131.07
386.92	100.64
387.11	65.54
387.31	63.19
387.50	114.69
387.70	44.47
387.89	53.83
388.09	72.56
388.28	79.58
388.48	46.81
388.67	196.60
388.86	51.49
389.06	44.47
389.25	95.96
389.45	100.64
389.64	58.51
389.84	149.79
390.03	149.79
390.22	37.45
390.42	140.43
390.61	93.62
390.81	21.06
391.00	25.75
391.19	84.26
391.39	72.56
391.58	124.05
391.78	67.88
391.97	49.15
392.16	74.90
392.36	51.49
392.55	60.85
392.75	142.77
392.94	30.43
393.13	142.77
393.33	98.30
393.52	149.79
393.71	163.84
393.91	110.01
394.10	107.66
394.29	152.13
394.49	114.69
394.68	105.32
394.88	74.90
395.07	84.26
395.26	81.92
395.46	145.11
395.65	74.90
395.84	98.30
396.04	119.37
396.23	74.90
396.42	77.24
396.62	131.07
396.81	84.26
397.00	79.58
397.19	126.39
397.39	56.17
397.58	117.03
397.77	133.41
397.97	81.92
398.16	105.32
398.35	93.62
398.55	170.86
398.74	119.37
398.93	84.26
399.12	107.66
399.32	51.49
399.51	114.69
399.70	133.41
399.90	72.56
400.09	119.37
400.28	117.03
400.47	170.86
400.67	102.98
400.86	86.60
401.05	105.32
401.24	112.35
401.44	159.16
401.63	28.09
401.82	154.48
402.01	79.58
402.21	140.43
402.40	14.04
402.59	117.03
402.78	32.77
402.97	72.56
403.17	191.92
403.36	84.26
403.55	114.69
403.74	187.24
403.93	205.97
404.13	149.79
404.32	100.64
404.51	161.50
404.70	210.65
404.89	74.90
405.09	140.43
405.28	135.75
405.47	110.01
405.66	91.28
405.85	95.96
406.05	112.35
406.24	170.86
406.43	128.73
406.62	98.30
406.81	117.03
407.00	133.41
407.20	128.73
407.39	159.16
407.58	175.54
407.77	79.58
407.96	128.73
408.15	119.37
408.34	142.77
408.54	39.79
408.73	110.01
408.92	49.15
409.11	128.73
409.30	201.29
409.49	11.70
409.68	70.22
409.87	112.35
410.07	86.60
410.26	110.01
410.45	154.48
410.64	93.62
410.83	121.71
411.02	18.72
411.21	105.32
411.40	35.11
411.59	74.90
411.78	79.58
411.98	102.98
412.17	56.17
412.36	70.22
412.55	161.50
412.74	88.94
412.93	131.07
413.12	102.98
413.31	114.69
413.50	102.98
413.69	72.56
413.88	156.82
414.07	124.05
414.26	98.30
414.45	145.11
414.64	128.73
414.83	98.30
415.02	131.07
415.22	79.58
415.41	147.45
415.60	180.22
415.79	86.60
415.98	177.88
416.17	91.28
416.36	100.64
416.55	58.51
416.74	135.75
416.93	215.33
417.12	77.24
417.31	166.18
417.50	105.32
417.69	252.78
417.88	222.35
418.07	154.48
418.26	175.54
418.45	273.84
418.64	168.52
418.83	196.60
419.02	154.48
419.21	182.56
419.39	86.60
419.58	184.90
419.77	77.24
419.96	243.42
420.15	133.41
420.34	131.07
420.53	102.98
420.72	184.90
420.91	86.60
421.10	133.41
421.29	131.07
421.48	177.88
421.67	187.24
421.86	81.92
422.05	170.86
422.24	114.69
422.43	124.05
422.61	110.01
422.80	154.48
422.99	44.47
423.18	88.94
423.37	110.01
423.56	131.07
423.75	81.92
423.94	81.92
424.13	37.45
424.32	149.79
424.50	114.69
424.69	74.90
424.88	107.66
425.07	74.90
425.26	117.03
425.45	220.01
425.64	212.99
425.83	166.18
426.01	217.67
426.20	131.07
426.39	149.79
426.58	138.09
426.77	131.07
426.96	145.11
427.15	140.43
427.33	56.17
427.52	53.83
427.71	182.56
427.90	117.03
428.09	95.96
428.28	65.54
428.46	121.71
428.65	131.07
428.84	147.45
429.03	163.84
429.22	110.01
429.40	49.15
429.59	114.69
429.78	191.92
429.97	107.66
430.16	74.90
430.34	77.24
430.53	124.05
430.72	95.96
430.91	205.97
431.10	98.30
431.28	44.47
431.47	105.32
431.66	140.43
431.85	124.05
432.03	149.79
432.22	175.54
432.41	149.79
432.60	229.37
432.79	210.65
432.97	252.78
433.16	276.18
433.35	245.76
433.54	243.42
433.72	161.50
433.91	201.29
434.10	131.07
434.28	154.48
434.47	121.71
434.66	161.50
434.85	133.41
435.03	126.39
435.22	145.11
435.41	182.56
435.59	154.48
435.78	51.49
435.97	126.39
436.16	133.41
436.34	138.09
436.53	161.50
436.72	201.29
436.90	173.20
437.09	124.05
437.28	161.50
437.46	119.37
437.65	140.43
437.84	126.39
438.02	135.75
438.21	65.54
438.40	110.01
438.58	138.09
438.77	175.54
438.96	166.18
439.14	110.01
439.33	145.11
439.52	124.05
439.70	112.35
439.89	126.39
440.08	100.64
440.26	74.90
440.45	119.37
440.63	112.35
440.82	173.20
441.01	112.35
441.19	114.69
441.38	81.92
441.57	168.52
441.75	117.03
441.94	131.07
442.12	84.26
442.31	163.84
442.50	166.18
442.68	98.30
442.87	203.63
443.05	117.03
443.24	184.90
443.43	175.54
443.61	161.50
443.80	175.54
443.98	124.05
444.17	93.62
444.35	119.37
444.54	145.11
444.73	121.71
444.91	124.05
445.10	126.39
445.28	95.96
445.47	156.82
445.65	84.26
445.84	35.11
446.02	145.11
446.21	133.41
446.39	107.66
446.58	56.17
446.77	175.54
446.95	110.01
447.14	138.09
447.32	170.86
447.51	145.11
447.69	138.09
447.88	135.75
448.06	191.92
448.25	182.56
448.43	161.50
448.62	86.60
448.80	131.07
448.99	145.11
449.17	110.01
449.36	65.54
449.54	177.88
449.73	84.26
449.91	159.16
450.10	222.35
450.28	198.95
450.46	166.18
450.65	184.90
450.83	128.73
451.02	175.54
451.20	91.28
451.39	91.28
451.57	210.65
451.76	114.69
451.94	152.13
452.13	156.82
452.31	135.75
452.49	163.84
452.68	81.92
452.86	177.88
453.05	212.99
453.23	102.98
453.42	32.77
453.60	114.69
453.78	184.90
453.97	140.43
454.15	65.54
454.34	124.05
454.52	117.03
454.70	131.07
454.89	95.96
455.07	168.52
455.26	102.98
455.44	175.54
455.62	140.43
455.81	177.88
455.99	95.96
456.17	126.39
456.36	126.39
456.54	95.96
456.73	93.62
456.91	126.39
457.09	102.98
457.28	112.35
457.46	128.73
457.64	100.64
457.83	93.62
458.01	131.07
458.19	145.11
458.38	191.92
458.56	147.45
458.74	124.05
458.93	53.83
459.11	128.73
459.29	107.66
459.48	191.92
459.66	182.56
459.84	126.39
460.03	177.88
460.21	117.03
460.39	166.18
460.57	131.07
460.76	51.49
460.94	147.45
461.12	149.79
461.31	156.82
461.49	140.43
461.67	121.71
461.85	88.94
462.04	145.11
462.22	636.63
462.40	159.16
462.59	159.16
462.77	126.39
462.95	161.50
463.13	86.60
463.32	191.92
463.50	114.69
463.68	250.44
463.86	159.16
464.05	145.11
464.23	187.24
464.41	196.60
464.59	196.60
464.78	180.22
464.96	107.66
465.14	182.56
465.32	131.07
465.50	121.71
465.69	205.97
465.87	142.77
466.05	140.43
466.23	124.05
466.41	102.98
466.60	105.32
466.78	70.22
466.96	159.16
467.14	77.24
467.32	98.30
467.51	131.07
467.69	222.35
467.87	177.88
468.05	100.64
468.23	156.82
468.41	161.50
468.60	152.13
468.78	72.56
468.96	117.03
469.14	147.45
469.32	107.66
469.50	138.09
469.69	107.66
469.87	98.30
470.05	182.56
470.23	154.48
470.41	95.96
470.59	191.92
470.77	126.39
470.95	112.35
471.14	217.67
471.32	205.97
471.50	142.77
471.68	72.56
471.86	156.82
472.04	140.43
472.22	110.01
472.40	114.69
472.58	117.03
472.77	142.77
472.95	95.96
473.13	121.71
473.31	142.77
473.49	133.41
473.67	117.03
473.85	198.95
474.03	159.16
474.21	154.48
474.39	222.35
474.57	166.18
474.75	159.16
474.93	124.05
475.12	184.90
475.30	102.98
475.48	152.13
475.66	142.77
475.84	70.22
476.02	84.26
476.20	182.56
476.38	86.60
476.56	163.84
476.74	170.86
476.92	135.75
477.10	149.79
477.28	126.39
477.46	100.64
477.64	84.26
477.82	102.98
478.00	138.09
478.18	138.09
478.36	70.22
478.54	88.94
478.72	117.03
478.90	182.56
479.08	168.52
479.26	131.07
479.44	105.32
479.62	156.82
479.80	159.16
479.98	74.90
480.16	156.82
480.34	173.20
480.52	149.79
480.70	107.66
480.88	255.12
481.06	138.09
481.24	131.07
481.41	196.60
481.59	198.95
481.77	203.63
481.95	168.52
482.13	210.65
482.31	180.22
482.49	168.52
482.67	138.09
482.85	126.39
483.03	121.71
483.21	152.13
483.39	147.45
483.57	142.77
483.74	203.63
483.92	119.37
484.10	196.60
484.28	156.82
484.46	234.05
484.64	152.13
484.82	95.96
485.00	145.11
485.18	138.09
485.35	72.56
485.53	124.05
485.71	159.16
485.89	189.58
486.07	124.05
486.25	163.84
486.43	201.29
486.61	248.10
486.78	149.79
486.96	91.28
487.14	88.94
487.32	95.96
487.50	67.88
487.68	203.63
487.85	201.29
488.03	187.24
488.21	191.92
488.39	201.29
488.57	112.35
488.75	95.96
488.92	458.74
489.10	149.79
489.28	140.43
489.46	191.92
489.64	163.84
489.81	222.35
489.99	177.88
490.17	264.48
490.35	278.52
490.53	208.31
490.70	208.31
490.88	229.37
491.06	159.16
491.24	128.73
491.41	177.88
491.59	182.56
491.77	156.82
491.95	234.05
492.13	187.24
492.30	156.82
492.48	257.46
492.66	208.31
492.84	147.45
493.01	138.09
493.19	182.56
493.37	168.52
493.54	117.03
493.72	67.88
493.90	161.50
494.08	105.32
494.25	114.69
494.43	154.48
494.61	152.13
494.79	156.82
494.96	138.09
495.14	248.10
495.32	159.16
495.49	180.22
495.67	184.90
495.85	161.50
496.02	154.48
496.20	177.88
496.38	147.45
496.55	189.58
496.73	189.58
496.91	166.18
497.09	222.35
497.26	227.03
497.44	217.67
497.62	135.75
497.79	187.24
497.97	208.31
498.14	159.16
498.32	250.44
498.50	161.50
498.67	187.24
498.85	107.66
499.03	163.84
499.20	184.90
499.38	168.52
499.56	212.99
499.73	180.22
499.91	175.54
500.08	220.01
500.26	182.56
500.44	154.48
500.61	215.33
500.79	180.22
500.97	227.03
501.14	220.01
501.32	196.60
501.49	208.31
501.67	205.97
501.84	201.29
502.02	180.22
502.20	177.88
502.37	170.86
502.55	196.60
502.72	215.33
502.90	180.22
503.07	126.39
503.25	147.45
503.43	184.90
503.60	180.22
503.78	203.63
503.95	184.90
504.13	203.63
504.30	198.95
504.48	257.46
504.65	205.97
504.83	198.95
505.01	180.22
505.18	189.58
505.36	210.65
505.53	154.48
505.71	250.44
505.88	203.63
506.06	196.60
506.23	182.56
506.41	142.77
506.58	198.95
506.76	131.07
506.93	203.63
507.11	140.43
507.28	205.97
507.46	217.67
507.63	175.54
507.81	182.56
507.98	173.20
508.16	215.33
508.33	212.99
508.50	224.69
508.68	156.82
508.85	147.45
509.03	264.48
509.20	215.33
509.38	220.01
509.55	252.78
509.73	222.35
509.90	170.86
510.08	142.77
510.25	210.65
510.42	166.18
510.60	220.01
510.77	259.80
510.95	299.59
511.12	203.63
511.30	280.86
511.47	224.69
511.64	372.15
511.82	257.46
511.99	264.48
512.17	159.16
512.34	255.12
512.51	210.65
512.69	311.29
512.86	220.01
513.04	177.88
513.21	184.90
513.38	156.82
513.56	234.05
513.73	180.22
513.90	149.79
514.08	180.22
514.25	208.31
514.43	269.16
514.60	238.73
514.77	187.24
514.95	180.22
515.12	220.01
515.29	168.52
515.47	189.58
515.64	133.41
515.81	255.12
515.99	269.16
516.16	248.10
516.33	210.65
516.51	180.22
516.68	196.60
516.85	173.20
517.03	196.60
517.20	191.92
517.37	98.30
517.54	212.99
517.72	156.82
517.89	156.82
518.06	173.20
518.24	208.31
518.41	278.52
518.58	238.73
518.75	182.56
518.93	241.08
519.10	241.08
519.27	217.67
519.45	208.31
519.62	138.09
519.79	112.35
519.96	184.90
520.14	212.99
520.31	191.92
520.48	215.33
520.65	201.29
520.83	205.97
521.00	198.95
521.17	189.58
521.34	152.13
521.52	203.63
521.69	210.65
521.86	208.31
522.03	212.99
522.20	236.39
522.38	201.29
522.55	180.22
522.72	135.75
522.89	252.78
523.07	266.82
523.24	222.35
523.41	196.60
523.58	212.99
523.75	189.58
523.92	147.45
524.10	227.03
524.27	189.58
524.44	135.75
524.61	257.46
524.78	156.82
524.96	205.97
525.13	234.05
525.30	220.01
525.47	269.16
525.64	198.95
525.81	262.14
525.98	194.26
526.16	194.26
526.33	131.07
526.50	215.33
526.67	168.52
526.84	142.77
527.01	170.86
527.18	220.01
527.36	280.86
527.53	156.82
527.70	210.65
527.87	241.08
528.04	259.80
528.21	198.95
528.38	154.48
528.55	222.35
528.72	241.08
528.89	189.58
529.07	182.56
529.24	220.01
529.41	234.05
529.58	222.35
529.75	208.31
529.92	131.07
530.09	220.01
530.26	222.35
530.43	203.63
530.60	231.71
530.77	124.05
530.94	154.48
531.11	243.42
531.28	208.31
531.46	229.37
531.63	271.50
531.80	234.05
531.97	262.14
532.14	269.16
532.31	166.18
532.48	222.35
532.65	390.87
532.82	388.53
532.99	421.30
533.16	315.97
533.33	154.48
533.50	322.99
533.67	304.27
533.84	468.11
534.01	507.90
534.18	400.23
534.35	255.12
534.52	266.82
534.69	306.61
534.86	154.48
535.03	264.48
535.20	177.88
535.37	189.58
535.54	332.36
535.71	203.63
535.88	280.86
536.05	175.54
536.22	210.65
536.38	264.48
536.55	210.65
536.72	215.33
536.89	208.31
537.06	196.60
537.23	238.73
537.40	234.05
537.57	285.55
537.74	198.95
537.91	224.69
538.08	255.12
538.25	241.08
538.42	135.75
538.59	198.95
538.75	131.07
538.92	236.39
539.09	222.35
539.26	205.97
539.43	482.15
539.60	1153.88
539.77	1870.09
539.94	1823.28
540.11	1256.87
540.28	821.53
540.44	458.74
540.61	283.20
540.78	236.39
540.95	224.69
541.12	259.80
541.29	163.84
541.46	220.01
541.62	184.90
541.79	222.35
541.96	203.63
542.13	187.24
542.30	189.58
542.47	173.20
542.63	266.82
542.80	273.84
542.97	269.16
543.14	194.26
543.31	166.18
543.48	198.95
543.64	205.97
543.81	140.43
543.98	243.42
544.15	241.08
544.32	159.16
544.48	243.42
544.65	210.65
544.82	222.35
544.99	184.90
545.16	222.35
545.32	243.42
545.49	147.45
545.66	212.99
545.83	220.01
546.00	198.95
546.16	180.22
546.33	180.22
546.50	154.48
546.67	196.60
546.83	255.12
547.00	110.01
547.17	189.58
547.34	189.58
547.50	208.31
547.67	163.84
547.84	128.73
548.00	212.99
548.17	229.37
548.34	184.90
548.51	182.56
548.67	212.99
548.84	166.18
549.01	201.29
549.18	168.52
549.34	215.33
549.51	224.69
549.68	182.56
549.84	266.82
550.01	128.73
550.18	266.82
550.34	266.82
550.51	231.71
550.68	259.80
550.84	133.41
551.01	252.78
551.18	201.29
551.34	234.05
551.51	189.58
551.68	201.29
551.84	269.16
552.01	131.07
552.18	276.18
552.34	287.89
552.51	227.03
552.68	177.88
552.84	210.65
553.01	208.31
553.18	280.86
553.34	217.67
553.51	262.14
553.67	212.99
553.84	175.54
554.01	208.31
554.17	257.46
554.34	138.09
554.51	201.29
554.67	220.01
554.84	248.10
555.00	220.01
555.17	217.67
555.33	187.24
555.50	191.92
555.67	222.35
555.83	198.95
556.00	184.90
556.16	383.85
556.33	212.99
556.50	313.63
556.66	231.71
556.83	227.03
556.99	184.90
557.16	224.69
557.32	245.76
557.49	194.26
557.65	161.50
557.82	166.18
557.98	161.50
558.15	203.63
558.32	208.31
558.48	142.77
558.65	266.82
558.81	248.10
558.98	121.71
559.14	191.92
559.31	187.24
559.47	297.25
559.64	212.99
559.80	198.95
559.97	170.86
560.13	227.03
560.30	142.77
560.46	170.86
560.63	210.65
560.79	257.46
560.96	229.37
561.12	215.33
561.29	243.42
561.45	203.63
561.61	222.35
561.78	252.78
561.94	210.65
562.11	161.50
562.27	182.56
562.44	140.43
562.60	222.35
562.77	234.05
562.93	266.82
563.10	189.58
563.26	161.50
563.42	215.33
563.59	177.88
563.75	191.92
563.92	222.35
564.08	180.22
564.24	264.48
564.41	311.29
564.57	229.37
564.74	229.37
564.90	205.97
565.07	255.12
565.23	297.25
565.39	341.72
565.56	227.03
565.72	243.42
565.88	262.14
566.05	196.60
566.21	177.88
566.38	255.12
566.54	234.05
566.70	231.71
566.87	147.45
567.03	208.31
567.19	196.60
567.36	198.95
567.52	224.69
567.68	203.63
567.85	222.35
568.01	220.01
568.17	156.82
568.34	159.16
568.50	236.39
568.66	203.63
568.83	285.55
568.99	210.65
569.15	238.73
569.32	168.52
569.48	149.79
569.64	196.60
569.81	208.31
569.97	227.03
570.13	238.73
570.30	257.46
570.46	205.97
570.62	194.26
570.78	184.90
570.95	184.90
571.11	191.92
571.27	229.37
571.43	255.12
571.60	224.69
571.76	170.86
571.92	170.86
572.09	217.67
572.25	168.52
572.41	222.35
572.57	191.92
572.74	297.25
572.90	236.39
573.06	283.20
573.22	243.42
573.38	173.20
573.55	262.14
573.71	217.67
573.87	252.78
574.03	285.55
574.20	210.65
574.36	294.91
574.52	318.31
574.68	362.78
574.84	318.31
575.01	276.18
575.17	259.80
575.33	243.42
575.49	245.76
575.65	245.76
575.82	341.72
575.98	606.20
576.14	816.85
576.30	847.27
576.46	629.60
576.62	451.72
576.79	390.87
576.95	365.12
577.11	250.44
577.27	278.52
577.43	215.33
577.59	241.08
577.75	194.26
577.92	241.08
578.08	208.31
578.24	196.60
578.40	243.42
578.56	276.18
578.72	269.16
578.88	201.29
579.04	238.73
579.21	325.33
579.37	264.48
579.53	252.78
579.69	379.17
579.85	320.65
580.01	362.78
580.17	372.15
580.33	379.17
580.49	353.42
580.65	339.38
580.82	334.70
580.98	376.83
581.14	383.85
581.30	416.62
581.46	505.56
581.62	664.71
581.78	758.33
581.94	671.73
582.10	514.92
582.26	505.56
582.42	505.56
582.58	409.59
582.74	465.77
582.90	477.47
583.06	470.45
583.22	482.15
583.38	482.15
583.54	552.37
583.70	674.07
583.86	746.63
584.02	889.40
584.18	1184.31
584.34	1504.96
584.50	3941.46
584.66	30403.56
584.82	62686.57
584.98	65535.00
585.14	65535.00
585.30	62445.49
585.46	39274.19
585.62	23929.64
585.78	10768.80
585.94	4320.63
586.10	1991.80
586.26	1217.08
586.42	1043.88
586.58	772.38
586.74	786.42
586.90	641.31
587.06	662.37
587.22	521.94
587.38	547.69
587.54	1453.47
587.70	4390.84
587.86	7662.91
588.02	8713.81
588.18	6113.48
588.34	3712.09
588.49	2504.37
588.65	1409.00
588.81	767.70
588.97	411.93
589.13	369.80
589.29	351.08
589.45	322.99
589.61	280.86
589.77	456.40
589.93	456.40
590.08	500.87
590.24	505.56
590.40	435.34
590.56	433.00
590.72	411.93
590.88	320.65
591.04	355.76
591.20	374.49
591.35	414.27
591.51	292.57
591.67	313.63
591.83	311.29
591.99	241.08
592.15	271.50
592.31	301.93
592.46	259.80
592.62	355.76
592.78	243.42
592.94	168.52
593.10	257.46
593.26	379.17
593.41	330.02
593.57	428.32
593.73	669.39
593.89	3569.32
594.05	9481.51
594.20	14633.03
594.36	14445.79
594.52	9135.11
594.68	5460.47
594.84	3719.11
594.99	1982.43
595.15	847.27
595.31	503.22
595.47	435.34
595.62	339.38
595.78	360.44
595.94	297.25
596.10	320.65
596.25	395.55
596.41	437.68
596.57	290.23
596.73	304.27
596.88	575.77
597.04	1626.67
597.20	2906.95
597.36	3566.98
597.51	2700.98
597.67	1699.23
597.83	1238.14
597.99	765.36
598.14	496.19
598.30	372.15
598.46	257.46
598.61	332.36
598.77	358.10
598.93	341.72
599.09	308.95
599.24	227.03
599.40	306.61
599.56	278.52
599.71	215.33
599.87	135.75
600.03	325.33
600.18	227.03
600.34	234.05
600.50	187.24
600.65	173.20
600.81	198.95
600.97	229.37
601.12	187.24
601.28	238.73
601.44	154.48
601.59	208.31
601.75	175.54
601.91	248.10
602.06	269.16
602.22	402.57
602.37	875.36
602.53	2129.89
602.69	3515.48
602.84	3794.01
603.00	2693.96
603.16	1783.49
603.31	1329.42
603.47	807.48
603.62	463.43
603.78	383.85
603.94	320.65
604.09	259.80
604.25	250.44
604.40	269.16
604.56	205.97
604.71	248.10
604.87	243.42
605.03	262.14
605.18	290.23
605.34	280.86
605.49	252.78
605.65	273.84
605.80	292.57
605.96	276.18
606.12	339.38
606.27	395.55
606.43	348.74
606.58	472.79
606.74	1022.81
606.89	4369.78
607.05	9277.88
607.20	12542.93
607.36	10366.23
607.51	6946.71
607.67	4234.03
607.82	2825.03
607.98	1619.65
608.13	706.84
608.29	533.64
608.44	533.64
608.60	447.04
608.75	533.64
608.91	1261.55
609.06	6663.51
609.22	15531.80
609.37	21991.67
609.53	18951.32
609.68	12589.74
609.84	7812.71
609.99	5252.16
610.15	2771.19
610.30	1193.67
610.46	645.99
610.61	411.93
610.76	454.06
610.92	404.91
611.07	346.40
611.23	376.83
611.38	334.70
611.54	341.72
611.69	278.52
611.84	290.23
612.00	344.06
612.15	243.42
612.31	514.92
612.46	716.20
612.62	922.17
612.77	758.33
612.92	695.14
613.08	669.39
613.23	610.88
613.39	554.71
613.54	990.05
613.69	6160.29
613.85	19646.46
614.00	32149.60
614.15	35213.36
614.31	24252.63
614.46	15840.75
614.62	10382.62
614.77	6256.25
614.92	2782.90
615.08	1181.97
615.23	786.42
615.38	538.32
615.54	535.98
615.69	1001.75
615.84	3602.08
616.00	6970.12
616.15	9088.30
616.30	7250.98
616.46	4758.31
616.61	3098.87
616.76	2148.61
616.92	1076.65
617.07	641.31
617.22	418.96
617.37	362.78
617.53	306.61
617.68	297.25
617.83	271.50
617.99	367.46
618.14	409.59
618.29	271.50
618.45	168.52
618.60	198.95
618.75	215.33
618.90	290.23
619.06	271.50
619.21	285.55
619.36	194.26
619.51	227.03
619.67	203.63
619.82	201.29
619.97	191.92
620.12	299.59
620.28	304.27
620.43	287.89
620.58	234.05
620.73	334.70
620.89	283.20
621.04	592.16
621.19	1966.05
621.34	3815.07
621.49	5259.18
621.65	4727.88
621.80	3222.92
621.95	2141.59
622.10	1570.50
622.25	889.40
622.41	421.30
622.56	334.70
622.71	292.57
622.86	313.63
623.01	257.46
623.16	348.74
623.32	245.76
623.47	273.84
623.62	243.42
623.77	283.20
623.92	201.29
624.07	273.84
624.23	208.31
624.38	271.50
624.53	241.08
624.68	170.86
624.83	308.95
624.98	210.65
625.13	276.18
625.29	301.93
625.44	299.59
625.59	327.68
625.74	372.15
625.89	603.86
626.04	3016.95
626.19	9341.08
626.34	15623.08
626.49	18466.83
626.65	13401.91
626.80	8777.01
626.95	5797.51
627.10	3676.98
627.25	1671.14
627.40	793.44
627.55	482.15
627.70	341.72
627.85	353.42
628.00	285.55
628.15	334.70
628.30	227.03
628.45	203.63
628.60	196.60
628.76	217.67
628.91	184.90
629.06	257.46
629.21	222.35
629.36	285.55
629.51	255.12
629.66	236.39
629.81	442.36
629.96	1650.08
630.11	3379.73
630.26	4390.84
630.41	4084.23
630.56	2909.29
630.71	1865.41
630.86	1277.93
631.01	830.89
631.16	468.11
631.31	423.64
631.46	304.27
631.61	322.99
631.76	257.46
631.91	287.89
632.06	222.35
632.21	285.55
632.36	369.80
632.51	451.72
632.66	524.28
632.81	1373.89
632.96	5184.29
633.10	9661.73
633.25	12372.07
633.40	10193.03
633.55	6876.49
633.70	4624.90
633.85	2977.16
634.00	1598.59
634.15	767.70
634.30	402.57
634.45	297.25
634.60	285.55
634.75	308.95
634.90	273.84
635.05	283.20
635.19	318.31
635.34	301.93
635.49	264.48
635.64	337.04
635.79	283.20
635.94	292.57
636.09	271.50
636.24	222.35
636.39	341.72
636.53	308.95
636.68	276.18
636.83	201.29
636.98	383.85
637.13	351.08
637.28	327.68
637.43	418.96
637.57	877.70
637.72	4194.24
637.87	12098.23
638.02	20514.80
638.17	23377.27
638.32	16730.15
638.46	11040.31
638.61	7487.37
638.76	4552.34
638.91	2122.87
639.06	1055.58
639.20	781.74
639.35	786.42
639.50	1207.72
639.65	6525.41
639.80	19470.92
639.94	32201.09
640.09	37041.32
640.24	27042.55
640.39	17745.94
640.54	11758.85
640.68	7028.63
640.83	3323.56
640.98	1544.75
641.13	772.38
641.27	561.73
641.42	475.13
641.57	425.98
641.72	400.23
641.86	243.42
642.01	318.31
642.16	304.27
642.31	220.01
642.45	346.40
642.60	355.76
642.75	231.71
642.90	220.01
643.04	238.73
643.19	173.20
643.34	241.08
643.48	234.05
643.63	142.77
643.78	297.25
643.93	276.18
644.07	184.90
644.22	194.26
644.37	180.22
644.51	198.95
644.66	187.24
644.81	203.63
644.95	168.52
645.10	203.63
645.25	184.90
645.39	189.58
645.54	198.95
645.69	224.69
645.83	205.97
645.98	241.08
646.13	175.54
646.27	220.01
646.42	177.88
646.57	166.18
646.71	187.24
646.86	163.84
647.00	140.43
647.15	236.39
647.30	180.22
647.44	196.60
647.59	124.05
647.74	191.92
647.88	161.50
648.03	182.56
648.17	159.16
648.32	177.88
648.47	241.08
648.61	140.43
648.76	236.39
648.90	236.39
649.05	198.95
649.20	184.90
649.34	269.16
649.49	177.88
649.63	243.42
649.78	210.65
649.92	451.72
650.07	2427.14
650.21	8114.64
650.36	14792.19
650.51	18930.25
650.65	15325.83
650.80	10431.77
650.94	6935.01
651.09	4222.33
651.23	2223.51
651.38	1074.31
651.52	573.43
651.67	362.78
651.81	315.97
651.96	311.29
652.10	332.36
652.25	252.78
652.39	290.23
652.54	266.82
652.68	765.36
652.83	2441.18
652.97	4765.33
653.12	6424.77
653.26	5731.97
653.41	4084.23
653.55	2731.41
653.70	1909.88
653.84	990.05
653.99	552.37
654.13	315.97
654.27	205.97
654.42	222.35
654.56	175.54
654.71	203.63
654.85	121.71
655.00	102.98
655.14	248.10
655.29	124.05
655.43	142.77
655.57	147.45
655.72	135.75
655.86	149.79
656.01	173.20
656.15	154.48
656.30	194.26
656.44	114.69
656.58	117.03
656.73	194.26
656.87	191.92
657.01	128.73
657.16	114.69
657.30	191.92
657.45	145.11
657.59	224.69
657.73	238.73
657.88	189.58
658.02	224.69
658.16	203.63
658.31	163.84
658.45	147.45
658.60	147.45
658.74	196.60
658.88	252.78
659.03	259.80
659.17	245.76
659.31	973.66
659.46	3592.72
659.60	6761.81
659.74	8966.59
659.89	7761.22
660.03	5858.36
660.17	3854.86
660.32	2464.58
660.46	1336.45
660.60	767.70
660.74	447.04
660.89	308.95
661.03	234.05
661.17	182.56
661.32	205.97
661.46	222.35
661.60	180.22
661.74	177.88
661.89	252.78
662.03	217.67
662.17	166.18
662.31	222.35
662.46	189.58
662.60	161.50
662.74	189.58
662.88	234.05
663.03	156.82
663.17	128.73
663.31	224.69
663.45	175.54
663.60	238.73
663.74	161.50
663.88	133.41
664.02	168.52
664.17	124.05
664.31	184.90
664.45	203.63
664.59	140.43
664.73	159.16
664.88	147.45
665.02	166.18
665.16	243.42
665.30	259.80
665.44	266.82
665.59	215.33
665.73	142.77
665.87	184.90
666.01	182.56
666.15	217.67
666.29	208.31
666.44	278.52
666.58	229.37
666.72	241.08
666.86	205.97
667.00	264.48
667.14	435.34
667.28	2181.38
667.43	6867.13
667.57	12322.92
667.71	15733.08
667.85	13570.43
667.99	9891.10
668.13	6129.86
668.27	3655.92
668.41	2040.95
668.56	1057.92
668.70	606.20
668.84	330.02
668.98	311.29
669.12	222.35
669.26	264.48
669.40	346.40
669.54	248.10
669.68	290.23
669.82	201.29
669.96	205.97
670.10	170.86
670.25	166.18
670.39	208.31
670.53	145.11
670.67	184.90
670.81	145.11
670.95	290.23
671.09	575.77
671.23	2368.62
671.37	5708.57
671.51	8879.99
671.65	9966.00
671.79	7623.12
671.93	5308.34
672.07	3166.74
672.21	1912.22
672.35	1036.86
672.49	547.69
672.63	411.93
672.77	294.91
672.91	330.02
673.05	276.18
673.19	173.20
673.33	173.20
673.47	238.73
673.61	128.73
673.75	154.48
673.89	203.63
674.03	135.75
674.17	110.01
674.31	112.35
674.45	133.41
674.59	156.82
674.73	135.75
674.87	198.95
675.01	241.08
675.15	243.42
675.29	220.01
675.43	269.16
675.56	189.58
675.70	224.69
675.84	182.56
675.98	182.56
676.12	182.56
676.26	163.84
676.40	135.75
676.54	177.88
676.68	180.22
676.82	156.82
676.96	170.86
677.10	133.41
677.23	217.67
677.37	140.43
677.51	135.75
677.65	220.01
677.79	154.48
677.93	149.79
678.07	142.77
678.21	145.11
678.34	161.50
678.48	119.37
678.62	182.56
678.76	79.58
678.90	159.16
679.04	93.62
679.18	95.96
679.31	102.98
679.45	70.22
679.59	112.35
679.73	126.39
679.87	117.03
680.00	191.92
680.14	114.69
680.28	154.48
680.42	133.41
680.56	201.29
680.70	105.32
680.83	154.48
680.97	117.03
681.11	95.96
681.25	196.60
681.39	86.60
681.52	168.52
681.66	140.43
681.80	133.41
681.94	152.13
682.07	161.50
682.21	163.84
682.35	121.71
682.49	145.11
682.62	208.31
682.76	74.90
682.90	53.83
683.04	170.86
683.17	173.20
683.31	88.94
683.45	105.32
683.59	100.64
683.72	163.84
683.86	124.05
684.00	95.96
684.13	203.63
684.27	119.37
684.41	88.94
684.55	93.62
684.68	121.71
684.82	95.96
684.96	152.13
685.09	145.11
685.23	74.90
685.37	173.20
685.50	145.11
685.64	198.95
685.78	140.43
685.91	126.39
686.05	205.97
686.19	163.84
686.32	215.33
686.46	117.03
686.60	98.30
686.73	236.39
686.87	135.75
687.01	194.26
687.14	191.92
687.28	175.54
687.42	149.79
687.55	128.73
687.69	159.16
687.82	128.73
687.96	147.45
688.10	236.39
688.23	84.26
688.37	140.43
688.50	81.92
688.64	175.54
688.78	210.65
688.91	84.26
689.05	119.37
689.18	49.15
689.32	121.71
689.46	126.39
689.59	149.79
689.73	149.79
689.86	70.22
690.00	124.05
690.13	133.41
690.27	86.60
690.41	25.75
690.54	182.56
690.68	210.65
690.81	37.45
690.95	14.04
691.08	152.13
691.22	212.99
691.35	182.56
691.49	105.32
691.62	224.69
691.76	119.37
691.89	196.60
692.03	191.92
692.16	168.52
692.30	222.35
692.43	847.27
692.57	2768.85
692.70	5167.90
692.84	6787.55
692.97	6174.33
693.11	4657.67
693.24	3414.84
693.38	2129.89
693.51	1530.71
693.65	1032.18
693.78	571.09
693.92	388.53
694.05	318.31
694.19	163.84
694.32	180.22
694.45	168.52
694.59	117.03
694.72	131.07
694.86	170.86
694.99	191.92
695.13	152.13
695.26	117.03
695.39	170.86
695.53	217.67
695.66	173.20
695.80	161.50
695.93	105.32
696.07	187.24
696.20	287.89
696.33	444.70
696.47	566.41
696.60	458.74
696.73	393.21
696.87	330.02
697.00	287.89
697.14	163.84
697.27	170.86
697.40	234.05
697.54	114.69
697.67	140.43
697.80	180.22
697.94	156.82
698.07	110.01
698.21	119.37
698.34	142.77
698.47	79.58
698.61	110.01
698.74	128.73
698.87	184.90
699.01	198.95
699.14	196.60
699.27	166.18
699.40	138.09
699.54	117.03
699.67	117.03
699.80	147.45
699.94	133.41
700.07	135.75
700.20	112.35
700.34	149.79
700.47	156.82
700.60	126.39
700.73	203.63
700.87	175.54
701.00	154.48
701.13	142.77
701.26	110.01
701.40	173.20
701.53	128.73
701.66	79.58
701.79	147.45
701.93	210.65
702.06	318.31
702.19	451.72
702.32	580.45
702.46	653.01
702.59	517.26
702.72	1027.50
702.85	3742.52
702.99	8334.65
703.12	12044.40
703.25	13832.57
703.38	11782.26
703.51	9359.80
703.65	7080.12
703.78	5076.62
703.91	3255.69
704.04	2111.16
704.17	1170.27
704.31	758.33
704.44	472.79
704.57	372.15
704.70	264.48
704.83	266.82
704.96	290.23
705.10	250.44
705.23	264.48
>>>>>End Processed Spectral Data<<<<<
