SpectraSuite Data File
++++++++++++++++++++++++++++++++++++
Date: Fri Oct 04 11:47:05 GMT-05:00 2013
User: price-jones
Dark Spectrum Present: No
Reference Spectrum Present: No
Number of Sampled Component Spectra: 1
Spectrometers: USB2+H05261
Integration Time (usec): 100000 (USB2+H05261)
Spectra Averaged: 1 (USB2+H05261)
Boxcar Smoothing: 0 (USB2+H05261)
Correct for Electrical Dark: No (USB2+H05261)
Strobe/Lamp Enabled: No (USB2+H05261)
Correct for Detector Non-linearity: No (USB2+H05261)
Correct for Stray Light: No (USB2+H05261)
Number of Pixels in Processed Spectrum: 2048
>>>>>Begin Processed Spectral Data<<<<<
365.73	28.09
365.92	28.09
366.12	28.09
366.32	0.00
366.52	0.00
366.72	0.00
366.91	0.00
367.11	4.68
367.31	0.00
367.51	0.00
367.70	0.00
367.90	0.00
368.10	0.00
368.30	0.00
368.49	0.00
368.69	0.00
368.89	0.00
369.09	0.00
369.28	0.00
369.48	0.00
369.68	37.45
369.87	0.00
370.07	0.00
370.27	0.00
370.47	0.00
370.66	0.00
370.86	23.41
371.06	74.90
371.25	107.66
371.45	0.00
371.65	51.49
371.84	51.49
372.04	67.88
372.24	72.56
372.44	79.58
372.63	121.71
372.83	102.98
373.03	14.04
373.22	21.06
373.42	135.75
373.62	88.94
373.81	93.62
374.01	156.82
374.21	102.98
374.40	152.13
374.60	194.26
374.79	67.88
374.99	154.48
375.19	63.19
375.38	74.90
375.58	98.30
375.78	84.26
375.97	177.88
376.17	128.73
376.37	142.77
376.56	95.96
376.76	70.22
376.95	67.88
377.15	110.01
377.35	105.32
377.54	65.54
377.74	58.51
377.93	110.01
378.13	32.77
378.33	114.69
378.52	100.64
378.72	67.88
378.91	128.73
379.11	32.77
379.31	81.92
379.50	65.54
379.70	128.73
379.89	44.47
380.09	107.66
380.28	53.83
380.48	21.06
380.68	46.81
380.87	51.49
381.07	119.37
381.26	128.73
381.46	51.49
381.65	114.69
381.85	70.22
382.04	124.05
382.24	112.35
382.43	114.69
382.63	63.19
382.83	117.03
383.02	121.71
383.22	93.62
383.41	88.94
383.61	114.69
383.80	86.60
384.00	128.73
384.19	81.92
384.39	100.64
384.58	46.81
384.78	60.85
384.97	112.35
385.17	119.37
385.36	70.22
385.56	133.41
385.75	112.35
385.95	79.58
386.14	102.98
386.34	105.32
386.53	110.01
386.72	65.54
386.92	159.16
387.11	74.90
387.31	58.51
387.50	79.58
387.70	145.11
387.89	95.96
388.09	114.69
388.28	84.26
388.48	121.71
388.67	42.13
388.86	28.09
389.06	44.47
389.25	81.92
389.45	133.41
389.64	91.28
389.84	105.32
390.03	156.82
390.22	58.51
390.42	79.58
390.61	93.62
390.81	107.66
391.00	119.37
391.19	154.48
391.39	65.54
391.58	128.73
391.78	60.85
391.97	131.07
392.16	163.84
392.36	49.15
392.55	121.71
392.75	53.83
392.94	74.90
393.13	100.64
393.33	79.58
393.52	126.39
393.71	128.73
393.91	138.09
394.10	140.43
394.29	145.11
394.49	124.05
394.68	102.98
394.88	105.32
395.07	114.69
395.26	84.26
395.46	46.81
395.65	95.96
395.84	100.64
396.04	119.37
396.23	35.11
396.42	37.45
396.62	133.41
396.81	107.66
397.00	163.84
397.19	112.35
397.39	81.92
397.58	121.71
397.77	93.62
397.97	131.07
398.16	147.45
398.35	110.01
398.55	72.56
398.74	63.19
398.93	81.92
399.12	74.90
399.32	107.66
399.51	114.69
399.70	173.20
399.90	121.71
400.09	117.03
400.28	147.45
400.47	88.94
400.67	112.35
400.86	70.22
401.05	16.38
401.24	93.62
401.44	58.51
401.63	119.37
401.82	86.60
402.01	81.92
402.21	147.45
402.40	93.62
402.59	44.47
402.78	32.77
402.97	98.30
403.17	135.75
403.36	135.75
403.55	128.73
403.74	18.72
403.93	63.19
404.13	205.97
404.32	95.96
404.51	114.69
404.70	138.09
404.89	145.11
405.09	177.88
405.28	112.35
405.47	95.96
405.66	135.75
405.85	128.73
406.05	88.94
406.24	145.11
406.43	138.09
406.62	105.32
406.81	128.73
407.00	67.88
407.20	88.94
407.39	100.64
407.58	117.03
407.77	39.79
407.96	163.84
408.15	107.66
408.34	163.84
408.54	102.98
408.73	32.77
408.92	88.94
409.11	142.77
409.30	215.33
409.49	112.35
409.68	102.98
409.87	168.52
410.07	149.79
410.26	88.94
410.45	117.03
410.64	86.60
410.83	65.54
411.02	100.64
411.21	126.39
411.40	156.82
411.59	131.07
411.78	84.26
411.98	107.66
412.17	112.35
412.36	93.62
412.55	74.90
412.74	121.71
412.93	149.79
413.12	56.17
413.31	60.85
413.50	105.32
413.69	105.32
413.88	95.96
414.07	32.77
414.26	147.45
414.45	88.94
414.64	147.45
414.83	53.83
415.02	79.58
415.22	145.11
415.41	142.77
415.60	124.05
415.79	117.03
415.98	100.64
416.17	135.75
416.36	110.01
416.55	2.34
416.74	91.28
416.93	156.82
417.12	177.88
417.31	93.62
417.50	49.15
417.69	163.84
417.88	163.84
418.07	154.48
418.26	198.95
418.45	163.84
418.64	145.11
418.83	182.56
419.02	86.60
419.21	88.94
419.39	95.96
419.58	100.64
419.77	110.01
419.96	166.18
420.15	161.50
420.34	112.35
420.53	124.05
420.72	114.69
420.91	138.09
421.10	138.09
421.29	128.73
421.48	121.71
421.67	117.03
421.86	91.28
422.05	102.98
422.24	107.66
422.43	117.03
422.61	86.60
422.80	133.41
422.99	72.56
423.18	46.81
423.37	203.63
423.56	102.98
423.75	100.64
423.94	81.92
424.13	88.94
424.32	70.22
424.50	91.28
424.69	91.28
424.88	159.16
425.07	140.43
425.26	145.11
425.45	170.86
425.64	152.13
425.83	189.58
426.01	189.58
426.20	159.16
426.39	70.22
426.58	131.07
426.77	126.39
426.96	98.30
427.15	95.96
427.33	88.94
427.52	119.37
427.71	121.71
427.90	145.11
428.09	81.92
428.28	161.50
428.46	86.60
428.65	128.73
428.84	86.60
429.03	210.65
429.22	72.56
429.40	81.92
429.59	77.24
429.78	166.18
429.97	152.13
430.16	77.24
430.34	112.35
430.53	140.43
430.72	81.92
430.91	166.18
431.10	79.58
431.28	2.34
431.47	105.32
431.66	102.98
431.85	65.54
432.03	102.98
432.22	177.88
432.41	166.18
432.60	184.90
432.79	154.48
432.97	170.86
433.16	191.92
433.35	140.43
433.54	117.03
433.72	168.52
433.91	131.07
434.10	173.20
434.28	121.71
434.47	70.22
434.66	135.75
434.85	133.41
435.03	58.51
435.22	182.56
435.41	182.56
435.59	180.22
435.78	166.18
435.97	95.96
436.16	81.92
436.34	145.11
436.53	98.30
436.72	159.16
436.90	117.03
437.09	121.71
437.28	119.37
437.46	133.41
437.65	154.48
437.84	126.39
438.02	107.66
438.21	175.54
438.40	91.28
438.58	88.94
438.77	110.01
438.96	152.13
439.14	53.83
439.33	166.18
439.52	142.77
439.70	140.43
439.89	126.39
440.08	105.32
440.26	126.39
440.45	180.22
440.63	126.39
440.82	159.16
441.01	95.96
441.19	107.66
441.38	102.98
441.57	131.07
441.75	236.39
441.94	140.43
442.12	86.60
442.31	44.47
442.50	93.62
442.68	166.18
442.87	180.22
443.05	98.30
443.24	145.11
443.43	170.86
443.61	135.75
443.80	138.09
443.98	140.43
444.17	128.73
444.35	121.71
444.54	149.79
444.73	145.11
444.91	180.22
445.10	138.09
445.28	191.92
445.47	107.66
445.65	105.32
445.84	142.77
446.02	126.39
446.21	63.19
446.39	166.18
446.58	79.58
446.77	98.30
446.95	119.37
447.14	105.32
447.32	107.66
447.51	163.84
447.69	156.82
447.88	177.88
448.06	126.39
448.25	119.37
448.43	140.43
448.62	152.13
448.80	117.03
448.99	112.35
449.17	81.92
449.36	161.50
449.54	119.37
449.73	117.03
449.91	196.60
450.10	154.48
450.28	220.01
450.46	126.39
450.65	217.67
450.83	126.39
451.02	140.43
451.20	88.94
451.39	131.07
451.57	95.96
451.76	58.51
451.94	0.00
452.13	133.41
452.31	187.24
452.49	145.11
452.68	220.01
452.86	187.24
453.05	187.24
453.23	166.18
453.42	88.94
453.60	163.84
453.78	149.79
453.97	119.37
454.15	142.77
454.34	145.11
454.52	107.66
454.70	140.43
454.89	119.37
455.07	51.49
455.26	203.63
455.44	126.39
455.62	102.98
455.81	124.05
455.99	110.01
456.17	154.48
456.36	131.07
456.54	170.86
456.73	196.60
456.91	191.92
457.09	189.58
457.28	175.54
457.46	70.22
457.64	152.13
457.83	117.03
458.01	147.45
458.19	177.88
458.38	124.05
458.56	133.41
458.74	119.37
458.93	208.31
459.11	91.28
459.29	135.75
459.48	161.50
459.66	180.22
459.84	138.09
460.03	252.78
460.21	156.82
460.39	184.90
460.57	217.67
460.76	88.94
460.94	72.56
461.12	149.79
461.31	182.56
461.49	184.90
461.67	126.39
461.85	175.54
462.04	187.24
462.22	550.03
462.40	196.60
462.59	126.39
462.77	110.01
462.95	124.05
463.13	126.39
463.32	156.82
463.50	138.09
463.68	102.98
463.86	154.48
464.05	142.77
464.23	161.50
464.41	138.09
464.59	63.19
464.78	117.03
464.96	39.79
465.14	161.50
465.32	147.45
465.50	191.92
465.69	140.43
465.87	145.11
466.05	140.43
466.23	67.88
466.41	98.30
466.60	107.66
466.78	107.66
466.96	166.18
467.14	86.60
467.32	170.86
467.51	140.43
467.69	72.56
467.87	168.52
468.05	196.60
468.23	152.13
468.41	145.11
468.60	210.65
468.78	117.03
468.96	140.43
469.14	145.11
469.32	138.09
469.50	175.54
469.69	121.71
469.87	140.43
470.05	177.88
470.23	154.48
470.41	222.35
470.59	131.07
470.77	93.62
470.95	205.97
471.14	229.37
471.32	114.69
471.50	117.03
471.68	112.35
471.86	133.41
472.04	180.22
472.22	133.41
472.40	107.66
472.58	86.60
472.77	72.56
472.95	65.54
473.13	212.99
473.31	170.86
473.49	133.41
473.67	152.13
473.85	100.64
474.03	152.13
474.21	189.58
474.39	159.16
474.57	194.26
474.75	131.07
474.93	170.86
475.12	126.39
475.30	74.90
475.48	168.52
475.66	107.66
475.84	196.60
476.02	138.09
476.20	196.60
476.38	114.69
476.56	217.67
476.74	208.31
476.92	107.66
477.10	131.07
477.28	236.39
477.46	98.30
477.64	180.22
477.82	147.45
478.00	98.30
478.18	147.45
478.36	133.41
478.54	124.05
478.72	72.56
478.90	147.45
479.08	135.75
479.26	175.54
479.44	156.82
479.62	140.43
479.80	124.05
479.98	117.03
480.16	145.11
480.34	114.69
480.52	170.86
480.70	119.37
480.88	180.22
481.06	121.71
481.24	154.48
481.41	159.16
481.59	135.75
481.77	184.90
481.95	147.45
482.13	161.50
482.31	196.60
482.49	175.54
482.67	121.71
482.85	227.03
483.03	105.32
483.21	133.41
483.39	105.32
483.57	182.56
483.74	145.11
483.92	110.01
484.10	173.20
484.28	152.13
484.46	175.54
484.64	201.29
484.82	159.16
485.00	135.75
485.18	145.11
485.35	133.41
485.53	194.26
485.71	173.20
485.89	124.05
486.07	234.05
486.25	187.24
486.43	135.75
486.61	203.63
486.78	182.56
486.96	65.54
487.14	149.79
487.32	168.52
487.50	117.03
487.68	250.44
487.85	140.43
488.03	142.77
488.21	224.69
488.39	147.45
488.57	177.88
488.75	198.95
488.92	461.09
489.10	133.41
489.28	198.95
489.46	128.73
489.64	145.11
489.81	163.84
489.99	187.24
490.17	248.10
490.35	290.23
490.53	161.50
490.70	128.73
490.88	112.35
491.06	135.75
491.24	131.07
491.41	138.09
491.59	124.05
491.77	131.07
491.95	91.28
492.13	173.20
492.30	95.96
492.48	236.39
492.66	159.16
492.84	147.45
493.01	163.84
493.19	133.41
493.37	152.13
493.54	147.45
493.72	159.16
493.90	140.43
494.08	138.09
494.25	212.99
494.43	166.18
494.61	173.20
494.79	175.54
494.96	180.22
495.14	163.84
495.32	238.73
495.49	229.37
495.67	182.56
495.85	222.35
496.02	210.65
496.20	250.44
496.38	177.88
496.55	198.95
496.73	196.60
496.91	152.13
497.09	220.01
497.26	163.84
497.44	180.22
497.62	217.67
497.79	168.52
497.97	290.23
498.14	173.20
498.32	262.14
498.50	163.84
498.67	220.01
498.85	126.39
499.03	238.73
499.20	210.65
499.38	175.54
499.56	140.43
499.73	175.54
499.91	264.48
500.08	220.01
500.26	215.33
500.44	173.20
500.61	131.07
500.79	203.63
500.97	154.48
501.14	238.73
501.32	161.50
501.49	121.71
501.67	159.16
501.84	201.29
502.02	191.92
502.20	241.08
502.37	184.90
502.55	177.88
502.72	212.99
502.90	189.58
503.07	248.10
503.25	280.86
503.43	238.73
503.60	145.11
503.78	196.60
503.95	140.43
504.13	243.42
504.30	142.77
504.48	191.92
504.65	147.45
504.83	133.41
505.01	184.90
505.18	166.18
505.36	156.82
505.53	163.84
505.71	201.29
505.88	217.67
506.06	149.79
506.23	145.11
506.41	161.50
506.58	220.01
506.76	238.73
506.93	187.24
507.11	159.16
507.28	222.35
507.46	205.97
507.63	276.18
507.81	210.65
507.98	205.97
508.16	152.13
508.33	159.16
508.50	189.58
508.68	236.39
508.85	222.35
509.03	170.86
509.20	220.01
509.38	184.90
509.55	182.56
509.73	234.05
509.90	166.18
510.08	184.90
510.25	170.86
510.42	138.09
510.60	131.07
510.77	203.63
510.95	229.37
511.12	149.79
511.30	184.90
511.47	269.16
511.64	212.99
511.82	194.26
511.99	156.82
512.17	100.64
512.34	189.58
512.51	170.86
512.69	187.24
512.86	149.79
513.04	203.63
513.21	220.01
513.38	210.65
513.56	238.73
513.73	93.62
513.90	149.79
514.08	156.82
514.25	205.97
514.43	220.01
514.60	203.63
514.77	203.63
514.95	166.18
515.12	175.54
515.29	187.24
515.47	196.60
515.64	166.18
515.81	224.69
515.99	229.37
516.16	229.37
516.33	231.71
516.51	163.84
516.68	170.86
516.85	224.69
517.03	110.01
517.20	140.43
517.37	227.03
517.54	212.99
517.72	205.97
517.89	208.31
518.06	196.60
518.24	229.37
518.41	243.42
518.58	175.54
518.75	163.84
518.93	280.86
519.10	142.77
519.27	152.13
519.45	191.92
519.62	203.63
519.79	234.05
519.96	273.84
520.14	180.22
520.31	245.76
520.48	184.90
520.65	175.54
520.83	191.92
521.00	205.97
521.17	278.52
521.34	220.01
521.52	257.46
521.69	189.58
521.86	231.71
522.03	290.23
522.20	255.12
522.38	180.22
522.55	191.92
522.72	189.58
522.89	194.26
523.07	220.01
523.24	255.12
523.41	203.63
523.58	159.16
523.75	159.16
523.92	196.60
524.10	229.37
524.27	250.44
524.44	215.33
524.61	161.50
524.78	220.01
524.96	229.37
525.13	210.65
525.30	248.10
525.47	257.46
525.64	184.90
525.81	166.18
525.98	184.90
526.16	180.22
526.33	259.80
526.50	156.82
526.67	191.92
526.84	147.45
527.01	201.29
527.18	245.76
527.36	191.92
527.53	210.65
527.70	257.46
527.87	292.57
528.04	168.52
528.21	187.24
528.38	280.86
528.55	299.59
528.72	227.03
528.89	212.99
529.07	294.91
529.24	236.39
529.41	290.23
529.58	217.67
529.75	210.65
529.92	182.56
530.09	238.73
530.26	229.37
530.43	217.67
530.60	147.45
530.77	227.03
530.94	217.67
531.11	220.01
531.28	208.31
531.46	140.43
531.63	201.29
531.80	220.01
531.97	224.69
532.14	238.73
532.31	205.97
532.48	252.78
532.65	290.23
532.82	290.23
532.99	245.76
533.16	269.16
533.33	210.65
533.50	203.63
533.67	241.08
533.84	278.52
534.01	308.95
534.18	276.18
534.35	243.42
534.52	135.75
534.69	311.29
534.86	238.73
535.03	212.99
535.20	227.03
535.37	212.99
535.54	191.92
535.71	215.33
535.88	273.84
536.05	135.75
536.22	248.10
536.38	241.08
536.55	210.65
536.72	222.35
536.89	154.48
537.06	180.22
537.23	187.24
537.40	238.73
537.57	184.90
537.74	257.46
537.91	180.22
538.08	231.71
538.25	294.91
538.42	224.69
538.59	238.73
538.75	168.52
538.92	285.55
539.09	299.59
539.26	212.99
539.43	425.98
539.60	896.43
539.77	1198.35
539.94	1118.78
540.11	765.36
540.28	498.53
540.44	362.78
540.61	257.46
540.78	259.80
540.95	234.05
541.12	257.46
541.29	241.08
541.46	292.57
541.62	222.35
541.79	170.86
541.96	194.26
542.13	231.71
542.30	191.92
542.47	250.44
542.63	187.24
542.80	187.24
542.97	229.37
543.14	224.69
543.31	262.14
543.48	248.10
543.64	220.01
543.81	119.37
543.98	191.92
544.15	142.77
544.32	203.63
544.48	194.26
544.65	163.84
544.82	184.90
544.99	194.26
545.16	231.71
545.32	201.29
545.49	236.39
545.66	212.99
545.83	238.73
546.00	126.39
546.16	170.86
546.33	196.60
546.50	170.86
546.67	187.24
546.83	222.35
547.00	234.05
547.17	140.43
547.34	184.90
547.50	175.54
547.67	142.77
547.84	191.92
548.00	205.97
548.17	177.88
548.34	117.03
548.51	205.97
548.67	149.79
548.84	135.75
549.01	180.22
549.18	149.79
549.34	283.20
549.51	264.48
549.68	187.24
549.84	168.52
550.01	161.50
550.18	313.63
550.34	205.97
550.51	257.46
550.68	262.14
550.84	194.26
551.01	205.97
551.18	271.50
551.34	205.97
551.51	152.13
551.68	194.26
551.84	156.82
552.01	234.05
552.18	187.24
552.34	194.26
552.51	212.99
552.68	276.18
552.84	177.88
553.01	215.33
553.18	252.78
553.34	168.52
553.51	159.16
553.67	203.63
553.84	238.73
554.01	231.71
554.17	222.35
554.34	229.37
554.51	278.52
554.67	248.10
554.84	227.03
555.00	250.44
555.17	177.88
555.33	234.05
555.50	236.39
555.67	250.44
555.83	222.35
556.00	215.33
556.16	334.70
556.33	198.95
556.50	161.50
556.66	198.95
556.83	147.45
556.99	196.60
557.16	175.54
557.32	196.60
557.49	220.01
557.65	205.97
557.82	194.26
557.98	182.56
558.15	215.33
558.32	135.75
558.48	203.63
558.65	124.05
558.81	264.48
558.98	128.73
559.14	222.35
559.31	255.12
559.47	126.39
559.64	187.24
559.80	248.10
559.97	205.97
560.13	175.54
560.30	215.33
560.46	208.31
560.63	271.50
560.79	212.99
560.96	245.76
561.12	210.65
561.29	203.63
561.45	135.75
561.61	187.24
561.78	297.25
561.94	231.71
562.11	166.18
562.27	121.71
562.44	231.71
562.60	217.67
562.77	168.52
562.93	259.80
563.10	154.48
563.26	229.37
563.42	222.35
563.59	264.48
563.75	168.52
563.92	262.14
564.08	250.44
564.24	308.95
564.41	257.46
564.57	229.37
564.74	184.90
564.90	184.90
565.07	208.31
565.23	243.42
565.39	287.89
565.56	184.90
565.72	203.63
565.88	234.05
566.05	194.26
566.21	173.20
566.38	210.65
566.54	175.54
566.70	173.20
566.87	198.95
567.03	102.98
567.19	187.24
567.36	173.20
567.52	138.09
567.68	194.26
567.85	222.35
568.01	224.69
568.17	124.05
568.34	138.09
568.50	299.59
568.66	196.60
568.83	313.63
568.99	280.86
569.15	271.50
569.32	257.46
569.48	194.26
569.64	248.10
569.81	175.54
569.97	187.24
570.13	184.90
570.30	128.73
570.46	135.75
570.62	191.92
570.78	145.11
570.95	135.75
571.11	217.67
571.27	241.08
571.43	198.95
571.60	189.58
571.76	215.33
571.92	322.99
572.09	234.05
572.25	248.10
572.41	210.65
572.57	124.05
572.74	170.86
572.90	252.78
573.06	180.22
573.22	198.95
573.38	180.22
573.55	189.58
573.71	187.24
573.87	222.35
574.03	117.03
574.20	177.88
574.36	231.71
574.52	271.50
574.68	318.31
574.84	299.59
575.01	189.58
575.17	287.89
575.33	234.05
575.49	205.97
575.65	203.63
575.82	269.16
575.98	449.38
576.14	582.79
576.30	610.88
576.46	449.38
576.62	273.84
576.79	358.10
576.95	201.29
577.11	168.52
577.27	173.20
577.43	294.91
577.59	271.50
577.75	227.03
577.92	229.37
578.08	255.12
578.24	152.13
578.40	238.73
578.56	259.80
578.72	264.48
578.88	259.80
579.04	175.54
579.21	180.22
579.37	231.71
579.53	210.65
579.69	269.16
579.85	273.84
580.01	337.04
580.17	299.59
580.33	318.31
580.49	322.99
580.65	301.93
580.82	222.35
580.98	259.80
581.14	220.01
581.30	376.83
581.46	276.18
581.62	557.05
581.78	493.85
581.94	491.51
582.10	395.55
582.26	259.80
582.42	313.63
582.58	339.38
582.74	407.25
582.90	404.91
583.06	360.44
583.22	393.21
583.38	425.98
583.54	435.34
583.70	503.22
583.86	526.62
584.02	699.82
584.18	739.61
584.34	983.02
584.50	2803.96
584.66	20861.19
584.82	49378.28
584.98	58691.27
585.14	54211.49
585.30	36397.67
585.46	21556.33
585.62	13544.68
585.78	6181.35
585.94	2495.01
586.10	1261.55
586.26	821.53
586.42	685.78
586.58	468.11
586.74	503.22
586.90	447.04
587.06	430.66
587.22	416.62
587.38	475.13
587.54	1027.50
587.70	2897.58
587.86	4451.70
588.02	4830.87
588.18	3314.20
588.34	2134.57
588.49	1423.05
588.65	915.15
588.81	482.15
588.97	358.10
589.13	259.80
589.29	236.39
589.45	285.55
589.61	327.68
589.77	397.89
589.93	346.40
590.08	449.38
590.24	276.18
590.40	341.72
590.56	320.65
590.72	243.42
590.88	250.44
591.04	264.48
591.20	208.31
591.35	241.08
591.51	320.65
591.67	217.67
591.83	271.50
591.99	259.80
592.15	311.29
592.31	259.80
592.46	210.65
592.62	299.59
592.78	292.57
592.94	203.63
593.10	257.46
593.26	280.86
593.41	278.52
593.57	322.99
593.73	510.24
593.89	2523.10
594.05	5940.28
594.20	8358.05
594.36	7555.25
594.52	5008.75
594.68	3276.75
594.84	2190.74
594.99	1228.78
595.15	500.87
595.31	383.85
595.47	257.46
595.62	231.71
595.78	322.99
595.94	280.86
596.10	257.46
596.25	266.82
596.41	255.12
596.57	250.44
596.73	262.14
596.88	423.64
597.04	1144.52
597.20	1710.93
597.36	2101.80
597.51	1554.12
597.67	1090.69
597.83	734.93
597.99	613.22
598.14	325.33
598.30	315.97
598.46	248.10
598.61	259.80
598.77	215.33
598.93	152.13
599.09	248.10
599.24	215.33
599.40	196.60
599.56	222.35
599.71	217.67
599.87	196.60
600.03	238.73
600.18	175.54
600.34	208.31
600.50	191.92
600.65	234.05
600.81	229.37
600.97	168.52
601.12	161.50
601.28	203.63
601.44	163.84
601.59	187.24
601.75	266.82
601.91	180.22
602.06	224.69
602.22	315.97
602.37	662.37
602.53	1387.94
602.69	2066.69
602.84	2118.18
603.00	1514.33
603.16	1036.86
603.31	788.76
603.47	524.28
603.62	304.27
603.78	269.16
603.94	198.95
604.09	126.39
604.25	236.39
604.40	198.95
604.56	252.78
604.71	205.97
604.87	220.01
605.03	262.14
605.18	238.73
605.34	191.92
605.49	166.18
605.65	248.10
605.80	248.10
605.96	229.37
606.12	290.23
606.27	280.86
606.43	299.59
606.58	332.36
606.74	798.12
606.89	3012.27
607.05	5713.25
607.20	6981.82
607.36	5699.20
607.51	3756.56
607.67	2567.57
607.82	1638.38
607.98	985.37
608.13	554.71
608.29	374.49
608.44	330.02
608.60	337.04
608.75	421.30
608.91	950.26
609.06	4685.75
609.22	9277.88
609.37	11934.39
609.53	10211.76
609.68	7009.90
609.84	4599.15
609.99	3052.06
610.15	1563.48
610.30	807.48
610.46	372.15
610.61	362.78
610.76	311.29
610.92	245.76
611.07	229.37
611.23	294.91
611.38	215.33
611.54	210.65
611.69	170.86
611.84	325.33
612.00	280.86
612.15	238.73
612.31	404.91
612.46	489.17
612.62	582.79
612.77	538.32
612.92	472.79
613.08	451.72
613.23	425.98
613.39	437.68
613.54	753.65
613.69	4507.87
613.85	12278.45
614.00	18590.88
614.15	18761.73
614.31	13174.88
614.46	8807.44
614.62	5811.55
614.77	3346.97
614.92	1568.16
615.08	840.25
615.23	500.87
615.38	355.76
615.54	416.62
615.69	777.06
615.84	2385.01
616.00	4177.86
616.15	4887.04
616.30	3929.76
616.46	2736.09
616.61	1820.94
616.76	1266.23
616.92	704.50
617.07	461.09
617.22	313.63
617.37	294.91
617.53	262.14
617.68	262.14
617.83	273.84
617.99	285.55
618.14	264.48
618.29	259.80
618.45	234.05
618.60	220.01
618.75	245.76
618.90	203.63
619.06	222.35
619.21	280.86
619.36	278.52
619.51	142.77
619.67	187.24
619.82	259.80
619.97	287.89
620.12	278.52
620.28	156.82
620.43	210.65
620.58	248.10
620.73	191.92
620.89	212.99
621.04	503.22
621.19	1329.42
621.34	2361.60
621.49	2986.52
621.65	2579.27
621.80	1743.70
621.95	1259.21
622.10	887.06
622.25	533.64
622.41	409.59
622.56	215.33
622.71	196.60
622.86	220.01
623.01	212.99
623.16	243.42
623.32	196.60
623.47	248.10
623.62	107.66
623.77	227.03
623.92	264.48
624.07	196.60
624.23	208.31
624.38	182.56
624.53	208.31
624.68	248.10
624.83	266.82
624.98	243.42
625.13	198.95
625.29	198.95
625.44	248.10
625.59	194.26
625.74	353.42
625.89	468.11
626.04	2207.13
626.19	5954.32
626.34	9240.44
626.49	9813.87
626.65	7204.17
626.80	4868.31
626.95	3368.03
627.10	1996.48
627.25	1064.94
627.40	550.03
627.55	306.61
627.70	283.20
627.85	306.61
628.00	208.31
628.15	175.54
628.30	182.56
628.45	248.10
628.60	163.84
628.76	231.71
628.91	248.10
629.06	231.71
629.21	145.11
629.36	198.95
629.51	212.99
629.66	212.99
629.81	407.25
629.96	1139.84
630.11	2050.31
630.26	2576.93
630.41	2263.30
630.56	1631.35
630.71	1088.35
630.86	814.51
631.01	514.92
631.16	372.15
631.31	252.78
631.46	257.46
631.61	191.92
631.76	250.44
631.91	166.18
632.06	220.01
632.21	259.80
632.36	271.50
632.51	325.33
632.66	320.65
632.81	1114.10
632.96	3356.33
633.10	5666.44
633.25	6691.59
633.40	5390.25
633.55	3829.12
633.70	2605.02
633.85	1645.40
634.00	856.64
634.15	489.17
634.30	318.31
634.45	278.52
634.60	212.99
634.75	215.33
634.90	252.78
635.05	187.24
635.19	257.46
635.34	222.35
635.49	264.48
635.64	241.08
635.79	182.56
635.94	248.10
636.09	255.12
636.24	241.08
636.39	194.26
636.53	264.48
636.68	212.99
636.83	224.69
636.98	294.91
637.13	299.59
637.28	313.63
637.43	372.15
637.57	620.24
637.72	3014.61
637.87	7733.13
638.02	11698.00
638.17	12248.02
638.32	9156.18
638.46	6296.04
638.61	4222.33
638.76	2614.38
638.91	1401.98
639.06	599.18
639.20	610.88
639.35	540.66
639.50	793.44
639.65	4573.41
639.80	12486.76
639.94	19101.11
640.09	19711.99
640.24	14750.06
640.39	9844.29
640.54	6497.33
640.68	4028.06
640.83	1895.83
640.98	947.92
641.13	470.45
641.27	383.85
641.42	346.40
641.57	327.68
641.72	229.37
641.86	264.48
642.01	224.69
642.16	238.73
642.31	121.71
642.45	318.31
642.60	308.95
642.75	166.18
642.90	224.69
643.04	191.92
643.19	156.82
643.34	191.92
643.48	191.92
643.63	224.69
643.78	203.63
643.93	175.54
644.07	229.37
644.22	229.37
644.37	145.11
644.51	166.18
644.66	168.52
644.81	173.20
644.95	128.73
645.10	163.84
645.25	191.92
645.39	205.97
645.54	149.79
645.69	227.03
645.83	124.05
645.98	262.14
646.13	203.63
646.27	273.84
646.42	117.03
646.57	234.05
646.71	131.07
646.86	184.90
647.00	210.65
647.15	201.29
647.30	236.39
647.44	189.58
647.59	182.56
647.74	142.77
647.88	170.86
648.03	238.73
648.17	229.37
648.32	271.50
648.47	194.26
648.61	121.71
648.76	133.41
648.90	154.48
649.05	173.20
649.20	194.26
649.34	243.42
649.49	189.58
649.63	259.80
649.78	271.50
649.92	437.68
650.07	1837.32
650.21	5359.83
650.36	8863.61
650.51	10211.76
650.65	8133.36
650.80	5867.72
650.94	3716.77
651.09	2300.75
651.23	1273.25
651.38	564.07
651.52	344.06
651.67	299.59
651.81	236.39
651.96	259.80
652.10	175.54
652.25	212.99
652.39	250.44
652.54	276.18
652.68	568.75
652.83	1680.50
652.97	2874.18
653.12	3583.36
653.26	3101.21
653.41	2214.15
653.55	1549.43
653.70	1090.69
653.84	543.00
653.99	325.33
654.13	187.24
654.27	198.95
654.42	212.99
654.56	131.07
654.71	170.86
654.85	117.03
655.00	208.31
655.14	180.22
655.29	133.41
655.43	177.88
655.57	149.79
655.72	46.81
655.86	191.92
656.01	175.54
656.15	112.35
656.30	189.58
656.44	63.19
656.58	98.30
656.73	177.88
656.87	140.43
657.01	112.35
657.16	196.60
657.30	177.88
657.45	191.92
657.59	168.52
657.73	114.69
657.88	100.64
658.02	147.45
658.16	210.65
658.31	163.84
658.45	175.54
658.60	166.18
658.74	191.92
658.88	198.95
659.03	168.52
659.17	320.65
659.31	704.50
659.46	2408.41
659.60	4004.66
659.74	4873.00
659.89	4390.84
660.03	3234.62
660.17	2216.49
660.32	1364.53
660.46	784.08
660.60	512.58
660.74	362.78
660.89	220.01
661.03	184.90
661.17	180.22
661.32	177.88
661.46	156.82
661.60	145.11
661.74	114.69
661.89	189.58
662.03	161.50
662.17	114.69
662.31	128.73
662.46	131.07
662.60	175.54
662.74	135.75
662.88	145.11
663.03	175.54
663.17	194.26
663.31	189.58
663.45	170.86
663.60	138.09
663.74	163.84
663.88	105.32
664.02	161.50
664.17	184.90
664.31	159.16
664.45	166.18
664.59	241.08
664.73	149.79
664.88	154.48
665.02	175.54
665.16	140.43
665.30	224.69
665.44	156.82
665.59	168.52
665.73	177.88
665.87	220.01
666.01	86.60
666.15	138.09
666.29	177.88
666.44	220.01
666.58	215.33
666.72	163.84
666.86	205.97
667.00	252.78
667.14	348.74
667.28	1598.59
667.43	4535.96
667.57	7180.76
667.71	8638.92
667.85	7293.11
667.99	5371.53
668.13	3522.51
668.27	1905.20
668.41	1097.71
668.56	648.33
668.70	472.79
668.84	315.97
668.98	292.57
669.12	147.45
669.26	241.08
669.40	278.52
669.54	161.50
669.68	250.44
669.82	131.07
669.96	187.24
670.10	163.84
670.25	182.56
670.39	128.73
670.53	189.58
670.67	229.37
670.81	210.65
670.95	215.33
671.09	470.45
671.23	1806.89
671.37	3672.30
671.51	5167.90
671.65	5458.13
671.79	4210.62
671.93	2869.50
672.07	1643.06
672.21	1114.10
672.35	601.52
672.49	341.72
672.63	280.86
672.77	203.63
672.91	152.13
673.05	215.33
673.19	217.67
673.33	201.29
673.47	138.09
673.61	161.50
673.75	147.45
673.89	161.50
674.03	210.65
674.17	102.98
674.31	180.22
674.45	105.32
674.59	124.05
674.73	201.29
674.87	210.65
675.01	241.08
675.15	210.65
675.29	177.88
675.43	227.03
675.56	217.67
675.70	168.52
675.84	224.69
675.98	166.18
676.12	145.11
676.26	156.82
676.40	95.96
676.54	147.45
676.68	170.86
676.82	112.35
676.96	128.73
677.10	166.18
677.23	88.94
677.37	100.64
677.51	98.30
677.65	234.05
677.79	93.62
677.93	112.35
678.07	133.41
678.21	131.07
678.34	95.96
678.48	110.01
678.62	170.86
678.76	140.43
678.90	126.39
679.04	140.43
679.18	154.48
679.31	93.62
679.45	147.45
679.59	166.18
679.73	170.86
679.87	93.62
680.00	51.49
680.14	145.11
680.28	156.82
680.42	95.96
680.56	138.09
680.70	117.03
680.83	187.24
680.97	128.73
681.11	124.05
681.25	175.54
681.39	84.26
681.52	105.32
681.66	119.37
681.80	156.82
681.94	117.03
682.07	149.79
682.21	107.66
682.35	107.66
682.49	114.69
682.62	114.69
682.76	46.81
682.90	107.66
683.04	147.45
683.17	128.73
683.31	126.39
683.45	156.82
683.59	74.90
683.72	121.71
683.86	138.09
684.00	107.66
684.13	154.48
684.27	161.50
684.41	135.75
684.55	110.01
684.68	152.13
684.82	86.60
684.96	208.31
685.09	98.30
685.23	114.69
685.37	86.60
685.50	189.58
685.64	187.24
685.78	91.28
685.91	114.69
686.05	105.32
686.19	198.95
686.32	93.62
686.46	138.09
686.60	102.98
686.73	166.18
686.87	128.73
687.01	177.88
687.14	105.32
687.28	112.35
687.42	131.07
687.55	114.69
687.69	147.45
687.82	91.28
687.96	124.05
688.10	91.28
688.23	135.75
688.37	147.45
688.50	133.41
688.64	170.86
688.78	95.96
688.91	163.84
689.05	91.28
689.18	88.94
689.32	142.77
689.46	93.62
689.59	53.83
689.73	110.01
689.86	154.48
690.00	133.41
690.13	44.47
690.27	152.13
690.41	140.43
690.54	110.01
690.68	131.07
690.81	121.71
690.95	140.43
691.08	110.01
691.22	128.73
691.35	100.64
691.49	42.13
691.62	58.51
691.76	170.86
691.89	142.77
692.03	189.58
692.16	133.41
692.30	236.39
692.43	629.60
692.57	1959.03
692.70	3164.40
692.84	3698.05
692.97	3424.20
693.11	2466.92
693.24	1827.96
693.38	1160.91
693.51	823.87
693.65	608.54
693.78	425.98
693.92	285.55
694.05	220.01
694.19	182.56
694.32	149.79
694.45	142.77
694.59	112.35
694.72	124.05
694.86	70.22
694.99	112.35
695.13	121.71
695.26	145.11
695.39	117.03
695.53	203.63
695.66	161.50
695.80	84.26
695.93	168.52
696.07	107.66
696.20	198.95
696.33	241.08
696.47	250.44
696.60	311.29
696.73	234.05
696.87	215.33
697.00	252.78
697.14	177.88
697.27	121.71
697.40	210.65
697.54	119.37
697.67	117.03
697.80	63.19
697.94	142.77
698.07	28.09
698.21	119.37
698.34	177.88
698.47	72.56
698.61	65.54
698.74	173.20
698.87	166.18
699.01	147.45
699.14	135.75
699.27	98.30
699.40	187.24
699.54	184.90
699.67	142.77
699.80	121.71
699.94	142.77
700.07	88.94
700.20	147.45
700.34	161.50
700.47	133.41
700.60	135.75
700.73	163.84
700.87	161.50
701.00	58.51
701.13	128.73
701.26	187.24
701.40	182.56
701.53	72.56
701.66	117.03
701.79	84.26
701.93	196.60
702.06	224.69
702.19	318.31
702.32	337.04
702.46	360.44
702.59	322.99
702.72	704.50
702.85	2612.04
702.99	5212.37
703.12	6738.40
703.25	7562.27
703.38	6338.17
703.51	4971.30
703.65	3892.31
703.78	2609.70
703.91	1678.16
704.04	1158.57
704.17	650.67
704.31	470.45
704.44	337.04
704.57	175.54
704.70	257.46
704.83	128.73
704.96	154.48
705.10	124.05
705.23	121.71
>>>>>End Processed Spectral Data<<<<<
