SpectraSuite Data File
++++++++++++++++++++++++++++++++++++
Date: Fri Oct 04 11:46:57 GMT-05:00 2013
User: price-jones
Dark Spectrum Present: No
Reference Spectrum Present: No
Number of Sampled Component Spectra: 1
Spectrometers: USB2+H05261
Integration Time (usec): 100000 (USB2+H05261)
Spectra Averaged: 1 (USB2+H05261)
Boxcar Smoothing: 0 (USB2+H05261)
Correct for Electrical Dark: No (USB2+H05261)
Strobe/Lamp Enabled: No (USB2+H05261)
Correct for Detector Non-linearity: No (USB2+H05261)
Correct for Stray Light: No (USB2+H05261)
Number of Pixels in Processed Spectrum: 2048
>>>>>Begin Processed Spectral Data<<<<<
365.73	35.11
365.92	35.11
366.12	35.11
366.32	0.00
366.52	0.00
366.72	0.00
366.91	0.00
367.11	0.00
367.31	0.00
367.51	0.00
367.70	0.00
367.90	0.00
368.10	0.00
368.30	0.00
368.49	0.00
368.69	0.00
368.89	30.43
369.09	0.00
369.28	0.00
369.48	0.00
369.68	0.00
369.87	0.00
370.07	14.04
370.27	21.06
370.47	0.00
370.66	11.70
370.86	49.15
371.06	58.51
371.25	79.58
371.45	9.36
371.65	63.19
371.84	35.11
372.04	79.58
372.24	79.58
372.44	135.75
372.63	98.30
372.83	142.77
373.03	84.26
373.22	37.45
373.42	88.94
373.62	147.45
373.81	131.07
374.01	117.03
374.21	105.32
374.40	21.06
374.60	84.26
374.79	156.82
374.99	91.28
375.19	105.32
375.38	126.39
375.58	56.17
375.78	93.62
375.97	170.86
376.17	152.13
376.37	110.01
376.56	86.60
376.76	121.71
376.95	173.20
377.15	105.32
377.35	102.98
377.54	191.92
377.74	119.37
377.93	70.22
378.13	70.22
378.33	119.37
378.52	84.26
378.72	126.39
378.91	86.60
379.11	124.05
379.31	65.54
379.50	79.58
379.70	88.94
379.89	119.37
380.09	30.43
380.28	119.37
380.48	88.94
380.68	63.19
380.87	74.90
381.07	142.77
381.26	105.32
381.46	65.54
381.65	32.77
381.85	117.03
382.04	135.75
382.24	93.62
382.43	49.15
382.63	35.11
382.83	72.56
383.02	44.47
383.22	107.66
383.41	56.17
383.61	95.96
383.80	18.72
384.00	74.90
384.19	51.49
384.39	105.32
384.58	74.90
384.78	119.37
384.97	93.62
385.17	53.83
385.36	72.56
385.56	124.05
385.75	72.56
385.95	65.54
386.14	60.85
386.34	105.32
386.53	35.11
386.72	100.64
386.92	173.20
387.11	110.01
387.31	95.96
387.50	145.11
387.70	88.94
387.89	49.15
388.09	79.58
388.28	28.09
388.48	234.05
388.67	65.54
388.86	112.35
389.06	63.19
389.25	0.00
389.45	63.19
389.64	102.98
389.84	128.73
390.03	126.39
390.22	126.39
390.42	63.19
390.61	95.96
390.81	65.54
391.00	35.11
391.19	156.82
391.39	21.06
391.58	100.64
391.78	110.01
391.97	107.66
392.16	70.22
392.36	46.81
392.55	77.24
392.75	102.98
392.94	138.09
393.13	110.01
393.33	77.24
393.52	88.94
393.71	152.13
393.91	110.01
394.10	102.98
394.29	128.73
394.49	140.43
394.68	128.73
394.88	112.35
395.07	184.90
395.26	95.96
395.46	84.26
395.65	105.32
395.84	84.26
396.04	217.67
396.23	133.41
396.42	81.92
396.62	58.51
396.81	126.39
397.00	58.51
397.19	156.82
397.39	126.39
397.58	156.82
397.77	91.28
397.97	65.54
398.16	60.85
398.35	117.03
398.55	110.01
398.74	142.77
398.93	182.56
399.12	60.85
399.32	65.54
399.51	42.13
399.70	163.84
399.90	170.86
400.09	133.41
400.28	149.79
400.47	128.73
400.67	156.82
400.86	170.86
401.05	159.16
401.24	91.28
401.44	102.98
401.63	124.05
401.82	93.62
402.01	84.26
402.21	110.01
402.40	98.30
402.59	95.96
402.78	138.09
402.97	53.83
403.17	53.83
403.36	100.64
403.55	74.90
403.74	119.37
403.93	156.82
404.13	168.52
404.32	147.45
404.51	58.51
404.70	131.07
404.89	133.41
405.09	131.07
405.28	84.26
405.47	105.32
405.66	58.51
405.85	140.43
406.05	112.35
406.24	187.24
406.43	77.24
406.62	67.88
406.81	180.22
407.00	152.13
407.20	124.05
407.39	74.90
407.58	145.11
407.77	56.17
407.96	166.18
408.15	128.73
408.34	67.88
408.54	86.60
408.73	114.69
408.92	177.88
409.11	128.73
409.30	131.07
409.49	140.43
409.68	44.47
409.87	119.37
410.07	138.09
410.26	189.58
410.45	117.03
410.64	110.01
410.83	112.35
411.02	88.94
411.21	107.66
411.40	81.92
411.59	131.07
411.78	154.48
411.98	112.35
412.17	56.17
412.36	112.35
412.55	81.92
412.74	121.71
412.93	170.86
413.12	112.35
413.31	145.11
413.50	124.05
413.69	100.64
413.88	93.62
414.07	119.37
414.26	117.03
414.45	65.54
414.64	81.92
414.83	102.98
415.02	180.22
415.22	93.62
415.41	133.41
415.60	128.73
415.79	135.75
415.98	124.05
416.17	107.66
416.36	135.75
416.55	107.66
416.74	35.11
416.93	168.52
417.12	102.98
417.31	74.90
417.50	154.48
417.69	124.05
417.88	173.20
418.07	154.48
418.26	107.66
418.45	110.01
418.64	217.67
418.83	205.97
419.02	189.58
419.21	196.60
419.39	187.24
419.58	161.50
419.77	112.35
419.96	163.84
420.15	142.77
420.34	84.26
420.53	142.77
420.72	147.45
420.91	168.52
421.10	121.71
421.29	86.60
421.48	168.52
421.67	126.39
421.86	58.51
422.05	135.75
422.24	107.66
422.43	133.41
422.61	77.24
422.80	114.69
422.99	95.96
423.18	79.58
423.37	147.45
423.56	93.62
423.75	81.92
423.94	56.17
424.13	102.98
424.32	149.79
424.50	119.37
424.69	86.60
424.88	154.48
425.07	102.98
425.26	161.50
425.45	156.82
425.64	131.07
425.83	191.92
426.01	205.97
426.20	124.05
426.39	117.03
426.58	124.05
426.77	79.58
426.96	124.05
427.15	194.26
427.33	60.85
427.52	39.79
427.71	81.92
427.90	46.81
428.09	133.41
428.28	126.39
428.46	93.62
428.65	112.35
428.84	32.77
429.03	95.96
429.22	79.58
429.40	102.98
429.59	124.05
429.78	161.50
429.97	142.77
430.16	77.24
430.34	72.56
430.53	138.09
430.72	63.19
430.91	112.35
431.10	98.30
431.28	168.52
431.47	138.09
431.66	168.52
431.85	138.09
432.03	175.54
432.22	133.41
432.41	95.96
432.60	156.82
432.79	182.56
432.97	156.82
433.16	252.78
433.35	224.69
433.54	175.54
433.72	175.54
433.91	170.86
434.10	142.77
434.28	135.75
434.47	152.13
434.66	184.90
434.85	142.77
435.03	147.45
435.22	180.22
435.41	180.22
435.59	100.64
435.78	114.69
435.97	77.24
436.16	105.32
436.34	180.22
436.53	161.50
436.72	100.64
436.90	149.79
437.09	154.48
437.28	133.41
437.46	175.54
437.65	98.30
437.84	95.96
438.02	102.98
438.21	119.37
438.40	175.54
438.58	77.24
438.77	128.73
438.96	98.30
439.14	135.75
439.33	107.66
439.52	105.32
439.70	79.58
439.89	117.03
440.08	72.56
440.26	170.86
440.45	154.48
440.63	126.39
440.82	124.05
441.01	131.07
441.19	133.41
441.38	124.05
441.57	86.60
441.75	93.62
441.94	149.79
442.12	4.68
442.31	128.73
442.50	131.07
442.68	77.24
442.87	124.05
443.05	114.69
443.24	131.07
443.43	121.71
443.61	161.50
443.80	117.03
443.98	149.79
444.17	198.95
444.35	205.97
444.54	131.07
444.73	53.83
444.91	117.03
445.10	149.79
445.28	159.16
445.47	166.18
445.65	191.92
445.84	126.39
446.02	121.71
446.21	86.60
446.39	126.39
446.58	140.43
446.77	173.20
446.95	191.92
447.14	173.20
447.32	194.26
447.51	168.52
447.69	126.39
447.88	119.37
448.06	145.11
448.25	180.22
448.43	86.60
448.62	119.37
448.80	107.66
448.99	53.83
449.17	110.01
449.36	229.37
449.54	229.37
449.73	30.43
449.91	212.99
450.10	84.26
450.28	250.44
450.46	196.60
450.65	212.99
450.83	243.42
451.02	98.30
451.20	170.86
451.39	142.77
451.57	60.85
451.76	105.32
451.94	168.52
452.13	175.54
452.31	161.50
452.49	184.90
452.68	81.92
452.86	112.35
453.05	170.86
453.23	95.96
453.42	124.05
453.60	126.39
453.78	222.35
453.97	208.31
454.15	128.73
454.34	124.05
454.52	88.94
454.70	145.11
454.89	126.39
455.07	107.66
455.26	231.71
455.44	182.56
455.62	110.01
455.81	117.03
455.99	140.43
456.17	74.90
456.36	149.79
456.54	177.88
456.73	79.58
456.91	117.03
457.09	88.94
457.28	135.75
457.46	117.03
457.64	191.92
457.83	154.48
458.01	194.26
458.19	196.60
458.38	149.79
458.56	166.18
458.74	124.05
458.93	140.43
459.11	56.17
459.29	135.75
459.48	196.60
459.66	173.20
459.84	114.69
460.03	203.63
460.21	187.24
460.39	107.66
460.57	220.01
460.76	133.41
460.94	114.69
461.12	124.05
461.31	156.82
461.49	175.54
461.67	88.94
461.85	119.37
462.04	142.77
462.22	596.84
462.40	156.82
462.59	149.79
462.77	100.64
462.95	119.37
463.13	72.56
463.32	154.48
463.50	128.73
463.68	140.43
463.86	156.82
464.05	161.50
464.23	79.58
464.41	159.16
464.59	93.62
464.78	112.35
464.96	60.85
465.14	166.18
465.32	135.75
465.50	180.22
465.69	194.26
465.87	72.56
466.05	147.45
466.23	168.52
466.41	138.09
466.60	170.86
466.78	203.63
466.96	170.86
467.14	133.41
467.32	100.64
467.51	102.98
467.69	163.84
467.87	184.90
468.05	135.75
468.23	184.90
468.41	180.22
468.60	166.18
468.78	187.24
468.96	205.97
469.14	201.29
469.32	119.37
469.50	67.88
469.69	212.99
469.87	184.90
470.05	105.32
470.23	124.05
470.41	46.81
470.59	100.64
470.77	152.13
470.95	166.18
471.14	205.97
471.32	156.82
471.50	163.84
471.68	110.01
471.86	105.32
472.04	110.01
472.22	175.54
472.40	84.26
472.58	173.20
472.77	152.13
472.95	107.66
473.13	126.39
473.31	212.99
473.49	114.69
473.67	72.56
473.85	170.86
474.03	229.37
474.21	133.41
474.39	196.60
474.57	215.33
474.75	220.01
474.93	128.73
475.12	67.88
475.30	196.60
475.48	138.09
475.66	147.45
475.84	245.76
476.02	166.18
476.20	177.88
476.38	51.49
476.56	159.16
476.74	128.73
476.92	124.05
477.10	163.84
477.28	220.01
477.46	189.58
477.64	124.05
477.82	95.96
478.00	149.79
478.18	91.28
478.36	142.77
478.54	133.41
478.72	145.11
478.90	107.66
479.08	182.56
479.26	168.52
479.44	100.64
479.62	72.56
479.80	198.95
479.98	184.90
480.16	161.50
480.34	180.22
480.52	191.92
480.70	135.75
480.88	205.97
481.06	131.07
481.24	138.09
481.41	126.39
481.59	152.13
481.77	180.22
481.95	180.22
482.13	208.31
482.31	205.97
482.49	112.35
482.67	91.28
482.85	77.24
483.03	126.39
483.21	126.39
483.39	142.77
483.57	168.52
483.74	245.76
483.92	135.75
484.10	149.79
484.28	163.84
484.46	187.24
484.64	133.41
484.82	222.35
485.00	182.56
485.18	154.48
485.35	189.58
485.53	149.79
485.71	229.37
485.89	173.20
486.07	138.09
486.25	201.29
486.43	248.10
486.61	187.24
486.78	243.42
486.96	128.73
487.14	196.60
487.32	133.41
487.50	135.75
487.68	121.71
487.85	119.37
488.03	88.94
488.21	135.75
488.39	205.97
488.57	121.71
488.75	166.18
488.92	397.89
489.10	187.24
489.28	238.73
489.46	133.41
489.64	114.69
489.81	159.16
489.99	168.52
490.17	196.60
490.35	259.80
490.53	138.09
490.70	180.22
490.88	229.37
491.06	124.05
491.24	177.88
491.41	203.63
491.59	224.69
491.77	138.09
491.95	191.92
492.13	168.52
492.30	140.43
492.48	208.31
492.66	173.20
492.84	161.50
493.01	170.86
493.19	156.82
493.37	140.43
493.54	112.35
493.72	238.73
493.90	194.26
494.08	140.43
494.25	121.71
494.43	159.16
494.61	243.42
494.79	161.50
494.96	149.79
495.14	212.99
495.32	243.42
495.49	159.16
495.67	245.76
495.85	175.54
496.02	168.52
496.20	205.97
496.38	156.82
496.55	191.92
496.73	224.69
496.91	173.20
497.09	229.37
497.26	161.50
497.44	217.67
497.62	98.30
497.79	166.18
497.97	191.92
498.14	194.26
498.32	112.35
498.50	248.10
498.67	124.05
498.85	264.48
499.03	166.18
499.20	163.84
499.38	187.24
499.56	217.67
499.73	133.41
499.91	170.86
500.08	283.20
500.26	189.58
500.44	203.63
500.61	182.56
500.79	95.96
500.97	191.92
501.14	210.65
501.32	138.09
501.49	208.31
501.67	180.22
501.84	184.90
502.02	266.82
502.20	234.05
502.37	112.35
502.55	205.97
502.72	170.86
502.90	208.31
503.07	191.92
503.25	201.29
503.43	217.67
503.60	290.23
503.78	227.03
503.95	189.58
504.13	187.24
504.30	227.03
504.48	250.44
504.65	208.31
504.83	182.56
505.01	161.50
505.18	187.24
505.36	227.03
505.53	227.03
505.71	182.56
505.88	196.60
506.06	276.18
506.23	215.33
506.41	117.03
506.58	222.35
506.76	98.30
506.93	126.39
507.11	180.22
507.28	51.49
507.46	170.86
507.63	182.56
507.81	290.23
507.98	203.63
508.16	173.20
508.33	250.44
508.50	259.80
508.68	241.08
508.85	177.88
509.03	133.41
509.20	191.92
509.38	166.18
509.55	208.31
509.73	182.56
509.90	252.78
510.08	191.92
510.25	250.44
510.42	182.56
510.60	234.05
510.77	156.82
510.95	194.26
511.12	173.20
511.30	269.16
511.47	198.95
511.64	315.97
511.82	236.39
511.99	156.82
512.17	149.79
512.34	236.39
512.51	168.52
512.69	217.67
512.86	234.05
513.04	203.63
513.21	229.37
513.38	163.84
513.56	222.35
513.73	187.24
513.90	168.52
514.08	142.77
514.25	266.82
514.43	201.29
514.60	152.13
514.77	180.22
514.95	222.35
515.12	189.58
515.29	234.05
515.47	149.79
515.64	196.60
515.81	142.77
515.99	210.65
516.16	201.29
516.33	149.79
516.51	154.48
516.68	224.69
516.85	170.86
517.03	149.79
517.20	194.26
517.37	205.97
517.54	159.16
517.72	194.26
517.89	135.75
518.06	121.71
518.24	236.39
518.41	238.73
518.58	266.82
518.75	227.03
518.93	294.91
519.10	187.24
519.27	161.50
519.45	308.95
519.62	170.86
519.79	236.39
519.96	117.03
520.14	142.77
520.31	262.14
520.48	175.54
520.65	203.63
520.83	215.33
521.00	210.65
521.17	180.22
521.34	180.22
521.52	224.69
521.69	196.60
521.86	215.33
522.03	203.63
522.20	208.31
522.38	184.90
522.55	177.88
522.72	175.54
522.89	208.31
523.07	236.39
523.24	201.29
523.41	196.60
523.58	131.07
523.75	201.29
523.92	205.97
524.10	198.95
524.27	255.12
524.44	212.99
524.61	191.92
524.78	163.84
524.96	231.71
525.13	166.18
525.30	220.01
525.47	177.88
525.64	182.56
525.81	255.12
525.98	210.65
526.16	203.63
526.33	145.11
526.50	184.90
526.67	217.67
526.84	198.95
527.01	220.01
527.18	184.90
527.36	189.58
527.53	154.48
527.70	250.44
527.87	217.67
528.04	315.97
528.21	126.39
528.38	191.92
528.55	280.86
528.72	220.01
528.89	311.29
529.07	107.66
529.24	264.48
529.41	280.86
529.58	196.60
529.75	201.29
529.92	278.52
530.09	241.08
530.26	306.61
530.43	259.80
530.60	159.16
530.77	187.24
530.94	163.84
531.11	189.58
531.28	170.86
531.46	187.24
531.63	243.42
531.80	217.67
531.97	168.52
532.14	154.48
532.31	241.08
532.48	224.69
532.65	262.14
532.82	294.91
532.99	290.23
533.16	273.84
533.33	266.82
533.50	248.10
533.67	287.89
533.84	341.72
534.01	393.21
534.18	351.08
534.35	313.63
534.52	248.10
534.69	266.82
534.86	220.01
535.03	266.82
535.20	241.08
535.37	292.57
535.54	227.03
535.71	196.60
535.88	245.76
536.05	119.37
536.22	205.97
536.38	154.48
536.55	269.16
536.72	215.33
536.89	140.43
537.06	170.86
537.23	187.24
537.40	163.84
537.57	145.11
537.74	238.73
537.91	250.44
538.08	231.71
538.25	212.99
538.42	208.31
538.59	234.05
538.75	175.54
538.92	189.58
539.09	243.42
539.26	234.05
539.43	468.11
539.60	919.83
539.77	1430.07
539.94	1418.36
540.11	919.83
540.28	674.07
540.44	430.66
540.61	257.46
540.78	203.63
540.95	220.01
541.12	259.80
541.29	257.46
541.46	287.89
541.62	231.71
541.79	205.97
541.96	187.24
542.13	205.97
542.30	205.97
542.47	231.71
542.63	177.88
542.80	201.29
542.97	271.50
543.14	212.99
543.31	224.69
543.48	182.56
543.64	262.14
543.81	292.57
543.98	222.35
544.15	119.37
544.32	166.18
544.48	241.08
544.65	180.22
544.82	133.41
544.99	217.67
545.16	203.63
545.32	201.29
545.49	252.78
545.66	163.84
545.83	224.69
546.00	168.52
546.16	255.12
546.33	180.22
546.50	285.55
546.67	215.33
546.83	168.52
547.00	184.90
547.17	168.52
547.34	201.29
547.50	205.97
547.67	149.79
547.84	224.69
548.00	189.58
548.17	175.54
548.34	107.66
548.51	222.35
548.67	238.73
548.84	212.99
549.01	205.97
549.18	124.05
549.34	177.88
549.51	159.16
549.68	196.60
549.84	217.67
550.01	135.75
550.18	276.18
550.34	306.61
550.51	290.23
550.68	238.73
550.84	184.90
551.01	290.23
551.18	238.73
551.34	234.05
551.51	262.14
551.68	212.99
551.84	194.26
552.01	133.41
552.18	154.48
552.34	273.84
552.51	201.29
552.68	212.99
552.84	212.99
553.01	177.88
553.18	198.95
553.34	203.63
553.51	212.99
553.67	259.80
553.84	215.33
554.01	182.56
554.17	191.92
554.34	161.50
554.51	301.93
554.67	177.88
554.84	201.29
555.00	217.67
555.17	177.88
555.33	243.42
555.50	189.58
555.67	175.54
555.83	168.52
556.00	210.65
556.16	322.99
556.33	203.63
556.50	191.92
556.66	238.73
556.83	177.88
556.99	208.31
557.16	224.69
557.32	264.48
557.49	191.92
557.65	147.45
557.82	110.01
557.98	215.33
558.15	110.01
558.32	107.66
558.48	210.65
558.65	152.13
558.81	175.54
558.98	170.86
559.14	194.26
559.31	203.63
559.47	248.10
559.64	205.97
559.80	217.67
559.97	175.54
560.13	236.39
560.30	243.42
560.46	255.12
560.63	236.39
560.79	189.58
560.96	159.16
561.12	234.05
561.29	131.07
561.45	147.45
561.61	220.01
561.78	173.20
561.94	264.48
562.11	180.22
562.27	243.42
562.44	166.18
562.60	227.03
562.77	229.37
562.93	297.25
563.10	201.29
563.26	229.37
563.42	177.88
563.59	224.69
563.75	177.88
563.92	278.52
564.08	166.18
564.24	264.48
564.41	248.10
564.57	191.92
564.74	163.84
564.90	241.08
565.07	191.92
565.23	191.92
565.39	245.76
565.56	210.65
565.72	222.35
565.88	231.71
566.05	212.99
566.21	255.12
566.38	210.65
566.54	198.95
566.70	210.65
566.87	131.07
567.03	180.22
567.19	229.37
567.36	175.54
567.52	138.09
567.68	163.84
567.85	208.31
568.01	175.54
568.17	224.69
568.34	287.89
568.50	229.37
568.66	163.84
568.83	262.14
568.99	201.29
569.15	234.05
569.32	201.29
569.48	208.31
569.64	180.22
569.81	208.31
569.97	168.52
570.13	266.82
570.30	229.37
570.46	187.24
570.62	135.75
570.78	189.58
570.95	222.35
571.11	215.33
571.27	257.46
571.43	255.12
571.60	273.84
571.76	252.78
571.92	229.37
572.09	273.84
572.25	152.13
572.41	177.88
572.57	187.24
572.74	177.88
572.90	175.54
573.06	184.90
573.22	262.14
573.38	278.52
573.55	161.50
573.71	187.24
573.87	248.10
574.03	184.90
574.20	182.56
574.36	285.55
574.52	283.20
574.68	276.18
574.84	220.01
575.01	215.33
575.17	196.60
575.33	198.95
575.49	236.39
575.65	252.78
575.82	325.33
575.98	526.62
576.14	629.60
576.30	653.01
576.46	505.56
576.62	418.96
576.79	341.72
576.95	271.50
577.11	198.95
577.27	250.44
577.43	196.60
577.59	290.23
577.75	224.69
577.92	140.43
578.08	182.56
578.24	280.86
578.40	273.84
578.56	285.55
578.72	273.84
578.88	210.65
579.04	327.68
579.21	215.33
579.37	292.57
579.53	276.18
579.69	278.52
579.85	203.63
580.01	283.20
580.17	369.80
580.33	297.25
580.49	264.48
580.65	318.31
580.82	313.63
580.98	259.80
581.14	241.08
581.30	369.80
581.46	346.40
581.62	472.79
581.78	568.75
581.94	540.66
582.10	451.72
582.26	475.13
582.42	362.78
582.58	386.19
582.74	341.72
582.90	346.40
583.06	407.25
583.22	433.00
583.38	339.38
583.54	447.04
583.70	564.07
583.86	592.16
584.02	678.76
584.18	828.55
584.34	1170.27
584.50	3096.53
584.66	22998.10
584.82	54850.45
584.98	64540.27
585.14	61394.59
585.30	46614.11
585.46	28395.38
585.62	17291.88
585.78	7878.24
585.94	3059.08
586.10	1565.82
586.26	1015.79
586.42	760.67
586.58	599.18
586.74	552.37
586.90	521.94
587.06	589.82
587.22	505.56
587.38	512.58
587.54	1048.56
587.70	3403.14
587.86	5549.41
588.02	5968.37
588.18	4269.14
588.34	2740.77
588.49	1748.38
588.65	1027.50
588.81	608.54
588.97	423.64
589.13	259.80
589.29	360.44
589.45	285.55
589.61	306.61
589.77	372.15
589.93	411.93
590.08	402.57
590.24	472.79
590.40	433.00
590.56	355.76
590.72	365.12
590.88	266.82
591.04	327.68
591.20	290.23
591.35	320.65
591.51	304.27
591.67	257.46
591.83	222.35
591.99	269.16
592.15	318.31
592.31	180.22
592.46	264.48
592.62	266.82
592.78	212.99
592.94	269.16
593.10	257.46
593.26	203.63
593.41	320.65
593.57	404.91
593.73	514.92
593.89	2794.60
594.05	7103.53
594.20	10487.94
594.36	9926.21
594.52	6726.70
594.68	4018.70
594.84	2654.17
594.99	1500.28
595.15	784.08
595.31	404.91
595.47	369.80
595.62	276.18
595.78	217.67
595.94	257.46
596.10	250.44
596.25	351.08
596.41	381.51
596.57	285.55
596.73	315.97
596.88	533.64
597.04	1416.02
597.20	2202.44
597.36	2527.78
597.51	1947.33
597.67	1336.45
597.83	866.00
597.99	580.45
598.14	430.66
598.30	402.57
598.46	330.02
598.61	280.86
598.77	283.20
598.93	196.60
599.09	245.76
599.24	227.03
599.40	210.65
599.56	145.11
599.71	217.67
599.87	215.33
600.03	220.01
600.18	149.79
600.34	236.39
600.50	238.73
600.65	149.79
600.81	222.35
600.97	236.39
601.12	191.92
601.28	259.80
601.44	212.99
601.59	222.35
601.75	292.57
601.91	257.46
602.06	220.01
602.22	330.02
602.37	690.46
602.53	1699.23
602.69	2579.27
602.84	2719.70
603.00	2001.16
603.16	1277.93
603.31	945.58
603.47	667.05
603.62	409.59
603.78	259.80
603.94	238.73
604.09	189.58
604.25	227.03
604.40	311.29
604.56	224.69
604.71	255.12
604.87	205.97
605.03	222.35
605.18	142.77
605.34	301.93
605.49	264.48
605.65	220.01
605.80	184.90
605.96	287.89
606.12	299.59
606.27	283.20
606.43	318.31
606.58	313.63
606.74	748.97
606.89	3225.26
607.05	6785.21
607.20	8872.97
607.36	7384.39
607.51	4980.66
607.67	3204.19
607.82	2153.29
607.98	1228.78
608.13	641.31
608.29	440.02
608.44	334.70
608.60	365.12
608.75	444.70
608.91	1114.10
609.06	5266.21
609.22	11751.83
609.37	15782.23
609.53	13607.87
609.68	8819.14
609.84	5792.83
609.99	3906.35
610.15	2127.55
610.30	971.32
610.46	477.47
610.61	461.09
610.76	376.83
610.92	337.04
611.07	306.61
611.23	320.65
611.38	320.65
611.54	301.93
611.69	299.59
611.84	351.08
612.00	184.90
612.15	297.25
612.31	470.45
612.46	510.24
612.62	664.71
612.77	634.29
612.92	500.87
613.08	500.87
613.23	477.47
613.39	528.96
613.54	814.51
613.69	4802.78
613.85	14839.00
614.00	23578.56
614.15	24823.72
614.31	17350.39
614.46	11344.58
614.62	7478.01
614.77	4482.13
614.92	1996.48
615.08	968.98
615.23	610.88
615.38	447.04
615.54	486.83
615.69	912.81
615.84	2867.16
616.00	4997.04
616.15	6380.30
616.30	5172.58
616.46	3623.15
616.61	2317.13
616.76	1647.74
616.92	868.34
617.07	397.89
617.22	294.91
617.37	273.84
617.53	299.59
617.68	259.80
617.83	341.72
617.99	313.63
618.14	325.33
618.29	252.78
618.45	215.33
618.60	259.80
618.75	229.37
618.90	236.39
619.06	248.10
619.21	283.20
619.36	243.42
619.51	180.22
619.67	217.67
619.82	217.67
619.97	245.76
620.12	173.20
620.28	269.16
620.43	212.99
620.58	205.97
620.73	259.80
620.89	299.59
621.04	447.04
621.19	1563.48
621.34	2895.24
621.49	3737.84
621.65	3197.17
621.80	2319.47
621.95	1619.65
622.10	1156.22
622.25	624.92
622.41	337.04
622.56	280.86
622.71	278.52
622.86	297.25
623.01	257.46
623.16	238.73
623.32	220.01
623.47	217.67
623.62	224.69
623.77	245.76
623.92	128.73
624.07	255.12
624.23	227.03
624.38	196.60
624.53	252.78
624.68	301.93
624.83	210.65
624.98	250.44
625.13	208.31
625.29	269.16
625.44	287.89
625.59	283.20
625.74	266.82
625.89	547.69
626.04	2258.62
626.19	7101.19
626.34	11688.64
626.49	12868.27
626.65	9516.62
626.80	6317.11
626.95	4269.14
627.10	2586.29
627.25	1289.64
627.40	559.39
627.55	339.38
627.70	325.33
627.85	205.97
628.00	294.91
628.15	224.69
628.30	191.92
628.45	252.78
628.60	121.71
628.76	135.75
628.91	173.20
629.06	250.44
629.21	182.56
629.36	259.80
629.51	252.78
629.66	280.86
629.81	409.59
629.96	1284.95
630.11	2532.46
630.26	3272.07
630.41	2822.69
630.56	2146.27
630.71	1380.92
630.86	1011.11
631.01	603.86
631.16	358.10
631.31	297.25
631.46	257.46
631.61	271.50
631.76	227.03
631.91	210.65
632.06	203.63
632.21	269.16
632.36	348.74
632.51	243.42
632.66	365.12
632.81	1139.84
632.96	3873.59
633.10	7075.44
633.25	9062.55
633.40	6927.99
633.55	4940.87
633.70	3393.78
633.85	2146.27
634.00	1226.44
634.15	631.94
634.30	376.83
634.45	306.61
634.60	301.93
634.75	297.25
634.90	212.99
635.05	283.20
635.19	234.05
635.34	177.88
635.49	234.05
635.64	152.13
635.79	180.22
635.94	304.27
636.09	341.72
636.24	140.43
636.39	287.89
636.53	252.78
636.68	208.31
636.83	243.42
636.98	276.18
637.13	301.93
637.28	322.99
637.43	437.68
637.57	660.03
637.72	3201.85
637.87	9149.15
638.02	14682.18
638.17	16439.92
638.32	11964.82
638.46	7981.23
638.61	5408.98
638.76	3197.17
638.91	1668.80
639.06	835.57
639.20	669.39
639.35	624.92
639.50	777.06
639.65	4802.78
639.80	14649.41
639.94	23370.25
640.09	26103.99
640.24	19061.32
640.39	12924.44
640.54	8545.30
640.68	5156.20
640.83	2487.99
640.98	1149.20
641.13	622.58
641.27	475.13
641.42	353.42
641.57	376.83
641.72	243.42
641.86	273.84
642.01	182.56
642.16	271.50
642.31	271.50
642.45	224.69
642.60	191.92
642.75	203.63
642.90	301.93
643.04	243.42
643.19	189.58
643.34	234.05
643.48	266.82
643.63	248.10
643.78	320.65
643.93	161.50
644.07	161.50
644.22	208.31
644.37	86.60
644.51	191.92
644.66	170.86
644.81	154.48
644.95	299.59
645.10	110.01
645.25	140.43
645.39	180.22
645.54	203.63
645.69	227.03
645.83	140.43
645.98	257.46
646.13	259.80
646.27	163.84
646.42	184.90
646.57	217.67
646.71	220.01
646.86	170.86
647.00	149.79
647.15	163.84
647.30	135.75
647.44	149.79
647.59	105.32
647.74	168.52
647.88	173.20
648.03	152.13
648.17	243.42
648.32	149.79
648.47	156.82
648.61	224.69
648.76	152.13
648.90	154.48
649.05	252.78
649.20	180.22
649.34	245.76
649.49	152.13
649.63	227.03
649.78	187.24
649.92	430.66
650.07	1891.15
650.21	6399.02
650.36	10986.47
650.51	13324.67
650.65	11012.22
650.80	7653.55
650.94	4919.81
651.09	3117.59
651.23	1647.74
651.38	765.36
651.52	517.26
651.67	388.53
651.81	245.76
651.96	212.99
652.10	203.63
652.25	198.95
652.39	318.31
652.54	283.20
652.68	613.22
652.83	1956.69
652.97	3585.70
653.12	4629.58
653.26	4086.58
653.41	2967.80
653.55	2040.95
653.70	1331.76
653.84	755.99
653.99	395.55
654.13	257.46
654.27	217.67
654.42	67.88
654.56	166.18
654.71	198.95
654.85	159.16
655.00	138.09
655.14	163.84
655.29	112.35
655.43	208.31
655.57	147.45
655.72	227.03
655.86	159.16
656.01	128.73
656.15	91.28
656.30	255.12
656.44	161.50
656.58	201.29
656.73	180.22
656.87	138.09
657.01	142.77
657.16	168.52
657.30	248.10
657.45	205.97
657.59	168.52
657.73	107.66
657.88	224.69
658.02	231.71
658.16	203.63
658.31	187.24
658.45	191.92
658.60	138.09
658.74	224.69
658.88	131.07
659.03	182.56
659.17	278.52
659.31	812.17
659.46	2754.81
659.60	4959.60
659.74	6373.28
659.89	5607.92
660.03	4140.41
660.17	2897.58
660.32	1694.55
660.46	1043.88
660.60	575.77
660.74	362.78
660.89	231.71
661.03	203.63
661.17	156.82
661.32	117.03
661.46	102.98
661.60	98.30
661.74	124.05
661.89	175.54
662.03	212.99
662.17	203.63
662.31	168.52
662.46	205.97
662.60	110.01
662.74	166.18
662.88	224.69
663.03	159.16
663.17	166.18
663.31	154.48
663.45	210.65
663.60	105.32
663.74	112.35
663.88	128.73
664.02	126.39
664.17	149.79
664.31	145.11
664.45	194.26
664.59	135.75
664.73	154.48
664.88	231.71
665.02	121.71
665.16	170.86
665.30	234.05
665.44	205.97
665.59	191.92
665.73	201.29
665.87	210.65
666.01	152.13
666.15	243.42
666.29	159.16
666.44	224.69
666.58	182.56
666.72	180.22
666.86	196.60
667.00	259.80
667.14	416.62
667.28	1795.19
667.43	5130.45
667.57	8842.54
667.71	11215.85
667.85	9846.63
667.99	6930.33
668.13	4348.72
668.27	2628.42
668.41	1490.92
668.56	847.27
668.70	571.09
668.84	243.42
668.98	224.69
669.12	245.76
669.26	257.46
669.40	208.31
669.54	161.50
669.68	229.37
669.82	191.92
669.96	170.86
670.10	142.77
670.25	161.50
670.39	201.29
670.53	173.20
670.67	257.46
670.81	198.95
670.95	276.18
671.09	470.45
671.23	2022.22
671.37	4318.29
671.51	6361.58
671.65	7005.22
671.79	5507.28
671.93	3660.60
672.07	2267.98
672.21	1376.24
672.35	716.20
672.49	517.26
672.63	348.74
672.77	236.39
672.91	271.50
673.05	131.07
673.19	220.01
673.33	70.22
673.47	184.90
673.61	168.52
673.75	124.05
673.89	201.29
674.03	147.45
674.17	138.09
674.31	184.90
674.45	154.48
674.59	133.41
674.73	166.18
674.87	243.42
675.01	280.86
675.15	236.39
675.29	203.63
675.43	257.46
675.56	215.33
675.70	210.65
675.84	227.03
675.98	119.37
676.12	154.48
676.26	142.77
676.40	131.07
676.54	145.11
676.68	93.62
676.82	142.77
676.96	86.60
677.10	65.54
677.23	121.71
677.37	128.73
677.51	138.09
677.65	156.82
677.79	100.64
677.93	114.69
678.07	91.28
678.21	124.05
678.34	124.05
678.48	187.24
678.62	91.28
678.76	81.92
678.90	91.28
679.04	126.39
679.18	191.92
679.31	177.88
679.45	100.64
679.59	128.73
679.73	147.45
679.87	117.03
680.00	152.13
680.14	114.69
680.28	121.71
680.42	128.73
680.56	156.82
680.70	154.48
680.83	107.66
680.97	56.17
681.11	79.58
681.25	156.82
681.39	105.32
681.52	142.77
681.66	152.13
681.80	182.56
681.94	93.62
682.07	79.58
682.21	81.92
682.35	128.73
682.49	124.05
682.62	105.32
682.76	84.26
682.90	166.18
683.04	198.95
683.17	107.66
683.31	98.30
683.45	173.20
683.59	203.63
683.72	245.76
683.86	147.45
684.00	93.62
684.13	147.45
684.27	161.50
684.41	147.45
684.55	126.39
684.68	95.96
684.82	152.13
684.96	152.13
685.09	121.71
685.23	152.13
685.37	142.77
685.50	173.20
685.64	203.63
685.78	156.82
685.91	229.37
686.05	210.65
686.19	135.75
686.32	65.54
686.46	91.28
686.60	128.73
686.73	170.86
686.87	189.58
687.01	166.18
687.14	203.63
687.28	152.13
687.42	180.22
687.55	140.43
687.69	119.37
687.82	131.07
687.96	180.22
688.10	95.96
688.23	107.66
688.37	152.13
688.50	161.50
688.64	126.39
688.78	91.28
688.91	63.19
689.05	74.90
689.18	44.47
689.32	93.62
689.46	93.62
689.59	138.09
689.73	191.92
689.86	154.48
690.00	163.84
690.13	70.22
690.27	138.09
690.41	189.58
690.54	170.86
690.68	147.45
690.81	121.71
690.95	58.51
691.08	145.11
691.22	74.90
691.35	117.03
691.49	98.30
691.62	156.82
691.76	147.45
691.89	128.73
692.03	156.82
692.16	163.84
692.30	234.05
692.43	699.82
692.57	2120.53
692.70	3880.61
692.84	4887.04
692.97	4540.64
693.11	3208.87
693.24	2537.14
693.38	1729.66
693.51	1144.52
693.65	669.39
693.78	437.68
693.92	355.76
694.05	227.03
694.19	208.31
694.32	184.90
694.45	128.73
694.59	110.01
694.72	196.60
694.86	79.58
694.99	154.48
695.13	93.62
695.26	147.45
695.39	124.05
695.53	238.73
695.66	180.22
695.80	208.31
695.93	159.16
696.07	194.26
696.20	308.95
696.33	421.30
696.47	533.64
696.60	409.59
696.73	358.10
696.87	220.01
697.00	339.38
697.14	175.54
697.27	128.73
697.40	177.88
697.54	126.39
697.67	131.07
697.80	191.92
697.94	119.37
698.07	138.09
698.21	70.22
698.34	124.05
698.47	88.94
698.61	112.35
698.74	152.13
698.87	154.48
699.01	102.98
699.14	128.73
699.27	79.58
699.40	205.97
699.54	152.13
699.67	149.79
699.80	98.30
699.94	107.66
700.07	170.86
700.20	72.56
700.34	119.37
700.47	49.15
700.60	58.51
700.73	102.98
700.87	175.54
701.00	147.45
701.13	154.48
701.26	154.48
701.40	84.26
701.53	156.82
701.66	79.58
701.79	196.60
701.93	149.79
702.06	301.93
702.19	337.04
702.32	409.59
702.46	440.02
702.59	423.64
702.72	908.13
702.85	2724.38
702.99	5877.09
703.12	8645.94
703.25	9593.86
703.38	8105.28
703.51	6532.44
703.65	5109.39
703.78	3576.34
703.91	2314.79
704.04	1462.83
704.17	842.59
704.31	479.81
704.44	341.72
704.57	238.73
704.70	271.50
704.83	227.03
704.96	170.86
705.10	133.41
705.23	159.16
>>>>>End Processed Spectral Data<<<<<
