SpectraSuite Data File
++++++++++++++++++++++++++++++++++++
Date: Fri Oct 04 11:47:07 GMT-05:00 2013
User: price-jones
Dark Spectrum Present: No
Reference Spectrum Present: No
Number of Sampled Component Spectra: 1
Spectrometers: USB2+H05261
Integration Time (usec): 100000 (USB2+H05261)
Spectra Averaged: 1 (USB2+H05261)
Boxcar Smoothing: 0 (USB2+H05261)
Correct for Electrical Dark: No (USB2+H05261)
Strobe/Lamp Enabled: No (USB2+H05261)
Correct for Detector Non-linearity: No (USB2+H05261)
Correct for Stray Light: No (USB2+H05261)
Number of Pixels in Processed Spectrum: 2048
>>>>>Begin Processed Spectral Data<<<<<
365.73	9.36
365.92	9.36
366.12	9.36
366.32	0.00
366.52	0.00
366.72	0.00
366.91	0.00
367.11	0.00
367.31	0.00
367.51	0.00
367.70	0.00
367.90	0.00
368.10	0.00
368.30	0.00
368.49	0.00
368.69	0.00
368.89	0.00
369.09	0.00
369.28	0.00
369.48	0.00
369.68	0.00
369.87	11.70
370.07	0.00
370.27	0.00
370.47	16.38
370.66	9.36
370.86	0.00
371.06	42.13
371.25	67.88
371.45	91.28
371.65	60.85
371.84	58.51
372.04	145.11
372.24	35.11
372.44	42.13
372.63	21.06
372.83	131.07
373.03	86.60
373.22	53.83
373.42	112.35
373.62	102.98
373.81	112.35
374.01	152.13
374.21	49.15
374.40	140.43
374.60	152.13
374.79	49.15
374.99	102.98
375.19	105.32
375.38	131.07
375.58	42.13
375.78	88.94
375.97	114.69
376.17	114.69
376.37	147.45
376.56	91.28
376.76	217.67
376.95	93.62
377.15	161.50
377.35	44.47
377.54	128.73
377.74	107.66
377.93	114.69
378.13	93.62
378.33	131.07
378.52	58.51
378.72	0.00
378.91	142.77
379.11	98.30
379.31	77.24
379.50	56.17
379.70	74.90
379.89	117.03
380.09	25.75
380.28	14.04
380.48	189.58
380.68	142.77
380.87	46.81
381.07	65.54
381.26	88.94
381.46	170.86
381.65	119.37
381.85	112.35
382.04	152.13
382.24	147.45
382.43	0.00
382.63	37.45
382.83	147.45
383.02	86.60
383.22	177.88
383.41	14.04
383.61	67.88
383.80	32.77
384.00	100.64
384.19	124.05
384.39	91.28
384.58	44.47
384.78	70.22
384.97	74.90
385.17	91.28
385.36	67.88
385.56	107.66
385.75	37.45
385.95	51.49
386.14	159.16
386.34	58.51
386.53	128.73
386.72	58.51
386.92	44.47
387.11	98.30
387.31	182.56
387.50	112.35
387.70	42.13
387.89	88.94
388.09	4.68
388.28	65.54
388.48	117.03
388.67	88.94
388.86	81.92
389.06	95.96
389.25	138.09
389.45	161.50
389.64	79.58
389.84	119.37
390.03	63.19
390.22	114.69
390.42	81.92
390.61	4.68
390.81	79.58
391.00	107.66
391.19	117.03
391.39	107.66
391.58	112.35
391.78	77.24
391.97	88.94
392.16	98.30
392.36	32.77
392.55	135.75
392.75	58.51
392.94	42.13
393.13	131.07
393.33	65.54
393.52	114.69
393.71	102.98
393.91	91.28
394.10	142.77
394.29	98.30
394.49	121.71
394.68	145.11
394.88	100.64
395.07	102.98
395.26	145.11
395.46	112.35
395.65	147.45
395.84	93.62
396.04	138.09
396.23	72.56
396.42	39.79
396.62	112.35
396.81	156.82
397.00	133.41
397.19	131.07
397.39	93.62
397.58	189.58
397.77	84.26
397.97	131.07
398.16	112.35
398.35	152.13
398.55	98.30
398.74	93.62
398.93	159.16
399.12	42.13
399.32	135.75
399.51	145.11
399.70	119.37
399.90	105.32
400.09	114.69
400.28	72.56
400.47	56.17
400.67	107.66
400.86	126.39
401.05	135.75
401.24	105.32
401.44	86.60
401.63	98.30
401.82	105.32
402.01	135.75
402.21	60.85
402.40	74.90
402.59	100.64
402.78	117.03
402.97	128.73
403.17	100.64
403.36	100.64
403.55	88.94
403.74	128.73
403.93	182.56
404.13	135.75
404.32	159.16
404.51	147.45
404.70	140.43
404.89	102.98
405.09	182.56
405.28	133.41
405.47	140.43
405.66	135.75
405.85	128.73
406.05	74.90
406.24	126.39
406.43	105.32
406.62	39.79
406.81	70.22
407.00	170.86
407.20	98.30
407.39	175.54
407.58	131.07
407.77	112.35
407.96	149.79
408.15	93.62
408.34	72.56
408.54	88.94
408.73	140.43
408.92	77.24
409.11	163.84
409.30	70.22
409.49	84.26
409.68	74.90
409.87	98.30
410.07	107.66
410.26	170.86
410.45	168.52
410.64	124.05
410.83	65.54
411.02	107.66
411.21	126.39
411.40	32.77
411.59	119.37
411.78	93.62
411.98	117.03
412.17	107.66
412.36	152.13
412.55	46.81
412.74	126.39
412.93	133.41
413.12	42.13
413.31	102.98
413.50	145.11
413.69	124.05
413.88	128.73
414.07	93.62
414.26	154.48
414.45	156.82
414.64	79.58
414.83	53.83
415.02	128.73
415.22	154.48
415.41	140.43
415.60	81.92
415.79	161.50
415.98	145.11
416.17	135.75
416.36	138.09
416.55	128.73
416.74	128.73
416.93	166.18
417.12	84.26
417.31	128.73
417.50	131.07
417.69	234.05
417.88	184.90
418.07	124.05
418.26	114.69
418.45	220.01
418.64	234.05
418.83	252.78
419.02	173.20
419.21	154.48
419.39	117.03
419.58	156.82
419.77	177.88
419.96	152.13
420.15	163.84
420.34	77.24
420.53	140.43
420.72	156.82
420.91	142.77
421.10	79.58
421.29	58.51
421.48	79.58
421.67	152.13
421.86	105.32
422.05	147.45
422.24	102.98
422.43	77.24
422.61	67.88
422.80	133.41
422.99	98.30
423.18	105.32
423.37	194.26
423.56	140.43
423.75	124.05
423.94	95.96
424.13	175.54
424.32	77.24
424.50	84.26
424.69	149.79
424.88	152.13
425.07	105.32
425.26	166.18
425.45	210.65
425.64	196.60
425.83	252.78
426.01	231.71
426.20	145.11
426.39	159.16
426.58	126.39
426.77	187.24
426.96	133.41
427.15	133.41
427.33	107.66
427.52	182.56
427.71	63.19
427.90	128.73
428.09	152.13
428.28	170.86
428.46	119.37
428.65	147.45
428.84	124.05
429.03	102.98
429.22	51.49
429.40	67.88
429.59	163.84
429.78	131.07
429.97	112.35
430.16	51.49
430.34	77.24
430.53	100.64
430.72	63.19
430.91	102.98
431.10	58.51
431.28	135.75
431.47	163.84
431.66	163.84
431.85	79.58
432.03	203.63
432.22	168.52
432.41	142.77
432.60	149.79
432.79	189.58
432.97	304.27
433.16	257.46
433.35	243.42
433.54	210.65
433.72	135.75
433.91	173.20
434.10	145.11
434.28	156.82
434.47	224.69
434.66	180.22
434.85	67.88
435.03	255.12
435.22	140.43
435.41	84.26
435.59	128.73
435.78	170.86
435.97	119.37
436.16	194.26
436.34	135.75
436.53	117.03
436.72	152.13
436.90	133.41
437.09	152.13
437.28	86.60
437.46	152.13
437.65	159.16
437.84	173.20
438.02	168.52
438.21	67.88
438.40	119.37
438.58	44.47
438.77	203.63
438.96	110.01
439.14	217.67
439.33	145.11
439.52	135.75
439.70	91.28
439.89	110.01
440.08	142.77
440.26	126.39
440.45	154.48
440.63	81.92
440.82	81.92
441.01	128.73
441.19	124.05
441.38	79.58
441.57	159.16
441.75	145.11
441.94	79.58
442.12	105.32
442.31	145.11
442.50	166.18
442.68	117.03
442.87	112.35
443.05	149.79
443.24	145.11
443.43	140.43
443.61	110.01
443.80	154.48
443.98	180.22
444.17	142.77
444.35	166.18
444.54	119.37
444.73	102.98
444.91	182.56
445.10	133.41
445.28	184.90
445.47	114.69
445.65	93.62
445.84	119.37
446.02	114.69
446.21	51.49
446.39	156.82
446.58	170.86
446.77	166.18
446.95	159.16
447.14	147.45
447.32	145.11
447.51	72.56
447.69	121.71
447.88	140.43
448.06	182.56
448.25	163.84
448.43	93.62
448.62	100.64
448.80	147.45
448.99	175.54
449.17	112.35
449.36	98.30
449.54	189.58
449.73	46.81
449.91	175.54
450.10	231.71
450.28	173.20
450.46	182.56
450.65	119.37
450.83	145.11
451.02	133.41
451.20	161.50
451.39	159.16
451.57	88.94
451.76	135.75
451.94	138.09
452.13	112.35
452.31	110.01
452.49	128.73
452.68	112.35
452.86	149.79
453.05	147.45
453.23	98.30
453.42	124.05
453.60	93.62
453.78	196.60
453.97	100.64
454.15	159.16
454.34	114.69
454.52	161.50
454.70	170.86
454.89	70.22
455.07	124.05
455.26	142.77
455.44	187.24
455.62	93.62
455.81	212.99
455.99	91.28
456.17	138.09
456.36	161.50
456.54	91.28
456.73	156.82
456.91	114.69
457.09	166.18
457.28	105.32
457.46	107.66
457.64	161.50
457.83	138.09
458.01	140.43
458.19	72.56
458.38	156.82
458.56	102.98
458.74	170.86
458.93	135.75
459.11	175.54
459.29	112.35
459.48	196.60
459.66	187.24
459.84	201.29
460.03	210.65
460.21	161.50
460.39	161.50
460.57	168.52
460.76	121.71
460.94	81.92
461.12	203.63
461.31	177.88
461.49	100.64
461.67	65.54
461.85	117.03
462.04	159.16
462.22	538.32
462.40	149.79
462.59	128.73
462.77	119.37
462.95	173.20
463.13	140.43
463.32	175.54
463.50	166.18
463.68	152.13
463.86	177.88
464.05	105.32
464.23	163.84
464.41	145.11
464.59	203.63
464.78	149.79
464.96	145.11
465.14	163.84
465.32	126.39
465.50	135.75
465.69	191.92
465.87	194.26
466.05	121.71
466.23	107.66
466.41	138.09
466.60	198.95
466.78	124.05
466.96	135.75
467.14	154.48
467.32	147.45
467.51	74.90
467.69	154.48
467.87	117.03
468.05	145.11
468.23	166.18
468.41	187.24
468.60	156.82
468.78	105.32
468.96	201.29
469.14	138.09
469.32	107.66
469.50	140.43
469.69	133.41
469.87	173.20
470.05	224.69
470.23	180.22
470.41	102.98
470.59	173.20
470.77	166.18
470.95	46.81
471.14	191.92
471.32	93.62
471.50	212.99
471.68	114.69
471.86	212.99
472.04	91.28
472.22	110.01
472.40	91.28
472.58	224.69
472.77	198.95
472.95	138.09
473.13	205.97
473.31	142.77
473.49	100.64
473.67	114.69
473.85	159.16
474.03	128.73
474.21	154.48
474.39	201.29
474.57	140.43
474.75	173.20
474.93	149.79
475.12	112.35
475.30	168.52
475.48	117.03
475.66	154.48
475.84	175.54
476.02	187.24
476.20	156.82
476.38	131.07
476.56	187.24
476.74	112.35
476.92	128.73
477.10	250.44
477.28	224.69
477.46	152.13
477.64	142.77
477.82	203.63
478.00	142.77
478.18	135.75
478.36	234.05
478.54	161.50
478.72	145.11
478.90	170.86
479.08	182.56
479.26	189.58
479.44	133.41
479.62	114.69
479.80	163.84
479.98	140.43
480.16	88.94
480.34	201.29
480.52	166.18
480.70	203.63
480.88	145.11
481.06	210.65
481.24	168.52
481.41	126.39
481.59	100.64
481.77	133.41
481.95	93.62
482.13	189.58
482.31	117.03
482.49	156.82
482.67	238.73
482.85	121.71
483.03	180.22
483.21	140.43
483.39	168.52
483.57	121.71
483.74	227.03
483.92	208.31
484.10	154.48
484.28	93.62
484.46	184.90
484.64	189.58
484.82	182.56
485.00	152.13
485.18	107.66
485.35	189.58
485.53	140.43
485.71	248.10
485.89	159.16
486.07	133.41
486.25	177.88
486.43	147.45
486.61	163.84
486.78	124.05
486.96	93.62
487.14	124.05
487.32	175.54
487.50	124.05
487.68	168.52
487.85	173.20
488.03	236.39
488.21	170.86
488.39	266.82
488.57	105.32
488.75	147.45
488.92	475.13
489.10	152.13
489.28	194.26
489.46	117.03
489.64	128.73
489.81	220.01
489.99	217.67
490.17	128.73
490.35	236.39
490.53	212.99
490.70	182.56
490.88	131.07
491.06	231.71
491.24	163.84
491.41	215.33
491.59	182.56
491.77	180.22
491.95	121.71
492.13	65.54
492.30	126.39
492.48	170.86
492.66	236.39
492.84	121.71
493.01	252.78
493.19	210.65
493.37	149.79
493.54	93.62
493.72	114.69
493.90	159.16
494.08	145.11
494.25	292.57
494.43	187.24
494.61	189.58
494.79	180.22
494.96	147.45
495.14	168.52
495.32	191.92
495.49	173.20
495.67	196.60
495.85	266.82
496.02	198.95
496.20	166.18
496.38	187.24
496.55	135.75
496.73	278.52
496.91	131.07
497.09	154.48
497.26	191.92
497.44	215.33
497.62	149.79
497.79	140.43
497.97	208.31
498.14	156.82
498.32	156.82
498.50	215.33
498.67	194.26
498.85	117.03
499.03	224.69
499.20	156.82
499.38	220.01
499.56	215.33
499.73	243.42
499.91	208.31
500.08	191.92
500.26	198.95
500.44	156.82
500.61	217.67
500.79	210.65
500.97	140.43
501.14	255.12
501.32	215.33
501.49	156.82
501.67	234.05
501.84	248.10
502.02	182.56
502.20	163.84
502.37	142.77
502.55	187.24
502.72	208.31
502.90	180.22
503.07	238.73
503.25	287.89
503.43	201.29
503.60	276.18
503.78	224.69
503.95	203.63
504.13	147.45
504.30	98.30
504.48	117.03
504.65	269.16
504.83	217.67
505.01	180.22
505.18	208.31
505.36	210.65
505.53	175.54
505.71	166.18
505.88	212.99
506.06	308.95
506.23	273.84
506.41	196.60
506.58	196.60
506.76	201.29
506.93	170.86
507.11	257.46
507.28	182.56
507.46	203.63
507.63	210.65
507.81	196.60
507.98	152.13
508.16	163.84
508.33	187.24
508.50	170.86
508.68	154.48
508.85	217.67
509.03	166.18
509.20	203.63
509.38	224.69
509.55	236.39
509.73	159.16
509.90	79.58
510.08	161.50
510.25	205.97
510.42	229.37
510.60	182.56
510.77	184.90
510.95	189.58
511.12	311.29
511.30	287.89
511.47	278.52
511.64	259.80
511.82	210.65
511.99	266.82
512.17	198.95
512.34	170.86
512.51	117.03
512.69	236.39
512.86	208.31
513.04	166.18
513.21	227.03
513.38	189.58
513.56	173.20
513.73	135.75
513.90	177.88
514.08	163.84
514.25	217.67
514.43	196.60
514.60	170.86
514.77	121.71
514.95	245.76
515.12	224.69
515.29	252.78
515.47	205.97
515.64	238.73
515.81	243.42
515.99	245.76
516.16	170.86
516.33	234.05
516.51	131.07
516.68	182.56
516.85	182.56
517.03	159.16
517.20	243.42
517.37	191.92
517.54	180.22
517.72	201.29
517.89	184.90
518.06	117.03
518.24	191.92
518.41	198.95
518.58	212.99
518.75	159.16
518.93	140.43
519.10	222.35
519.27	224.69
519.45	301.93
519.62	152.13
519.79	205.97
519.96	161.50
520.14	227.03
520.31	203.63
520.48	145.11
520.65	203.63
520.83	252.78
521.00	220.01
521.17	250.44
521.34	173.20
521.52	220.01
521.69	161.50
521.86	156.82
522.03	280.86
522.20	290.23
522.38	152.13
522.55	257.46
522.72	208.31
522.89	243.42
523.07	231.71
523.24	191.92
523.41	152.13
523.58	163.84
523.75	154.48
523.92	245.76
524.10	255.12
524.27	250.44
524.44	166.18
524.61	245.76
524.78	196.60
524.96	175.54
525.13	245.76
525.30	208.31
525.47	191.92
525.64	287.89
525.81	191.92
525.98	175.54
526.16	147.45
526.33	177.88
526.50	170.86
526.67	184.90
526.84	142.77
527.01	163.84
527.18	205.97
527.36	138.09
527.53	222.35
527.70	177.88
527.87	215.33
528.04	238.73
528.21	175.54
528.38	304.27
528.55	217.67
528.72	173.20
528.89	217.67
529.07	234.05
529.24	184.90
529.41	273.84
529.58	168.52
529.75	187.24
529.92	175.54
530.09	191.92
530.26	243.42
530.43	241.08
530.60	262.14
530.77	180.22
530.94	245.76
531.11	287.89
531.28	217.67
531.46	196.60
531.63	198.95
531.80	212.99
531.97	320.65
532.14	212.99
532.31	273.84
532.48	248.10
532.65	341.72
532.82	367.46
532.99	411.93
533.16	346.40
533.33	294.91
533.50	280.86
533.67	315.97
533.84	458.74
534.01	493.85
534.18	388.53
534.35	369.80
534.52	250.44
534.69	341.72
534.86	194.26
535.03	245.76
535.20	196.60
535.37	222.35
535.54	159.16
535.71	278.52
535.88	306.61
536.05	191.92
536.22	215.33
536.38	201.29
536.55	234.05
536.72	198.95
536.89	255.12
537.06	212.99
537.23	170.86
537.40	161.50
537.57	198.95
537.74	224.69
537.91	189.58
538.08	201.29
538.25	98.30
538.42	149.79
538.59	220.01
538.75	227.03
538.92	241.08
539.09	243.42
539.26	215.33
539.43	580.45
539.60	1366.87
539.77	2272.66
539.94	2249.25
540.11	1451.13
540.28	882.38
540.44	608.54
540.61	287.89
540.78	264.48
540.95	194.26
541.12	220.01
541.29	198.95
541.46	243.42
541.62	201.29
541.79	177.88
541.96	212.99
542.13	241.08
542.30	273.84
542.47	325.33
542.63	177.88
542.80	182.56
542.97	208.31
543.14	222.35
543.31	269.16
543.48	222.35
543.64	234.05
543.81	180.22
543.98	147.45
544.15	163.84
544.32	187.24
544.48	224.69
544.65	210.65
544.82	259.80
544.99	173.20
545.16	250.44
545.32	180.22
545.49	184.90
545.66	201.29
545.83	215.33
546.00	215.33
546.16	208.31
546.33	205.97
546.50	117.03
546.67	229.37
546.83	159.16
547.00	201.29
547.17	170.86
547.34	168.52
547.50	180.22
547.67	212.99
547.84	152.13
548.00	196.60
548.17	208.31
548.34	215.33
548.51	217.67
548.67	252.78
548.84	224.69
549.01	170.86
549.18	191.92
549.34	255.12
549.51	243.42
549.68	215.33
549.84	212.99
550.01	142.77
550.18	276.18
550.34	339.38
550.51	145.11
550.68	330.02
550.84	189.58
551.01	159.16
551.18	184.90
551.34	161.50
551.51	196.60
551.68	191.92
551.84	238.73
552.01	189.58
552.18	107.66
552.34	205.97
552.51	229.37
552.68	243.42
552.84	196.60
553.01	196.60
553.18	156.82
553.34	191.92
553.51	163.84
553.67	262.14
553.84	252.78
554.01	243.42
554.17	257.46
554.34	220.01
554.51	248.10
554.67	180.22
554.84	245.76
555.00	212.99
555.17	203.63
555.33	205.97
555.50	210.65
555.67	222.35
555.83	196.60
556.00	257.46
556.16	421.30
556.33	276.18
556.50	215.33
556.66	168.52
556.83	227.03
556.99	140.43
557.16	257.46
557.32	175.54
557.49	128.73
557.65	184.90
557.82	173.20
557.98	170.86
558.15	170.86
558.32	248.10
558.48	257.46
558.65	182.56
558.81	250.44
558.98	259.80
559.14	285.55
559.31	196.60
559.47	222.35
559.64	222.35
559.80	243.42
559.97	224.69
560.13	180.22
560.30	255.12
560.46	250.44
560.63	145.11
560.79	149.79
560.96	184.90
561.12	156.82
561.29	229.37
561.45	236.39
561.61	163.84
561.78	266.82
561.94	248.10
562.11	191.92
562.27	196.60
562.44	231.71
562.60	290.23
562.77	154.48
562.93	222.35
563.10	248.10
563.26	243.42
563.42	163.84
563.59	220.01
563.75	154.48
563.92	208.31
564.08	198.95
564.24	191.92
564.41	159.16
564.57	177.88
564.74	163.84
564.90	264.48
565.07	241.08
565.23	257.46
565.39	269.16
565.56	297.25
565.72	220.01
565.88	220.01
566.05	248.10
566.21	205.97
566.38	198.95
566.54	243.42
566.70	147.45
566.87	184.90
567.03	187.24
567.19	198.95
567.36	222.35
567.52	177.88
567.68	243.42
567.85	191.92
568.01	201.29
568.17	229.37
568.34	212.99
568.50	196.60
568.66	224.69
568.83	224.69
568.99	250.44
569.15	346.40
569.32	283.20
569.48	243.42
569.64	168.52
569.81	189.58
569.97	220.01
570.13	222.35
570.30	196.60
570.46	234.05
570.62	117.03
570.78	166.18
570.95	121.71
571.11	262.14
571.27	236.39
571.43	198.95
571.60	184.90
571.76	234.05
571.92	245.76
572.09	175.54
572.25	250.44
572.41	166.18
572.57	203.63
572.74	280.86
572.90	259.80
573.06	208.31
573.22	196.60
573.38	285.55
573.55	212.99
573.71	304.27
573.87	234.05
574.03	217.67
574.20	212.99
574.36	287.89
574.52	341.72
574.68	325.33
574.84	367.46
575.01	308.95
575.17	264.48
575.33	243.42
575.49	238.73
575.65	290.23
575.82	320.65
575.98	643.65
576.14	957.28
576.30	968.98
576.46	718.54
576.62	498.53
576.79	411.93
576.95	353.42
577.11	297.25
577.27	344.06
577.43	257.46
577.59	243.42
577.75	245.76
577.92	250.44
578.08	203.63
578.24	227.03
578.40	273.84
578.56	290.23
578.72	315.97
578.88	294.91
579.04	292.57
579.21	241.08
579.37	301.93
579.53	231.71
579.69	351.08
579.85	414.27
580.01	433.00
580.17	409.59
580.33	416.62
580.49	322.99
580.65	388.53
580.82	348.74
580.98	358.10
581.14	299.59
581.30	421.30
581.46	585.13
581.62	674.07
581.78	758.33
581.94	772.38
582.10	620.24
582.26	594.50
582.42	552.37
582.58	545.34
582.74	496.19
582.90	500.87
583.06	531.30
583.22	514.92
583.38	603.86
583.54	681.10
583.70	847.27
583.86	985.37
584.02	1104.73
584.18	1315.38
584.34	1715.61
584.50	4873.00
584.66	36868.12
584.82	65535.00
584.98	65535.00
585.14	65535.00
585.30	65535.00
585.46	47622.88
585.62	29495.43
585.78	13167.85
585.94	5109.39
586.10	2361.60
586.26	1458.15
586.42	1196.01
586.58	940.90
586.74	786.42
586.90	830.89
587.06	725.57
587.22	683.44
587.38	648.33
587.54	1675.82
587.70	5245.14
587.86	9217.03
588.02	10714.97
588.18	7204.17
588.34	4507.87
588.49	3077.80
588.65	1647.74
588.81	910.47
588.97	472.79
589.13	418.96
589.29	418.96
589.45	400.23
589.61	428.32
589.77	505.56
589.93	557.05
590.08	676.41
590.24	514.92
590.40	540.66
590.56	526.62
590.72	388.53
590.88	381.51
591.04	402.57
591.20	308.95
591.35	461.09
591.51	358.10
591.67	273.84
591.83	344.06
591.99	367.46
592.15	348.74
592.31	308.95
592.46	290.23
592.62	292.57
592.78	304.27
592.94	325.33
593.10	301.93
593.26	339.38
593.41	367.46
593.57	468.11
593.73	741.95
593.89	4231.69
594.05	11297.77
594.20	17795.09
594.36	17282.52
594.52	10951.37
594.68	6806.28
594.84	4484.47
594.99	2427.14
595.15	1062.60
595.31	573.43
595.47	418.96
595.62	311.29
595.78	266.82
595.94	362.78
596.10	451.72
596.25	435.34
596.41	463.43
596.57	320.65
596.73	332.36
596.88	681.10
597.04	2080.74
597.20	3639.53
597.36	4358.08
597.51	3241.64
597.67	2045.63
597.83	1437.09
597.99	917.49
598.14	603.86
598.30	418.96
598.46	332.36
598.61	358.10
598.77	386.19
598.93	330.02
599.09	365.12
599.24	292.57
599.40	285.55
599.56	301.93
599.71	271.50
599.87	252.78
600.03	327.68
600.18	208.31
600.34	276.18
600.50	215.33
600.65	229.37
600.81	166.18
600.97	245.76
601.12	259.80
601.28	203.63
601.44	215.33
601.59	311.29
601.75	222.35
601.91	287.89
602.06	287.89
602.22	435.34
602.37	990.05
602.53	2630.76
602.69	4236.37
602.84	4610.86
603.00	3145.68
603.16	2139.25
603.31	1497.94
603.47	940.90
603.62	557.05
603.78	353.42
603.94	299.59
604.09	259.80
604.25	276.18
604.40	290.23
604.56	266.82
604.71	259.80
604.87	201.29
605.03	269.16
605.18	205.97
605.34	294.91
605.49	327.68
605.65	245.76
605.80	311.29
605.96	290.23
606.12	400.23
606.27	379.17
606.43	367.46
606.58	470.45
606.74	1198.35
606.89	5210.03
607.05	11248.61
607.20	15400.72
607.36	12929.12
607.51	8491.46
607.67	5547.07
607.82	3660.60
607.98	1898.17
608.13	943.24
608.29	629.60
608.44	561.73
608.60	526.62
608.75	617.90
608.91	1664.12
609.06	8234.00
609.22	19356.23
609.37	26925.52
609.53	23288.33
609.68	15255.61
609.84	9666.41
609.99	6445.84
610.15	3293.13
610.30	1451.13
610.46	774.72
610.61	561.73
610.76	388.53
610.92	365.12
611.07	294.91
611.23	414.27
611.38	435.34
611.54	404.91
611.69	365.12
611.84	344.06
612.00	353.42
612.15	341.72
612.31	547.69
612.46	842.59
612.62	1027.50
612.77	950.26
612.92	758.33
613.08	688.12
613.23	648.33
613.39	709.18
613.54	1238.14
613.69	7709.72
613.85	23908.57
614.00	38855.23
614.15	42883.30
614.31	29900.34
614.46	19250.91
614.62	12571.02
614.77	7503.76
614.92	3342.28
615.08	1444.11
615.23	844.93
615.38	702.16
615.54	681.10
615.69	1275.59
615.84	4386.16
616.00	8365.07
616.15	10934.98
616.30	8596.79
616.46	5837.30
616.61	3885.29
616.76	2562.89
616.92	1439.43
617.07	606.20
617.22	461.09
617.37	430.66
617.53	327.68
617.68	304.27
617.83	400.23
617.99	332.36
618.14	425.98
618.29	379.17
618.45	318.31
618.60	224.69
618.75	292.57
618.90	238.73
619.06	264.48
619.21	259.80
619.36	322.99
619.51	220.01
619.67	210.65
619.82	224.69
619.97	234.05
620.12	248.10
620.28	276.18
620.43	212.99
620.58	231.71
620.73	264.48
620.89	320.65
621.04	540.66
621.19	2237.55
621.34	4461.06
621.49	6296.04
621.65	5738.99
621.80	3929.76
621.95	2546.50
622.10	1785.83
622.25	1015.79
622.41	538.32
622.56	278.52
622.71	365.12
622.86	201.29
623.01	205.97
623.16	264.48
623.32	205.97
623.47	231.71
623.62	212.99
623.77	173.20
623.92	180.22
624.07	262.14
624.23	236.39
624.38	250.44
624.53	292.57
624.68	360.44
624.83	358.10
624.98	234.05
625.13	337.04
625.29	308.95
625.44	311.29
625.59	360.44
625.74	360.44
625.89	627.26
626.04	3576.34
626.19	11267.34
626.34	19517.73
626.49	22384.88
626.65	16133.31
626.80	10509.01
626.95	7166.72
627.10	4416.59
627.25	2099.46
627.40	924.51
627.55	514.92
627.70	355.76
627.85	365.12
628.00	290.23
628.15	318.31
628.30	325.33
628.45	320.65
628.60	241.08
628.76	301.93
628.91	264.48
629.06	248.10
629.21	287.89
629.36	269.16
629.51	304.27
629.66	393.21
629.81	578.11
629.96	1898.17
630.11	3934.44
630.26	5392.59
630.41	4887.04
630.56	3353.99
630.71	2335.85
630.86	1579.86
631.01	954.94
631.16	521.94
631.31	379.17
631.46	315.97
631.61	355.76
631.76	313.63
631.91	278.52
632.06	280.86
632.21	322.99
632.36	351.08
632.51	463.43
632.66	615.56
632.81	1673.48
632.96	6106.46
633.10	11789.28
633.25	15264.97
633.40	12453.99
633.55	8428.27
633.70	5647.71
633.85	3641.87
634.00	1935.62
634.15	903.45
634.30	653.01
634.45	421.30
634.60	365.12
634.75	248.10
634.90	255.12
635.05	255.12
635.19	269.16
635.34	327.68
635.49	280.86
635.64	259.80
635.79	299.59
635.94	294.91
636.09	320.65
636.24	325.33
636.39	313.63
636.53	327.68
636.68	308.95
636.83	334.70
636.98	402.57
637.13	358.10
637.28	404.91
637.43	545.34
637.57	994.73
637.72	5125.77
637.87	15241.57
638.02	24828.40
638.17	28678.58
638.32	20629.48
638.46	13685.11
638.61	9032.13
638.76	5423.02
638.91	2679.91
639.06	1254.53
639.20	847.27
639.35	877.70
639.50	1313.04
639.65	7686.32
639.80	23513.02
639.94	39030.77
640.09	44406.98
640.24	32966.45
640.39	21535.27
640.54	14424.72
640.68	8535.93
640.83	4046.79
640.98	1851.36
641.13	964.30
641.27	655.35
641.42	568.75
641.57	451.72
641.72	386.19
641.86	292.57
642.01	327.68
642.16	273.84
642.31	252.78
642.45	285.55
642.60	330.02
642.75	224.69
642.90	337.04
643.04	166.18
643.19	229.37
643.34	220.01
643.48	273.84
643.63	198.95
643.78	297.25
643.93	269.16
644.07	308.95
644.22	259.80
644.37	280.86
644.51	280.86
644.66	149.79
644.81	135.75
644.95	198.95
645.10	252.78
645.25	250.44
645.39	252.78
645.54	175.54
645.69	234.05
645.83	191.92
645.98	236.39
646.13	154.48
646.27	245.76
646.42	245.76
646.57	266.82
646.71	203.63
646.86	215.33
647.00	243.42
647.15	198.95
647.30	201.29
647.44	166.18
647.59	140.43
647.74	175.54
647.88	238.73
648.03	198.95
648.17	241.08
648.32	208.31
648.47	196.60
648.61	196.60
648.76	182.56
648.90	210.65
649.05	227.03
649.20	140.43
649.34	290.23
649.49	287.89
649.63	308.95
649.78	344.06
649.92	620.24
650.07	2855.45
650.21	9933.23
650.36	17998.72
650.51	22836.61
650.65	18651.73
650.80	12793.37
650.94	8416.57
651.09	5296.63
651.23	2661.19
651.38	1308.36
651.52	669.39
651.67	414.27
651.81	330.02
651.96	301.93
652.10	330.02
652.25	278.52
652.39	304.27
652.54	330.02
652.68	830.89
652.83	3066.10
652.97	5792.83
653.12	7625.47
653.26	6897.56
653.41	4849.59
653.55	3255.69
653.70	2115.84
653.84	1198.35
653.99	643.65
654.13	374.49
654.27	315.97
654.42	248.10
654.56	252.78
654.71	250.44
654.85	196.60
655.00	222.35
655.14	205.97
655.29	147.45
655.43	208.31
655.57	168.52
655.72	124.05
655.86	187.24
656.01	142.77
656.15	196.60
656.30	210.65
656.44	161.50
656.58	117.03
656.73	128.73
656.87	154.48
657.01	161.50
657.16	220.01
657.30	105.32
657.45	236.39
657.59	205.97
657.73	142.77
657.88	189.58
658.02	257.46
658.16	245.76
658.31	257.46
658.45	245.76
658.60	152.13
658.74	210.65
658.88	271.50
659.03	203.63
659.17	358.10
659.31	1210.06
659.46	4262.12
659.60	8126.34
659.74	10773.49
659.89	9586.83
660.03	6942.03
660.17	4657.67
660.32	2855.45
660.46	1633.69
660.60	755.99
660.74	512.58
660.89	374.49
661.03	203.63
661.17	231.71
661.32	245.76
661.46	231.71
661.60	170.86
661.74	142.77
661.89	184.90
662.03	177.88
662.17	203.63
662.31	159.16
662.46	175.54
662.60	250.44
662.74	177.88
662.88	184.90
663.03	163.84
663.17	184.90
663.31	187.24
663.45	147.45
663.60	189.58
663.74	187.24
663.88	131.07
664.02	236.39
664.17	180.22
664.31	191.92
664.45	224.69
664.59	217.67
664.73	203.63
664.88	180.22
665.02	259.80
665.16	255.12
665.30	252.78
665.44	124.05
665.59	236.39
665.73	131.07
665.87	100.64
666.01	168.52
666.15	196.60
666.29	142.77
666.44	222.35
666.58	322.99
666.72	189.58
666.86	285.55
667.00	322.99
667.14	566.41
667.28	2668.21
667.43	8552.32
667.57	14979.43
667.71	19325.80
667.85	16416.52
667.99	12081.85
668.13	7499.08
668.27	4376.80
668.41	2464.58
668.56	1331.76
668.70	791.10
668.84	477.47
668.98	400.23
669.12	262.14
669.26	236.39
669.40	355.76
669.54	241.08
669.68	227.03
669.82	184.90
669.96	161.50
670.10	194.26
670.25	222.35
670.39	241.08
670.53	250.44
670.67	234.05
670.81	220.01
670.95	278.52
671.09	636.63
671.23	2925.67
671.37	6857.77
671.51	10593.26
671.65	11885.24
671.79	9142.13
671.93	6310.08
672.07	3758.90
672.21	2139.25
672.35	1156.22
672.49	713.86
672.63	442.36
672.77	348.74
672.91	203.63
673.05	175.54
673.19	259.80
673.33	159.16
673.47	304.27
673.61	184.90
673.75	163.84
673.89	128.73
674.03	124.05
674.17	117.03
674.31	210.65
674.45	145.11
674.59	177.88
674.73	191.92
674.87	236.39
675.01	290.23
675.15	278.52
675.29	337.04
675.43	227.03
675.56	208.31
675.70	203.63
675.84	156.82
675.98	147.45
676.12	107.66
676.26	105.32
676.40	49.15
676.54	156.82
676.68	182.56
676.82	175.54
676.96	163.84
677.10	128.73
677.23	117.03
677.37	110.01
677.51	180.22
677.65	196.60
677.79	126.39
677.93	241.08
678.07	119.37
678.21	121.71
678.34	110.01
678.48	63.19
678.62	114.69
678.76	201.29
678.90	161.50
679.04	191.92
679.18	110.01
679.31	163.84
679.45	210.65
679.59	133.41
679.73	184.90
679.87	131.07
680.00	86.60
680.14	156.82
680.28	170.86
680.42	145.11
680.56	156.82
680.70	180.22
680.83	72.56
680.97	126.39
681.11	107.66
681.25	163.84
681.39	184.90
681.52	177.88
681.66	154.48
681.80	126.39
681.94	93.62
682.07	65.54
682.21	91.28
682.35	98.30
682.49	91.28
682.62	159.16
682.76	60.85
682.90	124.05
683.04	74.90
683.17	184.90
683.31	124.05
683.45	173.20
683.59	168.52
683.72	173.20
683.86	170.86
684.00	135.75
684.13	187.24
684.27	156.82
684.41	163.84
684.55	131.07
684.68	105.32
684.82	102.98
684.96	100.64
685.09	154.48
685.23	102.98
685.37	124.05
685.50	187.24
685.64	187.24
685.78	110.01
685.91	145.11
686.05	135.75
686.19	154.48
686.32	112.35
686.46	177.88
686.60	110.01
686.73	168.52
686.87	187.24
687.01	236.39
687.14	231.71
687.28	318.31
687.42	220.01
687.55	208.31
687.69	166.18
687.82	63.19
687.96	77.24
688.10	84.26
688.23	60.85
688.37	180.22
688.50	147.45
688.64	180.22
688.78	63.19
688.91	100.64
689.05	156.82
689.18	67.88
689.32	135.75
689.46	105.32
689.59	112.35
689.73	140.43
689.86	88.94
690.00	161.50
690.13	145.11
690.27	177.88
690.41	135.75
690.54	212.99
690.68	110.01
690.81	93.62
690.95	131.07
691.08	163.84
691.22	180.22
691.35	224.69
691.49	124.05
691.62	105.32
691.76	170.86
691.89	140.43
692.03	105.32
692.16	161.50
692.30	208.31
692.43	823.87
692.57	3419.52
692.70	6202.42
692.84	8212.94
692.97	7641.85
693.11	5614.95
693.24	4119.34
693.38	2843.75
693.51	1820.94
693.65	1179.63
693.78	585.13
693.92	435.34
694.05	358.10
694.19	222.35
694.32	234.05
694.45	241.08
694.59	201.29
694.72	191.92
694.86	81.92
694.99	135.75
695.13	187.24
695.26	196.60
695.39	147.45
695.53	191.92
695.66	177.88
695.80	84.26
695.93	117.03
696.07	135.75
696.20	360.44
696.33	493.85
696.47	430.66
696.60	512.58
696.73	423.64
696.87	395.55
697.00	383.85
697.14	238.73
697.27	205.97
697.40	138.09
697.54	88.94
697.67	138.09
697.80	161.50
697.94	182.56
698.07	177.88
698.21	126.39
698.34	163.84
698.47	173.20
698.61	142.77
698.74	121.71
698.87	194.26
699.01	177.88
699.14	110.01
699.27	177.88
699.40	273.84
699.54	93.62
699.67	95.96
699.80	166.18
699.94	161.50
700.07	166.18
700.20	77.24
700.34	168.52
700.47	175.54
700.60	210.65
700.73	102.98
700.87	205.97
701.00	168.52
701.13	191.92
701.26	135.75
701.40	170.86
701.53	212.99
701.66	182.56
701.79	170.86
701.93	257.46
702.06	402.57
702.19	484.49
702.32	629.60
702.46	697.48
702.59	674.07
702.72	1299.00
702.85	4524.26
702.99	9951.96
703.12	14628.35
703.25	16695.04
703.38	14174.28
703.51	11211.17
703.65	8411.89
703.78	6024.54
703.91	3861.88
704.04	2597.99
704.17	1509.65
704.31	943.24
704.44	512.58
704.57	341.72
704.70	257.46
704.83	217.67
704.96	259.80
705.10	250.44
705.23	182.56
>>>>>End Processed Spectral Data<<<<<
