SpectraSuite Data File
++++++++++++++++++++++++++++++++++++
Date: Fri Oct 04 11:47:20 GMT-05:00 2013
User: price-jones
Dark Spectrum Present: No
Reference Spectrum Present: No
Number of Sampled Component Spectra: 1
Spectrometers: USB2+H05261
Integration Time (usec): 100000 (USB2+H05261)
Spectra Averaged: 1 (USB2+H05261)
Boxcar Smoothing: 0 (USB2+H05261)
Correct for Electrical Dark: No (USB2+H05261)
Strobe/Lamp Enabled: No (USB2+H05261)
Correct for Detector Non-linearity: No (USB2+H05261)
Correct for Stray Light: No (USB2+H05261)
Number of Pixels in Processed Spectrum: 2048
>>>>>Begin Processed Spectral Data<<<<<
365.73	135.75
365.92	135.75
366.12	135.75
366.32	0.00
366.52	0.00
366.72	0.00
366.91	0.00
367.11	0.00
367.31	0.00
367.51	0.00
367.70	0.00
367.90	0.00
368.10	0.00
368.30	0.00
368.49	0.00
368.69	0.00
368.89	0.00
369.09	0.00
369.28	0.00
369.48	0.00
369.68	0.00
369.87	0.00
370.07	0.00
370.27	0.00
370.47	35.11
370.66	0.00
370.86	2.34
371.06	35.11
371.25	56.17
371.45	0.00
371.65	95.96
371.84	16.38
372.04	65.54
372.24	37.45
372.44	65.54
372.63	119.37
372.83	140.43
373.03	107.66
373.22	88.94
373.42	51.49
373.62	102.98
373.81	126.39
374.01	145.11
374.21	140.43
374.40	182.56
374.60	140.43
374.79	91.28
374.99	105.32
375.19	121.71
375.38	98.30
375.58	63.19
375.78	161.50
375.97	95.96
376.17	175.54
376.37	145.11
376.56	91.28
376.76	98.30
376.95	95.96
377.15	72.56
377.35	149.79
377.54	88.94
377.74	58.51
377.93	161.50
378.13	128.73
378.33	84.26
378.52	124.05
378.72	124.05
378.91	56.17
379.11	60.85
379.31	65.54
379.50	63.19
379.70	159.16
379.89	98.30
380.09	58.51
380.28	112.35
380.48	93.62
380.68	60.85
380.87	49.15
381.07	98.30
381.26	133.41
381.46	100.64
381.65	79.58
381.85	117.03
382.04	79.58
382.24	72.56
382.43	56.17
382.63	84.26
382.83	67.88
383.02	131.07
383.22	91.28
383.41	88.94
383.61	100.64
383.80	42.13
384.00	60.85
384.19	117.03
384.39	159.16
384.58	88.94
384.78	93.62
384.97	166.18
385.17	84.26
385.36	79.58
385.56	201.29
385.75	63.19
385.95	105.32
386.14	74.90
386.34	30.43
386.53	177.88
386.72	93.62
386.92	147.45
387.11	201.29
387.31	135.75
387.50	124.05
387.70	74.90
387.89	95.96
388.09	81.92
388.28	112.35
388.48	112.35
388.67	156.82
388.86	140.43
389.06	72.56
389.25	98.30
389.45	23.41
389.64	56.17
389.84	140.43
390.03	196.60
390.22	110.01
390.42	152.13
390.61	56.17
390.81	114.69
391.00	112.35
391.19	131.07
391.39	121.71
391.58	74.90
391.78	77.24
391.97	79.58
392.16	39.79
392.36	131.07
392.55	60.85
392.75	88.94
392.94	119.37
393.13	81.92
393.33	49.15
393.52	98.30
393.71	154.48
393.91	142.77
394.10	102.98
394.29	93.62
394.49	117.03
394.68	84.26
394.88	142.77
395.07	53.83
395.26	58.51
395.46	84.26
395.65	119.37
395.84	128.73
396.04	147.45
396.23	93.62
396.42	135.75
396.62	105.32
396.81	124.05
397.00	21.06
397.19	91.28
397.39	175.54
397.58	88.94
397.77	65.54
397.97	119.37
398.16	105.32
398.35	215.33
398.55	102.98
398.74	65.54
398.93	191.92
399.12	77.24
399.32	74.90
399.51	117.03
399.70	102.98
399.90	142.77
400.09	93.62
400.28	131.07
400.47	65.54
400.67	86.60
400.86	77.24
401.05	107.66
401.24	105.32
401.44	37.45
401.63	110.01
401.82	49.15
402.01	114.69
402.21	163.84
402.40	98.30
402.59	119.37
402.78	65.54
402.97	173.20
403.17	93.62
403.36	124.05
403.55	53.83
403.74	119.37
403.93	98.30
404.13	65.54
404.32	145.11
404.51	91.28
404.70	135.75
404.89	77.24
405.09	114.69
405.28	91.28
405.47	46.81
405.66	88.94
405.85	121.71
406.05	138.09
406.24	182.56
406.43	140.43
406.62	74.90
406.81	119.37
407.00	166.18
407.20	102.98
407.39	53.83
407.58	30.43
407.77	105.32
407.96	74.90
408.15	114.69
408.34	156.82
408.54	91.28
408.73	81.92
408.92	93.62
409.11	95.96
409.30	166.18
409.49	154.48
409.68	91.28
409.87	114.69
410.07	58.51
410.26	133.41
410.45	126.39
410.64	86.60
410.83	105.32
411.02	124.05
411.21	37.45
411.40	147.45
411.59	67.88
411.78	7.02
411.98	49.15
412.17	77.24
412.36	9.36
412.55	77.24
412.74	72.56
412.93	166.18
413.12	44.47
413.31	79.58
413.50	105.32
413.69	23.41
413.88	161.50
414.07	154.48
414.26	93.62
414.45	72.56
414.64	84.26
414.83	37.45
415.02	86.60
415.22	105.32
415.41	128.73
415.60	102.98
415.79	88.94
415.98	180.22
416.17	140.43
416.36	145.11
416.55	126.39
416.74	93.62
416.93	152.13
417.12	152.13
417.31	154.48
417.50	110.01
417.69	74.90
417.88	121.71
418.07	102.98
418.26	124.05
418.45	77.24
418.64	161.50
418.83	184.90
419.02	60.85
419.21	117.03
419.39	154.48
419.58	91.28
419.77	70.22
419.96	79.58
420.15	191.92
420.34	95.96
420.53	58.51
420.72	133.41
420.91	128.73
421.10	145.11
421.29	173.20
421.48	56.17
421.67	65.54
421.86	86.60
422.05	126.39
422.24	166.18
422.43	145.11
422.61	163.84
422.80	175.54
422.99	182.56
423.18	91.28
423.37	110.01
423.56	72.56
423.75	98.30
423.94	16.38
424.13	72.56
424.32	67.88
424.50	88.94
424.69	105.32
424.88	156.82
425.07	95.96
425.26	124.05
425.45	156.82
425.64	65.54
425.83	126.39
426.01	142.77
426.20	81.92
426.39	152.13
426.58	86.60
426.77	170.86
426.96	203.63
427.15	42.13
427.33	110.01
427.52	93.62
427.71	67.88
427.90	74.90
428.09	142.77
428.28	91.28
428.46	163.84
428.65	51.49
428.84	84.26
429.03	180.22
429.22	163.84
429.40	11.70
429.59	142.77
429.78	187.24
429.97	142.77
430.16	140.43
430.34	91.28
430.53	56.17
430.72	91.28
430.91	156.82
431.10	145.11
431.28	110.01
431.47	98.30
431.66	187.24
431.85	98.30
432.03	114.69
432.22	156.82
432.41	177.88
432.60	182.56
432.79	39.79
432.97	156.82
433.16	0.00
433.35	93.62
433.54	163.84
433.72	173.20
433.91	119.37
434.10	98.30
434.28	98.30
434.47	86.60
434.66	161.50
434.85	25.75
435.03	124.05
435.22	212.99
435.41	187.24
435.59	161.50
435.78	175.54
435.97	131.07
436.16	86.60
436.34	100.64
436.53	161.50
436.72	161.50
436.90	138.09
437.09	152.13
437.28	70.22
437.46	142.77
437.65	161.50
437.84	135.75
438.02	128.73
438.21	182.56
438.40	72.56
438.58	142.77
438.77	79.58
438.96	131.07
439.14	105.32
439.33	124.05
439.52	142.77
439.70	159.16
439.89	126.39
440.08	182.56
440.26	124.05
440.45	201.29
440.63	112.35
440.82	131.07
441.01	131.07
441.19	180.22
441.38	121.71
441.57	166.18
441.75	105.32
441.94	98.30
442.12	177.88
442.31	60.85
442.50	65.54
442.68	161.50
442.87	114.69
443.05	131.07
443.24	112.35
443.43	117.03
443.61	168.52
443.80	105.32
443.98	79.58
444.17	117.03
444.35	102.98
444.54	161.50
444.73	119.37
444.91	194.26
445.10	140.43
445.28	107.66
445.47	133.41
445.65	88.94
445.84	119.37
446.02	175.54
446.21	138.09
446.39	131.07
446.58	191.92
446.77	142.77
446.95	124.05
447.14	112.35
447.32	121.71
447.51	117.03
447.69	100.64
447.88	170.86
448.06	166.18
448.25	128.73
448.43	117.03
448.62	74.90
448.80	77.24
448.99	140.43
449.17	110.01
449.36	124.05
449.54	128.73
449.73	86.60
449.91	170.86
450.10	77.24
450.28	163.84
450.46	145.11
450.65	145.11
450.83	67.88
451.02	110.01
451.20	149.79
451.39	140.43
451.57	91.28
451.76	142.77
451.94	142.77
452.13	161.50
452.31	210.65
452.49	147.45
452.68	173.20
452.86	107.66
453.05	170.86
453.23	173.20
453.42	88.94
453.60	117.03
453.78	93.62
453.97	100.64
454.15	58.51
454.34	95.96
454.52	159.16
454.70	152.13
454.89	182.56
455.07	51.49
455.26	149.79
455.44	215.33
455.62	196.60
455.81	149.79
455.99	156.82
456.17	203.63
456.36	138.09
456.54	145.11
456.73	159.16
456.91	105.32
457.09	175.54
457.28	131.07
457.46	119.37
457.64	95.96
457.83	95.96
458.01	168.52
458.19	177.88
458.38	84.26
458.56	84.26
458.74	149.79
458.93	147.45
459.11	220.01
459.29	175.54
459.48	166.18
459.66	112.35
459.84	177.88
460.03	175.54
460.21	121.71
460.39	56.17
460.57	138.09
460.76	138.09
460.94	147.45
461.12	107.66
461.31	159.16
461.49	25.75
461.67	145.11
461.85	142.77
462.04	163.84
462.22	538.32
462.40	170.86
462.59	86.60
462.77	161.50
462.95	184.90
463.13	124.05
463.32	175.54
463.50	217.67
463.68	208.31
463.86	198.95
464.05	39.79
464.23	135.75
464.41	196.60
464.59	42.13
464.78	131.07
464.96	152.13
465.14	126.39
465.32	196.60
465.50	114.69
465.69	191.92
465.87	177.88
466.05	175.54
466.23	124.05
466.41	110.01
466.60	131.07
466.78	107.66
466.96	138.09
467.14	173.20
467.32	170.86
467.51	154.48
467.69	154.48
467.87	227.03
468.05	180.22
468.23	215.33
468.41	102.98
468.60	11.70
468.78	131.07
468.96	177.88
469.14	138.09
469.32	138.09
469.50	67.88
469.69	168.52
469.87	184.90
470.05	145.11
470.23	124.05
470.41	110.01
470.59	177.88
470.77	168.52
470.95	88.94
471.14	145.11
471.32	161.50
471.50	121.71
471.68	100.64
471.86	182.56
472.04	121.71
472.22	154.48
472.40	145.11
472.58	124.05
472.77	166.18
472.95	152.13
473.13	161.50
473.31	182.56
473.49	140.43
473.67	56.17
473.85	191.92
474.03	175.54
474.21	124.05
474.39	184.90
474.57	227.03
474.75	138.09
474.93	102.98
475.12	159.16
475.30	154.48
475.48	95.96
475.66	147.45
475.84	161.50
476.02	79.58
476.20	156.82
476.38	187.24
476.56	205.97
476.74	119.37
476.92	112.35
477.10	173.20
477.28	102.98
477.46	135.75
477.64	177.88
477.82	114.69
478.00	168.52
478.18	182.56
478.36	128.73
478.54	84.26
478.72	112.35
478.90	201.29
479.08	266.82
479.26	142.77
479.44	194.26
479.62	184.90
479.80	166.18
479.98	191.92
480.16	110.01
480.34	154.48
480.52	79.58
480.70	133.41
480.88	161.50
481.06	147.45
481.24	126.39
481.41	187.24
481.59	187.24
481.77	180.22
481.95	105.32
482.13	163.84
482.31	145.11
482.49	124.05
482.67	121.71
482.85	140.43
483.03	152.13
483.21	173.20
483.39	215.33
483.57	93.62
483.74	149.79
483.92	149.79
484.10	145.11
484.28	184.90
484.46	154.48
484.64	135.75
484.82	147.45
485.00	163.84
485.18	135.75
485.35	81.92
485.53	77.24
485.71	215.33
485.89	112.35
486.07	121.71
486.25	147.45
486.43	159.16
486.61	124.05
486.78	187.24
486.96	203.63
487.14	147.45
487.32	138.09
487.50	138.09
487.68	177.88
487.85	166.18
488.03	156.82
488.21	145.11
488.39	121.71
488.57	189.58
488.75	152.13
488.92	409.59
489.10	124.05
489.28	131.07
489.46	152.13
489.64	159.16
489.81	102.98
489.99	215.33
490.17	184.90
490.35	198.95
490.53	203.63
490.70	133.41
490.88	208.31
491.06	154.48
491.24	145.11
491.41	154.48
491.59	231.71
491.77	273.84
491.95	149.79
492.13	154.48
492.30	196.60
492.48	117.03
492.66	152.13
492.84	215.33
493.01	234.05
493.19	112.35
493.37	198.95
493.54	138.09
493.72	208.31
493.90	156.82
494.08	105.32
494.25	210.65
494.43	163.84
494.61	180.22
494.79	241.08
494.96	168.52
495.14	166.18
495.32	180.22
495.49	234.05
495.67	201.29
495.85	208.31
496.02	126.39
496.20	243.42
496.38	168.52
496.55	138.09
496.73	163.84
496.91	128.73
497.09	220.01
497.26	175.54
497.44	138.09
497.62	138.09
497.79	156.82
497.97	198.95
498.14	215.33
498.32	154.48
498.50	159.16
498.67	173.20
498.85	245.76
499.03	124.05
499.20	210.65
499.38	145.11
499.56	175.54
499.73	269.16
499.91	154.48
500.08	201.29
500.26	166.18
500.44	241.08
500.61	142.77
500.79	184.90
500.97	191.92
501.14	215.33
501.32	189.58
501.49	238.73
501.67	191.92
501.84	170.86
502.02	84.26
502.20	271.50
502.37	180.22
502.55	166.18
502.72	215.33
502.90	173.20
503.07	149.79
503.25	271.50
503.43	154.48
503.60	173.20
503.78	180.22
503.95	156.82
504.13	191.92
504.30	187.24
504.48	173.20
504.65	175.54
504.83	201.29
505.01	159.16
505.18	231.71
505.36	166.18
505.53	177.88
505.71	187.24
505.88	175.54
506.06	166.18
506.23	177.88
506.41	241.08
506.58	177.88
506.76	163.84
506.93	215.33
507.11	170.86
507.28	283.20
507.46	182.56
507.63	215.33
507.81	81.92
507.98	191.92
508.16	131.07
508.33	227.03
508.50	166.18
508.68	152.13
508.85	227.03
509.03	124.05
509.20	208.31
509.38	203.63
509.55	196.60
509.73	234.05
509.90	210.65
510.08	196.60
510.25	145.11
510.42	145.11
510.60	191.92
510.77	166.18
510.95	166.18
511.12	100.64
511.30	198.95
511.47	184.90
511.64	252.78
511.82	203.63
511.99	236.39
512.17	250.44
512.34	217.67
512.51	117.03
512.69	147.45
512.86	259.80
513.04	177.88
513.21	203.63
513.38	133.41
513.56	227.03
513.73	208.31
513.90	124.05
514.08	175.54
514.25	229.37
514.43	184.90
514.60	180.22
514.77	166.18
514.95	175.54
515.12	175.54
515.29	229.37
515.47	189.58
515.64	147.45
515.81	220.01
515.99	248.10
516.16	205.97
516.33	229.37
516.51	131.07
516.68	184.90
516.85	152.13
517.03	196.60
517.20	189.58
517.37	93.62
517.54	198.95
517.72	149.79
517.89	205.97
518.06	224.69
518.24	280.86
518.41	264.48
518.58	217.67
518.75	222.35
518.93	177.88
519.10	119.37
519.27	107.66
519.45	201.29
519.62	217.67
519.79	264.48
519.96	266.82
520.14	119.37
520.31	177.88
520.48	269.16
520.65	149.79
520.83	257.46
521.00	236.39
521.17	215.33
521.34	156.82
521.52	238.73
521.69	215.33
521.86	177.88
522.03	238.73
522.20	257.46
522.38	173.20
522.55	168.52
522.72	212.99
522.89	191.92
523.07	168.52
523.24	189.58
523.41	264.48
523.58	203.63
523.75	154.48
523.92	107.66
524.10	149.79
524.27	227.03
524.44	175.54
524.61	189.58
524.78	248.10
524.96	147.45
525.13	220.01
525.30	257.46
525.47	208.31
525.64	196.60
525.81	145.11
525.98	180.22
526.16	163.84
526.33	201.29
526.50	126.39
526.67	170.86
526.84	131.07
527.01	159.16
527.18	243.42
527.36	208.31
527.53	161.50
527.70	208.31
527.87	152.13
528.04	217.67
528.21	163.84
528.38	215.33
528.55	210.65
528.72	201.29
528.89	187.24
529.07	138.09
529.24	234.05
529.41	224.69
529.58	224.69
529.75	196.60
529.92	212.99
530.09	194.26
530.26	194.26
530.43	198.95
530.60	184.90
530.77	180.22
530.94	208.31
531.11	168.52
531.28	234.05
531.46	170.86
531.63	177.88
531.80	250.44
531.97	217.67
532.14	152.13
532.31	175.54
532.48	152.13
532.65	189.58
532.82	257.46
532.99	168.52
533.16	182.56
533.33	175.54
533.50	266.82
533.67	234.05
533.84	201.29
534.01	255.12
534.18	149.79
534.35	152.13
534.52	210.65
534.69	220.01
534.86	208.31
535.03	215.33
535.20	121.71
535.37	259.80
535.54	182.56
535.71	194.26
535.88	215.33
536.05	208.31
536.22	191.92
536.38	205.97
536.55	203.63
536.72	266.82
536.89	170.86
537.06	264.48
537.23	126.39
537.40	173.20
537.57	189.58
537.74	156.82
537.91	142.77
538.08	196.60
538.25	215.33
538.42	198.95
538.59	182.56
538.75	220.01
538.92	215.33
539.09	149.79
539.26	154.48
539.43	283.20
539.60	227.03
539.77	191.92
539.94	243.42
540.11	194.26
540.28	198.95
540.44	248.10
540.61	161.50
540.78	198.95
540.95	121.71
541.12	248.10
541.29	238.73
541.46	245.76
541.62	182.56
541.79	182.56
541.96	238.73
542.13	182.56
542.30	124.05
542.47	271.50
542.63	138.09
542.80	180.22
542.97	283.20
543.14	203.63
543.31	208.31
543.48	236.39
543.64	222.35
543.81	245.76
543.98	187.24
544.15	184.90
544.32	198.95
544.48	215.33
544.65	217.67
544.82	215.33
544.99	217.67
545.16	278.52
545.32	273.84
545.49	154.48
545.66	215.33
545.83	220.01
546.00	133.41
546.16	191.92
546.33	215.33
546.50	220.01
546.67	224.69
546.83	266.82
547.00	215.33
547.17	227.03
547.34	152.13
547.50	191.92
547.67	210.65
547.84	210.65
548.00	220.01
548.17	170.86
548.34	236.39
548.51	210.65
548.67	304.27
548.84	180.22
549.01	224.69
549.18	147.45
549.34	210.65
549.51	220.01
549.68	205.97
549.84	161.50
550.01	163.84
550.18	243.42
550.34	290.23
550.51	175.54
550.68	205.97
550.84	191.92
551.01	198.95
551.18	252.78
551.34	217.67
551.51	243.42
551.68	191.92
551.84	234.05
552.01	161.50
552.18	173.20
552.34	182.56
552.51	243.42
552.68	180.22
552.84	154.48
553.01	205.97
553.18	234.05
553.34	173.20
553.51	255.12
553.67	229.37
553.84	294.91
554.01	248.10
554.17	191.92
554.34	140.43
554.51	252.78
554.67	227.03
554.84	241.08
555.00	222.35
555.17	168.52
555.33	217.67
555.50	191.92
555.67	220.01
555.83	234.05
556.00	257.46
556.16	393.21
556.33	280.86
556.50	191.92
556.66	147.45
556.83	210.65
556.99	142.77
557.16	170.86
557.32	191.92
557.49	224.69
557.65	243.42
557.82	166.18
557.98	161.50
558.15	208.31
558.32	212.99
558.48	180.22
558.65	208.31
558.81	220.01
558.98	189.58
559.14	212.99
559.31	196.60
559.47	227.03
559.64	180.22
559.80	222.35
559.97	168.52
560.13	236.39
560.30	212.99
560.46	177.88
560.63	280.86
560.79	154.48
560.96	170.86
561.12	203.63
561.29	231.71
561.45	222.35
561.61	236.39
561.78	299.59
561.94	166.18
562.11	156.82
562.27	152.13
562.44	241.08
562.60	131.07
562.77	229.37
562.93	311.29
563.10	208.31
563.26	147.45
563.42	210.65
563.59	203.63
563.75	149.79
563.92	250.44
564.08	156.82
564.24	114.69
564.41	252.78
564.57	161.50
564.74	276.18
564.90	276.18
565.07	243.42
565.23	180.22
565.39	187.24
565.56	180.22
565.72	205.97
565.88	189.58
566.05	196.60
566.21	229.37
566.38	187.24
566.54	107.66
566.70	208.31
566.87	238.73
567.03	119.37
567.19	135.75
567.36	187.24
567.52	196.60
567.68	156.82
567.85	154.48
568.01	210.65
568.17	131.07
568.34	220.01
568.50	140.43
568.66	149.79
568.83	257.46
568.99	168.52
569.15	203.63
569.32	152.13
569.48	229.37
569.64	145.11
569.81	149.79
569.97	236.39
570.13	311.29
570.30	177.88
570.46	175.54
570.62	159.16
570.78	189.58
570.95	229.37
571.11	208.31
571.27	180.22
571.43	175.54
571.60	210.65
571.76	133.41
571.92	161.50
572.09	166.18
572.25	198.95
572.41	152.13
572.57	252.78
572.74	273.84
572.90	224.69
573.06	241.08
573.22	252.78
573.38	241.08
573.55	166.18
573.71	229.37
573.87	107.66
574.03	142.77
574.20	177.88
574.36	243.42
574.52	229.37
574.68	168.52
574.84	327.68
575.01	210.65
575.17	224.69
575.33	93.62
575.49	149.79
575.65	138.09
575.82	177.88
575.98	271.50
576.14	191.92
576.30	180.22
576.46	81.92
576.62	175.54
576.79	194.26
576.95	189.58
577.11	236.39
577.27	159.16
577.43	255.12
577.59	276.18
577.75	229.37
577.92	149.79
578.08	205.97
578.24	191.92
578.40	168.52
578.56	231.71
578.72	250.44
578.88	194.26
579.04	133.41
579.21	170.86
579.37	269.16
579.53	105.32
579.69	212.99
579.85	128.73
580.01	126.39
580.17	189.58
580.33	210.65
580.49	238.73
580.65	163.84
580.82	128.73
580.98	215.33
581.14	224.69
581.30	220.01
581.46	191.92
581.62	161.50
581.78	168.52
581.94	194.26
582.10	161.50
582.26	175.54
582.42	154.48
582.58	168.52
582.74	110.01
582.90	217.67
583.06	236.39
583.22	191.92
583.38	154.48
583.54	182.56
583.70	168.52
583.86	180.22
584.02	215.33
584.18	203.63
584.34	88.94
584.50	182.56
584.66	161.50
584.82	208.31
584.98	177.88
585.14	215.33
585.30	208.31
585.46	191.92
585.62	145.11
585.78	147.45
585.94	152.13
586.10	208.31
586.26	142.77
586.42	280.86
586.58	229.37
586.74	264.48
586.90	180.22
587.06	168.52
587.22	159.16
587.38	126.39
587.54	194.26
587.70	189.58
587.86	252.78
588.02	95.96
588.18	140.43
588.34	215.33
588.49	170.86
588.65	112.35
588.81	215.33
588.97	166.18
589.13	133.41
589.29	128.73
589.45	184.90
589.61	182.56
589.77	180.22
589.93	196.60
590.08	220.01
590.24	180.22
590.40	138.09
590.56	161.50
590.72	250.44
590.88	117.03
591.04	201.29
591.20	203.63
591.35	128.73
591.51	147.45
591.67	175.54
591.83	142.77
591.99	175.54
592.15	205.97
592.31	191.92
592.46	210.65
592.62	159.16
592.78	128.73
592.94	208.31
593.10	100.64
593.26	128.73
593.41	163.84
593.57	210.65
593.73	191.92
593.89	142.77
594.05	168.52
594.20	168.52
594.36	201.29
594.52	191.92
594.68	74.90
594.84	229.37
594.99	168.52
595.15	252.78
595.31	133.41
595.47	175.54
595.62	149.79
595.78	107.66
595.94	184.90
596.10	168.52
596.25	163.84
596.41	170.86
596.57	147.45
596.73	177.88
596.88	114.69
597.04	117.03
597.20	135.75
597.36	191.92
597.51	175.54
597.67	175.54
597.83	79.58
597.99	198.95
598.14	170.86
598.30	231.71
598.46	112.35
598.61	95.96
598.77	145.11
598.93	133.41
599.09	114.69
599.24	187.24
599.40	191.92
599.56	149.79
599.71	124.05
599.87	177.88
600.03	168.52
600.18	117.03
600.34	163.84
600.50	255.12
600.65	140.43
600.81	205.97
600.97	173.20
601.12	147.45
601.28	105.32
601.44	142.77
601.59	147.45
601.75	145.11
601.91	203.63
602.06	201.29
602.22	231.71
602.37	173.20
602.53	135.75
602.69	245.76
602.84	161.50
603.00	208.31
603.16	170.86
603.31	205.97
603.47	154.48
603.62	95.96
603.78	180.22
603.94	243.42
604.09	250.44
604.25	264.48
604.40	229.37
604.56	163.84
604.71	208.31
604.87	187.24
605.03	210.65
605.18	290.23
605.34	191.92
605.49	191.92
605.65	112.35
605.80	114.69
605.96	161.50
606.12	110.01
606.27	163.84
606.43	217.67
606.58	182.56
606.74	128.73
606.89	184.90
607.05	177.88
607.20	215.33
607.36	191.92
607.51	198.95
607.67	173.20
607.82	229.37
607.98	231.71
608.13	227.03
608.29	121.71
608.44	245.76
608.60	224.69
608.75	93.62
608.91	175.54
609.06	227.03
609.22	156.82
609.37	184.90
609.53	119.37
609.68	182.56
609.84	159.16
609.99	184.90
610.15	140.43
610.30	121.71
610.46	177.88
610.61	259.80
610.76	163.84
610.92	170.86
611.07	175.54
611.23	264.48
611.38	159.16
611.54	145.11
611.69	110.01
611.84	102.98
612.00	152.13
612.15	196.60
612.31	156.82
612.46	156.82
612.62	166.18
612.77	191.92
612.92	124.05
613.08	231.71
613.23	126.39
613.39	201.29
613.54	187.24
613.69	170.86
613.85	205.97
614.00	170.86
614.15	189.58
614.31	205.97
614.46	180.22
614.62	175.54
614.77	227.03
614.92	168.52
615.08	262.14
615.23	70.22
615.38	180.22
615.54	161.50
615.69	126.39
615.84	119.37
616.00	121.71
616.15	159.16
616.30	229.37
616.46	98.30
616.61	121.71
616.76	131.07
616.92	140.43
617.07	131.07
617.22	142.77
617.37	191.92
617.53	105.32
617.68	189.58
617.83	168.52
617.99	154.48
618.14	173.20
618.29	224.69
618.45	212.99
618.60	161.50
618.75	152.13
618.90	152.13
619.06	180.22
619.21	159.16
619.36	156.82
619.51	210.65
619.67	187.24
619.82	170.86
619.97	175.54
620.12	131.07
620.28	177.88
620.43	126.39
620.58	173.20
620.73	177.88
620.89	173.20
621.04	147.45
621.19	229.37
621.34	173.20
621.49	182.56
621.65	161.50
621.80	131.07
621.95	154.48
622.10	215.33
622.25	159.16
622.41	227.03
622.56	175.54
622.71	205.97
622.86	170.86
623.01	180.22
623.16	191.92
623.32	140.43
623.47	173.20
623.62	131.07
623.77	201.29
623.92	198.95
624.07	145.11
624.23	156.82
624.38	140.43
624.53	166.18
624.68	217.67
624.83	222.35
624.98	191.92
625.13	229.37
625.29	119.37
625.44	131.07
625.59	170.86
625.74	180.22
625.89	81.92
626.04	102.98
626.19	84.26
626.34	138.09
626.49	205.97
626.65	184.90
626.80	163.84
626.95	140.43
627.10	154.48
627.25	149.79
627.40	119.37
627.55	138.09
627.70	114.69
627.85	128.73
628.00	131.07
628.15	149.79
628.30	142.77
628.45	156.82
628.60	177.88
628.76	170.86
628.91	133.41
629.06	138.09
629.21	124.05
629.36	126.39
629.51	133.41
629.66	124.05
629.81	198.95
629.96	170.86
630.11	208.31
630.26	121.71
630.41	173.20
630.56	191.92
630.71	156.82
630.86	88.94
631.01	170.86
631.16	121.71
631.31	245.76
631.46	210.65
631.61	145.11
631.76	156.82
631.91	159.16
632.06	156.82
632.21	222.35
632.36	117.03
632.51	142.77
632.66	191.92
632.81	250.44
632.96	114.69
633.10	114.69
633.25	278.52
633.40	187.24
633.55	182.56
633.70	194.26
633.85	147.45
634.00	149.79
634.15	173.20
634.30	152.13
634.45	121.71
634.60	110.01
634.75	98.30
634.90	131.07
635.05	212.99
635.19	177.88
635.34	220.01
635.49	205.97
635.64	173.20
635.79	140.43
635.94	222.35
636.09	93.62
636.24	215.33
636.39	149.79
636.53	140.43
636.68	177.88
636.83	191.92
636.98	147.45
637.13	175.54
637.28	208.31
637.43	220.01
637.57	187.24
637.72	222.35
637.87	163.84
638.02	184.90
638.17	168.52
638.32	201.29
638.46	163.84
638.61	154.48
638.76	138.09
638.91	159.16
639.06	145.11
639.20	166.18
639.35	177.88
639.50	154.48
639.65	189.58
639.80	79.58
639.94	135.75
640.09	159.16
640.24	152.13
640.39	114.69
640.54	189.58
640.68	161.50
640.83	201.29
640.98	168.52
641.13	112.35
641.27	124.05
641.42	152.13
641.57	142.77
641.72	163.84
641.86	173.20
642.01	191.92
642.16	163.84
642.31	124.05
642.45	224.69
642.60	147.45
642.75	53.83
642.90	173.20
643.04	131.07
643.19	128.73
643.34	110.01
643.48	128.73
643.63	149.79
643.78	168.52
643.93	170.86
644.07	161.50
644.22	142.77
644.37	126.39
644.51	203.63
644.66	100.64
644.81	156.82
644.95	105.32
645.10	98.30
645.25	124.05
645.39	142.77
645.54	210.65
645.69	145.11
645.83	119.37
645.98	210.65
646.13	234.05
646.27	184.90
646.42	93.62
646.57	93.62
646.71	149.79
646.86	119.37
647.00	173.20
647.15	196.60
647.30	70.22
647.44	63.19
647.59	175.54
647.74	124.05
647.88	133.41
648.03	117.03
648.17	126.39
648.32	149.79
648.47	126.39
648.61	58.51
648.76	72.56
648.90	60.85
649.05	74.90
649.20	161.50
649.34	201.29
649.49	168.52
649.63	121.71
649.78	112.35
649.92	166.18
650.07	175.54
650.21	159.16
650.36	189.58
650.51	170.86
650.65	210.65
650.80	175.54
650.94	201.29
651.09	156.82
651.23	114.69
651.38	112.35
651.52	79.58
651.67	128.73
651.81	110.01
651.96	210.65
652.10	152.13
652.25	184.90
652.39	88.94
652.54	187.24
652.68	107.66
652.83	227.03
652.97	196.60
653.12	175.54
653.26	86.60
653.41	208.31
653.55	126.39
653.70	168.52
653.84	119.37
653.99	84.26
654.13	175.54
654.27	131.07
654.42	112.35
654.56	105.32
654.71	156.82
654.85	95.96
655.00	98.30
655.14	152.13
655.29	166.18
655.43	152.13
655.57	191.92
655.72	159.16
655.86	142.77
656.01	126.39
656.15	145.11
656.30	205.97
656.44	102.98
656.58	173.20
656.73	149.79
656.87	70.22
657.01	128.73
657.16	147.45
657.30	138.09
657.45	177.88
657.59	124.05
657.73	110.01
657.88	140.43
658.02	175.54
658.16	145.11
658.31	140.43
658.45	133.41
658.60	119.37
658.74	201.29
658.88	163.84
659.03	110.01
659.17	79.58
659.31	49.15
659.46	163.84
659.60	128.73
659.74	91.28
659.89	166.18
660.03	147.45
660.17	241.08
660.32	65.54
660.46	140.43
660.60	175.54
660.74	149.79
660.89	121.71
661.03	149.79
661.17	121.71
661.32	131.07
661.46	203.63
661.60	166.18
661.74	114.69
661.89	107.66
662.03	149.79
662.17	121.71
662.31	147.45
662.46	140.43
662.60	86.60
662.74	152.13
662.88	91.28
663.03	159.16
663.17	124.05
663.31	147.45
663.45	170.86
663.60	128.73
663.74	77.24
663.88	42.13
664.02	149.79
664.17	102.98
664.31	110.01
664.45	124.05
664.59	159.16
664.73	173.20
664.88	110.01
665.02	135.75
665.16	154.48
665.30	126.39
665.44	107.66
665.59	173.20
665.73	196.60
665.87	159.16
666.01	110.01
666.15	98.30
666.29	138.09
666.44	177.88
666.58	255.12
666.72	131.07
666.86	72.56
667.00	126.39
667.14	149.79
667.28	145.11
667.43	107.66
667.57	156.82
667.71	119.37
667.85	102.98
667.99	173.20
668.13	100.64
668.27	131.07
668.41	177.88
668.56	65.54
668.70	198.95
668.84	140.43
668.98	189.58
669.12	72.56
669.26	91.28
669.40	243.42
669.54	135.75
669.68	124.05
669.82	133.41
669.96	81.92
670.10	212.99
670.25	173.20
670.39	212.99
670.53	175.54
670.67	138.09
670.81	159.16
670.95	159.16
671.09	145.11
671.23	180.22
671.37	114.69
671.51	173.20
671.65	86.60
671.79	117.03
671.93	149.79
672.07	201.29
672.21	117.03
672.35	128.73
672.49	74.90
672.63	133.41
672.77	175.54
672.91	121.71
673.05	208.31
673.19	166.18
673.33	65.54
673.47	191.92
673.61	159.16
673.75	117.03
673.89	147.45
674.03	154.48
674.17	100.64
674.31	117.03
674.45	149.79
674.59	161.50
674.73	44.47
674.87	189.58
675.01	70.22
675.15	100.64
675.29	98.30
675.43	194.26
675.56	180.22
675.70	173.20
675.84	255.12
675.98	159.16
676.12	84.26
676.26	70.22
676.40	117.03
676.54	163.84
676.68	154.48
676.82	173.20
676.96	140.43
677.10	182.56
677.23	117.03
677.37	112.35
677.51	84.26
677.65	170.86
677.79	159.16
677.93	166.18
678.07	119.37
678.21	18.72
678.34	91.28
678.48	18.72
678.62	175.54
678.76	88.94
678.90	140.43
679.04	156.82
679.18	128.73
679.31	175.54
679.45	163.84
679.59	98.30
679.73	138.09
679.87	95.96
680.00	88.94
680.14	117.03
680.28	112.35
680.42	121.71
680.56	196.60
680.70	161.50
680.83	53.83
680.97	140.43
681.11	60.85
681.25	100.64
681.39	131.07
681.52	60.85
681.66	126.39
681.80	182.56
681.94	117.03
682.07	210.65
682.21	126.39
682.35	187.24
682.49	117.03
682.62	156.82
682.76	152.13
682.90	133.41
683.04	156.82
683.17	105.32
683.31	156.82
683.45	173.20
683.59	182.56
683.72	217.67
683.86	170.86
684.00	110.01
684.13	180.22
684.27	140.43
684.41	203.63
684.55	70.22
684.68	149.79
684.82	152.13
684.96	74.90
685.09	100.64
685.23	124.05
685.37	93.62
685.50	107.66
685.64	126.39
685.78	142.77
685.91	95.96
686.05	224.69
686.19	182.56
686.32	128.73
686.46	205.97
686.60	79.58
686.73	175.54
686.87	154.48
687.01	93.62
687.14	53.83
687.28	147.45
687.42	138.09
687.55	84.26
687.69	149.79
687.82	53.83
687.96	102.98
688.10	74.90
688.23	70.22
688.37	74.90
688.50	102.98
688.64	112.35
688.78	79.58
688.91	67.88
689.05	110.01
689.18	86.60
689.32	166.18
689.46	147.45
689.59	65.54
689.73	133.41
689.86	145.11
690.00	86.60
690.13	128.73
690.27	88.94
690.41	72.56
690.54	86.60
690.68	177.88
690.81	131.07
690.95	131.07
691.08	128.73
691.22	156.82
691.35	159.16
691.49	88.94
691.62	128.73
691.76	166.18
691.89	149.79
692.03	107.66
692.16	173.20
692.30	128.73
692.43	177.88
692.57	91.28
692.70	70.22
692.84	105.32
692.97	133.41
693.11	128.73
693.24	117.03
693.38	107.66
693.51	35.11
693.65	166.18
693.78	163.84
693.92	58.51
694.05	105.32
694.19	86.60
694.32	107.66
694.45	81.92
694.59	88.94
694.72	154.48
694.86	173.20
694.99	175.54
695.13	37.45
695.26	161.50
695.39	133.41
695.53	131.07
695.66	95.96
695.80	142.77
695.93	142.77
696.07	88.94
696.20	135.75
696.33	86.60
696.47	81.92
696.60	46.81
696.73	142.77
696.87	119.37
697.00	124.05
697.14	147.45
697.27	91.28
697.40	114.69
697.54	32.77
697.67	149.79
697.80	56.17
697.94	88.94
698.07	44.47
698.21	105.32
698.34	126.39
698.47	119.37
698.61	135.75
698.74	117.03
698.87	124.05
699.01	107.66
699.14	37.45
699.27	53.83
699.40	205.97
699.54	149.79
699.67	79.58
699.80	117.03
699.94	131.07
700.07	110.01
700.20	149.79
700.34	131.07
700.47	135.75
700.60	98.30
700.73	91.28
700.87	175.54
701.00	77.24
701.13	98.30
701.26	135.75
701.40	114.69
701.53	79.58
701.66	60.85
701.79	84.26
701.93	98.30
702.06	168.52
702.19	126.39
702.32	152.13
702.46	44.47
702.59	79.58
702.72	51.49
702.85	46.81
702.99	117.03
703.12	154.48
703.25	105.32
703.38	121.71
703.51	124.05
703.65	35.11
703.78	67.88
703.91	70.22
704.04	133.41
704.17	112.35
704.31	98.30
704.44	81.92
704.57	98.30
704.70	84.26
704.83	98.30
704.96	39.79
705.10	100.64
705.23	65.54
>>>>>End Processed Spectral Data<<<<<
