SpectraSuite Data File
++++++++++++++++++++++++++++++++++++
Date: Fri Oct 04 11:51:08 GMT-05:00 2013
User: price-jones
Dark Spectrum Present: No
Reference Spectrum Present: No
Number of Sampled Component Spectra: 1
Spectrometers: USB2+H05261
Integration Time (usec): 100000 (USB2+H05261)
Spectra Averaged: 1 (USB2+H05261)
Boxcar Smoothing: 0 (USB2+H05261)
Correct for Electrical Dark: No (USB2+H05261)
Strobe/Lamp Enabled: No (USB2+H05261)
Correct for Detector Non-linearity: No (USB2+H05261)
Correct for Stray Light: No (USB2+H05261)
Number of Pixels in Processed Spectrum: 2048
>>>>>Begin Processed Spectral Data<<<<<
365.73	0.00
365.92	0.00
366.12	0.00
366.32	0.00
366.52	0.00
366.72	0.00
366.91	0.00
367.11	0.00
367.31	0.00
367.51	0.00
367.70	0.00
367.90	0.00
368.10	0.00
368.30	0.00
368.49	0.00
368.69	0.00
368.89	0.00
369.09	0.00
369.28	0.00
369.48	0.00
369.68	0.00
369.87	18.72
370.07	0.00
370.27	18.72
370.47	74.90
370.66	2.34
370.86	0.00
371.06	93.62
371.25	35.11
371.45	9.36
371.65	77.24
371.84	37.45
372.04	21.06
372.24	30.43
372.44	0.00
372.63	72.56
372.83	100.64
373.03	74.90
373.22	112.35
373.42	46.81
373.62	81.92
373.81	60.85
374.01	114.69
374.21	140.43
374.40	79.58
374.60	149.79
374.79	0.00
374.99	88.94
375.19	91.28
375.38	107.66
375.58	95.96
375.78	107.66
375.97	100.64
376.17	212.99
376.37	98.30
376.56	58.51
376.76	60.85
376.95	49.15
377.15	91.28
377.35	98.30
377.54	51.49
377.74	46.81
377.93	72.56
378.13	91.28
378.33	133.41
378.52	51.49
378.72	135.75
378.91	60.85
379.11	0.00
379.31	86.60
379.50	51.49
379.70	126.39
379.89	74.90
380.09	77.24
380.28	77.24
380.48	25.75
380.68	95.96
380.87	51.49
381.07	105.32
381.26	39.79
381.46	133.41
381.65	121.71
381.85	28.09
382.04	56.17
382.24	79.58
382.43	67.88
382.63	124.05
382.83	86.60
383.02	72.56
383.22	35.11
383.41	65.54
383.61	9.36
383.80	138.09
384.00	107.66
384.19	51.49
384.39	88.94
384.58	124.05
384.78	30.43
384.97	133.41
385.17	28.09
385.36	67.88
385.56	65.54
385.75	147.45
385.95	49.15
386.14	128.73
386.34	53.83
386.53	93.62
386.72	88.94
386.92	140.43
387.11	102.98
387.31	44.47
387.50	18.72
387.70	79.58
387.89	102.98
388.09	77.24
388.28	63.19
388.48	91.28
388.67	72.56
388.86	121.71
389.06	74.90
389.25	128.73
389.45	46.81
389.64	112.35
389.84	91.28
390.03	18.72
390.22	35.11
390.42	65.54
390.61	53.83
390.81	67.88
391.00	77.24
391.19	88.94
391.39	110.01
391.58	23.41
391.78	74.90
391.97	121.71
392.16	140.43
392.36	95.96
392.55	138.09
392.75	91.28
392.94	32.77
393.13	63.19
393.33	4.68
393.52	25.75
393.71	140.43
393.91	58.51
394.10	35.11
394.29	28.09
394.49	100.64
394.68	100.64
394.88	142.77
395.07	131.07
395.26	74.90
395.46	42.13
395.65	88.94
395.84	58.51
396.04	138.09
396.23	53.83
396.42	77.24
396.62	98.30
396.81	65.54
397.00	117.03
397.19	138.09
397.39	0.00
397.58	88.94
397.77	25.75
397.97	81.92
398.16	105.32
398.35	60.85
398.55	91.28
398.74	70.22
398.93	149.79
399.12	128.73
399.32	28.09
399.51	173.20
399.70	107.66
399.90	105.32
400.09	131.07
400.28	128.73
400.47	93.62
400.67	140.43
400.86	77.24
401.05	63.19
401.24	105.32
401.44	124.05
401.63	140.43
401.82	105.32
402.01	30.43
402.21	135.75
402.40	44.47
402.59	79.58
402.78	93.62
402.97	112.35
403.17	126.39
403.36	138.09
403.55	81.92
403.74	72.56
403.93	128.73
404.13	100.64
404.32	32.77
404.51	95.96
404.70	140.43
404.89	81.92
405.09	170.86
405.28	93.62
405.47	102.98
405.66	102.98
405.85	79.58
406.05	93.62
406.24	102.98
406.43	152.13
406.62	149.79
406.81	131.07
407.00	135.75
407.20	65.54
407.39	51.49
407.58	60.85
407.77	79.58
407.96	142.77
408.15	81.92
408.34	86.60
408.54	126.39
408.73	138.09
408.92	121.71
409.11	117.03
409.30	102.98
409.49	77.24
409.68	65.54
409.87	102.98
410.07	67.88
410.26	138.09
410.45	182.56
410.64	163.84
410.83	117.03
411.02	91.28
411.21	154.48
411.40	170.86
411.59	28.09
411.78	105.32
411.98	93.62
412.17	77.24
412.36	74.90
412.55	133.41
412.74	72.56
412.93	140.43
413.12	28.09
413.31	84.26
413.50	154.48
413.69	112.35
413.88	72.56
414.07	138.09
414.26	112.35
414.45	46.81
414.64	128.73
414.83	173.20
415.02	114.69
415.22	77.24
415.41	124.05
415.60	205.97
415.79	170.86
415.98	152.13
416.17	21.06
416.36	88.94
416.55	154.48
416.74	95.96
416.93	93.62
417.12	65.54
417.31	133.41
417.50	32.77
417.69	126.39
417.88	114.69
418.07	67.88
418.26	119.37
418.45	51.49
418.64	107.66
418.83	60.85
419.02	149.79
419.21	133.41
419.39	154.48
419.58	67.88
419.77	77.24
419.96	91.28
420.15	93.62
420.34	124.05
420.53	65.54
420.72	117.03
420.91	58.51
421.10	105.32
421.29	163.84
421.48	124.05
421.67	140.43
421.86	84.26
422.05	86.60
422.24	93.62
422.43	58.51
422.61	44.47
422.80	124.05
422.99	154.48
423.18	88.94
423.37	170.86
423.56	124.05
423.75	161.50
423.94	79.58
424.13	91.28
424.32	110.01
424.50	91.28
424.69	98.30
424.88	154.48
425.07	114.69
425.26	105.32
425.45	149.79
425.64	107.66
425.83	51.49
426.01	107.66
426.20	187.24
426.39	81.92
426.58	35.11
426.77	28.09
426.96	145.11
427.15	105.32
427.33	105.32
427.52	119.37
427.71	166.18
427.90	98.30
428.09	0.00
428.28	182.56
428.46	133.41
428.65	72.56
428.84	119.37
429.03	140.43
429.22	128.73
429.40	95.96
429.59	44.47
429.78	126.39
429.97	135.75
430.16	84.26
430.34	93.62
430.53	110.01
430.72	110.01
430.91	126.39
431.10	95.96
431.28	142.77
431.47	86.60
431.66	91.28
431.85	98.30
432.03	117.03
432.22	67.88
432.41	63.19
432.60	114.69
432.79	88.94
432.97	182.56
433.16	145.11
433.35	138.09
433.54	72.56
433.72	91.28
433.91	142.77
434.10	91.28
434.28	60.85
434.47	63.19
434.66	142.77
434.85	88.94
435.03	98.30
435.22	163.84
435.41	95.96
435.59	18.72
435.78	105.32
435.97	79.58
436.16	95.96
436.34	102.98
436.53	84.26
436.72	138.09
436.90	131.07
437.09	119.37
437.28	112.35
437.46	100.64
437.65	124.05
437.84	110.01
438.02	91.28
438.21	95.96
438.40	117.03
438.58	88.94
438.77	117.03
438.96	140.43
439.14	77.24
439.33	133.41
439.52	102.98
439.70	84.26
439.89	112.35
440.08	98.30
440.26	170.86
440.45	124.05
440.63	30.43
440.82	135.75
441.01	156.82
441.19	128.73
441.38	140.43
441.57	67.88
441.75	126.39
441.94	166.18
442.12	170.86
442.31	126.39
442.50	63.19
442.68	133.41
442.87	58.51
443.05	142.77
443.24	131.07
443.43	149.79
443.61	208.31
443.80	121.71
443.98	138.09
444.17	44.47
444.35	93.62
444.54	72.56
444.73	117.03
444.91	168.52
445.10	95.96
445.28	121.71
445.47	161.50
445.65	77.24
445.84	114.69
446.02	133.41
446.21	173.20
446.39	95.96
446.58	166.18
446.77	119.37
446.95	74.90
447.14	119.37
447.32	88.94
447.51	145.11
447.69	56.17
447.88	140.43
448.06	161.50
448.25	126.39
448.43	110.01
448.62	105.32
448.80	166.18
448.99	126.39
449.17	112.35
449.36	191.92
449.54	149.79
449.73	152.13
449.91	154.48
450.10	142.77
450.28	175.54
450.46	182.56
450.65	161.50
450.83	107.66
451.02	142.77
451.20	131.07
451.39	124.05
451.57	110.01
451.76	180.22
451.94	170.86
452.13	191.92
452.31	156.82
452.49	201.29
452.68	147.45
452.86	173.20
453.05	189.58
453.23	147.45
453.42	100.64
453.60	60.85
453.78	77.24
453.97	60.85
454.15	25.75
454.34	112.35
454.52	170.86
454.70	152.13
454.89	133.41
455.07	133.41
455.26	149.79
455.44	180.22
455.62	131.07
455.81	107.66
455.99	152.13
456.17	177.88
456.36	142.77
456.54	124.05
456.73	0.00
456.91	149.79
457.09	107.66
457.28	135.75
457.46	128.73
457.64	124.05
457.83	95.96
458.01	102.98
458.19	198.95
458.38	124.05
458.56	110.01
458.74	102.98
458.93	107.66
459.11	135.75
459.29	170.86
459.48	182.56
459.66	140.43
459.84	156.82
460.03	187.24
460.21	191.92
460.39	163.84
460.57	161.50
460.76	98.30
460.94	166.18
461.12	147.45
461.31	184.90
461.49	156.82
461.67	147.45
461.85	203.63
462.04	126.39
462.22	578.11
462.40	147.45
462.59	135.75
462.77	93.62
462.95	121.71
463.13	140.43
463.32	201.29
463.50	180.22
463.68	117.03
463.86	168.52
464.05	187.24
464.23	121.71
464.41	156.82
464.59	138.09
464.78	88.94
464.96	98.30
465.14	189.58
465.32	110.01
465.50	98.30
465.69	159.16
465.87	145.11
466.05	110.01
466.23	91.28
466.41	154.48
466.60	105.32
466.78	93.62
466.96	105.32
467.14	128.73
467.32	255.12
467.51	170.86
467.69	196.60
467.87	224.69
468.05	133.41
468.23	175.54
468.41	124.05
468.60	149.79
468.78	170.86
468.96	156.82
469.14	187.24
469.32	112.35
469.50	98.30
469.69	234.05
469.87	110.01
470.05	114.69
470.23	121.71
470.41	131.07
470.59	166.18
470.77	107.66
470.95	67.88
471.14	205.97
471.32	147.45
471.50	156.82
471.68	142.77
471.86	166.18
472.04	170.86
472.22	170.86
472.40	37.45
472.58	142.77
472.77	112.35
472.95	124.05
473.13	159.16
473.31	187.24
473.49	72.56
473.67	121.71
473.85	119.37
474.03	126.39
474.21	86.60
474.39	138.09
474.57	215.33
474.75	142.77
474.93	124.05
475.12	131.07
475.30	201.29
475.48	135.75
475.66	159.16
475.84	161.50
476.02	140.43
476.20	145.11
476.38	126.39
476.56	224.69
476.74	114.69
476.92	133.41
477.10	163.84
477.28	105.32
477.46	98.30
477.64	234.05
477.82	208.31
478.00	152.13
478.18	119.37
478.36	159.16
478.54	114.69
478.72	156.82
478.90	180.22
479.08	128.73
479.26	152.13
479.44	110.01
479.62	229.37
479.80	95.96
479.98	79.58
480.16	119.37
480.34	182.56
480.52	124.05
480.70	187.24
480.88	124.05
481.06	72.56
481.24	121.71
481.41	133.41
481.59	147.45
481.77	161.50
481.95	100.64
482.13	187.24
482.31	173.20
482.49	145.11
482.67	152.13
482.85	231.71
483.03	187.24
483.21	110.01
483.39	145.11
483.57	100.64
483.74	285.55
483.92	119.37
484.10	140.43
484.28	161.50
484.46	184.90
484.64	147.45
484.82	152.13
485.00	215.33
485.18	163.84
485.35	135.75
485.53	175.54
485.71	238.73
485.89	124.05
486.07	142.77
486.25	163.84
486.43	117.03
486.61	154.48
486.78	159.16
486.96	126.39
487.14	217.67
487.32	140.43
487.50	65.54
487.68	124.05
487.85	142.77
488.03	205.97
488.21	245.76
488.39	147.45
488.57	208.31
488.75	138.09
488.92	404.91
489.10	175.54
489.28	168.52
489.46	95.96
489.64	159.16
489.81	238.73
489.99	203.63
490.17	177.88
490.35	191.92
490.53	187.24
490.70	152.13
490.88	173.20
491.06	147.45
491.24	177.88
491.41	177.88
491.59	168.52
491.77	140.43
491.95	124.05
492.13	149.79
492.30	196.60
492.48	220.01
492.66	175.54
492.84	201.29
493.01	194.26
493.19	205.97
493.37	290.23
493.54	229.37
493.72	210.65
493.90	128.73
494.08	117.03
494.25	184.90
494.43	198.95
494.61	208.31
494.79	248.10
494.96	138.09
495.14	217.67
495.32	238.73
495.49	163.84
495.67	138.09
495.85	234.05
496.02	194.26
496.20	212.99
496.38	124.05
496.55	201.29
496.73	173.20
496.91	102.98
497.09	212.99
497.26	227.03
497.44	215.33
497.62	170.86
497.79	145.11
497.97	236.39
498.14	163.84
498.32	166.18
498.50	191.92
498.67	184.90
498.85	215.33
499.03	173.20
499.20	170.86
499.38	191.92
499.56	245.76
499.73	243.42
499.91	177.88
500.08	236.39
500.26	142.77
500.44	170.86
500.61	231.71
500.79	168.52
500.97	222.35
501.14	201.29
501.32	147.45
501.49	180.22
501.67	236.39
501.84	182.56
502.02	177.88
502.20	266.82
502.37	278.52
502.55	212.99
502.72	142.77
502.90	238.73
503.07	124.05
503.25	194.26
503.43	114.69
503.60	236.39
503.78	142.77
503.95	142.77
504.13	133.41
504.30	147.45
504.48	259.80
504.65	257.46
504.83	238.73
505.01	198.95
505.18	156.82
505.36	248.10
505.53	163.84
505.71	198.95
505.88	227.03
506.06	184.90
506.23	182.56
506.41	191.92
506.58	117.03
506.76	271.50
506.93	224.69
507.11	201.29
507.28	168.52
507.46	215.33
507.63	231.71
507.81	170.86
507.98	166.18
508.16	220.01
508.33	245.76
508.50	198.95
508.68	271.50
508.85	236.39
509.03	194.26
509.20	208.31
509.38	189.58
509.55	189.58
509.73	217.67
509.90	245.76
510.08	121.71
510.25	191.92
510.42	212.99
510.60	182.56
510.77	166.18
510.95	264.48
511.12	180.22
511.30	175.54
511.47	220.01
511.64	334.70
511.82	222.35
511.99	208.31
512.17	198.95
512.34	208.31
512.51	196.60
512.69	175.54
512.86	196.60
513.04	212.99
513.21	184.90
513.38	194.26
513.56	154.48
513.73	107.66
513.90	201.29
514.08	95.96
514.25	203.63
514.43	215.33
514.60	203.63
514.77	170.86
514.95	241.08
515.12	220.01
515.29	250.44
515.47	241.08
515.64	205.97
515.81	131.07
515.99	285.55
516.16	252.78
516.33	245.76
516.51	234.05
516.68	201.29
516.85	147.45
517.03	210.65
517.20	222.35
517.37	262.14
517.54	166.18
517.72	203.63
517.89	177.88
518.06	245.76
518.24	191.92
518.41	229.37
518.58	168.52
518.75	140.43
518.93	245.76
519.10	191.92
519.27	182.56
519.45	173.20
519.62	220.01
519.79	264.48
519.96	217.67
520.14	203.63
520.31	189.58
520.48	227.03
520.65	220.01
520.83	208.31
521.00	175.54
521.17	175.54
521.34	135.75
521.52	180.22
521.69	131.07
521.86	208.31
522.03	208.31
522.20	264.48
522.38	152.13
522.55	208.31
522.72	149.79
522.89	280.86
523.07	189.58
523.24	259.80
523.41	184.90
523.58	198.95
523.75	250.44
523.92	224.69
524.10	198.95
524.27	196.60
524.44	252.78
524.61	222.35
524.78	222.35
524.96	163.84
525.13	173.20
525.30	180.22
525.47	180.22
525.64	257.46
525.81	238.73
525.98	227.03
526.16	119.37
526.33	287.89
526.50	163.84
526.67	133.41
526.84	149.79
527.01	51.49
527.18	210.65
527.36	149.79
527.53	182.56
527.70	138.09
527.87	212.99
528.04	222.35
528.21	212.99
528.38	236.39
528.55	259.80
528.72	283.20
528.89	290.23
529.07	177.88
529.24	243.42
529.41	238.73
529.58	271.50
529.75	191.92
529.92	229.37
530.09	238.73
530.26	234.05
530.43	189.58
530.60	234.05
530.77	166.18
530.94	205.97
531.11	220.01
531.28	215.33
531.46	262.14
531.63	241.08
531.80	189.58
531.97	241.08
532.14	227.03
532.31	248.10
532.48	205.97
532.65	159.16
532.82	217.67
532.99	259.80
533.16	231.71
533.33	182.56
533.50	257.46
533.67	154.48
533.84	189.58
534.01	259.80
534.18	191.92
534.35	159.16
534.52	269.16
534.69	227.03
534.86	250.44
535.03	191.92
535.20	184.90
535.37	269.16
535.54	166.18
535.71	294.91
535.88	224.69
536.05	224.69
536.22	259.80
536.38	168.52
536.55	238.73
536.72	278.52
536.89	166.18
537.06	238.73
537.23	276.18
537.40	184.90
537.57	187.24
537.74	222.35
537.91	222.35
538.08	238.73
538.25	222.35
538.42	238.73
538.59	194.26
538.75	297.25
538.92	252.78
539.09	287.89
539.26	224.69
539.43	234.05
539.60	266.82
539.77	250.44
539.94	264.48
540.11	163.84
540.28	229.37
540.44	208.31
540.61	238.73
540.78	138.09
540.95	201.29
541.12	208.31
541.29	152.13
541.46	238.73
541.62	152.13
541.79	273.84
541.96	149.79
542.13	194.26
542.30	170.86
542.47	229.37
542.63	191.92
542.80	182.56
542.97	311.29
543.14	215.33
543.31	191.92
543.48	205.97
543.64	212.99
543.81	234.05
543.98	259.80
544.15	257.46
544.32	180.22
544.48	159.16
544.65	175.54
544.82	184.90
544.99	243.42
545.16	231.71
545.32	231.71
545.49	201.29
545.66	187.24
545.83	257.46
546.00	212.99
546.16	245.76
546.33	168.52
546.50	306.61
546.67	262.14
546.83	238.73
547.00	177.88
547.17	229.37
547.34	173.20
547.50	259.80
547.67	168.52
547.84	177.88
548.00	180.22
548.17	189.58
548.34	266.82
548.51	245.76
548.67	184.90
548.84	227.03
549.01	196.60
549.18	154.48
549.34	147.45
549.51	140.43
549.68	217.67
549.84	208.31
550.01	156.82
550.18	276.18
550.34	262.14
550.51	236.39
550.68	269.16
550.84	180.22
551.01	187.24
551.18	276.18
551.34	154.48
551.51	177.88
551.68	191.92
551.84	102.98
552.01	166.18
552.18	196.60
552.34	205.97
552.51	128.73
552.68	257.46
552.84	236.39
553.01	234.05
553.18	299.59
553.34	229.37
553.51	231.71
553.67	227.03
553.84	217.67
554.01	236.39
554.17	227.03
554.34	198.95
554.51	276.18
554.67	255.12
554.84	220.01
555.00	180.22
555.17	222.35
555.33	145.11
555.50	217.67
555.67	154.48
555.83	198.95
556.00	107.66
556.16	414.27
556.33	245.76
556.50	257.46
556.66	138.09
556.83	257.46
556.99	187.24
557.16	212.99
557.32	173.20
557.49	187.24
557.65	220.01
557.82	170.86
557.98	194.26
558.15	234.05
558.32	222.35
558.48	168.52
558.65	182.56
558.81	182.56
558.98	229.37
559.14	257.46
559.31	166.18
559.47	168.52
559.64	215.33
559.80	276.18
559.97	168.52
560.13	152.13
560.30	112.35
560.46	135.75
560.63	224.69
560.79	191.92
560.96	163.84
561.12	187.24
561.29	224.69
561.45	215.33
561.61	215.33
561.78	264.48
561.94	189.58
562.11	227.03
562.27	243.42
562.44	175.54
562.60	236.39
562.77	220.01
562.93	210.65
563.10	159.16
563.26	220.01
563.42	180.22
563.59	182.56
563.75	177.88
563.92	259.80
564.08	159.16
564.24	248.10
564.41	299.59
564.57	145.11
564.74	210.65
564.90	227.03
565.07	187.24
565.23	222.35
565.39	210.65
565.56	152.13
565.72	131.07
565.88	224.69
566.05	210.65
566.21	224.69
566.38	191.92
566.54	112.35
566.70	189.58
566.87	86.60
567.03	145.11
567.19	194.26
567.36	215.33
567.52	191.92
567.68	180.22
567.85	245.76
568.01	180.22
568.17	215.33
568.34	231.71
568.50	222.35
568.66	191.92
568.83	285.55
568.99	248.10
569.15	203.63
569.32	180.22
569.48	198.95
569.64	194.26
569.81	222.35
569.97	173.20
570.13	168.52
570.30	203.63
570.46	191.92
570.62	145.11
570.78	163.84
570.95	180.22
571.11	238.73
571.27	180.22
571.43	147.45
571.60	269.16
571.76	201.29
571.92	234.05
572.09	191.92
572.25	184.90
572.41	184.90
572.57	278.52
572.74	243.42
572.90	229.37
573.06	201.29
573.22	234.05
573.38	159.16
573.55	245.76
573.71	196.60
573.87	191.92
574.03	168.52
574.20	121.71
574.36	182.56
574.52	212.99
574.68	191.92
574.84	241.08
575.01	170.86
575.17	135.75
575.33	184.90
575.49	205.97
575.65	175.54
575.82	191.92
575.98	266.82
576.14	177.88
576.30	156.82
576.46	191.92
576.62	156.82
576.79	248.10
576.95	180.22
577.11	191.92
577.27	138.09
577.43	205.97
577.59	215.33
577.75	271.50
577.92	227.03
578.08	166.18
578.24	142.77
578.40	227.03
578.56	241.08
578.72	208.31
578.88	308.95
579.04	180.22
579.21	154.48
579.37	191.92
579.53	152.13
579.69	257.46
579.85	168.52
580.01	217.67
580.17	210.65
580.33	161.50
580.49	210.65
580.65	189.58
580.82	227.03
580.98	161.50
581.14	196.60
581.30	287.89
581.46	173.20
581.62	252.78
581.78	184.90
581.94	180.22
582.10	93.62
582.26	154.48
582.42	187.24
582.58	238.73
582.74	142.77
582.90	191.92
583.06	191.92
583.22	217.67
583.38	121.71
583.54	196.60
583.70	269.16
583.86	201.29
584.02	163.84
584.18	222.35
584.34	124.05
584.50	208.31
584.66	205.97
584.82	102.98
584.98	182.56
585.14	203.63
585.30	259.80
585.46	198.95
585.62	119.37
585.78	224.69
585.94	220.01
586.10	156.82
586.26	112.35
586.42	215.33
586.58	201.29
586.74	142.77
586.90	196.60
587.06	196.60
587.22	189.58
587.38	177.88
587.54	149.79
587.70	166.18
587.86	140.43
588.02	133.41
588.18	177.88
588.34	198.95
588.49	177.88
588.65	154.48
588.81	177.88
588.97	159.16
589.13	95.96
589.29	161.50
589.45	187.24
589.61	238.73
589.77	168.52
589.93	245.76
590.08	138.09
590.24	238.73
590.40	180.22
590.56	133.41
590.72	159.16
590.88	138.09
591.04	212.99
591.20	95.96
591.35	161.50
591.51	205.97
591.67	135.75
591.83	170.86
591.99	140.43
592.15	189.58
592.31	149.79
592.46	131.07
592.62	262.14
592.78	208.31
592.94	184.90
593.10	191.92
593.26	229.37
593.41	175.54
593.57	203.63
593.73	142.77
593.89	110.01
594.05	128.73
594.20	133.41
594.36	156.82
594.52	175.54
594.68	168.52
594.84	210.65
594.99	163.84
595.15	238.73
595.31	170.86
595.47	215.33
595.62	140.43
595.78	166.18
595.94	149.79
596.10	196.60
596.25	236.39
596.41	180.22
596.57	159.16
596.73	170.86
596.88	161.50
597.04	121.71
597.20	145.11
597.36	184.90
597.51	138.09
597.67	189.58
597.83	191.92
597.99	166.18
598.14	196.60
598.30	187.24
598.46	210.65
598.61	184.90
598.77	198.95
598.93	107.66
599.09	154.48
599.24	257.46
599.40	236.39
599.56	159.16
599.71	203.63
599.87	177.88
600.03	241.08
600.18	175.54
600.34	257.46
600.50	166.18
600.65	140.43
600.81	145.11
600.97	196.60
601.12	273.84
601.28	212.99
601.44	194.26
601.59	177.88
601.75	184.90
601.91	159.16
602.06	173.20
602.22	238.73
602.37	173.20
602.53	173.20
602.69	208.31
602.84	196.60
603.00	205.97
603.16	154.48
603.31	234.05
603.47	173.20
603.62	126.39
603.78	187.24
603.94	234.05
604.09	238.73
604.25	198.95
604.40	180.22
604.56	212.99
604.71	189.58
604.87	201.29
605.03	154.48
605.18	100.64
605.34	175.54
605.49	133.41
605.65	149.79
605.80	161.50
605.96	156.82
606.12	131.07
606.27	182.56
606.43	166.18
606.58	212.99
606.74	163.84
606.89	114.69
607.05	102.98
607.20	131.07
607.36	184.90
607.51	173.20
607.67	107.66
607.82	149.79
607.98	205.97
608.13	159.16
608.29	170.86
608.44	194.26
608.60	217.67
608.75	231.71
608.91	194.26
609.06	259.80
609.22	252.78
609.37	149.79
609.53	191.92
609.68	126.39
609.84	189.58
609.99	163.84
610.15	161.50
610.30	259.80
610.46	163.84
610.61	159.16
610.76	217.67
610.92	222.35
611.07	210.65
611.23	201.29
611.38	189.58
611.54	177.88
611.69	112.35
611.84	152.13
612.00	140.43
612.15	234.05
612.31	208.31
612.46	210.65
612.62	191.92
612.77	255.12
612.92	215.33
613.08	238.73
613.23	154.48
613.39	159.16
613.54	128.73
613.69	161.50
613.85	133.41
614.00	173.20
614.15	215.33
614.31	156.82
614.46	149.79
614.62	241.08
614.77	210.65
614.92	147.45
615.08	259.80
615.23	168.52
615.38	191.92
615.54	205.97
615.69	189.58
615.84	117.03
616.00	166.18
616.15	147.45
616.30	189.58
616.46	196.60
616.61	142.77
616.76	159.16
616.92	173.20
617.07	154.48
617.22	105.32
617.37	177.88
617.53	220.01
617.68	208.31
617.83	93.62
617.99	203.63
618.14	201.29
618.29	117.03
618.45	170.86
618.60	147.45
618.75	119.37
618.90	138.09
619.06	191.92
619.21	184.90
619.36	238.73
619.51	182.56
619.67	154.48
619.82	140.43
619.97	149.79
620.12	231.71
620.28	208.31
620.43	229.37
620.58	161.50
620.73	156.82
620.89	131.07
621.04	187.24
621.19	159.16
621.34	156.82
621.49	147.45
621.65	187.24
621.80	114.69
621.95	168.52
622.10	238.73
622.25	173.20
622.41	220.01
622.56	196.60
622.71	105.32
622.86	245.76
623.01	138.09
623.16	201.29
623.32	222.35
623.47	159.16
623.62	126.39
623.77	105.32
623.92	161.50
624.07	142.77
624.23	124.05
624.38	131.07
624.53	81.92
624.68	110.01
624.83	145.11
624.98	177.88
625.13	147.45
625.29	142.77
625.44	182.56
625.59	142.77
625.74	145.11
625.89	128.73
626.04	72.56
626.19	138.09
626.34	117.03
626.49	131.07
626.65	145.11
626.80	175.54
626.95	194.26
627.10	170.86
627.25	119.37
627.40	95.96
627.55	189.58
627.70	182.56
627.85	147.45
628.00	187.24
628.15	163.84
628.30	184.90
628.45	177.88
628.60	184.90
628.76	161.50
628.91	184.90
629.06	163.84
629.21	198.95
629.36	168.52
629.51	184.90
629.66	142.77
629.81	182.56
629.96	170.86
630.11	159.16
630.26	163.84
630.41	177.88
630.56	203.63
630.71	203.63
630.86	170.86
631.01	161.50
631.16	234.05
631.31	212.99
631.46	250.44
631.61	128.73
631.76	140.43
631.91	88.94
632.06	128.73
632.21	205.97
632.36	105.32
632.51	159.16
632.66	205.97
632.81	110.01
632.96	88.94
633.10	215.33
633.25	217.67
633.40	114.69
633.55	210.65
633.70	133.41
633.85	156.82
634.00	147.45
634.15	198.95
634.30	119.37
634.45	131.07
634.60	201.29
634.75	110.01
634.90	142.77
635.05	133.41
635.19	128.73
635.34	161.50
635.49	182.56
635.64	177.88
635.79	170.86
635.94	138.09
636.09	145.11
636.24	135.75
636.39	84.26
636.53	201.29
636.68	154.48
636.83	194.26
636.98	170.86
637.13	159.16
637.28	189.58
637.43	203.63
637.57	170.86
637.72	114.69
637.87	191.92
638.02	110.01
638.17	154.48
638.32	102.98
638.46	152.13
638.61	189.58
638.76	145.11
638.91	119.37
639.06	128.73
639.20	212.99
639.35	95.96
639.50	138.09
639.65	145.11
639.80	170.86
639.94	147.45
640.09	184.90
640.24	189.58
640.39	170.86
640.54	205.97
640.68	98.30
640.83	100.64
640.98	117.03
641.13	145.11
641.27	114.69
641.42	112.35
641.57	149.79
641.72	180.22
641.86	170.86
642.01	166.18
642.16	138.09
642.31	161.50
642.45	276.18
642.60	229.37
642.75	119.37
642.90	91.28
643.04	140.43
643.19	110.01
643.34	180.22
643.48	149.79
643.63	201.29
643.78	138.09
643.93	224.69
644.07	156.82
644.22	105.32
644.37	203.63
644.51	238.73
644.66	140.43
644.81	95.96
644.95	159.16
645.10	117.03
645.25	126.39
645.39	210.65
645.54	102.98
645.69	187.24
645.83	112.35
645.98	189.58
646.13	112.35
646.27	161.50
646.42	126.39
646.57	170.86
646.71	135.75
646.86	124.05
647.00	142.77
647.15	126.39
647.30	88.94
647.44	133.41
647.59	126.39
647.74	124.05
647.88	210.65
648.03	107.66
648.17	95.96
648.32	133.41
648.47	100.64
648.61	124.05
648.76	147.45
648.90	88.94
649.05	168.52
649.20	79.58
649.34	84.26
649.49	135.75
649.63	84.26
649.78	189.58
649.92	210.65
650.07	81.92
650.21	128.73
650.36	138.09
650.51	170.86
650.65	138.09
650.80	93.62
650.94	138.09
651.09	133.41
651.23	184.90
651.38	166.18
651.52	201.29
651.67	102.98
651.81	77.24
651.96	124.05
652.10	212.99
652.25	175.54
652.39	224.69
652.54	105.32
652.68	170.86
652.83	107.66
652.97	184.90
653.12	121.71
653.26	63.19
653.41	177.88
653.55	100.64
653.70	170.86
653.84	184.90
653.99	159.16
654.13	154.48
654.27	145.11
654.42	135.75
654.56	189.58
654.71	163.84
654.85	194.26
655.00	140.43
655.14	133.41
655.29	91.28
655.43	163.84
655.57	95.96
655.72	88.94
655.86	124.05
656.01	102.98
656.15	105.32
656.30	170.86
656.44	63.19
656.58	81.92
656.73	114.69
656.87	131.07
657.01	159.16
657.16	205.97
657.30	112.35
657.45	159.16
657.59	77.24
657.73	86.60
657.88	105.32
658.02	212.99
658.16	161.50
658.31	163.84
658.45	72.56
658.60	194.26
658.74	156.82
658.88	107.66
659.03	142.77
659.17	93.62
659.31	105.32
659.46	222.35
659.60	152.13
659.74	152.13
659.89	177.88
660.03	135.75
660.17	170.86
660.32	131.07
660.46	159.16
660.60	102.98
660.74	149.79
660.89	168.52
661.03	105.32
661.17	119.37
661.32	187.24
661.46	128.73
661.60	105.32
661.74	105.32
661.89	224.69
662.03	161.50
662.17	147.45
662.31	147.45
662.46	180.22
662.60	170.86
662.74	173.20
662.88	102.98
663.03	238.73
663.17	102.98
663.31	159.16
663.45	135.75
663.60	117.03
663.74	142.77
663.88	100.64
664.02	156.82
664.17	107.66
664.31	95.96
664.45	170.86
664.59	227.03
664.73	114.69
664.88	138.09
665.02	117.03
665.16	131.07
665.30	215.33
665.44	107.66
665.59	229.37
665.73	117.03
665.87	182.56
666.01	154.48
666.15	138.09
666.29	88.94
666.44	201.29
666.58	241.08
666.72	110.01
666.86	91.28
667.00	121.71
667.14	166.18
667.28	222.35
667.43	126.39
667.57	138.09
667.71	170.86
667.85	135.75
667.99	100.64
668.13	74.90
668.27	175.54
668.41	152.13
668.56	126.39
668.70	117.03
668.84	119.37
668.98	152.13
669.12	42.13
669.26	149.79
669.40	283.20
669.54	149.79
669.68	156.82
669.82	112.35
669.96	100.64
670.10	77.24
670.25	126.39
670.39	133.41
670.53	156.82
670.67	114.69
670.81	81.92
670.95	67.88
671.09	91.28
671.23	187.24
671.37	147.45
671.51	177.88
671.65	163.84
671.79	100.64
671.93	98.30
672.07	154.48
672.21	205.97
672.35	168.52
672.49	133.41
672.63	147.45
672.77	229.37
672.91	117.03
673.05	147.45
673.19	149.79
673.33	138.09
673.47	131.07
673.61	74.90
673.75	161.50
673.89	138.09
674.03	191.92
674.17	142.77
674.31	159.16
674.45	98.30
674.59	112.35
674.73	117.03
674.87	140.43
675.01	205.97
675.15	152.13
675.29	119.37
675.43	156.82
675.56	138.09
675.70	170.86
675.84	166.18
675.98	124.05
676.12	149.79
676.26	126.39
676.40	131.07
676.54	145.11
676.68	173.20
676.82	114.69
676.96	159.16
677.10	161.50
677.23	0.00
677.37	112.35
677.51	138.09
677.65	149.79
677.79	74.90
677.93	161.50
678.07	105.32
678.21	163.84
678.34	110.01
678.48	93.62
678.62	72.56
678.76	140.43
678.90	84.26
679.04	107.66
679.18	140.43
679.31	142.77
679.45	124.05
679.59	117.03
679.73	152.13
679.87	58.51
680.00	133.41
680.14	159.16
680.28	170.86
680.42	147.45
680.56	161.50
680.70	79.58
680.83	51.49
680.97	100.64
681.11	147.45
681.25	114.69
681.39	79.58
681.52	215.33
681.66	140.43
681.80	161.50
681.94	23.41
682.07	215.33
682.21	102.98
682.35	16.38
682.49	124.05
682.62	105.32
682.76	86.60
682.90	110.01
683.04	119.37
683.17	119.37
683.31	114.69
683.45	154.48
683.59	142.77
683.72	184.90
683.86	133.41
684.00	81.92
684.13	159.16
684.27	166.18
684.41	135.75
684.55	105.32
684.68	58.51
684.82	74.90
684.96	63.19
685.09	100.64
685.23	51.49
685.37	102.98
685.50	117.03
685.64	173.20
685.78	117.03
685.91	163.84
686.05	102.98
686.19	145.11
686.32	98.30
686.46	166.18
686.60	135.75
686.73	131.07
686.87	124.05
687.01	53.83
687.14	53.83
687.28	93.62
687.42	140.43
687.55	102.98
687.69	44.47
687.82	37.45
687.96	135.75
688.10	168.52
688.23	124.05
688.37	79.58
688.50	161.50
688.64	135.75
688.78	77.24
688.91	189.58
689.05	110.01
689.18	187.24
689.32	114.69
689.46	95.96
689.59	135.75
689.73	159.16
689.86	63.19
690.00	65.54
690.13	49.15
690.27	93.62
690.41	166.18
690.54	112.35
690.68	170.86
690.81	81.92
690.95	93.62
691.08	44.47
691.22	100.64
691.35	91.28
691.49	37.45
691.62	145.11
691.76	163.84
691.89	191.92
692.03	44.47
692.16	142.77
692.30	81.92
692.43	98.30
692.57	63.19
692.70	98.30
692.84	102.98
692.97	79.58
693.11	133.41
693.24	126.39
693.38	42.13
693.51	46.81
693.65	102.98
693.78	67.88
693.92	131.07
694.05	95.96
694.19	107.66
694.32	112.35
694.45	93.62
694.59	98.30
694.72	105.32
694.86	133.41
694.99	133.41
695.13	51.49
695.26	112.35
695.39	135.75
695.53	117.03
695.66	21.06
695.80	124.05
695.93	126.39
696.07	70.22
696.20	142.77
696.33	110.01
696.47	72.56
696.60	67.88
696.73	25.75
696.87	95.96
697.00	156.82
697.14	65.54
697.27	126.39
697.40	161.50
697.54	86.60
697.67	42.13
697.80	81.92
697.94	102.98
698.07	128.73
698.21	135.75
698.34	98.30
698.47	86.60
698.61	100.64
698.74	58.51
698.87	105.32
699.01	74.90
699.14	128.73
699.27	138.09
699.40	234.05
699.54	110.01
699.67	37.45
699.80	114.69
699.94	105.32
700.07	112.35
700.20	88.94
700.34	86.60
700.47	98.30
700.60	110.01
700.73	91.28
700.87	191.92
701.00	105.32
701.13	86.60
701.26	60.85
701.40	98.30
701.53	86.60
701.66	119.37
701.79	140.43
701.93	67.88
702.06	86.60
702.19	65.54
702.32	152.13
702.46	124.05
702.59	152.13
702.72	9.36
702.85	159.16
702.99	4.68
703.12	77.24
703.25	88.94
703.38	145.11
703.51	154.48
703.65	107.66
703.78	98.30
703.91	110.01
704.04	100.64
704.17	107.66
704.31	39.79
704.44	95.96
704.57	149.79
704.70	79.58
704.83	93.62
704.96	124.05
705.10	91.28
705.23	98.30
>>>>>End Processed Spectral Data<<<<<
