SpectraSuite Data File
++++++++++++++++++++++++++++++++++++
Date: Fri Oct 04 11:47:01 GMT-05:00 2013
User: price-jones
Dark Spectrum Present: No
Reference Spectrum Present: No
Number of Sampled Component Spectra: 1
Spectrometers: USB2+H05261
Integration Time (usec): 100000 (USB2+H05261)
Spectra Averaged: 1 (USB2+H05261)
Boxcar Smoothing: 0 (USB2+H05261)
Correct for Electrical Dark: No (USB2+H05261)
Strobe/Lamp Enabled: No (USB2+H05261)
Correct for Detector Non-linearity: No (USB2+H05261)
Correct for Stray Light: No (USB2+H05261)
Number of Pixels in Processed Spectrum: 2048
>>>>>Begin Processed Spectral Data<<<<<
365.73	28.09
365.92	28.09
366.12	28.09
366.32	0.00
366.52	0.00
366.72	0.00
366.91	0.00
367.11	0.00
367.31	0.00
367.51	0.00
367.70	0.00
367.90	0.00
368.10	0.00
368.30	0.00
368.49	0.00
368.69	0.00
368.89	0.00
369.09	0.00
369.28	0.00
369.48	0.00
369.68	0.00
369.87	0.00
370.07	0.00
370.27	25.75
370.47	44.47
370.66	0.00
370.86	0.00
371.06	35.11
371.25	84.26
371.45	81.92
371.65	95.96
371.84	42.13
372.04	93.62
372.24	205.97
372.44	93.62
372.63	110.01
372.83	119.37
373.03	42.13
373.22	39.79
373.42	84.26
373.62	105.32
373.81	86.60
374.01	84.26
374.21	88.94
374.40	79.58
374.60	119.37
374.79	49.15
374.99	107.66
375.19	56.17
375.38	119.37
375.58	100.64
375.78	126.39
375.97	107.66
376.17	154.48
376.37	84.26
376.56	154.48
376.76	65.54
376.95	39.79
377.15	119.37
377.35	112.35
377.54	131.07
377.74	93.62
377.93	51.49
378.13	86.60
378.33	131.07
378.52	156.82
378.72	154.48
378.91	121.71
379.11	88.94
379.31	70.22
379.50	23.41
379.70	154.48
379.89	65.54
380.09	60.85
380.28	56.17
380.48	84.26
380.68	117.03
380.87	117.03
381.07	79.58
381.26	91.28
381.46	86.60
381.65	133.41
381.85	44.47
382.04	114.69
382.24	93.62
382.43	44.47
382.63	98.30
382.83	142.77
383.02	98.30
383.22	91.28
383.41	107.66
383.61	63.19
383.80	70.22
384.00	107.66
384.19	107.66
384.39	154.48
384.58	145.11
384.78	81.92
384.97	149.79
385.17	95.96
385.36	81.92
385.56	131.07
385.75	63.19
385.95	142.77
386.14	58.51
386.34	102.98
386.53	149.79
386.72	74.90
386.92	98.30
387.11	117.03
387.31	84.26
387.50	84.26
387.70	51.49
387.89	23.41
388.09	142.77
388.28	79.58
388.48	0.00
388.67	72.56
388.86	58.51
389.06	95.96
389.25	84.26
389.45	72.56
389.64	0.00
389.84	117.03
390.03	135.75
390.22	112.35
390.42	67.88
390.61	117.03
390.81	65.54
391.00	65.54
391.19	84.26
391.39	28.09
391.58	67.88
391.78	4.68
391.97	79.58
392.16	25.75
392.36	79.58
392.55	126.39
392.75	159.16
392.94	154.48
393.13	124.05
393.33	81.92
393.52	126.39
393.71	98.30
393.91	56.17
394.10	138.09
394.29	91.28
394.49	84.26
394.68	145.11
394.88	124.05
395.07	25.75
395.26	70.22
395.46	70.22
395.65	166.18
395.84	98.30
396.04	135.75
396.23	30.43
396.42	58.51
396.62	154.48
396.81	110.01
397.00	100.64
397.19	93.62
397.39	107.66
397.58	67.88
397.77	91.28
397.97	163.84
398.16	112.35
398.35	154.48
398.55	84.26
398.74	49.15
398.93	145.11
399.12	88.94
399.32	86.60
399.51	30.43
399.70	81.92
399.90	119.37
400.09	102.98
400.28	105.32
400.47	81.92
400.67	84.26
400.86	51.49
401.05	124.05
401.24	93.62
401.44	128.73
401.63	67.88
401.82	65.54
402.01	42.13
402.21	86.60
402.40	9.36
402.59	133.41
402.78	102.98
402.97	117.03
403.17	86.60
403.36	88.94
403.55	105.32
403.74	147.45
403.93	128.73
404.13	166.18
404.32	152.13
404.51	74.90
404.70	175.54
404.89	128.73
405.09	142.77
405.28	91.28
405.47	84.26
405.66	149.79
405.85	81.92
406.05	84.26
406.24	16.38
406.43	84.26
406.62	117.03
406.81	93.62
407.00	79.58
407.20	142.77
407.39	58.51
407.58	124.05
407.77	58.51
407.96	159.16
408.15	95.96
408.34	163.84
408.54	67.88
408.73	86.60
408.92	56.17
409.11	114.69
409.30	177.88
409.49	119.37
409.68	117.03
409.87	121.71
410.07	81.92
410.26	159.16
410.45	166.18
410.64	98.30
410.83	128.73
411.02	138.09
411.21	126.39
411.40	173.20
411.59	88.94
411.78	95.96
411.98	84.26
412.17	126.39
412.36	128.73
412.55	77.24
412.74	135.75
412.93	105.32
413.12	135.75
413.31	168.52
413.50	191.92
413.69	114.69
413.88	58.51
414.07	67.88
414.26	98.30
414.45	138.09
414.64	124.05
414.83	49.15
415.02	86.60
415.22	86.60
415.41	168.52
415.60	88.94
415.79	131.07
415.98	175.54
416.17	28.09
416.36	152.13
416.55	121.71
416.74	112.35
416.93	53.83
417.12	142.77
417.31	187.24
417.50	175.54
417.69	168.52
417.88	189.58
418.07	119.37
418.26	147.45
418.45	93.62
418.64	245.76
418.83	205.97
419.02	220.01
419.21	128.73
419.39	119.37
419.58	196.60
419.77	156.82
419.96	180.22
420.15	191.92
420.34	173.20
420.53	152.13
420.72	248.10
420.91	107.66
421.10	119.37
421.29	142.77
421.48	128.73
421.67	91.28
421.86	105.32
422.05	93.62
422.24	154.48
422.43	105.32
422.61	105.32
422.80	93.62
422.99	81.92
423.18	114.69
423.37	112.35
423.56	117.03
423.75	184.90
423.94	112.35
424.13	88.94
424.32	53.83
424.50	110.01
424.69	159.16
424.88	191.92
425.07	124.05
425.26	72.56
425.45	201.29
425.64	255.12
425.83	227.03
426.01	243.42
426.20	159.16
426.39	184.90
426.58	77.24
426.77	168.52
426.96	131.07
427.15	168.52
427.33	145.11
427.52	166.18
427.71	100.64
427.90	135.75
428.09	138.09
428.28	91.28
428.46	124.05
428.65	65.54
428.84	25.75
429.03	121.71
429.22	70.22
429.40	145.11
429.59	65.54
429.78	145.11
429.97	70.22
430.16	81.92
430.34	168.52
430.53	117.03
430.72	133.41
430.91	114.69
431.10	135.75
431.28	128.73
431.47	93.62
431.66	91.28
431.85	112.35
432.03	121.71
432.22	187.24
432.41	173.20
432.60	229.37
432.79	102.98
432.97	175.54
433.16	245.76
433.35	259.80
433.54	149.79
433.72	100.64
433.91	154.48
434.10	135.75
434.28	198.95
434.47	173.20
434.66	173.20
434.85	79.58
435.03	149.79
435.22	184.90
435.41	163.84
435.59	138.09
435.78	121.71
435.97	95.96
436.16	51.49
436.34	98.30
436.53	175.54
436.72	100.64
436.90	124.05
437.09	88.94
437.28	44.47
437.46	135.75
437.65	266.82
437.84	168.52
438.02	81.92
438.21	175.54
438.40	163.84
438.58	105.32
438.77	86.60
438.96	81.92
439.14	175.54
439.33	142.77
439.52	149.79
439.70	70.22
439.89	175.54
440.08	133.41
440.26	131.07
440.45	70.22
440.63	133.41
440.82	121.71
441.01	121.71
441.19	156.82
441.38	126.39
441.57	95.96
441.75	95.96
441.94	152.13
442.12	154.48
442.31	135.75
442.50	189.58
442.68	149.79
442.87	102.98
443.05	170.86
443.24	163.84
443.43	182.56
443.61	189.58
443.80	149.79
443.98	149.79
444.17	117.03
444.35	152.13
444.54	49.15
444.73	56.17
444.91	196.60
445.10	168.52
445.28	135.75
445.47	95.96
445.65	154.48
445.84	98.30
446.02	140.43
446.21	133.41
446.39	128.73
446.58	114.69
446.77	184.90
446.95	95.96
447.14	135.75
447.32	271.50
447.51	147.45
447.69	84.26
447.88	79.58
448.06	196.60
448.25	117.03
448.43	102.98
448.62	121.71
448.80	170.86
448.99	107.66
449.17	107.66
449.36	112.35
449.54	201.29
449.73	147.45
449.91	177.88
450.10	67.88
450.28	159.16
450.46	196.60
450.65	135.75
450.83	170.86
451.02	133.41
451.20	257.46
451.39	140.43
451.57	79.58
451.76	95.96
451.94	131.07
452.13	135.75
452.31	145.11
452.49	93.62
452.68	161.50
452.86	110.01
453.05	229.37
453.23	156.82
453.42	74.90
453.60	114.69
453.78	138.09
453.97	67.88
454.15	159.16
454.34	16.38
454.52	119.37
454.70	159.16
454.89	124.05
455.07	152.13
455.26	126.39
455.44	121.71
455.62	163.84
455.81	145.11
455.99	152.13
456.17	156.82
456.36	187.24
456.54	110.01
456.73	121.71
456.91	154.48
457.09	138.09
457.28	135.75
457.46	121.71
457.64	205.97
457.83	105.32
458.01	180.22
458.19	191.92
458.38	156.82
458.56	173.20
458.74	133.41
458.93	156.82
459.11	149.79
459.29	81.92
459.48	222.35
459.66	182.56
459.84	128.73
460.03	191.92
460.21	102.98
460.39	194.26
460.57	196.60
460.76	177.88
460.94	131.07
461.12	201.29
461.31	102.98
461.49	154.48
461.67	63.19
461.85	93.62
462.04	149.79
462.22	578.11
462.40	175.54
462.59	205.97
462.77	98.30
462.95	159.16
463.13	140.43
463.32	131.07
463.50	121.71
463.68	88.94
463.86	110.01
464.05	194.26
464.23	196.60
464.41	177.88
464.59	131.07
464.78	220.01
464.96	100.64
465.14	142.77
465.32	184.90
465.50	140.43
465.69	168.52
465.87	93.62
466.05	79.58
466.23	70.22
466.41	95.96
466.60	147.45
466.78	112.35
466.96	149.79
467.14	180.22
467.32	168.52
467.51	191.92
467.69	77.24
467.87	152.13
468.05	86.60
468.23	187.24
468.41	126.39
468.60	124.05
468.78	152.13
468.96	205.97
469.14	142.77
469.32	51.49
469.50	147.45
469.69	156.82
469.87	105.32
470.05	135.75
470.23	180.22
470.41	182.56
470.59	159.16
470.77	220.01
470.95	159.16
471.14	166.18
471.32	138.09
471.50	194.26
471.68	154.48
471.86	152.13
472.04	189.58
472.22	98.30
472.40	84.26
472.58	124.05
472.77	117.03
472.95	51.49
473.13	201.29
473.31	182.56
473.49	145.11
473.67	126.39
473.85	114.69
474.03	175.54
474.21	180.22
474.39	166.18
474.57	227.03
474.75	187.24
474.93	128.73
475.12	131.07
475.30	95.96
475.48	126.39
475.66	112.35
475.84	152.13
476.02	154.48
476.20	138.09
476.38	177.88
476.56	217.67
476.74	131.07
476.92	168.52
477.10	128.73
477.28	133.41
477.46	166.18
477.64	184.90
477.82	147.45
478.00	140.43
478.18	152.13
478.36	77.24
478.54	121.71
478.72	168.52
478.90	241.08
479.08	145.11
479.26	145.11
479.44	112.35
479.62	114.69
479.80	77.24
479.98	102.98
480.16	140.43
480.34	198.95
480.52	77.24
480.70	208.31
480.88	138.09
481.06	131.07
481.24	217.67
481.41	145.11
481.59	180.22
481.77	126.39
481.95	135.75
482.13	212.99
482.31	170.86
482.49	67.88
482.67	135.75
482.85	224.69
483.03	168.52
483.21	184.90
483.39	196.60
483.57	198.95
483.74	159.16
483.92	173.20
484.10	124.05
484.28	182.56
484.46	212.99
484.64	77.24
484.82	133.41
485.00	98.30
485.18	91.28
485.35	175.54
485.53	220.01
485.71	196.60
485.89	114.69
486.07	133.41
486.25	189.58
486.43	135.75
486.61	135.75
486.78	217.67
486.96	133.41
487.14	102.98
487.32	81.92
487.50	63.19
487.68	184.90
487.85	175.54
488.03	215.33
488.21	215.33
488.39	161.50
488.57	182.56
488.75	161.50
488.92	414.27
489.10	182.56
489.28	208.31
489.46	180.22
489.64	168.52
489.81	135.75
489.99	215.33
490.17	255.12
490.35	252.78
490.53	163.84
490.70	156.82
490.88	224.69
491.06	128.73
491.24	231.71
491.41	175.54
491.59	175.54
491.77	163.84
491.95	194.26
492.13	198.95
492.30	217.67
492.48	173.20
492.66	187.24
492.84	166.18
493.01	196.60
493.19	105.32
493.37	177.88
493.54	182.56
493.72	224.69
493.90	184.90
494.08	133.41
494.25	170.86
494.43	194.26
494.61	229.37
494.79	163.84
494.96	191.92
495.14	198.95
495.32	196.60
495.49	177.88
495.67	135.75
495.85	220.01
496.02	250.44
496.20	173.20
496.38	173.20
496.55	189.58
496.73	173.20
496.91	182.56
497.09	203.63
497.26	182.56
497.44	271.50
497.62	168.52
497.79	201.29
497.97	149.79
498.14	145.11
498.32	187.24
498.50	187.24
498.67	147.45
498.85	117.03
499.03	161.50
499.20	238.73
499.38	184.90
499.56	161.50
499.73	220.01
499.91	222.35
500.08	252.78
500.26	208.31
500.44	215.33
500.61	140.43
500.79	112.35
500.97	234.05
501.14	238.73
501.32	210.65
501.49	212.99
501.67	224.69
501.84	205.97
502.02	173.20
502.20	243.42
502.37	220.01
502.55	65.54
502.72	224.69
502.90	208.31
503.07	180.22
503.25	145.11
503.43	229.37
503.60	257.46
503.78	220.01
503.95	208.31
504.13	229.37
504.30	280.86
504.48	138.09
504.65	196.60
504.83	133.41
505.01	236.39
505.18	194.26
505.36	182.56
505.53	203.63
505.71	194.26
505.88	170.86
506.06	184.90
506.23	154.48
506.41	255.12
506.58	156.82
506.76	205.97
506.93	177.88
507.11	252.78
507.28	238.73
507.46	210.65
507.63	250.44
507.81	173.20
507.98	201.29
508.16	175.54
508.33	142.77
508.50	198.95
508.68	220.01
508.85	161.50
509.03	194.26
509.20	220.01
509.38	278.52
509.55	222.35
509.73	154.48
509.90	159.16
510.08	194.26
510.25	196.60
510.42	184.90
510.60	124.05
510.77	241.08
510.95	271.50
511.12	266.82
511.30	241.08
511.47	248.10
511.64	224.69
511.82	217.67
511.99	262.14
512.17	198.95
512.34	180.22
512.51	203.63
512.69	177.88
512.86	250.44
513.04	201.29
513.21	156.82
513.38	177.88
513.56	184.90
513.73	131.07
513.90	201.29
514.08	201.29
514.25	224.69
514.43	189.58
514.60	191.92
514.77	278.52
514.95	241.08
515.12	220.01
515.29	191.92
515.47	191.92
515.64	222.35
515.81	152.13
515.99	238.73
516.16	173.20
516.33	205.97
516.51	102.98
516.68	100.64
516.85	140.43
517.03	142.77
517.20	220.01
517.37	154.48
517.54	187.24
517.72	163.84
517.89	65.54
518.06	135.75
518.24	273.84
518.41	215.33
518.58	238.73
518.75	217.67
518.93	212.99
519.10	114.69
519.27	180.22
519.45	189.58
519.62	257.46
519.79	224.69
519.96	212.99
520.14	297.25
520.31	243.42
520.48	217.67
520.65	198.95
520.83	241.08
521.00	170.86
521.17	191.92
521.34	217.67
521.52	234.05
521.69	180.22
521.86	170.86
522.03	210.65
522.20	215.33
522.38	212.99
522.55	196.60
522.72	255.12
522.89	238.73
523.07	166.18
523.24	159.16
523.41	304.27
523.58	177.88
523.75	196.60
523.92	149.79
524.10	156.82
524.27	191.92
524.44	201.29
524.61	191.92
524.78	177.88
524.96	163.84
525.13	163.84
525.30	259.80
525.47	224.69
525.64	163.84
525.81	198.95
525.98	180.22
526.16	198.95
526.33	147.45
526.50	201.29
526.67	201.29
526.84	154.48
527.01	229.37
527.18	196.60
527.36	203.63
527.53	135.75
527.70	201.29
527.87	194.26
528.04	212.99
528.21	152.13
528.38	262.14
528.55	217.67
528.72	191.92
528.89	294.91
529.07	208.31
529.24	163.84
529.41	224.69
529.58	166.18
529.75	149.79
529.92	241.08
530.09	238.73
530.26	264.48
530.43	243.42
530.60	245.76
530.77	161.50
530.94	271.50
531.11	170.86
531.28	201.29
531.46	243.42
531.63	184.90
531.80	177.88
531.97	248.10
532.14	170.86
532.31	191.92
532.48	243.42
532.65	351.08
532.82	362.78
532.99	444.70
533.16	278.52
533.33	280.86
533.50	297.25
533.67	269.16
533.84	381.51
534.01	395.55
534.18	348.74
534.35	330.02
534.52	241.08
534.69	299.59
534.86	163.84
535.03	243.42
535.20	236.39
535.37	229.37
535.54	196.60
535.71	273.84
535.88	248.10
536.05	215.33
536.22	238.73
536.38	248.10
536.55	229.37
536.72	184.90
536.89	231.71
537.06	229.37
537.23	175.54
537.40	191.92
537.57	187.24
537.74	170.86
537.91	241.08
538.08	177.88
538.25	194.26
538.42	212.99
538.59	215.33
538.75	208.31
538.92	231.71
539.09	180.22
539.26	238.73
539.43	390.87
539.60	1088.35
539.77	1797.53
539.94	1750.72
540.11	1158.57
540.28	760.67
540.44	545.34
540.61	290.23
540.78	257.46
540.95	234.05
541.12	292.57
541.29	229.37
541.46	189.58
541.62	259.80
541.79	250.44
541.96	168.52
542.13	215.33
542.30	205.97
542.47	266.82
542.63	154.48
542.80	175.54
542.97	271.50
543.14	224.69
543.31	234.05
543.48	262.14
543.64	236.39
543.81	262.14
543.98	285.55
544.15	138.09
544.32	128.73
544.48	177.88
544.65	304.27
544.82	220.01
544.99	234.05
545.16	187.24
545.32	234.05
545.49	201.29
545.66	191.92
545.83	236.39
546.00	252.78
546.16	140.43
546.33	191.92
546.50	210.65
546.67	208.31
546.83	271.50
547.00	220.01
547.17	163.84
547.34	203.63
547.50	229.37
547.67	205.97
547.84	194.26
548.00	241.08
548.17	159.16
548.34	180.22
548.51	208.31
548.67	187.24
548.84	212.99
549.01	222.35
549.18	266.82
549.34	201.29
549.51	241.08
549.68	278.52
549.84	224.69
550.01	159.16
550.18	322.99
550.34	208.31
550.51	269.16
550.68	212.99
550.84	182.56
551.01	166.18
551.18	250.44
551.34	238.73
551.51	166.18
551.68	250.44
551.84	191.92
552.01	245.76
552.18	196.60
552.34	212.99
552.51	250.44
552.68	222.35
552.84	271.50
553.01	142.77
553.18	290.23
553.34	217.67
553.51	187.24
553.67	227.03
553.84	332.36
554.01	196.60
554.17	208.31
554.34	255.12
554.51	304.27
554.67	264.48
554.84	175.54
555.00	191.92
555.17	245.76
555.33	149.79
555.50	227.03
555.67	210.65
555.83	283.20
556.00	273.84
556.16	414.27
556.33	196.60
556.50	182.56
556.66	212.99
556.83	205.97
556.99	170.86
557.16	182.56
557.32	166.18
557.49	198.95
557.65	276.18
557.82	196.60
557.98	168.52
558.15	131.07
558.32	133.41
558.48	187.24
558.65	238.73
558.81	283.20
558.98	201.29
559.14	205.97
559.31	212.99
559.47	194.26
559.64	170.86
559.80	203.63
559.97	257.46
560.13	224.69
560.30	156.82
560.46	100.64
560.63	212.99
560.79	168.52
560.96	266.82
561.12	156.82
561.29	208.31
561.45	259.80
561.61	266.82
561.78	285.55
561.94	147.45
562.11	110.01
562.27	203.63
562.44	152.13
562.60	117.03
562.77	196.60
562.93	262.14
563.10	170.86
563.26	166.18
563.42	262.14
563.59	201.29
563.75	205.97
563.92	222.35
564.08	266.82
564.24	238.73
564.41	259.80
564.57	189.58
564.74	173.20
564.90	245.76
565.07	194.26
565.23	224.69
565.39	194.26
565.56	182.56
565.72	266.82
565.88	248.10
566.05	224.69
566.21	243.42
566.38	215.33
566.54	245.76
566.70	175.54
566.87	177.88
567.03	142.77
567.19	173.20
567.36	227.03
567.52	191.92
567.68	191.92
567.85	196.60
568.01	156.82
568.17	175.54
568.34	182.56
568.50	222.35
568.66	224.69
568.83	257.46
568.99	203.63
569.15	259.80
569.32	149.79
569.48	180.22
569.64	191.92
569.81	117.03
569.97	175.54
570.13	222.35
570.30	152.13
570.46	234.05
570.62	259.80
570.78	170.86
570.95	189.58
571.11	173.20
571.27	201.29
571.43	159.16
571.60	271.50
571.76	210.65
571.92	245.76
572.09	156.82
572.25	173.20
572.41	198.95
572.57	184.90
572.74	191.92
572.90	203.63
573.06	189.58
573.22	194.26
573.38	215.33
573.55	196.60
573.71	215.33
573.87	156.82
574.03	159.16
574.20	271.50
574.36	248.10
574.52	346.40
574.68	353.42
574.84	250.44
575.01	236.39
575.17	257.46
575.33	243.42
575.49	215.33
575.65	297.25
575.82	229.37
575.98	517.26
576.14	725.57
576.30	716.20
576.46	655.35
576.62	500.87
576.79	414.27
576.95	395.55
577.11	217.67
577.27	182.56
577.43	271.50
577.59	313.63
577.75	210.65
577.92	231.71
578.08	269.16
578.24	264.48
578.40	271.50
578.56	351.08
578.72	351.08
578.88	358.10
579.04	322.99
579.21	311.29
579.37	212.99
579.53	191.92
579.69	400.23
579.85	255.12
580.01	362.78
580.17	311.29
580.33	353.42
580.49	351.08
580.65	362.78
580.82	292.57
580.98	355.76
581.14	393.21
581.30	395.55
581.46	383.85
581.62	592.16
581.78	692.80
581.94	645.99
582.10	507.90
582.26	535.98
582.42	409.59
582.58	428.32
582.74	393.21
582.90	414.27
583.06	397.89
583.22	475.13
583.38	505.56
583.54	496.19
583.70	692.80
583.86	744.29
584.02	882.38
584.18	971.32
584.34	1423.05
584.50	3466.33
584.66	26108.68
584.82	59559.61
584.98	65535.00
585.14	65535.00
585.30	60341.35
585.46	35847.64
585.62	22015.08
585.78	9867.70
585.94	3843.16
586.10	1790.51
586.26	1090.69
586.42	931.53
586.58	779.40
586.74	620.24
586.90	589.82
587.06	699.82
587.22	566.41
587.38	573.43
587.54	1214.74
587.70	3868.91
587.86	6902.24
588.02	8231.66
588.18	5703.89
588.34	3536.55
588.49	2263.30
588.65	1334.11
588.81	678.76
588.97	383.85
589.13	341.72
589.29	325.33
589.45	379.17
589.61	322.99
589.77	372.15
589.93	456.40
590.08	486.83
590.24	482.15
590.40	468.11
590.56	337.04
590.72	383.85
590.88	362.78
591.04	388.53
591.20	320.65
591.35	297.25
591.51	294.91
591.67	341.72
591.83	320.65
591.99	313.63
592.15	273.84
592.31	280.86
592.46	355.76
592.62	255.12
592.78	283.20
592.94	294.91
593.10	231.71
593.26	273.84
593.41	346.40
593.57	372.15
593.73	580.45
593.89	3061.42
594.05	8262.09
594.20	13369.14
594.36	13298.92
594.52	8461.04
594.68	5221.74
594.84	3339.94
594.99	1820.94
595.15	828.55
595.31	444.70
595.47	355.76
595.62	301.93
595.78	311.29
595.94	318.31
596.10	355.76
596.25	313.63
596.41	411.93
596.57	278.52
596.73	257.46
596.88	505.56
597.04	1621.99
597.20	2726.72
597.36	3314.20
597.51	2497.35
597.67	1659.44
597.83	1142.18
597.99	779.40
598.14	409.59
598.30	390.87
598.46	308.95
598.61	346.40
598.77	337.04
598.93	322.99
599.09	283.20
599.24	234.05
599.40	273.84
599.56	227.03
599.71	257.46
599.87	248.10
600.03	187.24
600.18	217.67
600.34	229.37
600.50	142.77
600.65	180.22
600.81	294.91
600.97	189.58
601.12	189.58
601.28	205.97
601.44	161.50
601.59	241.08
601.75	283.20
601.91	238.73
602.06	248.10
602.22	388.53
602.37	734.93
602.53	1928.60
602.69	3208.87
602.84	3552.93
603.00	2476.29
603.16	1703.91
603.31	1174.95
603.47	779.40
603.62	456.40
603.78	276.18
603.94	257.46
604.09	222.35
604.25	278.52
604.40	278.52
604.56	248.10
604.71	269.16
604.87	191.92
605.03	184.90
605.18	353.42
605.34	259.80
605.49	210.65
605.65	299.59
605.80	248.10
605.96	304.27
606.12	266.82
606.27	409.59
606.43	341.72
606.58	327.68
606.74	896.43
606.89	3735.50
607.05	8154.43
607.20	11578.63
607.36	9465.13
607.51	6431.79
607.67	3971.89
607.82	2736.09
607.98	1432.41
608.13	741.95
608.29	437.68
608.44	437.68
608.60	456.40
608.75	468.11
608.91	1287.29
609.06	5804.53
609.22	13671.07
609.37	20093.50
609.53	17572.74
609.68	11651.19
609.84	7232.26
609.99	4887.04
610.15	2572.25
610.30	1144.52
610.46	720.88
610.61	519.60
610.76	440.02
610.92	416.62
611.07	304.27
611.23	362.78
611.38	337.04
611.54	266.82
611.69	278.52
611.84	304.27
612.00	266.82
612.15	397.89
612.31	465.77
612.46	606.20
612.62	882.38
612.77	800.46
612.92	674.07
613.08	594.50
613.23	489.17
613.39	601.52
613.54	905.79
613.69	5425.36
613.85	17048.46
614.00	29266.06
614.15	33113.90
614.31	22789.80
614.46	14272.59
614.62	9497.89
614.77	5694.52
614.92	2413.09
615.08	1259.21
615.23	713.86
615.38	531.30
615.54	458.74
615.69	980.68
615.84	3234.62
616.00	6111.14
616.15	8196.56
616.30	6768.83
616.46	4559.36
616.61	2759.49
616.76	1912.22
616.92	1074.31
617.07	617.90
617.22	411.93
617.37	330.02
617.53	292.57
617.68	250.44
617.83	311.29
617.99	365.12
618.14	358.10
618.29	344.06
618.45	224.69
618.60	280.86
618.75	250.44
618.90	278.52
619.06	273.84
619.21	301.93
619.36	208.31
619.51	203.63
619.67	166.18
619.82	259.80
619.97	259.80
620.12	283.20
620.28	297.25
620.43	252.78
620.58	245.76
620.73	259.80
620.89	297.25
621.04	533.64
621.19	1715.61
621.34	3349.31
621.49	4844.91
621.65	4500.85
621.80	3035.67
621.95	2026.90
622.10	1465.18
622.25	786.42
622.41	425.98
622.56	332.36
622.71	259.80
622.86	299.59
623.01	194.26
623.16	234.05
623.32	236.39
623.47	234.05
623.62	266.82
623.77	259.80
623.92	182.56
624.07	208.31
624.23	243.42
624.38	278.52
624.53	243.42
624.68	280.86
624.83	264.48
624.98	315.97
625.13	156.82
625.29	222.35
625.44	351.08
625.59	318.31
625.74	400.23
625.89	582.79
626.04	2712.68
626.19	8023.36
626.34	14111.09
626.49	16786.32
626.65	12219.94
626.80	8196.56
626.95	5369.19
627.10	3220.58
627.25	1603.27
627.40	730.25
627.55	528.96
627.70	355.76
627.85	283.20
628.00	257.46
628.15	210.65
628.30	198.95
628.45	201.29
628.60	170.86
628.76	205.97
628.91	266.82
629.06	187.24
629.21	189.58
629.36	266.82
629.51	285.55
629.66	252.78
629.81	397.89
629.96	1465.18
630.11	2916.31
630.26	4198.92
630.41	3726.13
630.56	2551.18
630.71	1757.74
630.86	1291.98
631.01	784.08
631.16	477.47
631.31	325.33
631.46	325.33
631.61	262.14
631.76	236.39
631.91	205.97
632.06	212.99
632.21	259.80
632.36	283.20
632.51	341.72
632.66	437.68
632.81	1350.49
632.96	4587.45
633.10	8706.79
633.25	11557.57
633.40	9441.72
633.55	6483.28
633.70	4114.66
633.85	2710.34
634.00	1371.55
634.15	732.59
634.30	393.21
634.45	308.95
634.60	271.50
634.75	201.29
634.90	257.46
635.05	264.48
635.19	215.33
635.34	266.82
635.49	234.05
635.64	236.39
635.79	283.20
635.94	262.14
636.09	224.69
636.24	250.44
636.39	278.52
636.53	262.14
636.68	266.82
636.83	269.16
636.98	304.27
637.13	297.25
637.28	423.64
637.43	517.26
637.57	746.63
637.72	3637.19
637.87	10874.13
638.02	18579.17
638.17	21759.96
638.32	15653.50
638.46	10345.17
638.61	6874.15
638.76	4248.07
638.91	2127.55
639.06	1001.75
639.20	795.78
639.35	650.67
639.50	1064.94
639.65	5423.02
639.80	16812.07
639.94	28929.02
640.09	33703.71
640.24	24943.09
640.39	16400.13
640.54	10815.62
640.68	6296.04
640.83	3105.89
640.98	1362.19
641.13	718.54
641.27	566.41
641.42	458.74
641.57	407.25
641.72	339.38
641.86	315.97
642.01	224.69
642.16	301.93
642.31	262.14
642.45	304.27
642.60	229.37
642.75	208.31
642.90	208.31
643.04	238.73
643.19	205.97
643.34	238.73
643.48	182.56
643.63	217.67
643.78	301.93
643.93	278.52
644.07	238.73
644.22	304.27
644.37	241.08
644.51	259.80
644.66	189.58
644.81	203.63
644.95	184.90
645.10	175.54
645.25	166.18
645.39	269.16
645.54	173.20
645.69	285.55
645.83	93.62
645.98	283.20
646.13	140.43
646.27	191.92
646.42	187.24
646.57	194.26
646.71	196.60
646.86	222.35
647.00	210.65
647.15	173.20
647.30	184.90
647.44	168.52
647.59	81.92
647.74	180.22
647.88	138.09
648.03	156.82
648.17	154.48
648.32	191.92
648.47	236.39
648.61	182.56
648.76	243.42
648.90	241.08
649.05	248.10
649.20	231.71
649.34	266.82
649.49	255.12
649.63	252.78
649.78	280.86
649.92	425.98
650.07	2146.27
650.21	6963.09
650.36	13200.62
650.51	17137.40
650.65	14288.97
650.80	9736.63
650.94	6366.26
651.09	3920.40
651.23	1982.43
651.38	945.58
651.52	505.56
651.67	332.36
651.81	269.16
651.96	266.82
652.10	205.97
652.25	180.22
652.39	259.80
652.54	283.20
652.68	613.22
652.83	2115.84
652.97	4339.35
653.12	6017.52
653.26	5322.38
653.41	3761.24
653.55	2499.69
653.70	1675.82
653.84	952.60
653.99	379.17
654.13	341.72
654.27	196.60
654.42	191.92
654.56	117.03
654.71	191.92
654.85	212.99
655.00	220.01
655.14	184.90
655.29	173.20
655.43	180.22
655.57	203.63
655.72	163.84
655.86	187.24
656.01	194.26
656.15	184.90
656.30	259.80
656.44	145.11
656.58	147.45
656.73	131.07
656.87	133.41
657.01	175.54
657.16	194.26
657.30	257.46
657.45	180.22
657.59	154.48
657.73	227.03
657.88	189.58
658.02	266.82
658.16	149.79
658.31	187.24
658.45	168.52
658.60	198.95
658.74	166.18
658.88	149.79
659.03	318.31
659.17	320.65
659.31	959.62
659.46	3098.87
659.60	6047.94
659.74	8273.79
659.89	7396.09
660.03	5247.48
660.17	3529.53
660.32	2150.95
660.46	1235.80
660.60	636.63
660.74	514.92
660.89	252.78
661.03	269.16
661.17	187.24
661.32	152.13
661.46	163.84
661.60	121.71
661.74	177.88
661.89	154.48
662.03	168.52
662.17	168.52
662.31	168.52
662.46	152.13
662.60	210.65
662.74	198.95
662.88	163.84
663.03	142.77
663.17	191.92
663.31	201.29
663.45	149.79
663.60	117.03
663.74	124.05
663.88	191.92
664.02	147.45
664.17	117.03
664.31	88.94
664.45	175.54
664.59	105.32
664.73	191.92
664.88	196.60
665.02	175.54
665.16	152.13
665.30	189.58
665.44	203.63
665.59	203.63
665.73	231.71
665.87	163.84
666.01	191.92
666.15	196.60
666.29	182.56
666.44	313.63
666.58	236.39
666.72	271.50
666.86	285.55
667.00	322.99
667.14	470.45
667.28	1879.45
667.43	6195.40
667.57	10986.47
667.71	14794.53
667.85	12589.74
667.99	9029.79
668.13	5661.76
668.27	3272.07
668.41	1933.28
668.56	1053.24
668.70	606.20
668.84	388.53
668.98	297.25
669.12	283.20
669.26	287.89
669.40	259.80
669.54	266.82
669.68	255.12
669.82	191.92
669.96	166.18
670.10	175.54
670.25	196.60
670.39	163.84
670.53	217.67
670.67	184.90
670.81	173.20
670.95	245.76
671.09	528.96
671.23	2209.47
671.37	5263.86
671.51	8037.40
671.65	9130.43
671.79	7117.57
671.93	4905.76
672.07	2998.23
672.21	1621.99
672.35	957.28
672.49	643.65
672.63	421.30
672.77	344.06
672.91	257.46
673.05	203.63
673.19	205.97
673.33	140.43
673.47	220.01
673.61	173.20
673.75	149.79
673.89	154.48
674.03	189.58
674.17	102.98
674.31	187.24
674.45	194.26
674.59	280.86
674.73	168.52
674.87	269.16
675.01	248.10
675.15	198.95
675.29	229.37
675.43	236.39
675.56	257.46
675.70	173.20
675.84	182.56
675.98	159.16
676.12	156.82
676.26	131.07
676.40	180.22
676.54	194.26
676.68	126.39
676.82	161.50
676.96	121.71
677.10	145.11
677.23	147.45
677.37	135.75
677.51	140.43
677.65	159.16
677.79	135.75
677.93	14.04
678.07	168.52
678.21	74.90
678.34	135.75
678.48	126.39
678.62	60.85
678.76	131.07
678.90	112.35
679.04	170.86
679.18	63.19
679.31	98.30
679.45	86.60
679.59	177.88
679.73	63.19
679.87	74.90
680.00	102.98
680.14	166.18
680.28	95.96
680.42	121.71
680.56	102.98
680.70	98.30
680.83	140.43
680.97	133.41
681.11	126.39
681.25	149.79
681.39	105.32
681.52	245.76
681.66	168.52
681.80	187.24
681.94	93.62
682.07	194.26
682.21	161.50
682.35	159.16
682.49	117.03
682.62	182.56
682.76	135.75
682.90	95.96
683.04	105.32
683.17	210.65
683.31	198.95
683.45	196.60
683.59	173.20
683.72	159.16
683.86	156.82
684.00	98.30
684.13	105.32
684.27	98.30
684.41	140.43
684.55	205.97
684.68	95.96
684.82	107.66
684.96	145.11
685.09	126.39
685.23	117.03
685.37	86.60
685.50	184.90
685.64	126.39
685.78	114.69
685.91	180.22
686.05	180.22
686.19	212.99
686.32	121.71
686.46	102.98
686.60	39.79
686.73	208.31
686.87	138.09
687.01	184.90
687.14	187.24
687.28	112.35
687.42	119.37
687.55	161.50
687.69	227.03
687.82	135.75
687.96	128.73
688.10	119.37
688.23	110.01
688.37	220.01
688.50	170.86
688.64	93.62
688.78	119.37
688.91	67.88
689.05	147.45
689.18	86.60
689.32	163.84
689.46	133.41
689.59	161.50
689.73	112.35
689.86	81.92
690.00	184.90
690.13	156.82
690.27	110.01
690.41	84.26
690.54	95.96
690.68	217.67
690.81	175.54
690.95	138.09
691.08	177.88
691.22	145.11
691.35	187.24
691.49	114.69
691.62	159.16
691.76	156.82
691.89	198.95
692.03	184.90
692.16	191.92
692.30	229.37
692.43	763.01
692.57	2368.62
692.70	4774.69
692.84	6431.79
692.97	5954.32
693.11	4411.91
693.24	3183.13
693.38	2141.59
693.51	1453.47
693.65	863.66
693.78	589.82
693.92	315.97
694.05	283.20
694.19	215.33
694.32	227.03
694.45	91.28
694.59	187.24
694.72	135.75
694.86	156.82
694.99	140.43
695.13	121.71
695.26	159.16
695.39	177.88
695.53	224.69
695.66	138.09
695.80	166.18
695.93	107.66
696.07	194.26
696.20	238.73
696.33	409.59
696.47	514.92
696.60	414.27
696.73	379.17
696.87	276.18
697.00	315.97
697.14	149.79
697.27	189.58
697.40	177.88
697.54	145.11
697.67	124.05
697.80	117.03
697.94	88.94
698.07	142.77
698.21	93.62
698.34	93.62
698.47	128.73
698.61	98.30
698.74	161.50
698.87	168.52
699.01	121.71
699.14	131.07
699.27	184.90
699.40	243.42
699.54	102.98
699.67	60.85
699.80	107.66
699.94	152.13
700.07	124.05
700.20	147.45
700.34	119.37
700.47	156.82
700.60	159.16
700.73	161.50
700.87	140.43
701.00	212.99
701.13	98.30
701.26	170.86
701.40	102.98
701.53	124.05
701.66	110.01
701.79	159.16
701.93	196.60
702.06	313.63
702.19	390.87
702.32	486.83
702.46	514.92
702.59	430.66
702.72	952.60
702.85	3080.14
702.99	7250.98
703.12	10960.73
703.25	12629.53
703.38	10693.91
703.51	8739.56
703.65	6665.85
703.78	4657.67
703.91	2935.03
704.04	1844.34
704.17	1139.84
704.31	552.37
704.44	526.62
704.57	292.57
704.70	212.99
704.83	201.29
704.96	119.37
705.10	210.65
705.23	149.79
>>>>>End Processed Spectral Data<<<<<
