SpectraSuite Data File
++++++++++++++++++++++++++++++++++++
Date: Fri Oct 04 11:48:39 GMT-05:00 2013
User: price-jones
Dark Spectrum Present: No
Reference Spectrum Present: No
Number of Sampled Component Spectra: 1
Spectrometers: USB2+H05261
Integration Time (usec): 100000 (USB2+H05261)
Spectra Averaged: 1 (USB2+H05261)
Boxcar Smoothing: 0 (USB2+H05261)
Correct for Electrical Dark: No (USB2+H05261)
Strobe/Lamp Enabled: No (USB2+H05261)
Correct for Detector Non-linearity: No (USB2+H05261)
Correct for Stray Light: No (USB2+H05261)
Number of Pixels in Processed Spectrum: 2048
>>>>>Begin Processed Spectral Data<<<<<
365.73	11.70
365.92	11.70
366.12	11.70
366.32	0.00
366.52	0.00
366.72	0.00
366.91	0.00
367.11	0.00
367.31	0.00
367.51	0.00
367.70	7.02
367.90	0.00
368.10	0.00
368.30	0.00
368.49	0.00
368.69	0.00
368.89	0.00
369.09	0.00
369.28	0.00
369.48	0.00
369.68	0.00
369.87	0.00
370.07	0.00
370.27	49.15
370.47	81.92
370.66	395.55
370.86	512.58
371.06	465.77
371.25	566.41
371.45	568.75
371.65	615.56
371.84	580.45
372.04	557.05
372.24	493.85
372.44	587.47
372.63	603.86
372.83	683.44
373.03	592.16
373.22	643.65
373.42	653.01
373.62	688.12
373.81	772.38
374.01	723.23
374.21	718.54
374.40	702.16
374.60	755.99
374.79	730.25
374.99	741.95
375.19	746.63
375.38	844.93
375.58	713.86
375.78	821.53
375.97	826.21
376.17	851.96
376.37	793.44
376.56	842.59
376.76	748.97
376.95	765.36
377.15	795.78
377.35	842.59
377.54	786.42
377.74	781.74
377.93	854.30
378.13	800.46
378.33	842.59
378.52	870.68
378.72	842.59
378.91	936.21
379.11	835.57
379.31	835.57
379.50	793.44
379.70	922.17
379.89	1020.47
380.09	858.98
380.28	940.90
380.48	968.98
380.68	978.34
380.87	908.13
381.07	1004.09
381.26	1008.77
381.46	966.64
381.65	1015.79
381.85	1029.84
382.04	1006.43
382.24	1114.10
382.43	1081.33
382.63	1041.54
382.83	1004.09
383.02	1111.75
383.22	1029.84
383.41	987.71
383.61	1139.84
383.80	1146.86
384.00	1097.71
384.19	1109.41
384.39	1146.86
384.58	1210.06
384.78	1104.73
384.97	1137.50
385.17	1132.82
385.36	1116.44
385.56	1050.90
385.75	1090.69
385.95	1144.52
386.14	1233.46
386.34	1102.39
386.53	1240.48
386.72	1151.54
386.92	1156.22
387.11	1238.14
387.31	1228.78
387.50	1184.31
387.70	1186.65
387.89	1184.31
388.09	1228.78
388.28	1219.42
388.48	1256.87
388.67	1221.76
388.86	1200.69
389.06	1247.51
389.25	1324.74
389.45	1322.40
389.64	1465.18
389.84	1385.60
390.03	1451.13
390.22	1481.56
390.42	1289.64
390.61	1434.75
390.81	1441.77
391.00	1359.85
391.19	1465.18
391.39	1497.94
391.58	1350.49
391.78	1448.79
391.97	1497.94
392.16	1444.11
392.36	1500.28
392.55	1554.12
392.75	1577.52
392.94	1497.94
393.13	1472.20
393.33	1593.90
393.52	1596.25
393.71	1732.00
393.91	1636.03
394.10	1636.03
394.29	1617.31
394.49	1577.52
394.68	1699.23
394.88	1717.95
395.07	1753.06
395.26	1680.50
395.46	1689.87
395.65	1741.36
395.84	1788.17
396.04	1844.34
396.23	1727.32
396.42	1842.00
396.62	1940.30
396.81	1872.43
397.00	1891.15
397.19	1834.98
397.39	1959.03
397.58	2008.18
397.77	1902.86
397.97	1912.22
398.16	1963.71
398.35	1989.46
398.55	2045.63
398.74	2139.25
398.93	2080.74
399.12	2015.20
399.32	1947.33
399.51	2139.25
399.70	2141.59
399.90	2054.99
400.09	2179.04
400.28	2232.87
400.47	2157.97
400.67	2284.36
400.86	2216.49
401.05	2289.04
401.24	2216.49
401.44	2305.43
401.63	2225.85
401.82	2169.68
402.01	2321.81
402.21	2228.19
402.40	2420.11
402.59	2335.85
402.78	2403.73
402.97	2296.07
403.17	2385.01
403.36	2462.24
403.55	2546.50
403.74	2420.11
403.93	2490.33
404.13	2523.10
404.32	2590.97
404.51	2583.95
404.70	2698.64
404.89	2621.40
405.09	2612.04
405.28	2654.17
405.47	2733.75
405.66	2644.81
405.85	2750.13
406.05	2700.98
406.24	2803.96
406.43	2902.26
406.62	2913.97
406.81	2946.73
407.00	2883.54
407.20	2930.35
407.39	2942.05
407.58	3028.65
407.77	2991.20
407.96	3082.49
408.15	3042.70
408.34	3063.76
408.54	3105.89
408.73	3033.33
408.92	3049.72
409.11	3243.98
409.30	3239.30
409.49	3218.24
409.68	3145.68
409.87	3234.62
410.07	3365.69
410.26	3290.79
410.45	3253.34
410.64	3389.10
410.83	3225.26
411.02	3234.62
411.21	3527.19
411.40	3356.33
411.59	3531.87
411.78	3599.74
411.98	3529.53
412.17	3660.60
412.36	3702.73
412.55	3644.21
412.74	3892.31
412.93	3768.26
413.12	3777.62
413.31	4074.87
413.50	3861.88
413.69	3873.59
413.88	4070.19
414.07	3976.57
414.26	4035.08
414.45	4044.45
414.64	4093.60
414.83	4177.86
415.02	4126.36
415.22	4198.92
415.41	4498.51
415.60	4442.34
415.79	4271.48
415.98	4545.32
416.17	4367.44
416.36	4358.08
416.55	4571.07
416.74	4528.94
416.93	4615.54
417.12	4585.11
417.31	4603.83
417.50	4709.16
417.69	4887.04
417.88	4798.10
418.07	4837.89
418.26	4809.80
418.45	4844.91
418.64	5022.79
418.83	4858.95
419.02	4952.57
419.21	4922.15
419.39	5177.26
419.58	4821.50
419.77	4903.42
419.96	5128.11
420.15	5252.16
420.34	5188.97
420.53	5167.90
420.72	5352.81
420.91	5102.37
421.10	5327.06
421.29	5458.13
421.48	5160.88
421.67	5418.34
421.86	5331.74
422.05	5448.77
422.24	5385.57
422.43	5432.38
422.61	5462.81
422.80	5474.51
422.99	5584.52
423.18	5572.82
423.37	5682.82
423.56	5605.58
423.75	5425.36
423.94	5509.62
424.13	5207.69
424.32	5376.21
424.50	5694.52
424.69	5591.54
424.88	5680.48
425.07	5420.68
425.26	5614.95
425.45	5474.51
425.64	5558.77
425.83	5652.39
426.01	5481.53
426.20	5596.22
426.39	5731.97
426.58	5696.86
426.77	5764.74
426.96	5692.18
427.15	5774.10
427.33	5738.99
427.52	5708.57
427.71	5907.51
427.90	5975.39
428.09	5921.56
428.28	5921.56
428.46	6106.46
428.65	6200.08
428.84	6310.08
429.03	6242.21
429.22	6029.22
429.40	6179.01
429.59	6291.36
429.78	6111.14
429.97	6024.54
430.16	6183.70
430.34	6286.68
430.53	6452.86
430.72	6473.92
430.91	6438.81
431.10	6267.95
431.28	6530.09
431.47	6469.24
431.66	6703.29
431.85	6448.18
432.03	6555.84
432.22	6825.00
432.41	6710.32
432.60	6717.34
432.79	6586.27
432.97	6672.87
433.16	6745.42
433.35	6855.43
433.54	6991.18
433.72	7033.31
433.91	6916.28
434.10	7061.40
434.28	6836.70
434.47	6871.81
434.66	6979.48
434.85	7206.51
435.03	7183.10
435.22	7014.59
435.41	7297.79
435.59	7302.47
435.78	7199.49
435.97	7253.32
436.16	7372.69
436.34	7356.30
436.53	7349.28
436.72	7721.43
436.90	7358.64
437.09	7653.55
437.28	7370.35
437.46	7513.12
437.65	7581.00
437.84	7735.47
438.02	7733.13
438.21	7688.66
438.40	7688.66
438.58	7875.90
438.77	8112.30
438.96	8002.29
439.14	8030.38
439.33	8021.02
439.52	8046.76
439.70	8257.41
439.89	8168.47
440.08	8292.52
440.26	8182.51
440.45	8439.97
440.63	8472.74
440.82	8669.34
441.01	8713.81
441.19	8437.63
441.38	8748.92
441.57	8833.18
441.75	8828.50
441.94	9153.84
442.12	9102.34
442.31	9317.67
442.50	9195.96
442.68	9050.85
442.87	9167.88
443.05	9132.77
443.24	9460.45
443.43	9504.92
443.61	9291.93
443.80	9458.10
443.98	9273.20
444.17	8978.30
444.35	9324.69
444.54	9401.93
444.73	9348.10
444.91	9472.15
445.10	9547.05
445.28	9717.90
445.47	9408.95
445.65	9584.49
445.84	9675.77
446.02	9528.32
446.21	9600.88
446.39	9495.55
446.58	9701.52
446.77	9823.23
446.95	9453.42
447.14	9731.95
447.32	9818.55
447.51	9858.34
447.69	9736.63
447.88	9755.35
448.06	9863.02
448.25	9699.18
448.43	9729.61
448.62	9771.74
448.80	9951.96
448.99	9795.14
449.17	9841.95
449.36	9886.42
449.54	10153.24
449.73	10200.05
449.91	10422.41
450.10	10267.93
450.28	10305.38
450.46	10377.94
450.65	10368.57
450.83	10214.10
451.02	10237.50
451.20	10399.00
451.39	10525.39
451.57	10438.79
451.76	10401.34
451.94	10368.57
452.13	10661.14
452.31	10658.80
452.49	10370.91
452.68	10888.17
452.86	10740.72
453.05	10693.91
453.23	10888.17
453.42	10644.76
453.60	10757.10
453.78	10808.59
453.97	10979.45
454.15	10836.68
454.34	10860.09
454.52	11157.33
454.70	10995.84
454.89	11204.14
455.07	11096.48
455.26	11201.80
455.44	11211.17
455.62	11290.74
455.81	11391.39
455.99	11431.18
456.17	11477.99
456.36	11524.80
456.54	11660.55
456.73	11646.51
456.91	11875.88
457.09	12067.80
457.28	12044.40
457.46	11796.30
457.64	12067.80
457.83	12170.79
458.01	12025.67
458.19	12400.16
458.38	12149.72
458.56	12538.25
458.74	12126.32
458.93	12255.04
459.11	12411.86
459.29	12355.69
459.48	12259.73
459.66	12334.62
459.84	12503.14
460.03	12748.90
460.21	12449.31
460.39	12713.79
460.57	12437.61
460.76	12924.44
460.94	13067.21
461.12	12592.08
461.31	12793.37
461.49	12833.16
461.67	12744.22
461.85	13263.82
462.04	13170.19
462.22	13434.68
462.40	13256.79
462.59	13071.89
462.77	13174.88
462.95	13336.37
463.13	13242.75
463.32	13345.73
463.50	13448.72
463.68	13760.01
463.86	13596.17
464.05	13502.55
464.23	13614.90
464.41	13788.10
464.59	13544.68
464.78	14122.79
464.96	13523.62
465.14	13673.41
465.32	13902.78
465.50	13947.25
465.69	13853.63
465.87	13848.95
466.05	13914.48
466.23	14204.71
466.41	13944.91
466.60	14508.98
466.78	13935.55
466.96	14171.94
467.14	14061.94
467.32	14106.41
467.51	14450.47
467.69	13982.36
467.87	14483.24
468.05	14476.21
468.23	14317.06
468.41	14036.19
468.60	14417.70
468.78	14733.67
468.96	14427.06
469.14	14888.15
469.32	15243.91
469.50	14576.86
469.69	15131.56
469.87	15330.51
470.05	15124.54
470.23	14965.39
470.41	15051.99
470.59	15323.49
470.77	15159.65
470.95	15400.72
471.14	15616.05
471.32	15241.57
471.50	15695.63
471.68	15613.71
471.86	15655.84
472.04	15840.75
472.22	15955.43
472.40	15496.69
472.58	16255.02
472.77	16491.41
472.95	16037.35
473.13	16304.17
473.31	16058.42
473.49	16334.60
473.67	16306.51
473.85	16339.28
474.03	17027.40
474.21	16931.44
474.39	16837.81
474.57	17102.29
474.75	16847.18
474.93	17408.90
475.12	17193.58
475.30	17607.85
475.48	17413.59
475.66	17373.80
475.84	17764.67
476.02	18050.21
476.20	17832.54
476.38	17928.50
476.56	18377.89
476.74	18375.55
476.92	18499.59
477.10	18635.35
477.28	18785.14
477.46	18888.12
477.64	18707.90
477.82	19075.37
478.00	19536.45
478.18	19623.05
478.36	19520.07
478.54	19707.31
478.72	19669.86
478.90	20095.84
479.08	20290.10
479.26	20212.87
479.44	20610.76
479.62	20332.23
479.80	20802.68
479.98	21188.87
480.16	21050.78
480.34	21003.97
480.52	21570.38
480.70	21654.64
480.88	21486.12
481.06	21453.35
481.24	21610.17
481.41	22143.81
481.59	22394.25
481.77	22565.10
481.95	22441.06
482.13	23049.60
482.31	22970.02
482.49	23187.69
482.67	23391.31
482.85	23527.06
483.03	24093.47
483.21	24559.24
483.39	24133.26
483.57	24465.62
483.74	24662.22
483.92	24755.85
484.10	24702.01
484.28	25458.01
484.46	25397.15
484.64	25750.57
484.82	25532.90
485.00	25638.23
485.18	26148.46
485.35	26745.30
485.53	26757.00
485.71	26745.30
485.89	27087.02
486.07	26974.67
486.25	27599.60
486.43	27208.73
486.61	27559.81
486.78	28107.49
486.96	27845.35
487.14	28238.56
487.32	28147.28
487.50	28947.75
487.68	28748.80
487.85	29216.91
488.03	29617.14
488.21	30120.35
488.39	30169.51
488.57	30197.59
488.75	30293.55
488.92	30831.88
489.10	30890.39
489.28	31124.44
489.46	31775.11
489.64	31187.64
489.81	32353.23
489.99	32079.38
490.17	32606.00
490.35	32818.99
490.53	32458.55
490.70	33146.67
490.88	33027.30
491.06	33633.50
491.24	33144.33
491.41	33631.16
491.59	33823.08
491.77	34157.78
491.95	34532.26
492.13	34319.28
492.30	34836.53
492.48	34976.97
492.66	34916.11
492.84	35070.59
493.01	35819.56
493.19	35285.92
493.37	35938.93
493.54	36095.74
493.72	36304.05
493.90	36123.83
494.08	36598.96
494.25	37085.79
494.43	37120.90
494.61	37647.52
494.79	37649.86
494.96	37722.41
495.14	38213.93
495.32	38403.51
495.49	38190.52
495.67	38817.78
495.85	38955.88
496.02	39611.23
496.20	39386.54
496.38	39096.31
496.55	39459.09
496.73	40325.09
496.91	39746.98
497.09	40177.64
497.26	40598.93
497.44	40435.10
497.62	40854.05
497.79	41441.53
497.97	40886.82
498.14	41642.81
498.32	41799.63
498.50	41888.57
498.67	42003.25
498.85	41713.03
499.03	41872.18
499.20	42274.76
499.38	42415.19
499.56	42787.33
499.73	42876.27
499.91	43122.03
500.08	43161.82
500.26	43150.12
500.44	43517.58
500.61	43796.10
500.79	43938.88
500.97	43805.47
501.14	44446.77
501.32	44725.30
501.49	44247.83
501.67	44758.06
501.84	44790.83
502.02	44863.39
502.20	44964.03
502.37	45130.21
502.55	45294.05
502.72	45581.93
502.90	45689.60
503.07	45640.45
503.25	46050.04
503.43	45925.99
503.60	46246.65
503.78	46459.63
503.95	46225.58
504.13	46541.55
504.30	46398.78
504.48	45965.78
504.65	47044.77
504.83	47068.17
505.01	47775.02
505.18	47285.84
505.36	47950.56
505.53	47529.26
505.71	47468.40
505.88	48053.54
506.06	47185.20
506.23	48392.92
506.41	48130.78
506.58	48460.79
506.76	48308.66
506.93	48250.14
507.11	48303.98
507.28	48739.32
507.46	48435.05
507.63	49279.98
507.81	49177.00
507.98	48587.18
508.16	49186.36
508.33	49537.44
508.50	49151.25
508.68	50127.25
508.85	50082.78
509.03	49748.09
509.20	49918.95
509.38	50539.19
509.55	49989.16
509.73	50223.22
509.90	50335.56
510.08	50604.72
510.25	50630.47
510.42	50433.86
510.60	50967.51
510.77	51075.17
510.95	51138.36
511.12	51098.58
511.30	50880.91
511.47	51531.57
511.64	51323.27
511.82	51503.49
511.99	51629.88
512.17	51547.96
512.34	51611.15
512.51	51817.12
512.69	51554.98
512.86	51976.28
513.04	52315.65
513.21	52322.68
513.38	52404.59
513.56	52435.02
513.73	52374.17
513.90	52561.41
514.08	52416.30
514.25	52523.96
514.43	52844.62
514.60	52872.70
514.77	52861.00
514.95	52933.56
515.12	52992.07
515.29	52725.25
515.47	53312.72
515.64	53408.68
515.81	53394.64
515.99	53577.20
516.16	53762.11
516.33	53694.23
516.51	53844.02
516.68	53593.59
516.85	53722.32
517.03	53862.75
517.20	54108.50
517.37	54218.51
517.54	54045.31
517.72	54211.49
517.89	54033.61
518.06	54127.23
518.24	54239.57
518.41	54183.40
518.58	54438.52
518.75	54405.75
518.93	54913.65
519.10	54471.29
519.27	54953.44
519.45	54766.20
519.62	54698.32
519.79	54820.03
519.96	54848.11
520.14	54831.73
520.31	54948.76
520.48	55365.37
520.65	54988.55
520.83	55206.22
521.00	55487.08
521.17	55496.44
521.34	55412.18
521.52	55320.90
521.69	55711.77
521.86	55819.44
522.03	55934.12
522.20	55980.93
522.38	55987.95
522.55	55917.74
522.72	56093.28
522.89	56079.24
523.07	56404.57
523.24	56083.92
523.41	56427.98
523.58	56095.62
523.75	56261.80
523.92	56296.91
524.10	56364.78
524.27	56547.34
524.44	56683.09
524.61	56865.66
524.78	56851.61
524.96	56830.55
525.13	56683.09
525.30	56748.63
525.47	56753.31
525.64	56816.50
525.81	56982.68
525.98	57340.78
526.16	57158.22
526.33	57265.89
526.50	57439.09
526.67	57148.86
526.84	57148.86
527.01	57155.88
527.18	57525.69
527.36	57598.24
527.53	57675.48
527.70	57736.34
527.87	57652.08
528.04	57649.74
528.21	57579.52
528.38	57652.08
528.55	57799.53
528.72	57855.70
528.89	57911.88
529.07	57881.45
529.24	57895.49
529.41	57872.09
529.58	57743.36
529.75	57928.26
529.92	58056.99
530.09	58017.20
530.26	58262.96
530.43	58244.23
530.60	58204.44
530.77	58185.72
530.94	58433.81
531.11	58356.58
531.28	58272.32
531.46	58394.03
531.63	58511.05
531.80	58370.62
531.97	58560.20
532.14	58534.46
532.31	58354.24
532.48	58607.01
532.65	58618.72
532.82	58667.87
532.99	58684.25
533.16	58646.80
533.33	58981.50
533.50	59159.38
533.67	59138.32
533.84	58815.32
534.01	58714.68
534.18	58890.22
534.35	59086.82
534.52	58995.54
534.69	58969.80
534.86	59332.58
535.03	59292.79
535.20	59257.68
535.37	59351.30
535.54	59442.59
535.71	59147.68
535.88	59295.13
536.05	59414.50
536.22	59512.80
536.38	59756.22
536.55	59559.61
536.72	59662.60
536.89	59510.46
537.06	59721.11
537.23	59608.76
537.40	59517.48
537.57	59604.08
537.74	59917.71
537.91	59915.37
538.08	60016.02
538.25	59777.28
538.42	59898.99
538.59	60067.51
538.75	59709.41
538.92	59941.12
539.09	60233.69
539.26	60013.68
539.43	60135.38
539.60	60278.16
539.77	60046.44
539.94	60322.63
540.11	60339.01
540.28	60165.81
540.44	60168.15
540.61	60060.49
540.78	59976.23
540.95	60420.93
541.12	60308.58
541.29	60189.22
541.46	60292.20
541.62	60236.03
541.79	60346.03
541.96	60252.41
542.13	60381.14
542.30	60575.40
542.47	60846.91
542.63	60678.39
542.80	60683.07
542.97	60921.80
543.14	61045.85
543.31	60889.04
543.48	60900.74
543.64	61197.99
543.81	61127.77
543.98	61125.43
544.15	61197.99
544.32	61247.14
544.48	61380.55
544.65	61066.92
544.82	61130.11
544.99	60933.51
545.16	61415.66
545.32	61090.32
545.49	61406.30
545.66	61502.26
545.83	61525.66
546.00	61570.13
546.16	61354.80
546.33	61317.35
546.50	60989.68
546.67	61439.06
546.83	61319.70
547.00	61492.89
547.17	61450.77
547.34	61612.26
547.50	61645.03
547.67	62059.30
547.84	61623.96
548.00	61680.14
548.17	61914.19
548.34	61771.42
548.51	61783.12
548.67	61956.32
548.84	61806.53
549.01	61853.34
549.18	61843.98
549.34	61813.55
549.51	61853.34
549.68	61839.29
549.84	61846.32
550.01	62063.99
550.18	61958.66
550.34	62237.19
550.51	62227.82
550.68	61984.41
550.84	61935.26
551.01	62159.95
551.18	62129.52
551.34	62042.92
551.51	62183.35
551.68	62162.29
551.84	62248.89
552.01	61968.02
552.18	62328.47
552.34	62419.75
552.51	62344.85
552.68	62349.53
552.84	62244.21
553.01	62471.24
553.18	62571.88
553.34	62340.17
553.51	62501.67
553.67	62606.99
553.84	62628.05
554.01	62719.34
554.17	62426.77
554.34	62513.37
554.51	62506.35
554.67	62672.52
554.84	62688.91
555.00	62724.02
555.17	62534.43
555.33	62667.84
555.50	62611.67
555.67	62698.27
555.83	62728.70
556.00	62791.89
556.16	63007.22
556.33	62770.83
556.50	62677.21
556.66	62841.04
556.83	62831.68
556.99	63119.57
557.16	63032.97
557.32	63093.82
557.49	63178.08
557.65	62894.88
557.82	62953.39
557.98	63140.63
558.15	62927.64
558.32	63068.08
558.48	62995.52
558.65	63224.89
558.81	63285.75
558.98	63105.52
559.14	63032.97
559.31	63114.89
559.47	63194.46
559.64	63330.22
559.80	63299.79
559.97	63367.66
560.13	63260.00
560.30	63372.34
560.46	63440.22
560.63	63262.34
560.79	63468.31
560.96	63339.58
561.12	63309.15
561.29	63264.68
561.45	63370.00
561.61	63370.00
561.78	63472.99
561.94	63384.05
562.11	63531.50
562.27	63461.29
562.44	63309.15
562.60	63393.41
562.77	63458.94
562.93	63250.64
563.10	63648.53
563.26	63533.84
563.42	63739.81
563.59	63557.25
563.75	63580.65
563.92	63697.68
564.08	63398.09
564.24	63578.31
564.41	63210.85
564.57	63220.21
564.74	63573.63
564.90	63721.08
565.07	63777.26
565.23	63831.09
565.39	63697.68
565.56	63587.67
565.72	63522.14
565.88	63655.55
566.05	63568.95
566.21	63604.06
566.38	63561.93
566.54	63737.47
566.70	63744.49
566.87	63868.54
567.03	63812.37
567.19	63983.22
567.36	63800.66
567.52	63744.49
567.68	63910.67
567.85	63557.25
568.01	63739.81
568.17	63891.94
568.34	63934.07
568.50	63812.37
568.66	64030.04
568.83	64051.10
568.99	63746.83
569.15	63781.94
569.32	63693.00
569.48	63721.08
569.64	63810.03
569.81	63938.75
569.97	63828.75
570.13	63922.37
570.30	64020.67
570.46	64041.74
570.62	63980.88
570.78	63983.22
570.95	63781.94
571.11	63875.56
571.27	63793.64
571.43	63870.88
571.60	63997.27
571.76	64060.46
571.92	64123.66
572.09	64203.24
572.25	64011.31
572.41	63943.44
572.57	64133.02
572.74	64261.75
572.90	63985.57
573.06	64001.95
573.22	64217.28
573.38	63969.18
573.55	64055.78
573.71	64306.22
573.87	64317.92
574.03	64067.48
574.20	64238.34
574.36	64060.46
574.52	64165.79
574.68	64219.62
574.84	64133.02
575.01	64177.49
575.17	64100.25
575.33	64315.58
575.49	64133.02
575.65	64259.41
575.82	64355.37
575.98	64210.26
576.14	64233.66
576.30	64322.60
576.46	64250.05
576.62	64020.67
576.79	64126.00
576.95	64086.21
577.11	64217.28
577.27	64196.21
577.43	64238.34
577.59	64231.32
577.75	64292.18
577.92	64151.74
578.08	64257.07
578.24	64170.47
578.40	64200.89
578.56	64172.81
578.72	64280.47
578.88	64434.95
579.04	64425.59
579.21	64271.11
579.37	64221.96
579.53	64364.73
579.69	64193.87
579.85	64147.06
580.01	64334.31
580.17	64175.15
580.33	64165.79
580.49	64254.73
580.65	64488.78
580.82	64654.96
580.98	64427.93
581.14	64434.95
581.30	64509.85
581.46	64374.09
581.62	64448.99
581.78	64175.15
581.94	64369.41
582.10	64357.71
582.26	64458.35
582.42	64207.92
582.58	64502.82
582.74	64343.67
582.90	64385.80
583.06	64214.94
583.22	64338.99
583.38	64500.48
583.54	64456.01
583.70	64327.28
583.86	64587.08
584.02	64418.56
584.18	64432.61
584.34	64491.12
584.50	64563.68
584.66	64533.25
584.82	64324.94
584.98	64364.73
585.14	64364.73
585.30	64259.41
585.46	64451.33
585.62	64399.84
585.78	64397.50
585.94	64200.89
586.10	64500.48
586.26	64479.42
586.42	64617.51
586.58	64549.63
586.74	64376.43
586.90	64381.12
587.06	64474.74
587.22	64371.75
587.38	64320.26
587.54	64451.33
587.70	64463.03
587.86	64657.30
588.02	64645.60
588.18	64704.11
588.34	64762.62
588.49	64720.49
588.65	64535.59
588.81	64523.89
588.97	64631.55
589.13	64575.38
589.29	64512.19
589.45	64849.22
589.61	64690.07
589.77	64757.94
589.93	64807.09
590.08	64870.29
590.24	64692.41
590.40	64771.99
590.56	64830.50
590.72	64685.39
590.88	64781.35
591.04	64631.55
591.20	64851.56
591.35	64849.22
591.51	65120.73
591.67	64912.42
591.83	64940.50
591.99	64874.97
592.15	64694.75
592.31	64945.18
592.46	64741.56
592.62	64666.66
592.78	64788.37
592.94	64886.67
593.10	64729.86
593.26	64989.66
593.41	64961.57
593.57	64872.63
593.73	64856.24
593.89	65169.88
594.05	64781.35
594.20	64814.12
594.36	64692.41
594.52	64779.01
594.68	64521.55
594.84	64678.36
594.99	64800.07
595.15	64982.63
595.31	64973.27
595.47	64860.93
595.62	64867.95
595.78	64947.53
595.94	64926.46
596.10	64701.77
596.25	64809.43
596.41	64907.74
596.57	64844.54
596.73	64984.97
596.88	64835.18
597.04	64881.99
597.20	65050.51
597.36	64919.44
597.51	65139.45
597.67	64837.52
597.83	64769.64
597.99	65001.36
598.14	64825.82
598.30	64975.61
598.46	64891.35
598.61	65085.62
598.77	64914.76
598.93	65066.89
599.09	64952.21
599.24	65214.35
599.40	65132.43
599.56	64935.82
599.71	64940.50
599.87	64952.21
600.03	64905.40
600.18	64896.03
600.34	65043.49
600.50	64956.89
600.65	64774.33
600.81	65083.28
600.97	65090.30
601.12	65127.75
601.28	65249.45
601.44	65130.09
601.59	64942.84
601.75	64921.78
601.91	65017.74
602.06	64931.14
602.22	64980.29
602.37	64701.77
602.53	65092.64
602.69	65212.01
602.84	64912.42
603.00	65195.62
603.16	65146.47
603.31	65097.32
603.47	65167.54
603.62	64781.35
603.78	64917.10
603.94	64949.87
604.09	65099.66
604.25	64940.50
604.40	65006.04
604.56	65043.49
604.71	65109.02
604.87	65123.07
605.03	65200.30
605.18	65041.15
605.34	65059.87
605.49	65125.41
605.65	64947.53
605.80	64963.91
605.96	64954.55
606.12	65031.78
606.27	65123.07
606.43	64975.61
606.58	65148.81
606.74	64975.61
606.89	64844.54
607.05	64961.57
607.20	65050.51
607.36	65008.38
607.51	65055.19
607.67	64900.71
607.82	64973.27
607.98	64652.62
608.13	64926.46
608.29	64832.84
608.44	64914.76
608.60	64793.05
608.75	65010.72
608.91	64889.01
609.06	64741.56
609.22	64931.14
609.37	64725.17
609.53	64814.12
609.68	64830.50
609.84	64917.10
609.99	64891.35
610.15	64851.56
610.30	64839.86
610.46	64823.48
610.61	64956.89
610.76	64954.55
610.92	64781.35
611.07	64839.86
611.23	64771.99
611.38	64816.46
611.54	64568.36
611.69	64645.60
611.84	64764.96
612.00	64947.53
612.15	64664.32
612.31	64921.78
612.46	64898.37
612.62	64924.12
612.77	64919.44
612.92	64858.59
613.08	64898.37
613.23	64872.63
613.39	64823.48
613.54	64647.94
613.69	64722.83
613.85	64544.95
614.00	64544.95
614.15	64694.75
614.31	64753.26
614.46	64961.57
614.62	64748.58
614.77	64729.86
614.92	64652.62
615.08	64734.54
615.23	64622.19
615.38	64776.67
615.54	64566.02
615.69	64505.16
615.84	64437.29
616.00	64577.72
616.15	64509.85
616.30	64638.57
616.46	64477.08
616.61	64554.32
616.76	64650.28
616.92	64491.12
617.07	64617.51
617.22	64308.56
617.37	64559.00
617.53	64434.95
617.68	64416.22
617.83	64519.21
617.99	64528.57
618.14	64512.19
618.29	64542.61
618.45	64453.67
618.60	64537.93
618.75	64479.42
618.90	64425.59
619.06	64540.27
619.21	64037.06
619.36	64308.56
619.51	64360.05
619.67	64055.78
619.82	64179.83
619.97	64364.73
620.12	64140.04
620.28	64168.13
620.43	64369.41
620.58	64493.46
620.73	64282.81
620.89	64451.33
621.04	64343.67
621.19	64228.98
621.34	64282.81
621.49	64076.85
621.65	64102.59
621.80	64355.37
621.95	64100.25
622.10	64193.87
622.25	64111.95
622.41	64282.81
622.56	64161.11
622.71	64060.46
622.86	64058.12
623.01	64144.72
623.16	64154.08
623.32	63849.81
623.47	64144.72
623.62	64058.12
623.77	63957.48
623.92	64001.95
624.07	63915.35
624.23	64182.17
624.38	64118.98
624.53	63990.25
624.68	63969.18
624.83	64072.17
624.98	64142.38
625.13	63898.97
625.29	63859.18
625.44	63950.46
625.59	63931.73
625.74	63845.13
625.89	63730.45
626.04	63777.26
626.19	63767.90
626.34	63788.96
626.49	63559.59
626.65	63791.30
626.80	64011.31
626.95	63760.87
627.10	63795.98
627.25	63814.71
627.40	63854.50
627.55	63519.80
627.70	63332.56
627.85	63540.86
628.00	63627.46
628.15	63587.67
628.30	63629.80
628.45	63622.78
628.60	63683.64
628.76	63847.47
628.91	63814.71
629.06	63568.95
629.21	63634.48
629.36	63573.63
629.51	63477.67
629.66	63575.97
629.81	63374.69
629.96	63405.11
630.11	63538.52
630.26	63309.15
630.41	63470.65
630.56	63257.66
630.71	63400.43
630.86	63501.07
631.01	63470.65
631.16	63421.50
631.31	63103.18
631.46	63138.29
631.61	63355.96
631.76	63262.34
631.91	63367.66
632.06	63456.60
632.21	63260.00
632.36	63206.17
632.51	63269.36
632.66	63416.82
632.81	63084.46
632.96	63278.72
633.10	63285.75
633.25	63142.97
633.40	63243.62
633.55	63346.60
633.70	63124.25
633.85	62979.14
634.00	62904.24
634.15	63133.61
634.30	63192.12
634.45	63121.91
634.60	63248.30
634.75	62960.41
634.90	62972.11
635.05	63035.31
635.19	62946.37
635.34	63217.87
635.49	63149.99
635.64	63103.18
635.79	63037.65
635.94	62789.55
636.09	62819.98
636.24	62773.17
636.39	63023.61
636.53	62726.36
636.68	62667.84
636.83	62927.64
636.98	62962.75
637.13	62812.96
637.28	62939.35
637.43	62838.70
637.57	62658.48
637.72	62651.46
637.87	62915.94
638.02	62951.05
638.17	62885.51
638.32	62646.78
638.46	62695.93
638.61	62684.23
638.76	62609.33
638.91	62583.58
639.06	62695.93
639.20	62836.36
639.35	62754.44
639.50	62492.30
639.65	62714.65
639.80	62768.49
639.94	62604.65
640.09	62635.08
640.24	62536.77
640.39	62534.43
640.54	62478.26
640.68	62328.47
640.83	62557.84
640.98	62368.26
641.13	62176.33
641.27	62585.92
641.42	62269.95
641.57	62321.44
641.72	62459.54
641.86	62466.56
642.01	62171.65
642.16	62265.27
642.31	62101.43
642.45	62386.98
642.60	62178.67
642.75	62129.52
642.90	62092.07
643.04	62176.33
643.19	62157.61
643.34	62089.73
643.48	62033.56
643.63	62190.37
643.78	62382.30
643.93	62162.29
644.07	62148.24
644.22	62110.80
644.37	62204.42
644.51	61961.00
644.66	62148.24
644.81	62113.14
644.95	61928.23
645.10	61984.41
645.25	62078.03
645.39	62152.93
645.54	62014.83
645.69	62157.61
645.83	61998.45
645.98	62082.71
646.13	62230.16
646.27	62101.43
646.42	61832.27
646.57	61860.36
646.71	62059.30
646.86	62063.99
647.00	62162.29
647.15	61932.92
647.30	61813.55
647.44	61684.82
647.59	61979.73
647.74	61661.41
647.88	61825.25
648.03	62101.43
648.17	61773.76
648.32	61876.74
648.47	61911.85
648.61	61701.20
648.76	61904.83
648.90	61556.09
649.05	61738.65
649.20	61602.90
649.34	61570.13
649.49	61511.62
649.63	61860.36
649.78	61881.42
649.92	61565.45
650.07	62049.94
650.21	61630.99
650.36	61638.01
650.51	61544.39
650.65	61712.91
650.80	61726.95
650.94	61656.73
651.09	61441.40
651.23	61537.36
651.38	61485.87
651.52	61532.68
651.67	61380.55
651.81	61415.66
651.96	61223.73
652.10	61504.60
652.25	61483.53
652.39	61263.52
652.54	61322.04
652.68	61146.50
652.83	61464.81
652.97	61403.95
653.12	61464.81
653.26	61209.69
653.41	61155.86
653.55	61242.46
653.70	61116.07
653.84	61134.79
653.99	61169.90
654.13	61221.39
654.27	61118.41
654.42	61219.05
654.56	61013.08
654.71	61137.13
654.85	61284.59
655.00	61172.24
655.14	61237.78
655.29	61116.07
655.43	61291.61
655.57	60982.66
655.72	60956.91
655.86	60994.36
656.01	61045.85
656.15	60743.92
656.30	60830.52
656.44	60999.04
656.58	60912.44
656.73	60830.52
656.87	60816.48
657.01	60877.33
657.16	61085.64
657.30	60872.65
657.45	60781.37
657.59	60853.93
657.73	60619.88
657.88	60736.90
658.02	60685.41
658.16	60659.66
658.31	60666.69
658.45	60645.62
658.60	60573.06
658.74	60647.96
658.88	60772.01
659.03	60509.87
659.17	60566.04
659.31	60622.22
659.46	60348.37
659.60	60591.79
659.74	60573.06
659.89	60397.52
660.03	60528.59
660.17	60662.00
660.32	60404.55
660.46	60371.78
660.60	60119.00
660.74	60142.41
660.89	60247.73
661.03	60060.49
661.17	60142.41
661.32	60196.24
661.46	60116.66
661.60	60039.42
661.74	60006.65
661.89	60303.90
662.03	60032.40
662.17	59978.57
662.31	59742.17
662.46	59943.46
662.60	59859.20
662.74	59583.02
662.88	59767.92
663.03	59522.16
663.17	59590.04
663.31	59737.49
663.45	59849.84
663.60	59594.72
663.74	59566.63
663.88	59639.19
664.02	59723.45
664.17	59870.90
664.31	59634.51
664.45	59606.42
664.59	59456.63
664.73	59409.82
664.88	59419.18
665.02	59157.04
665.16	59150.02
665.30	59250.66
665.44	59290.45
665.59	59248.32
665.73	59227.26
665.87	59070.44
666.01	59143.00
666.15	59175.76
666.29	59402.80
666.44	59194.49
666.58	59262.36
666.72	58948.73
666.86	59056.40
667.00	58805.96
667.14	58951.07
667.28	58890.22
667.43	58887.88
667.57	58857.45
667.71	58791.92
667.85	58824.68
667.99	58717.02
668.13	58611.70
668.27	58707.66
668.41	58766.17
668.56	58527.44
668.70	58925.33
668.84	58571.91
668.98	58548.50
669.12	58412.75
669.26	58354.24
669.40	58358.92
669.54	58394.03
669.68	58298.06
669.82	58087.42
669.96	58209.12
670.10	58054.65
670.25	57946.98
670.39	57815.91
670.53	58141.25
670.67	57888.47
670.81	58038.26
670.95	57745.70
671.09	57836.98
671.23	57766.76
671.37	57958.69
671.51	58019.54
671.65	57792.51
671.79	57832.30
671.93	57797.19
672.07	57701.23
672.21	57446.11
672.35	57202.69
672.49	57240.14
672.63	57345.47
672.77	57244.82
672.91	57387.60
673.05	57331.42
673.19	57212.06
673.33	57230.78
673.47	57125.46
673.61	57230.78
673.75	57202.69
673.89	56868.00
674.03	57134.82
674.17	57186.31
674.31	56949.92
674.45	56814.16
674.59	56463.08
674.73	56540.32
674.87	56416.27
675.01	56500.53
675.15	56350.74
675.29	56392.87
675.43	56465.42
675.56	56554.36
675.70	56430.32
675.84	56254.78
675.98	55458.99
676.12	56416.27
676.26	56423.29
676.40	56182.22
676.54	55789.01
676.68	55650.92
676.82	55042.38
676.96	55327.92
677.10	55466.02
677.23	55133.66
677.37	55365.37
677.51	55264.73
677.65	55018.97
677.79	54511.08
677.93	55161.75
678.07	55054.08
678.21	54995.57
678.34	54838.75
678.48	54621.08
678.62	54475.97
678.76	54721.72
678.90	54328.52
679.04	54536.82
679.18	54265.32
679.31	54183.40
679.45	53806.58
679.59	53951.69
679.73	53937.65
679.87	53844.02
680.00	53883.81
680.14	53509.33
680.28	53722.32
680.42	53719.98
680.56	53881.47
680.70	53514.01
680.83	53411.02
680.97	53083.35
681.11	53298.68
681.25	52870.36
681.39	53048.24
681.52	53155.91
681.66	52547.37
681.80	52552.05
681.94	52500.56
682.07	52559.07
682.21	52198.63
682.35	52329.70
682.49	52250.12
682.62	52109.69
682.76	52303.95
682.90	51896.70
683.04	51992.66
683.17	51767.97
683.31	51819.46
683.45	51896.70
683.59	51592.43
683.72	51639.24
683.86	51360.72
684.00	50951.12
684.13	50944.10
684.27	50862.18
684.41	50787.28
684.55	50670.26
684.68	50679.62
684.82	50103.85
684.96	50061.72
685.09	49942.35
685.23	49507.01
685.37	49886.18
685.50	49972.78
685.64	49635.74
685.78	49748.09
685.91	49738.72
686.05	49593.61
686.19	49574.89
686.32	49581.91
686.46	49401.69
686.60	48718.25
686.73	49029.54
686.87	48257.17
687.01	48594.20
687.14	48182.27
687.28	48067.58
687.42	48074.60
687.55	48107.37
687.69	48065.24
687.82	47941.19
687.96	48037.16
688.10	47814.80
688.23	47819.49
688.37	47863.96
688.50	47676.71
688.64	47077.54
688.78	46595.38
688.91	46323.88
689.05	46902.00
689.18	46209.20
689.32	45109.14
689.46	45991.53
689.59	46160.05
689.73	45851.09
689.86	45595.98
690.00	45439.16
690.13	45972.80
690.27	45514.06
690.41	45668.53
690.54	45006.16
690.68	45303.41
690.81	45647.47
690.95	45539.80
691.08	45272.98
691.22	44912.54
691.35	44493.58
691.49	44259.53
691.62	43674.40
691.76	43519.92
691.89	43587.80
692.03	43269.48
692.16	42611.79
692.30	42773.29
692.43	42646.90
692.57	42726.48
692.70	42660.94
692.84	43154.80
692.97	42857.55
693.11	42607.11
693.24	43185.22
693.38	42438.59
693.51	42319.23
693.65	42410.51
693.78	42202.20
693.92	41427.48
694.05	41457.91
694.19	41219.17
694.32	41160.66
694.45	40900.86
694.59	40605.95
694.72	40612.98
694.86	40676.17
694.99	40252.53
695.13	40093.38
695.26	40065.29
695.39	39688.46
695.53	40119.12
695.66	40079.33
695.80	39988.05
695.93	39929.54
696.07	39772.72
696.20	39297.59
696.33	39782.09
696.47	39070.56
696.60	38979.28
696.73	38548.62
696.87	38653.95
697.00	37827.74
697.14	37886.25
697.27	37886.25
697.40	37631.13
697.54	37474.32
697.67	37413.46
697.80	37640.50
697.94	37172.39
698.07	36912.59
698.21	36566.19
698.34	37528.15
698.47	37464.96
698.61	36861.10
698.74	37046.00
698.87	36898.55
699.01	36538.10
699.14	36168.30
699.27	35899.14
699.40	35592.53
699.54	35494.22
699.67	34799.08
699.80	34859.94
699.94	35033.14
700.07	34433.96
700.20	34541.63
700.34	34298.21
700.47	34326.30
700.60	34616.52
700.73	34288.85
700.87	34609.50
701.00	34190.55
701.13	34396.51
701.26	34017.35
701.40	33897.98
701.53	33766.91
701.66	33149.01
701.79	32863.46
701.93	32884.53
702.06	32456.21
702.19	32793.25
702.32	32687.92
702.46	32402.38
702.59	32250.24
702.72	32205.77
702.85	31695.53
702.99	31941.29
703.12	32084.06
703.25	31732.98
703.38	31896.82
703.51	31817.24
703.65	31342.11
703.78	31557.44
703.91	31601.91
704.04	31562.12
704.17	31122.10
704.31	31110.40
704.44	30237.38
704.57	30221.00
704.70	30302.92
704.83	29694.38
704.96	29851.19
705.10	29399.47
705.23	29589.05
>>>>>End Processed Spectral Data<<<<<
