SpectraSuite Data File
++++++++++++++++++++++++++++++++++++
Date: Fri Oct 04 11:47:22 GMT-05:00 2013
User: price-jones
Dark Spectrum Present: No
Reference Spectrum Present: No
Number of Sampled Component Spectra: 1
Spectrometers: USB2+H05261
Integration Time (usec): 100000 (USB2+H05261)
Spectra Averaged: 1 (USB2+H05261)
Boxcar Smoothing: 0 (USB2+H05261)
Correct for Electrical Dark: No (USB2+H05261)
Strobe/Lamp Enabled: No (USB2+H05261)
Correct for Detector Non-linearity: No (USB2+H05261)
Correct for Stray Light: No (USB2+H05261)
Number of Pixels in Processed Spectrum: 2048
>>>>>Begin Processed Spectral Data<<<<<
365.73	0.00
365.92	0.00
366.12	0.00
366.32	0.00
366.52	0.00
366.72	0.00
366.91	0.00
367.11	0.00
367.31	0.00
367.51	0.00
367.70	0.00
367.90	0.00
368.10	0.00
368.30	0.00
368.49	0.00
368.69	0.00
368.89	0.00
369.09	0.00
369.28	0.00
369.48	0.00
369.68	0.00
369.87	0.00
370.07	0.00
370.27	23.41
370.47	2.34
370.66	0.00
370.86	86.60
371.06	35.11
371.25	135.75
371.45	28.09
371.65	46.81
371.84	117.03
372.04	0.00
372.24	25.75
372.44	23.41
372.63	63.19
372.83	114.69
373.03	51.49
373.22	74.90
373.42	84.26
373.62	142.77
373.81	107.66
374.01	180.22
374.21	74.90
374.40	124.05
374.60	131.07
374.79	91.28
374.99	133.41
375.19	135.75
375.38	72.56
375.58	175.54
375.78	117.03
375.97	72.56
376.17	102.98
376.37	72.56
376.56	215.33
376.76	117.03
376.95	107.66
377.15	105.32
377.35	39.79
377.54	63.19
377.74	65.54
377.93	42.13
378.13	154.48
378.33	23.41
378.52	133.41
378.72	145.11
378.91	88.94
379.11	67.88
379.31	110.01
379.50	93.62
379.70	168.52
379.89	131.07
380.09	88.94
380.28	147.45
380.48	79.58
380.68	77.24
380.87	65.54
381.07	88.94
381.26	98.30
381.46	91.28
381.65	117.03
381.85	110.01
382.04	14.04
382.24	100.64
382.43	147.45
382.63	56.17
382.83	84.26
383.02	110.01
383.22	60.85
383.41	81.92
383.61	161.50
383.80	98.30
384.00	88.94
384.19	42.13
384.39	56.17
384.58	56.17
384.78	114.69
384.97	100.64
385.17	79.58
385.36	128.73
385.56	105.32
385.75	46.81
385.95	25.75
386.14	121.71
386.34	18.72
386.53	30.43
386.72	98.30
386.92	154.48
387.11	98.30
387.31	163.84
387.50	81.92
387.70	149.79
387.89	91.28
388.09	112.35
388.28	72.56
388.48	49.15
388.67	100.64
388.86	100.64
389.06	138.09
389.25	117.03
389.45	46.81
389.64	84.26
389.84	117.03
390.03	91.28
390.22	0.00
390.42	44.47
390.61	88.94
390.81	70.22
391.00	81.92
391.19	126.39
391.39	107.66
391.58	84.26
391.78	135.75
391.97	198.95
392.16	163.84
392.36	117.03
392.55	121.71
392.75	79.58
392.94	86.60
393.13	152.13
393.33	117.03
393.52	126.39
393.71	161.50
393.91	112.35
394.10	67.88
394.29	119.37
394.49	95.96
394.68	131.07
394.88	180.22
395.07	166.18
395.26	124.05
395.46	105.32
395.65	16.38
395.84	42.13
396.04	145.11
396.23	100.64
396.42	100.64
396.62	166.18
396.81	102.98
397.00	149.79
397.19	107.66
397.39	102.98
397.58	86.60
397.77	168.52
397.97	84.26
398.16	107.66
398.35	88.94
398.55	133.41
398.74	88.94
398.93	67.88
399.12	166.18
399.32	102.98
399.51	65.54
399.70	154.48
399.90	184.90
400.09	138.09
400.28	77.24
400.47	79.58
400.67	142.77
400.86	81.92
401.05	135.75
401.24	184.90
401.44	140.43
401.63	112.35
401.82	105.32
402.01	95.96
402.21	112.35
402.40	49.15
402.59	117.03
402.78	91.28
402.97	149.79
403.17	138.09
403.36	161.50
403.55	95.96
403.74	112.35
403.93	168.52
404.13	145.11
404.32	154.48
404.51	98.30
404.70	175.54
404.89	145.11
405.09	187.24
405.28	163.84
405.47	86.60
405.66	159.16
405.85	79.58
406.05	154.48
406.24	112.35
406.43	60.85
406.62	140.43
406.81	170.86
407.00	126.39
407.20	98.30
407.39	88.94
407.58	65.54
407.77	138.09
407.96	133.41
408.15	156.82
408.34	86.60
408.54	140.43
408.73	166.18
408.92	140.43
409.11	88.94
409.30	128.73
409.49	72.56
409.68	119.37
409.87	145.11
410.07	84.26
410.26	95.96
410.45	124.05
410.64	67.88
410.83	147.45
411.02	51.49
411.21	84.26
411.40	133.41
411.59	126.39
411.78	100.64
411.98	79.58
412.17	117.03
412.36	77.24
412.55	100.64
412.74	88.94
412.93	180.22
413.12	93.62
413.31	161.50
413.50	67.88
413.69	166.18
413.88	107.66
414.07	110.01
414.26	126.39
414.45	121.71
414.64	205.97
414.83	117.03
415.02	110.01
415.22	105.32
415.41	107.66
415.60	140.43
415.79	147.45
415.98	105.32
416.17	145.11
416.36	133.41
416.55	114.69
416.74	133.41
416.93	196.60
417.12	77.24
417.31	114.69
417.50	91.28
417.69	145.11
417.88	44.47
418.07	102.98
418.26	175.54
418.45	114.69
418.64	215.33
418.83	156.82
419.02	220.01
419.21	191.92
419.39	86.60
419.58	107.66
419.77	114.69
419.96	191.92
420.15	81.92
420.34	112.35
420.53	138.09
420.72	32.77
420.91	93.62
421.10	88.94
421.29	131.07
421.48	117.03
421.67	147.45
421.86	81.92
422.05	119.37
422.24	128.73
422.43	161.50
422.61	51.49
422.80	65.54
422.99	91.28
423.18	93.62
423.37	180.22
423.56	121.71
423.75	124.05
423.94	93.62
424.13	95.96
424.32	161.50
424.50	79.58
424.69	147.45
424.88	124.05
425.07	135.75
425.26	100.64
425.45	88.94
425.64	102.98
425.83	105.32
426.01	114.69
426.20	110.01
426.39	156.82
426.58	133.41
426.77	114.69
426.96	142.77
427.15	163.84
427.33	100.64
427.52	98.30
427.71	142.77
427.90	173.20
428.09	163.84
428.28	110.01
428.46	117.03
428.65	74.90
428.84	74.90
429.03	182.56
429.22	187.24
429.40	156.82
429.59	100.64
429.78	140.43
429.97	32.77
430.16	98.30
430.34	72.56
430.53	105.32
430.72	79.58
430.91	117.03
431.10	53.83
431.28	133.41
431.47	152.13
431.66	98.30
431.85	51.49
432.03	166.18
432.22	147.45
432.41	93.62
432.60	138.09
432.79	88.94
432.97	88.94
433.16	126.39
433.35	119.37
433.54	126.39
433.72	121.71
433.91	147.45
434.10	170.86
434.28	124.05
434.47	84.26
434.66	88.94
434.85	154.48
435.03	133.41
435.22	102.98
435.41	121.71
435.59	180.22
435.78	175.54
435.97	145.11
436.16	131.07
436.34	98.30
436.53	133.41
436.72	88.94
436.90	131.07
437.09	135.75
437.28	149.79
437.46	91.28
437.65	187.24
437.84	210.65
438.02	161.50
438.21	110.01
438.40	112.35
438.58	161.50
438.77	88.94
438.96	201.29
439.14	149.79
439.33	189.58
439.52	107.66
439.70	86.60
439.89	124.05
440.08	161.50
440.26	156.82
440.45	208.31
440.63	182.56
440.82	105.32
441.01	170.86
441.19	168.52
441.38	175.54
441.57	88.94
441.75	170.86
441.94	156.82
442.12	74.90
442.31	88.94
442.50	124.05
442.68	191.92
442.87	126.39
443.05	37.45
443.24	189.58
443.43	180.22
443.61	170.86
443.80	128.73
443.98	128.73
444.17	93.62
444.35	205.97
444.54	93.62
444.73	131.07
444.91	142.77
445.10	49.15
445.28	121.71
445.47	194.26
445.65	135.75
445.84	98.30
446.02	138.09
446.21	124.05
446.39	203.63
446.58	117.03
446.77	182.56
446.95	124.05
447.14	121.71
447.32	156.82
447.51	102.98
447.69	241.08
447.88	227.03
448.06	154.48
448.25	220.01
448.43	133.41
448.62	107.66
448.80	163.84
448.99	135.75
449.17	152.13
449.36	152.13
449.54	126.39
449.73	121.71
449.91	161.50
450.10	88.94
450.28	154.48
450.46	187.24
450.65	173.20
450.83	205.97
451.02	203.63
451.20	205.97
451.39	112.35
451.57	140.43
451.76	212.99
451.94	142.77
452.13	91.28
452.31	170.86
452.49	126.39
452.68	112.35
452.86	145.11
453.05	180.22
453.23	180.22
453.42	133.41
453.60	107.66
453.78	191.92
453.97	117.03
454.15	117.03
454.34	145.11
454.52	126.39
454.70	187.24
454.89	189.58
455.07	107.66
455.26	102.98
455.44	126.39
455.62	138.09
455.81	126.39
455.99	154.48
456.17	191.92
456.36	152.13
456.54	198.95
456.73	149.79
456.91	163.84
457.09	133.41
457.28	124.05
457.46	156.82
457.64	142.77
457.83	133.41
458.01	170.86
458.19	93.62
458.38	161.50
458.56	133.41
458.74	212.99
458.93	180.22
459.11	126.39
459.29	140.43
459.48	276.18
459.66	196.60
459.84	198.95
460.03	262.14
460.21	177.88
460.39	124.05
460.57	196.60
460.76	149.79
460.94	184.90
461.12	205.97
461.31	121.71
461.49	231.71
461.67	102.98
461.85	121.71
462.04	191.92
462.22	608.54
462.40	203.63
462.59	182.56
462.77	117.03
462.95	133.41
463.13	102.98
463.32	170.86
463.50	117.03
463.68	159.16
463.86	156.82
464.05	191.92
464.23	163.84
464.41	131.07
464.59	152.13
464.78	156.82
464.96	107.66
465.14	198.95
465.32	102.98
465.50	79.58
465.69	161.50
465.87	131.07
466.05	238.73
466.23	121.71
466.41	154.48
466.60	149.79
466.78	114.69
466.96	156.82
467.14	210.65
467.32	166.18
467.51	79.58
467.69	135.75
467.87	205.97
468.05	131.07
468.23	133.41
468.41	170.86
468.60	166.18
468.78	198.95
468.96	156.82
469.14	224.69
469.32	102.98
469.50	117.03
469.69	138.09
469.87	177.88
470.05	154.48
470.23	173.20
470.41	175.54
470.59	184.90
470.77	198.95
470.95	191.92
471.14	217.67
471.32	177.88
471.50	152.13
471.68	138.09
471.86	201.29
472.04	112.35
472.22	220.01
472.40	70.22
472.58	217.67
472.77	175.54
472.95	198.95
473.13	229.37
473.31	182.56
473.49	168.52
473.67	220.01
473.85	95.96
474.03	117.03
474.21	173.20
474.39	126.39
474.57	215.33
474.75	161.50
474.93	112.35
475.12	128.73
475.30	168.52
475.48	121.71
475.66	196.60
475.84	133.41
476.02	205.97
476.20	173.20
476.38	105.32
476.56	177.88
476.74	229.37
476.92	124.05
477.10	154.48
477.28	177.88
477.46	159.16
477.64	145.11
477.82	107.66
478.00	124.05
478.18	205.97
478.36	159.16
478.54	145.11
478.72	152.13
478.90	114.69
479.08	173.20
479.26	126.39
479.44	191.92
479.62	163.84
479.80	208.31
479.98	117.03
480.16	166.18
480.34	210.65
480.52	175.54
480.70	163.84
480.88	102.98
481.06	147.45
481.24	163.84
481.41	250.44
481.59	217.67
481.77	184.90
481.95	159.16
482.13	177.88
482.31	156.82
482.49	100.64
482.67	131.07
482.85	196.60
483.03	215.33
483.21	222.35
483.39	205.97
483.57	229.37
483.74	163.84
483.92	203.63
484.10	173.20
484.28	227.03
484.46	243.42
484.64	208.31
484.82	133.41
485.00	198.95
485.18	161.50
485.35	194.26
485.53	145.11
485.71	248.10
485.89	180.22
486.07	196.60
486.25	259.80
486.43	177.88
486.61	168.52
486.78	133.41
486.96	168.52
487.14	234.05
487.32	210.65
487.50	149.79
487.68	220.01
487.85	220.01
488.03	180.22
488.21	250.44
488.39	222.35
488.57	170.86
488.75	184.90
488.92	411.93
489.10	229.37
489.28	271.50
489.46	241.08
489.64	217.67
489.81	238.73
489.99	198.95
490.17	243.42
490.35	283.20
490.53	121.71
490.70	147.45
490.88	241.08
491.06	177.88
491.24	191.92
491.41	205.97
491.59	182.56
491.77	208.31
491.95	201.29
492.13	201.29
492.30	243.42
492.48	222.35
492.66	248.10
492.84	161.50
493.01	252.78
493.19	285.55
493.37	241.08
493.54	205.97
493.72	194.26
493.90	128.73
494.08	156.82
494.25	257.46
494.43	182.56
494.61	124.05
494.79	255.12
494.96	208.31
495.14	243.42
495.32	203.63
495.49	189.58
495.67	283.20
495.85	177.88
496.02	177.88
496.20	229.37
496.38	245.76
496.55	191.92
496.73	152.13
496.91	245.76
497.09	262.14
497.26	201.29
497.44	234.05
497.62	236.39
497.79	222.35
497.97	283.20
498.14	182.56
498.32	147.45
498.50	292.57
498.67	154.48
498.85	182.56
499.03	224.69
499.20	184.90
499.38	180.22
499.56	201.29
499.73	255.12
499.91	154.48
500.08	306.61
500.26	248.10
500.44	273.84
500.61	245.76
500.79	224.69
500.97	163.84
501.14	222.35
501.32	175.54
501.49	330.02
501.67	243.42
501.84	245.76
502.02	170.86
502.20	222.35
502.37	163.84
502.55	236.39
502.72	117.03
502.90	198.95
503.07	184.90
503.25	205.97
503.43	201.29
503.60	224.69
503.78	257.46
503.95	161.50
504.13	266.82
504.30	196.60
504.48	236.39
504.65	196.60
504.83	215.33
505.01	255.12
505.18	217.67
505.36	255.12
505.53	243.42
505.71	245.76
505.88	273.84
506.06	205.97
506.23	264.48
506.41	205.97
506.58	266.82
506.76	308.95
506.93	243.42
507.11	301.93
507.28	217.67
507.46	227.03
507.63	241.08
507.81	198.95
507.98	248.10
508.16	184.90
508.33	175.54
508.50	250.44
508.68	212.99
508.85	241.08
509.03	266.82
509.20	257.46
509.38	220.01
509.55	210.65
509.73	236.39
509.90	262.14
510.08	138.09
510.25	245.76
510.42	315.97
510.60	245.76
510.77	276.18
510.95	262.14
511.12	196.60
511.30	224.69
511.47	198.95
511.64	283.20
511.82	177.88
511.99	170.86
512.17	278.52
512.34	212.99
512.51	229.37
512.69	294.91
512.86	346.40
513.04	222.35
513.21	161.50
513.38	259.80
513.56	212.99
513.73	238.73
513.90	299.59
514.08	224.69
514.25	241.08
514.43	238.73
514.60	250.44
514.77	210.65
514.95	311.29
515.12	159.16
515.29	224.69
515.47	220.01
515.64	187.24
515.81	222.35
515.99	220.01
516.16	248.10
516.33	241.08
516.51	248.10
516.68	250.44
516.85	220.01
517.03	210.65
517.20	238.73
517.37	215.33
517.54	301.93
517.72	234.05
517.89	105.32
518.06	252.78
518.24	292.57
518.41	241.08
518.58	163.84
518.75	238.73
518.93	229.37
519.10	250.44
519.27	248.10
519.45	205.97
519.62	210.65
519.79	243.42
519.96	180.22
520.14	220.01
520.31	269.16
520.48	166.18
520.65	189.58
520.83	334.70
521.00	222.35
521.17	245.76
521.34	180.22
521.52	252.78
521.69	262.14
521.86	222.35
522.03	280.86
522.20	201.29
522.38	234.05
522.55	292.57
522.72	234.05
522.89	191.92
523.07	304.27
523.24	283.20
523.41	229.37
523.58	170.86
523.75	212.99
523.92	229.37
524.10	259.80
524.27	269.16
524.44	248.10
524.61	255.12
524.78	325.33
524.96	259.80
525.13	257.46
525.30	182.56
525.47	280.86
525.64	205.97
525.81	231.71
525.98	180.22
526.16	255.12
526.33	163.84
526.50	248.10
526.67	262.14
526.84	208.31
527.01	224.69
527.18	217.67
527.36	236.39
527.53	273.84
527.70	236.39
527.87	189.58
528.04	358.10
528.21	252.78
528.38	285.55
528.55	227.03
528.72	255.12
528.89	313.63
529.07	294.91
529.24	299.59
529.41	252.78
529.58	238.73
529.75	236.39
529.92	236.39
530.09	294.91
530.26	278.52
530.43	266.82
530.60	236.39
530.77	210.65
530.94	243.42
531.11	224.69
531.28	227.03
531.46	187.24
531.63	236.39
531.80	266.82
531.97	234.05
532.14	257.46
532.31	252.78
532.48	222.35
532.65	156.82
532.82	222.35
532.99	308.95
533.16	299.59
533.33	301.93
533.50	135.75
533.67	196.60
533.84	273.84
534.01	283.20
534.18	278.52
534.35	229.37
534.52	283.20
534.69	344.06
534.86	283.20
535.03	210.65
535.20	234.05
535.37	250.44
535.54	220.01
535.71	238.73
535.88	285.55
536.05	222.35
536.22	264.48
536.38	227.03
536.55	222.35
536.72	362.78
536.89	236.39
537.06	210.65
537.23	280.86
537.40	229.37
537.57	231.71
537.74	236.39
537.91	255.12
538.08	245.76
538.25	325.33
538.42	271.50
538.59	252.78
538.75	205.97
538.92	241.08
539.09	266.82
539.26	273.84
539.43	285.55
539.60	208.31
539.77	231.71
539.94	250.44
540.11	217.67
540.28	201.29
540.44	229.37
540.61	229.37
540.78	205.97
540.95	283.20
541.12	294.91
541.29	208.31
541.46	222.35
541.62	271.50
541.79	285.55
541.96	297.25
542.13	217.67
542.30	271.50
542.47	255.12
542.63	266.82
542.80	301.93
542.97	269.16
543.14	245.76
543.31	313.63
543.48	198.95
543.64	318.31
543.81	306.61
543.98	278.52
544.15	203.63
544.32	227.03
544.48	243.42
544.65	245.76
544.82	177.88
544.99	212.99
545.16	278.52
545.32	257.46
545.49	266.82
545.66	280.86
545.83	304.27
546.00	184.90
546.16	269.16
546.33	327.68
546.50	301.93
546.67	322.99
546.83	252.78
547.00	264.48
547.17	163.84
547.34	259.80
547.50	236.39
547.67	236.39
547.84	191.92
548.00	259.80
548.17	220.01
548.34	224.69
548.51	297.25
548.67	287.89
548.84	236.39
549.01	297.25
549.18	196.60
549.34	250.44
549.51	245.76
549.68	222.35
549.84	203.63
550.01	217.67
550.18	301.93
550.34	234.05
550.51	301.93
550.68	255.12
550.84	238.73
551.01	304.27
551.18	257.46
551.34	212.99
551.51	327.68
551.68	210.65
551.84	273.84
552.01	322.99
552.18	271.50
552.34	327.68
552.51	301.93
552.68	208.31
552.84	248.10
553.01	299.59
553.18	264.48
553.34	215.33
553.51	170.86
553.67	205.97
553.84	341.72
554.01	292.57
554.17	238.73
554.34	175.54
554.51	238.73
554.67	299.59
554.84	234.05
555.00	241.08
555.17	215.33
555.33	222.35
555.50	210.65
555.67	269.16
555.83	278.52
556.00	241.08
556.16	468.11
556.33	301.93
556.50	222.35
556.66	252.78
556.83	304.27
556.99	290.23
557.16	231.71
557.32	231.71
557.49	245.76
557.65	133.41
557.82	231.71
557.98	236.39
558.15	203.63
558.32	227.03
558.48	184.90
558.65	257.46
558.81	330.02
558.98	252.78
559.14	245.76
559.31	245.76
559.47	290.23
559.64	196.60
559.80	234.05
559.97	205.97
560.13	236.39
560.30	210.65
560.46	241.08
560.63	180.22
560.79	306.61
560.96	241.08
561.12	241.08
561.29	271.50
561.45	231.71
561.61	243.42
561.78	304.27
561.94	273.84
562.11	250.44
562.27	252.78
562.44	250.44
562.60	227.03
562.77	269.16
562.93	313.63
563.10	180.22
563.26	252.78
563.42	210.65
563.59	238.73
563.75	262.14
563.92	222.35
564.08	248.10
564.24	248.10
564.41	257.46
564.57	117.03
564.74	191.92
564.90	236.39
565.07	259.80
565.23	187.24
565.39	259.80
565.56	285.55
565.72	203.63
565.88	154.48
566.05	191.92
566.21	203.63
566.38	252.78
566.54	283.20
566.70	198.95
566.87	241.08
567.03	210.65
567.19	212.99
567.36	182.56
567.52	287.89
567.68	255.12
567.85	156.82
568.01	184.90
568.17	257.46
568.34	245.76
568.50	241.08
568.66	163.84
568.83	341.72
568.99	196.60
569.15	292.57
569.32	205.97
569.48	191.92
569.64	152.13
569.81	175.54
569.97	220.01
570.13	203.63
570.30	273.84
570.46	269.16
570.62	238.73
570.78	266.82
570.95	276.18
571.11	238.73
571.27	222.35
571.43	170.86
571.60	215.33
571.76	231.71
571.92	236.39
572.09	285.55
572.25	215.33
572.41	271.50
572.57	212.99
572.74	304.27
572.90	215.33
573.06	276.18
573.22	175.54
573.38	292.57
573.55	222.35
573.71	203.63
573.87	322.99
574.03	208.31
574.20	243.42
574.36	215.33
574.52	182.56
574.68	145.11
574.84	264.48
575.01	248.10
575.17	294.91
575.33	301.93
575.49	271.50
575.65	273.84
575.82	266.82
575.98	262.14
576.14	227.03
576.30	180.22
576.46	154.48
576.62	180.22
576.79	248.10
576.95	229.37
577.11	250.44
577.27	182.56
577.43	201.29
577.59	234.05
577.75	229.37
577.92	248.10
578.08	234.05
578.24	203.63
578.40	238.73
578.56	250.44
578.72	243.42
578.88	231.71
579.04	159.16
579.21	191.92
579.37	201.29
579.53	266.82
579.69	273.84
579.85	243.42
580.01	248.10
580.17	276.18
580.33	297.25
580.49	252.78
580.65	170.86
580.82	229.37
580.98	159.16
581.14	189.58
581.30	238.73
581.46	208.31
581.62	276.18
581.78	257.46
581.94	227.03
582.10	250.44
582.26	215.33
582.42	208.31
582.58	215.33
582.74	273.84
582.90	208.31
583.06	294.91
583.22	248.10
583.38	269.16
583.54	173.20
583.70	177.88
583.86	210.65
584.02	182.56
584.18	191.92
584.34	266.82
584.50	210.65
584.66	182.56
584.82	229.37
584.98	184.90
585.14	161.50
585.30	217.67
585.46	252.78
585.62	304.27
585.78	245.76
585.94	236.39
586.10	212.99
586.26	238.73
586.42	269.16
586.58	243.42
586.74	208.31
586.90	238.73
587.06	194.26
587.22	234.05
587.38	203.63
587.54	187.24
587.70	177.88
587.86	262.14
588.02	238.73
588.18	224.69
588.34	191.92
588.49	140.43
588.65	210.65
588.81	159.16
588.97	203.63
589.13	142.77
589.29	145.11
589.45	189.58
589.61	196.60
589.77	280.86
589.93	177.88
590.08	105.32
590.24	273.84
590.40	210.65
590.56	276.18
590.72	215.33
590.88	140.43
591.04	189.58
591.20	187.24
591.35	180.22
591.51	297.25
591.67	159.16
591.83	191.92
591.99	187.24
592.15	243.42
592.31	238.73
592.46	175.54
592.62	231.71
592.78	152.13
592.94	175.54
593.10	245.76
593.26	196.60
593.41	194.26
593.57	234.05
593.73	107.66
593.89	215.33
594.05	227.03
594.20	173.20
594.36	236.39
594.52	187.24
594.68	170.86
594.84	203.63
594.99	243.42
595.15	222.35
595.31	266.82
595.47	205.97
595.62	220.01
595.78	194.26
595.94	234.05
596.10	210.65
596.25	257.46
596.41	210.65
596.57	177.88
596.73	177.88
596.88	177.88
597.04	149.79
597.20	102.98
597.36	227.03
597.51	229.37
597.67	177.88
597.83	163.84
597.99	163.84
598.14	297.25
598.30	236.39
598.46	243.42
598.61	266.82
598.77	215.33
598.93	205.97
599.09	238.73
599.24	280.86
599.40	276.18
599.56	147.45
599.71	140.43
599.87	222.35
600.03	184.90
600.18	189.58
600.34	276.18
600.50	117.03
600.65	175.54
600.81	196.60
600.97	184.90
601.12	161.50
601.28	159.16
601.44	236.39
601.59	236.39
601.75	131.07
601.91	177.88
602.06	259.80
602.22	376.83
602.37	255.12
602.53	126.39
602.69	227.03
602.84	241.08
603.00	241.08
603.16	262.14
603.31	280.86
603.47	173.20
603.62	224.69
603.78	203.63
603.94	229.37
604.09	224.69
604.25	259.80
604.40	227.03
604.56	255.12
604.71	156.82
604.87	217.67
605.03	217.67
605.18	278.52
605.34	208.31
605.49	196.60
605.65	205.97
605.80	182.56
605.96	208.31
606.12	152.13
606.27	170.86
606.43	180.22
606.58	227.03
606.74	229.37
606.89	248.10
607.05	177.88
607.20	182.56
607.36	187.24
607.51	161.50
607.67	156.82
607.82	241.08
607.98	187.24
608.13	205.97
608.29	189.58
608.44	215.33
608.60	196.60
608.75	217.67
608.91	234.05
609.06	196.60
609.22	238.73
609.37	175.54
609.53	154.48
609.68	175.54
609.84	161.50
609.99	194.26
610.15	262.14
610.30	238.73
610.46	238.73
610.61	264.48
610.76	198.95
610.92	252.78
611.07	222.35
611.23	416.62
611.38	292.57
611.54	187.24
611.69	196.60
611.84	222.35
612.00	208.31
612.15	212.99
612.31	227.03
612.46	95.96
612.62	245.76
612.77	224.69
612.92	231.71
613.08	262.14
613.23	229.37
613.39	135.75
613.54	191.92
613.69	236.39
613.85	236.39
614.00	203.63
614.15	201.29
614.31	180.22
614.46	278.52
614.62	227.03
614.77	217.67
614.92	147.45
615.08	196.60
615.23	191.92
615.38	287.89
615.54	173.20
615.69	187.24
615.84	229.37
616.00	210.65
616.15	173.20
616.30	194.26
616.46	110.01
616.61	170.86
616.76	236.39
616.92	191.92
617.07	191.92
617.22	140.43
617.37	138.09
617.53	234.05
617.68	238.73
617.83	194.26
617.99	245.76
618.14	203.63
618.29	250.44
618.45	138.09
618.60	147.45
618.75	227.03
618.90	173.20
619.06	191.92
619.21	264.48
619.36	257.46
619.51	133.41
619.67	224.69
619.82	187.24
619.97	177.88
620.12	222.35
620.28	196.60
620.43	194.26
620.58	227.03
620.73	236.39
620.89	236.39
621.04	170.86
621.19	278.52
621.34	203.63
621.49	175.54
621.65	166.18
621.80	163.84
621.95	168.52
622.10	229.37
622.25	124.05
622.41	173.20
622.56	217.67
622.71	248.10
622.86	189.58
623.01	194.26
623.16	191.92
623.32	138.09
623.47	231.71
623.62	180.22
623.77	184.90
623.92	203.63
624.07	142.77
624.23	208.31
624.38	196.60
624.53	126.39
624.68	161.50
624.83	210.65
624.98	234.05
625.13	177.88
625.29	208.31
625.44	166.18
625.59	175.54
625.74	163.84
625.89	210.65
626.04	177.88
626.19	212.99
626.34	182.56
626.49	257.46
626.65	121.71
626.80	203.63
626.95	229.37
627.10	189.58
627.25	283.20
627.40	135.75
627.55	229.37
627.70	65.54
627.85	147.45
628.00	142.77
628.15	224.69
628.30	138.09
628.45	180.22
628.60	163.84
628.76	149.79
628.91	119.37
629.06	182.56
629.21	259.80
629.36	238.73
629.51	205.97
629.66	201.29
629.81	100.64
629.96	128.73
630.11	205.97
630.26	203.63
630.41	147.45
630.56	152.13
630.71	191.92
630.86	222.35
631.01	189.58
631.16	180.22
631.31	217.67
631.46	250.44
631.61	131.07
631.76	142.77
631.91	147.45
632.06	234.05
632.21	147.45
632.36	250.44
632.51	189.58
632.66	187.24
632.81	128.73
632.96	163.84
633.10	138.09
633.25	217.67
633.40	147.45
633.55	198.95
633.70	203.63
633.85	238.73
634.00	201.29
634.15	184.90
634.30	163.84
634.45	135.75
634.60	187.24
634.75	227.03
634.90	184.90
635.05	145.11
635.19	182.56
635.34	236.39
635.49	191.92
635.64	191.92
635.79	88.94
635.94	126.39
636.09	138.09
636.24	229.37
636.39	184.90
636.53	220.01
636.68	60.85
636.83	138.09
636.98	248.10
637.13	121.71
637.28	182.56
637.43	222.35
637.57	147.45
637.72	163.84
637.87	196.60
638.02	170.86
638.17	140.43
638.32	149.79
638.46	175.54
638.61	215.33
638.76	182.56
638.91	145.11
639.06	166.18
639.20	236.39
639.35	184.90
639.50	131.07
639.65	257.46
639.80	149.79
639.94	191.92
640.09	205.97
640.24	245.76
640.39	175.54
640.54	196.60
640.68	170.86
640.83	212.99
640.98	149.79
641.13	175.54
641.27	161.50
641.42	74.90
641.57	184.90
641.72	187.24
641.86	147.45
642.01	128.73
642.16	128.73
642.31	196.60
642.45	149.79
642.60	175.54
642.75	133.41
642.90	187.24
643.04	135.75
643.19	152.13
643.34	133.41
643.48	175.54
643.63	227.03
643.78	175.54
643.93	196.60
644.07	173.20
644.22	145.11
644.37	67.88
644.51	217.67
644.66	107.66
644.81	208.31
644.95	212.99
645.10	154.48
645.25	229.37
645.39	149.79
645.54	170.86
645.69	220.01
645.83	175.54
645.98	191.92
646.13	79.58
646.27	189.58
646.42	140.43
646.57	124.05
646.71	191.92
646.86	154.48
647.00	180.22
647.15	241.08
647.30	128.73
647.44	93.62
647.59	170.86
647.74	140.43
647.88	191.92
648.03	124.05
648.17	187.24
648.32	159.16
648.47	170.86
648.61	173.20
648.76	170.86
648.90	194.26
649.05	191.92
649.20	170.86
649.34	147.45
649.49	119.37
649.63	168.52
649.78	126.39
649.92	131.07
650.07	126.39
650.21	189.58
650.36	217.67
650.51	159.16
650.65	187.24
650.80	208.31
650.94	81.92
651.09	177.88
651.23	187.24
651.38	173.20
651.52	159.16
651.67	145.11
651.81	173.20
651.96	224.69
652.10	170.86
652.25	205.97
652.39	198.95
652.54	140.43
652.68	149.79
652.83	124.05
652.97	145.11
653.12	189.58
653.26	170.86
653.41	152.13
653.55	145.11
653.70	112.35
653.84	154.48
653.99	166.18
654.13	227.03
654.27	110.01
654.42	154.48
654.56	191.92
654.71	182.56
654.85	79.58
655.00	163.84
655.14	152.13
655.29	114.69
655.43	145.11
655.57	189.58
655.72	140.43
655.86	135.75
656.01	175.54
656.15	107.66
656.30	152.13
656.44	121.71
656.58	81.92
656.73	168.52
656.87	154.48
657.01	208.31
657.16	212.99
657.30	98.30
657.45	194.26
657.59	187.24
657.73	177.88
657.88	184.90
658.02	184.90
658.16	238.73
658.31	175.54
658.45	140.43
658.60	163.84
658.74	128.73
658.88	191.92
659.03	201.29
659.17	124.05
659.31	112.35
659.46	128.73
659.60	163.84
659.74	138.09
659.89	168.52
660.03	91.28
660.17	194.26
660.32	220.01
660.46	173.20
660.60	156.82
660.74	227.03
660.89	173.20
661.03	88.94
661.17	149.79
661.32	168.52
661.46	124.05
661.60	227.03
661.74	198.95
661.89	156.82
662.03	175.54
662.17	131.07
662.31	222.35
662.46	147.45
662.60	191.92
662.74	105.32
662.88	245.76
663.03	138.09
663.17	163.84
663.31	187.24
663.45	154.48
663.60	187.24
663.74	133.41
663.88	159.16
664.02	215.33
664.17	135.75
664.31	154.48
664.45	187.24
664.59	161.50
664.73	191.92
664.88	196.60
665.02	191.92
665.16	224.69
665.30	196.60
665.44	189.58
665.59	187.24
665.73	91.28
665.87	189.58
666.01	201.29
666.15	131.07
666.29	175.54
666.44	147.45
666.58	243.42
666.72	126.39
666.86	84.26
667.00	191.92
667.14	156.82
667.28	152.13
667.43	102.98
667.57	107.66
667.71	107.66
667.85	128.73
667.99	163.84
668.13	154.48
668.27	154.48
668.41	147.45
668.56	194.26
668.70	236.39
668.84	205.97
668.98	149.79
669.12	117.03
669.26	201.29
669.40	198.95
669.54	159.16
669.68	152.13
669.82	196.60
669.96	194.26
670.10	119.37
670.25	203.63
670.39	191.92
670.53	88.94
670.67	222.35
670.81	110.01
670.95	142.77
671.09	114.69
671.23	177.88
671.37	184.90
671.51	95.96
671.65	79.58
671.79	131.07
671.93	163.84
672.07	191.92
672.21	145.11
672.35	126.39
672.49	159.16
672.63	145.11
672.77	117.03
672.91	138.09
673.05	98.30
673.19	175.54
673.33	128.73
673.47	215.33
673.61	112.35
673.75	175.54
673.89	105.32
674.03	217.67
674.17	91.28
674.31	156.82
674.45	166.18
674.59	184.90
674.73	201.29
674.87	163.84
675.01	133.41
675.15	152.13
675.29	217.67
675.43	147.45
675.56	119.37
675.70	163.84
675.84	173.20
675.98	147.45
676.12	107.66
676.26	91.28
676.40	81.92
676.54	173.20
676.68	159.16
676.82	182.56
676.96	95.96
677.10	114.69
677.23	88.94
677.37	53.83
677.51	170.86
677.65	156.82
677.79	112.35
677.93	88.94
678.07	152.13
678.21	95.96
678.34	121.71
678.48	149.79
678.62	147.45
678.76	131.07
678.90	170.86
679.04	152.13
679.18	119.37
679.31	175.54
679.45	117.03
679.59	119.37
679.73	93.62
679.87	135.75
680.00	236.39
680.14	173.20
680.28	198.95
680.42	107.66
680.56	159.16
680.70	133.41
680.83	147.45
680.97	74.90
681.11	88.94
681.25	114.69
681.39	177.88
681.52	117.03
681.66	166.18
681.80	126.39
681.94	189.58
682.07	105.32
682.21	159.16
682.35	105.32
682.49	100.64
682.62	142.77
682.76	81.92
682.90	149.79
683.04	100.64
683.17	152.13
683.31	147.45
683.45	124.05
683.59	177.88
683.72	159.16
683.86	138.09
684.00	126.39
684.13	145.11
684.27	152.13
684.41	156.82
684.55	142.77
684.68	98.30
684.82	114.69
684.96	23.41
685.09	154.48
685.23	175.54
685.37	161.50
685.50	112.35
685.64	170.86
685.78	117.03
685.91	112.35
686.05	175.54
686.19	121.71
686.32	145.11
686.46	91.28
686.60	147.45
686.73	154.48
686.87	126.39
687.01	100.64
687.14	105.32
687.28	156.82
687.42	168.52
687.55	91.28
687.69	205.97
687.82	63.19
687.96	112.35
688.10	170.86
688.23	138.09
688.37	180.22
688.50	77.24
688.64	126.39
688.78	117.03
688.91	163.84
689.05	166.18
689.18	56.17
689.32	114.69
689.46	74.90
689.59	140.43
689.73	184.90
689.86	128.73
690.00	128.73
690.13	39.79
690.27	42.13
690.41	112.35
690.54	72.56
690.68	53.83
690.81	70.22
690.95	49.15
691.08	56.17
691.22	84.26
691.35	77.24
691.49	149.79
691.62	128.73
691.76	79.58
691.89	182.56
692.03	142.77
692.16	131.07
692.30	128.73
692.43	128.73
692.57	107.66
692.70	39.79
692.84	156.82
692.97	72.56
693.11	79.58
693.24	149.79
693.38	114.69
693.51	110.01
693.65	135.75
693.78	93.62
693.92	149.79
694.05	154.48
694.19	98.30
694.32	147.45
694.45	135.75
694.59	23.41
694.72	102.98
694.86	79.58
694.99	161.50
695.13	152.13
695.26	51.49
695.39	140.43
695.53	203.63
695.66	86.60
695.80	229.37
695.93	81.92
696.07	142.77
696.20	79.58
696.33	126.39
696.47	110.01
696.60	138.09
696.73	98.30
696.87	142.77
697.00	133.41
697.14	105.32
697.27	67.88
697.40	135.75
697.54	65.54
697.67	102.98
697.80	189.58
697.94	177.88
698.07	77.24
698.21	131.07
698.34	102.98
698.47	84.26
698.61	124.05
698.74	100.64
698.87	102.98
699.01	133.41
699.14	81.92
699.27	110.01
699.40	245.76
699.54	91.28
699.67	131.07
699.80	86.60
699.94	145.11
700.07	112.35
700.20	102.98
700.34	110.01
700.47	51.49
700.60	51.49
700.73	16.38
700.87	168.52
701.00	25.75
701.13	135.75
701.26	72.56
701.40	138.09
701.53	135.75
701.66	102.98
701.79	114.69
701.93	114.69
702.06	175.54
702.19	147.45
702.32	110.01
702.46	84.26
702.59	138.09
702.72	56.17
702.85	135.75
702.99	86.60
703.12	100.64
703.25	117.03
703.38	65.54
703.51	23.41
703.65	42.13
703.78	124.05
703.91	21.06
704.04	100.64
704.17	142.77
704.31	156.82
704.44	79.58
704.57	177.88
704.70	88.94
704.83	95.96
704.96	107.66
705.10	154.48
705.23	121.71
>>>>>End Processed Spectral Data<<<<<
