SpectraSuite Data File
++++++++++++++++++++++++++++++++++++
Date: Fri Oct 04 11:51:04 GMT-05:00 2013
User: price-jones
Dark Spectrum Present: No
Reference Spectrum Present: No
Number of Sampled Component Spectra: 1
Spectrometers: USB2+H05261
Integration Time (usec): 100000 (USB2+H05261)
Spectra Averaged: 1 (USB2+H05261)
Boxcar Smoothing: 0 (USB2+H05261)
Correct for Electrical Dark: No (USB2+H05261)
Strobe/Lamp Enabled: No (USB2+H05261)
Correct for Detector Non-linearity: No (USB2+H05261)
Correct for Stray Light: No (USB2+H05261)
Number of Pixels in Processed Spectrum: 2048
>>>>>Begin Processed Spectral Data<<<<<
365.73	0.00
365.92	0.00
366.12	0.00
366.32	0.00
366.52	0.00
366.72	0.00
366.91	0.00
367.11	0.00
367.31	0.00
367.51	0.00
367.70	0.00
367.90	0.00
368.10	0.00
368.30	0.00
368.49	0.00
368.69	0.00
368.89	0.00
369.09	0.00
369.28	0.00
369.48	0.00
369.68	0.00
369.87	0.00
370.07	0.00
370.27	0.00
370.47	0.00
370.66	0.00
370.86	0.00
371.06	142.77
371.25	49.15
371.45	53.83
371.65	86.60
371.84	100.64
372.04	39.79
372.24	65.54
372.44	0.00
372.63	102.98
372.83	107.66
373.03	98.30
373.22	86.60
373.42	37.45
373.62	14.04
373.81	63.19
374.01	138.09
374.21	93.62
374.40	98.30
374.60	79.58
374.79	81.92
374.99	58.51
375.19	203.63
375.38	140.43
375.58	84.26
375.78	119.37
375.97	72.56
376.17	231.71
376.37	135.75
376.56	53.83
376.76	16.38
376.95	98.30
377.15	133.41
377.35	49.15
377.54	49.15
377.74	107.66
377.93	128.73
378.13	63.19
378.33	65.54
378.52	37.45
378.72	86.60
378.91	184.90
379.11	49.15
379.31	91.28
379.50	77.24
379.70	110.01
379.89	77.24
380.09	60.85
380.28	14.04
380.48	107.66
380.68	121.71
380.87	21.06
381.07	86.60
381.26	65.54
381.46	56.17
381.65	100.64
381.85	25.75
382.04	102.98
382.24	81.92
382.43	126.39
382.63	46.81
382.83	63.19
383.02	67.88
383.22	128.73
383.41	46.81
383.61	49.15
383.80	14.04
384.00	60.85
384.19	84.26
384.39	67.88
384.58	0.00
384.78	67.88
384.97	131.07
385.17	56.17
385.36	30.43
385.56	58.51
385.75	0.00
385.95	67.88
386.14	32.77
386.34	37.45
386.53	60.85
386.72	46.81
386.92	63.19
387.11	7.02
387.31	72.56
387.50	119.37
387.70	65.54
387.89	138.09
388.09	138.09
388.28	53.83
388.48	63.19
388.67	105.32
388.86	86.60
389.06	166.18
389.25	126.39
389.45	88.94
389.64	74.90
389.84	117.03
390.03	51.49
390.22	77.24
390.42	93.62
390.61	112.35
390.81	84.26
391.00	131.07
391.19	156.82
391.39	49.15
391.58	63.19
391.78	159.16
391.97	53.83
392.16	58.51
392.36	91.28
392.55	156.82
392.75	161.50
392.94	112.35
393.13	149.79
393.33	100.64
393.52	74.90
393.71	37.45
393.91	60.85
394.10	67.88
394.29	67.88
394.49	128.73
394.68	65.54
394.88	95.96
395.07	67.88
395.26	42.13
395.46	70.22
395.65	86.60
395.84	88.94
396.04	128.73
396.23	51.49
396.42	30.43
396.62	79.58
396.81	74.90
397.00	95.96
397.19	74.90
397.39	93.62
397.58	84.26
397.77	135.75
397.97	168.52
398.16	112.35
398.35	161.50
398.55	117.03
398.74	105.32
398.93	138.09
399.12	114.69
399.32	86.60
399.51	65.54
399.70	119.37
399.90	110.01
400.09	131.07
400.28	131.07
400.47	147.45
400.67	121.71
400.86	74.90
401.05	110.01
401.24	126.39
401.44	138.09
401.63	135.75
401.82	63.19
402.01	42.13
402.21	119.37
402.40	56.17
402.59	117.03
402.78	105.32
402.97	60.85
403.17	117.03
403.36	117.03
403.55	142.77
403.74	138.09
403.93	105.32
404.13	133.41
404.32	86.60
404.51	72.56
404.70	121.71
404.89	126.39
405.09	177.88
405.28	84.26
405.47	65.54
405.66	154.48
405.85	95.96
406.05	65.54
406.24	60.85
406.43	133.41
406.62	112.35
406.81	168.52
407.00	133.41
407.20	37.45
407.39	67.88
407.58	142.77
407.77	70.22
407.96	128.73
408.15	126.39
408.34	77.24
408.54	145.11
408.73	121.71
408.92	86.60
409.11	124.05
409.30	189.58
409.49	84.26
409.68	166.18
409.87	100.64
410.07	126.39
410.26	84.26
410.45	93.62
410.64	131.07
410.83	81.92
411.02	112.35
411.21	142.77
411.40	37.45
411.59	107.66
411.78	60.85
411.98	121.71
412.17	84.26
412.36	72.56
412.55	119.37
412.74	147.45
412.93	184.90
413.12	84.26
413.31	98.30
413.50	138.09
413.69	49.15
413.88	135.75
414.07	124.05
414.26	58.51
414.45	93.62
414.64	205.97
414.83	145.11
415.02	121.71
415.22	170.86
415.41	187.24
415.60	23.41
415.79	102.98
415.98	175.54
416.17	145.11
416.36	39.79
416.55	70.22
416.74	70.22
416.93	63.19
417.12	56.17
417.31	86.60
417.50	98.30
417.69	173.20
417.88	114.69
418.07	49.15
418.26	159.16
418.45	138.09
418.64	140.43
418.83	70.22
419.02	124.05
419.21	79.58
419.39	112.35
419.58	86.60
419.77	166.18
419.96	147.45
420.15	210.65
420.34	142.77
420.53	58.51
420.72	84.26
420.91	67.88
421.10	131.07
421.29	133.41
421.48	142.77
421.67	56.17
421.86	77.24
422.05	114.69
422.24	53.83
422.43	102.98
422.61	147.45
422.80	53.83
422.99	112.35
423.18	79.58
423.37	51.49
423.56	100.64
423.75	60.85
423.94	135.75
424.13	100.64
424.32	91.28
424.50	56.17
424.69	126.39
424.88	154.48
425.07	124.05
425.26	107.66
425.45	163.84
425.64	95.96
425.83	173.20
426.01	182.56
426.20	126.39
426.39	46.81
426.58	81.92
426.77	138.09
426.96	100.64
427.15	53.83
427.33	70.22
427.52	114.69
427.71	63.19
427.90	198.95
428.09	102.98
428.28	154.48
428.46	100.64
428.65	58.51
428.84	142.77
429.03	67.88
429.22	77.24
429.40	72.56
429.59	74.90
429.78	145.11
429.97	105.32
430.16	74.90
430.34	81.92
430.53	42.13
430.72	131.07
430.91	117.03
431.10	149.79
431.28	63.19
431.47	93.62
431.66	107.66
431.85	39.79
432.03	77.24
432.22	135.75
432.41	152.13
432.60	140.43
432.79	126.39
432.97	140.43
433.16	91.28
433.35	149.79
433.54	112.35
433.72	107.66
433.91	145.11
434.10	117.03
434.28	72.56
434.47	93.62
434.66	147.45
434.85	187.24
435.03	168.52
435.22	170.86
435.41	124.05
435.59	152.13
435.78	163.84
435.97	110.01
436.16	70.22
436.34	145.11
436.53	217.67
436.72	154.48
436.90	131.07
437.09	140.43
437.28	140.43
437.46	133.41
437.65	121.71
437.84	112.35
438.02	142.77
438.21	117.03
438.40	25.75
438.58	79.58
438.77	126.39
438.96	95.96
439.14	81.92
439.33	72.56
439.52	121.71
439.70	77.24
439.89	88.94
440.08	84.26
440.26	119.37
440.45	117.03
440.63	112.35
440.82	86.60
441.01	88.94
441.19	163.84
441.38	105.32
441.57	187.24
441.75	114.69
441.94	168.52
442.12	184.90
442.31	177.88
442.50	91.28
442.68	114.69
442.87	124.05
443.05	86.60
443.24	124.05
443.43	138.09
443.61	173.20
443.80	131.07
443.98	166.18
444.17	145.11
444.35	196.60
444.54	110.01
444.73	88.94
444.91	107.66
445.10	102.98
445.28	154.48
445.47	98.30
445.65	60.85
445.84	112.35
446.02	77.24
446.21	121.71
446.39	107.66
446.58	114.69
446.77	117.03
446.95	149.79
447.14	145.11
447.32	175.54
447.51	194.26
447.69	217.67
447.88	161.50
448.06	124.05
448.25	121.71
448.43	138.09
448.62	93.62
448.80	110.01
448.99	173.20
449.17	138.09
449.36	140.43
449.54	175.54
449.73	119.37
449.91	182.56
450.10	84.26
450.28	119.37
450.46	91.28
450.65	166.18
450.83	95.96
451.02	112.35
451.20	114.69
451.39	107.66
451.57	126.39
451.76	138.09
451.94	196.60
452.13	79.58
452.31	154.48
452.49	124.05
452.68	110.01
452.86	58.51
453.05	163.84
453.23	149.79
453.42	152.13
453.60	131.07
453.78	119.37
453.97	105.32
454.15	154.48
454.34	49.15
454.52	114.69
454.70	182.56
454.89	112.35
455.07	60.85
455.26	154.48
455.44	161.50
455.62	149.79
455.81	119.37
455.99	147.45
456.17	126.39
456.36	119.37
456.54	142.77
456.73	159.16
456.91	166.18
457.09	173.20
457.28	152.13
457.46	159.16
457.64	147.45
457.83	124.05
458.01	117.03
458.19	102.98
458.38	140.43
458.56	203.63
458.74	156.82
458.93	91.28
459.11	145.11
459.29	107.66
459.48	229.37
459.66	121.71
459.84	135.75
460.03	189.58
460.21	154.48
460.39	147.45
460.57	166.18
460.76	105.32
460.94	142.77
461.12	184.90
461.31	72.56
461.49	114.69
461.67	95.96
461.85	187.24
462.04	135.75
462.22	276.18
462.40	156.82
462.59	198.95
462.77	138.09
462.95	126.39
463.13	98.30
463.32	100.64
463.50	105.32
463.68	86.60
463.86	117.03
464.05	93.62
464.23	201.29
464.41	177.88
464.59	117.03
464.78	154.48
464.96	124.05
465.14	168.52
465.32	140.43
465.50	180.22
465.69	212.99
465.87	121.71
466.05	154.48
466.23	156.82
466.41	159.16
466.60	145.11
466.78	121.71
466.96	191.92
467.14	182.56
467.32	159.16
467.51	152.13
467.69	238.73
467.87	152.13
468.05	107.66
468.23	248.10
468.41	98.30
468.60	140.43
468.78	156.82
468.96	194.26
469.14	182.56
469.32	152.13
469.50	63.19
469.69	121.71
469.87	156.82
470.05	70.22
470.23	133.41
470.41	198.95
470.59	121.71
470.77	159.16
470.95	88.94
471.14	175.54
471.32	149.79
471.50	135.75
471.68	177.88
471.86	107.66
472.04	131.07
472.22	135.75
472.40	102.98
472.58	112.35
472.77	114.69
472.95	58.51
473.13	194.26
473.31	177.88
473.49	159.16
473.67	93.62
473.85	126.39
474.03	152.13
474.21	133.41
474.39	222.35
474.57	224.69
474.75	205.97
474.93	142.77
475.12	166.18
475.30	177.88
475.48	180.22
475.66	140.43
475.84	133.41
476.02	189.58
476.20	117.03
476.38	128.73
476.56	201.29
476.74	168.52
476.92	133.41
477.10	173.20
477.28	166.18
477.46	138.09
477.64	210.65
477.82	168.52
478.00	175.54
478.18	175.54
478.36	91.28
478.54	210.65
478.72	124.05
478.90	180.22
479.08	140.43
479.26	156.82
479.44	140.43
479.62	77.24
479.80	156.82
479.98	107.66
480.16	182.56
480.34	128.73
480.52	140.43
480.70	187.24
480.88	110.01
481.06	187.24
481.24	142.77
481.41	166.18
481.59	152.13
481.77	177.88
481.95	177.88
482.13	201.29
482.31	182.56
482.49	212.99
482.67	229.37
482.85	147.45
483.03	100.64
483.21	88.94
483.39	79.58
483.57	154.48
483.74	79.58
483.92	154.48
484.10	231.71
484.28	154.48
484.46	238.73
484.64	166.18
484.82	173.20
485.00	128.73
485.18	145.11
485.35	138.09
485.53	119.37
485.71	131.07
485.89	180.22
486.07	110.01
486.25	175.54
486.43	138.09
486.61	182.56
486.78	161.50
486.96	119.37
487.14	156.82
487.32	166.18
487.50	100.64
487.68	196.60
487.85	170.86
488.03	191.92
488.21	159.16
488.39	203.63
488.57	187.24
488.75	140.43
488.92	425.98
489.10	175.54
489.28	184.90
489.46	88.94
489.64	168.52
489.81	131.07
489.99	224.69
490.17	191.92
490.35	198.95
490.53	182.56
490.70	191.92
490.88	196.60
491.06	191.92
491.24	182.56
491.41	177.88
491.59	201.29
491.77	140.43
491.95	159.16
492.13	194.26
492.30	198.95
492.48	222.35
492.66	170.86
492.84	149.79
493.01	133.41
493.19	124.05
493.37	173.20
493.54	189.58
493.72	147.45
493.90	180.22
494.08	117.03
494.25	205.97
494.43	159.16
494.61	170.86
494.79	194.26
494.96	98.30
495.14	170.86
495.32	222.35
495.49	131.07
495.67	170.86
495.85	119.37
496.02	194.26
496.20	189.58
496.38	210.65
496.55	220.01
496.73	198.95
496.91	182.56
497.09	180.22
497.26	191.92
497.44	203.63
497.62	238.73
497.79	222.35
497.97	175.54
498.14	154.48
498.32	243.42
498.50	212.99
498.67	88.94
498.85	182.56
499.03	175.54
499.20	161.50
499.38	142.77
499.56	189.58
499.73	264.48
499.91	182.56
500.08	241.08
500.26	194.26
500.44	208.31
500.61	210.65
500.79	184.90
500.97	198.95
501.14	248.10
501.32	177.88
501.49	248.10
501.67	238.73
501.84	212.99
502.02	105.32
502.20	196.60
502.37	231.71
502.55	245.76
502.72	154.48
502.90	152.13
503.07	217.67
503.25	124.05
503.43	208.31
503.60	208.31
503.78	201.29
503.95	205.97
504.13	135.75
504.30	248.10
504.48	212.99
504.65	166.18
504.83	175.54
505.01	201.29
505.18	220.01
505.36	208.31
505.53	227.03
505.71	149.79
505.88	224.69
506.06	222.35
506.23	227.03
506.41	168.52
506.58	98.30
506.76	245.76
506.93	107.66
507.11	215.33
507.28	248.10
507.46	241.08
507.63	159.16
507.81	224.69
507.98	128.73
508.16	166.18
508.33	173.20
508.50	117.03
508.68	220.01
508.85	215.33
509.03	238.73
509.20	208.31
509.38	191.92
509.55	257.46
509.73	194.26
509.90	234.05
510.08	177.88
510.25	262.14
510.42	105.32
510.60	243.42
510.77	210.65
510.95	217.67
511.12	194.26
511.30	191.92
511.47	173.20
511.64	283.20
511.82	187.24
511.99	119.37
512.17	227.03
512.34	210.65
512.51	180.22
512.69	128.73
512.86	224.69
513.04	222.35
513.21	220.01
513.38	236.39
513.56	107.66
513.73	196.60
513.90	229.37
514.08	163.84
514.25	262.14
514.43	142.77
514.60	166.18
514.77	215.33
514.95	170.86
515.12	184.90
515.29	229.37
515.47	210.65
515.64	187.24
515.81	234.05
515.99	234.05
516.16	234.05
516.33	149.79
516.51	184.90
516.68	128.73
516.85	166.18
517.03	212.99
517.20	133.41
517.37	138.09
517.54	145.11
517.72	196.60
517.89	173.20
518.06	154.48
518.24	257.46
518.41	177.88
518.58	189.58
518.75	166.18
518.93	248.10
519.10	217.67
519.27	196.60
519.45	231.71
519.62	224.69
519.79	201.29
519.96	217.67
520.14	229.37
520.31	259.80
520.48	205.97
520.65	238.73
520.83	159.16
521.00	205.97
521.17	189.58
521.34	191.92
521.52	273.84
521.69	119.37
521.86	241.08
522.03	224.69
522.20	250.44
522.38	191.92
522.55	168.52
522.72	198.95
522.89	175.54
523.07	245.76
523.24	180.22
523.41	170.86
523.58	234.05
523.75	248.10
523.92	215.33
524.10	210.65
524.27	241.08
524.44	229.37
524.61	241.08
524.78	266.82
524.96	227.03
525.13	205.97
525.30	259.80
525.47	191.92
525.64	257.46
525.81	189.58
525.98	243.42
526.16	182.56
526.33	147.45
526.50	147.45
526.67	156.82
526.84	154.48
527.01	205.97
527.18	182.56
527.36	315.97
527.53	142.77
527.70	196.60
527.87	191.92
528.04	234.05
528.21	187.24
528.38	299.59
528.55	191.92
528.72	245.76
528.89	205.97
529.07	194.26
529.24	205.97
529.41	128.73
529.58	201.29
529.75	112.35
529.92	170.86
530.09	243.42
530.26	236.39
530.43	173.20
530.60	173.20
530.77	189.58
530.94	266.82
531.11	187.24
531.28	212.99
531.46	105.32
531.63	156.82
531.80	264.48
531.97	248.10
532.14	166.18
532.31	152.13
532.48	184.90
532.65	215.33
532.82	133.41
532.99	175.54
533.16	191.92
533.33	351.08
533.50	187.24
533.67	159.16
533.84	149.79
534.01	231.71
534.18	245.76
534.35	222.35
534.52	224.69
534.69	353.42
534.86	220.01
535.03	187.24
535.20	196.60
535.37	257.46
535.54	191.92
535.71	248.10
535.88	238.73
536.05	168.52
536.22	257.46
536.38	201.29
536.55	231.71
536.72	262.14
536.89	208.31
537.06	203.63
537.23	152.13
537.40	194.26
537.57	269.16
537.74	229.37
537.91	273.84
538.08	173.20
538.25	189.58
538.42	168.52
538.59	184.90
538.75	173.20
538.92	243.42
539.09	241.08
539.26	191.92
539.43	229.37
539.60	145.11
539.77	217.67
539.94	163.84
540.11	278.52
540.28	196.60
540.44	262.14
540.61	205.97
540.78	128.73
540.95	114.69
541.12	252.78
541.29	208.31
541.46	266.82
541.62	238.73
541.79	177.88
541.96	212.99
542.13	203.63
542.30	154.48
542.47	182.56
542.63	173.20
542.80	205.97
542.97	241.08
543.14	205.97
543.31	241.08
543.48	191.92
543.64	135.75
543.81	159.16
543.98	252.78
544.15	145.11
544.32	187.24
544.48	177.88
544.65	243.42
544.82	201.29
544.99	217.67
545.16	280.86
545.32	140.43
545.49	273.84
545.66	290.23
545.83	220.01
546.00	180.22
546.16	191.92
546.33	166.18
546.50	231.71
546.67	208.31
546.83	259.80
547.00	208.31
547.17	203.63
547.34	182.56
547.50	212.99
547.67	217.67
547.84	262.14
548.00	205.97
548.17	191.92
548.34	184.90
548.51	215.33
548.67	201.29
548.84	196.60
549.01	250.44
549.18	241.08
549.34	201.29
549.51	184.90
549.68	198.95
549.84	255.12
550.01	175.54
550.18	395.55
550.34	255.12
550.51	243.42
550.68	287.89
550.84	273.84
551.01	227.03
551.18	203.63
551.34	229.37
551.51	280.86
551.68	161.50
551.84	135.75
552.01	201.29
552.18	198.95
552.34	215.33
552.51	208.31
552.68	250.44
552.84	245.76
553.01	203.63
553.18	180.22
553.34	250.44
553.51	201.29
553.67	238.73
553.84	264.48
554.01	229.37
554.17	222.35
554.34	245.76
554.51	224.69
554.67	238.73
554.84	168.52
555.00	201.29
555.17	252.78
555.33	250.44
555.50	245.76
555.67	208.31
555.83	105.32
556.00	222.35
556.16	379.17
556.33	248.10
556.50	212.99
556.66	168.52
556.83	117.03
556.99	168.52
557.16	194.26
557.32	170.86
557.49	166.18
557.65	212.99
557.82	128.73
557.98	248.10
558.15	241.08
558.32	163.84
558.48	201.29
558.65	238.73
558.81	191.92
558.98	147.45
559.14	229.37
559.31	234.05
559.47	210.65
559.64	175.54
559.80	210.65
559.97	203.63
560.13	126.39
560.30	98.30
560.46	248.10
560.63	128.73
560.79	175.54
560.96	198.95
561.12	152.13
561.29	241.08
561.45	285.55
561.61	220.01
561.78	276.18
561.94	201.29
562.11	149.79
562.27	196.60
562.44	229.37
562.60	257.46
562.77	156.82
562.93	271.50
563.10	234.05
563.26	208.31
563.42	212.99
563.59	182.56
563.75	170.86
563.92	198.95
564.08	229.37
564.24	229.37
564.41	210.65
564.57	140.43
564.74	189.58
564.90	252.78
565.07	266.82
565.23	278.52
565.39	205.97
565.56	131.07
565.72	161.50
565.88	159.16
566.05	145.11
566.21	184.90
566.38	224.69
566.54	205.97
566.70	187.24
566.87	135.75
567.03	180.22
567.19	208.31
567.36	210.65
567.52	149.79
567.68	220.01
567.85	124.05
568.01	191.92
568.17	203.63
568.34	245.76
568.50	222.35
568.66	210.65
568.83	243.42
568.99	210.65
569.15	180.22
569.32	189.58
569.48	191.92
569.64	154.48
569.81	201.29
569.97	227.03
570.13	220.01
570.30	156.82
570.46	224.69
570.62	121.71
570.78	149.79
570.95	142.77
571.11	243.42
571.27	140.43
571.43	170.86
571.60	245.76
571.76	147.45
571.92	163.84
572.09	175.54
572.25	175.54
572.41	154.48
572.57	222.35
572.74	234.05
572.90	196.60
573.06	194.26
573.22	220.01
573.38	236.39
573.55	236.39
573.71	191.92
573.87	229.37
574.03	182.56
574.20	196.60
574.36	203.63
574.52	224.69
574.68	222.35
574.84	168.52
575.01	243.42
575.17	243.42
575.33	156.82
575.49	273.84
575.65	222.35
575.82	177.88
575.98	215.33
576.14	212.99
576.30	175.54
576.46	196.60
576.62	187.24
576.79	252.78
576.95	224.69
577.11	234.05
577.27	215.33
577.43	203.63
577.59	224.69
577.75	201.29
577.92	231.71
578.08	149.79
578.24	217.67
578.40	245.76
578.56	215.33
578.72	234.05
578.88	248.10
579.04	194.26
579.21	177.88
579.37	210.65
579.53	234.05
579.69	220.01
579.85	152.13
580.01	173.20
580.17	203.63
580.33	208.31
580.49	222.35
580.65	133.41
580.82	142.77
580.98	145.11
581.14	152.13
581.30	175.54
581.46	166.18
581.62	161.50
581.78	191.92
581.94	210.65
582.10	74.90
582.26	154.48
582.42	191.92
582.58	205.97
582.74	170.86
582.90	229.37
583.06	234.05
583.22	177.88
583.38	194.26
583.54	189.58
583.70	187.24
583.86	215.33
584.02	170.86
584.18	280.86
584.34	145.11
584.50	205.97
584.66	198.95
584.82	166.18
584.98	154.48
585.14	201.29
585.30	255.12
585.46	234.05
585.62	124.05
585.78	95.96
585.94	215.33
586.10	166.18
586.26	194.26
586.42	236.39
586.58	149.79
586.74	205.97
586.90	215.33
587.06	168.52
587.22	189.58
587.38	147.45
587.54	114.69
587.70	93.62
587.86	124.05
588.02	166.18
588.18	152.13
588.34	241.08
588.49	93.62
588.65	159.16
588.81	212.99
588.97	128.73
589.13	105.32
589.29	128.73
589.45	180.22
589.61	170.86
589.77	234.05
589.93	203.63
590.08	203.63
590.24	201.29
590.40	135.75
590.56	201.29
590.72	215.33
590.88	208.31
591.04	205.97
591.20	182.56
591.35	175.54
591.51	205.97
591.67	117.03
591.83	110.01
591.99	102.98
592.15	205.97
592.31	175.54
592.46	255.12
592.62	173.20
592.78	114.69
592.94	121.71
593.10	161.50
593.26	147.45
593.41	203.63
593.57	152.13
593.73	229.37
593.89	243.42
594.05	187.24
594.20	114.69
594.36	152.13
594.52	161.50
594.68	138.09
594.84	245.76
594.99	138.09
595.15	257.46
595.31	210.65
595.47	224.69
595.62	175.54
595.78	194.26
595.94	173.20
596.10	159.16
596.25	198.95
596.41	227.03
596.57	163.84
596.73	156.82
596.88	163.84
597.04	156.82
597.20	133.41
597.36	98.30
597.51	189.58
597.67	217.67
597.83	173.20
597.99	156.82
598.14	84.26
598.30	142.77
598.46	142.77
598.61	114.69
598.77	266.82
598.93	145.11
599.09	156.82
599.24	222.35
599.40	145.11
599.56	201.29
599.71	234.05
599.87	114.69
600.03	166.18
600.18	203.63
600.34	182.56
600.50	163.84
600.65	135.75
600.81	187.24
600.97	210.65
601.12	266.82
601.28	222.35
601.44	107.66
601.59	234.05
601.75	163.84
601.91	112.35
602.06	180.22
602.22	248.10
602.37	163.84
602.53	203.63
602.69	173.20
602.84	112.35
603.00	217.67
603.16	147.45
603.31	222.35
603.47	173.20
603.62	159.16
603.78	248.10
603.94	187.24
604.09	170.86
604.25	191.92
604.40	264.48
604.56	147.45
604.71	175.54
604.87	203.63
605.03	142.77
605.18	271.50
605.34	234.05
605.49	175.54
605.65	210.65
605.80	133.41
605.96	161.50
606.12	170.86
606.27	198.95
606.43	252.78
606.58	175.54
606.74	149.79
606.89	161.50
607.05	154.48
607.20	145.11
607.36	170.86
607.51	166.18
607.67	154.48
607.82	227.03
607.98	147.45
608.13	196.60
608.29	156.82
608.44	147.45
608.60	147.45
608.75	234.05
608.91	180.22
609.06	215.33
609.22	191.92
609.37	182.56
609.53	173.20
609.68	196.60
609.84	163.84
609.99	191.92
610.15	194.26
610.30	184.90
610.46	266.82
610.61	168.52
610.76	215.33
610.92	184.90
611.07	173.20
611.23	241.08
611.38	196.60
611.54	180.22
611.69	98.30
611.84	168.52
612.00	196.60
612.15	121.71
612.31	231.71
612.46	217.67
612.62	163.84
612.77	252.78
612.92	217.67
613.08	229.37
613.23	180.22
613.39	182.56
613.54	227.03
613.69	163.84
613.85	51.49
614.00	166.18
614.15	142.77
614.31	177.88
614.46	234.05
614.62	203.63
614.77	194.26
614.92	128.73
615.08	168.52
615.23	220.01
615.38	168.52
615.54	133.41
615.69	112.35
615.84	203.63
616.00	196.60
616.15	166.18
616.30	110.01
616.46	133.41
616.61	180.22
616.76	124.05
616.92	159.16
617.07	168.52
617.22	175.54
617.37	173.20
617.53	114.69
617.68	140.43
617.83	126.39
617.99	248.10
618.14	133.41
618.29	210.65
618.45	215.33
618.60	177.88
618.75	217.67
618.90	74.90
619.06	140.43
619.21	208.31
619.36	194.26
619.51	182.56
619.67	173.20
619.82	163.84
619.97	173.20
620.12	168.52
620.28	119.37
620.43	163.84
620.58	180.22
620.73	229.37
620.89	208.31
621.04	145.11
621.19	166.18
621.34	93.62
621.49	177.88
621.65	166.18
621.80	191.92
621.95	224.69
622.10	189.58
622.25	112.35
622.41	84.26
622.56	149.79
622.71	180.22
622.86	170.86
623.01	180.22
623.16	217.67
623.32	208.31
623.47	138.09
623.62	102.98
623.77	98.30
623.92	163.84
624.07	173.20
624.23	114.69
624.38	119.37
624.53	147.45
624.68	128.73
624.83	131.07
624.98	173.20
625.13	170.86
625.29	149.79
625.44	208.31
625.59	152.13
625.74	220.01
625.89	222.35
626.04	184.90
626.19	187.24
626.34	180.22
626.49	184.90
626.65	142.77
626.80	93.62
626.95	191.92
627.10	175.54
627.25	159.16
627.40	131.07
627.55	212.99
627.70	187.24
627.85	147.45
628.00	220.01
628.15	184.90
628.30	184.90
628.45	149.79
628.60	133.41
628.76	215.33
628.91	201.29
629.06	145.11
629.21	142.77
629.36	229.37
629.51	117.03
629.66	138.09
629.81	53.83
629.96	142.77
630.11	194.26
630.26	187.24
630.41	110.01
630.56	88.94
630.71	170.86
630.86	161.50
631.01	133.41
631.16	147.45
631.31	229.37
631.46	142.77
631.61	128.73
631.76	142.77
631.91	117.03
632.06	161.50
632.21	208.31
632.36	163.84
632.51	168.52
632.66	81.92
632.81	170.86
632.96	187.24
633.10	156.82
633.25	121.71
633.40	170.86
633.55	198.95
633.70	145.11
633.85	205.97
634.00	156.82
634.15	84.26
634.30	100.64
634.45	170.86
634.60	138.09
634.75	191.92
634.90	100.64
635.05	156.82
635.19	220.01
635.34	187.24
635.49	168.52
635.64	163.84
635.79	194.26
635.94	222.35
636.09	163.84
636.24	182.56
636.39	168.52
636.53	166.18
636.68	149.79
636.83	107.66
636.98	166.18
637.13	198.95
637.28	196.60
637.43	189.58
637.57	170.86
637.72	180.22
637.87	173.20
638.02	60.85
638.17	32.77
638.32	140.43
638.46	166.18
638.61	140.43
638.76	161.50
638.91	100.64
639.06	173.20
639.20	168.52
639.35	215.33
639.50	95.96
639.65	227.03
639.80	163.84
639.94	241.08
640.09	159.16
640.24	163.84
640.39	203.63
640.54	180.22
640.68	161.50
640.83	234.05
640.98	170.86
641.13	163.84
641.27	128.73
641.42	210.65
641.57	189.58
641.72	138.09
641.86	168.52
642.01	131.07
642.16	133.41
642.31	114.69
642.45	205.97
642.60	180.22
642.75	170.86
642.90	175.54
643.04	201.29
643.19	135.75
643.34	166.18
643.48	191.92
643.63	142.77
643.78	135.75
643.93	264.48
644.07	156.82
644.22	112.35
644.37	74.90
644.51	198.95
644.66	177.88
644.81	166.18
644.95	145.11
645.10	77.24
645.25	110.01
645.39	128.73
645.54	102.98
645.69	152.13
645.83	142.77
645.98	227.03
646.13	149.79
646.27	177.88
646.42	220.01
646.57	203.63
646.71	168.52
646.86	140.43
647.00	133.41
647.15	187.24
647.30	91.28
647.44	112.35
647.59	88.94
647.74	74.90
647.88	191.92
648.03	102.98
648.17	180.22
648.32	42.13
648.47	105.32
648.61	138.09
648.76	145.11
648.90	147.45
649.05	140.43
649.20	161.50
649.34	70.22
649.49	166.18
649.63	119.37
649.78	112.35
649.92	81.92
650.07	182.56
650.21	187.24
650.36	163.84
650.51	91.28
650.65	170.86
650.80	168.52
650.94	168.52
651.09	140.43
651.23	124.05
651.38	91.28
651.52	72.56
651.67	124.05
651.81	135.75
651.96	135.75
652.10	156.82
652.25	135.75
652.39	175.54
652.54	117.03
652.68	201.29
652.83	161.50
652.97	166.18
653.12	152.13
653.26	119.37
653.41	210.65
653.55	159.16
653.70	91.28
653.84	119.37
653.99	105.32
654.13	107.66
654.27	159.16
654.42	131.07
654.56	175.54
654.71	142.77
654.85	114.69
655.00	142.77
655.14	138.09
655.29	114.69
655.43	112.35
655.57	124.05
655.72	110.01
655.86	168.52
656.01	72.56
656.15	175.54
656.30	159.16
656.44	177.88
656.58	91.28
656.73	140.43
656.87	131.07
657.01	135.75
657.16	280.86
657.30	140.43
657.45	135.75
657.59	142.77
657.73	133.41
657.88	140.43
658.02	285.55
658.16	124.05
658.31	173.20
658.45	119.37
658.60	110.01
658.74	133.41
658.88	86.60
659.03	166.18
659.17	131.07
659.31	133.41
659.46	133.41
659.60	128.73
659.74	105.32
659.89	124.05
660.03	72.56
660.17	131.07
660.32	156.82
660.46	177.88
660.60	100.64
660.74	166.18
660.89	114.69
661.03	98.30
661.17	128.73
661.32	95.96
661.46	184.90
661.60	74.90
661.74	152.13
661.89	140.43
662.03	152.13
662.17	79.58
662.31	100.64
662.46	163.84
662.60	182.56
662.74	91.28
662.88	142.77
663.03	191.92
663.17	138.09
663.31	126.39
663.45	201.29
663.60	117.03
663.74	126.39
663.88	159.16
664.02	180.22
664.17	81.92
664.31	154.48
664.45	189.58
664.59	128.73
664.73	168.52
664.88	102.98
665.02	102.98
665.16	93.62
665.30	243.42
665.44	184.90
665.59	159.16
665.73	154.48
665.87	100.64
666.01	159.16
666.15	133.41
666.29	77.24
666.44	217.67
666.58	154.48
666.72	133.41
666.86	140.43
667.00	252.78
667.14	149.79
667.28	154.48
667.43	131.07
667.57	88.94
667.71	152.13
667.85	135.75
667.99	121.71
668.13	126.39
668.27	161.50
668.41	154.48
668.56	135.75
668.70	140.43
668.84	102.98
668.98	152.13
669.12	126.39
669.26	117.03
669.40	168.52
669.54	124.05
669.68	194.26
669.82	107.66
669.96	126.39
670.10	175.54
670.25	154.48
670.39	159.16
670.53	107.66
670.67	65.54
670.81	44.47
670.95	133.41
671.09	170.86
671.23	177.88
671.37	168.52
671.51	147.45
671.65	159.16
671.79	60.85
671.93	140.43
672.07	168.52
672.21	70.22
672.35	100.64
672.49	159.16
672.63	182.56
672.77	98.30
672.91	121.71
673.05	138.09
673.19	140.43
673.33	126.39
673.47	86.60
673.61	168.52
673.75	161.50
673.89	84.26
674.03	102.98
674.17	147.45
674.31	241.08
674.45	175.54
674.59	107.66
674.73	191.92
674.87	128.73
675.01	145.11
675.15	72.56
675.29	184.90
675.43	187.24
675.56	236.39
675.70	149.79
675.84	112.35
675.98	93.62
676.12	173.20
676.26	105.32
676.40	102.98
676.54	138.09
676.68	138.09
676.82	196.60
676.96	100.64
677.10	105.32
677.23	112.35
677.37	138.09
677.51	138.09
677.65	222.35
677.79	124.05
677.93	138.09
678.07	88.94
678.21	102.98
678.34	74.90
678.48	91.28
678.62	154.48
678.76	39.79
678.90	196.60
679.04	241.08
679.18	105.32
679.31	128.73
679.45	81.92
679.59	145.11
679.73	152.13
679.87	102.98
680.00	93.62
680.14	145.11
680.28	114.69
680.42	56.17
680.56	98.30
680.70	98.30
680.83	163.84
680.97	72.56
681.11	81.92
681.25	147.45
681.39	91.28
681.52	110.01
681.66	131.07
681.80	152.13
681.94	84.26
682.07	119.37
682.21	152.13
682.35	135.75
682.49	56.17
682.62	201.29
682.76	117.03
682.90	102.98
683.04	102.98
683.17	102.98
683.31	128.73
683.45	161.50
683.59	180.22
683.72	152.13
683.86	131.07
684.00	107.66
684.13	100.64
684.27	133.41
684.41	100.64
684.55	180.22
684.68	86.60
684.82	51.49
684.96	107.66
685.09	149.79
685.23	56.17
685.37	70.22
685.50	88.94
685.64	135.75
685.78	163.84
685.91	107.66
686.05	166.18
686.19	107.66
686.32	126.39
686.46	173.20
686.60	79.58
686.73	145.11
686.87	74.90
687.01	100.64
687.14	65.54
687.28	58.51
687.42	102.98
687.55	117.03
687.69	114.69
687.82	98.30
687.96	46.81
688.10	166.18
688.23	189.58
688.37	142.77
688.50	79.58
688.64	74.90
688.78	112.35
688.91	156.82
689.05	88.94
689.18	102.98
689.32	95.96
689.46	110.01
689.59	163.84
689.73	110.01
689.86	60.85
690.00	110.01
690.13	72.56
690.27	42.13
690.41	149.79
690.54	77.24
690.68	79.58
690.81	49.15
690.95	114.69
691.08	117.03
691.22	91.28
691.35	105.32
691.49	88.94
691.62	121.71
691.76	98.30
691.89	114.69
692.03	119.37
692.16	58.51
692.30	154.48
692.43	93.62
692.57	121.71
692.70	81.92
692.84	77.24
692.97	159.16
693.11	30.43
693.24	30.43
693.38	114.69
693.51	114.69
693.65	117.03
693.78	102.98
693.92	0.00
694.05	128.73
694.19	91.28
694.32	86.60
694.45	100.64
694.59	102.98
694.72	119.37
694.86	77.24
694.99	152.13
695.13	46.81
695.26	72.56
695.39	67.88
695.53	145.11
695.66	212.99
695.80	140.43
695.93	72.56
696.07	72.56
696.20	72.56
696.33	102.98
696.47	67.88
696.60	107.66
696.73	110.01
696.87	173.20
697.00	131.07
697.14	145.11
697.27	63.19
697.40	168.52
697.54	119.37
697.67	74.90
697.80	79.58
697.94	117.03
698.07	126.39
698.21	126.39
698.34	98.30
698.47	86.60
698.61	11.70
698.74	119.37
698.87	44.47
699.01	138.09
699.14	156.82
699.27	67.88
699.40	189.58
699.54	145.11
699.67	67.88
699.80	37.45
699.94	107.66
700.07	72.56
700.20	145.11
700.34	63.19
700.47	37.45
700.60	145.11
700.73	95.96
700.87	102.98
701.00	98.30
701.13	93.62
701.26	119.37
701.40	105.32
701.53	23.41
701.66	100.64
701.79	91.28
701.93	117.03
702.06	140.43
702.19	95.96
702.32	37.45
702.46	46.81
702.59	81.92
702.72	166.18
702.85	70.22
702.99	93.62
703.12	121.71
703.25	56.17
703.38	0.00
703.51	105.32
703.65	121.71
703.78	23.41
703.91	110.01
704.04	142.77
704.17	117.03
704.31	117.03
704.44	170.86
704.57	67.88
704.70	46.81
704.83	112.35
704.96	131.07
705.10	95.96
705.23	79.58
>>>>>End Processed Spectral Data<<<<<
