SpectraSuite Data File
++++++++++++++++++++++++++++++++++++
Date: Fri Oct 04 11:48:43 GMT-05:00 2013
User: price-jones
Dark Spectrum Present: No
Reference Spectrum Present: No
Number of Sampled Component Spectra: 1
Spectrometers: USB2+H05261
Integration Time (usec): 100000 (USB2+H05261)
Spectra Averaged: 1 (USB2+H05261)
Boxcar Smoothing: 0 (USB2+H05261)
Correct for Electrical Dark: No (USB2+H05261)
Strobe/Lamp Enabled: No (USB2+H05261)
Correct for Detector Non-linearity: No (USB2+H05261)
Correct for Stray Light: No (USB2+H05261)
Number of Pixels in Processed Spectrum: 2048
>>>>>Begin Processed Spectral Data<<<<<
365.73	37.45
365.92	37.45
366.12	37.45
366.32	0.00
366.52	0.00
366.72	0.00
366.91	0.00
367.11	0.00
367.31	0.00
367.51	0.00
367.70	0.00
367.90	0.00
368.10	0.00
368.30	0.00
368.49	0.00
368.69	0.00
368.89	0.00
369.09	0.00
369.28	0.00
369.48	0.00
369.68	0.00
369.87	0.00
370.07	14.04
370.27	0.00
370.47	21.06
370.66	191.92
370.86	180.22
371.06	248.10
371.25	252.78
371.45	229.37
371.65	255.12
371.84	161.50
372.04	191.92
372.24	210.65
372.44	215.33
372.63	271.50
372.83	269.16
373.03	315.97
373.22	257.46
373.42	243.42
373.62	292.57
373.81	294.91
374.01	262.14
374.21	290.23
374.40	205.97
374.60	278.52
374.79	250.44
374.99	306.61
375.19	262.14
375.38	332.36
375.58	294.91
375.78	320.65
375.97	355.76
376.17	383.85
376.37	304.27
376.56	327.68
376.76	292.57
376.95	220.01
377.15	283.20
377.35	353.42
377.54	332.36
377.74	379.17
377.93	292.57
378.13	243.42
378.33	390.87
378.52	315.97
378.72	315.97
378.91	369.80
379.11	308.95
379.31	360.44
379.50	287.89
379.70	339.38
379.89	252.78
380.09	280.86
380.28	297.25
380.48	311.29
380.68	313.63
380.87	330.02
381.07	393.21
381.26	437.68
381.46	292.57
381.65	348.74
381.85	346.40
382.04	381.51
382.24	428.32
382.43	414.27
382.63	369.80
382.83	365.12
383.02	383.85
383.22	379.17
383.41	386.19
383.61	470.45
383.80	365.12
384.00	425.98
384.19	437.68
384.39	393.21
384.58	454.06
384.78	379.17
384.97	379.17
385.17	430.66
385.36	404.91
385.56	482.15
385.75	447.04
385.95	418.96
386.14	489.17
386.34	482.15
386.53	479.81
386.72	428.32
386.92	418.96
387.11	369.80
387.31	444.70
387.50	449.38
387.70	463.43
387.89	402.57
388.09	362.78
388.28	409.59
388.48	414.27
388.67	510.24
388.86	465.77
389.06	407.25
389.25	580.45
389.45	447.04
389.64	510.24
389.84	510.24
390.03	524.28
390.22	496.19
390.42	461.09
390.61	526.62
390.81	491.51
391.00	547.69
391.19	657.69
391.39	566.41
391.58	554.71
391.78	547.69
391.97	582.79
392.16	528.96
392.36	648.33
392.55	564.07
392.75	500.87
392.94	575.77
393.13	545.34
393.33	507.90
393.52	528.96
393.71	643.65
393.91	550.03
394.10	568.75
394.29	512.58
394.49	540.66
394.68	674.07
394.88	650.67
395.07	697.48
395.26	615.56
395.46	636.63
395.65	657.69
395.84	650.67
396.04	730.25
396.23	688.12
396.42	702.16
396.62	681.10
396.81	690.46
397.00	690.46
397.19	720.88
397.39	653.01
397.58	725.57
397.77	699.82
397.97	746.63
398.16	753.65
398.35	798.12
398.55	772.38
398.74	798.12
398.93	767.70
399.12	770.04
399.32	877.70
399.51	814.51
399.70	912.81
399.90	807.48
400.09	854.30
400.28	840.25
400.47	805.14
400.67	868.34
400.86	870.68
401.05	875.36
401.24	931.53
401.44	908.13
401.63	910.47
401.82	964.30
402.01	889.40
402.21	891.74
402.40	912.81
402.59	959.62
402.78	1020.47
402.97	987.71
403.17	1001.75
403.36	973.66
403.55	1025.15
403.74	1006.43
403.93	1100.05
404.13	1078.99
404.32	929.19
404.51	1027.50
404.70	1095.37
404.89	1158.57
405.09	1160.91
405.28	1165.59
405.47	1109.41
405.66	1167.93
405.85	1149.20
406.05	1153.88
406.24	1245.16
406.43	1212.40
406.62	1226.44
406.81	1362.19
407.00	1294.32
407.20	1179.63
407.39	1270.91
407.58	1310.70
407.77	1355.17
407.96	1378.58
408.15	1322.40
408.34	1387.94
408.54	1350.49
408.73	1462.83
408.92	1448.79
409.11	1483.90
409.30	1500.28
409.49	1486.24
409.68	1345.81
409.87	1404.32
410.07	1458.15
410.26	1544.75
410.45	1441.77
410.64	1493.26
410.83	1551.78
411.02	1605.61
411.21	1666.46
411.40	1624.33
411.59	1612.63
411.78	1650.08
411.98	1724.97
412.17	1685.19
412.36	1701.57
412.55	1778.81
412.74	1720.29
412.93	1795.19
413.12	1816.26
413.31	1888.81
413.50	1797.53
413.69	1966.05
413.88	1867.75
414.07	1837.32
414.26	1849.02
414.45	2092.44
414.64	1970.73
414.83	1947.33
415.02	2024.56
415.22	1973.07
415.41	2033.93
415.60	2045.63
415.79	2040.95
415.98	2139.25
416.17	2127.55
416.36	2216.49
416.55	2108.82
416.74	2190.74
416.93	2303.09
417.12	2260.96
417.31	2223.51
417.50	2157.97
417.69	2387.35
417.88	2382.67
418.07	2279.68
418.26	2331.17
418.45	2401.39
418.64	2422.45
418.83	2450.54
419.02	2497.35
419.21	2485.65
419.39	2511.39
419.58	2558.21
419.77	2480.97
419.96	2579.27
420.15	2621.40
420.34	2523.10
420.53	2588.63
420.72	2628.42
420.91	2619.06
421.10	2677.57
421.29	2579.27
421.48	2595.65
421.67	2729.06
421.86	2703.32
422.05	2785.24
422.24	2717.36
422.43	2642.46
422.61	2640.12
422.80	2710.34
422.99	2813.32
423.18	2736.09
423.37	2988.86
423.56	2567.57
423.75	2719.70
423.94	2743.11
424.13	2499.69
424.32	2719.70
424.50	2832.05
424.69	2759.49
424.88	2902.26
425.07	2691.62
425.26	2726.72
425.45	2813.32
425.64	2813.32
425.83	2736.09
426.01	2932.69
426.20	2684.59
426.39	2862.48
426.58	2752.47
426.77	2722.04
426.96	2825.03
427.15	2857.79
427.33	2942.05
427.52	3007.59
427.71	2916.31
427.90	2771.19
428.09	2890.56
428.28	2956.10
428.46	2956.10
428.65	2906.95
428.84	3000.57
429.03	3068.44
429.22	3023.97
429.40	3038.02
429.59	3052.06
429.78	3091.85
429.97	3063.76
430.16	3012.27
430.34	3082.49
430.53	3087.17
430.72	3239.30
430.91	3056.74
431.10	3201.85
431.28	3155.04
431.47	3229.94
431.66	3253.34
431.85	3309.52
432.03	3272.07
432.22	3435.91
432.41	3368.03
432.60	3370.37
432.79	3302.50
432.97	3260.37
433.16	3342.28
433.35	3215.90
433.54	3332.92
433.72	3564.64
433.91	3372.71
434.10	3316.54
434.28	3410.16
434.47	3541.23
434.66	3489.74
434.85	3625.49
435.03	3508.46
435.22	3574.00
435.41	3543.57
435.59	3583.36
435.78	3578.68
435.97	3637.19
436.16	3751.88
436.34	3566.98
436.53	3557.61
436.72	3808.05
436.90	3768.26
437.09	3742.52
437.28	3639.53
437.46	3691.02
437.65	3861.88
437.84	3786.99
438.02	3777.62
438.21	3850.18
438.40	3588.04
438.58	3819.75
438.77	3904.01
438.96	4030.40
439.14	3957.85
439.33	3861.88
439.52	4028.06
439.70	4039.76
439.89	4091.26
440.08	4128.70
440.26	4091.26
440.45	4205.94
440.63	4219.99
440.82	4074.87
441.01	4243.39
441.19	4210.62
441.38	4334.67
441.57	4351.06
441.75	4322.97
441.94	4491.49
442.12	4442.34
442.31	4510.21
442.50	4456.38
442.68	4571.07
442.87	4500.85
443.05	4512.55
443.24	4678.73
443.43	4631.92
443.61	4498.51
443.80	4685.75
443.98	4475.10
444.17	4320.63
444.35	4753.63
444.54	4718.52
444.73	4702.14
444.91	4643.62
445.10	4524.26
445.28	4620.22
445.47	4624.90
445.65	4496.17
445.84	4528.94
446.02	4535.96
446.21	4512.55
446.39	4760.65
446.58	4734.90
446.77	4685.75
446.95	4655.33
447.14	4706.82
447.32	4788.74
447.51	4716.18
447.69	4779.37
447.88	4772.35
448.06	4835.55
448.25	4709.16
448.43	4830.87
448.62	4631.92
448.80	4650.64
448.99	4791.08
449.17	4912.78
449.36	4739.58
449.54	4903.42
449.73	5020.45
449.91	4966.62
450.10	4987.68
450.28	4940.87
450.46	5008.75
450.65	5233.44
450.83	5034.49
451.02	5121.09
451.20	5036.83
451.39	5032.15
451.57	5015.77
451.76	4994.70
451.94	5076.62
452.13	5193.65
452.31	5231.10
452.49	5156.20
452.68	5268.55
452.86	5387.91
453.05	5177.26
453.23	5287.27
453.42	5221.74
453.60	5310.68
453.78	5249.82
453.97	5280.25
454.15	5287.27
454.34	5282.59
454.52	5446.43
454.70	5504.94
454.89	5423.02
455.07	5373.87
455.26	5383.23
455.44	5467.49
455.62	5465.15
455.81	5444.09
455.99	5621.97
456.17	5533.03
456.36	5448.77
456.54	5657.07
456.73	5680.48
456.91	5797.51
457.09	5778.78
457.28	5907.51
457.46	5654.73
457.64	5832.62
457.83	5916.87
458.01	5767.08
458.19	5877.09
458.38	5858.36
458.56	5849.00
458.74	5837.30
458.93	5743.67
459.11	5940.28
459.29	5851.34
459.48	6071.35
459.66	6010.50
459.84	5935.60
460.03	6132.20
460.21	6047.94
460.39	6132.20
460.57	6305.40
460.76	6085.39
460.94	6235.19
461.12	6092.41
461.31	6200.08
461.49	6045.60
461.67	6267.95
461.85	6263.27
462.04	6225.82
462.22	6700.95
462.40	6462.22
462.59	6310.08
462.77	6342.85
462.95	6403.71
463.13	6417.75
463.32	6422.43
463.50	6562.86
463.68	6476.26
463.86	6408.39
464.05	6504.35
464.23	6478.60
464.41	6572.22
464.59	6396.68
464.78	6705.63
464.96	6644.78
465.14	6441.15
465.32	6504.35
465.50	6651.80
465.69	6593.29
465.87	6516.05
466.05	6560.52
466.23	6623.72
466.41	6754.79
466.60	6953.73
466.78	6724.36
466.96	6747.76
467.14	6740.74
467.32	6841.39
467.51	6815.64
467.69	6623.72
467.87	6881.18
468.05	6764.15
468.23	6731.38
468.41	6897.56
468.60	6846.07
468.78	7152.68
468.96	6967.77
469.14	6963.09
469.32	7052.03
469.50	6913.94
469.69	7103.53
469.87	7279.07
470.05	7166.72
470.23	7115.23
470.41	7138.63
470.59	7403.11
470.77	7351.62
470.95	7393.75
471.14	7417.16
471.32	7316.51
471.50	7513.12
471.68	7447.58
471.86	7466.31
472.04	7569.29
472.22	7674.62
472.40	7517.80
472.58	7573.97
472.77	7578.65
472.95	7662.91
473.13	7925.05
473.31	7683.98
473.49	7597.38
473.67	7850.16
473.85	7756.54
474.03	7817.39
474.21	7911.01
474.39	8226.98
474.57	8112.30
474.75	8011.65
474.93	8138.04
475.12	8009.31
475.30	8180.17
475.48	8044.42
475.66	8184.85
475.84	8372.10
476.02	8273.79
476.20	8280.82
476.38	8657.64
476.56	8706.79
476.74	8664.66
476.92	8676.37
477.10	8645.94
477.28	8814.46
477.46	8720.84
477.64	8727.86
477.82	9081.28
478.00	9399.59
478.18	9022.77
478.36	9252.14
478.54	9245.12
478.72	9369.16
478.90	9657.05
479.08	9694.50
479.26	9521.30
479.44	9591.52
479.62	9696.84
479.80	9589.17
479.98	9605.56
480.16	9858.34
480.34	9921.53
480.52	10195.37
480.70	10223.46
480.88	9881.74
481.06	10352.19
481.24	10094.73
481.41	10420.06
481.59	10450.49
481.77	10642.42
481.95	10541.77
482.13	10836.68
482.31	10841.36
482.49	10712.63
482.67	10656.46
482.85	10984.13
483.03	11225.21
483.21	11192.44
483.39	11073.07
483.57	11112.86
483.74	11442.88
483.92	11623.10
484.10	11396.07
484.28	11805.66
484.46	11908.65
484.64	11901.62
484.82	11815.02
485.00	12107.59
485.18	12393.14
485.35	12519.53
485.53	12463.35
485.71	12301.86
485.89	12692.73
486.07	12451.65
486.25	12695.07
486.43	12791.03
486.61	12805.07
486.78	13041.46
486.96	13053.17
487.14	13289.56
487.32	13097.64
487.50	13427.65
487.68	13488.51
487.85	13736.60
488.03	13930.87
488.21	13839.59
488.39	13977.68
488.57	14125.13
488.75	13987.04
488.92	14324.08
489.10	14232.80
489.28	14504.30
489.46	14597.92
489.64	14335.78
489.81	14864.74
489.99	15014.54
490.17	14934.96
490.35	15183.06
490.53	14913.89
490.70	15180.71
490.88	15035.60
491.06	15325.83
491.24	15360.94
491.41	15407.75
491.59	15700.31
491.77	15382.00
491.95	15976.50
492.13	15917.98
492.30	16409.50
492.48	16154.38
492.66	16079.48
492.84	16629.51
493.01	16402.47
493.19	16168.42
493.37	16798.02
493.54	16709.08
493.72	16791.00
493.90	16702.06
494.08	17219.32
494.25	17118.68
494.43	17099.95
494.61	17139.74
494.79	17483.80
494.96	17530.61
495.14	17521.25
495.32	17755.30
495.49	17846.58
495.67	17965.95
495.85	18113.41
496.02	18043.19
496.20	17942.55
496.38	18183.62
496.55	18052.55
496.73	18623.64
496.91	18370.86
497.09	18534.70
497.26	18813.23
497.44	18738.33
497.62	18705.56
497.79	18937.27
497.97	19066.00
498.14	19267.29
498.32	19501.34
498.50	19164.31
498.67	19428.79
498.85	19403.04
499.03	19875.83
499.20	19536.45
499.38	19901.58
499.56	19545.81
499.73	19868.81
499.91	19894.55
500.08	20070.09
500.26	20229.25
500.44	20163.72
500.61	20369.68
500.79	20496.07
500.97	20463.30
501.14	20634.16
501.32	20655.23
501.49	20367.34
501.67	20725.44
501.84	20915.03
502.02	20683.31
502.20	21113.97
502.37	21074.18
502.55	21099.93
502.72	21041.42
502.90	21420.58
503.07	21163.12
503.25	21589.10
503.43	21401.86
503.60	21624.21
503.78	21647.61
503.95	21486.12
504.13	21539.95
504.30	21806.77
504.48	21933.16
504.65	21876.99
504.83	22258.49
505.01	22342.75
505.18	22097.00
505.36	22204.66
505.53	22326.37
505.71	22317.01
505.88	22560.42
506.06	22373.18
506.23	22623.62
506.41	22604.89
506.58	22808.52
506.76	22637.66
506.93	22693.83
507.11	22651.70
507.28	22792.14
507.46	23080.02
507.63	23456.85
507.81	23328.12
507.98	23215.77
508.16	22892.78
508.33	23300.03
508.50	23419.40
508.68	23496.64
508.85	23522.38
509.03	23714.31
509.20	23917.93
509.38	23828.99
509.55	24105.18
509.73	24140.29
509.90	24046.66
510.08	24081.77
510.25	24245.61
510.42	24189.44
510.60	24439.87
510.77	24865.85
510.95	24819.04
511.12	24531.15
511.30	24739.46
511.47	24673.93
511.64	24788.61
511.82	24692.65
511.99	24762.87
512.17	25099.90
512.34	24954.79
512.51	25207.57
512.69	24971.18
512.86	25266.08
513.04	25663.97
513.21	25525.88
513.38	25556.31
513.56	25724.83
513.73	25483.75
513.90	25633.55
514.08	25692.06
514.25	25802.07
514.43	25762.28
514.60	25961.22
514.77	26148.46
514.95	26270.17
515.12	26075.91
515.29	25771.64
515.47	26043.14
515.64	26263.15
515.81	26452.73
515.99	26536.99
516.16	26356.77
516.33	26719.56
516.51	26822.54
516.68	26382.52
516.85	26565.08
517.03	26522.95
517.20	27021.48
517.37	26958.29
517.54	26934.88
517.72	26897.44
517.89	26728.92
518.06	27077.66
518.24	27318.73
518.41	26948.93
518.58	27377.25
518.75	27630.02
518.93	27292.99
519.10	27220.43
519.27	27569.17
519.45	27140.85
519.62	27402.99
519.79	27498.95
519.96	27424.06
520.14	27859.40
520.31	27447.46
520.48	28149.62
520.65	27775.14
520.83	28027.92
521.00	28453.89
521.17	28002.17
521.34	28210.48
521.52	28191.75
521.69	28393.04
521.86	28481.98
522.03	28322.82
522.20	28580.28
522.38	28680.92
522.55	28322.82
522.72	28505.38
522.89	28666.88
523.07	28905.62
523.24	28849.44
523.41	28933.70
523.58	28409.42
523.75	29099.88
523.92	28655.18
524.10	29118.60
524.27	28875.19
524.44	29198.18
524.61	29347.98
524.78	29392.45
524.96	29120.95
525.13	29467.34
525.30	29411.17
525.47	29394.79
525.64	29617.14
525.81	29575.01
525.98	30122.69
526.16	29497.77
526.33	29996.31
526.50	29603.10
526.67	29612.46
526.84	29886.30
527.01	29778.64
527.18	29888.64
527.36	30146.10
527.53	30228.02
527.70	30429.30
527.87	30230.36
528.04	30106.31
528.21	29933.11
528.38	30181.21
528.55	30419.94
528.72	30558.03
528.89	30312.28
529.07	30829.54
529.24	30459.73
529.41	30815.49
529.58	30904.43
529.75	30141.42
529.92	30831.88
530.09	30665.70
530.26	30838.90
530.43	30923.16
530.60	30410.58
530.77	30684.42
530.94	30920.82
531.11	30944.22
531.28	30806.13
531.46	30522.93
531.63	31007.42
531.80	31168.91
531.97	31091.68
532.14	31054.23
532.31	30806.13
532.48	30909.11
532.65	31353.82
532.82	31377.22
532.99	30969.97
533.16	31232.11
533.33	31693.19
533.50	31688.51
533.67	31615.96
533.84	31417.01
534.01	31660.43
534.18	30948.90
534.35	31496.59
534.52	31597.23
534.69	31964.70
534.86	31821.92
535.03	31578.51
535.20	32189.39
535.37	31606.59
535.54	31784.48
535.71	31683.83
535.88	32488.98
536.05	32023.21
536.22	32051.30
536.38	32130.87
536.55	32393.01
536.72	32662.18
536.89	32245.56
537.06	32570.90
537.23	32442.17
537.40	32336.84
537.57	32517.06
537.74	32287.69
537.91	32900.91
538.08	33186.46
538.25	32591.96
538.42	32315.78
538.59	33062.41
538.75	32474.93
538.92	32774.52
539.09	32886.87
539.26	32907.93
539.43	32807.29
539.60	32917.29
539.77	32856.44
539.94	33251.99
540.11	33076.45
540.28	33078.79
540.44	33050.70
540.61	32954.74
540.78	32947.72
540.95	33184.12
541.12	33111.56
541.29	33109.22
541.46	32910.27
541.62	33628.82
541.79	33661.58
541.96	32767.50
542.13	33266.03
542.30	33319.87
542.47	33617.11
542.63	33731.80
542.80	33659.24
542.97	33773.93
543.14	33937.77
543.31	34015.01
543.48	34132.03
543.64	34136.71
543.81	34117.99
543.98	33848.83
544.15	34281.83
544.32	34115.65
544.48	34354.38
544.65	33921.38
544.82	34213.95
544.99	34059.48
545.16	34185.86
545.32	33663.93
545.49	34550.99
545.66	34625.89
545.83	34789.72
546.00	34611.84
546.16	34375.45
546.33	34305.23
546.50	33865.21
546.67	34167.14
546.83	34164.80
547.00	34164.80
547.17	34515.88
547.34	34227.99
547.50	34909.09
547.67	34988.67
547.84	35002.71
548.00	35012.07
548.17	35222.72
548.34	34754.61
548.51	34944.20
548.67	35070.59
548.84	35211.02
549.01	34878.66
549.18	34417.58
549.34	34869.30
549.51	34852.92
549.68	34862.28
549.84	34969.94
550.01	35283.58
550.18	34916.11
550.34	34611.84
550.51	35145.48
550.68	35030.80
550.84	35145.48
551.01	35573.80
551.18	34707.80
551.34	34974.63
551.51	35440.39
551.68	35152.51
551.84	35599.55
552.01	35129.10
552.18	35955.31
552.34	35365.49
552.51	35384.22
552.68	35377.20
552.84	35608.91
553.01	35812.54
553.18	35763.39
553.34	35791.47
553.51	35353.79
553.67	35618.27
553.84	36037.23
554.01	35618.27
554.17	35861.69
554.34	35796.15
554.51	35590.19
554.67	36018.50
554.84	35646.36
555.00	36268.94
555.17	35889.77
555.33	35651.04
555.50	35583.16
555.67	35522.31
555.83	35887.43
556.00	35627.63
556.16	36479.59
556.33	35873.39
556.50	36266.60
556.66	36091.06
556.83	35772.75
556.99	36353.20
557.16	36411.71
557.32	36378.95
557.49	35744.66
557.65	35786.79
557.82	35906.16
557.98	35971.69
558.15	36493.63
558.32	36271.28
558.48	36212.77
558.65	36194.04
558.81	36149.57
558.98	36254.90
559.14	36250.22
559.31	35901.48
559.47	36172.98
559.64	36332.14
559.80	36463.21
559.97	36493.63
560.13	36222.13
560.30	36341.50
560.46	36547.47
560.63	36257.24
560.79	36760.45
560.96	36622.36
561.12	36196.38
561.29	36072.34
561.45	36898.55
561.61	36465.55
561.78	36395.33
561.94	36456.18
562.11	36460.87
562.27	36318.09
562.44	36449.16
562.60	36458.52
562.77	36458.52
562.93	36706.62
563.10	36786.20
563.26	36596.62
563.42	36919.61
563.59	36547.47
563.75	36723.01
563.92	36706.62
564.08	36573.21
564.24	36683.22
564.41	36669.17
564.57	36460.87
564.74	36753.43
564.90	36912.59
565.07	37497.72
565.23	37095.15
565.39	36554.49
565.56	36769.82
565.72	36889.18
565.88	36711.30
566.05	36978.12
566.21	36605.98
566.38	36648.11
566.54	36933.65
566.70	36762.79
566.87	36903.23
567.03	36538.10
567.19	37083.45
567.36	36685.56
567.52	37102.17
567.68	36968.76
567.85	36563.85
568.01	36982.80
568.17	37266.01
568.34	37095.15
568.50	36912.59
568.66	36650.45
568.83	37006.21
568.99	36664.49
569.15	37174.73
569.32	36825.99
569.48	37029.62
569.64	36844.71
569.81	36950.04
569.97	36540.44
570.13	37090.47
570.30	36755.77
570.46	37127.92
570.62	36947.70
570.78	37020.25
570.95	36917.27
571.11	36966.42
571.27	36713.64
571.43	36531.08
571.60	37284.73
571.76	37029.62
571.92	36978.12
572.09	37139.62
572.25	37163.03
572.41	37078.77
572.57	37141.96
572.74	36978.12
572.90	37006.21
573.06	37244.94
573.22	37031.96
573.38	37038.98
573.55	36739.39
573.71	37383.04
573.87	37324.52
574.03	37060.04
574.20	37200.47
574.36	36961.74
574.52	37008.55
574.68	37256.65
574.84	37301.12
575.01	37448.57
575.17	37401.76
575.33	37062.38
575.49	37326.86
575.65	37343.25
575.82	37195.79
575.98	36861.10
576.14	37127.92
576.30	37282.39
576.46	36879.82
576.62	37151.32
576.79	37024.93
576.95	36697.26
577.11	36849.39
577.27	37261.33
577.43	37153.66
577.59	37347.93
577.75	37542.19
577.92	36865.78
578.08	37221.54
578.24	36947.70
578.40	37160.69
578.56	37071.75
578.72	37104.51
578.88	37565.60
579.04	37380.70
579.21	37179.41
579.37	37017.91
579.53	37418.14
579.69	36910.25
579.85	37013.23
580.01	37462.61
580.17	37022.59
580.33	37523.47
580.49	37645.18
580.65	37134.94
580.82	37294.10
580.98	37216.86
581.14	37139.62
581.30	37343.25
581.46	37333.89
581.62	37167.71
581.78	37118.56
581.94	37378.36
582.10	37010.89
582.26	37301.12
582.42	37181.75
582.58	37563.26
582.74	37186.43
582.90	37209.84
583.06	37383.04
583.22	37074.09
583.38	37118.56
583.54	37116.22
583.70	37357.29
583.86	37308.14
584.02	37069.40
584.18	37467.30
584.34	37376.01
584.50	37546.87
584.66	37216.86
584.82	37090.47
584.98	37460.27
585.14	37371.33
585.30	37118.56
585.46	37383.04
585.62	37102.17
585.78	37212.18
585.94	37010.89
586.10	37312.82
586.26	37233.24
586.42	37446.23
586.58	37371.33
586.74	36825.99
586.90	37373.67
587.06	36636.41
587.22	37319.84
587.38	37230.90
587.54	37228.56
587.70	37656.88
587.86	36935.99
588.02	37404.10
588.18	37668.58
588.34	37593.68
588.49	36844.71
588.65	36678.54
588.81	37198.13
588.97	37684.97
589.13	37502.40
589.29	37282.39
589.45	37469.64
589.61	37610.07
589.77	37450.91
589.93	37783.27
590.08	37556.24
590.24	37448.57
590.40	37167.71
590.56	37319.84
590.72	37319.84
590.88	37511.77
591.04	37750.50
591.20	37904.98
591.35	37682.62
591.51	37984.55
591.67	37668.58
591.83	37837.10
591.99	37572.62
592.15	37329.20
592.31	37640.50
592.46	37446.23
592.62	37460.27
592.78	37579.64
592.94	37699.01
593.10	37502.40
593.26	37743.48
593.41	37240.26
593.57	37776.25
593.73	37467.30
593.89	37516.45
594.05	37633.47
594.20	37219.20
594.36	37256.65
594.52	37525.81
594.68	37207.50
594.84	37453.25
594.99	37507.08
595.15	37794.97
595.31	38115.62
595.47	37933.06
595.62	37233.24
595.78	37343.25
595.94	37560.92
596.10	37186.43
596.25	37280.05
596.41	37280.05
596.57	37380.70
596.73	37502.40
596.88	37160.69
597.04	37516.45
597.20	37883.91
597.36	37699.01
597.51	37811.35
597.67	37221.54
597.83	37734.12
597.99	37947.11
598.14	37425.17
598.30	37495.38
598.46	37383.04
598.61	37535.17
598.77	37872.21
598.93	37720.07
599.09	37544.53
599.24	37848.80
599.40	37282.39
599.56	37743.48
599.71	37261.33
599.87	37722.41
600.03	37343.25
600.18	37247.29
600.34	37287.07
600.50	37656.88
600.65	37291.76
600.81	37799.65
600.97	37757.52
601.12	37993.92
601.28	37560.92
601.44	37940.08
601.59	37443.89
601.75	37556.24
601.91	37687.31
602.06	37291.76
602.22	37371.33
602.37	37284.73
602.53	37560.92
602.69	37900.29
602.84	37539.85
603.00	37502.40
603.16	37619.43
603.31	37118.56
603.47	37497.72
603.62	37317.50
603.78	37481.34
603.94	37565.60
604.09	37706.03
604.25	37359.63
604.40	37165.37
604.56	37675.60
604.71	37596.03
604.87	37291.76
605.03	37338.57
605.18	37251.97
605.34	37413.46
605.49	37046.00
605.65	36790.88
605.80	37062.38
605.96	36889.18
606.12	37134.94
606.27	37619.43
606.43	37263.67
606.58	37783.27
606.74	36989.83
606.89	37301.12
607.05	37706.03
607.20	37254.31
607.36	37689.65
607.51	37174.73
607.67	37090.47
607.82	36795.56
607.98	36861.10
608.13	37813.70
608.29	36744.07
608.44	36980.46
608.60	37116.22
608.75	37228.56
608.91	37151.32
609.06	36781.52
609.22	36613.00
609.37	36961.74
609.53	36730.03
609.68	36818.97
609.84	36865.78
609.99	36926.63
610.15	36552.15
610.30	36999.19
610.46	36589.59
610.61	36910.25
610.76	37106.85
610.92	37104.51
611.07	36711.30
611.23	36582.57
611.38	36437.46
611.54	36580.23
611.69	36456.18
611.84	36580.23
612.00	36577.89
612.15	36580.23
612.31	36748.75
612.46	36762.79
612.62	36746.41
612.77	36807.26
612.92	37148.98
613.08	36318.09
613.23	36610.66
613.39	36617.68
613.54	36163.62
613.69	36503.00
613.85	36212.77
614.00	36172.98
614.15	36439.80
614.31	36484.27
614.46	36685.56
614.62	36442.14
614.77	36517.04
614.92	36252.56
615.08	36238.51
615.23	36510.02
615.38	36613.00
615.54	36077.02
615.69	36210.43
615.84	35969.35
616.00	36465.55
616.15	36264.26
616.30	36020.84
616.46	36442.14
616.61	36140.21
616.76	36032.55
616.92	36320.43
617.07	36135.53
617.22	35866.37
617.37	35800.83
617.53	35859.35
617.68	35962.33
617.83	35728.28
617.99	36077.02
618.14	35793.81
618.29	35416.99
618.45	36229.15
618.60	36180.00
618.75	35896.80
618.90	36027.87
619.06	35742.32
619.21	35704.87
619.36	36030.21
619.51	35679.13
619.67	35409.96
619.82	35440.39
619.97	35852.33
620.12	35644.02
620.28	35578.48
620.43	35728.28
620.58	35887.43
620.73	35412.31
620.89	35569.12
621.04	35613.59
621.19	35730.62
621.34	35555.08
621.49	35000.37
621.65	35627.63
621.80	35854.67
621.95	35084.63
622.10	35407.62
622.25	35189.95
622.41	35267.19
622.56	35431.03
622.71	35548.06
622.86	34658.65
623.01	34817.81
623.16	35880.41
623.32	35262.51
623.47	35136.12
623.62	35358.47
623.77	35005.05
623.92	35175.91
624.07	35035.48
624.23	35346.77
624.38	35398.26
624.53	34974.63
624.68	35185.27
624.83	35239.11
624.98	35318.68
625.13	34859.94
625.29	35201.66
625.44	34698.44
625.59	34857.60
625.74	34761.64
625.89	34675.04
626.04	34672.70
626.19	34693.76
626.34	34693.76
626.49	34529.92
626.65	34916.11
626.80	34787.38
626.95	34618.86
627.10	34597.80
627.25	34452.69
627.40	34813.13
627.55	34438.64
627.70	34412.90
627.85	34267.78
628.00	34040.75
628.15	34258.42
628.30	33851.17
628.45	34274.80
628.60	34155.44
628.76	34459.71
628.91	34511.20
629.06	34291.19
629.21	34279.49
629.36	34342.68
629.51	34108.63
629.66	33886.28
629.81	33848.83
629.96	33905.00
630.11	34223.31
630.26	34227.99
630.41	34127.35
630.56	33902.66
630.71	34019.69
630.86	33872.23
631.01	34050.11
631.16	34122.67
631.31	34099.26
631.46	33624.14
631.61	33713.08
631.76	33851.17
631.91	33900.32
632.06	33598.39
632.21	33752.87
632.36	34066.50
632.51	33441.57
632.66	33783.29
632.81	33635.84
632.96	34220.97
633.10	33352.63
633.25	33940.11
633.40	33825.42
633.55	33486.04
633.70	33329.23
633.85	33298.80
634.00	33584.35
634.15	33312.84
634.30	33270.72
634.45	33413.49
634.60	33549.24
634.75	33633.50
634.90	33467.32
635.05	33373.70
635.19	33591.37
635.34	33862.87
635.49	33188.80
635.64	33029.64
635.79	33039.00
635.94	33020.28
636.09	33411.15
636.24	32882.19
636.39	32821.33
636.53	33085.81
636.68	33141.99
636.83	32849.42
636.98	33219.22
637.13	33209.86
637.28	33160.71
637.43	33048.36
637.57	32847.08
637.72	33146.67
637.87	33057.73
638.02	32854.10
638.17	32907.93
638.32	32999.21
638.46	32837.72
638.61	32559.19
638.76	32999.21
638.91	32624.73
639.06	32884.53
639.20	32797.93
639.35	33088.15
639.50	32973.47
639.65	32807.29
639.80	32533.45
639.94	32769.84
640.09	32580.26
640.24	32538.13
640.39	32409.40
640.54	32479.61
640.68	32381.31
640.83	32453.87
640.98	32133.21
641.13	31821.92
641.27	32498.34
641.42	32173.00
641.57	32662.18
641.72	32418.76
641.86	32889.21
642.01	32348.54
642.16	32236.20
642.31	31842.99
642.45	32510.04
642.60	32116.83
642.75	32151.94
642.90	31990.44
643.04	31775.11
643.19	31896.82
643.34	32187.05
643.48	32053.64
643.63	31999.80
643.78	32301.73
643.93	32240.88
644.07	31796.18
644.22	31922.57
644.37	31938.95
644.51	31894.48
644.66	31700.22
644.81	32034.91
644.95	32030.23
645.10	31871.07
645.25	31861.71
645.39	31707.24
645.54	32065.34
645.69	32004.49
645.83	31908.52
645.98	32034.91
646.13	31819.58
646.27	31800.86
646.42	31571.49
646.57	31901.50
646.71	31672.13
646.86	31742.35
647.00	31442.76
647.15	31723.62
647.30	31409.99
647.44	31917.89
647.59	31594.89
647.74	31583.19
647.88	31913.20
648.03	31714.26
648.17	31690.85
648.32	31351.48
648.47	31683.83
648.61	31402.97
648.76	31585.53
648.90	31470.84
649.05	31622.98
649.20	31510.63
649.34	31154.87
649.49	31220.41
649.63	31353.82
649.78	31192.32
649.92	31246.15
650.07	31426.37
650.21	31569.15
650.36	31480.21
650.51	31424.03
650.65	31365.52
650.80	31379.56
650.94	31655.75
651.09	30932.52
651.23	30888.05
651.38	31068.27
651.52	31241.47
651.67	30972.31
651.81	30836.56
651.96	30649.32
652.10	30988.69
652.25	31002.74
652.39	31269.56
652.54	31019.12
652.68	30632.93
652.83	31168.91
652.97	30897.41
653.12	30976.99
653.26	30707.83
653.41	31068.27
653.55	30677.40
653.70	30347.39
653.84	30433.99
653.99	30677.40
654.13	30441.01
654.27	30780.39
654.42	30766.34
654.56	30469.09
654.71	30441.01
654.85	30824.86
655.00	30834.22
655.14	30319.30
655.29	30377.81
655.43	30764.00
655.57	29865.24
655.72	30398.88
655.86	30188.23
656.01	30249.08
656.15	30162.48
656.30	30410.58
656.44	30354.41
656.58	30377.81
656.73	30251.42
656.87	30141.42
657.01	30211.64
657.16	30581.44
657.30	30756.98
657.45	30646.97
657.59	30106.31
657.73	30047.80
657.88	29876.94
658.02	29944.81
658.16	30101.63
658.31	29970.56
658.45	29790.34
658.60	29472.03
658.74	29689.70
658.88	30080.56
659.03	29872.26
659.17	29673.31
659.31	29986.94
659.46	29528.20
659.60	29883.96
659.74	30040.78
659.89	29605.44
660.03	30012.69
660.17	29614.80
660.32	29715.44
660.46	29488.41
660.60	29369.04
660.74	29338.62
660.89	29184.14
661.03	28973.49
661.17	29209.89
661.32	29502.45
661.46	29523.52
661.60	29488.41
661.74	29392.45
661.89	29514.16
662.03	29474.37
662.17	28823.70
662.31	29053.07
662.46	28936.04
662.60	28723.05
662.74	28744.12
662.88	28835.40
663.03	28903.28
663.17	28816.68
663.31	28704.33
663.45	28648.16
663.60	28732.42
663.74	28451.55
663.88	28421.13
664.02	28671.56
664.17	28816.68
664.31	28535.81
664.45	28697.31
664.59	28746.46
664.73	28858.81
664.88	28336.87
665.02	27861.74
665.16	28149.62
665.30	28507.72
665.44	28151.96
665.59	27894.50
665.73	27793.86
665.87	27896.85
666.01	27697.90
666.15	28350.91
666.29	28381.34
666.44	28091.11
666.58	27871.10
666.72	27810.25
666.86	27747.05
667.00	28009.19
667.14	27562.15
667.28	27424.06
667.43	27480.23
667.57	27704.92
667.71	27475.55
667.85	27583.21
667.99	27288.31
668.13	27407.67
668.27	27414.69
668.41	27248.52
668.56	27314.05
668.70	27400.65
668.84	27239.15
668.98	27482.57
669.12	27634.71
669.26	27466.19
669.40	26801.47
669.54	26948.93
669.68	26974.67
669.82	26705.51
669.96	26546.36
670.10	26555.72
670.25	26508.91
670.39	26469.12
670.53	26544.02
670.67	26534.65
670.81	26534.65
670.95	26705.51
671.09	26443.37
671.23	26274.85
671.37	26607.21
671.51	26338.05
671.65	26506.57
671.79	25982.29
671.93	26050.16
672.07	26167.19
672.21	26228.04
672.35	26043.14
672.49	25907.39
672.63	25881.64
672.77	25837.17
672.91	26345.07
673.05	25666.31
673.19	25963.56
673.33	26122.72
673.47	25865.26
673.61	25993.99
673.75	25855.90
673.89	25872.28
674.03	25593.76
674.17	25560.99
674.31	25252.04
674.45	25127.99
674.59	24952.45
674.73	25284.81
674.87	25228.63
675.01	24964.15
675.15	24905.64
675.29	25163.10
675.43	24877.55
675.56	25102.25
675.70	24924.36
675.84	25001.60
675.98	23964.75
676.12	24603.71
676.26	24512.43
676.40	24657.54
676.54	24320.51
676.68	24631.80
676.82	23791.55
676.96	24369.66
677.10	24088.79
677.23	24123.90
677.37	23782.18
677.51	23812.61
677.65	23470.89
677.79	23421.74
677.93	23564.51
678.07	23475.57
678.21	23543.45
678.34	23372.59
678.48	23672.18
678.62	23985.81
678.76	23360.89
678.90	23129.17
679.04	23124.49
679.18	23187.69
679.31	22984.06
679.45	22988.74
679.59	22670.43
679.73	22803.84
679.87	22295.94
680.00	22546.38
680.14	22499.57
680.28	22244.45
680.42	22785.12
680.56	22396.59
680.70	22464.46
680.83	22471.48
680.97	22302.96
681.11	22127.42
681.25	22345.09
681.39	21879.33
681.52	21734.21
681.66	21743.58
681.80	21675.70
681.94	21565.70
682.07	21687.40
682.21	21589.10
682.35	21383.13
682.49	21467.39
682.62	21401.86
682.76	21371.43
682.90	21486.12
683.04	21184.19
683.17	21429.94
683.31	21207.59
683.45	21617.19
683.59	21078.86
683.72	20683.31
683.86	21050.78
684.00	20861.19
684.13	20938.43
684.27	20313.51
684.41	20809.70
684.55	20372.02
684.68	20205.84
684.82	20287.76
684.96	20311.17
685.09	20638.84
685.23	19992.86
685.37	20030.30
685.50	20098.18
685.64	20362.66
685.78	19962.43
685.91	20060.73
686.05	19625.39
686.19	19623.05
686.32	19723.69
686.46	19302.40
686.60	19304.74
686.73	19419.42
686.87	19243.88
687.01	19241.54
687.14	19047.28
687.28	19246.23
687.42	18970.04
687.55	18810.89
687.69	19122.18
687.82	18815.57
687.96	18892.80
688.10	18984.09
688.23	18743.01
688.37	18944.30
688.50	18527.68
688.64	18497.25
688.78	18569.81
688.91	18405.97
689.05	18293.63
689.18	18249.16
689.32	18178.94
689.46	18003.40
689.59	18099.36
689.73	17776.37
689.86	17706.15
690.00	17708.49
690.13	17743.60
690.27	17813.82
690.41	17764.67
690.54	17631.26
690.68	17776.37
690.81	17568.06
690.95	17584.44
691.08	17504.87
691.22	17331.67
691.35	17411.25
691.49	17380.82
691.62	17245.07
691.76	16982.93
691.89	16849.52
692.03	16517.16
692.16	16563.97
692.30	16891.65
692.43	16622.48
692.57	16748.87
692.70	16388.43
692.84	16622.48
692.97	16589.72
693.11	16416.52
693.24	16500.78
693.38	16313.53
693.51	16236.30
693.65	16208.21
693.78	16287.79
693.92	16322.90
694.05	16212.89
694.19	15829.04
694.32	15815.00
694.45	15861.81
694.59	15374.98
694.72	15807.98
694.86	15688.61
694.99	15218.16
695.13	15438.17
695.26	15311.78
695.39	14951.34
695.53	15328.17
695.66	15424.13
695.80	15190.08
695.93	15094.11
696.07	15197.10
696.20	15035.60
696.33	14890.49
696.47	14904.53
696.60	15229.87
696.73	15037.94
696.87	14764.10
697.00	14829.63
697.14	14558.13
697.27	14237.48
697.40	14024.49
697.54	14136.84
697.67	14045.55
697.80	14391.95
697.94	14125.13
698.07	14061.94
698.21	13895.76
698.34	14005.77
698.47	14012.79
698.61	13837.25
698.74	13834.91
698.87	13928.53
699.01	13654.69
699.14	13460.42
699.27	13327.01
699.40	13497.87
699.54	13511.91
699.67	13139.77
699.80	13273.18
699.94	13224.03
700.07	13270.84
700.20	13270.84
700.34	12812.09
700.47	12912.74
700.60	13116.36
700.73	13001.68
700.87	12894.01
701.00	12805.07
701.13	12882.31
701.26	12875.29
701.40	12865.92
701.53	12456.33
701.66	12716.13
701.79	12482.08
701.93	12152.06
702.06	12351.01
702.19	12271.43
702.32	12376.75
702.46	12362.71
702.59	12177.81
702.72	12313.56
702.85	11964.82
702.99	11880.56
703.12	12072.48
703.25	12028.01
703.38	11871.20
703.51	12046.74
703.65	11665.23
703.78	11583.31
703.91	11695.66
704.04	11735.45
704.17	11676.93
704.31	11367.98
704.44	11431.18
704.57	11281.38
704.70	11431.18
704.83	11246.27
704.96	11194.78
705.10	11197.12
705.23	11204.14
>>>>>End Processed Spectral Data<<<<<
