SpectraSuite Data File
++++++++++++++++++++++++++++++++++++
Date: Fri Oct 04 11:47:03 GMT-05:00 2013
User: price-jones
Dark Spectrum Present: No
Reference Spectrum Present: No
Number of Sampled Component Spectra: 1
Spectrometers: USB2+H05261
Integration Time (usec): 100000 (USB2+H05261)
Spectra Averaged: 1 (USB2+H05261)
Boxcar Smoothing: 0 (USB2+H05261)
Correct for Electrical Dark: No (USB2+H05261)
Strobe/Lamp Enabled: No (USB2+H05261)
Correct for Detector Non-linearity: No (USB2+H05261)
Correct for Stray Light: No (USB2+H05261)
Number of Pixels in Processed Spectrum: 2048
>>>>>Begin Processed Spectral Data<<<<<
365.73	21.06
365.92	21.06
366.12	21.06
366.32	0.00
366.52	0.00
366.72	0.00
366.91	0.00
367.11	0.00
367.31	0.00
367.51	0.00
367.70	0.00
367.90	0.00
368.10	0.00
368.30	0.00
368.49	0.00
368.69	0.00
368.89	0.00
369.09	0.00
369.28	0.00
369.48	0.00
369.68	2.34
369.87	0.00
370.07	0.00
370.27	65.54
370.47	0.00
370.66	0.00
370.86	2.34
371.06	107.66
371.25	142.77
371.45	35.11
371.65	84.26
371.84	4.68
372.04	117.03
372.24	53.83
372.44	60.85
372.63	95.96
372.83	79.58
373.03	63.19
373.22	37.45
373.42	72.56
373.62	72.56
373.81	182.56
374.01	98.30
374.21	112.35
374.40	117.03
374.60	110.01
374.79	149.79
374.99	37.45
375.19	91.28
375.38	77.24
375.58	88.94
375.78	74.90
375.97	117.03
376.17	138.09
376.37	147.45
376.56	91.28
376.76	46.81
376.95	98.30
377.15	88.94
377.35	140.43
377.54	63.19
377.74	187.24
377.93	37.45
378.13	72.56
378.33	135.75
378.52	42.13
378.72	56.17
378.91	117.03
379.11	86.60
379.31	93.62
379.50	28.09
379.70	159.16
379.89	84.26
380.09	88.94
380.28	74.90
380.48	133.41
380.68	63.19
380.87	39.79
381.07	121.71
381.26	72.56
381.46	65.54
381.65	39.79
381.85	67.88
382.04	18.72
382.24	147.45
382.43	102.98
382.63	84.26
382.83	100.64
383.02	100.64
383.22	128.73
383.41	98.30
383.61	135.75
383.80	72.56
384.00	124.05
384.19	95.96
384.39	79.58
384.58	105.32
384.78	107.66
384.97	159.16
385.17	49.15
385.36	124.05
385.56	53.83
385.75	79.58
385.95	95.96
386.14	105.32
386.34	0.00
386.53	159.16
386.72	35.11
386.92	100.64
387.11	102.98
387.31	100.64
387.50	42.13
387.70	51.49
387.89	39.79
388.09	84.26
388.28	77.24
388.48	102.98
388.67	70.22
388.86	107.66
389.06	128.73
389.25	28.09
389.45	98.30
389.64	58.51
389.84	107.66
390.03	49.15
390.22	35.11
390.42	114.69
390.61	23.41
390.81	4.68
391.00	93.62
391.19	114.69
391.39	102.98
391.58	93.62
391.78	42.13
391.97	70.22
392.16	65.54
392.36	184.90
392.55	154.48
392.75	102.98
392.94	88.94
393.13	147.45
393.33	93.62
393.52	102.98
393.71	79.58
393.91	168.52
394.10	86.60
394.29	98.30
394.49	128.73
394.68	100.64
394.88	126.39
395.07	126.39
395.26	14.04
395.46	117.03
395.65	77.24
395.84	133.41
396.04	142.77
396.23	142.77
396.42	60.85
396.62	91.28
396.81	156.82
397.00	91.28
397.19	124.05
397.39	102.98
397.58	126.39
397.77	84.26
397.97	112.35
398.16	70.22
398.35	131.07
398.55	105.32
398.74	88.94
398.93	173.20
399.12	100.64
399.32	152.13
399.51	21.06
399.70	98.30
399.90	88.94
400.09	105.32
400.28	86.60
400.47	58.51
400.67	124.05
400.86	105.32
401.05	166.18
401.24	86.60
401.44	95.96
401.63	74.90
401.82	135.75
402.01	67.88
402.21	126.39
402.40	51.49
402.59	142.77
402.78	32.77
402.97	145.11
403.17	114.69
403.36	126.39
403.55	135.75
403.74	121.71
403.93	95.96
404.13	184.90
404.32	140.43
404.51	102.98
404.70	126.39
404.89	142.77
405.09	152.13
405.28	102.98
405.47	114.69
405.66	166.18
405.85	175.54
406.05	74.90
406.24	72.56
406.43	149.79
406.62	163.84
406.81	173.20
407.00	138.09
407.20	46.81
407.39	142.77
407.58	110.01
407.77	175.54
407.96	191.92
408.15	159.16
408.34	138.09
408.54	42.13
408.73	77.24
408.92	30.43
409.11	84.26
409.30	95.96
409.49	100.64
409.68	49.15
409.87	107.66
410.07	100.64
410.26	131.07
410.45	126.39
410.64	49.15
410.83	100.64
411.02	16.38
411.21	84.26
411.40	154.48
411.59	140.43
411.78	88.94
411.98	98.30
412.17	23.41
412.36	133.41
412.55	98.30
412.74	128.73
412.93	159.16
413.12	131.07
413.31	121.71
413.50	140.43
413.69	107.66
413.88	63.19
414.07	140.43
414.26	100.64
414.45	95.96
414.64	147.45
414.83	159.16
415.02	93.62
415.22	91.28
415.41	243.42
415.60	152.13
415.79	81.92
415.98	152.13
416.17	67.88
416.36	152.13
416.55	58.51
416.74	175.54
416.93	135.75
417.12	112.35
417.31	107.66
417.50	119.37
417.69	147.45
417.88	84.26
418.07	79.58
418.26	138.09
418.45	161.50
418.64	198.95
418.83	170.86
419.02	238.73
419.21	138.09
419.39	140.43
419.58	182.56
419.77	126.39
419.96	149.79
420.15	114.69
420.34	117.03
420.53	105.32
420.72	70.22
420.91	156.82
421.10	184.90
421.29	105.32
421.48	79.58
421.67	121.71
421.86	51.49
422.05	86.60
422.24	145.11
422.43	128.73
422.61	102.98
422.80	107.66
422.99	100.64
423.18	93.62
423.37	77.24
423.56	191.92
423.75	79.58
423.94	58.51
424.13	117.03
424.32	112.35
424.50	184.90
424.69	175.54
424.88	184.90
425.07	44.47
425.26	220.01
425.45	201.29
425.64	131.07
425.83	210.65
426.01	98.30
426.20	112.35
426.39	16.38
426.58	117.03
426.77	184.90
426.96	84.26
427.15	149.79
427.33	147.45
427.52	145.11
427.71	93.62
427.90	110.01
428.09	117.03
428.28	51.49
428.46	117.03
428.65	81.92
428.84	133.41
429.03	128.73
429.22	152.13
429.40	93.62
429.59	126.39
429.78	105.32
429.97	147.45
430.16	126.39
430.34	133.41
430.53	107.66
430.72	86.60
430.91	100.64
431.10	149.79
431.28	98.30
431.47	147.45
431.66	147.45
431.85	100.64
432.03	93.62
432.22	215.33
432.41	60.85
432.60	119.37
432.79	117.03
432.97	191.92
433.16	145.11
433.35	77.24
433.54	121.71
433.72	184.90
433.91	187.24
434.10	201.29
434.28	198.95
434.47	112.35
434.66	166.18
434.85	0.00
435.03	135.75
435.22	105.32
435.41	81.92
435.59	184.90
435.78	173.20
435.97	156.82
436.16	133.41
436.34	105.32
436.53	114.69
436.72	147.45
436.90	128.73
437.09	154.48
437.28	95.96
437.46	93.62
437.65	74.90
437.84	182.56
438.02	126.39
438.21	198.95
438.40	156.82
438.58	140.43
438.77	140.43
438.96	86.60
439.14	70.22
439.33	133.41
439.52	65.54
439.70	138.09
439.89	131.07
440.08	133.41
440.26	119.37
440.45	145.11
440.63	124.05
440.82	201.29
441.01	121.71
441.19	65.54
441.38	117.03
441.57	105.32
441.75	154.48
441.94	135.75
442.12	128.73
442.31	140.43
442.50	133.41
442.68	121.71
442.87	119.37
443.05	98.30
443.24	201.29
443.43	131.07
443.61	170.86
443.80	81.92
443.98	86.60
444.17	173.20
444.35	140.43
444.54	72.56
444.73	77.24
444.91	189.58
445.10	105.32
445.28	88.94
445.47	142.77
445.65	114.69
445.84	112.35
446.02	227.03
446.21	131.07
446.39	112.35
446.58	152.13
446.77	119.37
446.95	168.52
447.14	173.20
447.32	208.31
447.51	133.41
447.69	110.01
447.88	149.79
448.06	175.54
448.25	112.35
448.43	46.81
448.62	117.03
448.80	208.31
448.99	191.92
449.17	105.32
449.36	119.37
449.54	170.86
449.73	74.90
449.91	194.26
450.10	84.26
450.28	168.52
450.46	124.05
450.65	142.77
450.83	79.58
451.02	112.35
451.20	149.79
451.39	135.75
451.57	93.62
451.76	63.19
451.94	102.98
452.13	159.16
452.31	102.98
452.49	128.73
452.68	88.94
452.86	140.43
453.05	224.69
453.23	152.13
453.42	77.24
453.60	131.07
453.78	131.07
453.97	74.90
454.15	124.05
454.34	177.88
454.52	98.30
454.70	149.79
454.89	184.90
455.07	142.77
455.26	201.29
455.44	182.56
455.62	166.18
455.81	100.64
455.99	142.77
456.17	60.85
456.36	128.73
456.54	147.45
456.73	102.98
456.91	159.16
457.09	159.16
457.28	112.35
457.46	93.62
457.64	184.90
457.83	100.64
458.01	128.73
458.19	180.22
458.38	149.79
458.56	182.56
458.74	140.43
458.93	149.79
459.11	152.13
459.29	91.28
459.48	170.86
459.66	175.54
459.84	126.39
460.03	205.97
460.21	154.48
460.39	159.16
460.57	154.48
460.76	117.03
460.94	161.50
461.12	124.05
461.31	126.39
461.49	135.75
461.67	133.41
461.85	173.20
462.04	105.32
462.22	624.92
462.40	98.30
462.59	191.92
462.77	124.05
462.95	72.56
463.13	88.94
463.32	91.28
463.50	149.79
463.68	138.09
463.86	95.96
464.05	114.69
464.23	184.90
464.41	145.11
464.59	110.01
464.78	105.32
464.96	201.29
465.14	114.69
465.32	112.35
465.50	51.49
465.69	93.62
465.87	70.22
466.05	215.33
466.23	86.60
466.41	140.43
466.60	156.82
466.78	196.60
466.96	154.48
467.14	280.86
467.32	234.05
467.51	156.82
467.69	152.13
467.87	128.73
468.05	210.65
468.23	177.88
468.41	149.79
468.60	196.60
468.78	154.48
468.96	168.52
469.14	180.22
469.32	131.07
469.50	152.13
469.69	189.58
469.87	149.79
470.05	142.77
470.23	138.09
470.41	149.79
470.59	119.37
470.77	128.73
470.95	133.41
471.14	177.88
471.32	138.09
471.50	138.09
471.68	124.05
471.86	74.90
472.04	79.58
472.22	161.50
472.40	70.22
472.58	194.26
472.77	177.88
472.95	124.05
473.13	227.03
473.31	191.92
473.49	117.03
473.67	93.62
473.85	133.41
474.03	210.65
474.21	227.03
474.39	212.99
474.57	170.86
474.75	102.98
474.93	159.16
475.12	168.52
475.30	159.16
475.48	182.56
475.66	166.18
475.84	159.16
476.02	163.84
476.20	191.92
476.38	166.18
476.56	189.58
476.74	168.52
476.92	145.11
477.10	191.92
477.28	175.54
477.46	177.88
477.64	152.13
477.82	112.35
478.00	140.43
478.18	238.73
478.36	86.60
478.54	117.03
478.72	86.60
478.90	142.77
479.08	166.18
479.26	177.88
479.44	145.11
479.62	159.16
479.80	154.48
479.98	154.48
480.16	138.09
480.34	154.48
480.52	182.56
480.70	182.56
480.88	131.07
481.06	124.05
481.24	180.22
481.41	142.77
481.59	222.35
481.77	126.39
481.95	102.98
482.13	135.75
482.31	173.20
482.49	177.88
482.67	208.31
482.85	159.16
483.03	124.05
483.21	100.64
483.39	170.86
483.57	166.18
483.74	168.52
483.92	105.32
484.10	49.15
484.28	119.37
484.46	217.67
484.64	168.52
484.82	180.22
485.00	220.01
485.18	189.58
485.35	224.69
485.53	107.66
485.71	187.24
485.89	98.30
486.07	159.16
486.25	203.63
486.43	177.88
486.61	138.09
486.78	65.54
486.96	145.11
487.14	196.60
487.32	189.58
487.50	208.31
487.68	205.97
487.85	191.92
488.03	138.09
488.21	149.79
488.39	191.92
488.57	203.63
488.75	161.50
488.92	482.15
489.10	170.86
489.28	170.86
489.46	175.54
489.64	220.01
489.81	189.58
489.99	187.24
490.17	163.84
490.35	180.22
490.53	121.71
490.70	147.45
490.88	191.92
491.06	145.11
491.24	133.41
491.41	152.13
491.59	196.60
491.77	187.24
491.95	227.03
492.13	159.16
492.30	208.31
492.48	152.13
492.66	231.71
492.84	173.20
493.01	175.54
493.19	100.64
493.37	159.16
493.54	234.05
493.72	208.31
493.90	119.37
494.08	220.01
494.25	196.60
494.43	205.97
494.61	217.67
494.79	217.67
494.96	147.45
495.14	191.92
495.32	201.29
495.49	119.37
495.67	208.31
495.85	173.20
496.02	121.71
496.20	175.54
496.38	241.08
496.55	180.22
496.73	222.35
496.91	194.26
497.09	175.54
497.26	138.09
497.44	138.09
497.62	191.92
497.79	269.16
497.97	210.65
498.14	196.60
498.32	220.01
498.50	245.76
498.67	173.20
498.85	131.07
499.03	180.22
499.20	168.52
499.38	163.84
499.56	212.99
499.73	198.95
499.91	133.41
500.08	215.33
500.26	156.82
500.44	227.03
500.61	229.37
500.79	189.58
500.97	135.75
501.14	182.56
501.32	180.22
501.49	210.65
501.67	212.99
501.84	191.92
502.02	112.35
502.20	217.67
502.37	175.54
502.55	173.20
502.72	180.22
502.90	140.43
503.07	241.08
503.25	271.50
503.43	184.90
503.60	234.05
503.78	238.73
503.95	149.79
504.13	201.29
504.30	184.90
504.48	238.73
504.65	210.65
504.83	205.97
505.01	201.29
505.18	191.92
505.36	175.54
505.53	191.92
505.71	196.60
505.88	177.88
506.06	184.90
506.23	212.99
506.41	215.33
506.58	227.03
506.76	198.95
506.93	222.35
507.11	149.79
507.28	102.98
507.46	222.35
507.63	236.39
507.81	154.48
507.98	191.92
508.16	133.41
508.33	180.22
508.50	238.73
508.68	152.13
508.85	229.37
509.03	184.90
509.20	189.58
509.38	285.55
509.55	252.78
509.73	173.20
509.90	227.03
510.08	145.11
510.25	269.16
510.42	217.67
510.60	110.01
510.77	287.89
510.95	245.76
511.12	238.73
511.30	273.84
511.47	231.71
511.64	229.37
511.82	198.95
511.99	208.31
512.17	210.65
512.34	133.41
512.51	191.92
512.69	135.75
512.86	224.69
513.04	203.63
513.21	170.86
513.38	187.24
513.56	152.13
513.73	189.58
513.90	128.73
514.08	184.90
514.25	215.33
514.43	236.39
514.60	187.24
514.77	217.67
514.95	208.31
515.12	208.31
515.29	224.69
515.47	191.92
515.64	170.86
515.81	156.82
515.99	220.01
516.16	175.54
516.33	208.31
516.51	112.35
516.68	170.86
516.85	180.22
517.03	182.56
517.20	194.26
517.37	231.71
517.54	236.39
517.72	163.84
517.89	182.56
518.06	220.01
518.24	229.37
518.41	276.18
518.58	149.79
518.75	241.08
518.93	212.99
519.10	252.78
519.27	100.64
519.45	229.37
519.62	203.63
519.79	152.13
519.96	217.67
520.14	222.35
520.31	196.60
520.48	238.73
520.65	173.20
520.83	149.79
521.00	212.99
521.17	229.37
521.34	168.52
521.52	241.08
521.69	196.60
521.86	245.76
522.03	229.37
522.20	297.25
522.38	224.69
522.55	280.86
522.72	159.16
522.89	194.26
523.07	161.50
523.24	149.79
523.41	182.56
523.58	224.69
523.75	222.35
523.92	177.88
524.10	264.48
524.27	173.20
524.44	152.13
524.61	241.08
524.78	107.66
524.96	224.69
525.13	212.99
525.30	168.52
525.47	290.23
525.64	252.78
525.81	205.97
525.98	196.60
526.16	196.60
526.33	210.65
526.50	210.65
526.67	245.76
526.84	175.54
527.01	217.67
527.18	259.80
527.36	215.33
527.53	196.60
527.70	138.09
527.87	248.10
528.04	273.84
528.21	191.92
528.38	229.37
528.55	231.71
528.72	266.82
528.89	280.86
529.07	177.88
529.24	241.08
529.41	264.48
529.58	163.84
529.75	222.35
529.92	212.99
530.09	245.76
530.26	196.60
530.43	283.20
530.60	198.95
530.77	227.03
530.94	255.12
531.11	212.99
531.28	264.48
531.46	222.35
531.63	191.92
531.80	266.82
531.97	175.54
532.14	205.97
532.31	294.91
532.48	191.92
532.65	313.63
532.82	318.31
532.99	259.80
533.16	208.31
533.33	294.91
533.50	259.80
533.67	257.46
533.84	306.61
534.01	334.70
534.18	243.42
534.35	327.68
534.52	269.16
534.69	273.84
534.86	215.33
535.03	252.78
535.20	222.35
535.37	243.42
535.54	287.89
535.71	222.35
535.88	290.23
536.05	173.20
536.22	177.88
536.38	189.58
536.55	170.86
536.72	187.24
536.89	112.35
537.06	187.24
537.23	203.63
537.40	234.05
537.57	121.71
537.74	215.33
537.91	264.48
538.08	131.07
538.25	205.97
538.42	135.75
538.59	175.54
538.75	156.82
538.92	215.33
539.09	234.05
539.26	212.99
539.43	355.76
539.60	842.59
539.77	1198.35
539.94	1128.14
540.11	765.36
540.28	489.17
540.44	461.09
540.61	330.02
540.78	159.16
540.95	229.37
541.12	241.08
541.29	149.79
541.46	236.39
541.62	203.63
541.79	215.33
541.96	203.63
542.13	175.54
542.30	220.01
542.47	222.35
542.63	191.92
542.80	194.26
542.97	304.27
543.14	271.50
543.31	215.33
543.48	250.44
543.64	255.12
543.81	241.08
543.98	231.71
544.15	201.29
544.32	189.58
544.48	220.01
544.65	220.01
544.82	182.56
544.99	238.73
545.16	196.60
545.32	255.12
545.49	266.82
545.66	229.37
545.83	220.01
546.00	170.86
546.16	264.48
546.33	224.69
546.50	187.24
546.67	215.33
546.83	220.01
547.00	208.31
547.17	177.88
547.34	191.92
547.50	262.14
547.67	189.58
547.84	180.22
548.00	245.76
548.17	184.90
548.34	220.01
548.51	262.14
548.67	238.73
548.84	159.16
549.01	173.20
549.18	243.42
549.34	203.63
549.51	255.12
549.68	229.37
549.84	215.33
550.01	156.82
550.18	257.46
550.34	280.86
550.51	217.67
550.68	290.23
550.84	161.50
551.01	154.48
551.18	278.52
551.34	154.48
551.51	196.60
551.68	227.03
551.84	238.73
552.01	201.29
552.18	205.97
552.34	243.42
552.51	215.33
552.68	215.33
552.84	133.41
553.01	140.43
553.18	191.92
553.34	220.01
553.51	243.42
553.67	222.35
553.84	315.97
554.01	198.95
554.17	196.60
554.34	180.22
554.51	212.99
554.67	208.31
554.84	245.76
555.00	243.42
555.17	198.95
555.33	264.48
555.50	252.78
555.67	278.52
555.83	198.95
556.00	229.37
556.16	386.19
556.33	196.60
556.50	215.33
556.66	177.88
556.83	198.95
556.99	227.03
557.16	156.82
557.32	173.20
557.49	187.24
557.65	222.35
557.82	145.11
557.98	203.63
558.15	215.33
558.32	234.05
558.48	149.79
558.65	149.79
558.81	187.24
558.98	128.73
559.14	229.37
559.31	198.95
559.47	222.35
559.64	208.31
559.80	194.26
559.97	161.50
560.13	245.76
560.30	201.29
560.46	154.48
560.63	152.13
560.79	243.42
560.96	173.20
561.12	205.97
561.29	250.44
561.45	227.03
561.61	121.71
561.78	257.46
561.94	177.88
562.11	194.26
562.27	201.29
562.44	198.95
562.60	212.99
562.77	161.50
562.93	278.52
563.10	149.79
563.26	220.01
563.42	294.91
563.59	177.88
563.75	189.58
563.92	271.50
564.08	262.14
564.24	203.63
564.41	234.05
564.57	189.58
564.74	215.33
564.90	142.77
565.07	257.46
565.23	271.50
565.39	220.01
565.56	220.01
565.72	205.97
565.88	205.97
566.05	276.18
566.21	205.97
566.38	234.05
566.54	145.11
566.70	196.60
566.87	212.99
567.03	168.52
567.19	170.86
567.36	191.92
567.52	227.03
567.68	180.22
567.85	238.73
568.01	224.69
568.17	252.78
568.34	198.95
568.50	203.63
568.66	140.43
568.83	220.01
568.99	170.86
569.15	248.10
569.32	170.86
569.48	250.44
569.64	154.48
569.81	236.39
569.97	79.58
570.13	217.67
570.30	212.99
570.46	220.01
570.62	203.63
570.78	201.29
570.95	259.80
571.11	262.14
571.27	208.31
571.43	194.26
571.60	173.20
571.76	243.42
571.92	294.91
572.09	236.39
572.25	217.67
572.41	304.27
572.57	264.48
572.74	227.03
572.90	201.29
573.06	173.20
573.22	175.54
573.38	177.88
573.55	191.92
573.71	245.76
573.87	205.97
574.03	145.11
574.20	215.33
574.36	262.14
574.52	266.82
574.68	264.48
574.84	241.08
575.01	339.38
575.17	248.10
575.33	227.03
575.49	119.37
575.65	198.95
575.82	280.86
575.98	507.90
576.14	526.62
576.30	533.64
576.46	514.92
576.62	379.17
576.79	283.20
576.95	257.46
577.11	264.48
577.27	257.46
577.43	262.14
577.59	243.42
577.75	229.37
577.92	236.39
578.08	205.97
578.24	138.09
578.40	177.88
578.56	348.74
578.72	297.25
578.88	187.24
579.04	205.97
579.21	334.70
579.37	271.50
579.53	217.67
579.69	238.73
579.85	238.73
580.01	278.52
580.17	278.52
580.33	285.55
580.49	334.70
580.65	280.86
580.82	287.89
580.98	308.95
581.14	290.23
581.30	306.61
581.46	381.51
581.62	484.49
581.78	430.66
581.94	498.53
582.10	423.64
582.26	346.40
582.42	395.55
582.58	313.63
582.74	341.72
582.90	365.12
583.06	402.57
583.22	351.08
583.38	404.91
583.54	407.25
583.70	461.09
583.86	547.69
584.02	606.20
584.18	767.70
584.34	980.68
584.50	2647.15
584.66	20507.77
584.82	48865.70
584.98	58361.26
585.14	53998.50
585.30	36196.38
585.46	21661.66
585.62	13069.55
585.78	6274.98
585.94	2490.33
586.10	1188.99
586.26	781.74
586.42	662.37
586.58	575.77
586.74	526.62
586.90	486.83
587.06	472.79
587.22	463.43
587.38	461.09
587.54	1043.88
587.70	2801.62
587.86	4372.12
588.02	4704.48
588.18	3325.90
588.34	2195.42
588.49	1383.26
588.65	823.87
588.81	458.74
588.97	397.89
589.13	243.42
589.29	273.84
589.45	276.18
589.61	280.86
589.77	381.51
589.93	395.55
590.08	435.34
590.24	344.06
590.40	327.68
590.56	341.72
590.72	322.99
590.88	182.56
591.04	311.29
591.20	320.65
591.35	278.52
591.51	212.99
591.67	194.26
591.83	255.12
591.99	196.60
592.15	224.69
592.31	189.58
592.46	287.89
592.62	318.31
592.78	290.23
592.94	173.20
593.10	273.84
593.26	243.42
593.41	243.42
593.57	365.12
593.73	489.17
593.89	2361.60
594.05	5893.47
594.20	8112.30
594.36	7683.98
594.52	4858.95
594.68	3251.00
594.84	2064.35
594.99	1123.46
595.15	575.77
595.31	461.09
595.47	271.50
595.62	294.91
595.78	184.90
595.94	241.08
596.10	341.72
596.25	292.57
596.41	341.72
596.57	294.91
596.73	243.42
596.88	484.49
597.04	1158.57
597.20	1853.70
597.36	1937.96
597.51	1493.26
597.67	985.37
597.83	695.14
597.99	486.83
598.14	337.04
598.30	339.38
598.46	290.23
598.61	238.73
598.77	227.03
598.93	262.14
599.09	205.97
599.24	234.05
599.40	236.39
599.56	248.10
599.71	287.89
599.87	198.95
600.03	238.73
600.18	318.31
600.34	182.56
600.50	168.52
600.65	147.45
600.81	224.69
600.97	177.88
601.12	184.90
601.28	245.76
601.44	203.63
601.59	166.18
601.75	196.60
601.91	215.33
602.06	224.69
602.22	367.46
602.37	561.73
602.53	1385.60
602.69	2118.18
602.84	2054.99
603.00	1547.09
603.16	1109.41
603.31	826.21
603.47	510.24
603.62	292.57
603.78	351.08
603.94	264.48
604.09	236.39
604.25	322.99
604.40	215.33
604.56	227.03
604.71	182.56
604.87	201.29
605.03	222.35
605.18	224.69
605.34	250.44
605.49	191.92
605.65	241.08
605.80	276.18
605.96	266.82
606.12	210.65
606.27	227.03
606.43	285.55
606.58	390.87
606.74	791.10
606.89	2984.18
607.05	5659.42
607.20	6956.07
607.36	5584.52
607.51	3747.20
607.67	2476.29
607.82	1741.36
607.98	971.32
608.13	491.51
608.29	341.72
608.44	360.44
608.60	287.89
608.75	395.55
608.91	896.43
609.06	4709.16
609.22	9301.29
609.37	11789.28
609.53	9966.00
609.68	6841.39
609.84	4538.30
609.99	2979.50
610.15	1547.09
610.30	788.76
610.46	528.96
610.61	372.15
610.76	297.25
610.92	278.52
611.07	255.12
611.23	353.42
611.38	297.25
611.54	257.46
611.69	241.08
611.84	227.03
612.00	238.73
612.15	278.52
612.31	395.55
612.46	521.94
612.62	512.58
612.77	533.64
612.92	465.77
613.08	484.49
613.23	397.89
613.39	388.53
613.54	695.14
613.69	4461.06
613.85	12051.42
614.00	18300.65
614.15	18867.06
614.31	13221.69
614.46	8847.22
614.62	5799.85
614.77	3349.31
614.92	1659.44
615.08	828.55
615.23	491.51
615.38	386.19
615.54	386.19
615.69	781.74
615.84	2387.35
616.00	3953.16
616.15	4774.69
616.30	4011.68
616.46	2810.98
616.61	1816.26
616.76	1348.15
616.92	631.94
617.07	416.62
617.22	365.12
617.37	236.39
617.53	257.46
617.68	243.42
617.83	231.71
617.99	292.57
618.14	245.76
618.29	266.82
618.45	205.97
618.60	287.89
618.75	159.16
618.90	159.16
619.06	194.26
619.21	224.69
619.36	147.45
619.51	138.09
619.67	189.58
619.82	152.13
619.97	191.92
620.12	257.46
620.28	224.69
620.43	227.03
620.58	285.55
620.73	217.67
620.89	297.25
621.04	514.92
621.19	1401.98
621.34	2265.64
621.49	2970.14
621.65	2502.03
621.80	1902.86
621.95	1193.67
622.10	875.36
622.25	564.07
622.41	311.29
622.56	276.18
622.71	248.10
622.86	269.16
623.01	205.97
623.16	170.86
623.32	255.12
623.47	142.77
623.62	245.76
623.77	154.48
623.92	234.05
624.07	168.52
624.23	184.90
624.38	166.18
624.53	241.08
624.68	238.73
624.83	290.23
624.98	217.67
625.13	205.97
625.29	236.39
625.44	259.80
625.59	262.14
625.74	283.20
625.89	458.74
626.04	2193.08
626.19	5891.13
626.34	8915.10
626.49	9643.01
626.65	7201.83
626.80	4692.77
626.95	3260.37
627.10	1933.28
627.25	968.98
627.40	507.90
627.55	365.12
627.70	257.46
627.85	208.31
628.00	241.08
628.15	184.90
628.30	241.08
628.45	198.95
628.60	149.79
628.76	220.01
628.91	212.99
629.06	189.58
629.21	145.11
629.36	273.84
629.51	203.63
629.66	264.48
629.81	365.12
629.96	1128.14
630.11	2071.37
630.26	2525.44
630.41	2277.34
630.56	1549.43
630.71	1069.62
630.86	760.67
631.01	461.09
631.16	301.93
631.31	313.63
631.46	290.23
631.61	203.63
631.76	252.78
631.91	208.31
632.06	201.29
632.21	224.69
632.36	269.16
632.51	341.72
632.66	348.74
632.81	1022.81
632.96	3396.12
633.10	5596.22
633.25	6817.98
633.40	5430.04
633.55	3882.95
633.70	2527.78
633.85	1633.69
634.00	959.62
634.15	470.45
634.30	304.27
634.45	255.12
634.60	250.44
634.75	156.82
634.90	248.10
635.05	222.35
635.19	243.42
635.34	191.92
635.49	194.26
635.64	252.78
635.79	236.39
635.94	208.31
636.09	234.05
636.24	252.78
636.39	184.90
636.53	278.52
636.68	210.65
636.83	280.86
636.98	217.67
637.13	301.93
637.28	276.18
637.43	308.95
637.57	594.50
637.72	2935.03
637.87	7681.64
638.02	11529.48
638.17	12264.41
638.32	8990.00
638.46	6298.38
638.61	4238.71
638.76	2553.52
638.91	1380.92
639.06	692.80
639.20	547.69
639.35	519.60
639.50	793.44
639.65	4535.96
639.80	12241.00
639.94	18462.15
640.09	19875.83
640.24	14511.32
640.39	9987.07
640.54	6588.61
640.68	3911.04
640.83	1935.62
640.98	870.68
641.13	599.18
641.27	271.50
641.42	292.57
641.57	344.06
641.72	306.61
641.86	318.31
642.01	161.50
642.16	224.69
642.31	182.56
642.45	243.42
642.60	243.42
642.75	203.63
642.90	222.35
643.04	220.01
643.19	191.92
643.34	166.18
643.48	227.03
643.63	264.48
643.78	170.86
643.93	215.33
644.07	208.31
644.22	252.78
644.37	208.31
644.51	170.86
644.66	210.65
644.81	189.58
644.95	271.50
645.10	241.08
645.25	170.86
645.39	222.35
645.54	257.46
645.69	220.01
645.83	189.58
645.98	224.69
646.13	156.82
646.27	243.42
646.42	191.92
646.57	159.16
646.71	175.54
646.86	187.24
647.00	131.07
647.15	102.98
647.30	161.50
647.44	212.99
647.59	152.13
647.74	135.75
647.88	180.22
648.03	117.03
648.17	210.65
648.32	126.39
648.47	203.63
648.61	217.67
648.76	102.98
648.90	191.92
649.05	184.90
649.20	142.77
649.34	198.95
649.49	210.65
649.63	175.54
649.78	208.31
649.92	475.13
650.07	1708.59
650.21	5392.59
650.36	8498.49
650.51	9958.98
650.65	8161.45
650.80	5870.06
650.94	3779.97
651.09	2431.82
651.23	1163.25
651.38	634.29
651.52	397.89
651.67	227.03
651.81	198.95
651.96	280.86
652.10	266.82
652.25	231.71
652.39	250.44
652.54	273.84
652.68	568.75
652.83	1701.57
652.97	2946.73
653.12	3613.79
653.26	3110.57
653.41	2134.57
653.55	1504.96
653.70	1081.33
653.84	690.46
653.99	447.04
654.13	280.86
654.27	170.86
654.42	173.20
654.56	149.79
654.71	201.29
654.85	227.03
655.00	177.88
655.14	140.43
655.29	121.71
655.43	156.82
655.57	131.07
655.72	163.84
655.86	117.03
656.01	175.54
656.15	154.48
656.30	112.35
656.44	124.05
656.58	107.66
656.73	149.79
656.87	189.58
657.01	217.67
657.16	194.26
657.30	84.26
657.45	243.42
657.59	117.03
657.73	182.56
657.88	152.13
658.02	264.48
658.16	154.48
658.31	163.84
658.45	208.31
658.60	161.50
658.74	149.79
658.88	234.05
659.03	161.50
659.17	203.63
659.31	765.36
659.46	2548.84
659.60	3969.55
659.74	4936.19
659.89	4283.18
660.03	3169.09
660.17	2265.64
660.32	1294.32
660.46	805.14
660.60	498.53
660.74	271.50
660.89	231.71
661.03	224.69
661.17	154.48
661.32	182.56
661.46	283.20
661.60	201.29
661.74	131.07
661.89	173.20
662.03	191.92
662.17	138.09
662.31	184.90
662.46	236.39
662.60	149.79
662.74	135.75
662.88	147.45
663.03	147.45
663.17	215.33
663.31	177.88
663.45	175.54
663.60	119.37
663.74	135.75
663.88	191.92
664.02	112.35
664.17	81.92
664.31	198.95
664.45	250.44
664.59	161.50
664.73	163.84
664.88	229.37
665.02	159.16
665.16	163.84
665.30	163.84
665.44	191.92
665.59	159.16
665.73	248.10
665.87	135.75
666.01	224.69
666.15	189.58
666.29	173.20
666.44	173.20
666.58	259.80
666.72	194.26
666.86	220.01
667.00	276.18
667.14	311.29
667.28	1570.50
667.43	4561.70
667.57	7211.19
667.71	8709.13
667.85	7265.02
667.99	5224.08
668.13	3506.12
668.27	2066.69
668.41	1181.97
668.56	624.92
668.70	484.49
668.84	250.44
668.98	241.08
669.12	220.01
669.26	198.95
669.40	229.37
669.54	201.29
669.68	205.97
669.82	166.18
669.96	110.01
670.10	194.26
670.25	100.64
670.39	180.22
670.53	161.50
670.67	173.20
670.81	229.37
670.95	201.29
671.09	479.81
671.23	1783.49
671.37	3644.21
671.51	5146.84
671.65	5448.77
671.79	4203.60
671.93	2902.26
672.07	1685.19
672.21	980.68
672.35	540.66
672.49	367.46
672.63	304.27
672.77	203.63
672.91	205.97
673.05	175.54
673.19	182.56
673.33	119.37
673.47	159.16
673.61	156.82
673.75	142.77
673.89	163.84
674.03	215.33
674.17	84.26
674.31	156.82
674.45	227.03
674.59	182.56
674.73	149.79
674.87	163.84
675.01	159.16
675.15	191.92
675.29	170.86
675.43	152.13
675.56	201.29
675.70	259.80
675.84	234.05
675.98	238.73
676.12	208.31
676.26	100.64
676.40	175.54
676.54	112.35
676.68	117.03
676.82	163.84
676.96	145.11
677.10	135.75
677.23	135.75
677.37	133.41
677.51	138.09
677.65	159.16
677.79	180.22
677.93	133.41
678.07	131.07
678.21	208.31
678.34	79.58
678.48	154.48
678.62	135.75
678.76	102.98
678.90	128.73
679.04	140.43
679.18	128.73
679.31	110.01
679.45	102.98
679.59	156.82
679.73	154.48
679.87	126.39
680.00	114.69
680.14	65.54
680.28	142.77
680.42	93.62
680.56	124.05
680.70	203.63
680.83	135.75
680.97	91.28
681.11	39.79
681.25	170.86
681.39	131.07
681.52	166.18
681.66	91.28
681.80	110.01
681.94	147.45
682.07	100.64
682.21	177.88
682.35	37.45
682.49	114.69
682.62	170.86
682.76	100.64
682.90	201.29
683.04	149.79
683.17	121.71
683.31	133.41
683.45	98.30
683.59	154.48
683.72	133.41
683.86	131.07
684.00	110.01
684.13	189.58
684.27	205.97
684.41	142.77
684.55	110.01
684.68	147.45
684.82	117.03
684.96	180.22
685.09	102.98
685.23	63.19
685.37	107.66
685.50	180.22
685.64	105.32
685.78	154.48
685.91	98.30
686.05	212.99
686.19	131.07
686.32	131.07
686.46	93.62
686.60	126.39
686.73	161.50
686.87	173.20
687.01	114.69
687.14	149.79
687.28	145.11
687.42	39.79
687.55	147.45
687.69	175.54
687.82	93.62
687.96	131.07
688.10	191.92
688.23	180.22
688.37	121.71
688.50	124.05
688.64	147.45
688.78	77.24
688.91	119.37
689.05	145.11
689.18	163.84
689.32	133.41
689.46	105.32
689.59	102.98
689.73	173.20
689.86	117.03
690.00	131.07
690.13	105.32
690.27	81.92
690.41	98.30
690.54	182.56
690.68	159.16
690.81	128.73
690.95	198.95
691.08	112.35
691.22	128.73
691.35	208.31
691.49	175.54
691.62	117.03
691.76	170.86
691.89	126.39
692.03	145.11
692.16	131.07
692.30	128.73
692.43	575.77
692.57	1804.55
692.70	2965.46
692.84	3794.01
692.97	3417.18
693.11	2551.18
693.24	1891.15
693.38	1259.21
693.51	805.14
693.65	578.11
693.78	416.62
693.92	283.20
694.05	245.76
694.19	140.43
694.32	205.97
694.45	212.99
694.59	126.39
694.72	156.82
694.86	110.01
694.99	173.20
695.13	102.98
695.26	154.48
695.39	170.86
695.53	145.11
695.66	166.18
695.80	177.88
695.93	88.94
696.07	140.43
696.20	217.67
696.33	280.86
696.47	348.74
696.60	264.48
696.73	215.33
696.87	234.05
697.00	196.60
697.14	93.62
697.27	145.11
697.40	189.58
697.54	98.30
697.67	88.94
697.80	168.52
697.94	63.19
698.07	128.73
698.21	149.79
698.34	86.60
698.47	63.19
698.61	147.45
698.74	135.75
698.87	133.41
699.01	74.90
699.14	105.32
699.27	102.98
699.40	220.01
699.54	142.77
699.67	117.03
699.80	93.62
699.94	93.62
700.07	81.92
700.20	131.07
700.34	72.56
700.47	84.26
700.60	138.09
700.73	128.73
700.87	173.20
701.00	184.90
701.13	135.75
701.26	121.71
701.40	131.07
701.53	112.35
701.66	161.50
701.79	93.62
701.93	212.99
702.06	311.29
702.19	280.86
702.32	411.93
702.46	327.68
702.59	376.83
702.72	732.59
702.85	2537.14
702.99	5228.76
703.12	6846.07
703.25	7492.05
703.38	6195.40
703.51	4915.12
703.65	3698.05
703.78	2551.18
703.91	1727.32
704.04	1121.12
704.17	690.46
704.31	461.09
704.44	339.38
704.57	215.33
704.70	154.48
704.83	194.26
704.96	147.45
705.10	63.19
705.23	182.56
>>>>>End Processed Spectral Data<<<<<
