SpectraSuite Data File
++++++++++++++++++++++++++++++++++++
Date: Fri Oct 04 11:46:57 GMT-05:00 2013
User: price-jones
Dark Spectrum Present: No
Reference Spectrum Present: No
Number of Sampled Component Spectra: 1
Spectrometers: USB2+H05261
Integration Time (usec): 100000 (USB2+H05261)
Spectra Averaged: 1 (USB2+H05261)
Boxcar Smoothing: 0 (USB2+H05261)
Correct for Electrical Dark: No (USB2+H05261)
Strobe/Lamp Enabled: No (USB2+H05261)
Correct for Detector Non-linearity: No (USB2+H05261)
Correct for Stray Light: No (USB2+H05261)
Number of Pixels in Processed Spectrum: 2048
>>>>>Begin Processed Spectral Data<<<<<
365.73	18.72
365.92	18.72
366.12	18.72
366.32	0.00
366.52	0.00
366.72	0.00
366.91	0.00
367.11	0.00
367.31	0.00
367.51	0.00
367.70	0.00
367.90	0.00
368.10	0.00
368.30	0.00
368.49	0.00
368.69	0.00
368.89	0.00
369.09	0.00
369.28	0.00
369.48	0.00
369.68	0.00
369.87	0.00
370.07	0.00
370.27	11.70
370.47	51.49
370.66	56.17
370.86	21.06
371.06	53.83
371.25	63.19
371.45	18.72
371.65	46.81
371.84	35.11
372.04	56.17
372.24	102.98
372.44	28.09
372.63	126.39
372.83	79.58
373.03	98.30
373.22	98.30
373.42	100.64
373.62	39.79
373.81	161.50
374.01	44.47
374.21	60.85
374.40	86.60
374.60	126.39
374.79	138.09
374.99	79.58
375.19	88.94
375.38	60.85
375.58	159.16
375.78	72.56
375.97	39.79
376.17	117.03
376.37	21.06
376.56	105.32
376.76	119.37
376.95	110.01
377.15	67.88
377.35	124.05
377.54	81.92
377.74	84.26
377.93	21.06
378.13	91.28
378.33	142.77
378.52	63.19
378.72	110.01
378.91	119.37
379.11	65.54
379.31	105.32
379.50	102.98
379.70	74.90
379.89	81.92
380.09	56.17
380.28	28.09
380.48	67.88
380.68	128.73
380.87	74.90
381.07	70.22
381.26	117.03
381.46	105.32
381.65	102.98
381.85	88.94
382.04	16.38
382.24	105.32
382.43	133.41
382.63	98.30
382.83	131.07
383.02	138.09
383.22	168.52
383.41	77.24
383.61	42.13
383.80	119.37
384.00	95.96
384.19	74.90
384.39	152.13
384.58	70.22
384.78	119.37
384.97	65.54
385.17	70.22
385.36	91.28
385.56	163.84
385.75	91.28
385.95	105.32
386.14	147.45
386.34	98.30
386.53	149.79
386.72	152.13
386.92	138.09
387.11	93.62
387.31	93.62
387.50	39.79
387.70	138.09
387.89	28.09
388.09	79.58
388.28	147.45
388.48	35.11
388.67	65.54
388.86	93.62
389.06	114.69
389.25	154.48
389.45	107.66
389.64	124.05
389.84	128.73
390.03	72.56
390.22	42.13
390.42	100.64
390.61	79.58
390.81	37.45
391.00	95.96
391.19	98.30
391.39	107.66
391.58	93.62
391.78	131.07
391.97	168.52
392.16	121.71
392.36	126.39
392.55	159.16
392.75	126.39
392.94	114.69
393.13	198.95
393.33	72.56
393.52	126.39
393.71	163.84
393.91	72.56
394.10	121.71
394.29	135.75
394.49	189.58
394.68	175.54
394.88	168.52
395.07	140.43
395.26	121.71
395.46	114.69
395.65	77.24
395.84	140.43
396.04	205.97
396.23	121.71
396.42	88.94
396.62	58.51
396.81	180.22
397.00	131.07
397.19	95.96
397.39	112.35
397.58	166.18
397.77	107.66
397.97	77.24
398.16	21.06
398.35	124.05
398.55	35.11
398.74	163.84
398.93	65.54
399.12	105.32
399.32	184.90
399.51	138.09
399.70	135.75
399.90	161.50
400.09	60.85
400.28	119.37
400.47	46.81
400.67	98.30
400.86	149.79
401.05	166.18
401.24	107.66
401.44	112.35
401.63	88.94
401.82	142.77
402.01	51.49
402.21	102.98
402.40	51.49
402.59	102.98
402.78	91.28
402.97	105.32
403.17	105.32
403.36	163.84
403.55	95.96
403.74	74.90
403.93	133.41
404.13	196.60
404.32	187.24
404.51	86.60
404.70	149.79
404.89	98.30
405.09	121.71
405.28	98.30
405.47	84.26
405.66	191.92
405.85	154.48
406.05	131.07
406.24	23.41
406.43	126.39
406.62	100.64
406.81	229.37
407.00	124.05
407.20	112.35
407.39	88.94
407.58	102.98
407.77	114.69
407.96	154.48
408.15	102.98
408.34	156.82
408.54	140.43
408.73	138.09
408.92	86.60
409.11	135.75
409.30	142.77
409.49	63.19
409.68	149.79
409.87	142.77
410.07	98.30
410.26	126.39
410.45	74.90
410.64	28.09
410.83	112.35
411.02	110.01
411.21	67.88
411.40	161.50
411.59	149.79
411.78	133.41
411.98	119.37
412.17	121.71
412.36	110.01
412.55	67.88
412.74	107.66
412.93	163.84
413.12	121.71
413.31	149.79
413.50	142.77
413.69	84.26
413.88	107.66
414.07	63.19
414.26	114.69
414.45	145.11
414.64	114.69
414.83	88.94
415.02	142.77
415.22	124.05
415.41	163.84
415.60	161.50
415.79	95.96
415.98	212.99
416.17	100.64
416.36	133.41
416.55	46.81
416.74	187.24
416.93	194.26
417.12	112.35
417.31	86.60
417.50	93.62
417.69	152.13
417.88	152.13
418.07	93.62
418.26	84.26
418.45	138.09
418.64	184.90
418.83	224.69
419.02	121.71
419.21	145.11
419.39	138.09
419.58	159.16
419.77	121.71
419.96	159.16
420.15	159.16
420.34	138.09
420.53	175.54
420.72	177.88
420.91	98.30
421.10	58.51
421.29	114.69
421.48	133.41
421.67	133.41
421.86	95.96
422.05	149.79
422.24	140.43
422.43	138.09
422.61	114.69
422.80	88.94
422.99	79.58
423.18	63.19
423.37	159.16
423.56	140.43
423.75	152.13
423.94	187.24
424.13	102.98
424.32	95.96
424.50	145.11
424.69	100.64
424.88	145.11
425.07	138.09
425.26	182.56
425.45	177.88
425.64	212.99
425.83	198.95
426.01	168.52
426.20	175.54
426.39	168.52
426.58	74.90
426.77	88.94
426.96	117.03
427.15	121.71
427.33	88.94
427.52	95.96
427.71	140.43
427.90	93.62
428.09	201.29
428.28	147.45
428.46	114.69
428.65	98.30
428.84	88.94
429.03	86.60
429.22	35.11
429.40	100.64
429.59	102.98
429.78	173.20
429.97	91.28
430.16	88.94
430.34	88.94
430.53	72.56
430.72	88.94
430.91	140.43
431.10	79.58
431.28	110.01
431.47	65.54
431.66	149.79
431.85	117.03
432.03	145.11
432.22	135.75
432.41	100.64
432.60	220.01
432.79	250.44
432.97	243.42
433.16	255.12
433.35	236.39
433.54	173.20
433.72	107.66
433.91	215.33
434.10	177.88
434.28	156.82
434.47	145.11
434.66	140.43
434.85	140.43
435.03	161.50
435.22	203.63
435.41	70.22
435.59	182.56
435.78	79.58
435.97	110.01
436.16	152.13
436.34	149.79
436.53	98.30
436.72	166.18
436.90	138.09
437.09	170.86
437.28	110.01
437.46	105.32
437.65	145.11
437.84	238.73
438.02	107.66
438.21	173.20
438.40	121.71
438.58	149.79
438.77	117.03
438.96	63.19
439.14	74.90
439.33	112.35
439.52	102.98
439.70	112.35
439.89	201.29
440.08	114.69
440.26	168.52
440.45	133.41
440.63	112.35
440.82	159.16
441.01	117.03
441.19	154.48
441.38	152.13
441.57	124.05
441.75	203.63
441.94	121.71
442.12	131.07
442.31	126.39
442.50	191.92
442.68	154.48
442.87	126.39
443.05	140.43
443.24	114.69
443.43	262.14
443.61	159.16
443.80	145.11
443.98	175.54
444.17	63.19
444.35	170.86
444.54	95.96
444.73	140.43
444.91	175.54
445.10	126.39
445.28	102.98
445.47	93.62
445.65	112.35
445.84	147.45
446.02	135.75
446.21	70.22
446.39	168.52
446.58	95.96
446.77	152.13
446.95	180.22
447.14	138.09
447.32	168.52
447.51	86.60
447.69	95.96
447.88	95.96
448.06	198.95
448.25	100.64
448.43	63.19
448.62	177.88
448.80	131.07
448.99	72.56
449.17	156.82
449.36	131.07
449.54	138.09
449.73	154.48
449.91	107.66
450.10	187.24
450.28	205.97
450.46	182.56
450.65	152.13
450.83	121.71
451.02	142.77
451.20	140.43
451.39	131.07
451.57	121.71
451.76	147.45
451.94	222.35
452.13	140.43
452.31	222.35
452.49	107.66
452.68	187.24
452.86	131.07
453.05	147.45
453.23	173.20
453.42	102.98
453.60	100.64
453.78	152.13
453.97	135.75
454.15	107.66
454.34	149.79
454.52	81.92
454.70	152.13
454.89	194.26
455.07	182.56
455.26	126.39
455.44	173.20
455.62	142.77
455.81	163.84
455.99	182.56
456.17	140.43
456.36	152.13
456.54	81.92
456.73	198.95
456.91	86.60
457.09	145.11
457.28	145.11
457.46	161.50
457.64	182.56
457.83	196.60
458.01	107.66
458.19	112.35
458.38	124.05
458.56	154.48
458.74	184.90
458.93	166.18
459.11	121.71
459.29	49.15
459.48	126.39
459.66	126.39
459.84	180.22
460.03	248.10
460.21	159.16
460.39	58.51
460.57	163.84
460.76	154.48
460.94	88.94
461.12	205.97
461.31	175.54
461.49	105.32
461.67	102.98
461.85	119.37
462.04	262.14
462.22	664.71
462.40	259.80
462.59	194.26
462.77	145.11
462.95	91.28
463.13	147.45
463.32	175.54
463.50	212.99
463.68	201.29
463.86	149.79
464.05	156.82
464.23	198.95
464.41	114.69
464.59	119.37
464.78	98.30
464.96	236.39
465.14	168.52
465.32	102.98
465.50	161.50
465.69	126.39
465.87	102.98
466.05	245.76
466.23	65.54
466.41	182.56
466.60	175.54
466.78	173.20
466.96	147.45
467.14	163.84
467.32	126.39
467.51	107.66
467.69	135.75
467.87	208.31
468.05	170.86
468.23	140.43
468.41	161.50
468.60	201.29
468.78	175.54
468.96	147.45
469.14	145.11
469.32	154.48
469.50	93.62
469.69	140.43
469.87	131.07
470.05	154.48
470.23	128.73
470.41	166.18
470.59	182.56
470.77	117.03
470.95	105.32
471.14	198.95
471.32	198.95
471.50	205.97
471.68	173.20
471.86	105.32
472.04	131.07
472.22	189.58
472.40	159.16
472.58	107.66
472.77	107.66
472.95	77.24
473.13	224.69
473.31	159.16
473.49	67.88
473.67	191.92
473.85	161.50
474.03	124.05
474.21	88.94
474.39	182.56
474.57	220.01
474.75	117.03
474.93	138.09
475.12	65.54
475.30	159.16
475.48	145.11
475.66	159.16
475.84	166.18
476.02	110.01
476.20	163.84
476.38	220.01
476.56	203.63
476.74	91.28
476.92	201.29
477.10	81.92
477.28	98.30
477.46	119.37
477.64	133.41
477.82	140.43
478.00	194.26
478.18	166.18
478.36	63.19
478.54	208.31
478.72	112.35
478.90	166.18
479.08	187.24
479.26	166.18
479.44	168.52
479.62	177.88
479.80	170.86
479.98	177.88
480.16	152.13
480.34	187.24
480.52	189.58
480.70	180.22
480.88	187.24
481.06	140.43
481.24	170.86
481.41	198.95
481.59	154.48
481.77	215.33
481.95	248.10
482.13	215.33
482.31	79.58
482.49	114.69
482.67	208.31
482.85	208.31
483.03	182.56
483.21	138.09
483.39	145.11
483.57	142.77
483.74	154.48
483.92	131.07
484.10	152.13
484.28	189.58
484.46	248.10
484.64	196.60
484.82	224.69
485.00	133.41
485.18	163.84
485.35	161.50
485.53	173.20
485.71	227.03
485.89	152.13
486.07	140.43
486.25	248.10
486.43	203.63
486.61	159.16
486.78	124.05
486.96	124.05
487.14	102.98
487.32	131.07
487.50	177.88
487.68	255.12
487.85	145.11
488.03	177.88
488.21	166.18
488.39	135.75
488.57	262.14
488.75	203.63
488.92	468.11
489.10	149.79
489.28	215.33
489.46	60.85
489.64	170.86
489.81	198.95
489.99	140.43
490.17	107.66
490.35	205.97
490.53	147.45
490.70	203.63
490.88	154.48
491.06	175.54
491.24	255.12
491.41	210.65
491.59	161.50
491.77	133.41
491.95	161.50
492.13	182.56
492.30	140.43
492.48	145.11
492.66	208.31
492.84	149.79
493.01	121.71
493.19	105.32
493.37	187.24
493.54	175.54
493.72	224.69
493.90	156.82
494.08	177.88
494.25	177.88
494.43	208.31
494.61	229.37
494.79	142.77
494.96	210.65
495.14	191.92
495.32	234.05
495.49	159.16
495.67	227.03
495.85	184.90
496.02	140.43
496.20	212.99
496.38	248.10
496.55	159.16
496.73	220.01
496.91	133.41
497.09	217.67
497.26	168.52
497.44	93.62
497.62	222.35
497.79	138.09
497.97	173.20
498.14	166.18
498.32	180.22
498.50	119.37
498.67	191.92
498.85	231.71
499.03	191.92
499.20	198.95
499.38	163.84
499.56	191.92
499.73	173.20
499.91	149.79
500.08	241.08
500.26	152.13
500.44	198.95
500.61	173.20
500.79	215.33
500.97	166.18
501.14	238.73
501.32	189.58
501.49	252.78
501.67	217.67
501.84	168.52
502.02	255.12
502.20	152.13
502.37	152.13
502.55	173.20
502.72	189.58
502.90	252.78
503.07	119.37
503.25	252.78
503.43	229.37
503.60	149.79
503.78	243.42
503.95	196.60
504.13	187.24
504.30	205.97
504.48	187.24
504.65	215.33
504.83	259.80
505.01	161.50
505.18	238.73
505.36	187.24
505.53	117.03
505.71	154.48
505.88	217.67
506.06	121.71
506.23	135.75
506.41	140.43
506.58	205.97
506.76	262.14
506.93	189.58
507.11	201.29
507.28	201.29
507.46	170.86
507.63	191.92
507.81	238.73
507.98	212.99
508.16	203.63
508.33	170.86
508.50	227.03
508.68	212.99
508.85	210.65
509.03	147.45
509.20	222.35
509.38	283.20
509.55	180.22
509.73	166.18
509.90	212.99
510.08	196.60
510.25	234.05
510.42	252.78
510.60	166.18
510.77	217.67
510.95	168.52
511.12	191.92
511.30	217.67
511.47	238.73
511.64	257.46
511.82	217.67
511.99	100.64
512.17	170.86
512.34	191.92
512.51	126.39
512.69	170.86
512.86	229.37
513.04	203.63
513.21	163.84
513.38	147.45
513.56	203.63
513.73	208.31
513.90	156.82
514.08	201.29
514.25	285.55
514.43	234.05
514.60	245.76
514.77	147.45
514.95	133.41
515.12	217.67
515.29	224.69
515.47	173.20
515.64	215.33
515.81	210.65
515.99	184.90
516.16	217.67
516.33	229.37
516.51	175.54
516.68	182.56
516.85	102.98
517.03	142.77
517.20	269.16
517.37	191.92
517.54	168.52
517.72	252.78
517.89	196.60
518.06	147.45
518.24	245.76
518.41	229.37
518.58	234.05
518.75	173.20
518.93	241.08
519.10	168.52
519.27	189.58
519.45	227.03
519.62	201.29
519.79	81.92
519.96	205.97
520.14	236.39
520.31	248.10
520.48	257.46
520.65	238.73
520.83	168.52
521.00	201.29
521.17	180.22
521.34	224.69
521.52	191.92
521.69	236.39
521.86	222.35
522.03	215.33
522.20	273.84
522.38	177.88
522.55	170.86
522.72	138.09
522.89	255.12
523.07	339.38
523.24	231.71
523.41	210.65
523.58	220.01
523.75	231.71
523.92	166.18
524.10	208.31
524.27	287.89
524.44	184.90
524.61	262.14
524.78	248.10
524.96	205.97
525.13	215.33
525.30	163.84
525.47	248.10
525.64	191.92
525.81	234.05
525.98	142.77
526.16	184.90
526.33	264.48
526.50	126.39
526.67	189.58
526.84	189.58
527.01	212.99
527.18	234.05
527.36	196.60
527.53	170.86
527.70	173.20
527.87	191.92
528.04	280.86
528.21	203.63
528.38	238.73
528.55	147.45
528.72	177.88
528.89	236.39
529.07	189.58
529.24	124.05
529.41	238.73
529.58	222.35
529.75	285.55
529.92	285.55
530.09	271.50
530.26	271.50
530.43	243.42
530.60	252.78
530.77	220.01
530.94	187.24
531.11	224.69
531.28	163.84
531.46	248.10
531.63	191.92
531.80	241.08
531.97	203.63
532.14	177.88
532.31	161.50
532.48	173.20
532.65	320.65
532.82	297.25
532.99	315.97
533.16	297.25
533.33	166.18
533.50	212.99
533.67	283.20
533.84	358.10
534.01	458.74
534.18	393.21
534.35	344.06
534.52	241.08
534.69	201.29
534.86	168.52
535.03	201.29
535.20	166.18
535.37	269.16
535.54	154.48
535.71	182.56
535.88	133.41
536.05	180.22
536.22	222.35
536.38	189.58
536.55	187.24
536.72	234.05
536.89	196.60
537.06	135.75
537.23	163.84
537.40	257.46
537.57	215.33
537.74	142.77
537.91	189.58
538.08	257.46
538.25	234.05
538.42	182.56
538.59	208.31
538.75	276.18
538.92	236.39
539.09	191.92
539.26	301.93
539.43	418.96
539.60	976.00
539.77	1561.14
539.94	1603.27
540.11	976.00
540.28	650.67
540.44	400.23
540.61	217.67
540.78	198.95
540.95	203.63
541.12	283.20
541.29	191.92
541.46	248.10
541.62	299.59
541.79	175.54
541.96	238.73
542.13	189.58
542.30	145.11
542.47	215.33
542.63	208.31
542.80	203.63
542.97	234.05
543.14	173.20
543.31	180.22
543.48	189.58
543.64	133.41
543.81	276.18
543.98	273.84
544.15	166.18
544.32	201.29
544.48	212.99
544.65	220.01
544.82	224.69
544.99	255.12
545.16	245.76
545.32	210.65
545.49	222.35
545.66	180.22
545.83	203.63
546.00	201.29
546.16	189.58
546.33	205.97
546.50	201.29
546.67	241.08
546.83	170.86
547.00	201.29
547.17	175.54
547.34	131.07
547.50	245.76
547.67	203.63
547.84	255.12
548.00	231.71
548.17	224.69
548.34	81.92
548.51	227.03
548.67	245.76
548.84	205.97
549.01	227.03
549.18	271.50
549.34	238.73
549.51	299.59
549.68	212.99
549.84	224.69
550.01	191.92
550.18	299.59
550.34	322.99
550.51	159.16
550.68	161.50
550.84	173.20
551.01	217.67
551.18	276.18
551.34	180.22
551.51	208.31
551.68	231.71
551.84	231.71
552.01	194.26
552.18	135.75
552.34	159.16
552.51	191.92
552.68	194.26
552.84	208.31
553.01	170.86
553.18	241.08
553.34	180.22
553.51	198.95
553.67	208.31
553.84	208.31
554.01	187.24
554.17	257.46
554.34	175.54
554.51	215.33
554.67	231.71
554.84	224.69
555.00	241.08
555.17	229.37
555.33	215.33
555.50	273.84
555.67	203.63
555.83	189.58
556.00	262.14
556.16	369.80
556.33	189.58
556.50	241.08
556.66	255.12
556.83	177.88
556.99	166.18
557.16	156.82
557.32	259.80
557.49	224.69
557.65	131.07
557.82	131.07
557.98	180.22
558.15	287.89
558.32	215.33
558.48	290.23
558.65	241.08
558.81	156.82
558.98	245.76
559.14	236.39
559.31	196.60
559.47	269.16
559.64	198.95
559.80	276.18
559.97	248.10
560.13	203.63
560.30	124.05
560.46	161.50
560.63	191.92
560.79	231.71
560.96	194.26
561.12	245.76
561.29	170.86
561.45	156.82
561.61	198.95
561.78	280.86
561.94	231.71
562.11	231.71
562.27	217.67
562.44	156.82
562.60	105.32
562.77	145.11
562.93	322.99
563.10	222.35
563.26	152.13
563.42	205.97
563.59	182.56
563.75	220.01
563.92	201.29
564.08	156.82
564.24	269.16
564.41	250.44
564.57	189.58
564.74	217.67
564.90	212.99
565.07	177.88
565.23	241.08
565.39	276.18
565.56	264.48
565.72	203.63
565.88	229.37
566.05	208.31
566.21	180.22
566.38	224.69
566.54	140.43
566.70	149.79
566.87	180.22
567.03	194.26
567.19	184.90
567.36	264.48
567.52	297.25
567.68	203.63
567.85	145.11
568.01	234.05
568.17	163.84
568.34	220.01
568.50	255.12
568.66	182.56
568.83	313.63
568.99	210.65
569.15	203.63
569.32	252.78
569.48	168.52
569.64	156.82
569.81	182.56
569.97	175.54
570.13	191.92
570.30	184.90
570.46	184.90
570.62	156.82
570.78	220.01
570.95	177.88
571.11	224.69
571.27	229.37
571.43	278.52
571.60	243.42
571.76	238.73
571.92	224.69
572.09	229.37
572.25	147.45
572.41	198.95
572.57	189.58
572.74	187.24
572.90	194.26
573.06	159.16
573.22	227.03
573.38	252.78
573.55	229.37
573.71	222.35
573.87	198.95
574.03	168.52
574.20	173.20
574.36	266.82
574.52	243.42
574.68	341.72
574.84	315.97
575.01	285.55
575.17	259.80
575.33	215.33
575.49	217.67
575.65	203.63
575.82	278.52
575.98	519.60
576.14	718.54
576.30	711.52
576.46	547.69
576.62	402.57
576.79	374.49
576.95	297.25
577.11	222.35
577.27	299.59
577.43	222.35
577.59	372.15
577.75	297.25
577.92	245.76
578.08	287.89
578.24	229.37
578.40	231.71
578.56	224.69
578.72	276.18
578.88	259.80
579.04	236.39
579.21	241.08
579.37	266.82
579.53	266.82
579.69	325.33
579.85	241.08
580.01	379.17
580.17	301.93
580.33	332.36
580.49	262.14
580.65	301.93
580.82	308.95
580.98	353.42
581.14	313.63
581.30	360.44
581.46	418.96
581.62	557.05
581.78	606.20
581.94	550.03
582.10	465.77
582.26	414.27
582.42	304.27
582.58	386.19
582.74	454.06
582.90	341.72
583.06	437.68
583.22	440.02
583.38	393.21
583.54	491.51
583.70	540.66
583.86	699.82
584.02	788.76
584.18	910.47
584.34	1207.72
584.50	3180.79
584.66	24566.26
584.82	56432.66
584.98	65535.00
585.14	63124.25
585.30	49099.76
585.46	30169.51
585.62	18246.82
585.78	8344.01
585.94	3295.47
586.10	1600.93
586.26	959.62
586.42	840.25
586.58	685.78
586.74	582.79
586.90	564.07
587.06	564.07
587.22	524.28
587.38	463.43
587.54	1198.35
587.70	3473.36
587.86	5673.46
588.02	6389.66
588.18	4538.30
588.34	2803.96
588.49	1909.88
588.65	1102.39
588.81	578.11
588.97	454.06
589.13	355.76
589.29	212.99
589.45	292.57
589.61	299.59
589.77	334.70
589.93	411.93
590.08	442.36
590.24	409.59
590.40	458.74
590.56	409.59
590.72	287.89
590.88	248.10
591.04	322.99
591.20	287.89
591.35	297.25
591.51	330.02
591.67	320.65
591.83	297.25
591.99	318.31
592.15	297.25
592.31	334.70
592.46	280.86
592.62	367.46
592.78	287.89
592.94	308.95
593.10	341.72
593.26	337.04
593.41	315.97
593.57	369.80
593.73	533.64
593.89	2836.73
594.05	7428.86
594.20	11096.48
594.36	10574.54
594.52	7159.70
594.68	4320.63
594.84	2949.08
594.99	1607.95
595.15	685.78
595.31	418.96
595.47	337.04
595.62	358.10
595.78	264.48
595.94	273.84
596.10	400.23
596.25	360.44
596.41	393.21
596.57	243.42
596.73	271.50
596.88	545.34
597.04	1376.24
597.20	2305.43
597.36	2710.34
597.51	2094.78
597.67	1425.39
597.83	875.36
597.99	636.63
598.14	463.43
598.30	404.91
598.46	278.52
598.61	301.93
598.77	308.95
598.93	227.03
599.09	227.03
599.24	208.31
599.40	166.18
599.56	290.23
599.71	231.71
599.87	161.50
600.03	198.95
600.18	241.08
600.34	290.23
600.50	220.01
600.65	175.54
600.81	229.37
600.97	208.31
601.12	245.76
601.28	238.73
601.44	180.22
601.59	215.33
601.75	212.99
601.91	201.29
602.06	248.10
602.22	304.27
602.37	713.86
602.53	1739.02
602.69	2815.66
602.84	2864.82
603.00	2069.03
603.16	1495.60
603.31	1034.52
603.47	561.73
603.62	353.42
603.78	215.33
603.94	290.23
604.09	287.89
604.25	210.65
604.40	241.08
604.56	313.63
604.71	257.46
604.87	236.39
605.03	220.01
605.18	231.71
605.34	294.91
605.49	245.76
605.65	269.16
605.80	252.78
605.96	205.97
606.12	264.48
606.27	355.76
606.43	320.65
606.58	390.87
606.74	826.21
606.89	3421.86
607.05	7222.89
607.20	9537.68
607.36	7786.96
607.51	5137.48
607.67	3494.42
607.82	2232.87
607.98	1263.89
608.13	706.84
608.29	468.11
608.44	388.53
608.60	393.21
608.75	465.77
608.91	1247.51
609.06	5542.39
609.22	12320.58
609.37	17001.65
609.53	14516.00
609.68	9692.16
609.84	6162.63
609.99	4119.34
610.15	2092.44
610.30	1048.56
610.46	606.20
610.61	435.34
610.76	397.89
610.92	313.63
611.07	341.72
611.23	365.12
611.38	259.80
611.54	259.80
611.69	280.86
611.84	229.37
612.00	311.29
612.15	332.36
612.31	337.04
612.46	564.07
612.62	688.12
612.77	662.37
612.92	559.39
613.08	578.11
613.23	456.40
613.39	545.34
613.54	870.68
613.69	5050.88
613.85	15316.47
614.00	25120.97
614.15	27096.38
614.31	18803.86
614.46	12208.23
614.62	8102.93
614.77	4711.50
614.92	2111.16
615.08	1018.13
615.23	566.41
615.38	550.03
615.54	489.17
615.69	940.90
615.84	2949.08
616.00	5423.02
616.15	6787.55
616.30	5502.60
616.46	3765.92
616.61	2586.29
616.76	1652.42
616.92	987.71
617.07	465.77
617.22	332.36
617.37	276.18
617.53	276.18
617.68	351.08
617.83	318.31
617.99	337.04
618.14	276.18
618.29	227.03
618.45	322.99
618.60	241.08
618.75	252.78
618.90	257.46
619.06	191.92
619.21	332.36
619.36	299.59
619.51	248.10
619.67	255.12
619.82	313.63
619.97	238.73
620.12	220.01
620.28	290.23
620.43	215.33
620.58	224.69
620.73	306.61
620.89	325.33
621.04	554.71
621.19	1579.86
621.34	2993.55
621.49	3950.82
621.65	3496.76
621.80	2560.55
621.95	1689.87
622.10	1240.48
622.25	751.31
622.41	470.45
622.56	229.37
622.71	215.33
622.86	287.89
623.01	222.35
623.16	248.10
623.32	248.10
623.47	306.61
623.62	135.75
623.77	243.42
623.92	229.37
624.07	182.56
624.23	231.71
624.38	231.71
624.53	266.82
624.68	205.97
624.83	311.29
624.98	252.78
625.13	205.97
625.29	175.54
625.44	259.80
625.59	358.10
625.74	360.44
625.89	496.19
626.04	2403.73
626.19	7353.96
626.34	12063.12
626.49	14012.79
626.65	10221.12
626.80	6937.35
626.95	4608.51
627.10	2855.45
627.25	1390.28
627.40	746.63
627.55	461.09
627.70	379.17
627.85	306.61
628.00	227.03
628.15	262.14
628.30	229.37
628.45	168.52
628.60	182.56
628.76	229.37
628.91	236.39
629.06	205.97
629.21	245.76
629.36	285.55
629.51	212.99
629.66	299.59
629.81	348.74
629.96	1401.98
630.11	2602.68
630.26	3487.40
630.41	3185.47
630.56	2146.27
630.71	1472.20
630.86	1046.22
631.01	648.33
631.16	451.72
631.31	376.83
631.46	297.25
631.61	248.10
631.76	222.35
631.91	217.67
632.06	222.35
632.21	332.36
632.36	280.86
632.51	374.49
632.66	390.87
632.81	1291.98
632.96	3990.61
633.10	7463.97
633.25	9448.74
633.40	7681.64
633.55	5373.87
633.70	3592.72
633.85	2359.26
634.00	1240.48
634.15	685.78
634.30	402.57
634.45	283.20
634.60	243.42
634.75	287.89
634.90	243.42
635.05	203.63
635.19	257.46
635.34	231.71
635.49	280.86
635.64	182.56
635.79	234.05
635.94	191.92
636.09	142.77
636.24	322.99
636.39	292.57
636.53	255.12
636.68	210.65
636.83	304.27
636.98	325.33
637.13	297.25
637.28	416.62
637.43	395.55
637.57	622.58
637.72	3459.31
637.87	9717.90
638.02	15747.12
638.17	17596.15
638.32	12814.43
638.46	8685.73
638.61	5949.64
638.76	3545.91
638.91	1717.95
639.06	847.27
639.20	690.46
639.35	615.56
639.50	976.00
639.65	5235.78
639.80	15445.20
639.94	24929.05
640.09	27953.02
640.24	20388.41
640.39	13535.32
640.54	8924.46
640.68	5516.64
640.83	2595.65
640.98	1125.80
641.13	676.41
641.27	564.07
641.42	397.89
641.57	414.27
641.72	278.52
641.86	222.35
642.01	287.89
642.16	266.82
642.31	163.84
642.45	262.14
642.60	243.42
642.75	210.65
642.90	201.29
643.04	145.11
643.19	220.01
643.34	189.58
643.48	238.73
643.63	147.45
643.78	173.20
643.93	255.12
644.07	154.48
644.22	210.65
644.37	257.46
644.51	229.37
644.66	215.33
644.81	184.90
644.95	264.48
645.10	236.39
645.25	215.33
645.39	187.24
645.54	224.69
645.69	248.10
645.83	161.50
645.98	191.92
646.13	128.73
646.27	215.33
646.42	138.09
646.57	191.92
646.71	140.43
646.86	210.65
647.00	280.86
647.15	133.41
647.30	138.09
647.44	173.20
647.59	180.22
647.74	177.88
647.88	273.84
648.03	142.77
648.17	163.84
648.32	112.35
648.47	217.67
648.61	159.16
648.76	241.08
648.90	234.05
649.05	205.97
649.20	208.31
649.34	147.45
649.49	255.12
649.63	243.42
649.78	306.61
649.92	493.85
650.07	2015.20
650.21	6349.87
650.36	11737.79
650.51	14085.34
650.65	11669.91
650.80	8287.84
650.94	5500.26
651.09	3274.41
651.23	1638.38
651.38	844.93
651.52	447.04
651.67	273.84
651.81	280.86
651.96	334.70
652.10	327.68
652.25	245.76
652.39	301.93
652.54	287.89
652.68	622.58
652.83	1984.77
652.97	3712.09
653.12	5057.90
653.26	4304.25
653.41	3213.56
653.55	2221.17
653.70	1427.73
653.84	725.57
653.99	376.83
654.13	355.76
654.27	280.86
654.42	149.79
654.56	121.71
654.71	224.69
654.85	154.48
655.00	159.16
655.14	140.43
655.29	147.45
655.43	117.03
655.57	191.92
655.72	159.16
655.86	152.13
656.01	245.76
656.15	182.56
656.30	234.05
656.44	182.56
656.58	100.64
656.73	107.66
656.87	156.82
657.01	177.88
657.16	149.79
657.30	238.73
657.45	175.54
657.59	140.43
657.73	88.94
657.88	149.79
658.02	187.24
658.16	182.56
658.31	201.29
658.45	156.82
658.60	152.13
658.74	217.67
658.88	187.24
659.03	234.05
659.17	245.76
659.31	837.91
659.46	2949.08
659.60	5256.84
659.74	6829.68
659.89	5912.19
660.03	4451.70
660.17	3028.65
660.32	1853.70
660.46	1076.65
660.60	573.43
660.74	297.25
660.89	205.97
661.03	128.73
661.17	180.22
661.32	231.71
661.46	105.32
661.60	147.45
661.74	201.29
661.89	262.14
662.03	238.73
662.17	112.35
662.31	142.77
662.46	198.95
662.60	173.20
662.74	175.54
662.88	175.54
663.03	187.24
663.17	152.13
663.31	177.88
663.45	238.73
663.60	182.56
663.74	196.60
663.88	98.30
664.02	121.71
664.17	227.03
664.31	149.79
664.45	131.07
664.59	163.84
664.73	187.24
664.88	212.99
665.02	238.73
665.16	168.52
665.30	196.60
665.44	243.42
665.59	175.54
665.73	238.73
665.87	189.58
666.01	152.13
666.15	147.45
666.29	229.37
666.44	163.84
666.58	210.65
666.72	168.52
666.86	229.37
667.00	229.37
667.14	425.98
667.28	1872.43
667.43	5593.88
667.57	9561.09
667.71	12145.04
667.85	10352.19
667.99	7419.50
668.13	4723.20
668.27	2787.58
668.41	1549.43
668.56	870.68
668.70	566.41
668.84	407.25
668.98	255.12
669.12	196.60
669.26	234.05
669.40	299.59
669.54	196.60
669.68	194.26
669.82	93.62
669.96	220.01
670.10	210.65
670.25	140.43
670.39	231.71
670.53	203.63
670.67	191.92
670.81	222.35
670.95	278.52
671.09	454.06
671.23	1987.11
671.37	4638.94
671.51	6813.30
671.65	7604.40
671.79	5858.36
671.93	4011.68
672.07	2387.35
672.21	1373.89
672.35	809.83
672.49	477.47
672.63	411.93
672.77	231.71
672.91	224.69
673.05	229.37
673.19	133.41
673.33	184.90
673.47	227.03
673.61	189.58
673.75	126.39
673.89	105.32
674.03	175.54
674.17	196.60
674.31	149.79
674.45	161.50
674.59	138.09
674.73	189.58
674.87	210.65
675.01	280.86
675.15	248.10
675.29	250.44
675.43	243.42
675.56	208.31
675.70	170.86
675.84	131.07
675.98	189.58
676.12	180.22
676.26	138.09
676.40	93.62
676.54	110.01
676.68	147.45
676.82	166.18
676.96	117.03
677.10	142.77
677.23	117.03
677.37	191.92
677.51	100.64
677.65	182.56
677.79	107.66
677.93	184.90
678.07	126.39
678.21	105.32
678.34	175.54
678.48	67.88
678.62	156.82
678.76	30.43
678.90	81.92
679.04	156.82
679.18	98.30
679.31	100.64
679.45	95.96
679.59	128.73
679.73	84.26
679.87	156.82
680.00	117.03
680.14	138.09
680.28	182.56
680.42	65.54
680.56	140.43
680.70	187.24
680.83	128.73
680.97	149.79
681.11	93.62
681.25	163.84
681.39	149.79
681.52	114.69
681.66	161.50
681.80	166.18
681.94	107.66
682.07	142.77
682.21	191.92
682.35	93.62
682.49	102.98
682.62	126.39
682.76	177.88
682.90	93.62
683.04	88.94
683.17	203.63
683.31	105.32
683.45	271.50
683.59	212.99
683.72	112.35
683.86	135.75
684.00	79.58
684.13	142.77
684.27	154.48
684.41	159.16
684.55	100.64
684.68	147.45
684.82	145.11
684.96	79.58
685.09	126.39
685.23	147.45
685.37	154.48
685.50	184.90
685.64	163.84
685.78	114.69
685.91	93.62
686.05	145.11
686.19	173.20
686.32	117.03
686.46	110.01
686.60	163.84
686.73	187.24
686.87	212.99
687.01	161.50
687.14	138.09
687.28	124.05
687.42	156.82
687.55	117.03
687.69	180.22
687.82	119.37
687.96	124.05
688.10	88.94
688.23	98.30
688.37	191.92
688.50	91.28
688.64	140.43
688.78	131.07
688.91	135.75
689.05	121.71
689.18	154.48
689.32	60.85
689.46	128.73
689.59	110.01
689.73	210.65
689.86	147.45
690.00	95.96
690.13	121.71
690.27	154.48
690.41	166.18
690.54	154.48
690.68	168.52
690.81	93.62
690.95	110.01
691.08	93.62
691.22	81.92
691.35	72.56
691.49	135.75
691.62	205.97
691.76	93.62
691.89	67.88
692.03	114.69
692.16	208.31
692.30	297.25
692.43	767.70
692.57	2303.09
692.70	4032.74
692.84	5448.77
692.97	4917.47
693.11	3478.04
693.24	2572.25
693.38	1671.14
693.51	1219.42
693.65	737.27
693.78	559.39
693.92	355.76
694.05	252.78
694.19	187.24
694.32	194.26
694.45	159.16
694.59	138.09
694.72	117.03
694.86	124.05
694.99	147.45
695.13	81.92
695.26	175.54
695.39	114.69
695.53	175.54
695.66	133.41
695.80	102.98
695.93	124.05
696.07	234.05
696.20	339.38
696.33	407.25
696.47	423.64
696.60	468.11
696.73	402.57
696.87	283.20
697.00	287.89
697.14	212.99
697.27	205.97
697.40	264.48
697.54	175.54
697.67	175.54
697.80	58.51
697.94	149.79
698.07	154.48
698.21	135.75
698.34	140.43
698.47	93.62
698.61	121.71
698.74	86.60
698.87	177.88
699.01	229.37
699.14	187.24
699.27	133.41
699.40	259.80
699.54	131.07
699.67	154.48
699.80	140.43
699.94	159.16
700.07	67.88
700.20	79.58
700.34	173.20
700.47	102.98
700.60	119.37
700.73	203.63
700.87	152.13
701.00	215.33
701.13	145.11
701.26	173.20
701.40	121.71
701.53	65.54
701.66	166.18
701.79	145.11
701.93	140.43
702.06	259.80
702.19	372.15
702.32	411.93
702.46	486.83
702.59	463.43
702.72	889.40
702.85	2918.65
702.99	6312.42
703.12	9359.80
703.25	10380.28
703.38	8849.57
703.51	7115.23
703.65	5502.60
703.78	3679.32
703.91	2441.18
704.04	1570.50
704.17	983.02
704.31	610.88
704.44	390.87
704.57	327.68
704.70	196.60
704.83	156.82
704.96	212.99
705.10	191.92
705.23	140.43
>>>>>End Processed Spectral Data<<<<<
