SpectraSuite Data File
++++++++++++++++++++++++++++++++++++
Date: Fri Oct 04 11:48:27 GMT-05:00 2013
User: price-jones
Dark Spectrum Present: No
Reference Spectrum Present: No
Number of Sampled Component Spectra: 1
Spectrometers: USB2+H05261
Integration Time (usec): 100000 (USB2+H05261)
Spectra Averaged: 1 (USB2+H05261)
Boxcar Smoothing: 0 (USB2+H05261)
Correct for Electrical Dark: No (USB2+H05261)
Strobe/Lamp Enabled: No (USB2+H05261)
Correct for Detector Non-linearity: No (USB2+H05261)
Correct for Stray Light: No (USB2+H05261)
Number of Pixels in Processed Spectrum: 2048
>>>>>Begin Processed Spectral Data<<<<<
365.73	16.38
365.92	16.38
366.12	16.38
366.32	0.00
366.52	0.00
366.72	0.00
366.91	0.00
367.11	0.00
367.31	0.00
367.51	0.00
367.70	0.00
367.90	0.00
368.10	0.00
368.30	0.00
368.49	0.00
368.69	0.00
368.89	0.00
369.09	0.00
369.28	0.00
369.48	0.00
369.68	0.00
369.87	0.00
370.07	21.06
370.27	0.00
370.47	102.98
370.66	437.68
370.86	500.87
371.06	564.07
371.25	580.45
371.45	580.45
371.65	615.56
371.84	636.63
372.04	575.77
372.24	671.73
372.44	622.58
372.63	594.50
372.83	697.48
373.03	653.01
373.22	739.61
373.42	667.05
373.62	734.93
373.81	713.86
374.01	732.59
374.21	791.10
374.40	720.88
374.60	802.80
374.79	793.44
374.99	765.36
375.19	737.27
375.38	734.93
375.58	837.91
375.78	849.61
375.97	835.57
376.17	950.26
376.37	753.65
376.56	821.53
376.76	760.67
376.95	884.72
377.15	826.21
377.35	877.70
377.54	882.38
377.74	812.17
377.93	889.40
378.13	905.79
378.33	994.73
378.52	847.27
378.72	961.96
378.91	945.58
379.11	833.23
379.31	868.34
379.50	931.53
379.70	994.73
379.89	964.30
380.09	990.05
380.28	933.87
380.48	929.19
380.68	980.68
380.87	940.90
381.07	933.87
381.26	1116.44
381.46	954.94
381.65	971.32
381.85	1015.79
382.04	999.41
382.24	1034.52
382.43	1046.22
382.63	1029.84
382.83	1102.39
383.02	1160.91
383.22	1139.84
383.41	1095.37
383.61	1006.43
383.80	1135.16
384.00	1125.80
384.19	1170.27
384.39	1158.57
384.58	1111.75
384.78	1165.59
384.97	1303.68
385.17	1219.42
385.36	1177.29
385.56	1240.48
385.75	1252.19
385.95	1177.29
386.14	1277.93
386.34	1245.16
386.53	1306.02
386.72	1268.57
386.92	1385.60
387.11	1299.00
387.31	1338.79
387.50	1343.47
387.70	1317.72
387.89	1341.13
388.09	1336.45
388.28	1430.07
388.48	1462.83
388.67	1357.51
388.86	1460.49
389.06	1423.05
389.25	1439.43
389.45	1390.28
389.64	1434.75
389.84	1474.54
390.03	1474.54
390.22	1495.60
390.42	1488.58
390.61	1420.71
390.81	1558.80
391.00	1568.16
391.19	1507.30
391.39	1575.18
391.58	1621.99
391.78	1528.37
391.97	1514.33
392.16	1650.08
392.36	1661.78
392.55	1689.87
392.75	1715.61
392.94	1739.02
393.13	1659.44
393.33	1605.61
393.52	1664.12
393.71	1748.38
393.91	1755.40
394.10	1713.27
394.29	1806.89
394.49	1673.48
394.68	1783.49
394.88	1802.21
395.07	1870.09
395.26	1888.81
395.46	1909.88
395.65	1982.43
395.84	1914.56
396.04	1902.86
396.23	1809.23
396.42	2047.97
396.62	2073.71
396.81	2015.20
397.00	1982.43
397.19	1947.33
397.39	2064.35
397.58	2031.58
397.77	2017.54
397.97	2115.84
398.16	2099.46
398.35	2069.03
398.55	1987.11
398.74	2099.46
398.93	2167.34
399.12	2169.68
399.32	2148.61
399.51	2188.40
399.70	2298.41
399.90	2225.85
400.09	2204.78
400.28	2279.68
400.47	2338.20
400.67	2366.28
400.86	2356.92
401.05	2366.28
401.24	2354.58
401.44	2317.13
401.63	2326.49
401.82	2464.58
402.01	2392.03
402.21	2525.44
402.40	2473.95
402.59	2455.22
402.78	2612.04
402.97	2525.44
403.17	2705.66
403.36	2541.82
403.55	2513.74
403.74	2642.46
403.93	2663.53
404.13	2731.41
404.32	2785.24
404.51	2663.53
404.70	2773.53
404.89	2771.19
405.09	2750.13
405.28	2803.96
405.47	2832.05
405.66	2885.88
405.85	2935.03
406.05	2923.33
406.24	2953.76
406.43	3052.06
406.62	2988.86
406.81	3059.08
407.00	2963.12
407.20	3047.38
407.39	3030.99
407.58	3124.62
407.77	3197.17
407.96	3180.79
408.15	3119.93
408.34	3023.97
408.54	3265.05
408.73	3220.58
408.92	3276.75
409.11	3176.11
409.30	3300.16
409.49	3358.67
409.68	3377.39
409.87	3361.01
410.07	3330.58
410.26	3492.08
410.45	3421.86
410.64	3513.14
410.83	3574.00
411.02	3517.83
411.21	3669.96
411.40	3597.40
411.59	3698.05
411.78	3852.52
411.98	3754.22
412.17	3868.91
412.36	3871.25
412.55	3939.12
412.74	3941.46
412.93	3918.06
413.12	3768.26
413.31	4039.76
413.50	4023.38
413.69	4112.32
413.88	4114.66
414.07	4229.35
414.26	4273.82
414.45	4372.12
414.64	4184.88
414.83	4285.52
415.02	4292.54
415.22	4470.42
415.41	4540.64
415.60	4348.72
415.79	4484.47
415.98	4634.26
416.17	4629.58
416.36	4699.80
416.55	4662.35
416.74	4711.50
416.93	4655.33
417.12	4758.31
417.31	4894.06
417.50	4894.06
417.69	4952.57
417.88	4821.50
418.07	4950.23
418.26	4912.78
418.45	5008.75
418.64	5238.12
418.83	5064.92
419.02	5043.85
419.21	5160.88
419.39	5167.90
419.58	5090.67
419.77	5102.37
419.96	5081.30
420.15	5364.51
420.34	5214.71
420.53	5341.10
420.72	5352.81
420.91	5500.26
421.10	5509.62
421.29	5603.24
421.48	5270.89
421.67	5628.99
421.86	5533.03
422.05	5643.03
422.24	5729.63
422.43	5554.09
422.61	5675.80
422.80	5750.70
422.99	5715.59
423.18	5827.93
423.37	5940.28
423.56	5767.08
423.75	5584.52
423.94	5729.63
424.13	5577.50
424.32	5511.96
424.50	5921.56
424.69	5982.41
424.88	5860.70
425.07	5701.54
425.26	5568.13
425.45	5785.80
425.64	5586.86
425.83	5811.55
426.01	5895.81
426.20	5612.60
426.39	6033.90
426.58	5837.30
426.77	5956.66
426.96	6169.65
427.15	5954.32
427.33	6157.95
427.52	6155.61
427.71	6050.28
427.90	6066.67
428.09	6218.80
428.28	5947.30
428.46	6324.13
428.65	6019.86
428.84	6471.58
429.03	6361.58
429.22	6190.72
429.40	6354.55
429.59	6368.60
429.78	6108.80
429.97	6118.16
430.16	6328.81
430.34	6513.71
430.53	6546.48
430.72	6750.10
430.91	6469.24
431.10	6516.05
431.28	6700.95
431.47	6644.78
431.66	6792.23
431.85	6565.20
432.03	6906.92
432.22	7007.56
432.41	7005.22
432.60	7056.72
432.79	6916.28
432.97	7007.56
433.16	7098.84
433.35	7002.88
433.54	7166.72
433.72	7250.98
433.91	7052.03
434.10	7246.30
434.28	7052.03
434.47	7206.51
434.66	7311.83
434.85	7356.30
435.03	7391.41
435.22	7393.75
435.41	7459.29
435.59	7407.80
435.78	7314.17
435.97	7506.10
436.16	7559.93
436.34	7688.66
436.53	7573.97
436.72	7808.03
436.90	7595.04
437.09	7850.16
437.28	7478.01
437.46	7871.22
437.65	7824.41
437.84	7749.51
438.02	7845.48
438.21	7995.27
438.40	7873.56
438.58	8245.71
438.77	8060.80
438.96	8187.19
439.14	8299.54
439.33	8421.25
439.52	8336.99
439.70	8571.04
439.89	8566.36
440.08	8545.30
440.26	8690.41
440.45	8547.64
440.63	8875.31
440.82	8964.25
441.01	8987.66
441.19	9109.36
441.38	9172.56
441.57	9195.96
441.75	9228.73
441.94	9427.68
442.12	9336.40
442.31	9486.19
442.50	9359.80
442.68	9561.09
442.87	9469.81
443.05	9495.55
443.24	9486.19
443.43	9509.60
443.61	9776.42
443.80	10038.56
443.98	9518.96
444.17	9444.06
444.35	9853.66
444.54	9846.63
444.73	9856.00
444.91	9811.53
445.10	9806.84
445.28	9853.66
445.47	9699.18
445.65	9851.31
445.84	9984.73
446.02	9865.36
446.21	10059.62
446.39	9837.27
446.58	10106.43
446.77	9909.83
446.95	9984.73
447.14	9884.08
447.32	10188.35
447.51	10195.37
447.69	10228.14
447.88	10099.41
448.06	9935.57
448.25	10134.52
448.43	10207.08
448.62	10064.30
448.80	10251.55
448.99	10157.92
449.17	10492.62
449.36	10193.03
449.54	10413.04
449.73	10567.52
449.91	10581.56
450.10	10637.73
450.28	10569.86
450.46	10757.10
450.65	10820.30
450.83	10890.51
451.02	10892.85
451.20	10824.98
451.39	10796.89
451.57	10920.94
451.76	10738.38
451.94	10960.73
452.13	11023.92
452.31	11080.10
452.49	11089.46
452.68	11033.29
452.86	11030.94
453.05	11176.06
453.23	11370.32
453.42	11279.04
453.60	11042.65
453.78	11117.54
453.97	11087.12
454.15	11407.77
454.34	11492.03
454.52	11576.29
454.70	11648.85
454.89	11576.29
455.07	11564.59
455.26	11520.12
455.44	12006.95
455.62	11971.84
455.81	11988.22
455.99	11744.81
456.17	12070.14
456.36	12182.49
456.54	12306.54
456.73	12311.22
456.91	12564.00
457.09	12294.83
457.28	12556.97
457.46	12362.71
457.64	12428.24
457.83	12472.71
458.01	12393.14
458.19	12669.32
458.38	12580.38
458.56	12798.05
458.74	12760.60
458.93	12503.14
459.11	12718.47
459.29	12968.91
459.48	12975.93
459.66	13011.04
459.84	13149.13
460.03	13081.25
460.21	13099.98
460.39	13317.65
460.57	13004.02
460.76	12865.92
460.94	13610.22
461.12	13193.60
461.31	13465.10
461.49	13500.21
461.67	13537.66
461.85	13724.90
462.04	13422.97
462.22	14134.50
462.40	13799.80
462.59	13544.68
462.77	13781.07
462.95	13891.08
463.13	14045.55
463.32	13884.06
463.50	14033.85
463.68	13884.06
463.86	14125.13
464.05	14146.20
464.23	14300.67
464.41	14207.05
464.59	13940.23
464.78	14370.89
464.96	14185.99
465.14	14200.03
465.32	14691.54
465.50	14628.35
465.69	14335.78
465.87	14115.77
466.05	14588.56
466.23	14492.60
466.41	14647.07
466.60	14965.39
466.78	14635.37
466.96	14581.54
467.14	14567.49
467.32	14897.51
467.51	15056.67
467.69	14621.33
467.87	14972.41
468.05	14658.78
468.23	14902.19
468.41	14787.50
468.60	15063.69
468.78	15084.75
468.96	14892.83
469.14	15166.67
469.32	15477.96
469.50	15049.64
469.69	15590.31
469.87	15936.71
470.05	15896.92
470.23	15957.77
470.41	15639.46
470.59	16116.93
470.77	15831.38
470.95	16004.58
471.14	16248.00
471.32	16091.18
471.50	16240.98
471.68	16142.67
471.86	16453.97
472.04	16493.76
472.22	16723.13
472.40	16585.04
472.58	16685.68
472.77	16837.81
472.95	17055.48
473.13	17310.60
473.31	16802.71
473.49	16695.04
473.67	16968.88
473.85	17053.14
474.03	17579.76
474.21	17488.48
474.39	17905.10
474.57	17619.55
474.75	17771.69
474.93	17916.80
475.12	17926.16
475.30	17764.67
475.48	18019.78
475.66	18354.48
475.84	18204.69
476.02	18274.90
476.20	18412.99
476.38	18888.12
476.56	19143.24
476.74	19077.71
476.92	19063.66
477.10	19054.30
477.28	19213.46
477.46	19620.71
477.64	19658.16
477.82	19985.83
478.00	20367.34
478.18	20386.07
478.36	20390.75
478.54	20624.80
478.72	20493.73
478.90	20849.49
479.08	21092.91
479.26	21357.39
479.44	21708.47
479.62	21654.64
479.80	21671.02
479.98	21898.05
480.16	22427.01
480.34	22345.09
480.52	22647.02
480.70	22251.47
480.88	22604.89
481.06	22792.14
481.24	22331.05
481.41	23077.68
481.59	23559.83
481.77	23496.64
481.95	23672.18
482.13	23756.44
482.31	23707.29
482.49	24224.54
482.67	24507.75
482.85	25003.94
483.03	24666.91
483.21	25647.59
483.39	25355.02
483.57	25432.26
483.74	25394.81
483.92	25839.51
484.10	25713.13
484.28	26288.90
484.46	26595.51
484.64	27119.79
484.82	26487.84
485.00	26909.14
485.18	27356.18
485.35	27924.93
485.53	27885.14
485.71	28044.30
485.89	28734.76
486.07	27953.02
486.25	28259.63
486.43	28954.77
486.61	28973.49
486.78	29177.12
486.96	29326.91
487.14	29890.98
487.32	29734.17
487.50	30223.34
487.68	30134.40
487.85	30527.61
488.03	30815.49
488.21	31166.57
488.39	31192.32
488.57	31992.78
488.75	31646.38
488.92	32034.91
489.10	32573.24
489.28	32222.16
489.46	33046.02
489.64	32744.09
489.81	33420.51
489.99	33350.29
490.17	33696.69
490.35	34003.30
490.53	34199.91
490.70	34756.96
490.88	33809.04
491.06	34939.52
491.24	35086.97
491.41	35112.72
491.59	35264.85
491.77	35583.16
491.95	35969.35
492.13	36184.68
492.30	36350.86
492.48	36552.15
492.66	36884.50
492.84	36671.51
493.01	37502.40
493.19	37109.19
493.37	37486.02
493.54	38218.61
493.72	38099.24
493.90	38328.61
494.08	38644.59
494.25	38843.53
494.43	39033.11
494.61	39344.41
494.79	39351.43
494.96	39356.11
495.14	39529.31
495.32	40287.64
495.49	40004.44
495.67	40322.75
495.85	41015.55
496.02	41207.47
496.20	40968.74
496.38	41055.34
496.55	41289.39
496.73	41921.34
496.91	41853.46
497.09	42340.29
497.26	42770.95
497.44	42204.54
497.62	42258.37
497.79	42827.12
497.97	42806.06
498.14	43360.76
498.32	43971.64
498.50	43849.94
498.67	44123.78
498.85	43761.00
499.03	43966.96
499.20	43875.68
499.38	44694.87
499.56	44762.75
499.73	45010.84
499.91	45205.11
500.08	45184.04
500.26	45038.93
500.44	45298.73
500.61	45492.99
500.79	45556.19
500.97	45991.53
501.14	46714.75
501.32	46075.79
501.49	46106.21
501.67	46108.55
501.84	46213.88
502.02	46464.32
502.20	46995.62
502.37	47381.80
502.55	47122.01
502.72	47269.46
502.90	47377.12
503.07	47269.46
503.25	47742.25
503.43	47840.55
503.60	47931.83
503.78	48140.14
503.95	48376.53
504.13	48175.25
504.30	48212.70
504.48	48271.21
504.65	48697.19
504.83	49123.16
505.01	49296.36
505.18	49010.82
505.36	49048.27
505.53	49017.84
505.71	49443.82
505.88	49563.18
506.06	49249.55
506.23	49893.20
506.41	49647.44
506.58	50211.51
506.76	50293.43
506.93	50071.08
507.11	50251.30
507.28	50403.44
507.46	50602.38
507.63	50625.79
507.81	51103.26
507.98	50635.15
508.16	50642.17
508.33	50916.01
508.50	51276.46
508.68	51283.48
508.85	51587.75
509.03	51452.00
509.20	51828.82
509.38	51985.64
509.55	51552.64
509.73	51913.08
509.90	52212.67
510.08	52032.45
510.25	52261.82
510.42	52442.04
510.60	52308.63
510.77	52781.42
510.95	52687.80
511.12	52512.26
511.30	52734.61
511.47	53113.78
511.64	53045.90
511.82	53200.38
511.99	53069.31
512.17	53242.51
512.34	53312.72
512.51	53303.36
512.69	53375.92
512.86	53415.71
513.04	53865.09
513.21	54012.54
513.38	54162.34
513.56	54117.87
513.73	53853.39
513.90	54138.93
514.08	53766.79
514.25	54101.48
514.43	54337.88
514.60	54365.96
514.77	54539.16
514.95	54485.33
515.12	54321.49
515.29	54628.10
515.47	54859.82
515.64	54756.83
515.81	54782.58
515.99	55072.81
516.16	55208.56
516.33	55047.06
516.51	55330.26
516.68	54878.54
516.85	55255.37
517.03	55522.19
517.20	55442.61
517.37	55407.50
517.54	55770.28
517.72	55428.57
517.89	55564.32
518.06	55847.52
518.24	55810.07
518.41	55756.24
518.58	56133.07
518.75	55882.63
518.93	56123.71
519.10	56100.30
519.27	56224.35
519.45	55838.16
519.62	55971.57
519.79	56095.62
519.96	56381.16
520.14	56594.15
520.31	56488.83
520.48	56821.19
520.65	56800.12
520.83	56837.57
521.00	56563.73
521.17	56772.03
521.34	56800.12
521.52	56842.25
521.69	56973.32
521.86	57303.34
522.03	57162.90
522.20	57188.65
522.38	57151.20
522.55	57286.95
522.72	57523.35
522.89	57499.94
523.07	57556.11
523.24	57436.75
523.41	57701.23
523.58	57549.09
523.75	57598.24
523.92	57682.50
524.10	57715.27
524.27	57766.76
524.44	57944.64
524.61	58166.99
524.78	58185.72
524.96	58028.90
525.13	57954.00
525.30	58309.77
525.47	58213.80
525.64	58433.81
525.81	58431.47
525.98	58515.73
526.16	58625.74
526.33	58433.81
526.50	58515.73
526.67	58590.63
526.84	58499.35
527.01	58550.84
527.18	58665.53
527.36	58590.63
527.53	58756.81
527.70	58665.53
527.87	58974.48
528.04	58763.83
528.21	58958.09
528.38	58890.22
528.55	59070.44
528.72	58976.82
528.89	59236.62
529.07	59157.04
529.24	58848.09
529.41	59089.16
529.58	59320.88
529.75	59194.49
529.92	59215.55
530.09	59377.05
530.26	59297.47
530.43	59564.29
530.60	59341.94
530.77	59519.82
530.94	59449.61
531.11	59440.24
531.28	59482.37
531.46	59587.70
531.63	59849.84
531.80	59833.46
531.97	60009.00
532.14	59770.26
532.31	59641.53
532.48	59915.37
532.65	59901.33
532.82	59751.54
532.99	60168.15
533.16	60060.49
533.33	60434.97
533.50	60369.44
533.67	60247.73
533.84	60079.21
534.01	60273.48
534.18	60109.64
534.35	60430.29
534.52	60390.50
534.69	60556.68
534.86	60685.41
535.03	60460.72
535.20	60650.30
535.37	60748.60
535.54	60626.90
535.71	60570.72
535.88	60708.82
536.05	60584.77
536.22	60821.16
536.38	60690.09
536.55	60547.32
536.72	60959.25
536.89	60793.07
537.06	60980.32
537.23	60874.99
537.40	60734.56
537.57	60940.53
537.74	60994.36
537.91	61230.75
538.08	61050.53
538.25	61109.05
538.42	61226.07
538.59	61291.61
538.75	61038.83
538.92	61221.39
539.09	61375.87
539.26	61092.66
539.43	61352.46
539.60	61537.36
539.77	61448.42
539.94	61542.05
540.11	61439.06
540.28	61551.41
540.44	61373.53
540.61	61476.51
540.78	61783.12
540.95	61694.18
541.12	61832.27
541.29	61769.08
541.46	61623.96
541.62	61680.14
541.79	61619.28
541.96	61520.98
542.13	61888.45
542.30	61953.98
542.47	61963.34
542.63	62082.71
542.80	62117.82
542.97	62265.27
543.14	62085.05
543.31	62213.78
543.48	62248.89
543.64	62386.98
543.81	62347.19
543.98	62431.45
544.15	62265.27
544.32	62548.48
544.48	62698.27
544.65	62410.38
544.82	62429.11
544.99	62300.38
545.16	62522.73
545.32	62684.23
545.49	62756.78
545.66	62845.72
545.83	62742.74
546.00	62857.43
546.16	62913.60
546.33	62602.31
546.50	62405.70
546.67	62679.55
546.83	62518.05
547.00	62731.04
547.17	62766.15
547.34	62876.15
547.50	62836.36
547.67	63159.36
547.84	63009.56
548.00	63082.12
548.17	63107.86
548.34	63203.83
548.51	63152.33
548.67	63360.64
548.84	63224.89
549.01	63267.02
549.18	63084.46
549.34	63016.58
549.51	63077.44
549.68	63079.78
549.84	63054.03
550.01	63318.51
550.18	63089.14
550.34	63489.37
550.51	63365.32
550.68	63252.98
550.84	63168.72
551.01	63498.73
551.18	63384.05
551.34	63381.71
551.51	63590.01
551.68	63671.93
551.84	63615.76
552.01	63264.68
552.18	63604.06
552.34	63526.82
552.51	63547.89
552.68	63634.48
552.84	63606.40
553.01	63657.89
553.18	63718.74
553.34	63732.79
553.51	63749.17
553.67	63866.20
553.84	63905.99
554.01	63873.22
554.17	64018.33
554.34	63781.94
554.51	63845.13
554.67	64030.04
554.84	64037.06
555.00	64212.60
555.17	63915.35
555.33	64097.91
555.50	63994.93
555.67	63990.25
555.83	63990.25
556.00	64018.33
556.16	64217.28
556.33	64041.74
556.50	64161.11
556.66	64231.32
556.83	64172.81
556.99	64420.90
557.16	64605.81
557.32	64289.84
557.49	64390.48
557.65	64275.79
557.82	64090.89
557.98	64397.50
558.15	64303.88
558.32	64463.03
558.48	64474.74
558.65	64331.96
558.81	64395.16
558.98	64559.00
559.14	64411.54
559.31	64474.74
559.47	64456.01
559.64	64528.57
559.80	64664.32
559.97	64725.17
560.13	64530.91
560.30	64587.08
560.46	64711.13
560.63	64626.87
560.79	64629.21
560.96	64746.24
561.12	64652.62
561.29	64797.73
561.45	64797.73
561.61	64881.99
561.78	64860.93
561.94	64666.66
562.11	64629.21
562.27	64690.07
562.44	64786.03
562.60	64858.59
562.77	64980.29
562.93	64647.94
563.10	65057.53
563.26	64722.83
563.42	64999.02
563.59	64961.57
563.75	64921.78
563.92	64874.97
564.08	64807.09
564.24	64837.52
564.41	64760.28
564.57	64839.86
564.74	65059.87
564.90	65050.51
565.07	65106.68
565.23	65181.58
565.39	65176.90
565.56	64900.71
565.72	64947.53
565.88	65022.42
566.05	65069.23
566.21	65102.00
566.38	64912.42
566.54	65099.66
566.70	65432.02
566.87	65392.23
567.03	65146.47
567.19	65481.17
567.36	65228.39
567.52	65022.42
567.68	65076.26
567.85	65055.19
568.01	65087.96
568.17	65137.11
568.34	65427.34
568.50	65270.52
568.66	65424.99
568.83	65462.44
568.99	65216.69
569.15	65235.41
569.32	65237.75
569.48	64992.00
569.64	65244.77
569.81	65237.75
569.97	65380.52
570.13	65415.63
570.30	65520.96
570.46	65439.04
570.62	65467.12
570.78	65371.16
570.95	65303.29
571.11	65179.24
571.27	65221.37
571.43	65439.04
571.60	65535.00
571.76	65516.28
571.92	65535.00
572.09	65530.32
572.25	65492.87
572.41	65284.56
572.57	65439.04
572.74	65509.25
572.90	65427.34
573.06	65406.27
573.22	65485.85
573.38	65535.00
573.55	65511.59
573.71	65535.00
573.87	65535.00
574.03	65499.89
574.20	65535.00
574.36	65457.76
574.52	65535.00
574.68	65490.53
574.84	65535.00
575.01	65535.00
575.17	65535.00
575.33	65535.00
575.49	65378.18
575.65	65535.00
575.82	65535.00
575.98	65535.00
576.14	65535.00
576.30	65535.00
576.46	65535.00
576.62	65495.21
576.79	65474.15
576.95	65389.89
577.11	65535.00
577.27	65535.00
577.43	65535.00
577.59	65535.00
577.75	65535.00
577.92	65476.49
578.08	65535.00
578.24	65535.00
578.40	65535.00
578.56	65535.00
578.72	65535.00
578.88	65535.00
579.04	65535.00
579.21	65535.00
579.37	65535.00
579.53	65535.00
579.69	65535.00
579.85	65535.00
580.01	65535.00
580.17	65535.00
580.33	65535.00
580.49	65535.00
580.65	65535.00
580.82	65535.00
580.98	65535.00
581.14	65535.00
581.30	65535.00
581.46	65535.00
581.62	65535.00
581.78	65535.00
581.94	65535.00
582.10	65535.00
582.26	65535.00
582.42	65535.00
582.58	65535.00
582.74	65535.00
582.90	65535.00
583.06	65535.00
583.22	65535.00
583.38	65535.00
583.54	65535.00
583.70	65535.00
583.86	65535.00
584.02	65535.00
584.18	65535.00
584.34	65535.00
584.50	65535.00
584.66	65535.00
584.82	65535.00
584.98	65535.00
585.14	65535.00
585.30	65535.00
585.46	65535.00
585.62	65535.00
585.78	65535.00
585.94	65535.00
586.10	65535.00
586.26	65535.00
586.42	65535.00
586.58	65535.00
586.74	65535.00
586.90	65535.00
587.06	65535.00
587.22	65535.00
587.38	65535.00
587.54	65535.00
587.70	65535.00
587.86	65535.00
588.02	65535.00
588.18	65535.00
588.34	65535.00
588.49	65535.00
588.65	65535.00
588.81	65535.00
588.97	65535.00
589.13	65535.00
589.29	65535.00
589.45	65535.00
589.61	65535.00
589.77	65535.00
589.93	65535.00
590.08	65535.00
590.24	65535.00
590.40	65535.00
590.56	65535.00
590.72	65535.00
590.88	65535.00
591.04	65535.00
591.20	65535.00
591.35	65535.00
591.51	65535.00
591.67	65535.00
591.83	65535.00
591.99	65535.00
592.15	65535.00
592.31	65535.00
592.46	65535.00
592.62	65535.00
592.78	65535.00
592.94	65535.00
593.10	65535.00
593.26	65535.00
593.41	65535.00
593.57	65535.00
593.73	65535.00
593.89	65535.00
594.05	65535.00
594.20	65535.00
594.36	65535.00
594.52	65535.00
594.68	65535.00
594.84	65535.00
594.99	65535.00
595.15	65535.00
595.31	65535.00
595.47	65535.00
595.62	65535.00
595.78	65535.00
595.94	65535.00
596.10	65535.00
596.25	65535.00
596.41	65535.00
596.57	65535.00
596.73	65535.00
596.88	65535.00
597.04	65535.00
597.20	65535.00
597.36	65535.00
597.51	65535.00
597.67	65535.00
597.83	65535.00
597.99	65535.00
598.14	65535.00
598.30	65535.00
598.46	65535.00
598.61	65535.00
598.77	65535.00
598.93	65535.00
599.09	65535.00
599.24	65535.00
599.40	65535.00
599.56	65535.00
599.71	65535.00
599.87	65535.00
600.03	65535.00
600.18	65535.00
600.34	65535.00
600.50	65535.00
600.65	65535.00
600.81	65535.00
600.97	65535.00
601.12	65535.00
601.28	65535.00
601.44	65535.00
601.59	65535.00
601.75	65535.00
601.91	65535.00
602.06	65535.00
602.22	65535.00
602.37	65535.00
602.53	65535.00
602.69	65535.00
602.84	65535.00
603.00	65535.00
603.16	65535.00
603.31	65535.00
603.47	65535.00
603.62	65535.00
603.78	65535.00
603.94	65535.00
604.09	65535.00
604.25	65535.00
604.40	65535.00
604.56	65535.00
604.71	65535.00
604.87	65535.00
605.03	65535.00
605.18	65535.00
605.34	65535.00
605.49	65535.00
605.65	65535.00
605.80	65535.00
605.96	65535.00
606.12	65535.00
606.27	65535.00
606.43	65535.00
606.58	65535.00
606.74	65535.00
606.89	65535.00
607.05	65535.00
607.20	65535.00
607.36	65535.00
607.51	65535.00
607.67	65535.00
607.82	65535.00
607.98	65535.00
608.13	65535.00
608.29	65535.00
608.44	65535.00
608.60	65535.00
608.75	65535.00
608.91	65535.00
609.06	65535.00
609.22	65535.00
609.37	65535.00
609.53	65535.00
609.68	65535.00
609.84	65535.00
609.99	65535.00
610.15	65535.00
610.30	65535.00
610.46	65535.00
610.61	65535.00
610.76	65535.00
610.92	65535.00
611.07	65535.00
611.23	65535.00
611.38	65535.00
611.54	65535.00
611.69	65535.00
611.84	65535.00
612.00	65535.00
612.15	65535.00
612.31	65535.00
612.46	65535.00
612.62	65535.00
612.77	65535.00
612.92	65535.00
613.08	65535.00
613.23	65535.00
613.39	65535.00
613.54	65535.00
613.69	65535.00
613.85	65535.00
614.00	65535.00
614.15	65535.00
614.31	65535.00
614.46	65535.00
614.62	65535.00
614.77	65535.00
614.92	65535.00
615.08	65535.00
615.23	65535.00
615.38	65535.00
615.54	65535.00
615.69	65535.00
615.84	65535.00
616.00	65535.00
616.15	65535.00
616.30	65535.00
616.46	65535.00
616.61	65535.00
616.76	65535.00
616.92	65535.00
617.07	65535.00
617.22	65535.00
617.37	65535.00
617.53	65535.00
617.68	65535.00
617.83	65535.00
617.99	65535.00
618.14	65535.00
618.29	65535.00
618.45	65535.00
618.60	65535.00
618.75	65535.00
618.90	65535.00
619.06	65535.00
619.21	65535.00
619.36	65535.00
619.51	65535.00
619.67	65535.00
619.82	65535.00
619.97	65535.00
620.12	65535.00
620.28	65535.00
620.43	65535.00
620.58	65535.00
620.73	65535.00
620.89	65535.00
621.04	65535.00
621.19	65535.00
621.34	65535.00
621.49	65535.00
621.65	65535.00
621.80	65535.00
621.95	65535.00
622.10	65535.00
622.25	65535.00
622.41	65535.00
622.56	65535.00
622.71	65535.00
622.86	65535.00
623.01	65535.00
623.16	65535.00
623.32	65511.59
623.47	65527.98
623.62	65476.49
623.77	65535.00
623.92	65535.00
624.07	65535.00
624.23	65535.00
624.38	65535.00
624.53	65535.00
624.68	65535.00
624.83	65535.00
624.98	65535.00
625.13	65535.00
625.29	65506.91
625.44	65530.32
625.59	65378.18
625.74	65364.14
625.89	65209.67
626.04	65429.68
626.19	65518.62
626.34	65469.46
626.49	65467.12
626.65	65254.14
626.80	65359.46
626.95	65289.24
627.10	65380.52
627.25	65350.10
627.40	65417.97
627.55	65183.92
627.70	65059.87
627.85	65139.45
628.00	64954.55
628.15	65172.22
628.30	65116.04
628.45	65069.23
628.60	65167.54
628.76	65410.95
628.91	65312.65
629.06	65212.01
629.21	65293.92
629.36	65073.91
629.51	65167.54
629.66	65219.03
629.81	64917.10
629.96	64914.76
630.11	65059.87
630.26	65059.87
630.41	65092.64
630.56	65221.37
630.71	65322.01
630.86	65202.64
631.01	65153.49
631.16	65144.13
631.31	65155.83
631.46	64800.07
631.61	64945.18
631.76	64942.84
631.91	64818.80
632.06	64945.18
632.21	64755.60
632.36	64952.21
632.51	64587.08
632.66	64771.99
632.81	64853.90
632.96	65094.98
633.10	64989.66
633.25	64977.95
633.40	64949.87
633.55	64701.77
633.70	64921.78
633.85	64647.94
634.00	64622.19
634.15	64657.30
634.30	64631.55
634.45	64645.60
634.60	64704.11
634.75	64832.84
634.90	64748.58
635.05	64821.14
635.19	64622.19
635.34	64729.86
635.49	64676.02
635.64	64643.26
635.79	64587.08
635.94	64554.32
636.09	64425.59
636.24	64343.67
636.39	64441.97
636.53	64533.25
636.68	64507.50
636.83	64350.69
636.98	64704.11
637.13	64523.89
637.28	64802.41
637.43	64589.42
637.57	64643.26
637.72	64432.61
637.87	64399.84
638.02	64563.68
638.17	64526.23
638.32	64348.35
638.46	64313.24
638.61	64240.68
638.76	64088.55
638.91	63964.50
639.06	64315.58
639.20	64409.20
639.35	64404.52
639.50	64133.02
639.65	64324.94
639.80	64554.32
639.94	64296.86
640.09	64161.11
640.24	64081.53
640.39	64128.34
640.54	64156.42
640.68	64020.67
640.83	64051.10
640.98	64046.42
641.13	63969.18
641.27	64058.12
641.42	64062.80
641.57	64123.66
641.72	63929.39
641.86	64074.51
642.01	64025.35
642.16	64076.85
642.31	63770.24
642.45	63901.31
642.60	63763.21
642.75	63866.20
642.90	64058.12
643.04	63938.75
643.19	63898.97
643.34	63788.96
643.48	63856.84
643.63	64111.95
643.78	63941.10
643.93	63934.07
644.07	63957.48
644.22	63805.34
644.37	63749.17
644.51	63814.71
644.66	63803.00
644.81	63765.56
644.95	63671.93
645.10	63669.59
645.25	63793.64
645.39	63929.39
645.54	63683.64
645.69	63901.31
645.83	63641.51
645.98	63704.70
646.13	63817.05
646.27	63655.55
646.42	63660.23
646.57	63824.07
646.71	63543.20
646.86	63824.07
647.00	63568.95
647.15	63512.78
647.30	63358.30
647.44	63477.67
647.59	63311.49
647.74	63505.76
647.88	63332.56
648.03	63622.78
648.17	63447.24
648.32	63618.10
648.47	63557.25
648.61	63103.18
648.76	63519.80
648.90	63435.54
649.05	63285.75
649.20	63384.05
649.34	63496.39
649.49	63269.36
649.63	63386.39
649.78	63414.47
649.92	63320.85
650.07	63440.22
650.21	63297.45
650.36	63238.93
650.51	63189.78
650.65	63510.44
650.80	63295.11
650.94	63264.68
651.09	63341.92
651.23	63173.40
651.38	63135.95
651.52	63260.00
651.67	63178.08
651.81	63182.76
651.96	62990.84
652.10	63023.61
652.25	62972.11
652.39	63112.55
652.54	63065.73
652.68	62904.24
652.83	63023.61
652.97	63189.78
653.12	63002.54
653.26	62789.55
653.41	62691.25
653.55	62775.51
653.70	62756.78
653.84	62808.28
653.99	62908.92
654.13	62962.75
654.27	62908.92
654.42	62787.21
654.56	62707.63
654.71	62831.68
654.85	62824.66
655.00	63004.88
655.14	63147.65
655.29	62901.90
655.43	62773.17
655.57	62702.95
655.72	62541.45
655.86	62595.29
656.01	62719.34
656.15	62709.97
656.30	62599.97
656.44	62567.20
656.58	62567.20
656.73	62712.31
656.87	62733.38
657.01	62576.56
657.16	62618.69
657.30	62773.17
657.45	62915.94
657.59	62717.00
657.73	62592.95
657.88	62763.81
658.02	62592.95
658.16	62424.43
658.31	62452.51
658.45	62134.20
658.60	62199.74
658.74	62188.03
658.88	62291.02
659.03	62302.72
659.17	62014.83
659.31	62361.23
659.46	62115.48
659.60	62401.02
659.74	62220.80
659.89	62209.10
660.03	62131.86
660.17	62354.21
660.32	62063.99
660.46	61860.36
660.60	61975.05
660.74	61984.41
660.89	62000.79
661.03	61862.70
661.17	62003.13
661.32	61909.51
661.46	62010.15
661.60	61806.53
661.74	61972.70
661.89	61874.40
662.03	61708.22
662.17	61748.01
662.31	61780.78
662.46	61757.38
662.60	61689.50
662.74	61441.40
662.88	61623.96
663.03	61172.24
663.17	61284.59
663.31	61406.30
663.45	61506.94
663.60	61455.45
663.74	61387.57
663.88	61368.85
664.02	61528.00
664.17	61511.62
664.31	61567.79
664.45	61563.11
664.59	61343.10
664.73	61420.34
664.88	61347.78
665.02	60889.04
665.16	60846.91
665.30	61113.73
665.44	60725.20
665.59	61017.77
665.73	61158.20
665.87	60764.99
666.01	60917.12
666.15	61174.58
666.29	61134.79
666.44	61141.81
666.58	60947.55
666.72	60809.46
666.86	61059.90
667.00	61020.11
667.14	60692.43
667.28	60729.88
667.43	60699.45
667.57	60559.02
667.71	60556.68
667.85	60680.73
667.99	60434.97
668.13	60449.02
668.27	60238.37
668.41	60521.57
668.56	60364.76
668.70	60420.93
668.84	60451.36
668.98	60346.03
669.12	60191.56
669.26	60441.99
669.40	60039.42
669.54	60048.78
669.68	60009.00
669.82	60172.83
669.96	60093.25
670.10	59957.50
670.25	59676.64
670.39	59817.07
670.53	59770.26
670.67	59742.17
670.81	60121.34
670.95	59704.73
671.09	59959.84
671.23	59566.63
671.37	59803.03
671.51	59683.66
671.65	59852.18
671.79	59571.32
671.93	59245.98
672.07	59409.82
672.21	59386.41
672.35	59016.61
672.49	59044.69
672.63	58834.05
672.77	59231.94
672.91	58944.05
673.05	59004.91
673.19	59150.02
673.33	58927.67
673.47	59150.02
673.61	58958.09
673.75	59030.65
673.89	58948.73
674.03	58993.20
674.17	59032.99
674.31	58838.73
674.45	58747.45
674.59	58677.23
674.73	58599.99
674.87	58375.30
675.01	58508.71
675.15	58143.59
675.29	58262.96
675.43	58394.03
675.56	58202.10
675.70	58499.35
675.84	58223.17
675.98	57401.64
676.12	58143.59
676.26	57963.37
676.40	57893.15
676.54	57556.11
676.68	57710.59
676.82	57083.33
676.96	57399.30
677.10	57340.78
677.23	57338.44
677.37	57366.53
677.51	57560.79
677.65	56917.15
677.79	57069.28
677.93	57113.75
678.07	57034.17
678.21	57111.41
678.34	57057.58
678.48	56821.19
678.62	56853.95
678.76	56554.36
678.90	56575.43
679.04	56566.07
679.18	56397.55
679.31	56175.20
679.45	56142.43
679.59	56020.72
679.73	56074.55
679.87	56086.26
680.00	55957.53
680.14	55894.33
680.28	55910.72
680.42	55910.72
680.56	55899.01
680.70	55758.58
680.83	55662.62
680.97	55573.68
681.11	55728.16
681.25	55154.72
681.39	55271.75
681.52	54995.57
681.66	55161.75
681.80	54960.46
681.94	54911.31
682.07	54747.47
682.21	54749.81
682.35	54363.62
682.49	54506.40
682.62	54419.80
682.76	54319.15
682.90	54326.17
683.04	54307.45
683.17	54410.43
683.31	54199.79
683.45	54284.04
683.59	54085.10
683.72	53556.14
683.86	53937.65
684.00	53783.17
684.13	53755.08
684.27	53242.51
684.41	52942.92
684.55	53261.23
684.68	53291.66
684.82	52638.65
684.96	52718.23
685.09	52509.92
685.23	52638.65
685.37	52640.99
685.50	52669.08
685.64	52612.90
685.78	52254.80
685.91	52493.54
686.05	52486.51
686.19	52435.02
686.32	52336.72
686.46	52034.79
686.60	51700.09
686.73	51667.33
686.87	51391.14
687.01	51313.90
687.14	51133.68
687.28	51070.49
687.42	50658.56
687.55	50981.55
687.69	50822.39
687.82	50567.27
687.96	50688.98
688.10	50529.83
688.23	50623.45
688.37	50323.86
688.50	50281.73
688.64	50131.93
688.78	49790.22
688.91	49392.33
689.05	49614.68
689.18	49469.56
689.32	48278.23
689.46	48460.79
689.59	49041.24
689.73	48783.79
689.86	48486.54
690.00	48547.39
690.13	48989.75
690.27	48832.94
690.41	48584.84
690.54	48102.69
690.68	47835.87
690.81	48481.86
690.95	48322.70
691.08	48296.95
691.22	48051.20
691.35	47672.03
691.49	47676.71
691.62	47372.44
691.76	47302.23
691.89	46504.10
692.03	46621.13
692.16	46618.79
692.30	46206.86
692.43	46094.51
692.57	46384.74
692.70	46436.23
692.84	46410.48
692.97	46213.88
693.11	45867.48
693.24	45925.99
693.38	45535.12
693.51	45556.19
693.65	45647.47
693.78	45184.04
693.92	44875.09
694.05	45045.95
694.19	44673.81
694.32	44535.71
694.45	43854.62
694.59	43938.88
694.72	43370.13
694.86	44013.77
694.99	43302.25
695.13	43391.19
695.26	42972.24
695.39	42909.04
695.53	42855.21
695.66	43435.66
695.80	42387.10
695.93	42632.86
696.07	42979.26
696.20	42710.10
696.33	42550.94
696.47	42188.16
696.60	41706.01
696.73	41551.53
696.87	41399.40
697.00	41188.75
697.14	41034.27
697.27	40538.08
697.40	40451.48
697.54	40416.37
697.67	40367.22
697.80	39995.07
697.94	40121.46
698.07	39810.17
698.21	40369.56
698.34	40531.06
698.47	40233.81
698.61	39667.40
698.74	39786.77
698.87	39908.47
699.01	38909.07
699.14	38740.55
699.27	38862.26
699.40	38700.76
699.54	38082.86
699.67	38080.52
699.80	38124.99
699.94	37912.00
700.07	37780.93
700.20	37333.89
700.34	36924.29
700.47	37439.21
700.60	36973.44
700.73	37497.72
700.87	37067.06
701.00	37043.66
701.13	37022.59
701.26	36842.37
701.40	36900.89
701.53	36797.90
701.66	36856.42
701.79	36044.25
701.93	35468.48
702.06	35372.52
702.19	35222.72
702.32	35861.69
702.46	35377.20
702.59	34930.16
702.72	34707.80
702.85	34572.05
702.99	34543.97
703.12	34246.72
703.25	33919.04
703.38	34082.88
703.51	34391.83
703.65	34391.83
703.78	33905.00
703.91	33958.83
704.04	34036.07
704.17	33521.15
704.31	33397.10
704.44	32638.77
704.57	32929.00
704.70	32594.30
704.83	32566.21
704.96	32439.82
705.10	31938.95
705.23	31906.18
>>>>>End Processed Spectral Data<<<<<
