SpectraSuite Data File
++++++++++++++++++++++++++++++++++++
Date: Fri Oct 04 11:47:08 GMT-05:00 2013
User: price-jones
Dark Spectrum Present: No
Reference Spectrum Present: No
Number of Sampled Component Spectra: 1
Spectrometers: USB2+H05261
Integration Time (usec): 100000 (USB2+H05261)
Spectra Averaged: 1 (USB2+H05261)
Boxcar Smoothing: 0 (USB2+H05261)
Correct for Electrical Dark: No (USB2+H05261)
Strobe/Lamp Enabled: No (USB2+H05261)
Correct for Detector Non-linearity: No (USB2+H05261)
Correct for Stray Light: No (USB2+H05261)
Number of Pixels in Processed Spectrum: 2048
>>>>>Begin Processed Spectral Data<<<<<
365.73	51.49
365.92	51.49
366.12	51.49
366.32	0.00
366.52	0.00
366.72	11.70
366.91	0.00
367.11	0.00
367.31	0.00
367.51	0.00
367.70	0.00
367.90	0.00
368.10	0.00
368.30	0.00
368.49	0.00
368.69	0.00
368.89	0.00
369.09	7.02
369.28	0.00
369.48	0.00
369.68	0.00
369.87	0.00
370.07	0.00
370.27	0.00
370.47	0.00
370.66	18.72
370.86	25.75
371.06	39.79
371.25	102.98
371.45	56.17
371.65	58.51
371.84	11.70
372.04	42.13
372.24	105.32
372.44	18.72
372.63	107.66
372.83	56.17
373.03	173.20
373.22	32.77
373.42	100.64
373.62	49.15
373.81	131.07
374.01	105.32
374.21	105.32
374.40	72.56
374.60	147.45
374.79	128.73
374.99	46.81
375.19	70.22
375.38	86.60
375.58	95.96
375.78	147.45
375.97	46.81
376.17	117.03
376.37	149.79
376.56	135.75
376.76	100.64
376.95	56.17
377.15	91.28
377.35	58.51
377.54	70.22
377.74	86.60
377.93	56.17
378.13	95.96
378.33	131.07
378.52	18.72
378.72	117.03
378.91	121.71
379.11	105.32
379.31	65.54
379.50	16.38
379.70	77.24
379.89	147.45
380.09	79.58
380.28	72.56
380.48	88.94
380.68	131.07
380.87	39.79
381.07	98.30
381.26	126.39
381.46	149.79
381.65	63.19
381.85	117.03
382.04	154.48
382.24	81.92
382.43	79.58
382.63	100.64
382.83	53.83
383.02	128.73
383.22	88.94
383.41	88.94
383.61	105.32
383.80	138.09
384.00	121.71
384.19	100.64
384.39	42.13
384.58	135.75
384.78	117.03
384.97	128.73
385.17	77.24
385.36	67.88
385.56	81.92
385.75	114.69
385.95	112.35
386.14	121.71
386.34	91.28
386.53	91.28
386.72	67.88
386.92	95.96
387.11	77.24
387.31	63.19
387.50	105.32
387.70	25.75
387.89	0.00
388.09	79.58
388.28	107.66
388.48	70.22
388.67	133.41
388.86	105.32
389.06	131.07
389.25	107.66
389.45	107.66
389.64	77.24
389.84	119.37
390.03	79.58
390.22	65.54
390.42	154.48
390.61	0.00
390.81	98.30
391.00	128.73
391.19	166.18
391.39	102.98
391.58	105.32
391.78	147.45
391.97	175.54
392.16	117.03
392.36	117.03
392.55	145.11
392.75	140.43
392.94	72.56
393.13	145.11
393.33	114.69
393.52	72.56
393.71	114.69
393.91	9.36
394.10	91.28
394.29	93.62
394.49	86.60
394.68	173.20
394.88	53.83
395.07	93.62
395.26	124.05
395.46	145.11
395.65	42.13
395.84	95.96
396.04	112.35
396.23	37.45
396.42	95.96
396.62	2.34
396.81	60.85
397.00	88.94
397.19	107.66
397.39	159.16
397.58	53.83
397.77	79.58
397.97	63.19
398.16	32.77
398.35	51.49
398.55	117.03
398.74	79.58
398.93	140.43
399.12	30.43
399.32	175.54
399.51	93.62
399.70	93.62
399.90	149.79
400.09	119.37
400.28	93.62
400.47	88.94
400.67	147.45
400.86	142.77
401.05	86.60
401.24	180.22
401.44	98.30
401.63	135.75
401.82	100.64
402.01	72.56
402.21	166.18
402.40	161.50
402.59	93.62
402.78	28.09
402.97	126.39
403.17	112.35
403.36	159.16
403.55	159.16
403.74	51.49
403.93	147.45
404.13	119.37
404.32	138.09
404.51	126.39
404.70	23.41
404.89	107.66
405.09	133.41
405.28	117.03
405.47	114.69
405.66	140.43
405.85	175.54
406.05	102.98
406.24	112.35
406.43	65.54
406.62	117.03
406.81	110.01
407.00	67.88
407.20	107.66
407.39	65.54
407.58	149.79
407.77	93.62
407.96	128.73
408.15	56.17
408.34	105.32
408.54	154.48
408.73	170.86
408.92	110.01
409.11	84.26
409.30	133.41
409.49	102.98
409.68	159.16
409.87	42.13
410.07	84.26
410.26	152.13
410.45	110.01
410.64	95.96
410.83	124.05
411.02	86.60
411.21	105.32
411.40	74.90
411.59	79.58
411.78	74.90
411.98	39.79
412.17	107.66
412.36	147.45
412.55	56.17
412.74	145.11
412.93	131.07
413.12	60.85
413.31	142.77
413.50	156.82
413.69	156.82
413.88	161.50
414.07	93.62
414.26	128.73
414.45	128.73
414.64	173.20
414.83	131.07
415.02	180.22
415.22	98.30
415.41	177.88
415.60	133.41
415.79	65.54
415.98	74.90
416.17	98.30
416.36	175.54
416.55	74.90
416.74	32.77
416.93	84.26
417.12	107.66
417.31	56.17
417.50	131.07
417.69	175.54
417.88	91.28
418.07	133.41
418.26	112.35
418.45	102.98
418.64	210.65
418.83	175.54
419.02	173.20
419.21	140.43
419.39	114.69
419.58	124.05
419.77	72.56
419.96	128.73
420.15	149.79
420.34	140.43
420.53	149.79
420.72	121.71
420.91	140.43
421.10	117.03
421.29	107.66
421.48	128.73
421.67	170.86
421.86	93.62
422.05	51.49
422.24	121.71
422.43	112.35
422.61	119.37
422.80	184.90
422.99	147.45
423.18	112.35
423.37	138.09
423.56	105.32
423.75	100.64
423.94	105.32
424.13	168.52
424.32	166.18
424.50	152.13
424.69	93.62
424.88	100.64
425.07	154.48
425.26	91.28
425.45	135.75
425.64	168.52
425.83	154.48
426.01	67.88
426.20	131.07
426.39	114.69
426.58	114.69
426.77	93.62
426.96	194.26
427.15	208.31
427.33	117.03
427.52	140.43
427.71	149.79
427.90	208.31
428.09	98.30
428.28	98.30
428.46	133.41
428.65	77.24
428.84	77.24
429.03	154.48
429.22	79.58
429.40	98.30
429.59	128.73
429.78	156.82
429.97	168.52
430.16	105.32
430.34	56.17
430.53	145.11
430.72	142.77
430.91	107.66
431.10	84.26
431.28	88.94
431.47	110.01
431.66	91.28
431.85	145.11
432.03	84.26
432.22	184.90
432.41	168.52
432.60	187.24
432.79	147.45
432.97	173.20
433.16	168.52
433.35	187.24
433.54	135.75
433.72	131.07
433.91	135.75
434.10	145.11
434.28	224.69
434.47	124.05
434.66	124.05
434.85	86.60
435.03	58.51
435.22	210.65
435.41	131.07
435.59	142.77
435.78	159.16
435.97	79.58
436.16	124.05
436.34	163.84
436.53	140.43
436.72	142.77
436.90	142.77
437.09	135.75
437.28	102.98
437.46	133.41
437.65	147.45
437.84	205.97
438.02	133.41
438.21	173.20
438.40	177.88
438.58	140.43
438.77	189.58
438.96	166.18
439.14	91.28
439.33	135.75
439.52	114.69
439.70	112.35
439.89	102.98
440.08	102.98
440.26	63.19
440.45	117.03
440.63	187.24
440.82	51.49
441.01	110.01
441.19	84.26
441.38	114.69
441.57	58.51
441.75	177.88
441.94	182.56
442.12	124.05
442.31	121.71
442.50	72.56
442.68	126.39
442.87	173.20
443.05	65.54
443.24	105.32
443.43	145.11
443.61	140.43
443.80	149.79
443.98	95.96
444.17	156.82
444.35	32.77
444.54	117.03
444.73	142.77
444.91	182.56
445.10	98.30
445.28	117.03
445.47	154.48
445.65	138.09
445.84	88.94
446.02	166.18
446.21	117.03
446.39	133.41
446.58	119.37
446.77	135.75
446.95	112.35
447.14	138.09
447.32	208.31
447.51	128.73
447.69	173.20
447.88	126.39
448.06	119.37
448.25	100.64
448.43	177.88
448.62	84.26
448.80	140.43
448.99	194.26
449.17	140.43
449.36	138.09
449.54	159.16
449.73	119.37
449.91	194.26
450.10	70.22
450.28	170.86
450.46	184.90
450.65	105.32
450.83	119.37
451.02	105.32
451.20	133.41
451.39	133.41
451.57	152.13
451.76	84.26
451.94	93.62
452.13	187.24
452.31	119.37
452.49	187.24
452.68	51.49
452.86	128.73
453.05	187.24
453.23	65.54
453.42	42.13
453.60	159.16
453.78	98.30
453.97	196.60
454.15	121.71
454.34	128.73
454.52	72.56
454.70	229.37
454.89	102.98
455.07	142.77
455.26	105.32
455.44	168.52
455.62	124.05
455.81	121.71
455.99	145.11
456.17	175.54
456.36	154.48
456.54	51.49
456.73	88.94
456.91	140.43
457.09	65.54
457.28	138.09
457.46	201.29
457.64	175.54
457.83	175.54
458.01	93.62
458.19	121.71
458.38	175.54
458.56	114.69
458.74	124.05
458.93	142.77
459.11	203.63
459.29	194.26
459.48	131.07
459.66	201.29
459.84	126.39
460.03	205.97
460.21	191.92
460.39	114.69
460.57	161.50
460.76	184.90
460.94	149.79
461.12	154.48
461.31	107.66
461.49	112.35
461.67	147.45
461.85	133.41
462.04	32.77
462.22	557.05
462.40	224.69
462.59	133.41
462.77	58.51
462.95	124.05
463.13	142.77
463.32	112.35
463.50	175.54
463.68	177.88
463.86	135.75
464.05	117.03
464.23	156.82
464.41	222.35
464.59	220.01
464.78	117.03
464.96	95.96
465.14	198.95
465.32	173.20
465.50	126.39
465.69	145.11
465.87	154.48
466.05	140.43
466.23	88.94
466.41	220.01
466.60	128.73
466.78	131.07
466.96	138.09
467.14	180.22
467.32	121.71
467.51	100.64
467.69	145.11
467.87	152.13
468.05	131.07
468.23	189.58
468.41	156.82
468.60	133.41
468.78	119.37
468.96	210.65
469.14	124.05
469.32	37.45
469.50	49.15
469.69	117.03
469.87	131.07
470.05	112.35
470.23	173.20
470.41	119.37
470.59	191.92
470.77	74.90
470.95	114.69
471.14	149.79
471.32	180.22
471.50	173.20
471.68	180.22
471.86	163.84
472.04	93.62
472.22	114.69
472.40	93.62
472.58	170.86
472.77	147.45
472.95	156.82
473.13	187.24
473.31	224.69
473.49	133.41
473.67	163.84
473.85	147.45
474.03	220.01
474.21	84.26
474.39	131.07
474.57	173.20
474.75	112.35
474.93	147.45
475.12	224.69
475.30	121.71
475.48	58.51
475.66	126.39
475.84	159.16
476.02	95.96
476.20	163.84
476.38	140.43
476.56	119.37
476.74	100.64
476.92	149.79
477.10	88.94
477.28	154.48
477.46	126.39
477.64	138.09
477.82	250.44
478.00	114.69
478.18	126.39
478.36	126.39
478.54	187.24
478.72	187.24
478.90	142.77
479.08	180.22
479.26	114.69
479.44	182.56
479.62	77.24
479.80	152.13
479.98	135.75
480.16	147.45
480.34	208.31
480.52	133.41
480.70	166.18
480.88	191.92
481.06	128.73
481.24	194.26
481.41	131.07
481.59	198.95
481.77	124.05
481.95	147.45
482.13	236.39
482.31	135.75
482.49	117.03
482.67	173.20
482.85	142.77
483.03	142.77
483.21	198.95
483.39	126.39
483.57	170.86
483.74	201.29
483.92	138.09
484.10	184.90
484.28	114.69
484.46	182.56
484.64	98.30
484.82	210.65
485.00	175.54
485.18	117.03
485.35	180.22
485.53	198.95
485.71	117.03
485.89	67.88
486.07	105.32
486.25	236.39
486.43	180.22
486.61	189.58
486.78	184.90
486.96	149.79
487.14	163.84
487.32	212.99
487.50	194.26
487.68	159.16
487.85	189.58
488.03	175.54
488.21	191.92
488.39	154.48
488.57	220.01
488.75	126.39
488.92	435.34
489.10	224.69
489.28	238.73
489.46	77.24
489.64	147.45
489.81	91.28
489.99	177.88
490.17	194.26
490.35	283.20
490.53	156.82
490.70	84.26
490.88	180.22
491.06	173.20
491.24	140.43
491.41	205.97
491.59	198.95
491.77	161.50
491.95	100.64
492.13	152.13
492.30	227.03
492.48	203.63
492.66	135.75
492.84	159.16
493.01	152.13
493.19	198.95
493.37	194.26
493.54	156.82
493.72	170.86
493.90	117.03
494.08	220.01
494.25	152.13
494.43	191.92
494.61	222.35
494.79	203.63
494.96	117.03
495.14	184.90
495.32	189.58
495.49	175.54
495.67	198.95
495.85	117.03
496.02	110.01
496.20	191.92
496.38	166.18
496.55	177.88
496.73	128.73
496.91	196.60
497.09	236.39
497.26	152.13
497.44	175.54
497.62	119.37
497.79	152.13
497.97	252.78
498.14	175.54
498.32	135.75
498.50	168.52
498.67	173.20
498.85	182.56
499.03	149.79
499.20	168.52
499.38	210.65
499.56	198.95
499.73	184.90
499.91	147.45
500.08	215.33
500.26	217.67
500.44	250.44
500.61	234.05
500.79	154.48
500.97	182.56
501.14	224.69
501.32	210.65
501.49	276.18
501.67	194.26
501.84	245.76
502.02	194.26
502.20	196.60
502.37	191.92
502.55	161.50
502.72	133.41
502.90	201.29
503.07	205.97
503.25	236.39
503.43	194.26
503.60	168.52
503.78	196.60
503.95	264.48
504.13	156.82
504.30	194.26
504.48	177.88
504.65	191.92
504.83	217.67
505.01	131.07
505.18	88.94
505.36	114.69
505.53	154.48
505.71	196.60
505.88	198.95
506.06	208.31
506.23	161.50
506.41	173.20
506.58	182.56
506.76	133.41
506.93	131.07
507.11	161.50
507.28	201.29
507.46	196.60
507.63	224.69
507.81	177.88
507.98	201.29
508.16	175.54
508.33	231.71
508.50	184.90
508.68	140.43
508.85	241.08
509.03	184.90
509.20	227.03
509.38	208.31
509.55	203.63
509.73	198.95
509.90	243.42
510.08	145.11
510.25	257.46
510.42	170.86
510.60	231.71
510.77	266.82
510.95	208.31
511.12	234.05
511.30	205.97
511.47	236.39
511.64	245.76
511.82	201.29
511.99	227.03
512.17	149.79
512.34	124.05
512.51	168.52
512.69	210.65
512.86	224.69
513.04	170.86
513.21	229.37
513.38	210.65
513.56	133.41
513.73	152.13
513.90	205.97
514.08	231.71
514.25	177.88
514.43	236.39
514.60	138.09
514.77	170.86
514.95	161.50
515.12	163.84
515.29	210.65
515.47	241.08
515.64	245.76
515.81	259.80
515.99	280.86
516.16	140.43
516.33	252.78
516.51	184.90
516.68	119.37
516.85	191.92
517.03	229.37
517.20	248.10
517.37	266.82
517.54	208.31
517.72	187.24
517.89	173.20
518.06	175.54
518.24	203.63
518.41	259.80
518.58	236.39
518.75	145.11
518.93	177.88
519.10	154.48
519.27	131.07
519.45	234.05
519.62	138.09
519.79	170.86
519.96	222.35
520.14	152.13
520.31	245.76
520.48	191.92
520.65	208.31
520.83	182.56
521.00	259.80
521.17	210.65
521.34	145.11
521.52	187.24
521.69	189.58
521.86	201.29
522.03	227.03
522.20	198.95
522.38	215.33
522.55	262.14
522.72	212.99
522.89	175.54
523.07	196.60
523.24	229.37
523.41	154.48
523.58	121.71
523.75	238.73
523.92	198.95
524.10	156.82
524.27	180.22
524.44	220.01
524.61	252.78
524.78	280.86
524.96	198.95
525.13	170.86
525.30	201.29
525.47	269.16
525.64	227.03
525.81	285.55
525.98	168.52
526.16	159.16
526.33	147.45
526.50	159.16
526.67	135.75
526.84	180.22
527.01	156.82
527.18	140.43
527.36	212.99
527.53	166.18
527.70	159.16
527.87	187.24
528.04	201.29
528.21	205.97
528.38	217.67
528.55	252.78
528.72	264.48
528.89	264.48
529.07	212.99
529.24	170.86
529.41	182.56
529.58	224.69
529.75	210.65
529.92	201.29
530.09	236.39
530.26	170.86
530.43	248.10
530.60	220.01
530.77	236.39
530.94	278.52
531.11	203.63
531.28	201.29
531.46	163.84
531.63	173.20
531.80	198.95
531.97	182.56
532.14	182.56
532.31	154.48
532.48	234.05
532.65	220.01
532.82	243.42
532.99	243.42
533.16	234.05
533.33	238.73
533.50	250.44
533.67	166.18
533.84	264.48
534.01	222.35
534.18	259.80
534.35	245.76
534.52	205.97
534.69	285.55
534.86	283.20
535.03	198.95
535.20	166.18
535.37	210.65
535.54	248.10
535.71	147.45
535.88	159.16
536.05	191.92
536.22	220.01
536.38	191.92
536.55	191.92
536.72	210.65
536.89	215.33
537.06	210.65
537.23	163.84
537.40	229.37
537.57	229.37
537.74	138.09
537.91	222.35
538.08	217.67
538.25	234.05
538.42	180.22
538.59	175.54
538.75	187.24
538.92	203.63
539.09	191.92
539.26	198.95
539.43	341.72
539.60	545.34
539.77	809.83
539.94	662.37
540.11	433.00
540.28	334.70
540.44	339.38
540.61	215.33
540.78	196.60
540.95	217.67
541.12	191.92
541.29	177.88
541.46	238.73
541.62	271.50
541.79	252.78
541.96	163.84
542.13	163.84
542.30	222.35
542.47	194.26
542.63	203.63
542.80	175.54
542.97	177.88
543.14	236.39
543.31	154.48
543.48	163.84
543.64	217.67
543.81	156.82
543.98	191.92
544.15	154.48
544.32	189.58
544.48	201.29
544.65	175.54
544.82	210.65
544.99	201.29
545.16	245.76
545.32	156.82
545.49	163.84
545.66	175.54
545.83	180.22
546.00	142.77
546.16	142.77
546.33	131.07
546.50	175.54
546.67	191.92
546.83	231.71
547.00	161.50
547.17	257.46
547.34	198.95
547.50	208.31
547.67	229.37
547.84	154.48
548.00	252.78
548.17	177.88
548.34	203.63
548.51	337.04
548.67	166.18
548.84	102.98
549.01	229.37
549.18	163.84
549.34	203.63
549.51	234.05
549.68	156.82
549.84	196.60
550.01	196.60
550.18	313.63
550.34	241.08
550.51	210.65
550.68	194.26
550.84	161.50
551.01	212.99
551.18	191.92
551.34	231.71
551.51	198.95
551.68	222.35
551.84	212.99
552.01	191.92
552.18	229.37
552.34	205.97
552.51	196.60
552.68	208.31
552.84	220.01
553.01	241.08
553.18	173.20
553.34	79.58
553.51	173.20
553.67	205.97
553.84	248.10
554.01	220.01
554.17	154.48
554.34	152.13
554.51	201.29
554.67	236.39
554.84	227.03
555.00	222.35
555.17	128.73
555.33	229.37
555.50	252.78
555.67	276.18
555.83	220.01
556.00	262.14
556.16	311.29
556.33	187.24
556.50	201.29
556.66	152.13
556.83	140.43
556.99	220.01
557.16	238.73
557.32	168.52
557.49	182.56
557.65	243.42
557.82	215.33
557.98	224.69
558.15	194.26
558.32	210.65
558.48	205.97
558.65	259.80
558.81	227.03
558.98	201.29
559.14	180.22
559.31	220.01
559.47	285.55
559.64	189.58
559.80	187.24
559.97	161.50
560.13	184.90
560.30	196.60
560.46	177.88
560.63	217.67
560.79	217.67
560.96	196.60
561.12	201.29
561.29	224.69
561.45	166.18
561.61	205.97
561.78	311.29
561.94	203.63
562.11	145.11
562.27	93.62
562.44	231.71
562.60	187.24
562.77	236.39
562.93	241.08
563.10	252.78
563.26	112.35
563.42	203.63
563.59	180.22
563.75	236.39
563.92	224.69
564.08	222.35
564.24	187.24
564.41	269.16
564.57	257.46
564.74	205.97
564.90	142.77
565.07	262.14
565.23	299.59
565.39	252.78
565.56	196.60
565.72	227.03
565.88	126.39
566.05	198.95
566.21	196.60
566.38	210.65
566.54	229.37
566.70	196.60
566.87	180.22
567.03	177.88
567.19	210.65
567.36	229.37
567.52	234.05
567.68	161.50
567.85	208.31
568.01	271.50
568.17	159.16
568.34	149.79
568.50	208.31
568.66	231.71
568.83	205.97
568.99	201.29
569.15	166.18
569.32	177.88
569.48	163.84
569.64	149.79
569.81	135.75
569.97	175.54
570.13	177.88
570.30	189.58
570.46	220.01
570.62	180.22
570.78	191.92
570.95	177.88
571.11	222.35
571.27	222.35
571.43	91.28
571.60	276.18
571.76	180.22
571.92	248.10
572.09	187.24
572.25	168.52
572.41	203.63
572.57	194.26
572.74	271.50
572.90	131.07
573.06	227.03
573.22	60.85
573.38	154.48
573.55	250.44
573.71	163.84
573.87	168.52
574.03	229.37
574.20	175.54
574.36	227.03
574.52	198.95
574.68	198.95
574.84	236.39
575.01	201.29
575.17	152.13
575.33	175.54
575.49	159.16
575.65	180.22
575.82	252.78
575.98	348.74
576.14	367.46
576.30	425.98
576.46	348.74
576.62	308.95
576.79	229.37
576.95	266.82
577.11	234.05
577.27	110.01
577.43	184.90
577.59	238.73
577.75	229.37
577.92	245.76
578.08	201.29
578.24	131.07
578.40	217.67
578.56	255.12
578.72	198.95
578.88	217.67
579.04	220.01
579.21	220.01
579.37	208.31
579.53	222.35
579.69	177.88
579.85	194.26
580.01	205.97
580.17	250.44
580.33	266.82
580.49	252.78
580.65	269.16
580.82	262.14
580.98	248.10
581.14	269.16
581.30	248.10
581.46	297.25
581.62	365.12
581.78	355.76
581.94	367.46
582.10	222.35
582.26	301.93
582.42	252.78
582.58	271.50
582.74	184.90
582.90	262.14
583.06	332.36
583.22	252.78
583.38	266.82
583.54	285.55
583.70	383.85
583.86	458.74
584.02	407.25
584.18	559.39
584.34	564.07
584.50	1516.67
584.66	10668.16
584.82	26197.62
584.98	37743.48
585.14	33408.81
585.30	20517.14
585.46	12238.66
585.62	7428.86
585.78	3581.02
585.94	1549.43
586.10	779.40
586.26	521.94
586.42	477.47
586.58	461.09
586.74	278.52
586.90	322.99
587.06	346.40
587.22	238.73
587.38	304.27
587.54	519.60
587.70	1612.63
587.86	2576.93
588.02	2862.48
588.18	1975.41
588.34	1366.87
588.49	873.02
588.65	629.60
588.81	353.42
588.97	255.12
589.13	156.82
589.29	159.16
589.45	255.12
589.61	215.33
589.77	266.82
589.93	292.57
590.08	259.80
590.24	285.55
590.40	245.76
590.56	231.71
590.72	236.39
590.88	297.25
591.04	224.69
591.20	166.18
591.35	198.95
591.51	243.42
591.67	191.92
591.83	173.20
591.99	159.16
592.15	241.08
592.31	290.23
592.46	245.76
592.62	252.78
592.78	255.12
592.94	229.37
593.10	203.63
593.26	147.45
593.41	252.78
593.57	273.84
593.73	325.33
593.89	1345.81
594.05	3276.75
594.20	4718.52
594.36	4393.19
594.52	2897.58
594.68	1884.13
594.84	1263.89
594.99	753.65
595.15	425.98
595.31	264.48
595.47	250.44
595.62	224.69
595.78	231.71
595.94	278.52
596.10	252.78
596.25	217.67
596.41	315.97
596.57	201.29
596.73	133.41
596.88	337.04
597.04	685.78
597.20	1039.20
597.36	1167.93
597.51	971.32
597.67	662.37
597.83	510.24
597.99	348.74
598.14	220.01
598.30	285.55
598.46	236.39
598.61	236.39
598.77	231.71
598.93	252.78
599.09	220.01
599.24	180.22
599.40	220.01
599.56	152.13
599.71	250.44
599.87	184.90
600.03	159.16
600.18	152.13
600.34	252.78
600.50	194.26
600.65	241.08
600.81	177.88
600.97	133.41
601.12	145.11
601.28	227.03
601.44	220.01
601.59	212.99
601.75	224.69
601.91	201.29
602.06	257.46
602.22	304.27
602.37	435.34
602.53	751.31
602.69	1212.40
602.84	1242.82
603.00	1029.84
603.16	634.29
603.31	512.58
603.47	360.44
603.62	252.78
603.78	212.99
603.94	248.10
604.09	201.29
604.25	252.78
604.40	269.16
604.56	269.16
604.71	250.44
604.87	201.29
605.03	154.48
605.18	245.76
605.34	318.31
605.49	177.88
605.65	269.16
605.80	215.33
605.96	135.75
606.12	124.05
606.27	264.48
606.43	304.27
606.58	297.25
606.74	484.49
606.89	1610.29
607.05	3173.77
607.20	4004.66
607.36	3370.37
607.51	2289.04
607.67	1404.32
607.82	1146.86
607.98	627.26
608.13	341.72
608.29	315.97
608.44	212.99
608.60	283.20
608.75	322.99
608.91	643.65
609.06	2438.84
609.22	5011.09
609.37	6827.34
609.53	5741.33
609.68	4124.02
609.84	2513.74
609.99	1834.98
610.15	1034.52
610.30	545.34
610.46	344.06
610.61	299.59
610.76	243.42
610.92	229.37
611.07	187.24
611.23	322.99
611.38	255.12
611.54	208.31
611.69	257.46
611.84	173.20
612.00	145.11
612.15	287.89
612.31	322.99
612.46	306.61
612.62	395.55
612.77	355.76
612.92	294.91
613.08	341.72
613.23	367.46
613.39	266.82
613.54	519.60
613.69	2443.52
613.85	6363.92
614.00	10188.35
614.15	10979.45
614.31	7756.54
614.46	4994.70
614.62	3426.54
614.77	2052.65
614.92	992.39
615.08	486.83
615.23	372.15
615.38	308.95
615.54	292.57
615.69	456.40
615.84	1373.89
616.00	2267.98
616.15	2881.20
616.30	2427.14
616.46	1732.00
616.61	1172.61
616.76	779.40
616.92	442.36
617.07	276.18
617.22	173.20
617.37	220.01
617.53	234.05
617.68	217.67
617.83	243.42
617.99	257.46
618.14	212.99
618.29	208.31
618.45	210.65
618.60	236.39
618.75	224.69
618.90	166.18
619.06	191.92
619.21	220.01
619.36	184.90
619.51	95.96
619.67	212.99
619.82	133.41
619.97	198.95
620.12	110.01
620.28	210.65
620.43	203.63
620.58	166.18
620.73	175.54
620.89	220.01
621.04	276.18
621.19	734.93
621.34	1350.49
621.49	1755.40
621.65	1570.50
621.80	1078.99
621.95	821.53
622.10	634.29
622.25	390.87
622.41	262.14
622.56	245.76
622.71	215.33
622.86	243.42
623.01	168.52
623.16	276.18
623.32	156.82
623.47	187.24
623.62	189.58
623.77	189.58
623.92	224.69
624.07	126.39
624.23	182.56
624.38	215.33
624.53	154.48
624.68	194.26
624.83	191.92
624.98	182.56
625.13	231.71
625.29	180.22
625.44	198.95
625.59	168.52
625.74	238.73
625.89	271.50
626.04	1160.91
626.19	3314.20
626.34	5181.95
626.49	5680.48
626.65	4161.47
626.80	2864.82
626.95	2043.29
627.10	1277.93
627.25	770.04
627.40	280.86
627.55	187.24
627.70	236.39
627.85	236.39
628.00	196.60
628.15	182.56
628.30	245.76
628.45	156.82
628.60	156.82
628.76	173.20
628.91	201.29
629.06	156.82
629.21	166.18
629.36	245.76
629.51	191.92
629.66	166.18
629.81	273.84
629.96	772.38
630.11	1219.42
630.26	1586.88
630.41	1345.81
630.56	990.05
630.71	744.29
630.86	531.30
631.01	397.89
631.16	229.37
631.31	198.95
631.46	299.59
631.61	159.16
631.76	215.33
631.91	238.73
632.06	168.52
632.21	210.65
632.36	173.20
632.51	262.14
632.66	301.93
632.81	596.84
632.96	1888.81
633.10	3141.00
633.25	3836.14
633.40	3243.98
633.55	2298.41
633.70	1537.73
633.85	994.73
634.00	571.09
634.15	330.02
634.30	318.31
634.45	241.08
634.60	208.31
634.75	196.60
634.90	217.67
635.05	201.29
635.19	224.69
635.34	182.56
635.49	152.13
635.64	205.97
635.79	149.79
635.94	208.31
636.09	166.18
636.24	128.73
636.39	110.01
636.53	173.20
636.68	126.39
636.83	245.76
636.98	224.69
637.13	241.08
637.28	175.54
637.43	222.35
637.57	409.59
637.72	1596.25
637.87	4100.62
638.02	6380.30
638.17	7222.89
638.32	5226.42
638.46	3702.73
638.61	2567.57
638.76	1586.88
638.91	856.64
639.06	454.06
639.20	397.89
639.35	423.64
639.50	489.17
639.65	2438.84
639.80	6576.91
639.94	10253.89
640.09	11279.04
640.24	8170.81
640.39	5762.40
640.54	3775.28
640.68	2319.47
640.83	1167.93
640.98	559.39
641.13	351.08
641.27	315.97
641.42	276.18
641.57	196.60
641.72	180.22
641.86	264.48
642.01	208.31
642.16	210.65
642.31	149.79
642.45	177.88
642.60	168.52
642.75	131.07
642.90	243.42
643.04	220.01
643.19	238.73
643.34	161.50
643.48	161.50
643.63	119.37
643.78	215.33
643.93	184.90
644.07	170.86
644.22	145.11
644.37	119.37
644.51	222.35
644.66	201.29
644.81	156.82
644.95	142.77
645.10	88.94
645.25	152.13
645.39	173.20
645.54	133.41
645.69	210.65
645.83	142.77
645.98	215.33
646.13	175.54
646.27	184.90
646.42	170.86
646.57	121.71
646.71	154.48
646.86	131.07
647.00	191.92
647.15	189.58
647.30	119.37
647.44	142.77
647.59	84.26
647.74	168.52
647.88	159.16
648.03	180.22
648.17	187.24
648.32	170.86
648.47	133.41
648.61	166.18
648.76	102.98
648.90	100.64
649.05	276.18
649.20	154.48
649.34	95.96
649.49	222.35
649.63	205.97
649.78	243.42
649.92	271.50
650.07	959.62
650.21	2743.11
650.36	4830.87
650.51	5781.12
650.65	4856.61
650.80	3433.57
650.94	2333.51
651.09	1371.55
651.23	709.18
651.38	442.36
651.52	334.70
651.67	227.03
651.81	142.77
651.96	222.35
652.10	175.54
652.25	227.03
652.39	168.52
652.54	191.92
652.68	287.89
652.83	1046.22
652.97	1610.29
653.12	2076.06
653.26	1799.87
653.41	1406.66
653.55	1013.45
653.70	648.33
653.84	379.17
653.99	201.29
654.13	170.86
654.27	119.37
654.42	173.20
654.56	168.52
654.71	217.67
654.85	168.52
655.00	147.45
655.14	203.63
655.29	140.43
655.43	135.75
655.57	177.88
655.72	121.71
655.86	138.09
656.01	166.18
656.15	79.58
656.30	180.22
656.44	102.98
656.58	135.75
656.73	131.07
656.87	121.71
657.01	112.35
657.16	180.22
657.30	156.82
657.45	198.95
657.59	140.43
657.73	81.92
657.88	131.07
658.02	147.45
658.16	161.50
658.31	140.43
658.45	102.98
658.60	114.69
658.74	159.16
658.88	88.94
659.03	119.37
659.17	203.63
659.31	444.70
659.46	1277.93
659.60	2253.94
659.74	2939.71
659.89	2576.93
660.03	1952.01
660.17	1315.38
660.32	894.08
660.46	507.90
660.60	322.99
660.74	227.03
660.89	117.03
661.03	180.22
661.17	95.96
661.32	86.60
661.46	119.37
661.60	133.41
661.74	156.82
661.89	241.08
662.03	163.84
662.17	156.82
662.31	173.20
662.46	168.52
662.60	152.13
662.74	184.90
662.88	128.73
663.03	49.15
663.17	128.73
663.31	110.01
663.45	138.09
663.60	154.48
663.74	98.30
663.88	126.39
664.02	95.96
664.17	177.88
664.31	147.45
664.45	74.90
664.59	124.05
664.73	168.52
664.88	156.82
665.02	173.20
665.16	168.52
665.30	154.48
665.44	81.92
665.59	222.35
665.73	168.52
665.87	168.52
666.01	131.07
666.15	149.79
666.29	154.48
666.44	205.97
666.58	191.92
666.72	131.07
666.86	201.29
667.00	212.99
667.14	278.52
667.28	898.77
667.43	2471.61
667.57	3911.04
667.71	5008.75
667.85	4322.97
667.99	3138.66
668.13	2104.14
668.27	1289.64
668.41	716.20
668.56	465.77
668.70	322.99
668.84	229.37
668.98	184.90
669.12	224.69
669.26	124.05
669.40	201.29
669.54	201.29
669.68	212.99
669.82	128.73
669.96	152.13
670.10	194.26
670.25	224.69
670.39	191.92
670.53	180.22
670.67	145.11
670.81	182.56
670.95	161.50
671.09	290.23
671.23	968.98
671.37	1949.67
671.51	2991.20
671.65	3133.98
671.79	2497.35
671.93	1678.16
672.07	1107.07
672.21	620.24
672.35	369.80
672.49	245.76
672.63	177.88
672.77	131.07
672.91	154.48
673.05	145.11
673.19	112.35
673.33	145.11
673.47	159.16
673.61	140.43
673.75	140.43
673.89	194.26
674.03	229.37
674.17	140.43
674.31	133.41
674.45	126.39
674.59	65.54
674.73	135.75
674.87	119.37
675.01	180.22
675.15	112.35
675.29	201.29
675.43	182.56
675.56	259.80
675.70	163.84
675.84	110.01
675.98	163.84
676.12	135.75
676.26	135.75
676.40	149.79
676.54	154.48
676.68	91.28
676.82	173.20
676.96	81.92
677.10	117.03
677.23	149.79
677.37	140.43
677.51	121.71
677.65	215.33
677.79	124.05
677.93	86.60
678.07	98.30
678.21	102.98
678.34	114.69
678.48	77.24
678.62	149.79
678.76	91.28
678.90	187.24
679.04	196.60
679.18	84.26
679.31	60.85
679.45	189.58
679.59	91.28
679.73	222.35
679.87	145.11
680.00	152.13
680.14	91.28
680.28	39.79
680.42	53.83
680.56	53.83
680.70	105.32
680.83	100.64
680.97	126.39
681.11	135.75
681.25	170.86
681.39	147.45
681.52	114.69
681.66	149.79
681.80	105.32
681.94	98.30
682.07	149.79
682.21	145.11
682.35	114.69
682.49	102.98
682.62	177.88
682.76	154.48
682.90	95.96
683.04	117.03
683.17	140.43
683.31	102.98
683.45	100.64
683.59	184.90
683.72	217.67
683.86	39.79
684.00	156.82
684.13	180.22
684.27	93.62
684.41	147.45
684.55	152.13
684.68	72.56
684.82	105.32
684.96	121.71
685.09	105.32
685.23	105.32
685.37	65.54
685.50	77.24
685.64	93.62
685.78	124.05
685.91	189.58
686.05	156.82
686.19	67.88
686.32	110.01
686.46	149.79
686.60	138.09
686.73	170.86
686.87	149.79
687.01	159.16
687.14	100.64
687.28	119.37
687.42	98.30
687.55	238.73
687.69	173.20
687.82	18.72
687.96	84.26
688.10	152.13
688.23	128.73
688.37	163.84
688.50	159.16
688.64	170.86
688.78	124.05
688.91	180.22
689.05	131.07
689.18	93.62
689.32	112.35
689.46	95.96
689.59	77.24
689.73	110.01
689.86	91.28
690.00	81.92
690.13	131.07
690.27	121.71
690.41	60.85
690.54	145.11
690.68	46.81
690.81	86.60
690.95	145.11
691.08	110.01
691.22	163.84
691.35	79.58
691.49	131.07
691.62	88.94
691.76	142.77
691.89	159.16
692.03	140.43
692.16	124.05
692.30	166.18
692.43	372.15
692.57	1074.31
692.70	1685.19
692.84	2165.00
692.97	2064.35
693.11	1523.69
693.24	1088.35
693.38	814.51
693.51	512.58
693.65	425.98
693.78	266.82
693.92	145.11
694.05	152.13
694.19	196.60
694.32	196.60
694.45	74.90
694.59	37.45
694.72	124.05
694.86	184.90
694.99	88.94
695.13	112.35
695.26	142.77
695.39	119.37
695.53	152.13
695.66	126.39
695.80	191.92
695.93	37.45
696.07	107.66
696.20	168.52
696.33	205.97
696.47	273.84
696.60	229.37
696.73	250.44
696.87	121.71
697.00	255.12
697.14	110.01
697.27	175.54
697.40	194.26
697.54	152.13
697.67	53.83
697.80	91.28
697.94	65.54
698.07	112.35
698.21	121.71
698.34	161.50
698.47	81.92
698.61	81.92
698.74	23.41
698.87	198.95
699.01	65.54
699.14	142.77
699.27	163.84
699.40	163.84
699.54	74.90
699.67	98.30
699.80	84.26
699.94	128.73
700.07	102.98
700.20	58.51
700.34	152.13
700.47	74.90
700.60	88.94
700.73	112.35
700.87	119.37
701.00	124.05
701.13	110.01
701.26	72.56
701.40	119.37
701.53	105.32
701.66	114.69
701.79	102.98
701.93	138.09
702.06	198.95
702.19	266.82
702.32	245.76
702.46	252.78
702.59	287.89
702.72	458.74
702.85	1322.40
702.99	2759.49
703.12	3908.69
703.25	4299.56
703.38	3648.90
703.51	3009.93
703.65	2286.70
703.78	1671.14
703.91	1156.22
704.04	706.84
704.17	414.27
704.31	376.83
704.44	250.44
704.57	121.71
704.70	222.35
704.83	142.77
704.96	173.20
705.10	133.41
705.23	58.51
>>>>>End Processed Spectral Data<<<<<
