SpectraSuite Data File
++++++++++++++++++++++++++++++++++++
Date: Fri Oct 04 11:48:47 GMT-05:00 2013
User: price-jones
Dark Spectrum Present: No
Reference Spectrum Present: No
Number of Sampled Component Spectra: 1
Spectrometers: USB2+H05261
Integration Time (usec): 100000 (USB2+H05261)
Spectra Averaged: 1 (USB2+H05261)
Boxcar Smoothing: 0 (USB2+H05261)
Correct for Electrical Dark: No (USB2+H05261)
Strobe/Lamp Enabled: No (USB2+H05261)
Correct for Detector Non-linearity: No (USB2+H05261)
Correct for Stray Light: No (USB2+H05261)
Number of Pixels in Processed Spectrum: 2048
>>>>>Begin Processed Spectral Data<<<<<
365.73	102.98
365.92	102.98
366.12	102.98
366.32	0.00
366.52	0.00
366.72	0.00
366.91	0.00
367.11	0.00
367.31	0.00
367.51	0.00
367.70	0.00
367.90	0.00
368.10	0.00
368.30	0.00
368.49	0.00
368.69	0.00
368.89	0.00
369.09	0.00
369.28	0.00
369.48	0.00
369.68	0.00
369.87	23.41
370.07	0.00
370.27	11.70
370.47	100.64
370.66	393.21
370.86	447.04
371.06	442.36
371.25	554.71
371.45	496.19
371.65	472.79
371.84	400.23
372.04	402.57
372.24	463.43
372.44	564.07
372.63	535.98
372.83	540.66
373.03	540.66
373.22	468.11
373.42	564.07
373.62	589.82
373.81	636.63
374.01	648.33
374.21	683.44
374.40	594.50
374.60	641.31
374.79	645.99
374.99	671.73
375.19	638.97
375.38	664.71
375.58	648.33
375.78	685.78
375.97	664.71
376.17	725.57
376.37	596.84
376.56	688.12
376.76	643.65
376.95	667.05
377.15	671.73
377.35	636.63
377.54	688.12
377.74	763.01
377.93	674.07
378.13	755.99
378.33	816.85
378.52	748.97
378.72	847.27
378.91	758.33
379.11	645.99
379.31	753.65
379.50	798.12
379.70	805.14
379.89	840.25
380.09	795.78
380.28	858.98
380.48	713.86
380.68	840.25
380.87	854.30
381.07	770.04
381.26	844.93
381.46	833.23
381.65	814.51
381.85	844.93
382.04	847.27
382.24	851.96
382.43	896.43
382.63	851.96
382.83	889.40
383.02	896.43
383.22	866.00
383.41	896.43
383.61	903.45
383.80	887.06
384.00	917.49
384.19	908.13
384.39	866.00
384.58	976.00
384.78	866.00
384.97	938.55
385.17	854.30
385.36	908.13
385.56	938.55
385.75	931.53
385.95	973.66
386.14	903.45
386.34	1055.58
386.53	1022.81
386.72	966.64
386.92	1034.52
387.11	990.05
387.31	936.21
387.50	990.05
387.70	976.00
387.89	1095.37
388.09	1041.54
388.28	994.73
388.48	1022.81
388.67	1090.69
388.86	1139.84
389.06	1102.39
389.25	1174.95
389.45	1128.14
389.64	1095.37
389.84	1179.63
390.03	1219.42
390.22	1235.80
390.42	1109.41
390.61	1156.22
390.81	1111.75
391.00	1317.72
391.19	1329.42
391.39	1163.25
391.58	1296.66
391.78	1282.61
391.97	1303.68
392.16	1233.46
392.36	1373.89
392.55	1228.78
392.75	1270.91
392.94	1289.64
393.13	1327.08
393.33	1301.34
393.52	1329.42
393.71	1465.18
393.91	1383.26
394.10	1275.59
394.29	1437.09
394.49	1413.68
394.68	1397.30
394.88	1495.60
395.07	1507.30
395.26	1460.49
395.46	1357.51
395.65	1451.13
395.84	1495.60
396.04	1556.46
396.23	1563.48
396.42	1516.67
396.62	1556.46
396.81	1600.93
397.00	1678.16
397.19	1598.59
397.39	1533.05
397.58	1607.95
397.77	1561.14
397.97	1699.23
398.16	1577.52
398.35	1762.42
398.55	1687.53
398.74	1689.87
398.93	1703.91
399.12	1720.29
399.32	1769.44
399.51	1736.68
399.70	1764.76
399.90	1739.02
400.09	1853.70
400.28	1886.47
400.47	1778.81
400.67	1860.73
400.86	1867.75
401.05	1771.79
401.24	1900.52
401.44	1874.77
401.63	1980.09
401.82	1916.90
402.01	1891.15
402.21	1961.37
402.40	1825.62
402.59	1935.62
402.78	2059.67
402.97	1966.05
403.17	2064.35
403.36	2080.74
403.55	2036.27
403.74	2094.78
403.93	2031.58
404.13	2155.63
404.32	2207.13
404.51	2211.81
404.70	2338.20
404.89	2296.07
405.09	2279.68
405.28	2249.25
405.47	2333.51
405.66	2275.00
405.85	2359.26
406.05	2338.20
406.24	2345.22
406.43	2366.28
406.62	2427.14
406.81	2656.51
407.00	2368.62
407.20	2406.07
407.39	2377.98
407.58	2572.25
407.77	2562.89
407.96	2480.97
408.15	2607.36
408.34	2609.70
408.54	2642.46
408.73	2635.44
408.92	2696.30
409.11	2595.65
409.30	2724.38
409.49	2724.38
409.68	2843.75
409.87	2710.34
410.07	2778.22
410.26	2874.18
410.45	2850.77
410.64	2862.48
410.83	2986.52
411.02	2937.37
411.21	3002.91
411.40	3019.29
411.59	3052.06
411.78	3061.42
411.98	3066.10
412.17	3199.51
412.36	3262.71
412.55	3206.53
412.74	3236.96
412.93	3286.11
413.12	3241.64
413.31	3492.08
413.50	3332.92
413.69	3403.14
413.88	3548.25
414.07	3426.54
414.26	3426.54
414.45	3616.13
414.64	3548.25
414.83	3641.87
415.02	3662.94
415.22	3726.13
415.41	3700.39
415.60	3798.69
415.79	3906.35
415.98	3723.79
416.17	3812.73
416.36	3878.27
416.55	3911.04
416.74	3857.20
416.93	3875.93
417.12	4056.15
417.31	3943.80
417.50	4039.76
417.69	4208.28
417.88	4102.96
418.07	4196.58
418.26	4046.79
418.45	4149.77
418.64	4278.50
418.83	4390.84
419.02	4205.94
419.21	4337.01
419.39	4301.90
419.58	4297.22
419.77	4344.03
419.96	4411.91
420.15	4461.06
420.34	4479.79
420.53	4456.38
420.72	4580.43
420.91	4557.02
421.10	4592.13
421.29	4643.62
421.48	4629.58
421.67	4720.86
421.86	4547.66
422.05	4697.46
422.24	4739.58
422.43	4622.56
422.61	4802.78
422.80	4755.97
422.99	4823.84
423.18	4880.02
423.37	4877.68
423.56	4966.62
423.75	4709.16
423.94	4772.35
424.13	4552.34
424.32	4594.47
424.50	4809.80
424.69	5022.79
424.88	5050.88
425.07	4805.12
425.26	4777.03
425.45	4971.30
425.64	4901.08
425.83	4889.38
426.01	4966.62
426.20	5062.58
426.39	4889.38
426.58	4919.81
426.77	5039.17
426.96	4997.04
427.15	4931.51
427.33	4992.36
427.52	5006.41
427.71	5198.33
427.90	5252.16
428.09	5317.70
428.28	5118.75
428.46	5352.81
428.65	5128.11
428.84	5329.40
429.03	5310.68
429.22	5210.03
429.40	5313.02
429.59	5408.98
429.78	5160.88
429.97	5331.74
430.16	5210.03
430.34	5383.23
430.53	5734.31
430.72	5453.45
430.91	5570.48
431.10	5437.06
431.28	5533.03
431.47	5636.01
431.66	5760.06
431.85	5673.46
432.03	5666.44
432.22	5989.43
432.41	5675.80
432.60	5877.09
432.79	5895.81
432.97	5849.00
433.16	5895.81
433.35	5830.27
433.54	5935.60
433.72	6134.54
433.91	6071.35
434.10	6211.78
434.28	5912.19
434.47	6118.16
434.66	6174.33
434.85	6232.85
435.03	6143.91
435.22	6087.73
435.41	6452.86
435.59	6312.42
435.78	6200.08
435.97	6333.49
436.16	6333.49
436.34	6399.02
436.53	6532.44
436.72	6532.44
436.90	6511.37
437.09	6445.84
437.28	6406.05
437.46	6518.39
437.65	6637.76
437.84	6698.61
438.02	6750.10
438.21	6583.93
438.40	6581.59
438.58	6855.43
438.77	6995.86
438.96	6668.19
439.14	6902.24
439.33	7098.84
439.52	7140.97
439.70	7129.27
439.89	7279.07
440.08	7260.34
440.26	7009.90
440.45	7297.79
440.63	7433.54
440.82	7573.97
441.01	7428.86
441.19	7412.48
441.38	7686.32
441.57	7618.44
441.75	7798.66
441.94	7873.56
442.12	7604.40
442.31	7852.50
442.50	7953.14
442.68	7854.84
442.87	7824.41
443.05	8093.57
443.24	8163.79
443.43	8077.19
443.61	8152.09
443.80	8203.58
443.98	8205.92
444.17	7882.92
444.35	8098.25
444.54	8334.65
444.73	8142.72
444.91	8173.15
445.10	8266.77
445.28	8329.97
445.47	8348.69
445.65	8161.45
445.84	8444.65
446.02	8287.84
446.21	8287.84
446.39	8131.02
446.58	8454.02
446.77	8421.25
446.95	8142.72
447.14	8306.56
447.32	8402.52
447.51	8582.74
447.69	8430.61
447.88	8571.04
448.06	8503.17
448.25	8521.89
448.43	8631.90
448.62	8444.65
448.80	8362.73
448.99	8416.57
449.17	8521.89
449.36	8788.71
449.54	8889.35
449.73	8945.53
449.91	8898.72
450.10	8884.67
450.28	8994.68
450.46	8950.21
450.65	8973.61
450.83	8987.66
451.02	8945.53
451.20	8922.12
451.39	8905.74
451.57	9139.79
451.76	9055.53
451.94	9146.81
452.13	9249.80
452.31	9039.15
452.49	8982.98
452.68	9198.31
452.86	9104.68
453.05	9497.89
453.23	9427.68
453.42	9310.65
453.60	9100.00
453.78	9575.13
453.97	9577.47
454.15	9390.23
454.34	9535.34
454.52	9678.12
454.70	9514.28
454.89	9675.77
455.07	9701.52
455.26	9767.06
455.44	9830.25
455.62	9792.80
455.81	9858.34
455.99	9804.50
456.17	9865.36
456.36	10104.09
456.54	10113.45
456.73	10019.83
456.91	10391.98
457.09	10326.44
457.28	10483.26
457.46	10310.06
457.64	10525.39
457.83	10256.23
458.01	10326.44
458.19	10560.50
458.38	10654.12
458.56	10619.01
458.74	10586.24
458.93	10530.07
459.11	10569.86
459.29	10574.54
459.48	10860.09
459.66	10635.39
459.84	10761.78
460.03	11007.54
460.21	10635.39
460.39	10937.32
460.57	11012.22
460.76	11187.76
460.94	11309.47
461.12	11197.12
461.31	11208.83
461.49	11166.70
461.67	10963.07
461.85	11325.85
462.04	11342.24
462.22	11829.07
462.40	11342.24
462.59	11396.07
462.77	11604.38
462.95	11634.80
463.13	11480.33
463.32	11580.97
463.50	11602.04
463.68	11580.97
463.86	11747.15
464.05	11662.89
464.23	11845.45
464.41	11585.65
464.59	11648.85
464.78	11934.39
464.96	11983.54
465.14	11889.92
465.32	11800.98
465.50	12006.95
465.69	11955.46
465.87	11857.15
466.05	11957.80
466.23	12128.66
466.41	12049.08
466.60	12353.35
466.78	12203.55
466.96	11983.54
467.14	12215.26
467.32	12278.45
467.51	12372.07
467.69	12215.26
467.87	12439.95
468.05	12409.52
468.23	12362.71
468.41	12276.11
468.60	12517.18
468.78	12638.89
468.96	12315.90
469.14	12645.91
469.32	12807.41
469.50	12676.34
469.69	13018.06
469.87	13158.49
470.05	13144.45
470.23	13156.15
470.41	12966.57
470.59	13069.55
470.77	12999.34
470.95	13170.19
471.14	13303.60
471.32	13167.85
471.50	13493.19
471.68	13628.94
471.86	13392.55
472.04	13523.62
472.22	13813.84
472.40	13575.11
472.58	13752.99
472.77	14015.13
472.95	14120.45
473.13	14293.65
473.31	13832.57
473.49	14040.87
473.67	14164.92
473.85	14183.65
474.03	14452.81
474.21	14513.66
474.39	14703.25
474.57	14925.60
474.75	14956.02
474.93	14906.87
475.12	14820.27
475.30	14815.59
475.48	14911.55
475.66	15194.76
475.84	15241.57
476.02	15669.89
476.20	15103.48
476.38	15513.07
476.56	15840.75
476.74	15791.59
476.92	15487.32
477.10	16046.71
477.28	15803.30
477.46	16271.40
477.64	16327.58
477.82	16563.97
478.00	16987.61
478.18	16601.42
478.36	16816.75
478.54	17001.65
478.72	17165.49
478.90	17130.38
479.08	17352.73
479.26	17467.42
479.44	17778.71
479.62	17448.69
479.80	17521.25
479.98	18120.43
480.16	18010.42
480.34	18094.68
480.52	18656.41
480.70	18593.22
480.88	18405.97
481.06	18747.69
481.24	18354.48
481.41	19082.39
481.59	19159.63
481.77	19374.95
481.95	19405.38
482.13	19484.96
482.31	19482.62
482.49	20023.28
482.67	20210.53
482.85	20102.86
483.03	20580.33
483.21	20769.91
483.39	20989.92
483.57	20769.91
483.74	21207.59
483.92	21205.25
484.10	21039.08
484.28	21589.10
484.46	22113.38
484.64	22249.13
484.82	22127.42
485.00	22335.73
485.18	22581.49
485.35	23122.15
485.53	22698.52
485.71	22937.25
485.89	23545.79
486.07	23236.84
486.25	23604.30
486.43	23892.19
486.61	23733.03
486.78	23749.42
486.96	24067.73
487.14	24470.30
487.32	24797.98
487.50	24898.62
487.68	24893.94
487.85	25170.12
488.03	25844.20
488.21	25748.23
488.39	25738.87
488.57	26052.50
488.75	26457.42
488.92	26850.63
489.10	26434.01
489.28	26661.04
489.46	27026.17
489.64	26848.29
489.81	27445.12
489.99	27538.74
490.17	27906.21
490.35	28133.24
490.53	28158.99
490.70	28379.00
490.88	28531.13
491.06	29017.96
491.24	28472.62
491.41	28975.83
491.59	29085.84
491.77	29359.68
491.95	29916.73
492.13	30206.95
492.30	29853.53
492.48	29879.28
492.66	30162.48
492.84	30038.44
493.01	30576.76
493.19	30670.38
493.37	30508.88
493.54	31335.09
493.72	31255.51
493.90	31536.38
494.08	31854.69
494.25	32163.64
494.43	32500.68
494.61	32458.55
494.79	32685.58
494.96	32587.28
495.14	32863.46
495.32	33310.50
495.49	33298.80
495.67	33085.81
495.85	33495.41
496.02	34139.05
496.20	34024.37
496.38	33853.51
496.55	34391.83
496.73	34876.32
496.91	34965.26
497.09	34738.23
497.26	35051.86
497.44	34998.03
497.62	35440.39
497.79	35772.75
497.97	35613.59
498.14	35538.69
498.32	35857.01
498.50	36357.88
498.67	36297.03
498.85	36863.44
499.03	36957.06
499.20	36898.55
499.38	36652.79
499.56	37148.98
499.73	37251.97
499.91	37743.48
500.08	37275.37
500.26	37371.33
500.44	37469.64
500.61	37921.36
500.79	38216.27
500.97	38377.76
501.14	38550.96
501.32	38759.27
501.49	38391.81
501.67	38679.69
501.84	39096.31
502.02	38841.19
502.20	39283.55
502.37	39276.53
502.55	39442.71
502.72	39667.40
502.90	39524.63
503.07	39414.62
503.25	39658.04
503.43	39922.52
503.60	40339.13
503.78	40392.97
503.95	40313.39
504.13	40367.22
504.30	40362.54
504.48	40210.40
504.65	40835.33
504.83	41191.09
505.01	41397.06
505.18	41385.35
505.36	41890.91
505.53	41478.97
505.71	41319.82
505.88	41621.75
506.06	41357.27
506.23	42153.05
506.41	42038.36
506.58	42265.39
506.76	42096.88
506.93	42857.55
507.11	42302.84
507.28	42616.47
507.46	42789.67
507.63	42883.30
507.81	43248.42
507.98	42845.85
508.16	43159.48
508.33	43599.50
508.50	43311.61
508.68	43807.81
508.85	44364.85
509.03	44460.82
509.20	44289.96
509.38	44205.70
509.55	44699.55
509.73	44512.31
509.90	44610.61
510.08	44442.09
510.25	44896.16
510.42	44931.26
510.60	44926.58
510.77	45287.03
510.95	45242.56
511.12	44893.82
511.30	45172.34
511.47	45584.27
511.64	45865.14
511.82	46131.96
511.99	45567.89
512.17	45731.73
512.34	45933.01
512.51	46265.37
512.69	46206.86
512.86	46478.36
513.04	46937.10
513.21	47349.04
513.38	46894.97
513.56	47175.84
513.73	46829.44
513.90	47358.40
514.08	47210.95
514.25	47349.04
514.43	47735.23
514.60	47405.21
514.77	47728.20
514.95	47660.33
515.12	47377.12
515.29	47618.20
515.47	47805.44
515.64	47859.27
515.81	47826.51
515.99	48402.28
516.16	48456.11
516.33	48474.84
516.51	48641.01
516.68	48507.60
516.85	48451.43
517.03	48797.83
517.20	48720.59
517.37	49043.59
517.54	48879.75
517.72	48966.35
517.89	49071.67
518.06	49209.76
518.24	49275.30
518.41	49137.21
518.58	49064.65
518.75	49345.51
518.93	49975.12
519.10	49495.31
519.27	49797.24
519.45	49818.30
519.62	49925.97
519.79	49640.42
519.96	49794.90
520.14	50153.00
520.31	50012.57
520.48	50555.57
520.65	50394.07
520.83	50443.23
521.00	50506.42
521.17	50618.77
521.34	50487.70
521.52	50522.80
521.69	50803.67
521.86	50810.69
522.03	51072.83
522.20	50953.46
522.38	51363.06
522.55	51379.44
522.72	51239.01
522.89	51480.08
523.07	51962.23
523.24	51842.87
523.41	51892.02
523.58	51498.81
523.75	51613.49
523.92	51608.81
524.10	51866.27
524.27	52109.69
524.44	51990.32
524.61	52463.11
524.78	52280.55
524.96	52275.87
525.13	52207.99
525.30	52186.92
525.47	52357.78
525.64	52493.54
525.81	52570.77
525.98	52931.22
526.16	52694.82
526.33	52575.45
526.50	52978.03
526.67	52360.12
526.84	52655.03
527.01	52734.61
527.18	53202.72
527.36	53193.36
527.53	53123.14
527.70	53581.88
527.87	53350.17
528.04	53141.86
528.21	53244.85
528.38	53216.76
528.55	53361.87
528.72	53656.78
528.89	53918.92
529.07	53624.01
529.24	53628.69
529.41	53977.43
529.58	53457.84
529.75	53530.39
529.92	53731.68
530.09	53947.01
530.26	53741.04
530.43	54087.44
530.60	53565.50
530.77	53834.66
530.94	54014.88
531.11	53986.80
531.28	53963.39
531.46	54026.59
531.63	54518.10
531.80	54525.12
531.97	54248.94
532.14	54571.93
532.31	54515.76
532.48	54358.94
532.65	54424.48
532.82	54356.60
532.99	54625.76
533.16	54536.82
533.33	54883.22
533.50	54855.14
533.67	54941.74
533.84	54798.96
534.01	54787.26
534.18	54897.27
534.35	55089.19
534.52	54784.92
534.69	55276.43
534.86	55281.11
535.03	55295.16
535.20	55089.19
535.37	55243.66
535.54	55199.19
535.71	54852.80
535.88	55304.52
536.05	55433.25
536.22	55344.31
536.38	55618.15
536.55	55398.14
536.72	55648.58
536.89	55451.97
537.06	55800.71
537.23	55756.24
537.40	55224.94
537.57	55533.89
537.74	55648.58
537.91	55810.07
538.08	55863.91
538.25	55894.33
538.42	55739.86
538.59	56065.19
538.75	55805.39
538.92	55819.44
539.09	56072.21
539.26	56083.92
539.43	56123.71
539.60	56250.09
539.77	56472.45
539.94	56341.38
540.11	56278.18
540.28	56090.94
540.44	56200.94
540.61	56076.90
540.78	56472.45
540.95	56259.46
541.12	56603.52
541.29	56369.46
541.46	56236.05
541.62	56514.58
541.79	56479.47
541.96	56224.35
542.13	56495.85
542.30	56633.94
542.47	56629.26
542.63	56907.79
542.80	56776.72
542.97	57153.54
543.14	57137.16
543.31	57095.03
543.48	57174.61
543.64	57062.26
543.81	57284.61
543.98	57268.23
544.15	57237.80
544.32	57319.72
544.48	57638.03
544.65	57303.34
544.82	57106.73
544.99	57242.48
545.16	57247.16
545.32	57371.21
545.49	57616.97
545.66	57778.46
545.83	57684.84
546.00	57553.77
546.16	57670.80
546.33	57090.35
546.50	57347.81
546.67	57434.41
546.83	57312.70
547.00	57406.32
547.17	57661.44
547.34	57832.30
547.50	57558.45
547.67	57855.70
547.84	57951.66
548.00	57869.75
548.17	58012.52
548.34	57839.32
548.51	57991.45
548.67	58085.07
548.84	57897.83
549.01	57972.73
549.18	57911.88
549.34	57790.17
549.51	57904.85
549.68	57832.30
549.84	57925.92
550.01	58337.85
550.18	58092.10
550.34	58328.49
550.51	58309.77
550.68	58082.73
550.84	58211.46
551.01	58054.65
551.18	58314.45
551.34	58066.35
551.51	58265.30
551.68	58363.60
551.84	58475.94
552.01	58356.58
552.18	58621.06
552.34	58621.06
552.51	58691.27
552.68	58398.71
552.84	58265.30
553.01	58719.36
553.18	58534.46
553.34	58567.23
553.51	58539.14
553.67	58841.07
553.84	59058.74
554.01	58972.14
554.17	58836.39
554.34	58780.21
554.51	58897.24
554.67	59063.42
554.84	58904.26
555.00	58897.24
555.17	58925.33
555.33	58824.68
555.50	58958.09
555.67	58932.35
555.83	58932.35
556.00	58965.12
556.16	59189.81
556.33	58691.27
556.50	59131.29
556.66	59124.27
556.83	59044.69
556.99	59133.63
557.16	59194.49
557.32	59224.92
557.49	58955.75
557.65	59025.97
557.82	59318.54
557.98	59231.94
558.15	59229.60
558.32	59402.80
558.48	59189.81
558.65	59180.45
558.81	59318.54
558.98	59475.35
559.14	59412.16
559.31	59313.86
559.47	59107.89
559.64	59463.65
559.80	59407.48
559.97	59498.76
560.13	59313.86
560.30	59440.24
560.46	59568.97
560.63	59664.94
560.79	59725.79
560.96	59615.79
561.12	59395.77
561.29	59451.95
561.45	59660.26
561.61	59721.11
561.78	59667.28
561.94	59636.85
562.11	59676.64
562.27	59480.03
562.44	59615.79
562.60	59540.89
562.77	59835.80
562.93	59653.23
563.10	59805.37
563.26	59557.27
563.42	59945.80
563.59	59898.99
563.75	59531.53
563.92	59831.11
564.08	59742.17
564.24	59788.98
564.41	59643.87
564.57	59774.94
564.74	59863.88
564.90	59934.10
565.07	59924.74
565.23	60062.83
565.39	60053.47
565.56	60067.51
565.72	59835.80
565.88	59927.08
566.05	59870.90
566.21	59735.15
566.38	59821.75
566.54	59903.67
566.70	59880.27
566.87	60032.40
567.03	60027.72
567.19	60271.14
567.36	59952.82
567.52	59891.97
567.68	60135.38
567.85	60016.02
568.01	60102.62
568.17	59997.29
568.34	60184.54
568.50	60196.24
568.66	60074.53
568.83	60006.65
568.99	59868.56
569.15	59828.77
569.32	60048.78
569.48	60001.97
569.64	60147.09
569.81	60156.45
569.97	60161.13
570.13	60259.43
570.30	60126.02
570.46	59973.89
570.62	60210.28
570.78	60200.92
570.95	60069.85
571.11	60275.82
571.27	59880.27
571.43	60224.32
571.60	60285.18
571.76	60097.94
571.92	60271.14
572.09	60280.50
572.25	60413.91
572.41	60350.71
572.57	60259.43
572.74	60729.88
572.90	60205.60
573.06	60324.97
573.22	60282.84
573.38	60481.78
573.55	60278.16
573.71	60367.10
573.87	60505.19
574.03	60378.80
574.20	60411.57
574.36	60413.91
574.52	60266.45
574.68	60285.18
574.84	60378.80
575.01	60537.96
575.17	60575.40
575.33	60453.70
575.49	60268.79
575.65	60493.49
575.82	60589.45
575.98	60423.27
576.14	60437.31
576.30	60416.25
576.46	60364.76
576.62	60423.27
576.79	60481.78
576.95	60224.32
577.11	60329.65
577.27	60484.12
577.43	60622.22
577.59	60465.40
577.75	60322.63
577.92	60271.14
578.08	60402.21
578.24	60549.66
578.40	60432.63
578.56	60444.33
578.72	60362.42
578.88	60505.19
579.04	60519.23
579.21	60402.21
579.37	60463.06
579.53	60470.08
579.69	60292.20
579.85	60495.83
580.01	60444.33
580.17	60514.55
580.33	60537.96
580.49	60662.00
580.65	60786.05
580.82	60769.67
580.98	60647.96
581.14	60388.16
581.30	60760.31
581.46	60523.91
581.62	60540.30
581.78	60439.65
581.94	60626.90
582.10	60458.38
582.26	60392.84
582.42	60563.70
582.58	60683.07
582.74	60659.66
582.90	60701.79
583.06	60811.80
583.22	60453.70
583.38	60594.13
583.54	60514.55
583.70	60479.44
583.86	60605.83
584.02	60570.72
584.18	60596.47
584.34	60692.43
584.50	60858.61
584.66	60587.11
584.82	60561.36
584.98	60617.53
585.14	60566.04
585.30	60416.25
585.46	60748.60
585.62	60720.52
585.78	60917.12
585.94	60460.72
586.10	60804.78
586.26	60640.94
586.42	60985.00
586.58	60685.41
586.74	60540.30
586.90	60491.15
587.06	60603.49
587.22	60715.84
587.38	60734.56
587.54	60577.75
587.70	60800.10
587.86	60837.54
588.02	60683.07
588.18	60823.50
588.34	60603.49
588.49	60779.03
588.65	60669.03
588.81	60701.79
588.97	60786.05
589.13	60704.13
589.29	60743.92
589.45	61045.85
589.61	60961.59
589.77	60985.00
589.93	60903.08
590.08	60980.32
590.24	60872.65
590.40	60743.92
590.56	61050.53
590.72	60699.45
590.88	60781.37
591.04	60975.64
591.20	61291.61
591.35	61031.81
591.51	61326.72
591.67	61015.43
591.83	61155.86
591.99	60928.83
592.15	61176.92
592.31	61038.83
592.46	61052.87
592.62	60830.52
592.78	61057.56
592.94	61155.86
593.10	61022.45
593.26	61209.69
593.41	61230.75
593.57	61120.75
593.73	60973.30
593.89	61174.58
594.05	60989.68
594.20	60994.36
594.36	61102.03
594.52	60987.34
594.68	60860.95
594.84	61144.16
594.99	61219.05
595.15	60968.61
595.31	61167.56
595.47	61200.33
595.62	61282.25
595.78	60912.44
595.94	61293.95
596.10	60973.30
596.25	60893.72
596.41	60935.85
596.57	60959.25
596.73	61041.17
596.88	61006.06
597.04	61183.94
597.20	61399.27
597.36	61212.03
597.51	61120.75
597.67	60963.93
597.83	61106.71
597.99	61120.75
598.14	61031.81
598.30	61120.75
598.46	60987.34
598.61	61226.07
598.77	60963.93
598.93	61410.98
599.09	61139.47
599.24	61469.49
599.40	61303.31
599.56	61209.69
599.71	61169.90
599.87	61162.88
600.03	61235.44
600.18	61172.24
600.34	61141.81
600.50	61221.39
600.65	61144.16
600.81	61354.80
600.97	61244.80
601.12	61209.69
601.28	61282.25
601.44	61172.24
601.59	61048.19
601.75	61052.87
601.91	61558.43
602.06	60949.89
602.22	61186.28
602.37	60966.27
602.53	61069.26
602.69	61141.81
602.84	61127.77
603.00	61263.52
603.16	61350.12
603.31	61436.72
603.47	61165.22
603.62	61015.43
603.78	61312.67
603.94	61226.07
604.09	61403.95
604.25	61043.51
604.40	60893.72
604.56	61247.14
604.71	61471.83
604.87	61298.63
605.03	61261.18
605.18	61319.70
605.34	61169.90
605.49	61050.53
605.65	61155.86
605.80	61087.98
605.96	61186.28
606.12	61359.48
606.27	61345.44
606.43	61300.97
606.58	61263.52
606.74	61312.67
606.89	61155.86
607.05	61275.22
607.20	61249.48
607.36	61195.65
607.51	61214.37
607.67	60832.86
607.82	61207.35
607.98	61055.21
608.13	61055.21
608.29	60949.89
608.44	61057.56
608.60	61207.35
608.75	61207.35
608.91	61123.09
609.06	60877.33
609.22	60914.78
609.37	60807.12
609.53	61071.60
609.68	60977.98
609.84	60835.20
609.99	61118.41
610.15	60945.21
610.30	61223.73
610.46	61052.87
610.61	61118.41
610.76	61162.88
610.92	61015.43
611.07	60809.46
611.23	60893.72
611.38	60839.89
611.54	60921.80
611.69	60865.63
611.84	60720.52
612.00	60933.51
612.15	60905.42
612.31	61050.53
612.46	60797.76
612.62	61059.90
612.77	60999.04
612.92	61048.19
613.08	60711.16
613.23	60910.10
613.39	60776.69
613.54	60933.51
613.69	60743.92
613.85	60683.07
614.00	60870.31
614.15	60743.92
614.31	60811.80
614.46	61034.15
614.62	60788.39
614.77	60954.57
614.92	61003.72
615.08	60860.95
615.23	60704.13
615.38	60657.32
615.54	60411.57
615.69	60699.45
615.84	60816.48
616.00	60750.94
616.15	60519.23
616.30	60523.91
616.46	60615.19
616.61	60793.07
616.76	60786.05
616.92	60432.63
617.07	60708.82
617.22	60451.36
617.37	60601.15
617.53	60575.40
617.68	60603.49
617.83	60556.68
617.99	60505.19
618.14	60636.26
618.29	60596.47
618.45	60526.25
618.60	60474.76
618.75	60526.25
618.90	60406.89
619.06	60568.38
619.21	60245.39
619.36	60346.03
619.51	60652.64
619.67	60418.59
619.82	60149.43
619.97	60376.46
620.12	60371.78
620.28	60324.97
620.43	60556.68
620.58	60643.28
620.73	60526.25
620.89	60465.40
621.04	60404.55
621.19	60432.63
621.34	60425.61
621.49	60219.64
621.65	60226.66
621.80	60310.92
621.95	60151.77
622.10	60416.25
622.25	60289.86
622.41	60343.69
622.56	60315.61
622.71	60154.11
622.86	60097.94
623.01	60355.39
623.16	60184.54
623.32	60097.94
623.47	59781.96
623.62	59971.55
623.77	59994.95
623.92	60196.24
624.07	59936.44
624.23	60296.88
624.38	60303.90
624.53	60114.32
624.68	60193.90
624.83	60184.54
624.98	60275.82
625.13	59884.95
625.29	60170.49
625.44	59973.89
625.59	59835.80
625.74	59868.56
625.89	59880.27
626.04	59798.35
626.19	59838.14
626.34	59859.20
626.49	59716.43
626.65	59847.50
626.80	60053.47
626.95	59749.20
627.10	59817.07
627.25	59767.92
627.40	59774.94
627.55	59653.23
627.70	59508.12
627.85	59559.61
628.00	59632.17
628.15	59522.16
628.30	59444.93
628.45	59723.45
628.60	59576.00
628.76	59664.94
628.91	59650.89
629.06	59489.40
629.21	59381.73
629.36	59571.32
629.51	59475.35
629.66	59702.38
629.81	59442.59
629.96	59571.32
630.11	59522.16
630.26	59515.14
630.41	59402.80
630.56	59037.67
630.71	59501.10
630.86	59395.77
631.01	59381.73
631.16	59437.90
631.31	59166.40
631.46	59271.73
631.61	59332.58
631.76	59253.00
631.91	59079.80
632.06	59143.00
632.21	59093.85
632.36	59386.41
632.51	59112.57
632.66	59231.94
632.81	59040.01
632.96	59145.34
633.10	59126.61
633.25	58965.12
633.40	59231.94
633.55	59461.31
633.70	59201.51
633.85	59021.29
634.00	59000.22
634.15	59068.10
634.30	59058.74
634.45	59206.19
634.60	59037.67
634.75	59128.95
634.90	59030.65
635.05	59159.38
635.19	59105.55
635.34	59278.75
635.49	59185.13
635.64	59089.16
635.79	58791.92
635.94	58768.51
636.09	58578.93
636.24	58796.60
636.39	58361.26
636.53	58878.52
636.68	58726.38
636.83	58714.68
636.98	58932.35
637.13	58724.04
637.28	58836.39
637.43	58831.71
637.57	58927.67
637.72	58464.24
637.87	58611.70
638.02	58567.23
638.17	58747.45
638.32	58691.27
638.46	58398.71
638.61	58667.87
638.76	58258.27
638.91	58539.14
639.06	58553.18
639.20	58836.39
639.35	58614.04
639.50	58578.93
639.65	58625.74
639.80	58525.10
639.94	58590.63
640.09	58471.26
640.24	58365.94
640.39	58592.97
640.54	58157.63
640.68	58108.48
640.83	58431.47
640.98	58265.30
641.13	57996.13
641.27	58314.45
641.42	58213.80
641.57	58159.97
641.72	58232.53
641.86	58330.83
642.01	57876.77
642.16	58262.96
642.31	57815.91
642.45	58169.33
642.60	58073.37
642.75	57858.04
642.90	58042.95
643.04	58096.78
643.19	57986.77
643.34	57888.47
643.48	58087.42
643.63	58204.44
643.78	58021.88
643.93	58164.65
644.07	58042.95
644.22	57862.72
644.37	57860.38
644.51	57895.49
644.66	57907.19
644.81	57956.35
644.95	57982.09
645.10	57930.60
645.25	57844.00
645.39	57989.11
645.54	57862.72
645.69	57975.07
645.83	58110.82
645.98	57785.49
646.13	57958.69
646.27	57982.09
646.42	57961.03
646.57	57738.68
646.71	57600.58
646.86	57872.09
647.00	57708.25
647.15	57537.39
647.30	57336.10
647.44	57673.14
647.59	57483.56
647.74	57715.27
647.88	57738.68
648.03	57663.78
648.17	57710.59
648.32	57806.55
648.47	57619.31
648.61	57528.03
648.76	57783.15
648.90	57623.99
649.05	57319.72
649.20	57371.21
649.34	57467.17
649.49	57279.93
649.63	57408.66
649.78	57415.68
649.92	57359.51
650.07	57471.85
650.21	57546.75
650.36	57418.02
650.51	57324.40
650.65	57488.24
650.80	57682.50
650.94	57392.28
651.09	57205.03
651.23	57118.43
651.38	57462.49
651.52	57212.06
651.67	57420.36
651.81	57179.29
651.96	57212.06
652.10	56961.62
652.25	57209.71
652.39	57169.93
652.54	57237.80
652.68	56940.55
652.83	57123.11
652.97	57106.73
653.12	57153.54
653.26	56949.92
653.41	56954.60
653.55	56842.25
653.70	56683.09
653.84	56802.46
653.99	56891.40
654.13	56650.33
654.27	56694.80
654.42	56603.52
654.56	56938.21
654.71	57118.43
654.85	57137.16
655.00	57073.96
655.14	56942.89
655.29	57104.39
655.43	56942.89
655.57	56591.81
655.72	56610.54
655.86	56615.22
656.01	56423.29
656.15	56381.16
656.30	56397.55
656.44	56575.43
656.58	56664.37
656.73	56444.36
656.87	56549.68
657.01	56725.22
657.16	56868.00
657.30	56580.11
657.45	56662.03
657.59	56893.74
657.73	56610.54
657.88	56547.34
658.02	56582.45
658.16	56547.34
658.31	56367.12
658.45	56261.80
658.60	56196.26
658.74	56369.46
658.88	56299.25
659.03	56016.04
659.17	56095.62
659.31	56046.47
659.46	56357.76
659.60	56142.43
659.74	56128.39
659.89	55896.67
660.03	56357.76
660.17	55976.25
660.32	55899.01
660.46	56112.00
660.60	55524.53
660.74	55636.87
660.89	55983.27
661.03	55767.94
661.17	55828.80
661.32	55660.28
661.46	55987.95
661.60	55831.14
661.74	55524.53
661.89	55873.27
662.03	55608.79
662.17	55400.48
662.31	55536.23
662.46	55578.36
662.60	55608.79
662.74	55171.11
662.88	55363.03
663.03	55150.04
663.17	55346.65
663.31	55098.55
663.45	54946.42
663.60	54960.46
663.74	55084.51
663.88	55363.03
664.02	54932.37
664.17	55377.08
664.31	55121.96
664.45	54960.46
664.59	55007.27
664.73	54878.54
664.88	55051.74
665.02	54461.93
665.16	54529.80
665.30	54803.64
665.44	54756.83
665.59	54506.40
665.73	54436.18
665.87	54363.62
666.01	54422.14
666.15	54621.08
666.29	54841.09
666.44	54714.70
666.58	54347.24
666.72	54274.68
666.86	54321.49
667.00	54555.55
667.14	54101.48
667.28	54152.97
667.43	54152.97
667.57	54410.43
667.71	53986.80
667.85	53911.90
667.99	53937.65
668.13	53848.71
668.27	53614.65
668.41	53916.58
668.56	53581.88
668.70	53944.67
668.84	53968.07
668.98	53766.79
669.12	53626.35
669.26	53778.49
669.40	53315.06
669.54	53638.06
669.68	53474.22
669.82	53333.79
669.96	53221.44
670.10	53120.80
670.25	53265.91
670.39	53102.07
670.53	53057.60
670.67	52715.89
670.81	52971.00
670.95	53109.10
671.09	52987.39
671.23	52804.83
671.37	53160.59
671.51	53127.82
671.65	52933.56
671.79	52846.96
671.93	52722.91
672.07	52640.99
672.21	52198.63
672.35	52493.54
672.49	51845.21
672.63	52191.61
672.77	52404.59
672.91	52154.16
673.05	52154.16
673.19	52158.84
673.33	52378.85
673.47	52259.48
673.61	52076.92
673.75	51901.38
673.89	51868.61
674.03	52083.94
674.17	51812.44
674.31	51702.43
674.45	51023.68
674.59	51496.47
674.73	51222.62
674.87	51231.99
675.01	50829.41
675.15	51213.26
675.29	50932.40
675.43	50934.74
675.56	50937.08
675.70	50885.59
675.84	51302.20
675.98	49895.54
676.12	51056.45
676.26	50890.27
676.40	50543.87
676.54	50115.55
676.68	50042.99
676.82	49680.21
676.96	49989.16
677.10	50244.28
677.23	49549.14
677.37	49249.55
677.51	49710.64
677.65	49378.28
677.79	48938.26
677.93	49085.72
678.07	49373.60
678.21	49277.64
678.34	49139.55
678.48	48722.93
678.62	48933.58
678.76	49078.69
678.90	48638.67
679.04	48577.82
679.18	48048.86
679.31	47753.95
679.45	48002.05
679.59	47878.00
679.73	47744.59
679.87	47620.54
680.00	47445.00
680.14	47695.44
680.28	47330.31
680.42	47393.51
680.56	47241.37
680.70	46906.68
680.83	46955.83
680.97	47262.44
681.11	46719.43
681.25	46632.83
681.39	46803.69
681.52	46417.50
681.66	45876.84
681.80	45874.50
681.94	45380.65
682.07	45670.87
682.21	45705.98
682.35	45471.93
682.49	45818.33
682.62	45345.54
682.76	45598.32
682.90	45296.39
683.04	45338.52
683.17	45167.66
683.31	45387.67
683.45	45177.02
683.59	45184.04
683.72	44917.22
683.86	44734.66
684.00	44339.11
684.13	44201.02
684.27	43697.80
684.41	43798.44
684.55	43665.03
684.68	43442.68
684.82	43283.53
684.96	43215.65
685.09	42890.32
685.23	43033.09
685.37	42705.41
685.50	42913.72
685.64	42836.48
685.78	42878.61
685.91	42962.87
686.05	43107.99
686.19	42490.09
686.32	42859.89
686.46	41790.27
686.60	41832.39
686.73	41483.66
686.87	41478.97
687.01	41551.53
687.14	41535.15
687.28	41265.99
687.42	41497.70
687.55	41088.10
687.69	41179.39
687.82	40828.30
687.96	40371.90
688.10	40451.48
688.23	40570.85
688.37	40521.69
688.50	40804.90
688.64	40006.78
688.78	39950.60
688.91	39311.64
689.05	39852.30
689.18	39313.98
689.32	38345.00
689.46	38719.48
689.59	39044.82
689.73	38569.69
689.86	38780.34
690.00	38518.20
690.13	38972.26
690.27	38410.53
690.41	38438.62
690.54	38178.82
690.68	38225.63
690.81	38735.87
690.95	38237.33
691.08	38223.29
691.22	37572.62
691.35	37626.45
691.49	37486.02
691.62	37102.17
691.76	36842.37
691.89	36657.47
692.03	36198.73
692.16	36355.54
692.30	36212.77
692.43	36236.17
692.57	35866.37
692.70	35686.15
692.84	36156.60
692.97	35440.39
693.11	35683.81
693.24	35735.30
693.38	35536.35
693.51	35552.74
693.65	35723.60
693.78	35428.69
693.92	35503.59
694.05	34951.22
694.19	35122.08
694.32	34326.30
694.45	34363.75
694.59	34422.26
694.72	34300.55
694.86	34368.43
694.99	33626.48
695.13	33853.51
695.26	33914.36
695.39	33418.17
695.53	33757.55
695.66	33771.59
695.80	33413.49
695.93	33088.15
696.07	33034.32
696.20	33097.52
696.33	32776.86
696.47	32648.13
696.60	33017.94
696.73	32446.85
696.87	32175.34
697.00	31686.17
697.14	31931.93
697.27	31449.78
697.40	31814.90
697.54	31166.57
697.67	30892.73
697.80	31187.64
697.94	31047.21
698.07	31227.43
698.21	30944.22
698.34	30958.27
698.47	31154.87
698.61	30700.81
698.74	30749.96
698.87	30536.97
699.01	29975.24
699.14	30000.99
699.27	29551.60
699.40	29745.87
699.54	29584.37
699.67	29216.91
699.80	29673.31
699.94	29338.62
700.07	29069.45
700.20	28535.81
700.34	28781.57
700.47	28727.74
700.60	28545.17
700.73	28720.71
700.87	28245.58
701.00	28397.72
701.13	28325.16
701.26	28023.23
701.40	28376.66
701.53	28308.78
701.66	27775.14
701.79	27522.36
701.93	26955.95
702.06	27117.45
702.19	27126.81
702.32	27583.21
702.46	26977.01
702.59	26600.19
702.72	26438.69
702.85	26761.69
702.99	26417.63
703.12	26415.29
703.25	26476.14
703.38	26441.03
703.51	26508.91
703.65	25968.24
703.78	25975.27
703.91	25668.66
704.04	26054.84
704.17	25790.36
704.31	25663.97
704.44	25326.94
704.57	25701.42
704.70	25252.04
704.83	25006.28
704.96	24776.91
705.10	24142.63
705.23	24533.50
>>>>>End Processed Spectral Data<<<<<
