SpectraSuite Data File
++++++++++++++++++++++++++++++++++++
Date: Fri Oct 04 11:47:22 GMT-05:00 2013
User: price-jones
Dark Spectrum Present: No
Reference Spectrum Present: No
Number of Sampled Component Spectra: 1
Spectrometers: USB2+H05261
Integration Time (usec): 100000 (USB2+H05261)
Spectra Averaged: 1 (USB2+H05261)
Boxcar Smoothing: 0 (USB2+H05261)
Correct for Electrical Dark: No (USB2+H05261)
Strobe/Lamp Enabled: No (USB2+H05261)
Correct for Detector Non-linearity: No (USB2+H05261)
Correct for Stray Light: No (USB2+H05261)
Number of Pixels in Processed Spectrum: 2048
>>>>>Begin Processed Spectral Data<<<<<
365.73	0.00
365.92	0.00
366.12	0.00
366.32	0.00
366.52	0.00
366.72	0.00
366.91	0.00
367.11	0.00
367.31	0.00
367.51	0.00
367.70	0.00
367.90	0.00
368.10	0.00
368.30	0.00
368.49	0.00
368.69	0.00
368.89	0.00
369.09	0.00
369.28	0.00
369.48	0.00
369.68	0.00
369.87	0.00
370.07	0.00
370.27	0.00
370.47	25.75
370.66	2.34
370.86	18.72
371.06	51.49
371.25	105.32
371.45	30.43
371.65	100.64
371.84	44.47
372.04	58.51
372.24	25.75
372.44	49.15
372.63	60.85
372.83	88.94
373.03	166.18
373.22	70.22
373.42	93.62
373.62	70.22
373.81	128.73
374.01	154.48
374.21	88.94
374.40	74.90
374.60	124.05
374.79	98.30
374.99	119.37
375.19	110.01
375.38	70.22
375.58	131.07
375.78	126.39
375.97	114.69
376.17	84.26
376.37	46.81
376.56	74.90
376.76	84.26
376.95	44.47
377.15	124.05
377.35	147.45
377.54	131.07
377.74	117.03
377.93	93.62
378.13	128.73
378.33	98.30
378.52	105.32
378.72	102.98
378.91	74.90
379.11	95.96
379.31	93.62
379.50	112.35
379.70	133.41
379.89	140.43
380.09	117.03
380.28	86.60
380.48	46.81
380.68	28.09
380.87	138.09
381.07	70.22
381.26	149.79
381.46	147.45
381.65	107.66
381.85	0.00
382.04	58.51
382.24	91.28
382.43	100.64
382.63	88.94
382.83	46.81
383.02	149.79
383.22	131.07
383.41	32.77
383.61	49.15
383.80	114.69
384.00	91.28
384.19	114.69
384.39	53.83
384.58	60.85
384.78	102.98
384.97	88.94
385.17	140.43
385.36	56.17
385.56	98.30
385.75	79.58
385.95	65.54
386.14	119.37
386.34	49.15
386.53	126.39
386.72	9.36
386.92	49.15
387.11	60.85
387.31	124.05
387.50	67.88
387.70	32.77
387.89	77.24
388.09	156.82
388.28	140.43
388.48	121.71
388.67	135.75
388.86	168.52
389.06	93.62
389.25	124.05
389.45	110.01
389.64	170.86
389.84	159.16
390.03	114.69
390.22	145.11
390.42	56.17
390.61	72.56
390.81	128.73
391.00	49.15
391.19	119.37
391.39	91.28
391.58	112.35
391.78	159.16
391.97	135.75
392.16	147.45
392.36	138.09
392.55	159.16
392.75	107.66
392.94	56.17
393.13	121.71
393.33	86.60
393.52	145.11
393.71	124.05
393.91	91.28
394.10	65.54
394.29	114.69
394.49	138.09
394.68	105.32
394.88	117.03
395.07	107.66
395.26	102.98
395.46	189.58
395.65	156.82
395.84	88.94
396.04	163.84
396.23	91.28
396.42	65.54
396.62	105.32
396.81	177.88
397.00	119.37
397.19	121.71
397.39	86.60
397.58	121.71
397.77	145.11
397.97	114.69
398.16	39.79
398.35	102.98
398.55	63.19
398.74	128.73
398.93	119.37
399.12	102.98
399.32	105.32
399.51	95.96
399.70	135.75
399.90	107.66
400.09	110.01
400.28	133.41
400.47	53.83
400.67	168.52
400.86	95.96
401.05	168.52
401.24	180.22
401.44	114.69
401.63	147.45
401.82	175.54
402.01	126.39
402.21	238.73
402.40	126.39
402.59	112.35
402.78	131.07
402.97	95.96
403.17	138.09
403.36	147.45
403.55	93.62
403.74	135.75
403.93	131.07
404.13	154.48
404.32	98.30
404.51	140.43
404.70	182.56
404.89	112.35
405.09	205.97
405.28	196.60
405.47	110.01
405.66	159.16
405.85	187.24
406.05	166.18
406.24	147.45
406.43	86.60
406.62	138.09
406.81	138.09
407.00	191.92
407.20	156.82
407.39	79.58
407.58	95.96
407.77	159.16
407.96	100.64
408.15	88.94
408.34	140.43
408.54	154.48
408.73	210.65
408.92	168.52
409.11	196.60
409.30	147.45
409.49	210.65
409.68	177.88
409.87	138.09
410.07	131.07
410.26	142.77
410.45	135.75
410.64	124.05
410.83	88.94
411.02	117.03
411.21	156.82
411.40	131.07
411.59	168.52
411.78	126.39
411.98	79.58
412.17	138.09
412.36	135.75
412.55	152.13
412.74	236.39
412.93	194.26
413.12	110.01
413.31	238.73
413.50	255.12
413.69	166.18
413.88	184.90
414.07	222.35
414.26	189.58
414.45	86.60
414.64	168.52
414.83	126.39
415.02	133.41
415.22	65.54
415.41	220.01
415.60	163.84
415.79	142.77
415.98	210.65
416.17	110.01
416.36	149.79
416.55	121.71
416.74	170.86
416.93	229.37
417.12	163.84
417.31	220.01
417.50	128.73
417.69	173.20
417.88	117.03
418.07	163.84
418.26	182.56
418.45	145.11
418.64	215.33
418.83	182.56
419.02	117.03
419.21	198.95
419.39	121.71
419.58	210.65
419.77	39.79
419.96	201.29
420.15	212.99
420.34	168.52
420.53	170.86
420.72	173.20
420.91	86.60
421.10	170.86
421.29	182.56
421.48	175.54
421.67	173.20
421.86	173.20
422.05	189.58
422.24	107.66
422.43	191.92
422.61	187.24
422.80	208.31
422.99	203.63
423.18	156.82
423.37	243.42
423.56	173.20
423.75	142.77
423.94	138.09
424.13	159.16
424.32	124.05
424.50	194.26
424.69	114.69
424.88	147.45
425.07	142.77
425.26	135.75
425.45	147.45
425.64	149.79
425.83	191.92
426.01	112.35
426.20	152.13
426.39	67.88
426.58	173.20
426.77	72.56
426.96	208.31
427.15	102.98
427.33	133.41
427.52	149.79
427.71	131.07
427.90	119.37
428.09	154.48
428.28	163.84
428.46	163.84
428.65	79.58
428.84	161.50
429.03	243.42
429.22	140.43
429.40	121.71
429.59	128.73
429.78	177.88
429.97	163.84
430.16	203.63
430.34	133.41
430.53	74.90
430.72	140.43
430.91	189.58
431.10	149.79
431.28	184.90
431.47	161.50
431.66	112.35
431.85	128.73
432.03	114.69
432.22	255.12
432.41	140.43
432.60	205.97
432.79	201.29
432.97	166.18
433.16	189.58
433.35	194.26
433.54	159.16
433.72	138.09
433.91	257.46
434.10	112.35
434.28	133.41
434.47	203.63
434.66	212.99
434.85	133.41
435.03	205.97
435.22	180.22
435.41	215.33
435.59	166.18
435.78	135.75
435.97	152.13
436.16	236.39
436.34	208.31
436.53	173.20
436.72	217.67
436.90	180.22
437.09	217.67
437.28	173.20
437.46	177.88
437.65	224.69
437.84	149.79
438.02	252.78
438.21	210.65
438.40	110.01
438.58	107.66
438.77	208.31
438.96	107.66
439.14	173.20
439.33	215.33
439.52	170.86
439.70	163.84
439.89	154.48
440.08	229.37
440.26	145.11
440.45	180.22
440.63	140.43
440.82	262.14
441.01	194.26
441.19	140.43
441.38	212.99
441.57	175.54
441.75	250.44
441.94	276.18
442.12	184.90
442.31	161.50
442.50	205.97
442.68	175.54
442.87	217.67
443.05	252.78
443.24	166.18
443.43	196.60
443.61	196.60
443.80	217.67
443.98	208.31
444.17	194.26
444.35	222.35
444.54	203.63
444.73	231.71
444.91	198.95
445.10	142.77
445.28	121.71
445.47	236.39
445.65	180.22
445.84	203.63
446.02	198.95
446.21	187.24
446.39	212.99
446.58	147.45
446.77	194.26
446.95	159.16
447.14	156.82
447.32	182.56
447.51	210.65
447.69	119.37
447.88	264.48
448.06	208.31
448.25	175.54
448.43	74.90
448.62	170.86
448.80	201.29
448.99	238.73
449.17	159.16
449.36	205.97
449.54	208.31
449.73	227.03
449.91	266.82
450.10	210.65
450.28	273.84
450.46	234.05
450.65	220.01
450.83	173.20
451.02	156.82
451.20	182.56
451.39	126.39
451.57	187.24
451.76	149.79
451.94	140.43
452.13	215.33
452.31	231.71
452.49	189.58
452.68	154.48
452.86	196.60
453.05	245.76
453.23	168.52
453.42	201.29
453.60	241.08
453.78	257.46
453.97	140.43
454.15	161.50
454.34	201.29
454.52	156.82
454.70	229.37
454.89	215.33
455.07	161.50
455.26	255.12
455.44	208.31
455.62	220.01
455.81	168.52
455.99	182.56
456.17	262.14
456.36	128.73
456.54	124.05
456.73	196.60
456.91	229.37
457.09	252.78
457.28	238.73
457.46	210.65
457.64	248.10
457.83	184.90
458.01	198.95
458.19	191.92
458.38	163.84
458.56	159.16
458.74	159.16
458.93	177.88
459.11	250.44
459.29	208.31
459.48	227.03
459.66	248.10
459.84	205.97
460.03	327.68
460.21	196.60
460.39	257.46
460.57	203.63
460.76	276.18
460.94	222.35
461.12	255.12
461.31	255.12
461.49	252.78
461.67	154.48
461.85	255.12
462.04	269.16
462.22	690.46
462.40	210.65
462.59	252.78
462.77	227.03
462.95	203.63
463.13	248.10
463.32	297.25
463.50	271.50
463.68	196.60
463.86	208.31
464.05	245.76
464.23	227.03
464.41	243.42
464.59	180.22
464.78	184.90
464.96	196.60
465.14	224.69
465.32	229.37
465.50	187.24
465.69	234.05
465.87	208.31
466.05	215.33
466.23	175.54
466.41	208.31
466.60	224.69
466.78	220.01
466.96	124.05
467.14	205.97
467.32	208.31
467.51	259.80
467.69	180.22
467.87	276.18
468.05	175.54
468.23	255.12
468.41	241.08
468.60	208.31
468.78	173.20
468.96	215.33
469.14	252.78
469.32	161.50
469.50	194.26
469.69	212.99
469.87	161.50
470.05	175.54
470.23	191.92
470.41	231.71
470.59	133.41
470.77	217.67
470.95	264.48
471.14	301.93
471.32	262.14
471.50	198.95
471.68	138.09
471.86	292.57
472.04	278.52
472.22	252.78
472.40	196.60
472.58	187.24
472.77	177.88
472.95	184.90
473.13	287.89
473.31	264.48
473.49	198.95
473.67	241.08
473.85	201.29
474.03	227.03
474.21	191.92
474.39	290.23
474.57	224.69
474.75	271.50
474.93	205.97
475.12	266.82
475.30	138.09
475.48	173.20
475.66	173.20
475.84	308.95
476.02	231.71
476.20	222.35
476.38	299.59
476.56	271.50
476.74	145.11
476.92	189.58
477.10	205.97
477.28	299.59
477.46	220.01
477.64	259.80
477.82	304.27
478.00	248.10
478.18	175.54
478.36	191.92
478.54	252.78
478.72	238.73
478.90	252.78
479.08	266.82
479.26	311.29
479.44	238.73
479.62	220.01
479.80	266.82
479.98	191.92
480.16	217.67
480.34	234.05
480.52	259.80
480.70	269.16
480.88	189.58
481.06	201.29
481.24	210.65
481.41	220.01
481.59	304.27
481.77	283.20
481.95	224.69
482.13	266.82
482.31	292.57
482.49	245.76
482.67	255.12
482.85	306.61
483.03	297.25
483.21	231.71
483.39	208.31
483.57	175.54
483.74	313.63
483.92	252.78
484.10	210.65
484.28	299.59
484.46	315.97
484.64	271.50
484.82	273.84
485.00	266.82
485.18	243.42
485.35	315.97
485.53	166.18
485.71	271.50
485.89	220.01
486.07	224.69
486.25	250.44
486.43	252.78
486.61	243.42
486.78	238.73
486.96	212.99
487.14	297.25
487.32	278.52
487.50	325.33
487.68	304.27
487.85	271.50
488.03	259.80
488.21	308.95
488.39	266.82
488.57	278.52
488.75	341.72
488.92	603.86
489.10	301.93
489.28	262.14
489.46	215.33
489.64	339.38
489.81	322.99
489.99	315.97
490.17	276.18
490.35	374.49
490.53	252.78
490.70	276.18
490.88	299.59
491.06	257.46
491.24	435.34
491.41	318.31
491.59	322.99
491.77	299.59
491.95	283.20
492.13	273.84
492.30	299.59
492.48	292.57
492.66	290.23
492.84	259.80
493.01	248.10
493.19	224.69
493.37	278.52
493.54	332.36
493.72	308.95
493.90	252.78
494.08	227.03
494.25	283.20
494.43	325.33
494.61	271.50
494.79	308.95
494.96	292.57
495.14	280.86
495.32	348.74
495.49	339.38
495.67	294.91
495.85	339.38
496.02	407.25
496.20	379.17
496.38	299.59
496.55	269.16
496.73	348.74
496.91	360.44
497.09	400.23
497.26	365.12
497.44	297.25
497.62	292.57
497.79	334.70
497.97	341.72
498.14	311.29
498.32	322.99
498.50	301.93
498.67	390.87
498.85	315.97
499.03	311.29
499.20	332.36
499.38	351.08
499.56	339.38
499.73	362.78
499.91	334.70
500.08	388.53
500.26	339.38
500.44	269.16
500.61	311.29
500.79	383.85
500.97	341.72
501.14	339.38
501.32	360.44
501.49	318.31
501.67	313.63
501.84	351.08
502.02	313.63
502.20	414.27
502.37	407.25
502.55	276.18
502.72	264.48
502.90	390.87
503.07	315.97
503.25	280.86
503.43	231.71
503.60	264.48
503.78	351.08
503.95	290.23
504.13	346.40
504.30	358.10
504.48	358.10
504.65	435.34
504.83	306.61
505.01	318.31
505.18	341.72
505.36	332.36
505.53	374.49
505.71	388.53
505.88	337.04
506.06	397.89
506.23	285.55
506.41	341.72
506.58	367.46
506.76	322.99
506.93	236.39
507.11	362.78
507.28	250.44
507.46	245.76
507.63	376.83
507.81	332.36
507.98	297.25
508.16	360.44
508.33	435.34
508.50	365.12
508.68	360.44
508.85	372.15
509.03	376.83
509.20	285.55
509.38	376.83
509.55	280.86
509.73	308.95
509.90	362.78
510.08	285.55
510.25	297.25
510.42	362.78
510.60	346.40
510.77	395.55
510.95	351.08
511.12	346.40
511.30	334.70
511.47	337.04
511.64	440.02
511.82	304.27
511.99	346.40
512.17	271.50
512.34	297.25
512.51	404.91
512.69	290.23
512.86	409.59
513.04	376.83
513.21	393.21
513.38	339.38
513.56	341.72
513.73	372.15
513.90	313.63
514.08	294.91
514.25	400.23
514.43	421.30
514.60	404.91
514.77	360.44
514.95	330.02
515.12	348.74
515.29	353.42
515.47	444.70
515.64	294.91
515.81	339.38
515.99	390.87
516.16	346.40
516.33	337.04
516.51	318.31
516.68	283.20
516.85	320.65
517.03	318.31
517.20	337.04
517.37	386.19
517.54	348.74
517.72	386.19
517.89	276.18
518.06	250.44
518.24	351.08
518.41	285.55
518.58	353.42
518.75	318.31
518.93	308.95
519.10	308.95
519.27	379.17
519.45	341.72
519.62	351.08
519.79	358.10
519.96	322.99
520.14	416.62
520.31	386.19
520.48	358.10
520.65	414.27
520.83	369.80
521.00	341.72
521.17	360.44
521.34	285.55
521.52	376.83
521.69	344.06
521.86	423.64
522.03	416.62
522.20	451.72
522.38	351.08
522.55	360.44
522.72	369.80
522.89	402.57
523.07	428.32
523.24	423.64
523.41	332.36
523.58	367.46
523.75	367.46
523.92	365.12
524.10	334.70
524.27	304.27
524.44	376.83
524.61	346.40
524.78	468.11
524.96	418.96
525.13	346.40
525.30	404.91
525.47	425.98
525.64	334.70
525.81	383.85
525.98	332.36
526.16	407.25
526.33	423.64
526.50	369.80
526.67	269.16
526.84	322.99
527.01	311.29
527.18	294.91
527.36	308.95
527.53	376.83
527.70	409.59
527.87	315.97
528.04	454.06
528.21	344.06
528.38	447.04
528.55	362.78
528.72	435.34
528.89	430.66
529.07	360.44
529.24	425.98
529.41	430.66
529.58	397.89
529.75	355.76
529.92	322.99
530.09	423.64
530.26	397.89
530.43	325.33
530.60	383.85
530.77	397.89
530.94	372.15
531.11	383.85
531.28	388.53
531.46	369.80
531.63	346.40
531.80	388.53
531.97	409.59
532.14	397.89
532.31	376.83
532.48	416.62
532.65	327.68
532.82	369.80
532.99	393.21
533.16	454.06
533.33	358.10
533.50	327.68
533.67	369.80
533.84	433.00
534.01	355.76
534.18	374.49
534.35	404.91
534.52	334.70
534.69	440.02
534.86	409.59
535.03	369.80
535.20	423.64
535.37	339.38
535.54	433.00
535.71	519.60
535.88	381.51
536.05	461.09
536.22	407.25
536.38	351.08
536.55	381.51
536.72	383.85
536.89	435.34
537.06	376.83
537.23	425.98
537.40	351.08
537.57	381.51
537.74	386.19
537.91	414.27
538.08	437.68
538.25	454.06
538.42	440.02
538.59	362.78
538.75	351.08
538.92	369.80
539.09	433.00
539.26	334.70
539.43	383.85
539.60	402.57
539.77	393.21
539.94	381.51
540.11	383.85
540.28	395.55
540.44	355.76
540.61	337.04
540.78	330.02
540.95	348.74
541.12	376.83
541.29	332.36
541.46	404.91
541.62	388.53
541.79	330.02
541.96	315.97
542.13	395.55
542.30	388.53
542.47	365.12
542.63	442.36
542.80	444.70
542.97	362.78
543.14	444.70
543.31	421.30
543.48	393.21
543.64	390.87
543.81	393.21
543.98	332.36
544.15	358.10
544.32	376.83
544.48	369.80
544.65	315.97
544.82	454.06
544.99	386.19
545.16	421.30
545.32	416.62
545.49	449.38
545.66	442.36
545.83	390.87
546.00	367.46
546.16	379.17
546.33	372.15
546.50	346.40
546.67	430.66
546.83	447.04
547.00	386.19
547.17	325.33
547.34	318.31
547.50	334.70
547.67	346.40
547.84	402.57
548.00	390.87
548.17	341.72
548.34	351.08
548.51	393.21
548.67	351.08
548.84	414.27
549.01	376.83
549.18	423.64
549.34	414.27
549.51	355.76
549.68	393.21
549.84	374.49
550.01	320.65
550.18	435.34
550.34	454.06
550.51	304.27
550.68	374.49
550.84	334.70
551.01	407.25
551.18	353.42
551.34	369.80
551.51	348.74
551.68	407.25
551.84	442.36
552.01	339.38
552.18	318.31
552.34	395.55
552.51	304.27
552.68	440.02
552.84	404.91
553.01	433.00
553.18	409.59
553.34	379.17
553.51	339.38
553.67	395.55
553.84	468.11
554.01	395.55
554.17	311.29
554.34	280.86
554.51	386.19
554.67	379.17
554.84	484.49
555.00	372.15
555.17	376.83
555.33	372.15
555.50	304.27
555.67	360.44
555.83	351.08
556.00	369.80
556.16	463.43
556.33	400.23
556.50	430.66
556.66	294.91
556.83	379.17
556.99	327.68
557.16	447.04
557.32	376.83
557.49	355.76
557.65	318.31
557.82	339.38
557.98	374.49
558.15	388.53
558.32	383.85
558.48	325.33
558.65	311.29
558.81	358.10
558.98	351.08
559.14	339.38
559.31	362.78
559.47	320.65
559.64	397.89
559.80	409.59
559.97	205.97
560.13	304.27
560.30	344.06
560.46	365.12
560.63	313.63
560.79	271.50
560.96	372.15
561.12	451.72
561.29	451.72
561.45	304.27
561.61	285.55
561.78	428.32
561.94	376.83
562.11	322.99
562.27	304.27
562.44	332.36
562.60	285.55
562.77	269.16
562.93	425.98
563.10	456.40
563.26	358.10
563.42	330.02
563.59	332.36
563.75	355.76
563.92	358.10
564.08	358.10
564.24	400.23
564.41	372.15
564.57	257.46
564.74	318.31
564.90	339.38
565.07	414.27
565.23	311.29
565.39	334.70
565.56	304.27
565.72	365.12
565.88	348.74
566.05	327.68
566.21	362.78
566.38	376.83
566.54	365.12
566.70	362.78
566.87	315.97
567.03	379.17
567.19	337.04
567.36	372.15
567.52	259.80
567.68	297.25
567.85	355.76
568.01	376.83
568.17	360.44
568.34	397.89
568.50	330.02
568.66	341.72
568.83	367.46
568.99	332.36
569.15	381.51
569.32	322.99
569.48	358.10
569.64	374.49
569.81	360.44
569.97	292.57
570.13	322.99
570.30	358.10
570.46	273.84
570.62	325.33
570.78	283.20
570.95	304.27
571.11	386.19
571.27	299.59
571.43	278.52
571.60	383.85
571.76	308.95
571.92	231.71
572.09	337.04
572.25	402.57
572.41	379.17
572.57	430.66
572.74	337.04
572.90	346.40
573.06	383.85
573.22	400.23
573.38	341.72
573.55	273.84
573.71	353.42
573.87	351.08
574.03	299.59
574.20	351.08
574.36	365.12
574.52	395.55
574.68	224.69
574.84	290.23
575.01	337.04
575.17	327.68
575.33	322.99
575.49	344.06
575.65	334.70
575.82	287.89
575.98	470.45
576.14	325.33
576.30	266.82
576.46	372.15
576.62	367.46
576.79	339.38
576.95	358.10
577.11	344.06
577.27	306.61
577.43	332.36
577.59	421.30
577.75	245.76
577.92	386.19
578.08	330.02
578.24	273.84
578.40	409.59
578.56	367.46
578.72	351.08
578.88	315.97
579.04	381.51
579.21	348.74
579.37	337.04
579.53	311.29
579.69	351.08
579.85	315.97
580.01	341.72
580.17	355.76
580.33	304.27
580.49	355.76
580.65	358.10
580.82	416.62
580.98	351.08
581.14	327.68
581.30	411.93
581.46	322.99
581.62	325.33
581.78	322.99
581.94	306.61
582.10	311.29
582.26	337.04
582.42	318.31
582.58	369.80
582.74	255.12
582.90	334.70
583.06	360.44
583.22	374.49
583.38	341.72
583.54	280.86
583.70	341.72
583.86	372.15
584.02	397.89
584.18	468.11
584.34	358.10
584.50	304.27
584.66	397.89
584.82	421.30
584.98	372.15
585.14	276.18
585.30	393.21
585.46	344.06
585.62	320.65
585.78	227.03
585.94	383.85
586.10	283.20
586.26	362.78
586.42	346.40
586.58	311.29
586.74	341.72
586.90	264.48
587.06	308.95
587.22	341.72
587.38	280.86
587.54	304.27
587.70	395.55
587.86	320.65
588.02	266.82
588.18	315.97
588.34	273.84
588.49	278.52
588.65	334.70
588.81	259.80
588.97	184.90
589.13	301.93
589.29	227.03
589.45	299.59
589.61	250.44
589.77	301.93
589.93	271.50
590.08	304.27
590.24	255.12
590.40	255.12
590.56	292.57
590.72	285.55
590.88	262.14
591.04	365.12
591.20	294.91
591.35	318.31
591.51	252.78
591.67	243.42
591.83	283.20
591.99	285.55
592.15	297.25
592.31	308.95
592.46	313.63
592.62	299.59
592.78	348.74
592.94	339.38
593.10	262.14
593.26	294.91
593.41	294.91
593.57	294.91
593.73	325.33
593.89	353.42
594.05	276.18
594.20	318.31
594.36	241.08
594.52	290.23
594.68	278.52
594.84	297.25
594.99	311.29
595.15	194.26
595.31	280.86
595.47	332.36
595.62	271.50
595.78	294.91
595.94	318.31
596.10	266.82
596.25	297.25
596.41	355.76
596.57	273.84
596.73	351.08
596.88	369.80
597.04	257.46
597.20	369.80
597.36	393.21
597.51	290.23
597.67	306.61
597.83	301.93
597.99	280.86
598.14	318.31
598.30	348.74
598.46	332.36
598.61	423.64
598.77	320.65
598.93	292.57
599.09	292.57
599.24	308.95
599.40	360.44
599.56	372.15
599.71	339.38
599.87	330.02
600.03	304.27
600.18	250.44
600.34	369.80
600.50	341.72
600.65	241.08
600.81	266.82
600.97	313.63
601.12	367.46
601.28	341.72
601.44	379.17
601.59	278.52
601.75	322.99
601.91	290.23
602.06	294.91
602.22	400.23
602.37	360.44
602.53	304.27
602.69	290.23
602.84	248.10
603.00	301.93
603.16	299.59
603.31	365.12
603.47	383.85
603.62	299.59
603.78	334.70
603.94	369.80
604.09	372.15
604.25	285.55
604.40	400.23
604.56	278.52
604.71	367.46
604.87	271.50
605.03	339.38
605.18	306.61
605.34	383.85
605.49	315.97
605.65	348.74
605.80	285.55
605.96	222.35
606.12	318.31
606.27	313.63
606.43	348.74
606.58	332.36
606.74	334.70
606.89	379.17
607.05	397.89
607.20	325.33
607.36	266.82
607.51	308.95
607.67	341.72
607.82	416.62
607.98	339.38
608.13	262.14
608.29	404.91
608.44	330.02
608.60	273.84
608.75	292.57
608.91	318.31
609.06	414.27
609.22	299.59
609.37	227.03
609.53	334.70
609.68	299.59
609.84	285.55
609.99	250.44
610.15	306.61
610.30	299.59
610.46	330.02
610.61	285.55
610.76	339.38
610.92	344.06
611.07	243.42
611.23	418.96
611.38	262.14
611.54	325.33
611.69	248.10
611.84	334.70
612.00	358.10
612.15	337.04
612.31	325.33
612.46	229.37
612.62	301.93
612.77	367.46
612.92	341.72
613.08	374.49
613.23	280.86
613.39	301.93
613.54	220.01
613.69	269.16
613.85	264.48
614.00	320.65
614.15	269.16
614.31	220.01
614.46	367.46
614.62	311.29
614.77	337.04
614.92	315.97
615.08	308.95
615.23	292.57
615.38	339.38
615.54	259.80
615.69	243.42
615.84	241.08
616.00	271.50
616.15	276.18
616.30	266.82
616.46	264.48
616.61	332.36
616.76	285.55
616.92	355.76
617.07	259.80
617.22	259.80
617.37	311.29
617.53	229.37
617.68	191.92
617.83	278.52
617.99	330.02
618.14	262.14
618.29	393.21
618.45	271.50
618.60	250.44
618.75	315.97
618.90	266.82
619.06	294.91
619.21	334.70
619.36	308.95
619.51	271.50
619.67	276.18
619.82	301.93
619.97	276.18
620.12	337.04
620.28	212.99
620.43	266.82
620.58	327.68
620.73	301.93
620.89	337.04
621.04	269.16
621.19	311.29
621.34	234.05
621.49	266.82
621.65	271.50
621.80	285.55
621.95	201.29
622.10	313.63
622.25	285.55
622.41	262.14
622.56	301.93
622.71	180.22
622.86	311.29
623.01	308.95
623.16	318.31
623.32	266.82
623.47	250.44
623.62	217.67
623.77	299.59
623.92	287.89
624.07	245.76
624.23	243.42
624.38	224.69
624.53	227.03
624.68	292.57
624.83	285.55
624.98	243.42
625.13	264.48
625.29	205.97
625.44	220.01
625.59	306.61
625.74	313.63
625.89	285.55
626.04	278.52
626.19	315.97
626.34	332.36
626.49	276.18
626.65	276.18
626.80	266.82
626.95	262.14
627.10	217.67
627.25	208.31
627.40	227.03
627.55	308.95
627.70	215.33
627.85	241.08
628.00	241.08
628.15	245.76
628.30	248.10
628.45	280.86
628.60	212.99
628.76	238.73
628.91	292.57
629.06	189.58
629.21	262.14
629.36	322.99
629.51	229.37
629.66	271.50
629.81	201.29
629.96	255.12
630.11	276.18
630.26	266.82
630.41	285.55
630.56	301.93
630.71	273.84
630.86	301.93
631.01	341.72
631.16	266.82
631.31	285.55
631.46	245.76
631.61	208.31
631.76	227.03
631.91	285.55
632.06	220.01
632.21	262.14
632.36	217.67
632.51	196.60
632.66	234.05
632.81	276.18
632.96	241.08
633.10	257.46
633.25	266.82
633.40	238.73
633.55	212.99
633.70	248.10
633.85	264.48
634.00	252.78
634.15	220.01
634.30	227.03
634.45	184.90
634.60	262.14
634.75	257.46
634.90	238.73
635.05	238.73
635.19	224.69
635.34	238.73
635.49	290.23
635.64	189.58
635.79	217.67
635.94	294.91
636.09	348.74
636.24	311.29
636.39	292.57
636.53	205.97
636.68	273.84
636.83	177.88
636.98	250.44
637.13	196.60
637.28	229.37
637.43	290.23
637.57	229.37
637.72	294.91
637.87	222.35
638.02	259.80
638.17	334.70
638.32	250.44
638.46	297.25
638.61	259.80
638.76	205.97
638.91	191.92
639.06	196.60
639.20	224.69
639.35	217.67
639.50	252.78
639.65	215.33
639.80	196.60
639.94	248.10
640.09	322.99
640.24	344.06
640.39	311.29
640.54	243.42
640.68	264.48
640.83	287.89
640.98	245.76
641.13	234.05
641.27	229.37
641.42	154.48
641.57	315.97
641.72	264.48
641.86	220.01
642.01	142.77
642.16	330.02
642.31	194.26
642.45	271.50
642.60	250.44
642.75	227.03
642.90	255.12
643.04	248.10
643.19	201.29
643.34	236.39
643.48	208.31
643.63	201.29
643.78	215.33
643.93	330.02
644.07	210.65
644.22	208.31
644.37	198.95
644.51	184.90
644.66	280.86
644.81	217.67
644.95	278.52
645.10	257.46
645.25	215.33
645.39	241.08
645.54	231.71
645.69	285.55
645.83	208.31
645.98	255.12
646.13	201.29
646.27	198.95
646.42	154.48
646.57	231.71
646.71	224.69
646.86	140.43
647.00	220.01
647.15	259.80
647.30	175.54
647.44	252.78
647.59	107.66
647.74	147.45
647.88	189.58
648.03	149.79
648.17	220.01
648.32	278.52
648.47	245.76
648.61	205.97
648.76	196.60
648.90	208.31
649.05	189.58
649.20	194.26
649.34	163.84
649.49	142.77
649.63	217.67
649.78	229.37
649.92	238.73
650.07	271.50
650.21	238.73
650.36	229.37
650.51	201.29
650.65	184.90
650.80	227.03
650.94	215.33
651.09	117.03
651.23	170.86
651.38	250.44
651.52	255.12
651.67	156.82
651.81	194.26
651.96	276.18
652.10	215.33
652.25	177.88
652.39	229.37
652.54	325.33
652.68	287.89
652.83	255.12
652.97	259.80
653.12	273.84
653.26	201.29
653.41	257.46
653.55	135.75
653.70	159.16
653.84	196.60
653.99	224.69
654.13	224.69
654.27	196.60
654.42	177.88
654.56	189.58
654.71	334.70
654.85	191.92
655.00	245.76
655.14	236.39
655.29	224.69
655.43	177.88
655.57	201.29
655.72	201.29
655.86	203.63
656.01	173.20
656.15	220.01
656.30	210.65
656.44	217.67
656.58	250.44
656.73	196.60
656.87	163.84
657.01	189.58
657.16	217.67
657.30	196.60
657.45	196.60
657.59	248.10
657.73	182.56
657.88	220.01
658.02	322.99
658.16	227.03
658.31	191.92
658.45	189.58
658.60	149.79
658.74	154.48
658.88	156.82
659.03	154.48
659.17	238.73
659.31	273.84
659.46	210.65
659.60	287.89
659.74	187.24
659.89	168.52
660.03	168.52
660.17	248.10
660.32	154.48
660.46	182.56
660.60	196.60
660.74	269.16
660.89	257.46
661.03	177.88
661.17	227.03
661.32	175.54
661.46	194.26
661.60	110.01
661.74	205.97
661.89	191.92
662.03	147.45
662.17	133.41
662.31	241.08
662.46	180.22
662.60	215.33
662.74	184.90
662.88	196.60
663.03	194.26
663.17	208.31
663.31	198.95
663.45	198.95
663.60	196.60
663.74	241.08
663.88	257.46
664.02	147.45
664.17	194.26
664.31	236.39
664.45	276.18
664.59	229.37
664.73	187.24
664.88	205.97
665.02	198.95
665.16	187.24
665.30	203.63
665.44	180.22
665.59	166.18
665.73	259.80
665.87	243.42
666.01	177.88
666.15	191.92
666.29	184.90
666.44	280.86
666.58	269.16
666.72	145.11
666.86	224.69
667.00	231.71
667.14	273.84
667.28	229.37
667.43	170.86
667.57	234.05
667.71	114.69
667.85	210.65
667.99	175.54
668.13	187.24
668.27	248.10
668.41	227.03
668.56	248.10
668.70	330.02
668.84	191.92
668.98	262.14
669.12	159.16
669.26	215.33
669.40	203.63
669.54	194.26
669.68	241.08
669.82	208.31
669.96	250.44
670.10	248.10
670.25	210.65
670.39	203.63
670.53	222.35
670.67	168.52
670.81	194.26
670.95	222.35
671.09	168.52
671.23	238.73
671.37	280.86
671.51	210.65
671.65	205.97
671.79	166.18
671.93	252.78
672.07	250.44
672.21	203.63
672.35	175.54
672.49	182.56
672.63	283.20
672.77	142.77
672.91	280.86
673.05	243.42
673.19	187.24
673.33	91.28
673.47	238.73
673.61	184.90
673.75	161.50
673.89	166.18
674.03	205.97
674.17	180.22
674.31	241.08
674.45	222.35
674.59	208.31
674.73	292.57
674.87	252.78
675.01	276.18
675.15	149.79
675.29	243.42
675.43	229.37
675.56	187.24
675.70	205.97
675.84	222.35
675.98	159.16
676.12	159.16
676.26	187.24
676.40	166.18
676.54	154.48
676.68	264.48
676.82	234.05
676.96	159.16
677.10	170.86
677.23	170.86
677.37	210.65
677.51	191.92
677.65	252.78
677.79	156.82
677.93	152.13
678.07	138.09
678.21	189.58
678.34	210.65
678.48	189.58
678.62	175.54
678.76	234.05
678.90	257.46
679.04	196.60
679.18	168.52
679.31	227.03
679.45	175.54
679.59	259.80
679.73	173.20
679.87	180.22
680.00	166.18
680.14	187.24
680.28	168.52
680.42	215.33
680.56	117.03
680.70	102.98
680.83	173.20
680.97	168.52
681.11	187.24
681.25	180.22
681.39	257.46
681.52	140.43
681.66	238.73
681.80	86.60
681.94	166.18
682.07	124.05
682.21	147.45
682.35	236.39
682.49	102.98
682.62	177.88
682.76	203.63
682.90	145.11
683.04	152.13
683.17	245.76
683.31	100.64
683.45	152.13
683.59	166.18
683.72	252.78
683.86	131.07
684.00	149.79
684.13	170.86
684.27	191.92
684.41	222.35
684.55	208.31
684.68	168.52
684.82	121.71
684.96	133.41
685.09	210.65
685.23	98.30
685.37	152.13
685.50	292.57
685.64	156.82
685.78	191.92
685.91	112.35
686.05	126.39
686.19	135.75
686.32	184.90
686.46	161.50
686.60	154.48
686.73	131.07
686.87	191.92
687.01	161.50
687.14	128.73
687.28	135.75
687.42	198.95
687.55	131.07
687.69	215.33
687.82	147.45
687.96	163.84
688.10	121.71
688.23	131.07
688.37	147.45
688.50	145.11
688.64	227.03
688.78	168.52
688.91	121.71
689.05	112.35
689.18	131.07
689.32	184.90
689.46	88.94
689.59	229.37
689.73	147.45
689.86	140.43
690.00	191.92
690.13	138.09
690.27	77.24
690.41	135.75
690.54	126.39
690.68	175.54
690.81	182.56
690.95	131.07
691.08	138.09
691.22	67.88
691.35	124.05
691.49	124.05
691.62	91.28
691.76	175.54
691.89	126.39
692.03	145.11
692.16	107.66
692.30	170.86
692.43	128.73
692.57	166.18
692.70	161.50
692.84	133.41
692.97	140.43
693.11	124.05
693.24	107.66
693.38	110.01
693.51	196.60
693.65	102.98
693.78	117.03
693.92	168.52
694.05	121.71
694.19	119.37
694.32	135.75
694.45	161.50
694.59	182.56
694.72	147.45
694.86	149.79
694.99	60.85
695.13	88.94
695.26	177.88
695.39	163.84
695.53	173.20
695.66	131.07
695.80	212.99
695.93	168.52
696.07	194.26
696.20	187.24
696.33	88.94
696.47	119.37
696.60	107.66
696.73	114.69
696.87	159.16
697.00	173.20
697.14	138.09
697.27	84.26
697.40	222.35
697.54	210.65
697.67	107.66
697.80	184.90
697.94	159.16
698.07	95.96
698.21	131.07
698.34	98.30
698.47	145.11
698.61	112.35
698.74	145.11
698.87	112.35
699.01	191.92
699.14	152.13
699.27	166.18
699.40	278.52
699.54	152.13
699.67	100.64
699.80	56.17
699.94	224.69
700.07	124.05
700.20	102.98
700.34	95.96
700.47	93.62
700.60	152.13
700.73	86.60
700.87	154.48
701.00	72.56
701.13	149.79
701.26	98.30
701.40	152.13
701.53	77.24
701.66	133.41
701.79	95.96
701.93	110.01
702.06	166.18
702.19	152.13
702.32	133.41
702.46	166.18
702.59	60.85
702.72	147.45
702.85	140.43
702.99	77.24
703.12	208.31
703.25	140.43
703.38	133.41
703.51	114.69
703.65	88.94
703.78	131.07
703.91	163.84
704.04	74.90
704.17	177.88
704.31	173.20
704.44	117.03
704.57	142.77
704.70	121.71
704.83	77.24
704.96	168.52
705.10	117.03
705.23	114.69
>>>>>End Processed Spectral Data<<<<<
