SpectraSuite Data File
++++++++++++++++++++++++++++++++++++
Date: Fri Oct 04 11:40:02 GMT-05:00 2013
User: price-jones
Dark Spectrum Present: No
Reference Spectrum Present: No
Number of Sampled Component Spectra: 1
Spectrometers: USB2+H05261
Integration Time (usec): 100000 (USB2+H05261)
Spectra Averaged: 1 (USB2+H05261)
Boxcar Smoothing: 0 (USB2+H05261)
Correct for Electrical Dark: No (USB2+H05261)
Strobe/Lamp Enabled: No (USB2+H05261)
Correct for Detector Non-linearity: No (USB2+H05261)
Correct for Stray Light: No (USB2+H05261)
Number of Pixels in Processed Spectrum: 2048
>>>>>Begin Processed Spectral Data<<<<<
365.73	65.54
365.92	65.54
366.12	65.54
366.32	0.00
366.52	0.00
366.72	21.06
366.91	0.00
367.11	0.00
367.31	0.00
367.51	0.00
367.70	0.00
367.90	0.00
368.10	0.00
368.30	0.00
368.49	0.00
368.69	0.00
368.89	0.00
369.09	0.00
369.28	0.00
369.48	0.00
369.68	0.00
369.87	0.00
370.07	21.06
370.27	79.58
370.47	51.49
370.66	37.45
370.86	65.54
371.06	91.28
371.25	110.01
371.45	46.81
371.65	72.56
371.84	100.64
372.04	201.29
372.24	119.37
372.44	98.30
372.63	93.62
372.83	124.05
373.03	107.66
373.22	166.18
373.42	126.39
373.62	142.77
373.81	201.29
374.01	126.39
374.21	189.58
374.40	128.73
374.60	154.48
374.79	161.50
374.99	161.50
375.19	182.56
375.38	245.76
375.58	201.29
375.78	191.92
375.97	163.84
376.17	203.63
376.37	138.09
376.56	161.50
376.76	142.77
376.95	112.35
377.15	114.69
377.35	180.22
377.54	170.86
377.74	145.11
377.93	198.95
378.13	135.75
378.33	131.07
378.52	210.65
378.72	168.52
378.91	177.88
379.11	187.24
379.31	91.28
379.50	133.41
379.70	208.31
379.89	210.65
380.09	140.43
380.28	152.13
380.48	110.01
380.68	182.56
380.87	140.43
381.07	184.90
381.26	224.69
381.46	224.69
381.65	163.84
381.85	191.92
382.04	170.86
382.24	121.71
382.43	140.43
382.63	173.20
382.83	168.52
383.02	175.54
383.22	177.88
383.41	149.79
383.61	217.67
383.80	238.73
384.00	187.24
384.19	180.22
384.39	229.37
384.58	184.90
384.78	217.67
384.97	182.56
385.17	119.37
385.36	205.97
385.56	205.97
385.75	177.88
385.95	182.56
386.14	177.88
386.34	175.54
386.53	208.31
386.72	156.82
386.92	222.35
387.11	205.97
387.31	191.92
387.50	201.29
387.70	119.37
387.89	131.07
388.09	105.32
388.28	124.05
388.48	215.33
388.67	215.33
388.86	194.26
389.06	124.05
389.25	182.56
389.45	205.97
389.64	138.09
389.84	198.95
390.03	138.09
390.22	170.86
390.42	159.16
390.61	142.77
390.81	220.01
391.00	236.39
391.19	238.73
391.39	248.10
391.58	208.31
391.78	203.63
391.97	252.78
392.16	142.77
392.36	224.69
392.55	245.76
392.75	205.97
392.94	147.45
393.13	184.90
393.33	292.57
393.52	266.82
393.71	231.71
393.91	231.71
394.10	245.76
394.29	262.14
394.49	173.20
394.68	236.39
394.88	259.80
395.07	283.20
395.26	201.29
395.46	320.65
395.65	266.82
395.84	245.76
396.04	294.91
396.23	212.99
396.42	175.54
396.62	294.91
396.81	159.16
397.00	259.80
397.19	292.57
397.39	259.80
397.58	287.89
397.77	252.78
397.97	327.68
398.16	196.60
398.35	374.49
398.55	280.86
398.74	358.10
398.93	348.74
399.12	330.02
399.32	355.76
399.51	334.70
399.70	330.02
399.90	344.06
400.09	346.40
400.28	346.40
400.47	332.36
400.67	346.40
400.86	334.70
401.05	407.25
401.24	362.78
401.44	365.12
401.63	400.23
401.82	395.55
402.01	320.65
402.21	351.08
402.40	318.31
402.59	388.53
402.78	360.44
402.97	397.89
403.17	383.85
403.36	386.19
403.55	351.08
403.74	435.34
403.93	411.93
404.13	519.60
404.32	442.36
404.51	449.38
404.70	461.09
404.89	430.66
405.09	430.66
405.28	496.19
405.47	440.02
405.66	519.60
405.85	442.36
406.05	461.09
406.24	550.03
406.43	477.47
406.62	535.98
406.81	578.11
407.00	540.66
407.20	603.86
407.39	512.58
407.58	587.47
407.77	573.43
407.96	660.03
408.15	557.05
408.34	620.24
408.54	695.14
408.73	676.41
408.92	660.03
409.11	585.13
409.30	634.29
409.49	571.09
409.68	613.22
409.87	671.73
410.07	695.14
410.26	578.11
410.45	617.90
410.64	648.33
410.83	683.44
411.02	739.61
411.21	741.95
411.40	720.88
411.59	718.54
411.78	716.20
411.98	734.93
412.17	709.18
412.36	814.51
412.55	720.88
412.74	781.74
412.93	854.30
413.12	734.93
413.31	870.68
413.50	795.78
413.69	821.53
413.88	882.38
414.07	842.59
414.26	840.25
414.45	861.32
414.64	894.08
414.83	931.53
415.02	912.81
415.22	987.71
415.41	943.24
415.60	898.77
415.79	1020.47
415.98	929.19
416.17	1032.18
416.36	1067.28
416.55	912.81
416.74	936.21
416.93	1132.82
417.12	1015.79
417.31	1008.77
417.50	1013.45
417.69	961.96
417.88	1018.13
418.07	1109.41
418.26	1102.39
418.45	1067.28
418.64	1083.67
418.83	1102.39
419.02	1095.37
419.21	1090.69
419.39	1186.65
419.58	1156.22
419.77	1135.16
419.96	1174.95
420.15	1160.91
420.34	1191.33
420.53	1207.72
420.72	1249.85
420.91	1198.35
421.10	1256.87
421.29	1289.64
421.48	1212.40
421.67	1327.08
421.86	1207.72
422.05	1196.01
422.24	1233.46
422.43	1235.80
422.61	1181.97
422.80	1329.42
422.99	1291.98
423.18	1315.38
423.37	1196.01
423.56	1355.17
423.75	1273.25
423.94	1273.25
424.13	1167.93
424.32	1174.95
424.50	1308.36
424.69	1322.40
424.88	1394.96
425.07	1308.36
425.26	1287.29
425.45	1277.93
425.64	1167.93
425.83	1235.80
426.01	1345.81
426.20	1341.13
426.39	1345.81
426.58	1317.72
426.77	1352.83
426.96	1423.05
427.15	1338.79
427.33	1329.42
427.52	1348.15
427.71	1401.98
427.90	1359.85
428.09	1294.32
428.28	1411.34
428.46	1338.79
428.65	1348.15
428.84	1486.24
429.03	1537.73
429.22	1352.83
429.40	1327.08
429.59	1392.62
429.78	1519.01
429.97	1270.91
430.16	1270.91
430.34	1430.07
430.53	1542.41
430.72	1490.92
430.91	1519.01
431.10	1413.68
431.28	1514.33
431.47	1570.50
431.66	1535.39
431.85	1516.67
432.03	1593.90
432.22	1682.85
432.41	1579.86
432.60	1537.73
432.79	1549.43
432.97	1551.78
433.16	1563.48
433.35	1600.93
433.54	1617.31
433.72	1657.10
433.91	1643.06
434.10	1596.25
434.28	1568.16
434.47	1678.16
434.66	1657.10
434.85	1591.56
435.03	1727.32
435.22	1893.49
435.41	2256.28
435.59	2165.00
435.78	2040.95
435.97	1874.77
436.16	1748.38
436.34	1706.25
436.53	1755.40
436.72	1811.57
436.90	1708.59
437.09	1783.49
437.28	1699.23
437.46	1827.96
437.65	1825.62
437.84	1778.81
438.02	1640.72
438.21	1764.76
438.40	1755.40
438.58	1940.30
438.77	1785.83
438.96	1708.59
439.14	1844.34
439.33	1928.60
439.52	1900.52
439.70	1952.01
439.89	1863.07
440.08	1863.07
440.26	1912.22
440.45	2052.65
440.63	2066.69
440.82	1975.41
441.01	1933.28
441.19	1956.69
441.38	1987.11
441.57	2064.35
441.75	2015.20
441.94	2078.40
442.12	2036.27
442.31	2066.69
442.50	2064.35
442.68	2085.42
442.87	2022.22
443.05	2010.52
443.24	2115.84
443.43	2172.02
443.61	1975.41
443.80	2211.81
443.98	2165.00
444.17	2033.93
444.35	2038.61
444.54	2188.40
444.73	2195.42
444.91	2258.62
445.10	2195.42
445.28	2258.62
445.47	2169.68
445.65	2153.29
445.84	2033.93
446.02	2167.34
446.21	2209.47
446.39	2193.08
446.58	2141.59
446.77	2172.02
446.95	2153.29
447.14	2279.68
447.32	2207.13
447.51	2132.23
447.69	2326.49
447.88	2246.91
448.06	2310.11
448.25	2209.47
448.43	2251.60
448.62	2169.68
448.80	2324.15
448.99	2328.83
449.17	2312.45
449.36	2165.00
449.54	2422.45
449.73	2417.77
449.91	2380.32
450.10	2303.09
450.28	2417.77
450.46	2441.18
450.65	2450.54
450.83	2349.90
451.02	2450.54
451.20	2399.05
451.39	2427.14
451.57	2340.54
451.76	2314.79
451.94	2298.41
452.13	2457.56
452.31	2448.20
452.49	2429.48
452.68	2509.05
452.86	2401.39
453.05	2516.08
453.23	2450.54
453.42	2424.80
453.60	2422.45
453.78	2469.27
453.97	2537.14
454.15	2434.16
454.34	2590.97
454.52	2516.08
454.70	2476.29
454.89	2495.01
455.07	2548.84
455.26	2424.80
455.44	2626.08
455.62	2633.10
455.81	2539.48
455.99	2647.15
456.17	2523.10
456.36	2579.27
456.54	2729.06
456.73	2633.10
456.91	2722.04
457.09	2698.64
457.28	2623.74
457.46	2684.59
457.64	2822.69
457.83	2614.38
458.01	2708.00
458.19	2841.41
458.38	2731.41
458.56	2796.94
458.74	2679.91
458.93	2782.90
459.11	2698.64
459.29	2729.06
459.48	2750.13
459.66	2829.71
459.84	2920.99
460.03	3052.06
460.21	2911.63
460.39	2972.48
460.57	2862.48
460.76	2946.73
460.94	2815.66
461.12	2850.77
461.31	2902.26
461.49	2815.66
461.67	2923.33
461.85	2930.35
462.04	2977.16
462.22	3368.03
462.40	3028.65
462.59	3002.91
462.77	2911.63
462.95	2967.80
463.13	2965.46
463.32	3075.46
463.50	3136.32
463.68	2967.80
463.86	2995.89
464.05	2993.55
464.23	2970.14
464.41	3009.93
464.59	2963.12
464.78	2944.39
464.96	3047.38
465.14	3159.72
465.32	3061.42
465.50	3105.89
465.69	3192.49
465.87	3047.38
466.05	3162.06
466.23	3133.98
466.41	3126.96
466.60	3105.89
466.78	3117.59
466.96	3115.25
467.14	3091.85
467.32	3232.28
467.51	3141.00
467.69	3066.10
467.87	3206.53
468.05	3269.73
468.23	3283.77
468.41	3239.30
468.60	3197.17
468.78	3178.45
468.96	3330.58
469.14	3361.01
469.32	3176.11
469.50	3077.80
469.69	3410.16
469.87	3236.96
470.05	3297.81
470.23	3323.56
470.41	3386.76
470.59	3314.20
470.77	3393.78
470.95	3358.67
471.14	3375.05
471.32	3309.52
471.50	3562.30
471.68	3386.76
471.86	3501.44
472.04	3431.23
472.22	3552.93
472.40	3456.97
472.58	3625.49
472.77	3510.80
472.95	3456.97
473.13	3576.34
473.31	3599.74
473.49	3641.87
473.67	3581.02
473.85	3658.26
474.03	3552.93
474.21	3637.19
474.39	3625.49
474.57	3691.02
474.75	3681.66
474.93	3770.60
475.12	3761.24
475.30	3719.11
475.48	3824.44
475.66	3796.35
475.84	3854.86
476.02	3960.19
476.20	3922.74
476.38	3845.50
476.56	4021.04
476.74	4016.36
476.92	4030.40
477.10	3988.27
477.28	4025.72
477.46	3950.82
477.64	4079.55
477.82	4028.06
478.00	4372.12
478.18	4128.70
478.36	4175.52
478.54	4348.72
478.72	4393.19
478.90	4231.69
479.08	4360.42
479.26	4428.29
479.44	4404.89
479.62	4428.29
479.80	4437.66
479.98	4463.40
480.16	4538.30
480.34	4557.02
480.52	4617.88
480.70	4741.93
480.88	4667.03
481.06	4655.33
481.24	4617.88
481.41	4861.29
481.59	4812.14
481.77	4919.81
481.95	4954.91
482.13	4758.31
482.31	4961.94
482.49	5053.22
482.67	5123.43
482.85	5078.96
483.03	5104.71
483.21	5224.08
483.39	5280.25
483.57	5188.97
483.74	5249.82
483.92	5408.98
484.10	5465.15
484.28	5401.96
484.46	5598.56
484.64	5753.04
484.82	5322.38
485.00	5516.64
485.18	5495.58
485.35	5600.90
485.53	5664.10
485.71	5727.29
485.89	5863.04
486.07	5792.83
486.25	5909.85
486.43	5769.42
486.61	5884.11
486.78	5841.98
486.96	5980.07
487.14	6073.69
487.32	5994.11
487.50	6094.76
487.68	6169.65
487.85	6314.77
488.03	6506.69
488.21	6321.79
488.39	6494.99
488.57	6473.92
488.75	6530.09
488.92	6679.89
489.10	6736.06
489.28	6574.56
489.46	6562.86
489.64	6665.85
489.81	6927.99
489.99	6726.70
490.17	6850.75
490.35	7042.67
490.53	7028.63
490.70	7040.33
490.88	6843.73
491.06	7059.06
491.24	7176.08
491.41	7204.17
491.59	7070.76
491.77	7190.13
491.95	7342.26
492.13	7372.69
492.30	7424.18
492.48	7307.15
492.66	7300.13
492.84	7492.05
493.01	7651.21
493.19	7662.91
493.37	7901.65
493.54	7552.91
493.72	7679.30
493.90	7686.32
494.08	7618.44
494.25	8018.68
494.43	7798.66
494.61	7957.82
494.79	7850.16
494.96	8009.31
495.14	7978.89
495.32	7997.61
495.49	7950.80
495.67	8049.10
495.85	8243.37
496.02	8229.32
496.20	8088.89
496.38	8358.05
496.55	8351.03
496.73	8397.84
496.91	8521.89
497.09	8629.56
497.26	8540.61
497.44	8439.97
497.62	8585.08
497.79	8482.10
497.97	8514.87
498.14	8732.54
498.32	8816.80
498.50	8943.19
498.67	8997.02
498.85	9006.38
499.03	8968.93
499.20	8795.73
499.38	8922.12
499.56	8912.76
499.73	9020.42
499.91	9149.15
500.08	9153.84
500.26	8947.87
500.44	9013.40
500.61	8982.98
500.79	9090.64
500.97	9191.28
501.14	9378.53
501.32	9366.82
501.49	9432.36
501.67	9432.36
501.84	9525.98
502.02	9392.57
502.20	9542.36
502.37	9605.56
502.55	9385.55
502.72	9582.15
502.90	9568.11
503.07	9596.20
503.25	9713.22
503.43	9823.23
503.60	9724.93
503.78	9841.95
503.95	9715.56
504.13	9930.89
504.30	10195.37
504.48	9675.77
504.65	9757.69
504.83	10059.62
505.01	10008.13
505.18	10059.62
505.36	10054.94
505.53	10071.33
505.71	10125.16
505.88	10183.67
506.06	9834.93
506.23	10289.00
506.41	9968.34
506.58	10359.21
506.76	10485.60
506.93	10366.23
507.11	10422.41
507.28	10497.30
507.46	10459.85
507.63	10452.83
507.81	10471.56
507.98	10267.93
508.16	10424.75
508.33	10565.18
508.50	10345.17
508.68	10628.37
508.85	10965.41
509.03	10623.69
509.20	10820.30
509.38	10794.55
509.55	10860.09
509.73	10782.85
509.90	10960.73
510.08	10740.72
510.25	10902.22
510.42	11133.93
510.60	10881.15
510.77	10937.32
510.95	11077.76
511.12	10979.45
511.30	10904.56
511.47	11080.10
511.64	11356.28
511.82	11325.85
511.99	11211.17
512.17	11084.78
512.34	11101.16
512.51	11309.47
512.69	11272.02
512.86	11370.32
513.04	11449.90
513.21	11538.84
513.38	11655.87
513.56	11693.32
513.73	11592.67
513.90	11639.48
514.08	11517.78
514.25	11616.08
514.43	11740.13
514.60	11627.78
514.77	11686.29
514.95	11864.18
515.12	11550.54
515.29	11592.67
515.47	11758.85
515.64	11960.14
515.81	12053.76
515.99	11941.41
516.16	11918.01
516.33	12187.17
516.51	11962.48
516.68	11943.75
516.85	12119.29
517.03	12222.28
517.20	12138.02
517.37	12149.72
517.54	12215.26
517.72	12297.17
517.89	12032.69
518.06	12079.50
518.24	12358.03
518.41	12212.92
518.58	12208.23
518.75	12287.81
518.93	12273.77
519.10	12372.07
519.27	12287.81
519.45	12313.56
519.62	12432.93
519.79	12793.37
519.96	12404.84
520.14	12629.53
520.31	12486.76
520.48	12662.30
520.65	12779.32
520.83	12737.20
521.00	12650.60
521.17	12788.69
521.34	12461.01
521.52	12692.73
521.69	12812.09
521.86	12732.51
522.03	12889.33
522.20	12767.62
522.38	12964.23
522.55	12753.58
522.72	12737.20
522.89	13181.90
523.07	13053.17
523.24	12844.86
523.41	12964.23
523.58	12971.25
523.75	12961.89
523.92	12870.61
524.10	13128.06
524.27	13116.36
524.44	13102.32
524.61	13336.37
524.78	13231.05
524.96	13331.69
525.13	13397.23
525.30	13465.10
525.47	13305.95
525.64	13202.96
525.81	13703.84
525.98	13486.17
526.16	13504.89
526.33	13537.66
526.50	13551.70
526.67	13437.02
526.84	13373.82
527.01	13411.27
527.18	13650.00
527.36	13497.87
527.53	13666.39
527.70	13755.33
527.87	13781.07
528.04	13348.08
528.21	13708.52
528.38	13563.40
528.55	13818.52
528.72	13612.56
528.89	13528.30
529.07	13855.97
529.24	13654.69
529.41	14164.92
529.58	14003.43
529.75	13699.16
529.92	13886.40
530.09	13722.56
530.26	13989.38
530.43	14054.92
530.60	13771.71
530.77	13940.23
530.94	14024.49
531.11	14263.22
531.28	14106.41
531.46	13877.04
531.63	14272.59
531.80	14104.07
531.97	14204.71
532.14	14197.69
532.31	13933.21
532.48	14024.49
532.65	14129.81
532.82	14232.80
532.99	14197.69
533.16	14483.24
533.33	14108.75
533.50	14497.28
533.67	14471.53
533.84	14445.79
534.01	14310.04
534.18	14265.57
534.35	14384.93
534.52	14485.58
534.69	14567.49
534.86	14724.31
535.03	14558.13
535.20	14752.40
535.37	14747.72
535.54	14616.65
535.71	14562.81
535.88	14684.52
536.05	14537.07
536.22	14864.74
536.38	15049.64
536.55	14743.03
536.72	14967.73
536.89	14757.08
537.06	14764.10
537.23	14981.77
537.40	14736.01
537.57	14754.74
537.74	14890.49
537.91	15377.32
538.08	15246.25
538.25	14979.43
538.42	14944.32
538.59	15063.69
538.75	15016.88
538.92	14953.68
539.09	14724.31
539.26	15164.33
539.43	15082.41
539.60	15171.35
539.77	15391.36
539.94	15393.70
540.11	15447.54
540.28	15377.32
540.44	15159.65
540.61	15531.80
540.78	15438.17
540.95	15515.41
541.12	15606.69
541.29	15927.35
541.46	15749.46
541.62	15377.32
541.79	15908.62
541.96	15477.96
542.13	15763.51
542.30	15798.62
542.47	15906.28
542.63	15859.47
542.80	15786.91
542.97	15840.75
543.14	15852.45
543.31	15744.78
543.48	15908.62
543.64	16009.26
543.81	16037.35
543.98	15845.43
544.15	16109.91
544.32	16095.86
544.48	16180.12
544.65	15679.25
544.82	15847.77
544.99	15943.73
545.16	15992.88
545.32	16121.61
545.49	16683.34
545.66	17025.06
545.83	17406.56
546.00	17118.68
546.16	16498.44
546.33	16180.12
546.50	16074.80
546.67	16166.08
546.83	15733.08
547.00	15815.00
547.17	16002.24
547.34	15925.00
547.50	16053.73
547.67	16280.77
547.84	15981.18
548.00	16058.42
548.17	16358.00
548.34	15864.15
548.51	16081.82
548.67	16198.85
548.84	16255.02
549.01	16060.76
549.18	16156.72
549.34	16093.52
549.51	16341.62
549.68	16166.08
549.84	16173.10
550.01	16006.92
550.18	16336.94
550.34	16116.93
550.51	16194.17
550.68	16301.83
550.84	16180.12
551.01	16374.39
551.18	16107.57
551.34	16053.73
551.51	16184.80
551.68	15955.43
551.84	16194.17
552.01	16245.66
552.18	16070.12
552.34	16121.61
552.51	16299.49
552.68	16011.60
552.84	16320.56
553.01	16322.90
553.18	16362.69
553.34	16299.49
553.51	16212.89
553.67	16498.44
553.84	16517.16
554.01	16533.54
554.17	16163.74
554.34	16203.53
554.51	16074.80
554.67	16327.58
554.84	16137.99
555.00	16091.18
555.17	16325.24
555.33	16592.06
555.50	16524.18
555.67	16095.86
555.83	16156.72
556.00	16294.81
556.16	16734.83
556.33	16470.35
556.50	16383.75
556.66	16587.38
556.83	16252.68
556.99	16453.97
557.16	16617.80
557.32	16482.05
557.49	16631.85
557.65	16681.00
557.82	16355.66
557.98	16343.96
558.15	16262.04
558.32	16655.25
558.48	16538.23
558.65	16657.59
558.81	16334.60
558.98	16608.44
559.14	16367.37
559.31	16046.71
559.47	16552.27
559.64	16360.34
559.80	16325.24
559.97	16503.12
560.13	16807.39
560.30	16451.63
560.46	16465.67
560.63	16458.65
560.79	16819.09
560.96	16563.97
561.12	16435.24
561.29	16276.09
561.45	16603.76
561.61	16798.02
561.78	16788.66
561.94	16826.11
562.11	16603.76
562.27	16755.90
562.44	16734.83
562.60	16212.89
562.77	16453.97
562.93	16489.07
563.10	16552.27
563.26	16751.21
563.42	16826.11
563.59	16903.35
563.75	16673.98
563.92	16816.75
564.08	16681.00
564.24	16788.66
564.41	16528.86
564.57	16751.21
564.74	16435.24
564.90	16322.90
565.07	16833.13
565.23	16833.13
565.39	16739.51
565.56	16671.64
565.72	16835.47
565.88	16702.06
566.05	16652.91
566.21	16886.97
566.38	16428.22
566.54	16751.21
566.70	16676.32
566.87	16877.60
567.03	16851.86
567.19	17011.01
567.36	16615.46
567.52	16732.49
567.68	16830.79
567.85	16568.65
568.01	16741.85
568.17	16594.40
568.34	16847.18
568.50	16847.18
568.66	16615.46
568.83	16746.53
568.99	16868.24
569.15	16816.75
569.32	16589.72
569.48	16547.59
569.64	16629.51
569.81	17027.40
569.97	16634.19
570.13	16767.60
570.30	16819.09
570.46	16901.01
570.62	16676.32
570.78	16802.71
570.95	16596.74
571.11	16872.92
571.27	16468.01
571.43	16751.21
571.60	16856.54
571.76	16779.30
571.92	16772.28
572.09	16730.15
572.25	16872.92
572.41	16702.06
572.57	16905.69
572.74	16711.42
572.90	16669.30
573.06	16683.34
573.22	16748.87
573.38	16568.65
573.55	16975.91
573.71	17095.27
573.87	17048.46
574.03	16751.21
574.20	16833.13
574.36	16748.87
574.52	16690.36
574.68	16814.41
574.84	16781.64
575.01	16858.88
575.17	17003.99
575.33	16678.66
575.49	16482.05
575.65	16826.11
575.82	16760.58
575.98	16828.45
576.14	17146.76
576.30	17018.04
576.46	17048.46
576.62	17053.14
576.79	17521.25
576.95	16919.73
577.11	16805.05
577.27	16774.62
577.43	16992.29
577.59	16699.72
577.75	16830.79
577.92	16608.44
578.08	17013.35
578.24	16652.91
578.40	16924.41
578.56	17008.67
578.72	17252.09
578.88	17041.44
579.04	16936.12
579.21	17029.74
579.37	17020.38
579.53	17081.23
579.69	16748.87
579.85	16908.03
580.01	17078.89
580.17	16957.18
580.33	17144.42
580.49	17083.57
580.65	16695.04
580.82	17027.40
580.98	16856.54
581.14	16795.68
581.30	17029.74
581.46	16915.05
581.62	16908.03
581.78	17116.34
581.94	16854.20
582.10	16971.22
582.26	16861.22
582.42	16856.54
582.58	16987.61
582.74	17074.21
582.90	17224.00
583.06	17116.34
583.22	16760.58
583.38	16840.15
583.54	16980.59
583.70	16959.52
583.86	16994.63
584.02	17092.93
584.18	17146.76
584.34	17043.78
584.50	17188.89
584.66	17160.81
584.82	17099.95
584.98	17067.19
585.14	17055.48
585.30	16879.94
585.46	16744.19
585.62	16755.90
585.78	17057.82
585.94	16758.24
586.10	16856.54
586.26	17160.81
586.42	17011.01
586.58	17095.27
586.74	17123.36
586.90	16865.90
587.06	17078.89
587.22	17226.34
587.38	16924.41
587.54	17095.27
587.70	16992.29
587.86	17050.80
588.02	16954.84
588.18	17256.77
588.34	17151.45
588.49	16917.39
588.65	16945.48
588.81	16996.97
588.97	17231.02
589.13	16791.00
589.29	16945.48
589.45	17137.40
589.61	17151.45
589.77	17221.66
589.93	16861.22
590.08	17366.78
590.24	16961.86
590.40	16931.44
590.56	17149.11
590.72	17020.38
590.88	17046.12
591.04	17102.29
591.20	17317.62
591.35	17184.21
591.51	17511.89
591.67	17130.38
591.83	17128.04
591.99	17022.72
592.15	17362.09
592.31	17064.85
592.46	17011.01
592.62	17329.33
592.78	17130.38
592.94	17231.02
593.10	17144.42
593.26	17422.95
593.41	17118.68
593.57	17088.25
593.73	17226.34
593.89	17341.03
594.05	17090.59
594.20	17238.05
594.36	17102.29
594.52	16854.20
594.68	16872.92
594.84	17163.15
594.99	17083.57
595.15	17366.78
595.31	16996.97
595.47	17167.83
595.62	17378.48
595.78	17231.02
595.94	17284.86
596.10	17078.89
596.25	17121.02
596.41	17186.55
596.57	17067.19
596.73	17055.48
596.88	17001.65
597.04	16919.73
597.20	17310.60
597.36	17123.36
597.51	17268.47
597.67	17022.72
597.83	16978.25
597.99	17114.00
598.14	17078.89
598.30	17212.30
598.46	17287.20
598.61	17015.69
598.77	16877.60
598.93	16994.63
599.09	17193.58
599.24	17268.47
599.40	17207.62
599.56	17324.65
599.71	17001.65
599.87	17177.19
600.03	17249.75
600.18	17132.72
600.34	17071.87
600.50	17039.10
600.65	17011.01
600.81	17128.04
600.97	17032.08
601.12	17104.64
601.28	16908.03
601.44	17207.62
601.59	16891.65
601.75	16879.94
601.91	16950.16
602.06	16975.91
602.22	16807.39
602.37	17085.91
602.53	16952.50
602.69	17123.36
602.84	17090.59
603.00	17151.45
603.16	17240.39
603.31	17137.40
603.47	16840.15
603.62	16760.58
603.78	17135.06
603.94	17062.51
604.09	17076.55
604.25	16870.58
604.40	16959.52
604.56	16898.67
604.71	17123.36
604.87	16952.50
605.03	17088.25
605.18	17303.58
605.34	16919.73
605.49	16870.58
605.65	17011.01
605.80	16678.66
605.96	17041.44
606.12	16823.77
606.27	16652.91
606.43	16943.14
606.58	16936.12
606.74	16919.73
606.89	16828.45
607.05	17326.99
607.20	17062.51
607.36	16851.86
607.51	16812.07
607.67	16865.90
607.82	16816.75
607.98	16769.94
608.13	16601.42
608.29	16739.51
608.44	16884.62
608.60	16999.31
608.75	16889.31
608.91	17392.52
609.06	16950.16
609.22	17137.40
609.37	16891.65
609.53	16898.67
609.68	16739.51
609.84	17013.35
609.99	17003.99
610.15	17502.53
610.30	17317.62
610.46	17547.00
610.61	17771.69
610.76	17858.29
610.92	18120.43
611.07	17834.88
611.23	18260.86
611.38	18361.50
611.54	18071.28
611.69	17523.59
611.84	17642.96
612.00	17202.94
612.15	17179.53
612.31	17252.09
612.46	17106.98
612.62	17076.55
612.77	16987.61
612.92	17116.34
613.08	17078.89
613.23	16968.88
613.39	16945.48
613.54	16636.53
613.69	16823.77
613.85	16924.41
614.00	16786.32
614.15	16933.78
614.31	16758.24
614.46	17011.01
614.62	16655.25
614.77	16975.91
614.92	17034.42
615.08	16760.58
615.23	16531.20
615.38	16500.78
615.54	16627.17
615.69	16470.35
615.84	16444.60
616.00	16568.65
616.15	16699.72
616.30	16683.34
616.46	16402.47
616.61	16650.57
616.76	16451.63
616.92	16149.70
617.07	16711.42
617.22	16505.46
617.37	16219.91
617.53	16526.52
617.68	16222.25
617.83	16336.94
617.99	16217.57
618.14	16620.14
618.29	16519.50
618.45	16482.05
618.60	16051.39
618.75	16208.21
618.90	16582.70
619.06	16496.10
619.21	16311.19
619.36	16201.19
619.51	16161.40
619.67	16196.51
619.82	16049.05
619.97	16313.53
620.12	16203.53
620.28	16205.87
620.43	16137.99
620.58	16395.45
620.73	16140.33
620.89	16304.17
621.04	16262.04
621.19	16208.21
621.34	16322.90
621.49	15925.00
621.65	16177.78
621.80	16329.92
621.95	16044.37
622.10	16002.24
622.25	16016.29
622.41	16107.57
622.56	16126.29
622.71	16250.34
622.86	16266.72
623.01	16114.59
623.16	16081.82
623.32	15920.32
623.47	16060.76
623.62	15887.56
623.77	15880.53
623.92	16081.82
624.07	15957.77
624.23	15915.64
624.38	16065.44
624.53	15953.09
624.68	16011.60
624.83	16271.40
624.98	16046.71
625.13	15803.30
625.29	15833.72
625.44	15941.39
625.59	15917.98
625.74	15948.41
625.89	15740.10
626.04	15536.48
626.19	15634.78
626.34	15796.28
626.49	15735.42
626.65	15833.72
626.80	15817.34
626.95	15859.47
627.10	15763.51
627.25	15796.28
627.40	16006.92
627.55	15880.53
627.70	15845.43
627.85	15712.02
628.00	15590.31
628.15	15623.08
628.30	15522.43
628.45	15707.34
628.60	15529.45
628.76	15704.99
628.91	15400.72
629.06	15707.34
629.21	15857.13
629.36	15559.88
629.51	15515.41
629.66	15522.43
629.81	15438.17
629.96	15307.10
630.11	15634.78
630.26	15541.16
630.41	15367.96
630.56	15470.94
630.71	15602.01
630.86	15335.19
631.01	15569.24
631.16	15667.55
631.31	15524.77
631.46	15494.35
631.61	15379.66
631.76	15482.64
631.91	15538.82
632.06	15309.44
632.21	15267.31
632.36	15325.83
632.51	15119.86
632.66	15208.80
632.81	15192.42
632.96	15129.22
633.10	15150.29
633.25	15232.21
633.40	15349.23
633.55	15520.09
633.70	15030.92
633.85	15222.84
634.00	15178.37
634.15	15391.36
634.30	15108.16
634.45	15169.01
634.60	15190.08
634.75	15351.57
634.90	15290.72
635.05	15431.15
635.19	15166.67
635.34	15054.33
635.49	15019.22
635.64	15194.76
635.79	15220.50
635.94	15208.80
636.09	14885.81
636.24	15042.62
636.39	15012.20
636.53	15089.43
636.68	14731.33
636.83	15105.82
636.98	15066.03
637.13	14934.96
637.28	15250.93
637.43	15096.46
637.57	15056.67
637.72	15176.03
637.87	15082.41
638.02	14843.68
638.17	15044.96
638.32	14958.36
638.46	14958.36
638.61	15143.27
638.76	14902.19
638.91	14738.35
639.06	14827.29
639.20	14902.19
639.35	14916.23
639.50	14796.87
639.65	15199.44
639.80	14951.34
639.94	14977.09
640.09	14995.81
640.24	14923.26
640.39	14834.32
640.54	14661.12
640.68	14998.15
640.83	14583.88
640.98	14513.66
641.13	14710.27
641.27	14939.64
641.42	14801.55
641.57	14736.01
641.72	14871.76
641.86	14911.55
642.01	14689.20
642.16	15021.56
642.31	14635.37
642.45	14848.36
642.60	14642.39
642.75	14579.20
642.90	14513.66
643.04	14640.05
643.19	14389.61
643.34	14736.01
643.48	14738.35
643.63	14375.57
643.78	14562.81
643.93	14853.04
644.07	14710.27
644.22	14560.47
644.37	14375.57
644.51	14300.67
644.66	14555.79
644.81	14555.79
644.95	14508.98
645.10	14504.30
645.25	14473.87
645.39	14728.99
645.54	14427.06
645.69	14710.27
645.83	14487.92
645.98	14626.01
646.13	14604.94
646.27	14544.09
646.42	14611.96
646.57	14288.97
646.71	14260.88
646.86	14394.29
647.00	14176.62
647.15	14422.38
647.30	14270.25
647.44	14298.33
647.59	14150.88
647.74	14406.00
647.88	14258.54
648.03	14193.01
648.17	14558.13
648.32	14562.81
648.47	14569.83
648.61	14368.55
648.76	14506.64
648.90	14377.91
649.05	14148.54
649.20	14267.91
649.34	14139.18
649.49	14242.16
649.63	14143.86
649.78	14305.35
649.92	14422.38
650.07	14298.33
650.21	14356.85
650.36	14359.19
650.51	14108.75
650.65	14221.10
650.80	14354.51
650.94	14188.33
651.09	13970.66
651.23	14452.81
651.38	13951.93
651.52	13961.30
651.67	13909.80
651.81	14003.43
651.96	14237.48
652.10	14237.48
652.25	14001.08
652.39	14312.38
652.54	14202.37
652.68	14132.15
652.83	14281.95
652.97	14281.95
653.12	14190.67
653.26	14068.96
653.41	14389.61
653.55	13912.14
653.70	13949.59
653.84	14209.39
653.99	13928.53
654.13	14022.15
654.27	13984.70
654.42	13937.89
654.56	13823.20
654.71	13994.06
654.85	13914.48
655.00	13888.74
655.14	13987.04
655.29	13799.80
655.43	14106.41
655.57	13870.01
655.72	13738.94
655.86	13874.70
656.01	14113.43
656.15	13418.29
656.30	13668.73
656.44	13816.18
656.58	13886.40
656.73	14148.54
656.87	13877.04
657.01	13891.08
657.16	13867.67
657.30	13839.59
657.45	13867.67
657.59	13745.97
657.73	13544.68
657.88	13996.40
658.02	13844.27
658.16	13551.70
658.31	13668.73
658.45	13605.53
658.60	13535.32
658.74	13717.88
658.88	13703.84
659.03	13724.90
659.17	13699.16
659.31	13664.05
659.46	13631.28
659.60	13638.30
659.74	13825.54
659.89	13685.11
660.03	13422.97
660.17	13645.32
660.32	13600.85
660.46	13621.92
660.60	13343.39
660.74	13432.33
660.89	13350.42
661.03	13385.52
661.17	13319.99
661.32	13289.56
661.46	13270.84
661.60	13411.27
661.74	13317.65
661.89	13387.86
662.03	13408.93
662.17	13303.60
662.31	13200.62
662.46	13289.56
662.60	13298.92
662.74	13219.35
662.88	13064.87
663.03	13275.52
663.17	13268.50
663.31	13212.32
663.45	13020.40
663.60	13359.78
663.74	13245.09
663.88	12971.25
664.02	13226.37
664.17	13149.13
664.31	13167.85
664.45	13146.79
664.59	13011.04
664.73	12861.24
664.88	12989.97
665.02	12950.18
665.16	12901.03
665.30	12704.43
665.44	12936.14
665.59	12739.54
665.73	12812.09
665.87	12807.41
666.01	12877.63
666.15	12812.09
666.29	12772.30
666.44	12809.75
666.58	12746.56
666.72	12674.00
666.86	12746.56
667.00	12683.36
667.14	12599.10
667.28	12666.98
667.43	12517.18
667.57	12676.34
667.71	12582.72
667.85	12468.03
667.99	12479.74
668.13	12781.67
668.27	12549.95
668.41	12606.13
668.56	12362.71
668.70	12425.90
668.84	12238.66
668.98	12477.40
669.12	12549.95
669.26	12360.37
669.40	12526.55
669.54	12313.56
669.68	12475.06
669.82	12170.79
669.96	12226.96
670.10	12339.30
670.25	12301.86
670.39	12283.13
670.53	12063.12
670.67	12028.01
670.81	12035.03
670.95	12486.76
671.09	12262.07
671.23	12313.56
671.37	12219.94
671.51	12182.49
671.65	12189.51
671.79	11960.14
671.93	11864.18
672.07	11899.28
672.21	11810.34
672.35	11803.32
672.49	11978.86
672.63	11948.43
672.77	11660.55
672.91	11850.13
673.05	11815.02
673.19	11836.09
673.33	11775.24
673.47	11702.68
673.61	11707.36
673.75	11747.15
673.89	11653.53
674.03	11625.44
674.17	11740.13
674.31	11674.59
674.45	11487.35
674.59	11573.95
674.73	11466.28
674.87	11559.91
675.01	11445.22
675.15	11487.35
675.29	11337.56
675.43	11494.37
675.56	11447.56
675.70	11466.28
675.84	11382.03
675.98	11265.00
676.12	11316.49
676.26	11239.25
676.40	11433.52
676.54	11321.17
676.68	11087.12
676.82	11087.12
676.96	11192.44
677.10	11007.54
677.23	10827.32
677.37	10916.26
677.51	10988.82
677.65	10871.79
677.79	10829.66
677.93	10801.57
678.07	10824.98
678.21	10640.08
678.34	10780.51
678.48	10853.06
678.62	11197.12
678.76	10696.25
678.90	10703.27
679.04	10752.42
679.18	10721.99
679.31	10600.29
679.45	10342.83
679.59	10504.32
679.73	10457.51
679.87	10342.83
680.00	10324.10
680.14	10448.15
680.28	10310.06
680.42	10429.43
680.56	10410.70
680.70	10389.64
680.83	10260.91
680.97	10024.51
681.11	10195.37
681.25	10284.31
681.39	10324.10
681.52	10197.71
681.66	10113.45
681.80	9895.78
681.94	10195.37
682.07	9951.96
682.21	9958.98
682.35	9987.07
682.49	9790.46
682.62	9991.75
682.76	9689.82
682.90	9844.29
683.04	9774.08
683.17	9954.30
683.31	9839.61
683.45	9710.88
683.59	9731.95
683.72	9839.61
683.86	9755.35
684.00	9834.93
684.13	9776.42
684.27	9481.51
684.41	9462.79
684.55	9420.66
684.68	9343.42
684.82	9458.10
684.96	9329.38
685.09	9240.44
685.23	9467.47
685.37	9254.48
685.50	9378.53
685.64	9350.44
685.78	9132.77
685.91	9352.78
686.05	9298.95
686.19	9006.38
686.32	9221.71
686.46	9214.69
686.60	8980.64
686.73	9146.81
686.87	9132.77
687.01	8809.78
687.14	8987.66
687.28	8711.47
687.42	8835.52
687.55	8772.33
687.69	8685.73
687.82	8610.83
687.96	8718.50
688.10	8748.92
688.23	8945.53
688.37	8809.78
688.50	8634.24
688.64	8664.66
688.78	8615.51
688.91	8765.31
689.05	8671.68
689.18	8449.33
689.32	8290.18
689.46	8498.49
689.59	8472.74
689.73	8397.84
689.86	8248.05
690.00	8201.24
690.13	8524.23
690.27	8287.84
690.41	8236.35
690.54	8119.32
690.68	8212.94
690.81	8112.30
690.95	8149.75
691.08	8255.07
691.22	8025.70
691.35	7983.57
691.49	8049.10
691.62	7822.07
691.76	7964.84
691.89	8004.63
692.03	7698.02
692.16	7824.41
692.30	7882.92
692.43	7758.88
692.57	7733.13
692.70	7763.56
692.84	7693.34
692.97	7913.35
693.11	7705.04
693.24	7740.15
693.38	7747.17
693.51	7728.45
693.65	7552.91
693.78	7840.79
693.92	7562.27
694.05	7492.05
694.19	7531.84
694.32	7358.64
694.45	7293.11
694.59	7166.72
694.72	7213.53
694.86	7337.58
694.99	7176.08
695.13	7272.04
695.26	7283.75
695.39	7176.08
695.53	7187.79
695.66	7178.42
695.80	7070.76
695.93	7052.03
696.07	7197.15
696.20	7199.49
696.33	7056.72
696.47	6913.94
696.60	7059.06
696.73	6885.86
696.87	6841.39
697.00	6855.43
697.14	6593.29
697.27	6768.83
697.40	6841.39
697.54	6640.10
697.67	6562.86
697.80	6726.70
697.94	6635.42
698.07	6567.54
698.21	6537.12
698.34	6658.82
698.47	6530.09
698.61	6607.33
698.74	6675.21
698.87	6595.63
699.01	6473.92
699.14	6387.32
699.27	6424.77
699.40	6436.47
699.54	6354.55
699.67	6209.44
699.80	6443.49
699.94	6296.04
700.07	6349.87
700.20	6146.25
700.34	6179.01
700.47	6106.46
700.60	6134.54
700.73	6284.34
700.87	6064.33
701.00	6157.95
701.13	6122.84
701.26	5966.03
701.40	6076.03
701.53	6033.90
701.66	6003.47
701.79	5893.47
701.93	5806.87
702.06	5804.53
702.19	5767.08
702.32	5923.90
702.46	5717.93
702.59	5823.25
702.72	5682.82
702.85	5734.31
702.99	5668.78
703.12	5769.42
703.25	5563.45
703.38	5572.82
703.51	5671.12
703.65	5769.42
703.78	5458.13
703.91	5542.39
704.04	5479.19
704.17	5448.77
704.31	5584.52
704.44	5373.87
704.57	5453.45
704.70	5423.02
704.83	5177.26
704.96	5329.40
705.10	5191.31
705.23	5362.17
>>>>>End Processed Spectral Data<<<<<
