SpectraSuite Data File
++++++++++++++++++++++++++++++++++++
Date: Fri Oct 04 11:40:04 GMT-05:00 2013
User: price-jones
Dark Spectrum Present: No
Reference Spectrum Present: No
Number of Sampled Component Spectra: 1
Spectrometers: USB2+H05261
Integration Time (usec): 100000 (USB2+H05261)
Spectra Averaged: 1 (USB2+H05261)
Boxcar Smoothing: 0 (USB2+H05261)
Correct for Electrical Dark: No (USB2+H05261)
Strobe/Lamp Enabled: No (USB2+H05261)
Correct for Detector Non-linearity: No (USB2+H05261)
Correct for Stray Light: No (USB2+H05261)
Number of Pixels in Processed Spectrum: 2048
>>>>>Begin Processed Spectral Data<<<<<
365.73	112.35
365.92	112.35
366.12	112.35
366.32	14.04
366.52	0.00
366.72	0.00
366.91	0.00
367.11	0.00
367.31	0.00
367.51	0.00
367.70	0.00
367.90	18.72
368.10	14.04
368.30	0.00
368.49	0.00
368.69	16.38
368.89	0.00
369.09	0.00
369.28	11.70
369.48	0.00
369.68	0.00
369.87	0.00
370.07	0.00
370.27	4.68
370.47	58.51
370.66	0.00
370.86	35.11
371.06	79.58
371.25	147.45
371.45	16.38
371.65	121.71
371.84	58.51
372.04	70.22
372.24	124.05
372.44	121.71
372.63	25.75
372.83	112.35
373.03	152.13
373.22	133.41
373.42	23.41
373.62	154.48
373.81	128.73
374.01	110.01
374.21	140.43
374.40	114.69
374.60	152.13
374.79	175.54
374.99	152.13
375.19	138.09
375.38	128.73
375.58	145.11
375.78	205.97
375.97	194.26
376.17	201.29
376.37	191.92
376.56	198.95
376.76	168.52
376.95	196.60
377.15	166.18
377.35	147.45
377.54	131.07
377.74	91.28
377.93	119.37
378.13	163.84
378.33	110.01
378.52	107.66
378.72	117.03
378.91	203.63
379.11	88.94
379.31	112.35
379.50	95.96
379.70	102.98
379.89	168.52
380.09	93.62
380.28	131.07
380.48	145.11
380.68	114.69
380.87	65.54
381.07	210.65
381.26	173.20
381.46	131.07
381.65	159.16
381.85	117.03
382.04	180.22
382.24	163.84
382.43	159.16
382.63	70.22
382.83	107.66
383.02	184.90
383.22	196.60
383.41	88.94
383.61	191.92
383.80	187.24
384.00	117.03
384.19	161.50
384.39	88.94
384.58	133.41
384.78	159.16
384.97	222.35
385.17	128.73
385.36	107.66
385.56	95.96
385.75	98.30
385.95	110.01
386.14	156.82
386.34	131.07
386.53	138.09
386.72	126.39
386.92	128.73
387.11	154.48
387.31	234.05
387.50	133.41
387.70	86.60
387.89	184.90
388.09	168.52
388.28	124.05
388.48	138.09
388.67	236.39
388.86	124.05
389.06	154.48
389.25	187.24
389.45	107.66
389.64	121.71
389.84	163.84
390.03	145.11
390.22	194.26
390.42	133.41
390.61	161.50
390.81	177.88
391.00	107.66
391.19	182.56
391.39	168.52
391.58	191.92
391.78	112.35
391.97	191.92
392.16	152.13
392.36	175.54
392.55	189.58
392.75	156.82
392.94	138.09
393.13	262.14
393.33	177.88
393.52	196.60
393.71	250.44
393.91	217.67
394.10	126.39
394.29	170.86
394.49	168.52
394.68	248.10
394.88	229.37
395.07	208.31
395.26	166.18
395.46	126.39
395.65	194.26
395.84	196.60
396.04	252.78
396.23	173.20
396.42	166.18
396.62	182.56
396.81	210.65
397.00	241.08
397.19	182.56
397.39	166.18
397.58	299.59
397.77	184.90
397.97	156.82
398.16	222.35
398.35	201.29
398.55	257.46
398.74	201.29
398.93	128.73
399.12	238.73
399.32	248.10
399.51	208.31
399.70	255.12
399.90	250.44
400.09	257.46
400.28	290.23
400.47	201.29
400.67	299.59
400.86	220.01
401.05	215.33
401.24	287.89
401.44	269.16
401.63	252.78
401.82	266.82
402.01	224.69
402.21	262.14
402.40	285.55
402.59	243.42
402.78	264.48
402.97	287.89
403.17	259.80
403.36	215.33
403.55	257.46
403.74	374.49
403.93	337.04
404.13	355.76
404.32	393.21
404.51	409.59
404.70	365.12
404.89	383.85
405.09	360.44
405.28	313.63
405.47	285.55
405.66	341.72
405.85	283.20
406.05	311.29
406.24	332.36
406.43	271.50
406.62	311.29
406.81	355.76
407.00	320.65
407.20	402.57
407.39	369.80
407.58	327.68
407.77	397.89
407.96	390.87
408.15	351.08
408.34	348.74
408.54	376.83
408.73	308.95
408.92	386.19
409.11	411.93
409.30	390.87
409.49	449.38
409.68	360.44
409.87	435.34
410.07	404.91
410.26	475.13
410.45	489.17
410.64	362.78
410.83	395.55
411.02	428.32
411.21	533.64
411.40	447.04
411.59	430.66
411.78	461.09
411.98	458.74
412.17	451.72
412.36	486.83
412.55	482.15
412.74	524.28
412.93	533.64
413.12	409.59
413.31	510.24
413.50	547.69
413.69	507.90
413.88	585.13
414.07	580.45
414.26	491.51
414.45	521.94
414.64	592.16
414.83	596.84
415.02	662.37
415.22	615.56
415.41	596.84
415.60	540.66
415.79	564.07
415.98	554.71
416.17	571.09
416.36	620.24
416.55	627.26
416.74	606.20
416.93	678.76
417.12	580.45
417.31	741.95
417.50	645.99
417.69	655.35
417.88	601.52
418.07	615.56
418.26	662.37
418.45	608.54
418.64	704.50
418.83	582.79
419.02	603.86
419.21	624.92
419.39	613.22
419.58	674.07
419.77	641.31
419.96	821.53
420.15	662.37
420.34	709.18
420.53	671.73
420.72	765.36
420.91	648.33
421.10	697.48
421.29	802.80
421.48	732.59
421.67	716.20
421.86	732.59
422.05	793.44
422.24	643.65
422.43	695.14
422.61	751.31
422.80	767.70
422.99	828.55
423.18	791.10
423.37	793.44
423.56	758.33
423.75	716.20
423.94	746.63
424.13	774.72
424.32	706.84
424.50	784.08
424.69	777.06
424.88	746.63
425.07	802.80
425.26	739.61
425.45	814.51
425.64	676.41
425.83	725.57
426.01	788.76
426.20	842.59
426.39	741.95
426.58	786.42
426.77	662.37
426.96	737.27
427.15	826.21
427.33	807.48
427.52	779.40
427.71	770.04
427.90	835.57
428.09	688.12
428.28	819.19
428.46	793.44
428.65	821.53
428.84	854.30
429.03	812.17
429.22	851.96
429.40	826.21
429.59	866.00
429.78	849.61
429.97	809.83
430.16	861.32
430.34	929.19
430.53	875.36
430.72	889.40
430.91	788.76
431.10	812.17
431.28	816.85
431.47	788.76
431.66	896.43
431.85	926.85
432.03	905.79
432.22	887.06
432.41	912.81
432.60	924.51
432.79	973.66
432.97	936.21
433.16	915.15
433.35	959.62
433.54	866.00
433.72	931.53
433.91	938.55
434.10	980.68
434.28	978.34
434.47	1013.45
434.66	959.62
434.85	992.39
435.03	1123.46
435.22	1350.49
435.41	1680.50
435.59	1685.19
435.78	1394.96
435.97	1214.74
436.16	1107.07
436.34	1001.75
436.53	1034.52
436.72	1048.56
436.90	966.64
437.09	1062.60
437.28	1036.86
437.46	1027.50
437.65	1139.84
437.84	1107.07
438.02	1018.13
438.21	990.05
438.40	1050.90
438.58	1053.24
438.77	1130.48
438.96	1071.97
439.14	1074.31
439.33	1090.69
439.52	1221.76
439.70	1067.28
439.89	1123.46
440.08	1100.05
440.26	1083.67
440.45	1186.65
440.63	1060.26
440.82	1076.65
441.01	1013.45
441.19	1177.29
441.38	1200.69
441.57	1104.73
441.75	1121.12
441.94	1247.51
442.12	1177.29
442.31	1158.57
442.50	1198.35
442.68	1170.27
442.87	1254.53
443.05	1174.95
443.24	1289.64
443.43	1289.64
443.61	1219.42
443.80	1277.93
443.98	1301.34
444.17	1247.51
444.35	1224.10
444.54	1282.61
444.73	1177.29
444.91	1306.02
445.10	1275.59
445.28	1235.80
445.47	1231.12
445.65	1322.40
445.84	1296.66
446.02	1324.74
446.21	1212.40
446.39	1235.80
446.58	1217.08
446.77	1313.04
446.95	1242.82
447.14	1313.04
447.32	1280.27
447.51	1308.36
447.69	1212.40
447.88	1263.89
448.06	1355.17
448.25	1289.64
448.43	1287.29
448.62	1240.48
448.80	1331.76
448.99	1282.61
449.17	1310.70
449.36	1336.45
449.54	1373.89
449.73	1277.93
449.91	1289.64
450.10	1308.36
450.28	1397.30
450.46	1481.56
450.65	1423.05
450.83	1357.51
451.02	1357.51
451.20	1371.55
451.39	1397.30
451.57	1385.60
451.76	1390.28
451.94	1331.76
452.13	1401.98
452.31	1359.85
452.49	1345.81
452.68	1362.19
452.86	1350.49
453.05	1502.62
453.23	1406.66
453.42	1313.04
453.60	1383.26
453.78	1425.39
453.97	1404.32
454.15	1437.09
454.34	1317.72
454.52	1385.60
454.70	1385.60
454.89	1453.47
455.07	1394.96
455.26	1448.79
455.44	1519.01
455.62	1497.94
455.81	1437.09
455.99	1397.30
456.17	1439.43
456.36	1493.26
456.54	1586.88
456.73	1497.94
456.91	1540.07
457.09	1540.07
457.28	1577.52
457.46	1533.05
457.64	1523.69
457.83	1547.09
458.01	1523.69
458.19	1511.99
458.38	1474.54
458.56	1533.05
458.74	1509.65
458.93	1565.82
459.11	1582.20
459.29	1612.63
459.48	1661.78
459.66	1624.33
459.84	1617.31
460.03	1680.50
460.21	1614.97
460.39	1643.06
460.57	1577.52
460.76	1638.38
460.94	1703.91
461.12	1664.12
461.31	1729.66
461.49	1621.99
461.67	1687.53
461.85	1596.25
462.04	1591.56
462.22	2010.52
462.40	1659.44
462.59	1589.22
462.77	1687.53
462.95	1666.46
463.13	1668.80
463.32	1729.66
463.50	1732.00
463.68	1636.03
463.86	1823.28
464.05	1722.63
464.23	1631.35
464.41	1720.29
464.59	1732.00
464.78	1746.04
464.96	1743.70
465.14	1788.17
465.32	1795.19
465.50	1750.72
465.69	1701.57
465.87	1753.06
466.05	1760.08
466.23	1687.53
466.41	1739.02
466.60	1734.34
466.78	1816.26
466.96	1785.83
467.14	1734.34
467.32	1856.04
467.51	1853.70
467.69	1720.29
467.87	1743.70
468.05	1884.13
468.23	1879.45
468.41	1748.38
468.60	1678.16
468.78	1919.24
468.96	1732.00
469.14	1811.57
469.32	1893.49
469.50	1830.30
469.69	1905.20
469.87	1994.14
470.05	1856.04
470.23	2038.61
470.41	1809.23
470.59	1872.43
470.77	1914.56
470.95	1926.26
471.14	1870.09
471.32	1968.39
471.50	1961.37
471.68	1811.57
471.86	1959.03
472.04	1912.22
472.22	2019.88
472.40	1844.34
472.58	2125.21
472.77	1998.82
472.95	2015.20
473.13	2022.22
473.31	2148.61
473.49	1900.52
473.67	2052.65
473.85	2019.88
474.03	2059.67
474.21	2052.65
474.39	2064.35
474.57	2190.74
474.75	2101.80
474.93	2073.71
475.12	2148.61
475.30	2139.25
475.48	2106.48
475.66	2090.10
475.84	2242.23
476.02	2190.74
476.20	2106.48
476.38	2146.27
476.56	2279.68
476.74	2253.94
476.92	2260.96
477.10	2139.25
477.28	2293.72
477.46	2249.25
477.64	2211.81
477.82	2340.54
478.00	2382.67
478.18	2235.21
478.36	2347.56
478.54	2483.31
478.72	2401.39
478.90	2476.29
479.08	2380.32
479.26	2541.82
479.44	2387.35
479.62	2476.29
479.80	2476.29
479.98	2483.31
480.16	2499.69
480.34	2654.17
480.52	2551.18
480.70	2726.72
480.88	2637.78
481.06	2572.25
481.24	2483.31
481.41	2651.83
481.59	2597.99
481.77	2656.51
481.95	2693.96
482.13	2808.64
482.31	2696.30
482.49	2745.45
482.67	2722.04
482.85	2923.33
483.03	2925.67
483.21	2981.84
483.39	2885.88
483.57	2902.26
483.74	2995.89
483.92	2970.14
484.10	2953.76
484.28	3056.74
484.46	3145.68
484.64	3061.42
484.82	3007.59
485.00	3131.64
485.18	3199.51
485.35	3227.60
485.53	2998.23
485.71	3094.19
485.89	3183.13
486.07	3351.65
486.25	3234.62
486.43	3208.87
486.61	3414.84
486.78	3496.76
486.96	3302.50
487.14	3449.95
487.32	3419.52
487.50	3492.08
487.68	3569.32
487.85	3438.25
488.03	3463.99
488.21	3648.90
488.39	3555.27
488.57	3489.74
488.75	3508.46
488.92	3927.42
489.10	3735.50
489.28	3660.60
489.46	3655.92
489.64	3674.64
489.81	3833.80
489.99	3684.00
490.17	3829.12
490.35	3796.35
490.53	3716.77
490.70	3730.81
490.88	3932.10
491.06	3822.09
491.24	3939.12
491.41	3896.99
491.59	4060.83
491.77	3836.14
491.95	4072.53
492.13	3992.95
492.30	4081.89
492.48	4042.11
492.66	4124.02
492.84	4044.45
493.01	4201.26
493.19	4079.55
493.37	4273.82
493.54	4219.99
493.72	4170.83
493.90	4105.30
494.08	4074.87
494.25	4250.41
494.43	4344.03
494.61	4358.08
494.79	4222.33
494.96	4486.81
495.14	4322.97
495.32	4360.42
495.49	4507.87
495.67	4545.32
495.85	4524.26
496.02	4629.58
496.20	4564.04
496.38	4589.79
496.55	4493.83
496.73	4606.17
496.91	4587.45
497.09	4564.04
497.26	4657.67
497.44	4566.39
497.62	4676.39
497.79	4863.63
497.97	4734.90
498.14	4802.78
498.32	4856.61
498.50	4755.97
498.67	4987.68
498.85	4732.56
499.03	4851.93
499.20	4858.95
499.38	4858.95
499.56	4891.72
499.73	5025.13
499.91	5015.77
500.08	4868.31
500.26	5029.81
500.44	5097.69
500.61	5013.43
500.79	4999.38
500.97	5071.94
501.14	5097.69
501.32	5111.73
501.49	5025.13
501.67	5013.43
501.84	5078.96
502.02	5097.69
502.20	5270.89
502.37	5242.80
502.55	5249.82
502.72	5188.97
502.90	5186.63
503.07	5259.18
503.25	5184.29
503.43	5114.07
503.60	5287.27
503.78	5390.25
503.95	5207.69
504.13	5348.12
504.30	5397.28
504.48	5462.81
504.65	5666.44
504.83	5401.96
505.01	5418.34
505.18	5397.28
505.36	5521.32
505.53	5483.88
505.71	5636.01
505.88	5427.70
506.06	5561.11
506.23	5624.31
506.41	5486.22
506.58	5563.45
506.76	5490.90
506.93	5591.54
507.11	5568.13
507.28	5654.73
507.46	5596.22
507.63	5647.71
507.81	5783.46
507.98	5682.82
508.16	5757.72
508.33	5624.31
508.50	5682.82
508.68	5806.87
508.85	5736.65
509.03	5837.30
509.20	5820.91
509.38	5792.83
509.55	5987.09
509.73	5858.36
509.90	5806.87
510.08	5771.76
510.25	5870.06
510.42	5923.90
510.60	5832.62
510.77	6111.14
510.95	5977.73
511.12	5919.21
511.30	6073.69
511.47	6071.35
511.64	5928.58
511.82	6125.18
511.99	6179.01
512.17	6134.54
512.34	6183.70
512.51	6139.23
512.69	6125.18
512.86	6216.46
513.04	6132.20
513.21	6253.91
513.38	6047.94
513.56	6270.30
513.73	6146.25
513.90	6200.08
514.08	6237.53
514.25	6246.89
514.43	6263.27
514.60	6326.47
514.77	6403.71
514.95	6186.04
515.12	6377.96
515.29	6300.72
515.47	6478.60
515.64	6502.01
515.81	6429.45
515.99	6544.14
516.16	6382.64
516.33	6511.37
516.51	6520.73
516.68	6466.90
516.85	6413.07
517.03	6628.40
517.20	6551.16
517.37	6513.71
517.54	6523.07
517.72	6642.44
517.89	6506.69
518.06	6546.48
518.24	6637.76
518.41	6590.95
518.58	6691.59
518.75	6836.70
518.93	6672.87
519.10	6860.11
519.27	6747.76
519.45	6675.21
519.62	6565.20
519.79	6647.12
519.96	6691.59
520.14	6792.23
520.31	6771.17
520.48	6684.57
520.65	6677.55
520.83	6881.18
521.00	6586.27
521.17	6771.17
521.34	6829.68
521.52	6986.50
521.69	7000.54
521.86	6965.43
522.03	6979.48
522.20	6984.16
522.38	6834.36
522.55	6993.52
522.72	6834.36
522.89	6871.81
523.07	7023.95
523.24	6927.99
523.41	6935.01
523.58	7023.95
523.75	7080.12
523.92	7122.25
524.10	7094.16
524.27	6970.12
524.44	7143.32
524.61	7176.08
524.78	7077.78
524.96	7049.69
525.13	7016.93
525.30	7337.58
525.47	7332.90
525.64	7229.91
525.81	7206.51
525.98	7185.44
526.16	7136.29
526.33	7129.27
526.50	7321.20
526.67	7096.50
526.84	7105.87
527.01	7155.02
527.18	7424.18
527.36	7346.94
527.53	7377.37
527.70	7459.29
527.87	7499.08
528.04	7346.94
528.21	7351.62
528.38	7332.90
528.55	7494.40
528.72	7304.81
528.89	7442.90
529.07	7370.35
529.24	7133.95
529.41	7566.95
529.58	7440.56
529.75	7265.02
529.92	7475.67
530.09	7529.50
530.26	7480.35
530.43	7569.29
530.60	7529.50
530.77	7576.31
530.94	7618.44
531.11	7520.14
531.28	7520.14
531.46	7461.63
531.63	7559.93
531.80	7494.40
531.97	7665.25
532.14	7391.41
532.31	7534.18
532.48	7630.15
532.65	7583.34
532.82	7566.95
532.99	7576.31
533.16	7719.09
533.33	7831.43
533.50	7810.37
533.67	7709.72
533.84	7513.12
534.01	7683.98
534.18	7761.22
534.35	7786.96
534.52	7726.11
534.69	8056.12
534.86	7859.52
535.03	7786.96
535.20	7707.38
535.37	7808.03
535.54	7925.05
535.71	7737.81
535.88	7768.24
536.05	7913.35
536.22	7911.01
536.38	7866.54
536.55	7892.29
536.72	8004.63
536.89	7861.86
537.06	7906.33
537.23	7990.59
537.40	7903.99
537.57	7894.63
537.74	7911.01
537.91	7983.57
538.08	8100.59
538.25	7974.21
538.42	7992.93
538.59	8091.23
538.75	8135.70
538.92	8084.21
539.09	7971.86
539.26	8276.13
539.43	8395.50
539.60	8306.56
539.77	8444.65
539.94	8287.84
540.11	8177.83
540.28	8428.27
540.44	8514.87
540.61	8397.84
540.78	8327.63
540.95	8512.53
541.12	8706.79
541.29	8704.45
541.46	8734.88
541.62	9004.04
541.79	8861.27
541.96	8922.12
542.13	8755.94
542.30	9004.04
542.47	8755.94
542.63	8905.74
542.80	8933.82
542.97	8851.91
543.14	8945.53
543.31	8816.80
543.48	8683.39
543.64	8992.34
543.81	9139.79
543.98	8767.65
544.15	8957.23
544.32	8800.41
544.48	8971.27
544.65	8931.48
544.82	8826.16
544.99	9036.81
545.16	8844.88
545.32	8781.69
545.49	9387.89
545.66	10167.29
545.83	10389.64
546.00	10076.01
546.16	9441.72
546.33	9214.69
546.50	8954.89
546.67	9036.81
546.83	8891.70
547.00	8734.88
547.17	8884.67
547.34	8795.73
547.50	8802.75
547.67	8870.63
547.84	8798.07
548.00	8833.18
548.17	8582.74
548.34	8741.90
548.51	8908.08
548.67	8812.12
548.84	8950.21
549.01	8837.86
549.18	8786.37
549.34	8865.95
549.51	8798.07
549.68	8847.22
549.84	8645.94
550.01	8830.84
550.18	8732.54
550.34	8746.58
550.51	8718.50
550.68	8889.35
550.84	8683.39
551.01	8879.99
551.18	8554.66
551.34	8542.96
551.51	8521.89
551.68	8868.29
551.84	8638.92
552.01	8634.24
552.18	8760.63
552.34	8732.54
552.51	8760.63
552.68	8702.11
552.84	8634.24
553.01	8816.80
553.18	8875.31
553.34	8847.22
553.51	8650.62
553.67	8891.70
553.84	8751.26
554.01	8828.50
554.17	8636.58
554.34	8606.15
554.51	8877.65
554.67	8847.22
554.84	8720.84
555.00	8643.60
555.17	8800.41
555.33	8781.69
555.50	8739.56
555.67	8828.50
555.83	8723.18
556.00	8622.53
556.16	8868.29
556.33	8711.47
556.50	8652.96
556.66	8678.71
556.83	8760.63
556.99	8713.81
557.16	8865.95
557.32	8718.50
557.49	8847.22
557.65	8606.15
557.82	8732.54
557.98	8868.29
558.15	8711.47
558.32	8706.79
558.48	8734.88
558.65	8816.80
558.81	8910.42
558.98	8730.20
559.14	8858.93
559.31	8695.09
559.47	8723.18
559.64	8788.71
559.80	8987.66
559.97	8795.73
560.13	8879.99
560.30	8826.16
560.46	8638.92
560.63	8828.50
560.79	9027.45
560.96	8723.18
561.12	8769.99
561.29	8816.80
561.45	8947.87
561.61	8723.18
561.78	8980.64
561.94	8863.61
562.11	8769.99
562.27	8863.61
562.44	8870.63
562.60	8910.42
562.77	8861.27
562.93	8812.12
563.10	8879.99
563.26	8828.50
563.42	9046.17
563.59	8875.31
563.75	8781.69
563.92	8788.71
564.08	8919.78
564.24	8980.64
564.41	8847.22
564.57	8784.03
564.74	9064.89
564.90	8990.00
565.07	8905.74
565.23	8987.66
565.39	8798.07
565.56	8901.06
565.72	8856.59
565.88	8805.10
566.05	8840.20
566.21	8685.73
566.38	8748.92
566.54	8933.82
566.70	8833.18
566.87	8905.74
567.03	8947.87
567.19	9032.13
567.36	8889.35
567.52	8901.06
567.68	8879.99
567.85	8901.06
568.01	8819.14
568.17	8971.27
568.34	8875.31
568.50	8861.27
568.66	9001.70
568.83	8940.85
568.99	8795.73
569.15	8952.55
569.32	8805.10
569.48	8884.67
569.64	8800.41
569.81	8980.64
569.97	8643.60
570.13	8870.63
570.30	8643.60
570.46	8727.86
570.62	8741.90
570.78	8744.24
570.95	8823.82
571.11	9015.74
571.27	8802.75
571.43	8861.27
571.60	8957.23
571.76	8872.97
571.92	8734.88
572.09	8917.44
572.25	9008.72
572.41	9029.79
572.57	8887.01
572.74	8896.38
572.90	9004.04
573.06	8940.85
573.22	8685.73
573.38	8978.30
573.55	8833.18
573.71	8985.32
573.87	9212.35
574.03	8999.36
574.20	8847.22
574.36	8912.76
574.52	8601.47
574.68	8854.25
574.84	8994.68
575.01	8854.25
575.17	8985.32
575.33	8966.59
575.49	9020.42
575.65	9055.53
575.82	9025.11
575.98	9027.45
576.14	8894.04
576.30	9027.45
576.46	8922.12
576.62	9139.79
576.79	9170.22
576.95	9174.90
577.11	9015.74
577.27	8978.30
577.43	9055.53
577.59	9043.83
577.75	9067.24
577.92	8650.62
578.08	8891.70
578.24	8978.30
578.40	8847.22
578.56	9076.60
578.72	9151.49
578.88	9394.91
579.04	9298.95
579.21	9156.18
579.37	9041.49
579.53	9004.04
579.69	9015.74
579.85	8985.32
580.01	9090.64
580.17	8884.67
580.33	9153.84
580.49	9006.38
580.65	8931.48
580.82	8952.55
580.98	9022.77
581.14	9092.98
581.30	8908.08
581.46	8819.14
581.62	8997.02
581.78	8938.51
581.94	9074.26
582.10	9188.94
582.26	9111.71
582.42	9043.83
582.58	9214.69
582.74	8985.32
582.90	9118.73
583.06	9092.98
583.22	9142.13
583.38	9076.60
583.54	9151.49
583.70	8957.23
583.86	9172.56
584.02	8891.70
584.18	9200.65
584.34	9015.74
584.50	9050.85
584.66	9214.69
584.82	8865.95
584.98	9085.96
585.14	9029.79
585.30	8901.06
585.46	9114.05
585.62	8975.95
585.78	9097.66
585.94	8929.14
586.10	9177.24
586.26	8943.19
586.42	9188.94
586.58	9160.86
586.74	9015.74
586.90	9071.92
587.06	9238.09
587.22	9249.80
587.38	9027.45
587.54	9310.65
587.70	9174.90
587.86	8954.89
588.02	9039.15
588.18	9107.02
588.34	9174.90
588.49	9146.81
588.65	8877.65
588.81	9027.45
588.97	9132.77
589.13	9064.89
589.29	9284.91
589.45	8978.30
589.61	9076.60
589.77	9078.94
589.93	8987.66
590.08	9301.29
590.24	9001.70
590.40	8940.85
590.56	9041.49
590.72	9088.30
590.88	8987.66
591.04	9053.19
591.20	9214.69
591.35	9439.38
591.51	9256.82
591.67	9202.99
591.83	9153.84
591.99	9214.69
592.15	9165.54
592.31	9165.54
592.46	9254.48
592.62	9020.42
592.78	9083.62
592.94	9371.50
593.10	9268.52
593.26	9156.18
593.41	9156.18
593.57	9083.62
593.73	9076.60
593.89	8957.23
594.05	9252.14
594.20	9055.53
594.36	8987.66
594.52	9055.53
594.68	9109.36
594.84	9025.11
594.99	9125.75
595.15	9027.45
595.31	9153.84
595.47	9104.68
595.62	9116.39
595.78	9210.01
595.94	9081.28
596.10	8947.87
596.25	9060.21
596.41	8924.46
596.57	9104.68
596.73	9062.55
596.88	9123.41
597.04	9085.96
597.20	9055.53
597.36	9118.73
597.51	9205.33
597.67	8952.55
597.83	9139.79
597.99	9165.54
598.14	8912.76
598.30	9165.54
598.46	9235.75
598.61	9015.74
598.77	8964.25
598.93	9053.19
599.09	9188.94
599.24	9282.56
599.40	9282.56
599.56	9107.02
599.71	8929.14
599.87	8987.66
600.03	9067.24
600.18	8901.06
600.34	9172.56
600.50	9116.39
600.65	9011.06
600.81	9207.67
600.97	9231.07
601.12	9149.15
601.28	9062.55
601.44	8922.12
601.59	9032.13
601.75	9095.32
601.91	8858.93
602.06	8961.91
602.22	9149.15
602.37	9048.51
602.53	9036.81
602.69	8959.57
602.84	8978.30
603.00	9132.77
603.16	9130.43
603.31	9029.79
603.47	8915.10
603.62	8966.59
603.78	8919.78
603.94	8950.21
604.09	8943.19
604.25	9069.58
604.40	8987.66
604.56	9043.83
604.71	8858.93
604.87	8990.00
605.03	8926.80
605.18	9011.06
605.34	8966.59
605.49	8924.46
605.65	9076.60
605.80	8842.54
605.96	8879.99
606.12	8898.72
606.27	9116.39
606.43	8816.80
606.58	9128.09
606.74	9107.02
606.89	8889.35
607.05	8922.12
607.20	8931.48
607.36	8943.19
607.51	8975.95
607.67	8990.00
607.82	8961.91
607.98	9057.87
608.13	8887.01
608.29	8994.68
608.44	9043.83
608.60	9078.94
608.75	9083.62
608.91	9001.70
609.06	8952.55
609.22	9135.11
609.37	9015.74
609.53	9132.77
609.68	9130.43
609.84	9242.78
609.99	9315.33
610.15	9465.13
610.30	9465.13
610.46	9778.76
610.61	10155.58
610.76	10132.18
610.92	10434.11
611.07	10415.38
611.23	10778.17
611.38	10462.19
611.54	10492.62
611.69	9905.15
611.84	9891.10
612.00	9591.52
612.15	9397.25
612.31	9444.06
612.46	9572.79
612.62	9233.41
612.77	9437.04
612.92	9167.88
613.08	9123.41
613.23	9387.89
613.39	9186.60
613.54	8997.02
613.69	9034.47
613.85	8945.53
614.00	9231.07
614.15	9004.04
614.31	9074.26
614.46	9205.33
614.62	9053.19
614.77	8954.89
614.92	9104.68
615.08	9090.64
615.23	9135.11
615.38	9050.85
615.54	8903.40
615.69	9015.74
615.84	8858.93
616.00	8709.13
616.15	8973.61
616.30	8613.17
616.46	8863.61
616.61	8758.28
616.76	8842.54
616.92	8814.46
617.07	8674.03
617.22	8835.52
617.37	8659.98
617.53	8706.79
617.68	8805.10
617.83	8587.43
617.99	8662.32
618.14	8741.90
618.29	8858.93
618.45	8760.63
618.60	8711.47
618.75	8526.57
618.90	8702.11
619.06	8662.32
619.21	8865.95
619.36	8734.88
619.51	8599.13
619.67	8498.49
619.82	8444.65
619.97	8655.30
620.12	8727.86
620.28	8559.34
620.43	8638.92
620.58	8496.14
620.73	8451.67
620.89	8662.32
621.04	8669.34
621.19	8706.79
621.34	8486.78
621.49	8620.19
621.65	8519.55
621.80	8589.77
621.95	8376.78
622.10	8608.49
622.25	8421.25
622.41	8571.04
622.56	8388.48
622.71	8627.21
622.86	8575.72
623.01	8582.74
623.16	8428.27
623.32	8491.46
623.47	8489.12
623.62	8582.74
623.77	8603.81
623.92	8594.45
624.07	8367.42
624.23	8430.61
624.38	8409.54
624.53	8435.29
624.68	8491.46
624.83	8369.76
624.98	8505.51
625.13	8648.28
625.29	8500.83
625.44	8465.72
625.59	8379.12
625.74	8542.96
625.89	8423.59
626.04	8315.92
626.19	8383.80
626.34	8297.20
626.49	8477.42
626.65	8411.89
626.80	8425.93
626.95	8353.37
627.10	8435.29
627.25	8365.07
627.40	8446.99
627.55	8250.39
627.70	8292.52
627.85	8409.54
628.00	8070.17
628.15	8271.45
628.30	8159.11
628.45	8379.12
628.60	8449.33
628.76	8353.37
628.91	8479.76
629.06	8184.85
629.21	8259.75
629.36	8451.67
629.51	8315.92
629.66	8360.39
629.81	8278.47
629.96	8367.42
630.11	8360.39
630.26	8376.78
630.41	8114.64
630.56	8367.42
630.71	8290.18
630.86	8210.60
631.01	8411.89
631.16	8152.09
631.31	8362.73
631.46	8168.47
631.61	8189.53
631.76	8231.66
631.91	8173.15
632.06	8215.28
632.21	8175.49
632.36	8065.49
632.51	8109.96
632.66	8140.38
632.81	8128.68
632.96	8042.08
633.10	8182.51
633.25	8269.11
633.40	8182.51
633.55	8203.58
633.70	8058.46
633.85	8140.38
634.00	8208.26
634.15	8013.99
634.30	7915.69
634.45	7955.48
634.60	7983.57
634.75	8056.12
634.90	7955.48
635.05	8044.42
635.19	8182.51
635.34	7955.48
635.49	7908.67
635.64	8116.98
635.79	8011.65
635.94	8166.13
636.09	8051.44
636.24	7957.82
636.39	7906.33
636.53	7889.95
636.68	8152.09
636.83	7934.42
636.98	7976.55
637.13	7843.14
637.28	7864.20
637.43	8088.89
637.57	7985.91
637.72	8088.89
637.87	7941.44
638.02	7922.71
638.17	8006.97
638.32	7925.05
638.46	7882.92
638.61	7871.22
638.76	7707.38
638.91	7758.88
639.06	7843.14
639.20	7920.37
639.35	7735.47
639.50	7918.03
639.65	7817.39
639.80	7939.10
639.94	7793.98
640.09	7974.21
640.24	7815.05
640.39	7896.97
640.54	7836.11
640.68	7999.95
640.83	7639.51
640.98	7742.49
641.13	7744.83
641.27	7927.39
641.42	7630.15
641.57	7962.50
641.72	7798.66
641.86	7882.92
642.01	7705.04
642.16	7962.50
642.31	7789.30
642.45	7669.94
642.60	7686.32
642.75	7639.51
642.90	7595.04
643.04	7604.40
643.19	7583.34
643.34	7749.51
643.48	7770.58
643.63	7822.07
643.78	7679.30
643.93	7868.88
644.07	7740.15
644.22	7864.20
644.37	7831.43
644.51	7779.94
644.66	7798.66
644.81	7595.04
644.95	7676.96
645.10	7695.68
645.25	7735.47
645.39	7630.15
645.54	7756.54
645.69	7812.71
645.83	7571.63
645.98	7620.78
646.13	7602.06
646.27	7737.81
646.42	7686.32
646.57	7653.55
646.71	7630.15
646.86	7559.93
647.00	7559.93
647.15	7735.47
647.30	7772.92
647.44	7648.87
647.59	7445.24
647.74	7702.70
647.88	7618.44
648.03	7676.96
648.17	7641.85
648.32	7487.37
648.47	7597.38
648.61	7609.08
648.76	7604.40
648.90	7576.31
649.05	7681.64
649.20	7396.09
649.34	7461.63
649.49	7515.46
649.63	7700.36
649.78	7747.17
649.92	7550.57
650.07	7688.66
650.21	7581.00
650.36	7445.24
650.51	7733.13
650.65	7627.81
650.80	7524.82
650.94	7581.00
651.09	7503.76
651.23	7442.90
651.38	7468.65
651.52	7365.67
651.67	7447.58
651.81	7623.12
651.96	7569.29
652.10	7438.22
652.25	7566.95
652.39	7478.01
652.54	7461.63
652.68	7398.43
652.83	7480.35
652.97	7363.33
653.12	7747.17
653.26	7529.50
653.41	7625.47
653.55	7410.14
653.70	7522.48
653.84	7499.08
653.99	7424.18
654.13	7375.03
654.27	7360.98
654.42	7283.75
654.56	7494.40
654.71	7300.13
654.85	7318.86
655.00	7389.07
655.14	7260.34
655.29	7370.35
655.43	7346.94
655.57	7391.41
655.72	7323.54
655.86	7302.47
656.01	7197.15
656.15	7255.66
656.30	7468.65
656.44	7250.98
656.58	7164.38
656.73	7279.07
656.87	7321.20
657.01	7143.32
657.16	7442.90
657.30	7288.43
657.45	7360.98
657.59	7363.33
657.73	7199.49
657.88	7236.94
658.02	7330.56
658.16	7321.20
658.31	7248.64
658.45	7037.99
658.60	7033.31
658.74	7176.08
658.88	7126.93
659.03	7222.89
659.17	7089.48
659.31	7201.83
659.46	7080.12
659.60	7119.91
659.74	7225.23
659.89	7173.74
660.03	7096.50
660.17	7213.53
660.32	7218.21
660.46	7138.63
660.60	7080.12
660.74	7049.69
660.89	7108.21
661.03	7091.82
661.17	6949.05
661.32	7117.57
661.46	7185.44
661.60	7140.97
661.74	7082.46
661.89	6946.71
662.03	7101.19
662.17	7082.46
662.31	7023.95
662.46	6970.12
662.60	7047.35
662.74	6998.20
662.88	6827.34
663.03	6984.16
663.17	7066.08
663.31	6829.68
663.45	7063.74
663.60	6867.13
663.74	6789.89
663.88	6953.73
664.02	6967.77
664.17	6909.26
664.31	6759.47
664.45	6911.60
664.59	6789.89
664.73	6836.70
664.88	6724.36
665.02	6637.76
665.16	6778.19
665.30	6871.81
665.44	6956.07
665.59	6593.29
665.73	6874.15
665.87	6630.74
666.01	6696.27
666.15	6913.94
666.29	6647.12
666.44	6731.38
666.58	6677.55
666.72	6738.40
666.86	6757.13
667.00	6771.17
667.14	6808.62
667.28	6546.48
667.43	6612.01
667.57	6733.72
667.71	6661.16
667.85	6707.98
667.99	6619.04
668.13	6729.04
668.27	6675.21
668.41	6595.63
668.56	6621.38
668.70	6665.85
668.84	6499.67
668.98	6394.34
669.12	6476.26
669.26	6504.35
669.40	6689.25
669.54	6431.79
669.68	6569.88
669.82	6483.28
669.96	6614.35
670.10	6457.54
670.25	6663.51
670.39	6373.28
670.53	6326.47
670.67	6408.39
670.81	6586.27
670.95	6715.00
671.09	6422.43
671.23	6443.49
671.37	6530.09
671.51	6401.37
671.65	6523.07
671.79	6370.94
671.93	6326.47
672.07	6513.71
672.21	6406.05
672.35	6331.15
672.49	6366.26
672.63	6342.85
672.77	6176.67
672.91	6120.50
673.05	6342.85
673.19	6113.48
673.33	6125.18
673.47	6333.49
673.61	6197.74
673.75	6324.13
673.89	6237.53
674.03	6087.73
674.17	6146.25
674.31	6132.20
674.45	6181.35
674.59	6008.16
674.73	6094.76
674.87	6017.52
675.01	5926.24
675.15	5884.11
675.29	6106.46
675.43	6171.99
675.56	6256.25
675.70	6094.76
675.84	6078.37
675.98	5844.32
676.12	6099.44
676.26	6113.48
676.40	6045.60
676.54	5921.56
676.68	5935.60
676.82	5715.59
676.96	5820.91
677.10	5928.58
677.23	5849.00
677.37	5781.12
677.51	5933.26
677.65	5902.83
677.79	5762.40
677.93	5799.85
678.07	5645.37
678.21	5792.83
678.34	5659.42
678.48	5846.66
678.62	5769.42
678.76	5724.95
678.90	5736.65
679.04	5710.91
679.18	5834.96
679.31	5612.60
679.45	5593.88
679.59	5507.28
679.73	5540.05
679.87	5490.90
680.00	5558.77
680.14	5516.64
680.28	5636.01
680.42	5465.15
680.56	5383.23
680.70	5345.78
680.83	5589.20
680.97	5533.03
681.11	5425.36
681.25	5495.58
681.39	5394.93
681.52	5547.07
681.66	5359.83
681.80	5371.53
681.94	5303.65
682.07	5392.59
682.21	5172.58
682.35	5212.37
682.49	5249.82
682.62	5139.82
682.76	5254.50
682.90	5160.88
683.04	5048.54
683.17	5238.12
683.31	5270.89
683.45	5296.63
683.59	5149.18
683.72	5200.67
683.86	5174.92
684.00	5097.69
684.13	5158.54
684.27	5057.90
684.41	5203.01
684.55	5020.45
684.68	5039.17
684.82	5004.07
684.96	4973.64
685.09	4945.55
685.23	4800.44
685.37	4947.89
685.50	4959.60
685.64	4975.98
685.78	4863.63
685.91	4978.32
686.05	5048.54
686.19	4898.74
686.32	4863.63
686.46	4887.04
686.60	4667.03
686.73	4844.91
686.87	4809.80
687.01	4816.82
687.14	4624.90
687.28	4730.22
687.42	4732.56
687.55	4681.07
687.69	4758.31
687.82	4678.73
687.96	4603.83
688.10	4781.71
688.23	4676.39
688.37	4671.71
688.50	4648.30
688.64	4571.07
688.78	4566.39
688.91	4592.13
689.05	4540.64
689.18	4641.28
689.32	4479.79
689.46	4594.47
689.59	4540.64
689.73	4545.32
689.86	4400.21
690.00	4308.93
690.13	4629.58
690.27	4320.63
690.41	4358.08
690.54	4329.99
690.68	4215.30
690.81	4379.14
690.95	4208.28
691.08	4369.78
691.22	4411.91
691.35	4318.29
691.49	4205.94
691.62	4255.09
691.76	4084.23
691.89	4161.47
692.03	4187.22
692.16	4327.65
692.30	4112.32
692.43	4084.23
692.57	4177.86
692.70	4077.21
692.84	4079.55
692.97	4095.94
693.11	4107.64
693.24	3847.84
693.38	4046.79
693.51	4135.73
693.65	4133.39
693.78	4004.66
693.92	4084.23
694.05	3962.53
694.19	4051.47
694.32	3992.95
694.45	4009.34
694.59	3925.08
694.72	3871.25
694.86	3929.76
694.99	3859.54
695.13	3946.14
695.26	3871.25
695.39	3831.46
695.53	3843.16
695.66	3803.37
695.80	3833.80
695.93	3786.99
696.07	3763.58
696.20	3648.90
696.33	3721.45
696.47	3758.90
696.60	3730.81
696.73	3789.33
696.87	3609.11
697.00	3833.80
697.14	3702.73
697.27	3667.62
697.40	3520.17
697.54	3499.10
697.67	3513.14
697.80	3609.11
697.94	3471.01
698.07	3566.98
698.21	3566.98
698.34	3538.89
698.47	3527.19
698.61	3574.00
698.74	3419.52
698.87	3435.91
699.01	3492.08
699.14	3489.74
699.27	3375.05
699.40	3609.11
699.54	3382.07
699.67	3358.67
699.80	3382.07
699.94	3166.74
700.07	3309.52
700.20	3206.53
700.34	3300.16
700.47	3239.30
700.60	3215.90
700.73	3192.49
700.87	3309.52
701.00	3295.47
701.13	3169.09
701.26	3129.30
701.40	3208.87
701.53	3351.65
701.66	3124.62
701.79	3169.09
701.93	3255.69
702.06	3241.64
702.19	3171.43
702.32	3096.53
702.46	3103.55
702.59	3030.99
702.72	3091.85
702.85	3094.19
702.99	3129.30
703.12	3056.74
703.25	3049.72
703.38	3145.68
703.51	3042.70
703.65	3005.25
703.78	3033.33
703.91	2937.37
704.04	3045.04
704.17	3052.06
704.31	2899.92
704.44	2876.52
704.57	2860.13
704.70	2801.62
704.83	2745.45
704.96	2850.77
705.10	2897.58
705.23	2984.18
>>>>>End Processed Spectral Data<<<<<
