SpectraSuite Data File
++++++++++++++++++++++++++++++++++++
Date: Fri Oct 04 11:40:04 GMT-05:00 2013
User: price-jones
Dark Spectrum Present: No
Reference Spectrum Present: No
Number of Sampled Component Spectra: 1
Spectrometers: USB2+H05261
Integration Time (usec): 100000 (USB2+H05261)
Spectra Averaged: 1 (USB2+H05261)
Boxcar Smoothing: 0 (USB2+H05261)
Correct for Electrical Dark: No (USB2+H05261)
Strobe/Lamp Enabled: No (USB2+H05261)
Correct for Detector Non-linearity: No (USB2+H05261)
Correct for Stray Light: No (USB2+H05261)
Number of Pixels in Processed Spectrum: 2048
>>>>>Begin Processed Spectral Data<<<<<
365.73	98.30
365.92	98.30
366.12	98.30
366.32	0.00
366.52	14.04
366.72	35.11
366.91	0.00
367.11	0.00
367.31	0.00
367.51	0.00
367.70	51.49
367.90	0.00
368.10	0.00
368.30	0.00
368.49	0.00
368.69	0.00
368.89	11.70
369.09	0.00
369.28	21.06
369.48	0.00
369.68	0.00
369.87	9.36
370.07	0.00
370.27	18.72
370.47	72.56
370.66	9.36
370.86	60.85
371.06	77.24
371.25	81.92
371.45	91.28
371.65	114.69
371.84	51.49
372.04	107.66
372.24	42.13
372.44	159.16
372.63	180.22
372.83	189.58
373.03	100.64
373.22	114.69
373.42	119.37
373.62	119.37
373.81	173.20
374.01	168.52
374.21	212.99
374.40	147.45
374.60	212.99
374.79	91.28
374.99	201.29
375.19	215.33
375.38	102.98
375.58	133.41
375.78	133.41
375.97	142.77
376.17	224.69
376.37	86.60
376.56	98.30
376.76	67.88
376.95	117.03
377.15	135.75
377.35	140.43
377.54	180.22
377.74	110.01
377.93	119.37
378.13	72.56
378.33	189.58
378.52	161.50
378.72	119.37
378.91	163.84
379.11	159.16
379.31	149.79
379.50	117.03
379.70	117.03
379.89	135.75
380.09	126.39
380.28	149.79
380.48	119.37
380.68	203.63
380.87	187.24
381.07	110.01
381.26	86.60
381.46	156.82
381.65	149.79
381.85	133.41
382.04	119.37
382.24	208.31
382.43	84.26
382.63	63.19
382.83	128.73
383.02	105.32
383.22	166.18
383.41	117.03
383.61	145.11
383.80	191.92
384.00	126.39
384.19	180.22
384.39	159.16
384.58	124.05
384.78	86.60
384.97	194.26
385.17	88.94
385.36	142.77
385.56	117.03
385.75	135.75
385.95	168.52
386.14	149.79
386.34	114.69
386.53	168.52
386.72	145.11
386.92	159.16
387.11	203.63
387.31	220.01
387.50	201.29
387.70	135.75
387.89	145.11
388.09	140.43
388.28	161.50
388.48	194.26
388.67	117.03
388.86	100.64
389.06	110.01
389.25	170.86
389.45	121.71
389.64	138.09
389.84	201.29
390.03	131.07
390.22	191.92
390.42	121.71
390.61	138.09
390.81	114.69
391.00	177.88
391.19	170.86
391.39	138.09
391.58	163.84
391.78	189.58
391.97	131.07
392.16	102.98
392.36	184.90
392.55	234.05
392.75	208.31
392.94	187.24
393.13	177.88
393.33	170.86
393.52	196.60
393.71	152.13
393.91	182.56
394.10	152.13
394.29	182.56
394.49	168.52
394.68	173.20
394.88	220.01
395.07	187.24
395.26	84.26
395.46	147.45
395.65	152.13
395.84	198.95
396.04	257.46
396.23	131.07
396.42	119.37
396.62	163.84
396.81	224.69
397.00	245.76
397.19	217.67
397.39	212.99
397.58	180.22
397.77	201.29
397.97	201.29
398.16	227.03
398.35	180.22
398.55	215.33
398.74	152.13
398.93	215.33
399.12	163.84
399.32	196.60
399.51	140.43
399.70	227.03
399.90	248.10
400.09	166.18
400.28	231.71
400.47	234.05
400.67	269.16
400.86	238.73
401.05	217.67
401.24	175.54
401.44	220.01
401.63	273.84
401.82	201.29
402.01	196.60
402.21	266.82
402.40	264.48
402.59	229.37
402.78	177.88
402.97	241.08
403.17	212.99
403.36	229.37
403.55	173.20
403.74	184.90
403.93	320.65
404.13	351.08
404.32	362.78
404.51	313.63
404.70	376.83
404.89	299.59
405.09	311.29
405.28	215.33
405.47	238.73
405.66	262.14
405.85	287.89
406.05	262.14
406.24	231.71
406.43	301.93
406.62	332.36
406.81	383.85
407.00	257.46
407.20	358.10
407.39	344.06
407.58	320.65
407.77	255.12
407.96	365.12
408.15	341.72
408.34	285.55
408.54	322.99
408.73	388.53
408.92	322.99
409.11	386.19
409.30	231.71
409.49	264.48
409.68	292.57
409.87	355.76
410.07	297.25
410.26	334.70
410.45	322.99
410.64	290.23
410.83	257.46
411.02	346.40
411.21	383.85
411.40	372.15
411.59	409.59
411.78	344.06
411.98	327.68
412.17	369.80
412.36	395.55
412.55	320.65
412.74	315.97
412.93	355.76
413.12	346.40
413.31	393.21
413.50	367.46
413.69	477.47
413.88	552.37
414.07	437.68
414.26	308.95
414.45	374.49
414.64	449.38
414.83	468.11
415.02	477.47
415.22	496.19
415.41	447.04
415.60	381.51
415.79	489.17
415.98	477.47
416.17	470.45
416.36	402.57
416.55	477.47
416.74	557.05
416.93	547.69
417.12	503.22
417.31	428.32
417.50	437.68
417.69	573.43
417.88	540.66
418.07	514.92
418.26	468.11
418.45	475.13
418.64	573.43
418.83	507.90
419.02	482.15
419.21	486.83
419.39	566.41
419.58	554.71
419.77	547.69
419.96	545.34
420.15	550.03
420.34	550.03
420.53	582.79
420.72	461.09
420.91	517.26
421.10	500.87
421.29	528.96
421.48	580.45
421.67	603.86
421.86	484.49
422.05	589.82
422.24	531.30
422.43	538.32
422.61	510.24
422.80	573.43
422.99	599.18
423.18	578.11
423.37	561.73
423.56	517.26
423.75	496.19
423.94	552.37
424.13	505.56
424.32	554.71
424.50	554.71
424.69	552.37
424.88	599.18
425.07	587.47
425.26	587.47
425.45	655.35
425.64	695.14
425.83	615.56
426.01	575.77
426.20	524.28
426.39	641.31
426.58	533.64
426.77	596.84
426.96	641.31
427.15	550.03
427.33	578.11
427.52	587.47
427.71	585.13
427.90	683.44
428.09	552.37
428.28	653.01
428.46	631.94
428.65	667.05
428.84	667.05
429.03	662.37
429.22	617.90
429.40	631.94
429.59	620.24
429.78	664.71
429.97	568.75
430.16	634.29
430.34	653.01
430.53	599.18
430.72	660.03
430.91	746.63
431.10	660.03
431.28	711.52
431.47	589.82
431.66	596.84
431.85	606.20
432.03	650.67
432.22	805.14
432.41	709.18
432.60	692.80
432.79	601.52
432.97	702.16
433.16	664.71
433.35	657.69
433.54	685.78
433.72	706.84
433.91	751.31
434.10	629.60
434.28	734.93
434.47	737.27
434.66	685.78
434.85	746.63
435.03	840.25
435.22	1057.92
435.41	1490.92
435.59	1486.24
435.78	1207.72
435.97	1015.79
436.16	805.14
436.34	741.95
436.53	814.51
436.72	802.80
436.90	777.06
437.09	753.65
437.28	763.01
437.46	784.08
437.65	802.80
437.84	833.23
438.02	765.36
438.21	779.40
438.40	765.36
438.58	748.97
438.77	873.02
438.96	788.76
439.14	781.74
439.33	774.72
439.52	734.93
439.70	922.17
439.89	788.76
440.08	863.66
440.26	842.59
440.45	884.72
440.63	884.72
440.82	819.19
441.01	851.96
441.19	814.51
441.38	870.68
441.57	851.96
441.75	957.28
441.94	863.66
442.12	912.81
442.31	917.49
442.50	856.64
442.68	861.32
442.87	952.60
443.05	919.83
443.24	837.91
443.43	1018.13
443.61	952.60
443.80	898.77
443.98	898.77
444.17	891.74
444.35	976.00
444.54	903.45
444.73	896.43
444.91	863.66
445.10	866.00
445.28	884.72
445.47	854.30
445.65	947.92
445.84	976.00
446.02	915.15
446.21	961.96
446.39	908.13
446.58	898.77
446.77	954.94
446.95	877.70
447.14	936.21
447.32	1025.15
447.51	901.11
447.69	863.66
447.88	929.19
448.06	950.26
448.25	936.21
448.43	938.55
448.62	931.53
448.80	835.57
448.99	964.30
449.17	983.02
449.36	971.32
449.54	924.51
449.73	1032.18
449.91	957.28
450.10	976.00
450.28	1132.82
450.46	1004.09
450.65	1006.43
450.83	931.53
451.02	1036.86
451.20	992.39
451.39	1048.56
451.57	954.94
451.76	905.79
451.94	966.64
452.13	1011.11
452.31	1149.20
452.49	1008.77
452.68	1057.92
452.86	961.96
453.05	1043.88
453.23	987.71
453.42	1043.88
453.60	1029.84
453.78	1006.43
453.97	978.34
454.15	1104.73
454.34	1062.60
454.52	1043.88
454.70	966.64
454.89	1015.79
455.07	1095.37
455.26	1020.47
455.44	912.81
455.62	999.41
455.81	1086.01
455.99	1081.33
456.17	1135.16
456.36	1071.97
456.54	1090.69
456.73	1181.97
456.91	1156.22
457.09	1188.99
457.28	1193.67
457.46	1104.73
457.64	1135.16
457.83	1123.46
458.01	1146.86
458.19	1153.88
458.38	1165.59
458.56	1193.67
458.74	1125.80
458.93	1048.56
459.11	1200.69
459.29	1142.18
459.48	1198.35
459.66	1121.12
459.84	1144.52
460.03	1240.48
460.21	1130.48
460.39	1083.67
460.57	1118.78
460.76	1207.72
460.94	1198.35
461.12	1352.83
461.31	1186.65
461.49	1207.72
461.67	1114.10
461.85	1254.53
462.04	1242.82
462.22	1724.97
462.40	1296.66
462.59	1268.57
462.77	1156.22
462.95	1233.46
463.13	1224.10
463.32	1235.80
463.50	1167.93
463.68	1268.57
463.86	1242.82
464.05	1235.80
464.23	1217.08
464.41	1266.23
464.59	1287.29
464.78	1245.16
464.96	1259.21
465.14	1184.31
465.32	1299.00
465.50	1315.38
465.69	1221.76
465.87	1259.21
466.05	1299.00
466.23	1254.53
466.41	1252.19
466.60	1336.45
466.78	1245.16
466.96	1284.95
467.14	1287.29
467.32	1287.29
467.51	1357.51
467.69	1294.32
467.87	1310.70
468.05	1259.21
468.23	1357.51
468.41	1308.36
468.60	1373.89
468.78	1303.68
468.96	1383.26
469.14	1320.06
469.32	1341.13
469.50	1331.76
469.69	1277.93
469.87	1327.08
470.05	1261.55
470.23	1291.98
470.41	1413.68
470.59	1373.89
470.77	1338.79
470.95	1327.08
471.14	1441.77
471.32	1376.24
471.50	1462.83
471.68	1373.89
471.86	1411.34
472.04	1401.98
472.22	1432.41
472.40	1434.75
472.58	1399.64
472.77	1411.34
472.95	1409.00
473.13	1533.05
473.31	1490.92
473.49	1376.24
473.67	1488.58
473.85	1455.81
474.03	1451.13
474.21	1460.49
474.39	1575.18
474.57	1542.41
474.75	1624.33
474.93	1605.61
475.12	1416.02
475.30	1640.72
475.48	1568.16
475.66	1514.33
475.84	1455.81
476.02	1650.08
476.20	1556.46
476.38	1659.44
476.56	1678.16
476.74	1561.14
476.92	1636.03
477.10	1586.88
477.28	1661.78
477.46	1650.08
477.64	1614.97
477.82	1657.10
478.00	1722.63
478.18	1717.95
478.36	1708.59
478.54	1750.72
478.72	1806.89
478.90	1849.02
479.08	1809.23
479.26	1673.48
479.44	1678.16
479.62	1755.40
479.80	1806.89
479.98	1832.64
480.16	1891.15
480.34	1870.09
480.52	1760.08
480.70	1863.07
480.88	1799.87
481.06	1886.47
481.24	1926.26
481.41	1853.70
481.59	1949.67
481.77	1916.90
481.95	1863.07
482.13	1900.52
482.31	1963.71
482.49	2001.16
482.67	1996.48
482.85	1935.62
483.03	2017.54
483.21	2097.12
483.39	2132.23
483.57	2097.12
483.74	2186.06
483.92	2174.36
484.10	2092.44
484.28	2176.70
484.46	2253.94
484.64	2230.53
484.82	2183.72
485.00	2265.64
485.18	2090.10
485.35	2413.09
485.53	2277.34
485.71	2321.81
485.89	2331.17
486.07	2296.07
486.25	2359.26
486.43	2307.77
486.61	2431.82
486.78	2377.98
486.96	2396.71
487.14	2551.18
487.32	2518.42
487.50	2408.41
487.68	2565.23
487.85	2413.09
488.03	2565.23
488.21	2546.50
488.39	2476.29
488.57	2560.55
488.75	2562.89
488.92	2935.03
489.10	2621.40
489.28	2682.25
489.46	2605.02
489.64	2572.25
489.81	2747.79
489.99	2679.91
490.17	2696.30
490.35	2810.98
490.53	2815.66
490.70	2825.03
490.88	2806.30
491.06	2792.26
491.24	2715.02
491.41	2806.30
491.59	2787.58
491.77	2729.06
491.95	2792.26
492.13	2925.67
492.30	2949.08
492.48	2855.45
492.66	2881.20
492.84	2981.84
493.01	2925.67
493.19	2906.95
493.37	3068.44
493.54	2958.44
493.72	3016.95
493.90	2909.29
494.08	3033.33
494.25	3054.40
494.43	2970.14
494.61	3035.67
494.79	3038.02
494.96	3063.76
495.14	3080.14
495.32	3178.45
495.49	3183.13
495.67	3258.03
495.85	3281.43
496.02	3145.68
496.20	3194.83
496.38	3215.90
496.55	3346.97
496.73	3400.80
496.91	3262.71
497.09	3342.28
497.26	3325.90
497.44	3148.02
497.62	3201.85
497.79	3304.84
497.97	3201.85
498.14	3286.11
498.32	3265.05
498.50	3510.80
498.67	3365.69
498.85	3318.88
499.03	3363.35
499.20	3428.88
499.38	3520.17
499.56	3524.85
499.73	3489.74
499.91	3503.78
500.08	3517.83
500.26	3496.76
500.44	3459.31
500.61	3583.36
500.79	3618.47
500.97	3597.40
501.14	3627.83
501.32	3552.93
501.49	3655.92
501.67	3452.29
501.84	3548.25
502.02	3686.34
502.20	3557.61
502.37	3555.27
502.55	3698.05
502.72	3672.30
502.90	3588.04
503.07	3712.09
503.25	3700.39
503.43	3779.97
503.60	3723.79
503.78	3728.47
503.95	3763.58
504.13	3730.81
504.30	3658.26
504.48	3754.22
504.65	3992.95
504.83	3719.11
505.01	3838.48
505.18	3730.81
505.36	3901.67
505.53	3894.65
505.71	3929.76
505.88	3929.76
506.06	3946.14
506.23	3892.31
506.41	3906.35
506.58	3850.18
506.76	3932.10
506.93	4032.74
507.11	4067.85
507.28	3978.91
507.46	3875.93
507.63	3887.63
507.81	3808.05
507.98	4084.23
508.16	3995.29
508.33	3911.04
508.50	3925.08
508.68	3934.44
508.85	4147.43
509.03	3971.89
509.20	4070.19
509.38	4149.77
509.55	4084.23
509.73	4128.70
509.90	4156.79
510.08	4135.73
510.25	4154.45
510.42	4196.58
510.60	4053.81
510.77	4140.41
510.95	4065.51
511.12	4191.90
511.30	4238.71
511.47	4271.48
511.64	4262.12
511.82	4271.48
511.99	4152.11
512.17	4210.62
512.34	4290.20
512.51	4362.76
512.69	4241.05
512.86	4379.14
513.04	4325.31
513.21	4259.78
513.38	4276.16
513.56	4484.47
513.73	4386.16
513.90	4395.53
514.08	4430.63
514.25	4367.44
514.43	4390.84
514.60	4418.93
514.77	4437.66
514.95	4442.34
515.12	4475.10
515.29	4449.36
515.47	4587.45
515.64	4592.13
515.81	4486.81
515.99	4589.79
516.16	4400.21
516.33	4542.98
516.51	4461.06
516.68	4568.73
516.85	4458.72
517.03	4526.60
517.20	4592.13
517.37	4599.15
517.54	4538.30
517.72	4498.51
517.89	4489.15
518.06	4564.04
518.24	4650.64
518.41	4631.92
518.58	4601.49
518.75	4578.09
518.93	4713.84
519.10	4652.98
519.27	4645.96
519.45	4758.31
519.62	4660.01
519.79	4655.33
519.96	4685.75
520.14	4681.07
520.31	4734.90
520.48	4720.86
520.65	4711.50
520.83	4784.06
521.00	4877.68
521.17	4746.61
521.34	4674.05
521.52	4826.18
521.69	4720.86
521.86	4891.72
522.03	4828.53
522.20	4758.31
522.38	5008.75
522.55	4854.27
522.72	4922.15
522.89	4898.74
523.07	4926.83
523.24	4985.34
523.41	4798.10
523.58	4739.58
523.75	4917.47
523.92	5069.60
524.10	4933.85
524.27	4975.98
524.44	4940.87
524.61	4931.51
524.78	5004.07
524.96	5102.37
525.13	4943.21
525.30	4985.34
525.47	5093.01
525.64	4985.34
525.81	5114.07
525.98	4947.89
526.16	5069.60
526.33	5067.26
526.50	5100.03
526.67	4961.94
526.84	4898.74
527.01	5053.22
527.18	5228.76
527.36	5188.97
527.53	5174.92
527.70	5104.71
527.87	5186.63
528.04	5275.57
528.21	5078.96
528.38	5270.89
528.55	5224.08
528.72	5210.03
528.89	5263.86
529.07	5116.41
529.24	4990.02
529.41	5240.46
529.58	5273.23
529.75	5153.86
529.92	5305.99
530.09	5315.36
530.26	5153.86
530.43	5163.22
530.60	5083.64
530.77	5233.44
530.94	5263.86
531.11	5273.23
531.28	5116.41
531.46	5317.70
531.63	5240.46
531.80	5235.78
531.97	5301.31
532.14	5252.16
532.31	5397.28
532.48	5408.98
532.65	5303.65
532.82	5308.34
532.99	5352.81
533.16	5423.02
533.33	5486.22
533.50	5518.98
533.67	5373.87
533.84	5305.99
534.01	5469.83
534.18	5352.81
534.35	5366.85
534.52	5462.81
534.69	5387.91
534.86	5313.02
535.03	5481.53
535.20	5444.09
535.37	5568.13
535.54	5408.98
535.71	5418.34
535.88	5504.94
536.05	5448.77
536.22	5521.32
536.38	5425.36
536.55	5526.00
536.72	5518.98
536.89	5348.12
537.06	5551.75
537.23	5577.50
537.40	5743.67
537.57	5680.48
537.74	5572.82
537.91	5680.48
538.08	5729.63
538.25	5596.22
538.42	5701.54
538.59	5746.02
538.75	5628.99
538.92	5664.10
539.09	5839.64
539.26	5764.74
539.43	5703.89
539.60	5722.61
539.77	5884.11
539.94	5949.64
540.11	5872.40
540.28	5989.43
540.44	5968.37
540.61	5771.76
540.78	6005.81
540.95	6118.16
541.12	6321.79
541.29	6384.98
541.46	6548.82
541.62	6408.39
541.79	6370.94
541.96	6223.48
542.13	6366.26
542.30	6375.62
542.47	6312.42
542.63	6345.19
542.80	6438.81
542.97	6448.18
543.14	6326.47
543.31	6319.45
543.48	6368.60
543.64	6436.47
543.81	6429.45
543.98	6551.16
544.15	6438.81
544.32	6473.92
544.48	6377.96
544.65	6427.11
544.82	6441.15
544.99	6497.33
545.16	6256.25
545.32	6396.68
545.49	6965.43
545.66	7803.35
545.83	8051.44
546.00	7810.37
546.16	7234.60
546.33	6726.70
546.50	6443.49
546.67	6256.25
546.83	6232.85
547.00	6148.59
547.17	6312.42
547.34	6270.30
547.50	6106.46
547.67	6298.38
547.84	6218.80
548.00	6171.99
548.17	6195.40
548.34	6087.73
548.51	6291.36
548.67	6106.46
548.84	6370.94
549.01	6181.35
549.18	6115.82
549.34	6083.05
549.51	6113.48
549.68	6265.61
549.84	6108.80
550.01	6101.78
550.18	6207.10
550.34	6045.60
550.51	6218.80
550.68	6052.63
550.84	5982.41
551.01	5949.64
551.18	6218.80
551.34	6319.45
551.51	6115.82
551.68	5970.71
551.84	6197.74
552.01	6164.97
552.18	6083.05
552.34	6045.60
552.51	6052.63
552.68	6022.20
552.84	5884.11
553.01	6200.08
553.18	5933.26
553.34	6043.26
553.51	6083.05
553.67	6073.69
553.84	6146.25
554.01	6195.40
554.17	6054.97
554.34	6071.35
554.51	6139.23
554.67	6190.72
554.84	6150.93
555.00	6038.58
555.17	6125.18
555.33	5968.37
555.50	6043.26
555.67	5994.11
555.83	5994.11
556.00	6181.35
556.16	6214.12
556.33	6111.14
556.50	6026.88
556.66	5959.00
556.83	6113.48
556.99	6003.47
557.16	6026.88
557.32	6090.07
557.49	5982.41
557.65	5909.85
557.82	6029.22
557.98	6099.44
558.15	6036.24
558.32	6106.46
558.48	6066.67
558.65	5982.41
558.81	5954.32
558.98	6129.86
559.14	6120.50
559.31	6153.27
559.47	6094.76
559.64	6106.46
559.80	6155.61
559.97	6108.80
560.13	6029.22
560.30	6118.16
560.46	5989.43
560.63	6139.23
560.79	6061.99
560.96	6160.29
561.12	6083.05
561.29	6167.31
561.45	6090.07
561.61	6274.98
561.78	6282.00
561.94	6148.59
562.11	6054.97
562.27	6122.84
562.44	6092.41
562.60	6113.48
562.77	6069.01
562.93	6045.60
563.10	6029.22
563.26	6019.86
563.42	6141.57
563.59	6225.82
563.75	6010.50
563.92	6148.59
564.08	6003.47
564.24	5996.45
564.41	6141.57
564.57	5928.58
564.74	6040.92
564.90	6054.97
565.07	6272.64
565.23	6183.70
565.39	6195.40
565.56	6249.23
565.72	6057.31
565.88	6132.20
566.05	6057.31
566.21	6040.92
566.38	6146.25
566.54	6190.72
566.70	6258.59
566.87	6127.52
567.03	6083.05
567.19	6214.12
567.36	6073.69
567.52	6043.26
567.68	6289.02
567.85	6008.16
568.01	6033.90
568.17	6064.33
568.34	6111.14
568.50	6363.92
568.66	6087.73
568.83	6134.54
568.99	6127.52
569.15	6115.82
569.32	6038.58
569.48	6218.80
569.64	6069.01
569.81	6286.68
569.97	6265.61
570.13	6085.39
570.30	6101.78
570.46	6076.03
570.62	6115.82
570.78	6193.06
570.95	6167.31
571.11	6125.18
571.27	6150.93
571.43	6153.27
571.60	6115.82
571.76	6249.23
571.92	6221.14
572.09	6146.25
572.25	6188.38
572.41	6242.21
572.57	6064.33
572.74	6169.65
572.90	6069.01
573.06	6087.73
573.22	6291.36
573.38	6092.41
573.55	6190.72
573.71	6382.64
573.87	6267.95
574.03	6246.89
574.20	6235.19
574.36	6209.44
574.52	6115.82
574.68	6216.46
574.84	6125.18
575.01	6176.67
575.17	6214.12
575.33	6132.20
575.49	6099.44
575.65	6176.67
575.82	6150.93
575.98	6214.12
576.14	6057.31
576.30	6141.57
576.46	6300.72
576.62	6506.69
576.79	6492.65
576.95	6450.52
577.11	6314.77
577.27	6221.14
577.43	6356.90
577.59	6218.80
577.75	6225.82
577.92	6223.48
578.08	6239.87
578.24	6094.76
578.40	6052.63
578.56	6424.77
578.72	6593.29
578.88	6476.26
579.04	6562.86
579.21	6303.06
579.37	6490.31
579.53	6169.65
579.69	6127.52
579.85	6256.25
580.01	6326.47
580.17	6204.76
580.33	6370.94
580.49	6335.83
580.65	6202.42
580.82	6377.96
580.98	6274.98
581.14	6160.29
581.30	6420.09
581.46	6221.14
581.62	6366.26
581.78	6230.51
581.94	6384.98
582.10	6221.14
582.26	6300.72
582.42	6347.53
582.58	6335.83
582.74	6443.49
582.90	6389.66
583.06	6415.41
583.22	6265.61
583.38	6263.27
583.54	6263.27
583.70	6413.07
583.86	6246.89
584.02	6195.40
584.18	6408.39
584.34	6370.94
584.50	6279.66
584.66	6333.49
584.82	6279.66
584.98	6139.23
585.14	6171.99
585.30	6183.70
585.46	6324.13
585.62	6162.63
585.78	6328.81
585.94	6132.20
586.10	6139.23
586.26	6256.25
586.42	6359.24
586.58	6321.79
586.74	6331.15
586.90	6333.49
587.06	6363.92
587.22	6436.47
587.38	6406.05
587.54	6399.02
587.70	6429.45
587.86	6401.37
588.02	6370.94
588.18	6321.79
588.34	6176.67
588.49	6270.30
588.65	6113.48
588.81	6094.76
588.97	6263.27
589.13	6319.45
589.29	6544.14
589.45	6317.11
589.61	6296.04
589.77	6314.77
589.93	6342.85
590.08	6272.64
590.24	6422.43
590.40	6345.19
590.56	6377.96
590.72	6335.83
590.88	6354.55
591.04	6188.38
591.20	6375.62
591.35	6162.63
591.51	6321.79
591.67	6256.25
591.83	6375.62
591.99	6356.90
592.15	6272.64
592.31	6380.30
592.46	6410.73
592.62	6525.41
592.78	6190.72
592.94	6221.14
593.10	6314.77
593.26	6382.64
593.41	6258.59
593.57	6270.30
593.73	6445.84
593.89	6478.60
594.05	6347.53
594.20	6176.67
594.36	6125.18
594.52	6251.57
594.68	6253.91
594.84	6272.64
594.99	6258.59
595.15	6399.02
595.31	6265.61
595.47	6293.70
595.62	6359.24
595.78	6183.70
595.94	6167.31
596.10	6249.23
596.25	6286.68
596.41	6160.29
596.57	6237.53
596.73	6267.95
596.88	6190.72
597.04	6216.46
597.20	6244.55
597.36	6197.74
597.51	6359.24
597.67	6197.74
597.83	6483.28
597.99	6303.06
598.14	6211.78
598.30	6457.54
598.46	6200.08
598.61	6558.18
598.77	6331.15
598.93	6218.80
599.09	6352.21
599.24	6478.60
599.40	6333.49
599.56	6340.51
599.71	6216.46
599.87	6354.55
600.03	6291.36
600.18	6181.35
600.34	6267.95
600.50	6228.17
600.65	6319.45
600.81	6324.13
600.97	6310.08
601.12	6200.08
601.28	6312.42
601.44	6202.42
601.59	6296.04
601.75	6169.65
601.91	6019.86
602.06	6314.77
602.22	6326.47
602.37	6179.01
602.53	6183.70
602.69	6310.08
602.84	6024.54
603.00	6190.72
603.16	6253.91
603.31	6136.88
603.47	6324.13
603.62	6127.52
603.78	6195.40
603.94	6209.44
604.09	6169.65
604.25	6155.61
604.40	6202.42
604.56	6298.38
604.71	6204.76
604.87	6291.36
605.03	6083.05
605.18	6260.93
605.34	6164.97
605.49	6015.18
605.65	6157.95
605.80	6190.72
605.96	6296.04
606.12	6146.25
606.27	6223.48
606.43	6136.88
606.58	6216.46
606.74	6216.46
606.89	6216.46
607.05	6129.86
607.20	6211.78
607.36	6197.74
607.51	6239.87
607.67	6120.50
607.82	6141.57
607.98	6293.70
608.13	6157.95
608.29	6347.53
608.44	6328.81
608.60	6340.51
608.75	6352.21
608.91	6342.85
609.06	6338.17
609.22	6394.34
609.37	6272.64
609.53	6509.03
609.68	6272.64
609.84	6473.92
609.99	6562.86
610.15	6649.46
610.30	6878.83
610.46	7117.57
610.61	7372.69
610.76	7791.64
610.92	7948.46
611.07	8170.81
611.23	8053.78
611.38	8149.75
611.54	7679.30
611.69	7452.27
611.84	7215.87
612.00	7023.95
612.15	6775.85
612.31	6780.53
612.46	6502.01
612.62	6614.35
612.77	6672.87
612.92	6700.95
613.08	6576.91
613.23	6579.25
613.39	6511.37
613.54	6457.54
613.69	6450.52
613.85	6424.77
614.00	6511.37
614.15	6401.37
614.31	6436.47
614.46	6277.32
614.62	6438.81
614.77	6345.19
614.92	6399.02
615.08	6204.76
615.23	6434.13
615.38	6164.97
615.54	6031.56
615.69	6141.57
615.84	6258.59
616.00	6106.46
616.15	5994.11
616.30	6099.44
616.46	6134.54
616.61	6155.61
616.76	5982.41
616.92	6026.88
617.07	5975.39
617.22	6026.88
617.37	5816.23
617.53	6005.81
617.68	6092.41
617.83	5975.39
617.99	6038.58
618.14	6036.24
618.29	6101.78
618.45	5947.30
618.60	5914.53
618.75	5877.09
618.90	5942.62
619.06	6120.50
619.21	6005.81
619.36	5989.43
619.51	5877.09
619.67	5937.94
619.82	6031.56
619.97	5947.30
620.12	5837.30
620.28	5823.25
620.43	5844.32
620.58	6066.67
620.73	5959.00
620.89	6012.84
621.04	6005.81
621.19	6099.44
621.34	5940.28
621.49	5944.96
621.65	5956.66
621.80	5895.81
621.95	5832.62
622.10	5825.59
622.25	5806.87
622.41	5834.96
622.56	5652.39
622.71	5982.41
622.86	5940.28
623.01	5893.47
623.16	5921.56
623.32	5874.74
623.47	5715.59
623.62	5825.59
623.77	5968.37
623.92	5874.74
624.07	5816.23
624.23	5865.38
624.38	5858.36
624.53	5846.66
624.68	5870.06
624.83	5966.03
624.98	6012.84
625.13	5886.45
625.29	5680.48
625.44	5928.58
625.59	5825.59
625.74	5715.59
625.89	5706.23
626.04	5753.04
626.19	5731.97
626.34	5738.99
626.49	5863.04
626.65	5973.05
626.80	5865.38
626.95	5973.05
627.10	5830.27
627.25	5589.20
627.40	5743.67
627.55	5788.14
627.70	5521.32
627.85	5694.52
628.00	5870.06
628.15	5661.76
628.30	5750.70
628.45	5844.32
628.60	5734.31
628.76	5776.44
628.91	5603.24
629.06	5776.44
629.21	5607.92
629.36	5809.21
629.51	5715.59
629.66	5764.74
629.81	5736.65
629.96	5696.86
630.11	5753.04
630.26	5647.71
630.41	5774.10
630.56	5867.72
630.71	5778.78
630.86	5636.01
631.01	5703.89
631.16	5839.64
631.31	5743.67
631.46	5687.50
631.61	5755.38
631.76	5600.90
631.91	5659.42
632.06	5533.03
632.21	5542.39
632.36	5493.24
632.51	5418.34
632.66	5495.58
632.81	5554.09
632.96	5509.62
633.10	5462.81
633.25	5547.07
633.40	5596.22
633.55	5661.76
633.70	5401.96
633.85	5404.30
634.00	5504.94
634.15	5504.94
634.30	5500.26
634.45	5533.03
634.60	5502.60
634.75	5413.66
634.90	5448.77
635.05	5621.97
635.19	5483.88
635.34	5493.24
635.49	5432.38
635.64	5500.26
635.79	5540.05
635.94	5425.36
636.09	5544.73
636.24	5444.09
636.39	5245.14
636.53	5493.24
636.68	5401.96
636.83	5481.53
636.98	5483.88
637.13	5383.23
637.28	5282.59
637.43	5458.13
637.57	5530.69
637.72	5441.75
637.87	5481.53
638.02	5385.57
638.17	5430.04
638.32	5364.51
638.46	5350.46
638.61	5551.75
638.76	5303.65
638.91	5458.13
639.06	5369.19
639.20	5313.02
639.35	5296.63
639.50	5313.02
639.65	5338.76
639.80	5408.98
639.94	5434.72
640.09	5427.70
640.24	5476.85
640.39	5266.21
640.54	5383.23
640.68	5479.19
640.83	5455.79
640.98	5291.95
641.13	5235.78
641.27	5186.63
641.42	5411.32
641.57	5348.12
641.72	5310.68
641.86	5343.44
642.01	5212.37
642.16	5298.97
642.31	5249.82
642.45	5341.10
642.60	5348.12
642.75	5331.74
642.90	5338.76
643.04	5247.48
643.19	5221.74
643.34	5266.21
643.48	5355.15
643.63	5324.72
643.78	5399.62
643.93	5387.91
644.07	5322.38
644.22	5280.25
644.37	5062.58
644.51	5296.63
644.66	5280.25
644.81	5256.84
644.95	5261.52
645.10	5289.61
645.25	5282.59
645.39	5210.03
645.54	5247.48
645.69	5336.42
645.83	5128.11
645.98	5334.08
646.13	5188.97
646.27	5256.84
646.42	5107.05
646.57	5249.82
646.71	5153.86
646.86	5224.08
647.00	5247.48
647.15	5359.83
647.30	5174.92
647.44	5104.71
647.59	5195.99
647.74	5219.39
647.88	5151.52
648.03	5053.22
648.17	5228.76
648.32	5095.35
648.47	5313.02
648.61	5242.80
648.76	5090.67
648.90	5210.03
649.05	5167.90
649.20	5137.48
649.34	5235.78
649.49	5118.75
649.63	5259.18
649.78	5165.56
649.92	5217.05
650.07	5338.76
650.21	5125.77
650.36	5217.05
650.51	5095.35
650.65	5221.74
650.80	5130.45
650.94	5107.05
651.09	5118.75
651.23	5137.48
651.38	5102.37
651.52	5032.15
651.67	5025.13
651.81	5078.96
651.96	5275.57
652.10	5085.98
652.25	5114.07
652.39	5069.60
652.54	5055.56
652.68	5104.71
652.83	5022.79
652.97	5029.81
653.12	5165.56
653.26	5104.71
653.41	5170.24
653.55	5153.86
653.70	4975.98
653.84	5043.85
653.99	5025.13
654.13	5163.22
654.27	4912.78
654.42	5093.01
654.56	5085.98
654.71	5083.64
654.85	5132.79
655.00	5085.98
655.14	5015.77
655.29	4987.68
655.43	4919.81
655.57	5130.45
655.72	4985.34
655.86	4840.23
656.01	5121.09
656.15	4861.29
656.30	5095.35
656.44	4854.27
656.58	4851.93
656.73	4912.78
656.87	4994.70
657.01	4880.02
657.16	5144.50
657.30	5064.92
657.45	4908.10
657.59	5011.09
657.73	4959.60
657.88	4840.23
658.02	5004.07
658.16	5034.49
658.31	4926.83
658.45	4905.76
658.60	4830.87
658.74	4739.58
658.88	4870.65
659.03	4856.61
659.17	4823.84
659.31	4985.34
659.46	4739.58
659.60	4938.53
659.74	4952.57
659.89	4849.59
660.03	4821.50
660.17	4931.51
660.32	4833.21
660.46	4940.87
660.60	4856.61
660.74	4791.08
660.89	4784.06
661.03	4641.28
661.17	4798.10
661.32	4629.58
661.46	4821.50
661.60	4807.46
661.74	4898.74
661.89	4807.46
662.03	4849.59
662.17	4798.10
662.31	4744.27
662.46	4943.21
662.60	4854.27
662.74	4730.22
662.88	4674.05
663.03	4688.09
663.17	4786.40
663.31	4760.65
663.45	4765.33
663.60	4580.43
663.74	4624.90
663.88	4631.92
664.02	4643.62
664.17	4561.70
664.31	4627.24
664.45	4669.37
664.59	4805.12
664.73	4882.36
664.88	4648.30
665.02	4711.50
665.16	4636.60
665.30	4634.26
665.44	4683.41
665.59	4669.37
665.73	4624.90
665.87	4664.69
666.01	4655.33
666.15	4596.81
666.29	4791.08
666.44	4617.88
666.58	4566.39
666.72	4547.66
666.86	4655.33
667.00	4643.62
667.14	4545.32
667.28	4531.28
667.43	4547.66
667.57	4578.09
667.71	4564.04
667.85	4552.34
667.99	4447.02
668.13	4484.47
668.27	4545.32
668.41	4461.06
668.56	4580.43
668.70	4514.89
668.84	4557.02
668.98	4547.66
669.12	4463.40
669.26	4559.36
669.40	4578.09
669.54	4491.49
669.68	4479.79
669.82	4503.19
669.96	4386.16
670.10	4264.46
670.25	4346.37
670.39	4430.63
670.53	4360.42
670.67	4390.84
670.81	4430.63
670.95	4425.95
671.09	4184.88
671.23	4411.91
671.37	4212.96
671.51	4454.04
671.65	4290.20
671.79	4285.52
671.93	4313.61
672.07	4454.04
672.21	4386.16
672.35	4360.42
672.49	4259.78
672.63	4318.29
672.77	4290.20
672.91	4250.41
673.05	4353.40
673.19	4154.45
673.33	4250.41
673.47	4390.84
673.61	4245.73
673.75	4168.49
673.89	4114.66
674.03	4166.15
674.17	4131.05
674.31	4173.18
674.45	4037.42
674.59	3962.53
674.73	4245.73
674.87	4219.99
675.01	4154.45
675.15	4117.00
675.29	4159.13
675.43	4189.56
675.56	4252.75
675.70	4133.39
675.84	4161.47
675.98	3920.40
676.12	4126.36
676.26	4098.28
676.40	4100.62
676.54	4182.54
676.68	4184.88
676.82	4023.38
676.96	3992.95
677.10	3939.12
677.23	4051.47
677.37	3953.16
677.51	4095.94
677.65	4044.45
677.79	4002.32
677.93	3831.46
678.07	3976.57
678.21	3981.25
678.34	3896.99
678.48	3817.41
678.62	3852.52
678.76	3782.31
678.90	3754.22
679.04	3702.73
679.18	3885.29
679.31	3763.58
679.45	3744.86
679.59	3744.86
679.73	3770.60
679.87	3740.18
680.00	3875.93
680.14	3765.92
680.28	3817.41
680.42	3658.26
680.56	3613.79
680.70	3585.70
680.83	3810.39
680.97	3735.50
681.11	3756.56
681.25	3726.13
681.39	3571.66
681.52	3765.92
681.66	3782.31
681.80	3597.40
681.94	3639.53
682.07	3758.90
682.21	3611.45
682.35	3449.95
682.49	3611.45
682.62	3517.83
682.76	3562.30
682.90	3602.08
683.04	3662.94
683.17	3571.66
683.31	3520.17
683.45	3613.79
683.59	3510.80
683.72	3506.12
683.86	3410.16
684.00	3562.30
684.13	3485.06
684.27	3412.50
684.41	3496.76
684.55	3431.23
684.68	3419.52
684.82	3290.79
684.96	3365.69
685.09	3400.80
685.23	3419.52
685.37	3370.37
685.50	3286.11
685.64	3321.22
685.78	3396.12
685.91	3417.18
686.05	3414.84
686.19	3283.77
686.32	3215.90
686.46	3213.56
686.60	3279.09
686.73	3419.52
686.87	3253.34
687.01	3126.96
687.14	3159.72
687.28	3176.11
687.42	3166.74
687.55	3234.62
687.69	3302.50
687.82	3197.17
687.96	3112.91
688.10	3096.53
688.23	3206.53
688.37	2998.23
688.50	3108.23
688.64	3300.16
688.78	3103.55
688.91	3108.23
689.05	3080.14
689.18	3056.74
689.32	3002.91
689.46	3059.08
689.59	3061.42
689.73	2977.16
689.86	3075.46
690.00	2925.67
690.13	3002.91
690.27	2909.29
690.41	3014.61
690.54	3098.87
690.68	3021.63
690.81	2998.23
690.95	2939.71
691.08	2932.69
691.22	2808.64
691.35	2888.22
691.49	2930.35
691.62	2932.69
691.76	2871.84
691.89	2846.09
692.03	2722.04
692.16	2874.18
692.30	2729.06
692.43	2806.30
692.57	2803.96
692.70	2785.24
692.84	2832.05
692.97	2658.85
693.11	2794.60
693.24	2710.34
693.38	2785.24
693.51	2810.98
693.65	2841.41
693.78	2789.92
693.92	2729.06
694.05	2712.68
694.19	2656.51
694.32	2696.30
694.45	2661.19
694.59	2621.40
694.72	2523.10
694.86	2555.86
694.99	2750.13
695.13	2663.53
695.26	2621.40
695.39	2581.61
695.53	2691.62
695.66	2539.48
695.80	2621.40
695.93	2635.44
696.07	2504.37
696.20	2495.01
696.33	2661.19
696.47	2490.33
696.60	2593.31
696.73	2551.18
696.87	2441.18
697.00	2520.76
697.14	2445.86
697.27	2485.65
697.40	2354.58
697.54	2392.03
697.67	2431.82
697.80	2548.84
697.94	2443.52
698.07	2499.69
698.21	2480.97
698.34	2520.76
698.47	2331.17
698.61	2509.05
698.74	2296.07
698.87	2340.54
699.01	2340.54
699.14	2380.32
699.27	2382.67
699.40	2380.32
699.54	2363.94
699.67	2204.78
699.80	2232.87
699.94	2263.30
700.07	2242.23
700.20	2223.51
700.34	2139.25
700.47	2160.31
700.60	2300.75
700.73	2162.66
700.87	2256.28
701.00	2165.00
701.13	2293.72
701.26	2176.70
701.40	2169.68
701.53	2155.63
701.66	2167.34
701.79	2174.36
701.93	2277.34
702.06	2153.29
702.19	2101.80
702.32	2111.16
702.46	2141.59
702.59	2094.78
702.72	2043.29
702.85	2113.50
702.99	2073.71
703.12	2190.74
703.25	2162.66
703.38	2150.95
703.51	2031.58
703.65	2085.42
703.78	1935.62
703.91	2047.97
704.04	2008.18
704.17	2111.16
704.31	2085.42
704.44	2073.71
704.57	2045.63
704.70	1898.17
704.83	1942.64
704.96	1928.60
705.10	1949.67
705.23	1968.39
>>>>>End Processed Spectral Data<<<<<
