SpectraSuite Data File
++++++++++++++++++++++++++++++++++++
Date: Fri Oct 04 11:39:56 GMT-05:00 2013
User: price-jones
Dark Spectrum Present: No
Reference Spectrum Present: No
Number of Sampled Component Spectra: 1
Spectrometers: USB2+H05261
Integration Time (usec): 100000 (USB2+H05261)
Spectra Averaged: 1 (USB2+H05261)
Boxcar Smoothing: 0 (USB2+H05261)
Correct for Electrical Dark: No (USB2+H05261)
Strobe/Lamp Enabled: No (USB2+H05261)
Correct for Detector Non-linearity: No (USB2+H05261)
Correct for Stray Light: No (USB2+H05261)
Number of Pixels in Processed Spectrum: 2048
>>>>>Begin Processed Spectral Data<<<<<
365.73	30.43
365.92	30.43
366.12	30.43
366.32	0.00
366.52	0.00
366.72	0.00
366.91	0.00
367.11	0.00
367.31	0.00
367.51	0.00
367.70	7.02
367.90	0.00
368.10	0.00
368.30	0.00
368.49	0.00
368.69	0.00
368.89	0.00
369.09	0.00
369.28	0.00
369.48	0.00
369.68	0.00
369.87	14.04
370.07	0.00
370.27	72.56
370.47	21.06
370.66	60.85
370.86	138.09
371.06	154.48
371.25	131.07
371.45	175.54
371.65	180.22
371.84	145.11
372.04	173.20
372.24	180.22
372.44	229.37
372.63	128.73
372.83	262.14
373.03	203.63
373.22	189.58
373.42	194.26
373.62	273.84
373.81	203.63
374.01	182.56
374.21	154.48
374.40	191.92
374.60	241.08
374.79	283.20
374.99	259.80
375.19	208.31
375.38	191.92
375.58	198.95
375.78	156.82
375.97	280.86
376.17	306.61
376.37	189.58
376.56	227.03
376.76	203.63
376.95	248.10
377.15	227.03
377.35	215.33
377.54	250.44
377.74	194.26
377.93	271.50
378.13	231.71
378.33	215.33
378.52	273.84
378.72	212.99
378.91	194.26
379.11	187.24
379.31	269.16
379.50	243.42
379.70	187.24
379.89	217.67
380.09	203.63
380.28	198.95
380.48	297.25
380.68	163.84
380.87	252.78
381.07	222.35
381.26	290.23
381.46	241.08
381.65	285.55
381.85	187.24
382.04	210.65
382.24	245.76
382.43	161.50
382.63	278.52
382.83	278.52
383.02	262.14
383.22	287.89
383.41	341.72
383.61	222.35
383.80	259.80
384.00	201.29
384.19	252.78
384.39	283.20
384.58	252.78
384.78	276.18
384.97	285.55
385.17	259.80
385.36	327.68
385.56	273.84
385.75	250.44
385.95	299.59
386.14	257.46
386.34	208.31
386.53	271.50
386.72	248.10
386.92	304.27
387.11	287.89
387.31	325.33
387.50	283.20
387.70	311.29
387.89	255.12
388.09	269.16
388.28	259.80
388.48	266.82
388.67	301.93
388.86	330.02
389.06	299.59
389.25	285.55
389.45	294.91
389.64	332.36
389.84	259.80
390.03	259.80
390.22	304.27
390.42	348.74
390.61	332.36
390.81	311.29
391.00	313.63
391.19	418.96
391.39	353.42
391.58	325.33
391.78	365.12
391.97	358.10
392.16	367.46
392.36	374.49
392.55	351.08
392.75	332.36
392.94	402.57
393.13	400.23
393.33	283.20
393.52	287.89
393.71	440.02
393.91	351.08
394.10	341.72
394.29	418.96
394.49	334.70
394.68	435.34
394.88	444.70
395.07	421.30
395.26	414.27
395.46	458.74
395.65	449.38
395.84	479.81
396.04	519.60
396.23	409.59
396.42	447.04
396.62	425.98
396.81	489.17
397.00	491.51
397.19	442.36
397.39	451.72
397.58	468.11
397.77	454.06
397.97	477.47
398.16	489.17
398.35	496.19
398.55	496.19
398.74	470.45
398.93	538.32
399.12	512.58
399.32	528.96
399.51	531.30
399.70	575.77
399.90	461.09
400.09	486.83
400.28	566.41
400.47	510.24
400.67	559.39
400.86	533.64
401.05	547.69
401.24	538.32
401.44	573.43
401.63	568.75
401.82	578.11
402.01	596.84
402.21	568.75
402.40	617.90
402.59	606.20
402.78	589.82
402.97	692.80
403.17	688.12
403.36	645.99
403.55	699.82
403.74	645.99
403.93	695.14
404.13	793.44
404.32	725.57
404.51	706.84
404.70	805.14
404.89	699.82
405.09	688.12
405.28	791.10
405.47	685.78
405.66	781.74
405.85	802.80
406.05	697.48
406.24	718.54
406.43	875.36
406.62	800.46
406.81	812.17
407.00	880.04
407.20	880.04
407.39	791.10
407.58	861.32
407.77	821.53
407.96	763.01
408.15	990.05
408.34	910.47
408.54	861.32
408.73	891.74
408.92	971.32
409.11	936.21
409.30	901.11
409.49	1008.77
409.68	971.32
409.87	1001.75
410.07	999.41
410.26	1025.15
410.45	1137.50
410.64	1041.54
410.83	1088.35
411.02	1121.12
411.21	1069.62
411.40	1025.15
411.59	1217.08
411.78	1149.20
411.98	1146.86
412.17	1156.22
412.36	1114.10
412.55	1231.12
412.74	1306.02
412.93	1256.87
413.12	1160.91
413.31	1235.80
413.50	1259.21
413.69	1282.61
413.88	1453.47
414.07	1345.81
414.26	1341.13
414.45	1430.07
414.64	1327.08
414.83	1427.73
415.02	1359.85
415.22	1345.81
415.41	1378.58
415.60	1453.47
415.79	1533.05
415.98	1474.54
416.17	1540.07
416.36	1516.67
416.55	1645.40
416.74	1610.29
416.93	1530.71
417.12	1591.56
417.31	1612.63
417.50	1544.75
417.69	1645.40
417.88	1776.47
418.07	1640.72
418.26	1645.40
418.45	1596.25
418.64	1816.26
418.83	1638.38
419.02	1659.44
419.21	1689.87
419.39	1661.78
419.58	1680.50
419.77	1654.76
419.96	1867.75
420.15	1827.96
420.34	1907.54
420.53	1818.60
420.72	1881.79
420.91	1788.17
421.10	1849.02
421.29	2024.56
421.48	1739.02
421.67	1914.56
421.86	1933.28
422.05	1959.03
422.24	1966.05
422.43	2008.18
422.61	2017.54
422.80	1959.03
422.99	1905.20
423.18	2008.18
423.37	1942.64
423.56	1970.73
423.75	1935.62
423.94	1942.64
424.13	1982.43
424.32	1879.45
424.50	2015.20
424.69	2015.20
424.88	1998.82
425.07	2017.54
425.26	2001.16
425.45	1980.09
425.64	1994.14
425.83	1989.46
426.01	2078.40
426.20	2019.88
426.39	2155.63
426.58	1987.11
426.77	2085.42
426.96	2094.78
427.15	2080.74
427.33	2101.80
427.52	2230.53
427.71	2143.93
427.90	2188.40
428.09	2193.08
428.28	2106.48
428.46	2242.23
428.65	2106.48
428.84	2218.83
429.03	2242.23
429.22	2235.21
429.40	2115.84
429.59	2251.60
429.78	2190.74
429.97	2104.14
430.16	2190.74
430.34	2326.49
430.53	2258.62
430.72	2265.64
430.91	2225.85
431.10	2272.66
431.28	2237.55
431.47	2354.58
431.66	2321.81
431.85	2317.13
432.03	2366.28
432.22	2457.56
432.41	2272.66
432.60	2427.14
432.79	2413.09
432.97	2434.16
433.16	2417.77
433.35	2506.71
433.54	2443.52
433.72	2462.24
433.91	2495.01
434.10	2408.41
434.28	2511.39
434.47	2473.95
434.66	2614.38
434.85	2722.04
435.03	2597.99
435.22	2787.58
435.41	2970.14
435.59	2928.01
435.78	2925.67
435.97	2841.41
436.16	2747.79
436.34	2696.30
436.53	2708.00
436.72	2696.30
436.90	2677.57
437.09	2656.51
437.28	2651.83
437.46	2665.87
437.65	2658.85
437.84	2738.43
438.02	2736.09
438.21	2665.87
438.40	2693.96
438.58	2740.77
438.77	2799.28
438.96	2820.35
439.14	2913.97
439.33	2991.20
439.52	2958.44
439.70	2883.54
439.89	2970.14
440.08	3002.91
440.26	2942.05
440.45	3136.32
440.63	3129.30
440.82	2946.73
441.01	3007.59
441.19	3162.06
441.38	3049.72
441.57	3145.68
441.75	3148.02
441.94	3220.58
442.12	3248.66
442.31	3293.13
442.50	3365.69
442.68	3227.60
442.87	3253.34
443.05	3236.96
443.24	3293.13
443.43	3220.58
443.61	3302.50
443.80	3513.14
443.98	3372.71
444.17	3150.36
444.35	3442.93
444.54	3351.65
444.73	3349.31
444.91	3431.23
445.10	3412.50
445.28	3248.66
445.47	3473.36
445.65	3414.84
445.84	3386.76
446.02	3548.25
446.21	3330.58
446.39	3220.58
446.58	3382.07
446.77	3454.63
446.95	3431.23
447.14	3459.31
447.32	3417.18
447.51	3466.33
447.69	3286.11
447.88	3548.25
448.06	3454.63
448.25	3400.80
448.43	3407.82
448.62	3391.44
448.80	3510.80
448.99	3461.65
449.17	3433.57
449.36	3412.50
449.54	3639.53
449.73	3545.91
449.91	3662.94
450.10	3726.13
450.28	3564.64
450.46	3648.90
450.65	3625.49
450.83	3782.31
451.02	3454.63
451.20	3688.68
451.39	3803.37
451.57	3705.07
451.76	3606.77
451.94	3730.81
452.13	3644.21
452.31	3740.18
452.49	3801.03
452.68	3651.24
452.86	3712.09
453.05	3726.13
453.23	3901.67
453.42	3737.84
453.60	3808.05
453.78	3726.13
453.97	3805.71
454.15	3768.26
454.34	3784.65
454.52	3922.74
454.70	3960.19
454.89	3873.59
455.07	3932.10
455.26	3861.88
455.44	4025.72
455.62	3878.27
455.81	3967.21
455.99	3988.27
456.17	4037.42
456.36	4081.89
456.54	4093.60
456.73	4107.64
456.91	4107.64
457.09	4133.39
457.28	4344.03
457.46	4095.94
457.64	4276.16
457.83	4187.22
458.01	4042.11
458.19	4257.43
458.38	4077.21
458.56	4287.86
458.74	4238.71
458.93	4266.80
459.11	4252.75
459.29	4196.58
459.48	4472.76
459.66	4311.27
459.84	4372.12
460.03	4472.76
460.21	4325.31
460.39	4327.65
460.57	4411.91
460.76	4454.04
460.94	4475.10
461.12	4617.88
461.31	4470.42
461.49	4414.25
461.67	4344.03
461.85	4540.64
462.04	4510.21
462.22	5039.17
462.40	4578.09
462.59	4535.96
462.77	4545.32
462.95	4510.21
463.13	4498.51
463.32	4564.04
463.50	4685.75
463.68	4648.30
463.86	4507.87
464.05	4575.75
464.23	4561.70
464.41	4674.05
464.59	4592.13
464.78	4664.69
464.96	4734.90
465.14	4655.33
465.32	4667.03
465.50	4943.21
465.69	4704.48
465.87	4627.24
466.05	4882.36
466.23	4842.57
466.41	4954.91
466.60	4987.68
466.78	4816.82
466.96	4877.68
467.14	4840.23
467.32	5006.41
467.51	5022.79
467.69	4858.95
467.87	4887.04
468.05	5025.13
468.23	4851.93
468.41	4910.44
468.60	4922.15
468.78	5144.50
468.96	5069.60
469.14	5018.11
469.32	5289.61
469.50	5032.15
469.69	5165.56
469.87	5160.88
470.05	5111.73
470.23	5104.71
470.41	5048.54
470.59	5238.12
470.77	5123.43
470.95	5198.33
471.14	5348.12
471.32	5228.76
471.50	5446.43
471.68	5408.98
471.86	5373.87
472.04	5289.61
472.22	5633.67
472.40	5423.02
472.58	5373.87
472.77	5423.02
472.95	5514.30
473.13	5584.52
473.31	5554.09
473.49	5408.98
473.67	5530.69
473.85	5703.89
474.03	5664.10
474.21	5706.23
474.39	5825.59
474.57	5743.67
474.75	5872.40
474.93	5841.98
475.12	5856.02
475.30	5900.49
475.48	5792.83
475.66	6003.47
475.84	5816.23
476.02	6113.48
476.20	6125.18
476.38	6179.01
476.56	6305.40
476.74	6312.42
476.92	6239.87
477.10	6134.54
477.28	6253.91
477.46	6263.27
477.64	6537.12
477.82	6485.62
478.00	6689.25
478.18	6743.08
478.36	6431.79
478.54	6656.48
478.72	6583.93
478.90	6913.94
479.08	6806.28
479.26	6665.85
479.44	6616.69
479.62	6993.52
479.80	6993.52
479.98	6806.28
480.16	6981.82
480.34	7262.68
480.52	7227.57
480.70	7300.13
480.88	7122.25
481.06	7094.16
481.24	7258.00
481.41	7321.20
481.59	7489.71
481.77	7449.93
481.95	7559.93
482.13	7683.98
482.31	7613.76
482.49	7651.21
482.67	7847.82
482.85	7936.76
483.03	7880.58
483.21	8028.04
483.39	8161.45
483.57	8121.66
483.74	7981.23
483.92	8255.07
484.10	8035.06
484.28	8339.33
484.46	8325.29
484.64	8627.21
484.82	8561.68
485.00	8463.38
485.18	8678.71
485.35	8716.16
485.53	8748.92
485.71	8798.07
485.89	8924.46
486.07	8917.44
486.25	9039.15
486.43	9076.60
486.61	9252.14
486.78	9329.38
486.96	9224.05
487.14	9390.23
487.32	9294.27
487.50	9348.10
487.68	9626.62
487.85	9603.22
488.03	9713.22
488.21	9863.02
488.39	9858.34
488.57	9989.41
488.75	9951.96
488.92	10272.61
489.10	10162.61
489.28	10134.52
489.46	10387.30
489.64	10286.65
489.81	10614.33
489.99	10399.00
490.17	10445.81
490.35	10745.40
490.53	10743.06
490.70	10775.83
490.88	10822.64
491.06	10953.71
491.24	10909.24
491.41	10899.87
491.59	11066.05
491.77	11192.44
491.95	11311.81
492.13	11129.25
492.30	11461.60
492.48	11246.27
492.66	11351.60
492.84	11304.79
493.01	11510.75
493.19	11683.95
493.37	11761.19
493.54	11871.20
493.72	11948.43
493.90	11843.11
494.08	12011.63
494.25	12147.38
494.43	12400.16
494.61	12402.50
494.79	12510.16
494.96	12425.90
495.14	12327.60
495.32	12564.00
495.49	12222.28
495.67	12482.08
495.85	12542.93
496.02	12725.49
496.20	13151.47
496.38	12901.03
496.55	13071.89
496.73	13001.68
496.91	12861.24
497.09	13406.59
497.26	13144.45
497.44	13254.45
497.62	13432.33
497.79	13530.64
497.97	13310.63
498.14	13617.24
498.32	13682.77
498.50	13467.44
498.67	13919.17
498.85	13731.92
499.03	14104.07
499.20	13738.94
499.38	13926.19
499.56	13987.04
499.73	13919.17
499.91	14139.18
500.08	14099.39
500.26	13940.23
500.44	14075.98
500.61	14253.86
500.79	14204.71
500.97	14347.48
501.14	14651.75
501.32	14370.89
501.49	14333.44
501.67	14406.00
501.84	14546.43
502.02	14719.63
502.20	14707.93
502.37	14874.10
502.55	14916.23
502.72	14434.08
502.90	15066.03
503.07	14831.97
503.25	14981.77
503.43	14738.35
503.60	15129.22
503.78	15248.59
503.95	15407.75
504.13	15346.89
504.30	15171.35
504.48	15318.81
504.65	15440.51
504.83	15506.05
505.01	15398.38
505.18	15377.32
505.36	15742.44
505.53	15824.36
505.71	15431.15
505.88	15936.71
506.06	15550.52
506.23	15896.92
506.41	15815.00
506.58	15754.15
506.76	15875.85
506.93	16037.35
507.11	15779.89
507.28	16269.06
507.46	16182.46
507.63	16259.70
507.81	16266.72
507.98	16294.81
508.16	16315.87
508.33	16376.73
508.50	16453.97
508.68	16559.29
508.85	16823.77
509.03	16727.81
509.20	16659.93
509.38	16987.61
509.55	17025.06
509.73	17191.23
509.90	16779.30
510.08	16802.71
510.25	16915.05
510.42	17064.85
510.60	17128.04
510.77	17486.14
510.95	17057.82
511.12	17401.88
511.30	17109.32
511.47	17174.85
511.64	17261.45
511.82	17568.06
511.99	17621.89
512.17	17715.51
512.34	17399.54
512.51	17645.30
512.69	17776.37
512.86	17776.37
513.04	17994.04
513.21	18078.30
513.38	17802.11
513.56	17867.65
513.73	17469.76
513.90	18012.76
514.08	17757.64
514.25	17984.68
514.43	18078.30
514.60	18190.64
514.77	18181.28
514.95	18459.81
515.12	18026.81
515.29	18235.11
515.47	18300.65
515.64	18391.93
515.81	18429.38
515.99	18623.64
516.16	18878.76
516.33	18452.78
516.51	18808.54
516.68	18377.89
516.85	18485.55
517.03	18724.29
517.20	18714.92
517.37	18750.03
517.54	18988.77
517.72	19028.56
517.89	19068.34
518.06	19082.39
518.24	19164.31
518.41	19213.46
518.58	19225.16
518.75	19304.74
518.93	19016.85
519.10	19183.03
519.27	19239.20
519.45	19393.68
519.62	19267.29
519.79	19166.65
519.96	19260.27
520.14	19758.80
520.31	19639.44
520.48	19421.77
520.65	19875.83
520.83	19845.40
521.00	19618.37
521.17	19882.85
521.34	19784.55
521.52	19728.38
521.69	19875.83
521.86	19819.66
522.03	19866.47
522.20	20182.44
522.38	19974.13
522.55	20205.84
522.72	19903.92
522.89	20201.16
523.07	20379.04
523.24	20255.00
523.41	20299.47
523.58	20051.37
523.75	20688.00
523.92	20187.12
524.10	20500.75
524.27	20641.18
524.44	20467.98
524.61	20615.44
524.78	20725.44
524.96	20404.79
525.13	20346.28
525.30	20821.41
525.47	20535.86
525.64	20690.34
525.81	20849.49
525.98	21088.23
526.16	20620.12
526.33	21055.46
526.50	20943.11
526.67	20842.47
526.84	20858.85
527.01	21235.68
527.18	21156.10
527.36	20891.62
527.53	21069.50
527.70	21231.00
527.87	21242.70
528.04	21298.88
528.21	21376.11
528.38	21109.29
528.55	21497.82
528.72	21352.71
528.89	21362.07
529.07	21469.73
529.24	21322.28
529.41	21514.20
529.58	21575.06
529.75	21598.46
529.92	21546.97
530.09	21671.02
530.26	21708.47
530.43	21788.05
530.60	21762.30
530.77	21848.90
530.94	21757.62
531.11	21563.36
531.28	21589.10
531.46	21867.63
531.63	21605.49
531.80	21577.40
531.97	22038.48
532.14	21802.09
532.31	21865.28
532.48	22024.44
532.65	21942.52
532.82	21965.93
532.99	22033.80
533.16	22089.98
533.33	22113.38
533.50	22363.82
533.67	22654.05
533.84	22223.39
534.01	22305.31
534.18	22256.15
534.35	22487.87
534.52	22190.62
534.69	22703.20
534.86	22373.18
535.03	22750.01
535.20	22455.10
535.37	22806.18
535.54	22682.13
535.71	22487.87
535.88	22642.34
536.05	22672.77
536.22	22611.92
536.38	22787.46
536.55	22871.72
536.72	22759.37
536.89	22579.15
537.06	22579.15
537.23	23073.00
537.40	22663.41
537.57	22984.06
537.74	22848.31
537.91	23145.56
538.08	23026.19
538.25	22946.61
538.42	23187.69
538.59	23234.50
538.75	22775.75
538.92	23016.83
539.09	23180.67
539.26	23346.84
539.43	23227.48
539.60	23351.52
539.77	23468.55
539.94	23421.74
540.11	23417.06
540.28	23283.65
540.44	23545.79
540.61	23620.69
540.78	23723.67
540.95	23550.47
541.12	23838.36
541.29	23922.62
541.46	24032.62
541.62	24063.05
541.79	24011.56
541.96	23714.31
542.13	23854.74
542.30	24070.07
542.47	24093.47
542.63	23985.81
542.80	23906.23
542.97	24203.48
543.14	24496.05
543.31	23910.91
543.48	24002.19
543.64	24191.78
543.81	24514.77
543.98	24673.93
544.15	24486.68
544.32	24603.71
544.48	24304.12
544.65	24496.05
544.82	24341.57
544.99	24407.11
545.16	24287.74
545.32	24570.94
545.49	25041.39
545.66	25589.08
545.83	25528.22
546.00	25596.10
546.16	24840.11
546.33	24762.87
546.50	24393.06
546.67	24458.60
546.83	24261.99
547.00	24341.57
547.17	24638.82
547.34	24276.04
547.50	24437.53
547.67	24805.00
547.84	24664.57
548.00	24870.53
548.17	24549.88
548.34	24451.58
548.51	24870.53
548.67	24840.11
548.84	24676.27
549.01	24879.89
549.18	24840.11
549.34	24776.91
549.51	24819.04
549.68	24816.70
549.84	24650.52
550.01	24533.50
550.18	25043.73
550.34	24973.52
550.51	24657.54
550.68	25088.20
550.84	24425.83
551.01	25020.33
551.18	24538.18
551.34	24570.94
551.51	25034.37
551.68	24760.53
551.84	25303.53
552.01	24929.05
552.18	24833.08
552.34	25132.67
552.51	25242.68
552.68	24636.48
552.84	24673.93
553.01	24903.30
553.18	25090.54
553.34	25055.43
553.51	25329.28
553.67	25315.23
553.84	25362.04
554.01	25303.53
554.17	25523.54
554.34	24910.32
554.51	25181.82
554.67	25355.02
554.84	25090.54
555.00	25209.91
555.17	25074.16
555.33	25415.88
555.50	25628.87
555.67	25174.80
555.83	24980.54
556.00	25312.89
556.16	25043.73
556.33	25348.00
556.50	25071.82
556.66	25350.34
556.83	25406.52
556.99	25291.83
557.16	25191.19
557.32	25371.41
557.49	25216.93
557.65	25284.81
557.82	24858.83
557.98	25486.09
558.15	25081.18
558.32	25542.27
558.48	25963.56
558.65	25453.33
558.81	25671.00
558.98	25589.08
559.14	25813.77
559.31	25649.93
559.47	25579.71
559.64	25392.47
559.80	25741.21
559.97	25371.41
560.13	25385.45
560.30	25722.49
560.46	25441.62
560.63	25687.38
560.79	25717.81
560.96	25483.75
561.12	25544.61
561.29	25439.28
561.45	25773.98
561.61	25827.81
561.78	25820.79
561.94	25977.61
562.11	25259.06
562.27	25591.42
562.44	25488.43
562.60	25420.56
562.77	25663.97
562.93	25392.47
563.10	25748.23
563.26	25509.50
563.42	26106.34
563.59	25638.23
563.75	25710.78
563.92	25591.42
564.08	25404.17
564.24	25722.49
564.41	25715.47
564.57	25876.96
564.74	25631.21
564.90	25956.54
565.07	25944.84
565.23	25757.60
565.39	25675.68
565.56	25647.59
565.72	25699.08
565.88	25947.18
566.05	25951.86
566.21	25490.77
566.38	25804.41
566.54	25881.64
566.70	25724.83
566.87	25813.77
567.03	25799.73
567.19	25893.35
567.36	25722.49
567.52	26087.61
567.68	25954.20
567.85	25469.71
568.01	26155.49
568.17	25682.70
568.34	25713.13
568.50	25603.12
568.66	25991.65
568.83	26162.51
568.99	25853.56
569.15	25619.50
569.32	25907.39
569.48	25785.68
569.64	26054.84
569.81	25991.65
569.97	26082.93
570.13	25748.23
570.30	25825.47
570.46	25848.88
570.62	25832.49
570.78	26031.44
570.95	26068.89
571.11	26008.03
571.27	25530.56
571.43	25495.46
571.60	25837.17
571.76	25979.95
571.92	26167.19
572.09	25921.43
572.25	25825.47
572.41	25792.70
572.57	25855.90
572.74	26059.52
572.90	25752.91
573.06	25862.92
573.22	25692.06
573.38	26001.01
573.55	26043.14
573.71	26370.82
573.87	26153.15
574.03	25958.88
574.20	26256.13
574.36	26005.69
574.52	26003.35
574.68	26314.64
574.84	26291.24
575.01	26253.79
575.17	25993.99
575.33	25649.93
575.49	25535.24
575.65	26132.08
575.82	26169.53
575.98	26064.21
576.14	25876.96
576.30	26099.31
576.46	25748.23
576.62	26214.00
576.79	26132.08
576.95	26312.30
577.11	25949.52
577.27	26015.05
577.43	26361.45
577.59	26150.81
577.75	26146.12
577.92	25710.78
578.08	25839.51
578.24	25703.76
578.40	26052.50
578.56	26422.31
578.72	26178.89
578.88	26309.96
579.04	26464.44
579.21	26122.72
579.37	26054.84
579.53	26242.09
579.69	26080.59
579.85	25764.62
580.01	26181.23
580.17	26108.68
580.33	26331.03
580.49	26078.25
580.65	26073.57
580.82	26211.66
580.98	26204.64
581.14	25968.24
581.30	25996.33
581.46	25905.05
581.62	26143.78
581.78	25706.10
581.94	26087.61
582.10	26115.70
582.26	26206.98
582.42	25841.85
582.58	26295.92
582.74	26195.28
582.90	26291.24
583.06	26361.45
583.22	26122.72
583.38	26054.84
583.54	25951.86
583.70	26162.51
583.86	25984.63
584.02	26066.55
584.18	25909.73
584.34	26010.37
584.50	26396.56
584.66	26111.02
584.82	25961.22
584.98	25937.82
585.14	26012.71
585.30	25893.35
585.46	25895.69
585.62	26300.60
585.78	26169.53
585.94	25991.65
586.10	26253.79
586.26	26265.49
586.42	26309.96
586.58	26281.88
586.74	26094.63
586.90	25888.67
587.06	25848.88
587.22	26485.50
587.38	26162.51
587.54	25869.94
587.70	26782.75
587.86	26408.26
588.02	26148.46
588.18	26326.35
588.34	26050.16
588.49	26185.91
588.65	25848.88
588.81	25935.48
588.97	26160.17
589.13	26546.36
589.29	26108.68
589.45	26103.99
589.61	26101.65
589.77	26412.95
589.93	26251.45
590.08	26305.28
590.24	26216.34
590.40	26466.78
590.56	26445.71
590.72	26321.66
590.88	26129.74
591.04	26361.45
591.20	26450.39
591.35	26724.24
591.51	26590.83
591.67	26375.50
591.83	26504.23
591.99	26541.68
592.15	26263.15
592.31	26359.11
592.46	26438.69
592.62	26221.02
592.78	26073.57
592.94	26300.60
593.10	26001.01
593.26	26696.15
593.41	26195.28
593.57	26422.31
593.73	26316.98
593.89	26389.54
594.05	26422.31
594.20	25916.75
594.36	26171.87
594.52	26026.76
594.68	26052.50
594.84	25879.30
594.99	26511.25
595.15	26178.89
595.31	26771.05
595.47	26672.74
595.62	26574.44
595.78	26466.78
595.94	26281.88
596.10	26033.78
596.25	26157.83
596.41	26103.99
596.57	26134.42
596.73	26197.62
596.88	26050.16
597.04	25860.58
597.20	26300.60
597.36	26202.30
597.51	26375.50
597.67	26190.59
597.83	26600.19
597.99	26288.90
598.14	26326.35
598.30	26251.45
598.46	26176.55
598.61	26199.96
598.77	26267.83
598.93	26263.15
599.09	26263.15
599.24	26457.42
599.40	26506.57
599.56	26539.33
599.71	26319.32
599.87	26373.16
600.03	26108.68
600.18	26246.77
600.34	26019.74
600.50	26459.76
600.65	26426.99
600.81	26534.65
600.97	26555.72
601.12	26778.07
601.28	26731.26
601.44	26206.98
601.59	26291.24
601.75	26286.56
601.91	26307.62
602.06	26169.53
602.22	26588.49
602.37	26118.04
602.53	25806.75
602.69	26050.16
602.84	26480.82
603.00	26228.04
603.16	26340.39
603.31	26127.40
603.47	26089.95
603.62	26312.30
603.78	26139.10
603.94	25666.31
604.09	26211.66
604.25	26274.85
604.40	26256.13
604.56	26347.41
604.71	26228.04
604.87	25844.20
605.03	26050.16
605.18	25984.63
605.34	26160.17
605.49	26054.84
605.65	26146.12
605.80	25535.24
605.96	25961.22
606.12	25795.04
606.27	26148.46
606.43	26129.74
606.58	26085.27
606.74	26146.12
606.89	26075.91
607.05	26071.23
607.20	26082.93
607.36	25745.89
607.51	26001.01
607.67	25979.95
607.82	25832.49
607.98	25460.35
608.13	26099.31
608.29	26045.48
608.44	25855.90
608.60	26139.10
608.75	26192.94
608.91	25549.29
609.06	25993.99
609.22	25991.65
609.37	26059.52
609.53	25710.78
609.68	25638.23
609.84	25944.84
609.99	26171.87
610.15	26602.53
610.30	26459.76
610.46	26324.01
610.61	26171.87
610.76	26480.82
610.92	26878.71
611.07	26864.67
611.23	26939.57
611.38	26813.18
611.54	26850.63
611.69	26265.49
611.84	26471.46
612.00	26319.32
612.15	26043.14
612.31	26141.44
612.46	25699.08
612.62	25979.95
612.77	25930.80
612.92	25940.16
613.08	25912.07
613.23	25612.48
613.39	25617.16
613.54	25778.66
613.69	25619.50
613.85	25556.31
614.00	25851.22
614.15	26047.82
614.31	25790.36
614.46	26085.27
614.62	25319.92
614.77	25570.35
614.92	25549.29
615.08	25743.55
615.23	25598.44
615.38	25422.90
615.54	25032.03
615.69	25216.93
615.84	25270.76
616.00	25422.90
616.15	25165.44
616.30	25734.19
616.46	25305.87
616.61	25326.94
616.76	25125.65
616.92	25324.60
617.07	25153.74
617.22	25076.50
617.37	24938.41
617.53	25057.78
617.68	25179.48
617.83	24971.18
617.99	25064.80
618.14	24957.13
618.29	25118.63
618.45	24964.15
618.60	25118.63
618.75	25191.19
618.90	25125.65
619.06	24961.81
619.21	25144.38
619.36	24680.95
619.51	24753.51
619.67	24797.98
619.82	24720.74
619.97	25006.28
620.12	24659.88
620.28	24659.88
620.43	24973.52
620.58	25013.31
620.73	24453.92
620.89	25408.86
621.04	25270.76
621.19	24390.72
621.34	24772.23
621.49	24648.18
621.65	24294.76
621.80	24526.47
621.95	24594.35
622.10	24938.41
622.25	24580.31
622.41	24514.77
622.56	24514.77
622.71	24421.15
622.86	24563.92
623.01	24744.14
623.16	24737.12
623.32	24322.85
623.47	24463.28
623.62	24341.57
623.77	24269.01
623.92	24306.46
624.07	23903.89
624.23	24240.93
624.38	24364.98
624.53	24388.38
624.68	24460.94
624.83	24552.22
624.98	24467.96
625.13	24219.86
625.29	23929.64
625.44	24556.90
625.59	24423.49
625.74	23960.06
625.89	23978.79
626.04	24217.52
626.19	24203.48
626.34	24119.22
626.49	23882.83
626.65	23889.85
626.80	24215.18
626.95	24100.50
627.10	24006.87
627.25	23983.47
627.40	23943.68
627.55	24219.86
627.70	23714.31
627.85	23761.12
628.00	23976.45
628.15	23955.38
628.30	23737.71
628.45	23885.17
628.60	23786.86
628.76	24020.92
628.91	24088.79
629.06	23681.54
629.21	23707.29
629.36	23536.43
629.51	24041.98
629.66	23920.28
629.81	23625.37
629.96	23981.13
630.11	23971.77
630.26	23646.43
630.41	23772.82
630.56	23494.30
630.71	23655.79
630.86	23948.36
631.01	23695.58
631.16	23819.63
631.31	23562.17
631.46	23660.48
631.61	23557.49
631.76	23311.74
631.91	23459.19
632.06	23264.92
632.21	23459.19
632.36	23442.81
632.51	23487.28
632.66	23293.01
632.81	23084.70
632.96	23648.77
633.10	23566.85
633.25	23438.12
633.40	23527.06
633.55	23433.44
633.70	23199.39
633.85	23112.79
634.00	23087.04
634.15	23234.50
634.30	23241.52
634.45	23300.03
634.60	23388.97
634.75	23058.96
634.90	23138.54
635.05	23028.53
635.19	23314.08
635.34	23150.24
635.49	22904.48
635.64	23339.82
635.79	23365.57
635.94	22883.42
636.09	23171.30
636.24	22981.72
636.39	23030.87
636.53	23227.48
636.68	22874.06
636.83	23084.70
636.98	23108.11
637.13	23073.00
637.28	22932.57
637.43	23201.73
637.57	23058.96
637.72	22876.40
637.87	23000.44
638.02	22892.78
638.17	23129.17
638.32	22958.31
638.46	22728.94
638.61	22817.88
638.76	22581.49
638.91	22546.38
639.06	22693.83
639.20	22735.96
639.35	22972.36
639.50	22740.64
639.65	22799.16
639.80	22707.88
639.94	22801.50
640.09	22618.94
640.24	22897.46
640.39	22478.50
640.54	22590.85
640.68	22710.22
640.83	22778.09
640.98	22340.41
641.13	22228.07
641.27	22932.57
641.42	22448.08
641.57	22719.58
641.72	22724.26
641.86	22195.30
642.01	22363.82
642.16	22630.64
642.31	22661.07
642.45	22565.10
642.60	22258.49
642.75	22761.71
642.90	22527.66
643.04	22176.58
643.19	22391.91
643.34	22277.22
643.48	22260.84
643.63	22492.55
643.78	22436.38
643.93	22394.25
644.07	22417.65
644.22	22553.40
644.37	22295.94
644.51	22136.79
644.66	22405.95
644.81	22115.72
644.95	22405.95
645.10	22157.85
645.25	22169.55
645.39	22274.88
645.54	22118.06
645.69	22164.87
645.83	22160.19
645.98	22267.86
646.13	22204.66
646.27	22204.66
646.42	22274.88
646.57	22209.34
646.71	22211.68
646.86	22143.81
647.00	21699.11
647.15	22118.06
647.30	21898.05
647.44	22019.76
647.59	22047.85
647.74	22015.08
647.88	22195.30
648.03	22047.85
648.17	21561.02
648.32	21680.38
648.47	21654.64
648.61	21984.65
648.76	22052.53
648.90	21839.54
649.05	21720.17
649.20	21706.13
649.34	21930.82
649.49	21575.06
649.63	21729.53
649.78	22015.08
649.92	21872.31
650.07	21687.40
650.21	21926.14
650.36	21766.98
650.51	21872.31
650.65	21764.64
650.80	21891.03
650.94	21783.37
651.09	21640.59
651.23	21401.86
651.38	21891.03
651.52	21605.49
651.67	21640.59
651.81	21661.66
651.96	21226.32
652.10	21701.45
652.25	21385.47
652.39	21661.66
652.54	21820.81
652.68	21827.84
652.83	21610.17
652.97	21565.70
653.12	21483.78
653.26	21621.87
653.41	21523.57
653.55	21841.88
653.70	21649.96
653.84	21469.73
653.99	21694.43
654.13	21359.73
654.27	21486.12
654.42	21305.90
654.56	21282.49
654.71	21432.29
654.85	21436.97
655.00	21504.84
655.14	21261.43
655.29	21113.97
655.43	21193.55
655.57	21022.69
655.72	21345.69
655.86	20996.95
656.01	21422.92
656.15	20996.95
656.30	20821.41
656.44	21317.60
656.58	21291.85
656.73	21301.22
656.87	21275.47
657.01	21048.44
657.16	21277.81
657.30	21392.50
657.45	21062.48
657.59	21577.40
657.73	20833.11
657.88	20947.79
658.02	20830.77
658.16	20500.75
658.31	20671.61
658.45	20744.17
658.60	20748.85
658.74	20931.41
658.88	20425.86
659.03	20856.51
659.17	20360.32
659.31	20767.57
659.46	20610.76
659.60	20788.64
659.74	20905.66
659.89	20680.97
660.03	20620.12
660.17	20835.45
660.32	20755.87
660.46	20395.43
660.60	20240.95
660.74	20463.30
660.89	20430.54
661.03	20329.89
661.17	20596.71
661.32	20238.61
661.46	20695.02
661.60	20723.10
661.74	20615.44
661.89	20301.81
662.03	20395.43
662.17	20482.03
662.31	20336.91
662.46	20456.28
662.60	20381.38
662.74	19957.75
662.88	19936.68
663.03	19985.83
663.17	19901.58
663.31	19929.66
663.45	20044.35
663.60	19805.61
663.74	19850.08
663.88	19641.78
664.02	20044.35
664.17	20189.46
664.31	19723.69
664.45	19761.14
664.59	19882.85
664.73	19976.47
664.88	20049.03
665.02	19407.72
665.16	19625.39
665.30	19534.11
665.44	19655.82
665.59	19517.73
665.73	19403.04
665.87	19597.31
666.01	19545.81
666.15	19627.73
666.29	19400.70
666.44	19517.73
666.58	19339.85
666.72	19398.36
666.86	19269.63
667.00	19480.28
667.14	19234.52
667.28	19075.37
667.43	19215.80
667.57	19243.88
667.71	19089.41
667.85	18970.04
667.99	19140.90
668.13	18696.20
668.27	18951.32
668.41	19143.24
668.56	18775.78
668.70	19278.99
668.84	19042.60
668.98	19332.82
669.12	18885.78
669.26	18958.34
669.40	18637.69
669.54	18775.78
669.68	19021.53
669.82	18853.02
669.96	18761.73
670.10	18679.82
670.25	18593.22
670.39	18630.66
670.53	18654.07
670.67	18862.38
670.81	18558.11
670.95	18539.38
671.09	18862.38
671.23	18513.64
671.37	18604.92
671.51	18520.66
671.65	18427.04
671.79	18338.10
671.93	18391.93
672.07	18244.48
672.21	18183.62
672.35	17996.38
672.49	17848.93
672.63	17900.42
672.77	18050.21
672.91	17717.86
673.05	17928.50
673.19	18061.91
673.33	17858.29
673.47	17928.50
673.61	17682.75
673.75	17823.18
673.89	17759.98
674.03	17507.21
674.17	17624.23
674.31	17614.87
674.45	17741.26
674.59	17455.72
674.73	17696.79
674.87	17291.88
675.01	17422.95
675.15	17390.18
675.29	17687.43
675.43	17673.39
675.56	17710.83
675.70	17427.63
675.84	17455.72
675.98	16994.63
676.12	17312.94
676.26	17425.29
676.40	17275.49
676.54	17050.80
676.68	17036.76
676.82	16819.09
676.96	16805.05
677.10	16795.68
677.23	16631.85
677.37	16931.44
677.51	16755.90
677.65	16821.43
677.79	16573.33
677.93	16489.07
678.07	16589.72
678.21	16217.57
678.34	16402.47
678.48	16491.41
678.62	16322.90
678.76	16367.37
678.90	16107.57
679.04	15920.32
679.18	15981.18
679.31	15807.98
679.45	15983.52
679.59	15861.81
679.73	16067.78
679.87	15744.78
680.00	15683.93
680.14	15847.77
680.28	15712.02
680.42	15484.98
680.56	15733.08
680.70	15529.45
680.83	15800.96
680.97	15611.37
681.11	15653.50
681.25	15232.21
681.39	15447.54
681.52	15463.92
681.66	15204.12
681.80	15176.03
681.94	15445.20
682.07	15316.47
682.21	15101.14
682.35	14843.68
682.49	14902.19
682.62	14853.04
682.76	14871.76
682.90	14953.68
683.04	14855.38
683.17	14757.08
683.31	14689.20
683.45	14703.25
683.59	14597.92
683.72	14593.24
683.86	14630.69
684.00	14450.47
684.13	14558.13
684.27	14288.97
684.41	14340.46
684.55	14097.05
684.68	14359.19
684.82	14450.47
684.96	13958.96
685.09	14106.41
685.23	14050.24
685.37	13987.04
685.50	14143.86
685.64	14094.71
685.78	14008.11
685.91	14101.73
686.05	13973.00
686.19	13818.52
686.32	13867.67
686.46	13671.07
686.60	13612.56
686.73	13589.15
686.87	13659.37
687.01	13724.90
687.14	13516.59
687.28	13378.50
687.42	13429.99
687.55	13383.18
687.69	13359.78
687.82	13111.68
687.96	13256.79
688.10	13245.09
688.23	13348.08
688.37	13256.79
688.50	13142.11
688.64	13165.51
688.78	12903.37
688.91	12856.56
689.05	12924.44
689.18	12685.70
689.32	12816.77
689.46	12718.47
689.59	12606.13
689.73	12596.76
689.86	12442.29
690.00	12442.29
690.13	12290.15
690.27	12465.69
690.41	12271.43
690.54	12360.37
690.68	12510.16
690.81	12334.62
690.95	12243.34
691.08	12386.12
691.22	12280.79
691.35	11992.90
691.49	12285.47
691.62	12030.35
691.76	12025.67
691.89	11665.23
692.03	11751.83
692.16	11838.43
692.30	11562.25
692.43	11756.51
692.57	11698.00
692.70	11559.91
692.84	11662.89
692.97	11548.20
693.11	11662.89
693.24	11513.10
693.38	11393.73
693.51	11503.73
693.65	11660.55
693.78	11391.39
693.92	11461.60
694.05	11391.39
694.19	11087.12
694.32	11171.38
694.45	10974.77
694.59	10920.94
694.72	11075.42
694.86	10892.85
694.99	10801.57
695.13	10850.72
695.26	10850.72
695.39	10644.76
695.53	10862.43
695.66	10565.18
695.80	10719.65
695.93	10665.82
696.07	10614.33
696.20	10719.65
696.33	10642.42
696.47	10427.09
696.60	10389.64
696.73	10394.32
696.87	10417.72
697.00	10401.34
697.14	10153.24
697.27	9919.19
697.40	10104.09
697.54	9877.06
697.67	9907.49
697.80	10024.51
697.94	10083.03
698.07	9907.49
698.21	9856.00
698.34	10040.90
698.47	9682.80
698.61	9661.73
698.74	9699.18
698.87	9745.99
699.01	9736.63
699.14	9509.60
699.27	9654.71
699.40	9685.14
699.54	9619.60
699.67	9245.12
699.80	9245.12
699.94	9366.82
700.07	9371.50
700.20	9268.52
700.34	9130.43
700.47	8823.82
700.60	9008.72
700.73	9266.18
700.87	9191.28
701.00	9069.58
701.13	9137.45
701.26	9074.26
701.40	8929.14
701.53	8964.25
701.66	8982.98
701.79	8725.52
701.93	8926.80
702.06	8809.78
702.19	8664.66
702.32	8844.88
702.46	8711.47
702.59	8510.19
702.72	8311.24
702.85	8662.32
702.99	8500.83
703.12	8439.97
703.25	8648.28
703.38	8292.52
703.51	8437.63
703.65	8402.52
703.78	8215.28
703.91	8290.18
704.04	8320.60
704.17	8313.58
704.31	8063.15
704.44	8109.96
704.57	8102.93
704.70	8133.36
704.83	8219.96
704.96	8081.87
705.10	7779.94
705.23	7726.11
>>>>>End Processed Spectral Data<<<<<
