SpectraSuite Data File
++++++++++++++++++++++++++++++++++++
Date: Fri Oct 04 11:40:05 GMT-05:00 2013
User: price-jones
Dark Spectrum Present: No
Reference Spectrum Present: No
Number of Sampled Component Spectra: 1
Spectrometers: USB2+H05261
Integration Time (usec): 100000 (USB2+H05261)
Spectra Averaged: 1 (USB2+H05261)
Boxcar Smoothing: 0 (USB2+H05261)
Correct for Electrical Dark: No (USB2+H05261)
Strobe/Lamp Enabled: No (USB2+H05261)
Correct for Detector Non-linearity: No (USB2+H05261)
Correct for Stray Light: No (USB2+H05261)
Number of Pixels in Processed Spectrum: 2048
>>>>>Begin Processed Spectral Data<<<<<
365.73	86.60
365.92	86.60
366.12	86.60
366.32	0.00
366.52	0.00
366.72	0.00
366.91	0.00
367.11	0.00
367.31	0.00
367.51	2.34
367.70	0.00
367.90	0.00
368.10	0.00
368.30	0.00
368.49	0.00
368.69	0.00
368.89	0.00
369.09	0.00
369.28	0.00
369.48	0.00
369.68	0.00
369.87	0.00
370.07	65.54
370.27	0.00
370.47	177.88
370.66	510.24
370.86	472.79
371.06	603.86
371.25	667.05
371.45	507.90
371.65	559.39
371.84	528.96
372.04	538.32
372.24	664.71
372.44	601.52
372.63	585.13
372.83	582.79
373.03	575.77
373.22	425.98
373.42	486.83
373.62	547.69
373.81	720.88
374.01	692.80
374.21	573.43
374.40	550.03
374.60	608.54
374.79	627.26
374.99	718.54
375.19	793.44
375.38	847.27
375.58	683.44
375.78	645.99
375.97	711.52
376.17	779.40
376.37	718.54
376.56	751.31
376.76	887.06
376.95	905.79
377.15	870.68
377.35	926.85
377.54	891.74
377.74	891.74
377.93	945.58
378.13	926.85
378.33	983.02
378.52	781.74
378.72	868.34
378.91	772.38
379.11	840.25
379.31	741.95
379.50	718.54
379.70	844.93
379.89	856.64
380.09	947.92
380.28	922.17
380.48	873.02
380.68	837.91
380.87	938.55
381.07	807.48
381.26	711.52
381.46	674.07
381.65	704.50
381.85	713.86
382.04	615.56
382.24	690.46
382.43	671.73
382.63	587.47
382.83	655.35
383.02	571.09
383.22	554.71
383.41	608.54
383.61	657.69
383.80	608.54
384.00	741.95
384.19	779.40
384.39	929.19
384.58	882.38
384.78	875.36
384.97	835.57
385.17	847.27
385.36	823.87
385.56	788.76
385.75	844.93
385.95	954.94
386.14	903.45
386.34	945.58
386.53	882.38
386.72	889.40
386.92	779.40
387.11	891.74
387.31	954.94
387.50	884.72
387.70	842.59
387.89	926.85
388.09	898.77
388.28	835.57
388.48	971.32
388.67	987.71
388.86	1100.05
389.06	1064.94
389.25	1200.69
389.45	1163.25
389.64	1191.33
389.84	1203.04
390.03	1160.91
390.22	1144.52
390.42	1172.61
390.61	1266.23
390.81	1287.29
391.00	1313.04
391.19	1226.44
391.39	1252.19
391.58	1301.34
391.78	1083.67
391.97	1137.50
392.16	1025.15
392.36	961.96
392.55	826.21
392.75	727.91
392.94	566.41
393.13	568.75
393.33	629.60
393.52	662.37
393.71	950.26
393.91	1069.62
394.10	1034.52
394.29	1043.88
394.49	1299.00
394.68	1390.28
394.88	1313.04
395.07	1418.36
395.26	1324.74
395.46	1369.21
395.65	1214.74
395.84	1214.74
396.04	1069.62
396.23	842.59
396.42	681.10
396.62	650.67
396.81	828.55
397.00	987.71
397.19	1135.16
397.39	1301.34
397.58	1486.24
397.77	1533.05
397.97	1661.78
398.16	1689.87
398.35	1654.76
398.55	1802.21
398.74	1778.81
398.93	1799.87
399.12	1799.87
399.32	1741.36
399.51	1713.27
399.70	1856.04
399.90	1874.77
400.09	1863.07
400.28	1877.11
400.47	1729.66
400.67	1952.01
400.86	1961.37
401.05	1987.11
401.24	2064.35
401.44	2050.31
401.63	1928.60
401.82	2071.37
402.01	2019.88
402.21	2097.12
402.40	2052.65
402.59	2097.12
402.78	2003.50
402.97	1888.81
403.17	1944.99
403.36	2054.99
403.55	2113.50
403.74	2160.31
403.93	2291.38
404.13	2380.32
404.32	2642.46
404.51	2724.38
404.70	2502.03
404.89	2155.63
405.09	2167.34
405.28	2087.76
405.47	1937.96
405.66	1937.96
405.85	2040.95
406.05	1940.30
406.24	1959.03
406.43	2017.54
406.62	2115.84
406.81	2078.40
407.00	1991.80
407.20	2005.84
407.39	2024.56
407.58	2188.40
407.77	2214.15
407.96	2186.06
408.15	2214.15
408.34	2143.93
408.54	2312.45
408.73	2314.79
408.92	2251.60
409.11	2291.38
409.30	2115.84
409.49	2045.63
409.68	1996.48
409.87	1937.96
410.07	1940.30
410.26	2019.88
410.45	2186.06
410.64	2363.94
410.83	2289.04
411.02	2380.32
411.21	2417.77
411.40	2492.67
411.59	2443.52
411.78	2429.48
411.98	2389.69
412.17	2377.98
412.36	2293.72
412.55	2347.56
412.74	2352.24
412.93	2340.54
413.12	2303.09
413.31	2466.92
413.50	2445.86
413.69	2583.95
413.88	2471.61
414.07	2490.33
414.26	2408.41
414.45	2385.01
414.64	2560.55
414.83	2555.86
415.02	2429.48
415.22	2455.22
415.41	2457.56
415.60	2607.36
415.79	2644.81
415.98	2733.75
416.17	2785.24
416.36	2670.55
416.55	2597.99
416.74	2600.34
416.93	2516.08
417.12	2548.84
417.31	2532.46
417.50	2551.18
417.69	2658.85
417.88	2516.08
418.07	2654.17
418.26	2658.85
418.45	2520.76
418.64	2583.95
418.83	2715.02
419.02	2778.22
419.21	2640.12
419.39	2672.89
419.58	2424.80
419.77	2441.18
419.96	2607.36
420.15	2724.38
420.34	2792.26
420.53	2771.19
420.72	2993.55
420.91	2909.29
421.10	2888.22
421.29	2951.42
421.48	2700.98
421.67	2904.60
421.86	2794.60
422.05	2583.95
422.24	2356.92
422.43	2511.39
422.61	2558.21
422.80	2726.72
422.99	2775.88
423.18	2649.49
423.37	2609.70
423.56	2640.12
423.75	2651.83
423.94	2665.87
424.13	2534.80
424.32	2637.78
424.50	2668.21
424.69	2574.59
424.88	2684.59
425.07	2476.29
425.26	2640.12
425.45	2539.48
425.64	2448.20
425.83	2544.16
426.01	2506.71
426.20	2616.72
426.39	2588.63
426.58	2544.16
426.77	2401.39
426.96	2275.00
427.15	2429.48
427.33	2546.50
427.52	2593.31
427.71	2602.68
427.90	2630.76
428.09	2750.13
428.28	2518.42
428.46	2499.69
428.65	2431.82
428.84	2555.86
429.03	2583.95
429.22	2347.56
429.40	2237.55
429.59	2188.40
429.78	1984.77
429.97	1851.36
430.16	1914.56
430.34	2029.24
430.53	2022.22
430.72	2052.65
430.91	2162.66
431.10	2342.88
431.28	2860.13
431.47	3040.36
431.66	3115.25
431.85	2848.43
432.03	2745.45
432.22	2656.51
432.41	2597.99
432.60	2771.19
432.79	2986.52
432.97	3133.98
433.16	2995.89
433.35	2850.77
433.54	2548.84
433.72	2424.80
433.91	2495.01
434.10	2717.36
434.28	2853.11
434.47	2988.86
434.66	3007.59
434.85	2972.48
435.03	3204.19
435.22	4159.13
435.41	5984.75
435.59	6656.48
435.78	5659.42
435.97	4503.19
436.16	3669.96
436.34	3398.46
436.53	3265.05
436.72	3173.77
436.90	2911.63
437.09	3059.08
437.28	2972.48
437.46	3054.40
437.65	3068.44
437.84	2979.50
438.02	2644.81
438.21	2637.78
438.40	2656.51
438.58	2857.79
438.77	3023.97
438.96	3038.02
439.14	3098.87
439.33	3208.87
439.52	3084.83
439.70	3157.38
439.89	3075.46
440.08	3014.61
440.26	3005.25
440.45	3164.40
440.63	3302.50
440.82	3407.82
441.01	3529.53
441.19	3452.29
441.38	3463.99
441.57	3475.70
441.75	3501.44
441.94	3758.90
442.12	3562.30
442.31	3466.33
442.50	3625.49
442.68	3403.14
442.87	3449.95
443.05	3555.27
443.24	3576.34
443.43	3684.00
443.61	3698.05
443.80	3758.90
443.98	3550.59
444.17	3501.44
444.35	3889.97
444.54	3812.73
444.73	3789.33
444.91	3737.84
445.10	3438.25
445.28	3323.56
445.47	3368.03
445.65	3300.16
445.84	3288.45
446.02	3531.87
446.21	3503.78
446.39	3400.80
446.58	3646.55
446.77	3543.57
446.95	3590.38
447.14	3737.84
447.32	3817.41
447.51	3693.37
447.69	3655.92
447.88	3604.42
448.06	3674.64
448.25	3475.70
448.43	3740.18
448.62	3604.42
448.80	3595.06
448.99	3606.77
449.17	3740.18
449.36	3681.66
449.54	3852.52
449.73	3911.04
449.91	4007.00
450.10	4011.68
450.28	4121.68
450.46	4072.53
450.65	4079.55
450.83	3946.14
451.02	3922.74
451.20	3655.92
451.39	3892.31
451.57	3878.27
451.76	3920.40
451.94	3953.16
452.13	3789.33
452.31	3665.28
452.49	3417.18
452.68	3435.91
452.86	3503.78
453.05	3599.74
453.23	3604.42
453.42	3679.32
453.60	3602.08
453.78	3768.26
453.97	3934.44
454.15	3716.77
454.34	3808.05
454.52	3751.88
454.70	3676.98
454.89	3791.67
455.07	3634.85
455.26	3768.26
455.44	3906.35
455.62	4016.36
455.81	3997.64
455.99	3871.25
456.17	3871.25
456.36	3873.59
456.54	4098.28
456.73	3976.57
456.91	4056.15
457.09	4198.92
457.28	4205.94
457.46	3999.98
457.64	4095.94
457.83	3913.38
458.01	3796.35
458.19	3925.08
458.38	3896.99
458.56	4070.19
458.74	4138.07
458.93	3976.57
459.11	3981.25
459.29	3885.29
459.48	4100.62
459.66	3960.19
459.84	4021.04
460.03	4269.14
460.21	4119.34
460.39	4049.13
460.57	4168.49
460.76	4154.45
460.94	4121.68
461.12	4215.30
461.31	4079.55
461.49	4056.15
461.67	4102.96
461.85	4208.28
462.04	4152.11
462.22	4648.30
462.40	4081.89
462.59	4198.92
462.77	4201.26
462.95	4290.20
463.13	4084.23
463.32	4152.11
463.50	4007.00
463.68	4191.90
463.86	4044.45
464.05	3981.25
464.23	3960.19
464.41	3817.41
464.59	3990.61
464.78	4060.83
464.96	4177.86
465.14	3936.78
465.32	3995.29
465.50	4077.21
465.69	4222.33
465.87	4124.02
466.05	4138.07
466.23	3929.76
466.41	3726.13
466.60	3922.74
466.78	3946.14
466.96	3978.91
467.14	3983.59
467.32	4051.47
467.51	4156.79
467.69	3995.29
467.87	3981.25
468.05	3911.04
468.23	4086.58
468.41	3960.19
468.60	3864.22
468.78	4039.76
468.96	3999.98
469.14	4065.51
469.32	4194.24
469.50	3967.21
469.69	4018.70
469.87	3866.56
470.05	3976.57
470.23	3772.94
470.41	4009.34
470.59	3988.27
470.77	3920.40
470.95	4102.96
471.14	4025.72
471.32	4091.26
471.50	4425.95
471.68	4301.90
471.86	4400.21
472.04	4346.37
472.22	4477.44
472.40	4166.15
472.58	4175.52
472.77	4119.34
472.95	4269.14
473.13	4418.93
473.31	4205.94
473.49	4257.43
473.67	4409.57
473.85	4386.16
474.03	4437.66
474.21	4484.47
474.39	4575.75
474.57	4547.66
474.75	4587.45
474.93	4451.70
475.12	4264.46
475.30	4266.80
475.48	4313.61
475.66	4463.40
475.84	4381.48
476.02	4259.78
476.20	4245.73
476.38	4444.68
476.56	4454.04
476.74	4606.17
476.92	4486.81
477.10	4599.15
477.28	4770.01
477.46	4758.31
477.64	4819.16
477.82	4945.55
478.00	4910.44
478.18	4858.95
478.36	4734.90
478.54	4781.71
478.72	4807.46
478.90	4922.15
479.08	4978.32
479.26	5060.24
479.44	5078.96
479.62	5114.07
479.80	4990.02
479.98	5083.64
480.16	4901.08
480.34	5170.24
480.52	4994.70
480.70	5203.01
480.88	5060.24
481.06	5289.61
481.24	5240.46
481.41	5547.07
481.59	5453.45
481.77	5444.09
481.95	5366.85
482.13	5418.34
482.31	5401.96
482.49	5411.32
482.67	5542.39
482.85	5568.13
483.03	5722.61
483.21	5565.79
483.39	5748.36
483.57	5689.84
483.74	5598.56
483.92	5586.86
484.10	5706.23
484.28	5891.13
484.46	5839.64
484.64	6136.88
484.82	5818.57
485.00	5888.79
485.18	5710.91
485.35	5638.35
485.53	5210.03
485.71	4795.76
485.89	4777.03
486.07	4833.21
486.25	5275.57
486.43	5600.90
486.61	5636.01
486.78	5685.16
486.96	5839.64
487.14	5947.30
487.32	5984.75
487.50	6282.00
487.68	6429.45
487.85	6494.99
488.03	6576.91
488.21	6473.92
488.39	6314.77
488.57	6104.12
488.75	6141.57
488.92	6462.22
489.10	6644.78
489.28	6984.16
489.46	7119.91
489.64	7000.54
489.81	7035.65
489.99	6864.79
490.17	7080.12
490.35	7215.87
490.53	7033.31
490.70	6729.04
490.88	6792.23
491.06	6885.86
491.24	6775.85
491.41	6871.81
491.59	6597.97
491.77	6221.14
491.95	6389.66
492.13	6780.53
492.30	6876.49
492.48	7068.42
492.66	7194.81
492.84	7293.11
493.01	7206.51
493.19	7206.51
493.37	7103.53
493.54	6904.58
493.72	6995.86
493.90	7393.75
494.08	7321.20
494.25	7442.90
494.43	7672.28
494.61	7438.22
494.79	7932.08
494.96	7616.10
495.14	7522.48
495.32	7190.13
495.49	7225.23
495.67	7297.79
495.85	7726.11
496.02	7566.95
496.20	7700.36
496.38	7742.49
496.55	7651.21
496.73	7592.70
496.91	7744.83
497.09	7761.22
497.26	7918.03
497.44	7707.38
497.62	7588.02
497.79	7513.12
497.97	7119.91
498.14	7351.62
498.32	7218.21
498.50	7683.98
498.67	7892.29
498.85	7665.25
499.03	7918.03
499.20	7882.92
499.38	7756.54
499.56	7971.86
499.73	7826.75
499.91	7651.21
500.08	7506.10
500.26	7272.04
500.44	7358.64
500.61	7564.61
500.79	7604.40
500.97	7435.88
501.14	7307.15
501.32	7105.87
501.49	7290.77
501.67	7311.83
501.84	7470.99
502.02	7616.10
502.20	7777.60
502.37	7648.87
502.55	7510.78
502.72	7536.52
502.90	7695.68
503.07	7691.00
503.25	7543.55
503.43	7225.23
503.60	7056.72
503.78	7066.08
503.95	7204.17
504.13	7400.77
504.30	7786.96
504.48	7819.73
504.65	7655.89
504.83	7744.83
505.01	7976.55
505.18	7960.16
505.36	8074.85
505.53	8231.66
505.71	8093.57
505.88	8131.02
506.06	8011.65
506.23	7810.37
506.41	7616.10
506.58	7908.67
506.76	7791.64
506.93	7730.79
507.11	7576.31
507.28	7786.96
507.46	7653.55
507.63	7810.37
507.81	7590.36
507.98	7421.84
508.16	7749.51
508.33	7880.58
508.50	7962.50
508.68	8147.40
508.85	8135.70
509.03	8280.82
509.20	8149.75
509.38	8128.68
509.55	7948.46
509.73	7798.66
509.90	8109.96
510.08	8262.09
510.25	8231.66
510.42	8025.70
510.60	7988.25
510.77	8301.88
510.95	8170.81
511.12	8252.73
511.30	8297.20
511.47	8400.18
511.64	8552.32
511.82	8201.24
511.99	8180.17
512.17	7969.52
512.34	8002.29
512.51	7817.39
512.69	7960.16
512.86	8131.02
513.04	8049.10
513.21	8198.90
513.38	8191.88
513.56	7913.35
513.73	7616.10
513.90	7796.32
514.08	7925.05
514.25	7784.62
514.43	7960.16
514.60	8182.51
514.77	8028.04
514.95	7873.56
515.12	8184.85
515.29	8051.44
515.47	8152.09
515.64	8161.45
515.81	8245.71
515.99	8138.04
516.16	7751.85
516.33	7204.17
516.51	6740.74
516.68	6558.18
516.85	6490.31
517.03	6642.44
517.20	7150.34
517.37	7660.57
517.54	7953.14
517.72	8074.85
517.89	7646.53
518.06	6677.55
518.24	6808.62
518.41	7225.23
518.58	7552.91
518.75	7573.97
518.93	7843.14
519.10	7730.79
519.27	7791.64
519.45	7838.45
519.62	8257.41
519.79	8411.89
519.96	8154.43
520.14	8035.06
520.31	7976.55
520.48	7765.90
520.65	7824.41
520.83	8156.77
521.00	8294.86
521.17	8404.86
521.34	8154.43
521.52	8142.72
521.69	8299.54
521.86	8442.31
522.03	8362.73
522.20	8072.51
522.38	7878.24
522.55	7651.21
522.72	7840.79
522.89	7906.33
523.07	7999.95
523.24	8154.43
523.41	8219.96
523.58	8243.37
523.75	8587.43
523.92	8411.89
524.10	8603.81
524.27	8571.04
524.44	8409.54
524.61	8425.93
524.78	8222.30
524.96	8140.38
525.13	8416.57
525.30	8365.07
525.47	8561.68
525.64	8493.80
525.81	8369.76
525.98	7932.08
526.16	7599.72
526.33	7255.66
526.50	7194.81
526.67	6935.01
526.84	7171.40
527.01	7524.82
527.18	7772.92
527.36	8044.42
527.53	8231.66
527.70	8423.59
527.87	8203.58
528.04	8051.44
528.21	8283.16
528.38	8423.59
528.55	8554.66
528.72	8711.47
528.89	8734.88
529.07	8781.69
529.24	8486.78
529.41	8409.54
529.58	8091.23
529.75	8004.63
529.92	8301.88
530.09	8311.24
530.26	8655.30
530.43	8667.00
530.60	8737.22
530.77	8641.26
530.94	8723.18
531.11	8503.17
531.28	8376.78
531.46	8416.57
531.63	8437.63
531.80	8482.10
531.97	8243.37
532.14	8304.22
532.31	7845.48
532.48	7735.47
532.65	7658.23
532.82	8058.46
532.99	8107.62
533.16	8463.38
533.33	8655.30
533.50	8571.04
533.67	8423.59
533.84	8163.79
534.01	8198.90
534.18	8212.94
534.35	8372.10
534.52	8231.66
534.69	8325.29
534.86	8468.06
535.03	8423.59
535.20	8699.77
535.37	8641.26
535.54	8683.39
535.71	8854.25
535.88	8737.22
536.05	8461.04
536.22	8189.53
536.38	8362.73
536.55	8299.54
536.72	8145.06
536.89	8072.51
537.06	8332.31
537.23	8498.49
537.40	8638.92
537.57	8772.33
537.74	8875.31
537.91	8697.43
538.08	8833.18
538.25	8830.84
538.42	8847.22
538.59	8669.34
538.75	8769.99
538.92	8549.98
539.09	8477.42
539.26	8800.41
539.43	8725.52
539.60	8627.21
539.77	8901.06
539.94	8882.33
540.11	8954.89
540.28	8837.86
540.44	9071.92
540.61	9210.01
540.78	9413.63
540.95	9902.81
541.12	10228.14
541.29	10750.08
541.46	11096.48
541.62	11164.36
541.79	10909.24
541.96	10633.05
542.13	10204.74
542.30	10326.44
542.47	10389.64
542.63	10080.69
542.80	9811.53
542.97	9919.19
543.14	9818.55
543.31	9792.80
543.48	9893.44
543.64	10373.25
543.81	10487.94
543.98	10326.44
544.15	10286.65
544.32	10101.75
544.48	10001.11
544.65	10076.01
544.82	10108.77
544.99	10061.96
545.16	10368.57
545.32	10024.51
545.49	11613.74
545.66	14113.43
545.83	16987.61
546.00	15775.21
546.16	12945.50
546.33	11660.55
546.50	10670.50
546.67	10312.40
546.83	9980.04
547.00	9680.46
547.17	9493.21
547.34	9427.68
547.50	9345.76
547.67	9160.86
547.84	9078.94
548.00	9259.16
548.17	9177.24
548.34	9263.84
548.51	9259.16
548.67	9383.21
548.84	9153.84
549.01	8858.93
549.18	9020.42
549.34	9050.85
549.51	8924.46
549.68	8844.88
549.84	8826.16
550.01	8638.92
550.18	8819.14
550.34	8674.03
550.51	8664.66
550.68	8592.11
550.84	8226.98
551.01	8341.67
551.18	8374.44
551.34	8236.35
551.51	8374.44
551.68	8615.51
551.84	8777.01
552.01	8365.07
552.18	8346.35
552.34	8051.44
552.51	8236.35
552.68	7793.98
552.84	8046.76
553.01	8184.85
553.18	8067.83
553.34	8212.94
553.51	8072.51
553.67	8210.60
553.84	8336.99
554.01	8219.96
554.17	7894.63
554.34	8053.78
554.51	8241.03
554.67	8332.31
554.84	7969.52
555.00	7976.55
555.17	8039.74
555.33	8074.85
555.50	7805.69
555.67	8084.21
555.83	7903.99
556.00	7742.49
556.16	7681.64
556.33	7672.28
556.50	7686.32
556.66	7632.49
556.83	7639.51
556.99	7447.58
557.16	7454.61
557.32	7662.91
557.49	7726.11
557.65	7920.37
557.82	7630.15
557.98	7777.60
558.15	7566.95
558.32	7332.90
558.48	7295.45
558.65	7243.96
558.81	7276.73
558.98	7267.36
559.14	7258.00
559.31	7473.33
559.47	7337.58
559.64	7499.08
559.80	7433.54
559.97	7468.65
560.13	7302.47
560.30	7440.56
560.46	7665.25
560.63	7688.66
560.79	7719.09
560.96	7566.95
561.12	7463.97
561.29	7187.79
561.45	7215.87
561.61	7265.02
561.78	7398.43
561.94	7576.31
562.11	7328.22
562.27	7274.38
562.44	7316.51
562.60	7508.44
562.77	7545.89
562.93	7548.23
563.10	7639.51
563.26	7564.61
563.42	7360.98
563.59	7323.54
563.75	7459.29
563.92	7389.07
564.08	7145.66
564.24	7360.98
564.41	7248.64
564.57	7379.71
564.74	7307.15
564.90	7117.57
565.07	7204.17
565.23	7243.96
565.39	6967.77
565.56	7002.88
565.72	6787.55
565.88	6906.92
566.05	7005.22
566.21	7014.59
566.38	7094.16
566.54	7206.51
566.70	7318.86
566.87	7335.24
567.03	7391.41
567.19	7286.09
567.36	7162.04
567.52	6991.18
567.68	7122.25
567.85	6853.09
568.01	6832.02
568.17	6712.66
568.34	6626.06
568.50	6759.47
568.66	6612.01
568.83	6731.38
568.99	6544.14
569.15	6911.60
569.32	6738.40
569.48	6712.66
569.64	6663.51
569.81	6658.82
569.97	6707.98
570.13	6630.74
570.30	6675.21
570.46	6576.91
570.62	6590.95
570.78	6408.39
570.95	6593.29
571.11	6600.31
571.27	6539.46
571.43	6637.76
571.60	6782.87
571.76	6647.12
571.92	6647.12
572.09	6864.79
572.25	6806.28
572.41	6850.75
572.57	6841.39
572.74	6995.86
572.90	6766.49
573.06	6817.98
573.22	6796.92
573.38	6925.65
573.55	6717.34
573.71	6930.33
573.87	6799.26
574.03	6633.08
574.20	6642.44
574.36	6452.86
574.52	6513.71
574.68	6539.46
574.84	6457.54
575.01	6401.37
575.17	6363.92
575.33	6375.62
575.49	6656.48
575.65	6677.55
575.82	6572.22
575.98	6380.30
576.14	6485.62
576.30	6705.63
576.46	7407.80
576.62	7707.38
576.79	8131.02
576.95	7417.16
577.11	7070.76
577.27	6932.67
577.43	6825.00
577.59	6607.33
577.75	6684.57
577.92	6263.27
578.08	6356.90
578.24	6319.45
578.40	6544.14
578.56	7133.95
578.72	7494.40
578.88	7896.97
579.04	7412.48
579.21	7110.55
579.37	6846.07
579.53	6794.58
579.69	6906.92
579.85	6913.94
580.01	7169.06
580.17	6970.12
580.33	6888.20
580.49	6867.13
580.65	6773.51
580.82	6857.77
580.98	6743.08
581.14	6813.30
581.30	6972.46
581.46	6789.89
581.62	6960.75
581.78	7000.54
581.94	6998.20
582.10	6874.15
582.26	6993.52
582.42	7117.57
582.58	6981.82
582.74	7042.67
582.90	7169.06
583.06	7119.91
583.22	6881.18
583.38	6998.20
583.54	7019.27
583.70	6888.20
583.86	7119.91
584.02	6972.46
584.18	6930.33
584.34	6930.33
584.50	6850.75
584.66	6885.86
584.82	6780.53
584.98	6670.53
585.14	6738.40
585.30	6817.98
585.46	6551.16
585.62	6497.33
585.78	6537.12
585.94	6602.65
586.10	6487.96
586.26	6579.25
586.42	6750.10
586.58	6951.39
586.74	6937.35
586.90	7126.93
587.06	7052.03
587.22	7225.23
587.38	7002.88
587.54	6710.32
587.70	6436.47
587.86	6331.15
588.02	6230.51
588.18	5853.68
588.34	5640.69
588.49	5336.42
588.65	5085.98
588.81	4891.72
588.97	4929.17
589.13	4809.80
589.29	4933.85
589.45	5013.43
589.61	4945.55
589.77	5078.96
589.93	5303.65
590.08	5275.57
590.24	5537.71
590.40	5844.32
590.56	5717.93
590.72	5584.52
590.88	5753.04
591.04	5734.31
591.20	5724.95
591.35	5568.13
591.51	5497.92
591.67	5572.82
591.83	5542.39
591.99	5479.19
592.15	5767.08
592.31	5973.05
592.46	6209.44
592.62	6129.86
592.78	6094.76
592.94	6157.95
593.10	6047.94
593.26	6174.33
593.41	6286.68
593.57	6080.71
593.73	5788.14
593.89	5598.56
594.05	5366.85
594.20	5385.57
594.36	5331.74
594.52	5181.95
594.68	5153.86
594.84	5289.61
594.99	5469.83
595.15	5636.01
595.31	5598.56
595.47	5556.43
595.62	5551.75
595.78	5633.67
595.94	5694.52
596.10	5724.95
596.25	5722.61
596.41	5542.39
596.57	5427.70
596.73	5668.78
596.88	5561.11
597.04	5666.44
597.20	5603.24
597.36	5713.25
597.51	5589.20
597.67	5617.29
597.83	5746.02
597.99	5919.21
598.14	5867.72
598.30	5673.46
598.46	5776.44
598.61	5830.27
598.77	5884.11
598.93	5907.51
599.09	5902.83
599.24	6129.86
599.40	5951.98
599.56	5891.13
599.71	5771.76
599.87	5841.98
600.03	5851.34
600.18	5816.23
600.34	5933.26
600.50	5790.49
600.65	5738.99
600.81	5804.53
600.97	5661.76
601.12	5753.04
601.28	5633.67
601.44	5703.89
601.59	5636.01
601.75	5556.43
601.91	5535.37
602.06	5645.37
602.22	5816.23
602.37	5563.45
602.53	5533.03
602.69	5837.30
602.84	5710.91
603.00	5792.83
603.16	5919.21
603.31	5937.94
603.47	5856.02
603.62	5776.44
603.78	5731.97
603.94	5614.95
604.09	5818.57
604.25	5619.63
604.40	5778.78
604.56	5610.26
604.71	5715.59
604.87	5685.16
605.03	5682.82
605.18	5769.42
605.34	5533.03
605.49	5528.35
605.65	5710.91
605.80	5542.39
605.96	5729.63
606.12	5607.92
606.27	5741.33
606.43	5671.12
606.58	5907.51
606.74	5713.25
606.89	5933.26
607.05	5891.13
607.20	5797.51
607.36	5790.49
607.51	5760.06
607.67	5680.48
607.82	5699.20
607.98	5764.74
608.13	5708.57
608.29	5785.80
608.44	5811.55
608.60	5816.23
608.75	5975.39
608.91	6066.67
609.06	6267.95
609.22	6277.32
609.37	6307.74
609.53	6363.92
609.68	6553.50
609.84	6567.54
609.99	6906.92
610.15	7007.56
610.30	7847.82
610.46	8372.10
610.61	9270.86
610.76	10415.38
610.92	11765.87
611.07	12631.87
611.23	12908.05
611.38	12343.99
611.54	11583.31
611.69	10569.86
611.84	9708.54
612.00	8777.01
612.15	8386.14
612.31	7761.22
612.46	7625.47
612.62	7482.69
612.77	7342.26
612.92	7152.68
613.08	7007.56
613.23	6927.99
613.39	6647.12
613.54	6471.58
613.69	6548.82
613.85	6654.14
614.00	6597.97
614.15	6527.75
614.31	6656.48
614.46	6562.86
614.62	6487.96
614.77	6590.95
614.92	6392.00
615.08	6356.90
615.23	6258.59
615.38	6005.81
615.54	5839.64
615.69	5738.99
615.84	5490.90
616.00	5366.85
616.15	5284.93
616.30	5320.04
616.46	5284.93
616.61	5128.11
616.76	5472.17
616.92	5296.63
617.07	5170.24
617.22	5287.27
617.37	5088.32
617.53	5252.16
617.68	5165.56
617.83	5289.61
617.99	5184.29
618.14	5357.49
618.29	5270.89
618.45	5074.28
618.60	5032.15
618.75	5195.99
618.90	5020.45
619.06	4978.32
619.21	5090.67
619.36	4926.83
619.51	5027.47
619.67	5039.17
619.82	5046.20
619.97	5064.92
620.12	5238.12
620.28	5078.96
620.43	5184.29
620.58	5301.31
620.73	5242.80
620.89	5093.01
621.04	5128.11
621.19	4926.83
621.34	4875.34
621.49	4856.61
621.65	5032.15
621.80	5060.24
621.95	4933.85
622.10	4931.51
622.25	4999.38
622.41	5015.77
622.56	4795.76
622.71	4842.57
622.86	4851.93
623.01	4945.55
623.16	4903.42
623.32	4882.36
623.47	4903.42
623.62	4856.61
623.77	4870.65
623.92	4821.50
624.07	4971.30
624.23	4842.57
624.38	4660.01
624.53	4793.42
624.68	4748.95
624.83	4821.50
624.98	4847.25
625.13	4767.67
625.29	4624.90
625.44	4624.90
625.59	4844.91
625.74	4716.18
625.89	4788.74
626.04	4753.63
626.19	4784.06
626.34	4741.93
626.49	4697.46
626.65	4645.96
626.80	4786.40
626.95	4755.97
627.10	4596.81
627.25	4678.73
627.40	4355.74
627.55	4189.56
627.70	4283.18
627.85	4187.22
628.00	4201.26
628.15	4161.47
628.30	4243.39
628.45	4320.63
628.60	4454.04
628.76	4365.10
628.91	4435.32
629.06	4510.21
629.21	4435.32
629.36	4362.76
629.51	4351.06
629.66	4428.29
629.81	4484.47
629.96	4582.77
630.11	4486.81
630.26	4610.86
630.41	4662.35
630.56	4688.09
630.71	4861.29
630.86	4908.10
631.01	4814.48
631.16	4718.52
631.31	4660.01
631.46	4360.42
631.61	4238.71
631.76	4269.14
631.91	4177.86
632.06	4259.78
632.21	4344.03
632.36	4198.92
632.51	4081.89
632.66	4322.97
632.81	4105.30
632.96	4070.19
633.10	4131.05
633.25	4210.62
633.40	4098.28
633.55	3990.61
633.70	4011.68
633.85	4070.19
634.00	3960.19
634.15	4084.23
634.30	3981.25
634.45	3824.44
634.60	3911.04
634.75	4049.13
634.90	4051.47
635.05	4009.34
635.19	4063.17
635.34	4086.58
635.49	4168.49
635.64	3974.23
635.79	3918.06
635.94	3997.64
636.09	3824.44
636.24	3953.16
636.39	3936.78
636.53	3941.46
636.68	3964.87
636.83	3955.51
636.98	3981.25
637.13	3885.29
637.28	3964.87
637.43	3948.48
637.57	3882.95
637.72	4030.40
637.87	4037.42
638.02	3911.04
638.17	3894.65
638.32	3852.52
638.46	4124.02
638.61	4016.36
638.76	3936.78
638.91	3957.85
639.06	3873.59
639.20	3918.06
639.35	3901.67
639.50	3829.12
639.65	4004.66
639.80	3777.62
639.94	3786.99
640.09	3864.22
640.24	3810.39
640.39	3836.14
640.54	3684.00
640.68	3721.45
640.83	3791.67
640.98	3730.81
641.13	3735.50
641.27	3852.52
641.42	3819.75
641.57	3719.11
641.72	3662.94
641.86	3660.60
642.01	3618.47
642.16	3812.73
642.31	3726.13
642.45	3887.63
642.60	3782.31
642.75	3782.31
642.90	3794.01
643.04	3775.28
643.19	3585.70
643.34	3679.32
643.48	3756.56
643.63	3662.94
643.78	3744.86
643.93	3679.32
644.07	3719.11
644.22	3627.83
644.37	3688.68
644.51	3646.55
644.66	3707.41
644.81	3679.32
644.95	3585.70
645.10	3440.59
645.25	3520.17
645.39	3452.29
645.54	3536.55
645.69	3424.20
645.83	3468.67
645.98	3407.82
646.13	3342.28
646.27	3442.93
646.42	3253.34
646.57	3155.04
646.71	3220.58
646.86	3297.81
647.00	3199.51
647.15	3145.68
647.30	3117.59
647.44	3047.38
647.59	2939.71
647.74	3185.47
647.88	3150.36
648.03	3173.77
648.17	3110.57
648.32	3047.38
648.47	3173.77
648.61	3143.34
648.76	3290.79
648.90	3075.46
649.05	3225.26
649.20	3023.97
649.34	2965.46
649.49	3045.04
649.63	3108.23
649.78	3166.74
649.92	3346.97
650.07	3375.05
650.21	3527.19
650.36	3569.32
650.51	3482.72
650.65	3541.23
650.80	3265.05
650.94	3499.10
651.09	3412.50
651.23	3274.41
651.38	2944.39
651.52	2913.97
651.67	3033.33
651.81	2979.50
651.96	3131.64
652.10	3213.56
652.25	3162.06
652.39	3391.44
652.54	3318.88
652.68	3398.46
652.83	3494.42
652.97	3290.79
653.12	3171.43
653.26	3187.81
653.41	3328.24
653.55	3265.05
653.70	3295.47
653.84	3220.58
653.99	3133.98
654.13	3169.09
654.27	3232.28
654.42	3059.08
654.56	3038.02
654.71	3080.14
654.85	3040.36
655.00	3002.91
655.14	2923.33
655.29	2930.35
655.43	3009.93
655.57	2967.80
655.72	2715.02
655.86	2609.70
656.01	2427.14
656.15	2312.45
656.30	2457.56
656.44	2539.48
656.58	2612.04
656.73	2729.06
656.87	2799.28
657.01	2876.52
657.16	2841.41
657.30	2846.09
657.45	3016.95
657.59	3026.31
657.73	3173.77
657.88	3108.23
658.02	3145.68
658.16	3094.19
658.31	3075.46
658.45	3110.57
658.60	3049.72
658.74	2937.37
658.88	3035.67
659.03	3073.12
659.17	3143.34
659.31	3019.29
659.46	3061.42
659.60	3124.62
659.74	3080.14
659.89	3199.51
660.03	3098.87
660.17	3105.89
660.32	3105.89
660.46	3115.25
660.60	3052.06
660.74	3061.42
660.89	3014.61
661.03	2963.12
661.17	3091.85
661.32	3007.59
661.46	3126.96
661.60	3056.74
661.74	3073.12
661.89	3122.27
662.03	3117.59
662.17	3136.32
662.31	3133.98
662.46	3194.83
662.60	3089.51
662.74	3103.55
662.88	3028.65
663.03	3014.61
663.17	2981.84
663.31	3049.72
663.45	2988.86
663.60	3012.27
663.74	2956.10
663.88	3028.65
664.02	2878.86
664.17	2986.52
664.31	3023.97
664.45	3000.57
664.59	3014.61
664.73	2874.18
664.88	2946.73
665.02	2862.48
665.16	2876.52
665.30	2916.31
665.44	2944.39
665.59	2974.82
665.73	2885.88
665.87	2796.94
666.01	2850.77
666.15	2778.22
666.29	2965.46
666.44	2960.78
666.58	2892.90
666.72	2700.98
666.86	2733.75
667.00	2813.32
667.14	2782.90
667.28	2892.90
667.43	2899.92
667.57	2841.41
667.71	2850.77
667.85	2733.75
667.99	2850.77
668.13	2773.53
668.27	2785.24
668.41	2864.82
668.56	2803.96
668.70	2862.48
668.84	2750.13
668.98	2780.56
669.12	2752.47
669.26	2743.11
669.40	2642.46
669.54	2745.45
669.68	2736.09
669.82	2635.44
669.96	2731.41
670.10	2675.23
670.25	2803.96
670.39	2640.12
670.53	2743.11
670.67	2586.29
670.81	2658.85
670.95	2656.51
671.09	2668.21
671.23	2738.43
671.37	2640.12
671.51	2668.21
671.65	2586.29
671.79	2642.46
671.93	2630.76
672.07	2677.57
672.21	2572.25
672.35	2534.80
672.49	2572.25
672.63	2546.50
672.77	2637.78
672.91	2609.70
673.05	2583.95
673.19	2686.94
673.33	2619.06
673.47	2602.68
673.61	2504.37
673.75	2509.05
673.89	2497.35
674.03	2630.76
674.17	2541.82
674.31	2464.58
674.45	2485.65
674.59	2427.14
674.73	2387.35
674.87	2452.88
675.01	2450.54
675.15	2464.58
675.29	2567.57
675.43	2478.63
675.56	2597.99
675.70	2483.31
675.84	2476.29
675.98	2420.11
676.12	2410.75
676.26	2483.31
676.40	2438.84
676.54	2296.07
676.68	2373.30
676.82	2434.16
676.96	2401.39
677.10	2413.09
677.23	2396.71
677.37	2408.41
677.51	2310.11
677.65	2480.97
677.79	2221.17
677.93	2403.73
678.07	2401.39
678.21	2186.06
678.34	2230.53
678.48	2310.11
678.62	2335.85
678.76	2080.74
678.90	2319.47
679.04	2319.47
679.18	2260.96
679.31	2251.60
679.45	2207.13
679.59	2181.38
679.73	2289.04
679.87	2307.77
680.00	2270.32
680.14	2265.64
680.28	2207.13
680.42	2150.95
680.56	2239.89
680.70	2054.99
680.83	2246.91
680.97	2099.46
681.11	2214.15
681.25	2223.51
681.39	2167.34
681.52	2150.95
681.66	2090.10
681.80	2143.93
681.94	2069.03
682.07	2169.68
682.21	2024.56
682.35	2118.18
682.49	2083.08
682.62	2062.01
682.76	2059.67
682.90	2010.52
683.04	2052.65
683.17	2069.03
683.31	2031.58
683.45	1947.33
683.59	2136.91
683.72	1895.83
683.86	1914.56
684.00	1970.73
684.13	1966.05
684.27	1956.69
684.41	1914.56
684.55	1989.46
684.68	1961.37
684.82	1977.75
684.96	1947.33
685.09	2052.65
685.23	1959.03
685.37	1867.75
685.50	1846.68
685.64	1891.15
685.78	1832.64
685.91	1930.94
686.05	1966.05
686.19	1832.64
686.32	1830.30
686.46	1668.80
686.60	1387.94
686.73	1287.29
686.87	1268.57
687.01	1240.48
687.14	1114.10
687.28	1188.99
687.42	1268.57
687.55	1343.47
687.69	1453.47
687.82	1416.02
687.96	1530.71
688.10	1643.06
688.23	1502.62
688.37	1610.29
688.50	1577.52
688.64	1570.50
688.78	1441.77
688.91	1420.71
689.05	1404.32
689.18	1366.87
689.32	1348.15
689.46	1376.24
689.59	1355.17
689.73	1411.34
689.86	1390.28
690.00	1411.34
690.13	1416.02
690.27	1474.54
690.41	1406.66
690.54	1427.73
690.68	1446.45
690.81	1420.71
690.95	1570.50
691.08	1364.53
691.22	1392.62
691.35	1610.29
691.49	1380.92
691.62	1502.62
691.76	1338.79
691.89	1444.11
692.03	1345.81
692.16	1320.06
692.30	1348.15
692.43	1348.15
692.57	1289.64
692.70	1306.02
692.84	1273.25
692.97	1240.48
693.11	1165.59
693.24	1282.61
693.38	1306.02
693.51	1165.59
693.65	1296.66
693.78	1219.42
693.92	1238.14
694.05	1167.93
694.19	1177.29
694.32	1219.42
694.45	1132.82
694.59	1135.16
694.72	1167.93
694.86	1184.31
694.99	1186.65
695.13	1146.86
695.26	1249.85
695.39	1219.42
695.53	1238.14
695.66	1200.69
695.80	1233.46
695.93	1174.95
696.07	1280.27
696.20	1196.01
696.33	1235.80
696.47	1334.11
696.60	1327.08
696.73	1334.11
696.87	1420.71
697.00	1350.49
697.14	1366.87
697.27	1233.46
697.40	1392.62
697.54	1207.72
697.67	1203.04
697.80	1233.46
697.94	1191.33
698.07	1233.46
698.21	1184.31
698.34	1144.52
698.47	1254.53
698.61	1076.65
698.74	1069.62
698.87	1057.92
699.01	1093.03
699.14	1048.56
699.27	1034.52
699.40	1100.05
699.54	924.51
699.67	1062.60
699.80	1069.62
699.94	1064.94
700.07	957.28
700.20	894.08
700.34	973.66
700.47	1041.54
700.60	987.71
700.73	1053.24
700.87	992.39
701.00	1025.15
701.13	1060.26
701.26	990.05
701.40	1095.37
701.53	997.07
701.66	947.92
701.79	1018.13
701.93	1036.86
702.06	940.90
702.19	987.71
702.32	973.66
702.46	987.71
702.59	882.38
702.72	884.72
702.85	891.74
702.99	1004.09
703.12	1001.75
703.25	1039.20
703.38	1062.60
703.51	1139.84
703.65	1015.79
703.78	976.00
703.91	1008.77
704.04	1020.47
704.17	1018.13
704.31	1011.11
704.44	1039.20
704.57	983.02
704.70	936.21
704.83	985.37
704.96	922.17
705.10	863.66
705.23	978.34
>>>>>End Processed Spectral Data<<<<<
