SpectraSuite Data File
++++++++++++++++++++++++++++++++++++
Date: Fri Oct 04 11:39:35 GMT-05:00 2013
User: price-jones
Dark Spectrum Present: No
Reference Spectrum Present: No
Number of Sampled Component Spectra: 1
Spectrometers: USB2+H05261
Integration Time (usec): 100000 (USB2+H05261)
Spectra Averaged: 1 (USB2+H05261)
Boxcar Smoothing: 0 (USB2+H05261)
Correct for Electrical Dark: No (USB2+H05261)
Strobe/Lamp Enabled: No (USB2+H05261)
Correct for Detector Non-linearity: No (USB2+H05261)
Correct for Stray Light: No (USB2+H05261)
Number of Pixels in Processed Spectrum: 2048
>>>>>Begin Processed Spectral Data<<<<<
365.73	23.41
365.92	23.41
366.12	23.41
366.32	0.00
366.52	0.00
366.72	0.00
366.91	0.00
367.11	0.00
367.31	0.00
367.51	0.00
367.70	0.00
367.90	0.00
368.10	0.00
368.30	0.00
368.49	0.00
368.69	21.06
368.89	0.00
369.09	0.00
369.28	0.00
369.48	72.56
369.68	14.04
369.87	0.00
370.07	18.72
370.27	9.36
370.47	63.19
370.66	152.13
370.86	241.08
371.06	220.01
371.25	278.52
371.45	187.24
371.65	245.76
371.84	271.50
372.04	138.09
372.24	191.92
372.44	238.73
372.63	287.89
372.83	262.14
373.03	285.55
373.22	292.57
373.42	339.38
373.62	301.93
373.81	318.31
374.01	320.65
374.21	341.72
374.40	285.55
374.60	287.89
374.79	313.63
374.99	285.55
375.19	386.19
375.38	315.97
375.58	369.80
375.78	409.59
375.97	278.52
376.17	320.65
376.37	245.76
376.56	337.04
376.76	315.97
376.95	304.27
377.15	306.61
377.35	294.91
377.54	365.12
377.74	374.49
377.93	369.80
378.13	367.46
378.33	381.51
378.52	330.02
378.72	337.04
378.91	383.85
379.11	330.02
379.31	215.33
379.50	393.21
379.70	386.19
379.89	325.33
380.09	318.31
380.28	299.59
380.48	374.49
380.68	250.44
380.87	341.72
381.07	386.19
381.26	397.89
381.46	404.91
381.65	344.06
381.85	376.83
382.04	386.19
382.24	395.55
382.43	351.08
382.63	322.99
382.83	369.80
383.02	379.17
383.22	411.93
383.41	332.36
383.61	348.74
383.80	442.36
384.00	388.53
384.19	308.95
384.39	423.64
384.58	278.52
384.78	454.06
384.97	428.32
385.17	409.59
385.36	348.74
385.56	388.53
385.75	374.49
385.95	421.30
386.14	430.66
386.34	348.74
386.53	346.40
386.72	435.34
386.92	411.93
387.11	395.55
387.31	440.02
387.50	414.27
387.70	463.43
387.89	505.56
388.09	477.47
388.28	404.91
388.48	479.81
388.67	454.06
388.86	365.12
389.06	503.22
389.25	566.41
389.45	491.51
389.64	425.98
389.84	519.60
390.03	545.34
390.22	533.64
390.42	409.59
390.61	470.45
390.81	491.51
391.00	535.98
391.19	517.26
391.39	531.30
391.58	484.49
391.78	564.07
391.97	573.43
392.16	510.24
392.36	599.18
392.55	531.30
392.75	561.73
392.94	557.05
393.13	575.77
393.33	524.28
393.52	538.32
393.71	521.94
393.91	634.29
394.10	566.41
394.29	603.86
394.49	573.43
394.68	573.43
394.88	627.26
395.07	645.99
395.26	645.99
395.46	620.24
395.65	685.78
395.84	711.52
396.04	725.57
396.23	678.76
396.42	627.26
396.62	727.91
396.81	744.29
397.00	758.33
397.19	685.78
397.39	657.69
397.58	746.63
397.77	732.59
397.97	702.16
398.16	690.46
398.35	770.04
398.55	702.16
398.74	770.04
398.93	781.74
399.12	784.08
399.32	798.12
399.51	711.52
399.70	891.74
399.90	849.61
400.09	774.72
400.28	861.32
400.47	826.21
400.67	856.64
400.86	814.51
401.05	889.40
401.24	992.39
401.44	884.72
401.63	910.47
401.82	1022.81
402.01	915.15
402.21	929.19
402.40	933.87
402.59	973.66
402.78	950.26
402.97	1006.43
403.17	994.73
403.36	1055.58
403.55	1043.88
403.74	1020.47
403.93	1053.24
404.13	1137.50
404.32	1170.27
404.51	1100.05
404.70	1203.04
404.89	1170.27
405.09	1193.67
405.28	1104.73
405.47	1149.20
405.66	1289.64
405.85	1151.54
406.05	1263.89
406.24	1212.40
406.43	1266.23
406.62	1296.66
406.81	1280.27
407.00	1228.78
407.20	1268.57
407.39	1231.12
407.58	1343.47
407.77	1427.73
407.96	1394.96
408.15	1373.89
408.34	1385.60
408.54	1338.79
408.73	1441.77
408.92	1401.98
409.11	1526.03
409.30	1488.58
409.49	1488.58
409.68	1495.60
409.87	1540.07
410.07	1629.01
410.26	1526.03
410.45	1514.33
410.64	1661.78
410.83	1603.27
411.02	1563.48
411.21	1750.72
411.40	1696.89
411.59	1696.89
411.78	1743.70
411.98	1713.27
412.17	1849.02
412.36	1743.70
412.55	1870.09
412.74	1851.36
412.93	1818.60
413.12	1930.94
413.31	1952.01
413.50	1879.45
413.69	2054.99
413.88	2043.29
414.07	2111.16
414.26	1996.48
414.45	2069.03
414.64	2122.87
414.83	2183.72
415.02	2207.13
415.22	2258.62
415.41	2200.10
415.60	2265.64
415.79	2289.04
415.98	2260.96
416.17	2272.66
416.36	2345.22
416.55	2326.49
416.74	2340.54
416.93	2413.09
417.12	2455.22
417.31	2438.84
417.50	2450.54
417.69	2534.80
417.88	2546.50
418.07	2506.71
418.26	2546.50
418.45	2696.30
418.64	2715.02
418.83	2686.94
419.02	2682.25
419.21	2675.23
419.39	2619.06
419.58	2560.55
419.77	2672.89
419.96	2822.69
420.15	2928.01
420.34	2782.90
420.53	2874.18
420.72	2745.45
420.91	2738.43
421.10	2995.89
421.29	2897.58
421.48	2911.63
421.67	2892.90
421.86	2909.29
422.05	3054.40
422.24	2986.52
422.43	3002.91
422.61	2928.01
422.80	2979.50
422.99	3007.59
423.18	3157.38
423.37	3068.44
423.56	3201.85
423.75	3030.99
423.94	2930.35
424.13	2820.35
424.32	2998.23
424.50	3171.43
424.69	3126.96
424.88	3157.38
425.07	2965.46
425.26	3082.49
425.45	3131.64
425.64	3136.32
425.83	3061.42
426.01	3159.72
426.20	3166.74
426.39	3159.72
426.58	3171.43
426.77	3246.32
426.96	3253.34
427.15	3300.16
427.33	3316.54
427.52	3246.32
427.71	3302.50
427.90	3370.37
428.09	3403.14
428.28	3316.54
428.46	3435.91
428.65	3382.07
428.84	3541.23
429.03	3548.25
429.22	3276.75
429.40	3456.97
429.59	3459.31
429.78	3295.47
429.97	3386.76
430.16	3426.54
430.34	3578.68
430.53	3564.64
430.72	3562.30
430.91	3574.00
431.10	3508.46
431.28	3566.98
431.47	3782.31
431.66	3667.62
431.85	3684.00
432.03	3726.13
432.22	3861.88
432.41	3599.74
432.60	3854.86
432.79	3742.52
432.97	3831.46
433.16	3838.48
433.35	3786.99
433.54	3789.33
433.72	3932.10
433.91	3845.50
434.10	3866.56
434.28	3889.97
434.47	3922.74
434.66	4023.38
434.85	3957.85
435.03	3932.10
435.22	4234.03
435.41	4472.76
435.59	4311.27
435.78	4322.97
435.97	4063.17
436.16	4128.70
436.34	3976.57
436.53	4217.65
436.72	4292.54
436.90	4294.88
437.09	4159.13
437.28	4180.20
437.46	4191.90
437.65	4208.28
437.84	4339.35
438.02	4297.22
438.21	4297.22
438.40	4283.18
438.58	4313.61
438.77	4337.01
438.96	4514.89
439.14	4463.40
439.33	4568.73
439.52	4545.32
439.70	4470.42
439.89	4807.46
440.08	4645.96
440.26	4622.56
440.45	4622.56
440.63	4887.04
440.82	4889.38
441.01	4894.06
441.19	4842.57
441.38	5039.17
441.57	4774.69
441.75	4851.93
441.94	5069.60
442.12	5090.67
442.31	5062.58
442.50	5004.07
442.68	5020.45
442.87	5160.88
443.05	5167.90
443.24	5418.34
443.43	5315.36
443.61	5186.63
443.80	5249.82
443.98	5022.79
444.17	5111.73
444.35	5256.84
444.54	5315.36
444.73	5434.72
444.91	5191.31
445.10	5526.00
445.28	5268.55
445.47	5277.91
445.65	5261.52
445.84	5247.48
446.02	5352.81
446.21	5308.34
446.39	5385.57
446.58	5401.96
446.77	5425.36
446.95	5151.52
447.14	5298.97
447.32	5533.03
447.51	5493.24
447.69	5226.42
447.88	5310.68
448.06	5558.77
448.25	5408.98
448.43	5341.10
448.62	5432.38
448.80	5394.93
448.99	5540.05
449.17	5605.58
449.36	5537.71
449.54	5680.48
449.73	5652.39
449.91	5547.07
450.10	5675.80
450.28	5731.97
450.46	5614.95
450.65	5844.32
450.83	5668.78
451.02	5729.63
451.20	5884.11
451.39	5813.89
451.57	5818.57
451.76	5668.78
451.94	5879.43
452.13	5837.30
452.31	5926.24
452.49	5696.86
452.68	5881.77
452.86	5926.24
453.05	6078.37
453.23	6076.03
453.42	6001.13
453.60	6066.67
453.78	5928.58
453.97	6134.54
454.15	5895.81
454.34	6052.63
454.52	6197.74
454.70	6157.95
454.89	6169.65
455.07	6087.73
455.26	6237.53
455.44	6235.19
455.62	6352.21
455.81	6211.78
455.99	6307.74
456.17	6225.82
456.36	6284.34
456.54	6401.37
456.73	6459.88
456.91	6403.71
457.09	6633.08
457.28	6785.21
457.46	6497.33
457.64	6621.38
457.83	6595.63
458.01	6574.56
458.19	6761.81
458.38	6738.40
458.56	6712.66
458.74	6803.94
458.93	6684.57
459.11	6829.68
459.29	6953.73
459.48	6817.98
459.66	6920.96
459.84	6846.07
460.03	7309.49
460.21	6951.39
460.39	7016.93
460.57	7019.27
460.76	7124.59
460.94	6974.80
461.12	6946.71
461.31	7000.54
461.49	7136.29
461.67	6932.67
461.85	7250.98
462.04	7094.16
462.22	7382.05
462.40	7178.42
462.59	7148.00
462.77	7204.17
462.95	7215.87
463.13	7258.00
463.32	7391.41
463.50	7485.03
463.68	7428.86
463.86	7346.94
464.05	7330.56
464.23	7414.82
464.41	7485.03
464.59	7248.64
464.78	7655.89
464.96	7250.98
465.14	7370.35
465.32	7630.15
465.50	7585.68
465.69	7510.78
465.87	7449.93
466.05	7529.50
466.23	7513.12
466.41	7817.39
466.60	7885.26
466.78	7726.11
466.96	7625.47
467.14	7646.53
467.32	7700.36
467.51	7906.33
467.69	7602.06
467.87	7742.49
468.05	7777.60
468.23	7815.05
468.41	7777.60
468.60	7889.95
468.78	8079.53
468.96	7791.64
469.14	7946.12
469.32	7943.78
469.50	7840.79
469.69	8023.36
469.87	8163.79
470.05	8194.22
470.23	8264.43
470.41	7988.25
470.59	8269.11
470.77	8112.30
470.95	8505.51
471.14	8674.03
471.32	8325.29
471.50	8592.11
471.68	8334.65
471.86	8484.44
472.04	8610.83
472.22	8692.75
472.40	8449.33
472.58	8774.67
472.77	8606.15
472.95	8737.22
473.13	9048.51
473.31	8861.27
473.49	8919.78
473.67	8777.01
473.85	8798.07
474.03	8987.66
474.21	8973.61
474.39	9128.09
474.57	9324.69
474.75	9167.88
474.93	9226.39
475.12	9352.78
475.30	9490.87
475.48	9357.46
475.66	9399.59
475.84	9451.08
476.02	9617.26
476.20	9371.50
476.38	9783.44
476.56	9919.19
476.74	9884.08
476.92	9743.65
477.10	10033.88
477.28	10054.94
477.46	9867.70
477.64	10157.92
477.82	10274.95
478.00	10504.32
478.18	10391.98
478.36	10401.34
478.54	10579.22
478.72	10761.78
478.90	10588.58
479.08	10700.93
479.26	10934.98
479.44	11012.22
479.62	10925.62
479.80	10920.94
479.98	11204.14
480.16	11260.32
480.34	11311.81
480.52	11590.33
480.70	11508.41
480.88	11246.27
481.06	11314.15
481.24	11646.51
481.41	11536.50
481.59	11833.75
481.77	12081.85
481.95	12388.46
482.13	12257.39
482.31	12098.23
482.49	12369.73
482.67	12446.97
482.85	12559.31
483.03	12795.71
483.21	13111.68
483.39	13104.66
483.57	12781.67
483.74	12968.91
483.92	13235.73
484.10	13219.35
484.28	13392.55
484.46	13479.15
484.64	13944.91
484.82	13577.45
485.00	13650.00
485.18	13898.10
485.35	14113.43
485.53	14071.30
485.71	14106.41
485.89	14424.72
486.07	14375.57
486.25	14501.96
486.43	14394.29
486.61	14483.24
486.78	14785.16
486.96	14925.60
487.14	15180.71
487.32	15283.70
487.50	15283.70
487.68	15405.41
487.85	15695.63
488.03	15529.45
488.21	16114.59
488.39	15880.53
488.57	15953.09
488.75	16020.97
488.92	16269.06
489.10	16678.66
489.28	16690.36
489.46	16858.88
489.64	16631.85
489.81	17090.59
489.99	17015.69
490.17	16868.24
490.35	17476.78
490.53	17261.45
490.70	17448.69
490.88	17563.38
491.06	17785.73
491.24	17951.91
491.41	17778.71
491.59	17862.97
491.77	17834.88
491.95	18225.75
492.13	18478.53
492.30	18298.31
492.48	18408.31
492.66	18459.81
492.84	18415.34
493.01	18794.50
493.19	18871.74
493.37	19278.99
493.54	19033.24
493.72	19166.65
493.90	19232.18
494.08	19489.64
494.25	19695.61
494.43	19770.51
494.61	19601.99
494.79	19854.76
494.96	19864.13
495.14	20243.29
495.32	20170.74
495.49	20322.87
495.67	20376.70
495.85	20819.07
496.02	20311.17
496.20	20753.53
496.38	20786.30
496.55	20903.32
496.73	21355.05
496.91	21336.32
497.09	21085.89
497.26	21317.60
497.44	21415.90
497.62	21359.73
497.79	21687.40
497.97	21823.16
498.14	21898.05
498.32	22012.74
498.50	22101.68
498.67	22244.45
498.85	22551.06
499.03	22239.77
499.20	22260.84
499.38	22567.45
499.56	22925.55
499.73	22663.41
499.91	22937.25
500.08	23143.22
500.26	22780.43
500.44	23215.77
500.61	23222.80
500.79	23028.53
500.97	23300.03
501.14	23934.32
501.32	23218.11
501.49	23686.22
501.67	23784.52
501.84	23491.96
502.02	23634.73
502.20	23983.47
502.37	23910.91
502.55	24074.75
502.72	24027.94
502.90	24093.47
503.07	23871.12
503.25	24196.46
503.43	24114.54
503.60	24734.78
503.78	24596.69
503.95	24517.11
504.13	24552.22
504.30	24833.08
504.48	24900.96
504.65	25111.61
504.83	24837.76
505.01	25518.86
505.18	25130.33
505.36	25397.15
505.53	25240.34
505.71	25525.88
505.88	25539.93
506.06	25247.36
506.23	26012.71
506.41	25757.60
506.58	25710.78
506.76	25738.87
506.93	26099.31
507.11	25685.04
507.28	26108.68
507.46	26239.75
507.63	26096.97
507.81	26644.66
507.98	26120.38
508.16	26438.69
508.33	26565.08
508.50	26452.73
508.68	26948.93
508.85	27201.71
509.03	26981.70
509.20	27199.37
509.38	27094.04
509.55	26829.56
509.73	27105.74
509.90	27304.69
510.08	27260.22
510.25	27131.49
510.42	27690.88
510.60	27728.33
510.77	28114.52
510.95	28084.09
511.12	27728.33
511.30	27852.38
511.47	28011.53
511.64	28177.71
511.82	28287.71
511.99	27969.40
512.17	28624.75
512.34	28383.68
512.51	28510.07
512.69	28561.56
512.86	28797.95
513.04	28882.21
513.21	28924.34
513.38	29006.26
513.56	29359.68
513.73	28973.49
513.90	28861.15
514.08	28795.61
514.25	29102.22
514.43	29193.50
514.60	29453.30
514.77	29565.65
514.95	29795.02
515.12	29219.25
515.29	29502.45
515.47	29933.11
515.64	29940.13
515.81	29979.92
515.99	30118.01
516.16	30073.54
516.33	30188.23
516.51	30363.77
516.68	30160.14
516.85	29764.59
517.03	30466.75
517.20	30387.18
517.37	30401.22
517.54	30934.86
517.72	30731.23
517.89	30808.47
518.06	30335.68
518.24	30525.27
518.41	30621.23
518.58	31194.66
518.75	30656.34
518.93	31309.35
519.10	31098.70
519.27	31419.35
519.45	31187.64
519.62	31431.05
519.79	30984.01
519.96	31145.51
520.14	31531.70
520.31	31601.91
520.48	32002.14
520.65	31262.54
520.83	31800.86
521.00	31887.46
521.17	31601.91
521.34	31765.75
521.52	32154.28
521.69	32081.72
521.86	32341.52
522.03	32643.45
522.20	32484.30
522.38	32472.59
522.55	32320.46
522.72	32287.69
522.89	32957.08
523.07	32727.71
523.24	32559.19
523.41	33202.84
523.58	32463.23
523.75	32769.84
523.92	32549.83
524.10	33141.99
524.27	33109.22
524.44	33027.30
524.61	33598.39
524.78	33209.86
524.96	33542.22
525.13	33427.53
525.30	33748.18
525.47	33659.24
525.64	33432.21
525.81	33699.03
525.98	33930.75
526.16	33715.42
526.33	33797.34
526.50	34192.89
526.67	33811.38
526.84	34113.31
527.01	33790.31
527.18	34040.75
527.36	34164.80
527.53	34237.36
527.70	34340.34
527.87	34494.82
528.04	34342.68
528.21	34387.15
528.38	34462.05
528.55	34492.47
528.72	34469.07
528.89	34616.52
529.07	34733.55
529.24	34445.66
529.41	34721.85
529.58	34522.90
529.75	34808.45
529.92	34916.11
530.09	35014.41
530.26	35012.07
530.43	35079.95
530.60	34707.80
530.77	35089.31
530.94	35229.74
531.11	35225.06
531.28	35260.17
531.46	34972.28
531.63	35620.61
531.80	35442.73
531.97	35576.14
532.14	35878.07
532.31	35866.37
532.48	35594.87
532.65	35557.42
532.82	35395.92
532.99	35503.59
533.16	35583.16
533.33	35976.37
533.50	35864.03
533.67	36488.95
533.84	35880.41
534.01	35971.69
534.18	35655.72
534.35	36360.22
534.52	36568.53
534.69	36275.96
534.86	36802.58
535.03	36378.95
535.20	36676.19
535.37	36676.19
535.54	36542.78
535.71	36458.52
535.88	36395.33
536.05	36165.96
536.22	36561.51
536.38	36725.35
536.55	36851.73
536.72	36701.94
536.89	36603.64
537.06	37202.82
537.23	37034.30
537.40	37078.77
537.57	37076.43
537.74	37148.98
537.91	37689.65
538.08	37404.10
538.25	37177.07
538.42	37237.92
538.59	37457.93
538.75	37212.18
538.92	37298.78
539.09	37610.07
539.26	37701.35
539.43	37420.48
539.60	37139.62
539.77	37207.50
539.94	37680.28
540.11	37727.10
540.28	37785.61
540.44	37965.83
540.61	37745.82
540.78	37605.39
540.95	38075.84
541.12	37975.19
541.29	38637.56
541.46	38513.52
541.62	38281.80
541.79	38471.39
541.96	38073.49
542.13	38382.45
542.30	38553.30
542.47	39019.07
542.63	38553.30
542.80	38841.19
542.97	38852.89
543.14	39236.74
543.31	38869.28
543.48	38766.29
543.64	39138.44
543.81	39250.78
543.98	39033.11
544.15	38602.46
544.32	39082.27
544.48	39526.97
544.65	39187.59
544.82	39313.98
544.99	38604.80
545.16	38925.45
545.32	38998.01
545.49	39641.65
545.66	40573.19
545.83	40449.14
546.00	40212.74
546.16	40013.80
546.33	39318.66
546.50	39145.46
546.67	39342.06
546.83	38927.79
547.00	39435.69
547.17	39552.71
547.34	39508.24
547.50	39761.02
547.67	39768.04
547.84	39559.73
548.00	39854.64
548.17	40224.45
548.34	39564.42
548.51	40053.59
548.67	39756.34
548.84	40224.45
549.01	39835.92
549.18	40294.66
549.34	39791.45
549.51	39711.87
549.68	40041.88
549.84	39351.43
550.01	40187.00
550.18	40062.95
550.34	40016.14
550.51	40196.36
550.68	39938.90
550.84	39966.99
551.01	40243.17
551.18	40224.45
551.34	39573.78
551.51	40322.75
551.68	40404.67
551.84	40491.27
552.01	40055.93
552.18	40154.23
552.34	40158.91
552.51	40252.53
552.68	40215.08
552.84	40472.54
553.01	40339.13
553.18	40575.53
553.34	40481.91
553.51	40582.55
553.67	40552.12
553.84	40947.67
554.01	41034.27
554.17	40631.70
554.34	40542.76
554.51	40676.17
554.67	40711.28
554.84	40671.49
555.00	40814.26
555.17	40832.99
555.33	40706.60
555.50	40917.25
555.67	40402.33
555.83	40332.11
556.00	40741.71
556.16	41095.13
556.33	40816.60
556.50	40971.08
556.66	41230.88
556.83	41219.17
556.99	41488.34
557.16	41006.19
557.32	41354.93
557.49	41170.02
557.65	40531.06
557.82	40840.01
557.98	40617.66
558.15	40980.44
558.32	40891.50
558.48	41099.81
558.65	41155.98
558.81	41053.00
558.98	41202.79
559.14	41003.85
559.31	40900.86
559.47	40926.61
559.64	41235.56
559.80	41193.43
559.97	41237.90
560.13	41371.31
560.30	41221.52
560.46	40987.46
560.63	41118.53
560.79	41631.11
560.96	41301.09
561.12	41226.20
561.29	41434.50
561.45	41350.24
561.61	41654.51
561.78	41596.00
561.94	41394.71
562.11	41399.40
562.27	41811.33
562.44	41577.28
562.60	41357.27
562.77	41420.46
562.93	41495.36
563.10	41785.58
563.26	41268.33
563.42	41832.39
563.59	41364.29
563.75	41691.96
563.92	41820.69
564.08	41748.14
564.24	41408.76
564.41	41364.29
564.57	41736.43
564.74	41731.75
564.90	41881.55
565.07	41670.90
565.23	41635.79
565.39	41553.87
565.56	42038.36
565.72	41457.91
565.88	41483.66
566.05	41626.43
566.21	41750.48
566.38	41727.07
566.54	42071.13
566.70	41851.12
566.87	42012.62
567.03	41715.37
567.19	41958.78
567.36	41649.83
567.52	41528.13
567.68	41883.89
567.85	41890.91
568.01	41745.80
568.17	41572.60
568.34	41911.97
568.50	41635.79
568.66	41694.30
568.83	42291.14
568.99	41874.52
569.15	41776.22
569.32	42113.26
569.48	41734.09
569.64	41556.21
569.81	41572.60
569.97	41612.38
570.13	41794.95
570.30	41532.81
570.46	41675.58
570.62	41862.82
570.78	41724.73
570.95	41542.17
571.11	42202.20
571.27	41806.65
571.43	41439.18
571.60	41745.80
571.76	41820.69
571.92	42370.72
572.09	42160.07
572.25	41832.39
572.41	41886.23
572.57	42117.94
572.74	42366.04
572.90	41911.97
573.06	42139.00
573.22	42134.32
573.38	42220.92
573.55	41982.19
573.71	42684.35
573.87	42377.74
574.03	41823.03
574.20	41720.05
574.36	41895.59
574.52	42227.95
574.68	42270.08
574.84	42286.46
575.01	42026.66
575.17	42251.35
575.33	42087.51
575.49	42153.05
575.65	42012.62
575.82	42497.11
575.98	42284.12
576.14	42251.35
576.30	41816.01
576.46	42026.66
576.62	42340.29
576.79	42375.40
576.95	42307.52
577.11	42602.43
577.27	42366.04
577.43	42354.33
577.59	42288.80
577.75	42148.37
577.92	41940.06
578.08	42092.19
578.24	42532.22
578.40	42300.50
578.56	42232.63
578.72	42045.38
578.88	42494.77
579.04	42347.31
579.21	42143.69
579.37	42211.56
579.53	42237.31
579.69	42288.80
579.85	42136.66
580.01	42452.64
580.17	41979.85
580.33	41935.38
580.49	42197.52
580.65	42543.92
580.82	42113.26
580.98	42178.79
581.14	42244.33
581.30	42410.51
581.46	42103.90
581.62	42246.67
581.78	41979.85
581.94	42122.62
582.10	41993.89
582.26	42106.24
582.42	42293.48
582.58	42340.29
582.74	42586.05
582.90	42038.36
583.06	42169.43
583.22	42082.83
583.38	42120.28
583.54	42024.32
583.70	42225.60
583.86	42550.94
584.02	41706.01
584.18	42658.60
584.34	42185.82
584.50	42347.31
584.66	42110.92
584.82	42174.11
584.98	42000.91
585.14	42139.00
585.30	42169.43
585.46	42284.12
585.62	42335.61
585.78	42089.85
585.94	42019.64
586.10	42581.37
586.26	42445.62
586.42	42295.82
586.58	42359.02
586.74	42209.22
586.90	41970.49
587.06	41937.72
587.22	42412.85
587.38	42211.56
587.54	42564.98
587.70	42234.97
587.86	42520.51
588.02	42375.40
588.18	42417.53
588.34	42185.82
588.49	42462.00
588.65	42052.41
588.81	42504.13
588.97	42330.93
589.13	42403.49
589.29	42239.65
589.45	42801.38
589.61	42078.15
589.77	42820.10
589.93	42834.14
590.08	42466.68
590.24	42806.06
590.40	42536.90
590.56	42621.16
590.72	42246.67
590.88	42155.39
591.04	42639.88
591.20	42773.29
591.35	42518.17
591.51	43030.75
591.67	42813.08
591.83	42960.53
591.99	42265.39
592.15	42424.55
592.31	42501.79
592.46	42546.26
592.62	42433.91
592.78	42438.59
592.94	42450.30
593.10	42967.55
593.26	42761.59
593.41	43047.13
593.57	42995.64
593.73	42447.96
593.89	42955.85
594.05	42457.32
594.20	42543.92
594.36	42738.18
594.52	42436.25
594.68	42333.27
594.84	42241.99
594.99	42656.26
595.15	42197.52
595.31	43152.46
595.47	42880.95
595.62	42300.50
595.78	42660.94
595.94	42340.29
596.10	42611.79
596.25	42354.33
596.41	42499.45
596.57	42052.41
596.73	42480.72
596.88	42485.40
597.04	42646.90
597.20	42876.27
597.36	42689.03
597.51	42822.44
597.67	42377.74
597.83	42281.78
597.99	42405.83
598.14	42600.09
598.30	42375.40
598.46	42256.03
598.61	42703.07
598.77	42029.00
598.93	42672.65
599.09	42857.55
599.24	42932.45
599.40	42920.74
599.56	42693.71
599.71	42721.80
599.87	42686.69
600.03	42534.56
600.18	42827.12
600.34	42485.40
600.50	42906.70
600.65	42780.31
600.81	42354.33
600.97	42927.77
601.12	42869.25
601.28	42775.63
601.44	42422.21
601.59	42410.51
601.75	42206.88
601.91	42349.65
602.06	42600.09
602.22	42471.36
602.37	41808.99
602.53	42630.52
602.69	43058.84
602.84	42415.19
603.00	42625.84
603.16	42347.31
603.31	42396.46
603.47	42590.73
603.62	42630.52
603.78	42405.83
603.94	41916.65
604.09	42344.97
604.25	42330.93
604.40	42206.88
604.56	42036.02
604.71	42323.91
604.87	42281.78
605.03	42447.96
605.18	42143.69
605.34	42398.80
605.49	41907.29
605.65	42066.45
605.80	41801.97
605.96	41902.61
606.12	41778.56
606.27	42260.71
606.43	42307.52
606.58	42445.62
606.74	42148.37
606.89	42497.11
607.05	42218.58
607.20	41923.68
607.36	41982.19
607.51	42178.79
607.67	41769.20
607.82	41792.61
607.98	42120.28
608.13	41816.01
608.29	42115.60
608.44	41965.81
608.60	42410.51
608.75	42419.87
608.91	42241.99
609.06	41928.36
609.22	41684.94
609.37	41806.65
609.53	41717.71
609.68	42237.31
609.84	42120.28
609.99	42181.13
610.15	41628.77
610.30	42153.05
610.46	42143.69
610.61	42824.78
610.76	42293.48
610.92	42813.08
611.07	42752.23
611.23	42969.90
611.38	43152.46
611.54	42391.78
611.69	42267.73
611.84	41865.16
612.00	41792.61
612.15	41773.88
612.31	42085.17
612.46	41762.18
612.62	42141.35
612.77	41928.36
612.92	42136.66
613.08	41593.66
613.23	41717.71
613.39	41322.16
613.54	40966.40
613.69	41621.75
613.85	41464.93
614.00	41762.18
614.15	41413.44
614.31	41816.01
614.46	41879.21
614.62	41663.88
614.77	41457.91
614.92	41357.27
615.08	41270.67
615.23	41439.18
615.38	41200.45
615.54	41088.10
615.69	41193.43
615.84	41088.10
616.00	41315.14
616.15	41179.39
616.30	41532.81
616.46	41230.88
616.61	41170.02
616.76	41230.88
616.92	40645.74
617.07	41069.38
617.22	40746.39
617.37	40790.86
617.53	40781.49
617.68	40435.10
617.83	40514.67
617.99	40741.71
618.14	40325.09
618.29	41226.20
618.45	40821.28
618.60	40994.48
618.75	40608.29
618.90	40781.49
619.06	40402.33
619.21	40334.45
619.36	40694.89
619.51	40154.23
619.67	39962.31
619.82	40179.98
619.97	40332.11
620.12	40720.64
620.28	40399.99
620.43	40818.94
620.58	40318.07
620.73	40683.19
620.89	40631.70
621.04	40500.63
621.19	40168.27
621.34	40261.90
621.49	40219.77
621.65	39941.24
621.80	40388.28
621.95	39934.22
622.10	40053.59
622.25	40388.28
622.41	39613.57
622.56	40383.60
622.71	40297.00
622.86	40102.74
623.01	40023.16
623.16	39861.66
623.32	39959.97
623.47	40144.87
623.62	39880.39
623.77	39608.89
623.92	39859.32
624.07	39969.33
624.23	40289.98
624.38	40041.88
624.53	39922.52
624.68	39974.01
624.83	39555.05
624.98	40105.08
625.13	39910.82
625.29	39744.64
625.44	39906.13
625.59	39379.51
625.74	39161.84
625.89	39388.88
626.04	39412.28
626.19	39241.42
626.34	39295.25
626.49	39131.42
626.65	39229.72
626.80	39697.83
626.95	39548.03
627.10	39241.42
627.25	39288.23
627.40	39297.59
627.55	39072.90
627.70	38969.92
627.85	39002.69
628.00	38675.01
628.15	39042.48
628.30	38667.99
628.45	38768.63
628.60	38443.30
628.76	39538.67
628.91	39470.79
629.06	39407.60
629.21	39115.03
629.36	38602.46
629.51	38850.55
629.66	38824.81
629.81	38490.11
629.96	38328.61
630.11	38815.44
630.26	38462.02
630.41	38813.10
630.56	38813.10
630.71	38862.26
630.86	38810.76
631.01	38291.16
631.16	39147.80
631.31	38803.74
631.46	38419.89
631.61	38721.82
631.76	38345.00
631.91	38265.42
632.06	38464.36
632.21	38223.29
632.36	38059.45
632.51	38082.86
632.66	38930.13
632.81	37757.52
632.96	38672.67
633.10	38391.81
633.25	38141.37
633.40	38284.14
633.55	38412.87
633.70	38188.18
633.85	37832.42
634.00	37771.57
634.15	37956.47
634.30	37956.47
634.45	38218.61
634.60	38082.86
634.75	37523.47
634.90	38412.87
635.05	38375.42
635.19	37799.65
635.34	38319.25
635.49	38082.86
635.64	37762.20
635.79	37635.81
635.94	37453.25
636.09	37904.98
636.24	37198.13
636.39	37560.92
636.53	37343.25
636.68	37460.27
636.83	37649.86
636.98	37696.67
637.13	37785.61
637.28	37490.70
637.43	37471.98
637.57	37621.77
637.72	37439.21
637.87	37570.28
638.02	37177.07
638.17	37502.40
638.32	37364.31
638.46	37457.93
638.61	37368.99
638.76	37516.45
638.91	37158.34
639.06	37453.25
639.20	37481.34
639.35	37322.18
639.50	37390.06
639.65	37383.04
639.80	37560.92
639.94	37574.96
640.09	37408.78
640.24	36793.22
640.39	36870.46
640.54	37067.06
640.68	36912.59
640.83	37027.28
640.98	37099.83
641.13	36622.36
641.27	37214.52
641.42	36818.97
641.57	37156.00
641.72	36952.38
641.86	37448.57
642.01	36636.41
642.16	36580.23
642.31	36566.19
642.45	37141.96
642.60	36095.74
642.75	36603.64
642.90	36423.42
643.04	36512.36
643.19	36484.27
643.34	36659.81
643.48	36357.88
643.63	36582.57
643.78	36556.83
643.93	36683.22
644.07	36535.76
644.22	36830.67
644.37	36357.88
644.51	36414.05
644.66	36825.99
644.81	36870.46
644.95	36292.35
645.10	36252.56
645.25	36018.50
645.39	36304.05
645.54	36287.67
645.69	36100.42
645.83	36158.94
645.98	36772.16
646.13	36093.40
646.27	36374.27
646.42	36116.81
646.57	36140.21
646.71	36055.95
646.86	35974.03
647.00	35896.80
647.15	36240.86
647.30	35662.74
647.44	35847.64
647.59	35913.18
647.74	35835.94
647.88	35538.69
648.03	36533.42
648.17	36079.36
648.32	35988.08
648.47	35915.52
648.61	35655.72
648.76	36114.47
648.90	35868.71
649.05	35934.24
649.20	35566.78
649.34	36093.40
649.49	35618.27
649.63	35419.33
649.78	35796.15
649.92	35545.72
650.07	35737.64
650.21	35716.58
650.36	35662.74
650.51	35641.68
650.65	35873.39
650.80	36098.08
650.94	35363.15
651.09	35646.36
651.23	35416.99
651.38	35311.66
651.52	35454.44
651.67	35276.55
651.81	35225.06
651.96	35510.61
652.10	35262.51
652.25	35086.97
652.39	35117.40
652.54	35440.39
652.68	35409.96
652.83	35384.22
652.97	35889.77
653.12	35416.99
653.26	35402.94
653.41	35211.02
653.55	35447.41
653.70	35023.78
653.84	35140.80
653.99	34836.53
654.13	35028.46
654.27	35171.23
654.42	34951.22
654.56	34726.53
654.71	35271.87
654.85	35161.87
655.00	35021.44
655.14	34611.84
655.29	35012.07
655.43	35157.19
655.57	34218.63
655.72	34684.40
655.86	34478.43
656.01	34398.85
656.15	34211.61
656.30	34525.24
656.44	34574.39
656.58	34728.87
656.73	34707.80
656.87	34562.69
657.01	34469.07
657.16	34387.15
657.30	34555.67
657.45	34686.74
657.59	34653.97
657.73	34242.04
657.88	34471.41
658.02	34274.80
658.16	34235.02
658.31	33738.82
658.45	34026.71
658.60	33897.98
658.74	33961.17
658.88	34019.69
659.03	33832.44
659.17	33853.51
659.31	34181.18
659.46	34190.55
659.60	34052.45
659.74	34216.29
659.89	34246.72
660.03	33649.88
660.17	34003.30
660.32	33750.52
660.46	33795.00
660.60	33464.98
660.74	33600.73
660.89	33251.99
661.03	33656.90
661.17	33244.97
661.32	33212.20
661.46	33495.41
661.60	33235.61
661.74	33277.74
661.89	32929.00
662.03	33034.32
662.17	33212.20
662.31	33076.45
662.46	33481.36
662.60	33317.53
662.74	33041.34
662.88	32868.14
663.03	32964.10
663.17	32884.53
663.31	32538.13
663.45	32765.16
663.60	32996.87
663.74	33036.66
663.88	33006.23
664.02	32662.18
664.17	32603.66
664.31	32669.20
664.45	32631.75
664.59	32627.07
664.73	32315.78
664.88	32327.48
665.02	32149.60
665.16	32114.49
665.30	32388.33
665.44	32112.15
665.59	32273.65
665.73	31922.57
665.87	32044.27
666.01	31793.84
666.15	32112.15
666.29	31938.95
666.44	32472.59
666.58	31889.80
666.72	32032.57
666.86	31997.46
667.00	31997.46
667.14	31852.35
667.28	31789.16
667.43	31578.51
667.57	31372.54
667.71	31435.74
667.85	31562.12
667.99	31295.30
668.13	30881.03
668.27	31051.89
668.41	31449.78
668.56	31068.27
668.70	31255.51
668.84	31686.17
668.98	31218.07
669.12	31185.30
669.26	31138.49
669.40	31037.84
669.54	30726.55
669.68	30834.22
669.82	30815.49
669.96	30560.37
670.10	30700.81
670.25	30609.53
670.39	30515.90
670.53	29811.40
670.67	30089.93
670.81	30693.79
670.95	30253.76
671.09	30436.33
671.23	30230.36
671.37	30551.01
671.51	30464.41
671.65	30628.25
671.79	30225.68
671.93	30181.21
672.07	29907.37
672.21	29523.52
672.35	29666.29
672.49	29893.32
672.63	29706.08
672.77	29806.72
672.91	29472.03
673.05	29378.40
673.19	29769.27
673.33	29507.13
673.47	29303.51
673.61	29673.31
673.75	29408.83
673.89	29488.41
674.03	29324.57
674.17	29057.75
674.31	29582.03
674.45	28648.16
674.59	28826.04
674.73	28905.62
674.87	28437.51
675.01	28659.86
675.15	28870.51
675.29	28414.10
675.43	28599.01
675.56	28535.81
675.70	28615.39
675.84	28732.42
675.98	28088.77
676.12	28332.18
676.26	28395.38
676.40	28243.24
676.54	28233.88
676.68	27924.93
676.82	27206.39
676.96	27843.01
677.10	27749.39
677.23	27253.20
677.37	27180.64
677.51	27136.17
677.65	27005.10
677.79	27190.00
677.93	27323.41
678.07	27594.92
678.21	27058.93
678.34	27101.06
678.48	27019.14
678.62	26766.37
678.76	26752.32
678.90	26637.64
679.04	26628.27
679.18	26717.22
679.31	26410.60
679.45	26359.11
679.59	26045.48
679.73	26132.08
679.87	26118.04
680.00	26092.29
680.14	26054.84
680.28	25839.51
680.42	25858.24
680.56	25504.82
680.70	25682.70
680.83	25696.74
680.97	25694.40
681.11	25539.93
681.25	25448.64
681.39	25495.46
681.52	25467.37
681.66	24999.26
681.80	25207.57
681.94	24975.86
682.07	25303.53
682.21	24861.17
682.35	24332.21
682.49	24334.55
682.62	24615.41
682.76	24566.26
682.90	24608.39
683.04	24636.48
683.17	24205.82
683.31	24400.08
683.45	24311.14
683.59	24250.29
683.72	24074.75
683.86	24025.60
684.00	24025.60
684.13	24072.41
684.27	23826.65
684.41	23740.05
684.55	23566.85
684.68	23381.95
684.82	23239.18
684.96	23171.30
685.09	23173.64
685.23	23211.09
685.37	23019.17
685.50	23049.60
685.64	23211.09
685.78	23124.49
685.91	23260.24
686.05	22789.80
686.19	22719.58
686.32	22649.36
686.46	22572.13
686.60	22174.24
686.73	22391.91
686.87	22080.61
687.01	22169.55
687.14	22312.33
687.28	21884.01
687.42	21956.57
687.55	21965.93
687.69	22197.64
687.82	21628.89
687.96	21867.63
688.10	21539.95
688.23	21656.98
688.37	21673.36
688.50	21549.31
688.64	21268.45
688.78	21256.75
688.91	21277.81
689.05	21291.85
689.18	21223.98
689.32	20538.20
689.46	20823.75
689.59	20741.83
689.73	20795.66
689.86	20727.78
690.00	20669.27
690.13	20805.02
690.27	20601.40
690.41	20940.77
690.54	20205.84
690.68	20250.32
690.81	20507.77
690.95	20346.28
691.08	20292.44
691.22	20095.84
691.35	19990.52
691.49	19974.13
691.62	19730.72
691.76	19740.08
691.89	19632.41
692.03	19477.94
692.16	19220.48
692.30	19206.44
692.43	19222.82
692.57	19562.20
692.70	19145.58
692.84	18951.32
692.97	19199.41
693.11	19070.68
693.24	18860.04
693.38	18876.42
693.51	19016.85
693.65	18670.45
693.78	18808.54
693.92	18508.96
694.05	18548.75
694.19	18377.89
694.32	18293.63
694.45	18143.83
694.59	18349.80
694.72	17987.02
694.86	17799.77
694.99	17734.24
695.13	17820.84
695.26	17804.46
695.39	17884.03
695.53	17411.25
695.66	17879.35
695.80	17659.34
695.93	17554.02
696.07	17408.90
696.20	17434.65
696.33	17530.61
696.47	17226.34
696.60	17252.09
696.73	16891.65
696.87	17137.40
697.00	17001.65
697.14	16547.59
697.27	16690.36
697.40	16779.30
697.54	16475.03
697.67	16425.88
697.80	16526.52
697.94	16255.02
698.07	16269.06
698.21	16145.02
698.34	16320.56
698.47	16184.80
698.61	16126.29
698.74	16100.55
698.87	16032.67
699.01	15829.04
699.14	15683.93
699.27	15873.51
699.40	15803.30
699.54	15398.38
699.67	15693.29
699.80	15297.74
699.94	15012.20
700.07	15307.10
700.20	14956.02
700.34	15370.30
700.47	15108.16
700.60	15131.56
700.73	15089.43
700.87	15007.52
701.00	14836.66
701.13	15021.56
701.26	14782.82
701.40	14902.19
701.53	14953.68
701.66	14551.11
701.79	14661.12
701.93	14611.96
702.06	14408.34
702.19	14504.30
702.32	14239.82
702.46	14078.32
702.59	13989.38
702.72	14104.07
702.85	13951.93
702.99	13886.40
703.12	13846.61
703.25	13724.90
703.38	13582.13
703.51	13928.53
703.65	13720.22
703.78	13605.53
703.91	13483.83
704.04	13500.21
704.17	13200.62
704.31	13233.39
704.44	13362.12
704.57	13324.67
704.70	13074.23
704.83	13132.75
704.96	12978.27
705.10	12929.12
705.23	12723.15
>>>>>End Processed Spectral Data<<<<<
