SpectraSuite Data File
++++++++++++++++++++++++++++++++++++
Date: Fri Oct 04 11:39:59 GMT-05:00 2013
User: price-jones
Dark Spectrum Present: No
Reference Spectrum Present: No
Number of Sampled Component Spectra: 1
Spectrometers: USB2+H05261
Integration Time (usec): 100000 (USB2+H05261)
Spectra Averaged: 1 (USB2+H05261)
Boxcar Smoothing: 0 (USB2+H05261)
Correct for Electrical Dark: No (USB2+H05261)
Strobe/Lamp Enabled: No (USB2+H05261)
Correct for Detector Non-linearity: No (USB2+H05261)
Correct for Stray Light: No (USB2+H05261)
Number of Pixels in Processed Spectrum: 2048
>>>>>Begin Processed Spectral Data<<<<<
365.73	105.32
365.92	105.32
366.12	105.32
366.32	0.00
366.52	0.00
366.72	0.00
366.91	0.00
367.11	4.68
367.31	0.00
367.51	0.00
367.70	2.34
367.90	0.00
368.10	0.00
368.30	4.68
368.49	0.00
368.69	9.36
368.89	18.72
369.09	0.00
369.28	0.00
369.48	0.00
369.68	21.06
369.87	0.00
370.07	0.00
370.27	14.04
370.47	21.06
370.66	2.34
370.86	42.13
371.06	126.39
371.25	147.45
371.45	35.11
371.65	166.18
371.84	65.54
372.04	67.88
372.24	107.66
372.44	46.81
372.63	145.11
372.83	168.52
373.03	93.62
373.22	112.35
373.42	93.62
373.62	95.96
373.81	194.26
374.01	191.92
374.21	128.73
374.40	161.50
374.60	128.73
374.79	156.82
374.99	124.05
375.19	196.60
375.38	170.86
375.58	133.41
375.78	173.20
375.97	152.13
376.17	131.07
376.37	119.37
376.56	152.13
376.76	77.24
376.95	152.13
377.15	91.28
377.35	196.60
377.54	93.62
377.74	124.05
377.93	117.03
378.13	126.39
378.33	149.79
378.52	63.19
378.72	112.35
378.91	131.07
379.11	133.41
379.31	131.07
379.50	58.51
379.70	161.50
379.89	159.16
380.09	124.05
380.28	119.37
380.48	170.86
380.68	117.03
380.87	138.09
381.07	135.75
381.26	117.03
381.46	224.69
381.65	86.60
381.85	79.58
382.04	117.03
382.24	138.09
382.43	100.64
382.63	119.37
382.83	100.64
383.02	117.03
383.22	156.82
383.41	147.45
383.61	184.90
383.80	60.85
384.00	133.41
384.19	166.18
384.39	121.71
384.58	58.51
384.78	126.39
384.97	117.03
385.17	128.73
385.36	88.94
385.56	154.48
385.75	117.03
385.95	112.35
386.14	128.73
386.34	156.82
386.53	119.37
386.72	149.79
386.92	124.05
387.11	60.85
387.31	212.99
387.50	81.92
387.70	152.13
387.89	63.19
388.09	131.07
388.28	128.73
388.48	98.30
388.67	128.73
388.86	112.35
389.06	39.79
389.25	163.84
389.45	191.92
389.64	124.05
389.84	135.75
390.03	88.94
390.22	117.03
390.42	107.66
390.61	142.77
390.81	173.20
391.00	156.82
391.19	180.22
391.39	121.71
391.58	100.64
391.78	147.45
391.97	74.90
392.16	154.48
392.36	187.24
392.55	154.48
392.75	149.79
392.94	79.58
393.13	191.92
393.33	88.94
393.52	79.58
393.71	131.07
393.91	110.01
394.10	119.37
394.29	100.64
394.49	30.43
394.68	145.11
394.88	93.62
395.07	140.43
395.26	145.11
395.46	133.41
395.65	154.48
395.84	152.13
396.04	250.44
396.23	166.18
396.42	77.24
396.62	114.69
396.81	117.03
397.00	124.05
397.19	147.45
397.39	126.39
397.58	114.69
397.77	227.03
397.97	163.84
398.16	140.43
398.35	142.77
398.55	119.37
398.74	46.81
398.93	149.79
399.12	138.09
399.32	128.73
399.51	166.18
399.70	189.58
399.90	126.39
400.09	173.20
400.28	191.92
400.47	177.88
400.67	124.05
400.86	138.09
401.05	168.52
401.24	159.16
401.44	154.48
401.63	140.43
401.82	229.37
402.01	154.48
402.21	147.45
402.40	131.07
402.59	182.56
402.78	252.78
402.97	163.84
403.17	154.48
403.36	140.43
403.55	121.71
403.74	159.16
403.93	252.78
404.13	259.80
404.32	280.86
404.51	220.01
404.70	212.99
404.89	250.44
405.09	189.58
405.28	168.52
405.47	170.86
405.66	250.44
405.85	184.90
406.05	220.01
406.24	154.48
406.43	152.13
406.62	283.20
406.81	212.99
407.00	126.39
407.20	194.26
407.39	215.33
407.58	198.95
407.77	264.48
407.96	220.01
408.15	191.92
408.34	166.18
408.54	175.54
408.73	229.37
408.92	215.33
409.11	196.60
409.30	243.42
409.49	229.37
409.68	159.16
409.87	271.50
410.07	229.37
410.26	262.14
410.45	205.97
410.64	184.90
410.83	189.58
411.02	259.80
411.21	227.03
411.40	208.31
411.59	156.82
411.78	149.79
411.98	205.97
412.17	198.95
412.36	215.33
412.55	255.12
412.74	220.01
412.93	252.78
413.12	210.65
413.31	238.73
413.50	285.55
413.69	234.05
413.88	299.59
414.07	257.46
414.26	229.37
414.45	222.35
414.64	210.65
414.83	264.48
415.02	276.18
415.22	266.82
415.41	259.80
415.60	177.88
415.79	245.76
415.98	285.55
416.17	201.29
416.36	264.48
416.55	252.78
416.74	290.23
416.93	266.82
417.12	248.10
417.31	259.80
417.50	248.10
417.69	308.95
417.88	285.55
418.07	227.03
418.26	308.95
418.45	304.27
418.64	259.80
418.83	236.39
419.02	308.95
419.21	273.84
419.39	313.63
419.58	301.93
419.77	184.90
419.96	227.03
420.15	315.97
420.34	332.36
420.53	269.16
420.72	203.63
420.91	353.42
421.10	266.82
421.29	395.55
421.48	304.27
421.67	395.55
421.86	234.05
422.05	360.44
422.24	344.06
422.43	287.89
422.61	292.57
422.80	184.90
422.99	325.33
423.18	257.46
423.37	301.93
423.56	334.70
423.75	374.49
423.94	269.16
424.13	344.06
424.32	278.52
424.50	273.84
424.69	292.57
424.88	374.49
425.07	334.70
425.26	287.89
425.45	273.84
425.64	301.93
425.83	315.97
426.01	383.85
426.20	255.12
426.39	374.49
426.58	358.10
426.77	362.78
426.96	259.80
427.15	297.25
427.33	301.93
427.52	308.95
427.71	306.61
427.90	306.61
428.09	381.51
428.28	238.73
428.46	299.59
428.65	351.08
428.84	294.91
429.03	400.23
429.22	322.99
429.40	327.68
429.59	318.31
429.78	346.40
429.97	330.02
430.16	315.97
430.34	322.99
430.53	280.86
430.72	325.33
430.91	348.74
431.10	322.99
431.28	304.27
431.47	409.59
431.66	447.04
431.85	360.44
432.03	374.49
432.22	437.68
432.41	351.08
432.60	376.83
432.79	278.52
432.97	337.04
433.16	362.78
433.35	362.78
433.54	369.80
433.72	414.27
433.91	393.21
434.10	337.04
434.28	346.40
434.47	367.46
434.66	418.96
434.85	374.49
435.03	470.45
435.22	819.19
435.41	1118.78
435.59	1123.46
435.78	809.83
435.97	573.43
436.16	337.04
436.34	369.80
436.53	411.93
436.72	421.30
436.90	341.72
437.09	386.19
437.28	416.62
437.46	292.57
437.65	381.51
437.84	397.89
438.02	386.19
438.21	409.59
438.40	365.12
438.58	425.98
438.77	437.68
438.96	454.06
439.14	362.78
439.33	454.06
439.52	451.72
439.70	465.77
439.89	404.91
440.08	367.46
440.26	402.57
440.45	381.51
440.63	362.78
440.82	393.21
441.01	496.19
441.19	411.93
441.38	348.74
441.57	411.93
441.75	538.32
441.94	451.72
442.12	390.87
442.31	409.59
442.50	400.23
442.68	430.66
442.87	351.08
443.05	461.09
443.24	468.11
443.43	383.85
443.61	428.32
443.80	496.19
443.98	472.79
444.17	381.51
444.35	367.46
444.54	447.04
444.73	477.47
444.91	486.83
445.10	404.91
445.28	442.36
445.47	512.58
445.65	456.40
445.84	428.32
446.02	449.38
446.21	407.25
446.39	421.30
446.58	421.30
446.77	477.47
446.95	484.49
447.14	507.90
447.32	528.96
447.51	369.80
447.69	510.24
447.88	421.30
448.06	510.24
448.25	505.56
448.43	463.43
448.62	440.02
448.80	404.91
448.99	540.66
449.17	557.05
449.36	475.13
449.54	484.49
449.73	421.30
449.91	524.28
450.10	531.30
450.28	559.39
450.46	486.83
450.65	526.62
450.83	454.06
451.02	475.13
451.20	540.66
451.39	461.09
451.57	517.26
451.76	531.30
451.94	461.09
452.13	458.74
452.31	517.26
452.49	540.66
452.68	519.60
452.86	486.83
453.05	564.07
453.23	447.04
453.42	440.02
453.60	449.38
453.78	543.00
453.97	421.30
454.15	456.40
454.34	402.57
454.52	491.51
454.70	521.94
454.89	512.58
455.07	491.51
455.26	482.15
455.44	540.66
455.62	470.45
455.81	512.58
455.99	571.09
456.17	449.38
456.36	461.09
456.54	374.49
456.73	510.24
456.91	470.45
457.09	507.90
457.28	510.24
457.46	519.60
457.64	582.79
457.83	631.94
458.01	599.18
458.19	589.82
458.38	526.62
458.56	489.17
458.74	479.81
458.93	575.77
459.11	543.00
459.29	592.16
459.48	561.73
459.66	528.96
459.84	547.69
460.03	617.90
460.21	554.71
460.39	568.75
460.57	552.37
460.76	564.07
460.94	547.69
461.12	566.41
461.31	678.76
461.49	554.71
461.67	554.71
461.85	519.60
462.04	631.94
462.22	952.60
462.40	585.13
462.59	578.11
462.77	564.07
462.95	617.90
463.13	538.32
463.32	610.88
463.50	538.32
463.68	517.26
463.86	599.18
464.05	615.56
464.23	557.05
464.41	596.84
464.59	601.52
464.78	547.69
464.96	550.03
465.14	554.71
465.32	545.34
465.50	540.66
465.69	678.76
465.87	594.50
466.05	552.37
466.23	496.19
466.41	585.13
466.60	643.65
466.78	526.62
466.96	645.99
467.14	582.79
467.32	667.05
467.51	589.82
467.69	575.77
467.87	631.94
468.05	535.98
468.23	540.66
468.41	674.07
468.60	636.63
468.78	613.22
468.96	711.52
469.14	613.22
469.32	538.32
469.50	631.94
469.69	641.31
469.87	592.16
470.05	568.75
470.23	650.67
470.41	561.73
470.59	587.47
470.77	631.94
470.95	645.99
471.14	622.58
471.32	599.18
471.50	585.13
471.68	681.10
471.86	629.60
472.04	688.12
472.22	634.29
472.40	629.60
472.58	641.31
472.77	643.65
472.95	655.35
473.13	697.48
473.31	699.82
473.49	674.07
473.67	592.16
473.85	683.44
474.03	713.86
474.21	685.78
474.39	713.86
474.57	751.31
474.75	727.91
474.93	664.71
475.12	695.14
475.30	643.65
475.48	678.76
475.66	678.76
475.84	723.23
476.02	692.80
476.20	685.78
476.38	723.23
476.56	791.10
476.74	657.69
476.92	695.14
477.10	734.93
477.28	798.12
477.46	734.93
477.64	655.35
477.82	751.31
478.00	821.53
478.18	788.76
478.36	608.54
478.54	770.04
478.72	779.40
478.90	833.23
479.08	718.54
479.26	788.76
479.44	786.42
479.62	737.27
479.80	751.31
479.98	786.42
480.16	826.21
480.34	781.74
480.52	737.27
480.70	800.46
480.88	760.67
481.06	800.46
481.24	779.40
481.41	833.23
481.59	833.23
481.77	802.80
481.95	833.23
482.13	828.55
482.31	875.36
482.49	847.27
482.67	833.23
482.85	908.13
483.03	983.02
483.21	842.59
483.39	873.02
483.57	875.36
483.74	971.32
483.92	929.19
484.10	889.40
484.28	985.37
484.46	997.07
484.64	971.32
484.82	1039.20
485.00	1022.81
485.18	1025.15
485.35	959.62
485.53	922.17
485.71	994.73
485.89	1048.56
486.07	992.39
486.25	1144.52
486.43	1109.41
486.61	1067.28
486.78	1135.16
486.96	1109.41
487.14	1165.59
487.32	1139.84
487.50	1144.52
487.68	1179.63
487.85	1137.50
488.03	1135.16
488.21	1116.44
488.39	1151.54
488.57	1142.18
488.75	1125.80
488.92	1359.85
489.10	1167.93
489.28	1151.54
489.46	1160.91
489.64	1123.46
489.81	1170.27
489.99	1242.82
490.17	1188.99
490.35	1242.82
490.53	1256.87
490.70	1188.99
490.88	1252.19
491.06	1284.95
491.24	1191.33
491.41	1308.36
491.59	1282.61
491.77	1256.87
491.95	1224.10
492.13	1252.19
492.30	1287.29
492.48	1320.06
492.66	1242.82
492.84	1301.34
493.01	1263.89
493.19	1273.25
493.37	1334.11
493.54	1320.06
493.72	1299.00
493.90	1289.64
494.08	1345.81
494.25	1287.29
494.43	1341.13
494.61	1334.11
494.79	1371.55
494.96	1343.47
495.14	1291.98
495.32	1362.19
495.49	1331.76
495.67	1373.89
495.85	1385.60
496.02	1373.89
496.20	1376.24
496.38	1310.70
496.55	1430.07
496.73	1397.30
496.91	1366.87
497.09	1441.77
497.26	1458.15
497.44	1453.47
497.62	1404.32
497.79	1322.40
497.97	1420.71
498.14	1526.03
498.32	1502.62
498.50	1416.02
498.67	1364.53
498.85	1439.43
499.03	1364.53
499.20	1481.56
499.38	1394.96
499.56	1481.56
499.73	1507.30
499.91	1495.60
500.08	1460.49
500.26	1495.60
500.44	1469.86
500.61	1390.28
500.79	1455.81
500.97	1383.26
501.14	1448.79
501.32	1582.20
501.49	1511.99
501.67	1504.96
501.84	1631.35
502.02	1504.96
502.20	1521.35
502.37	1528.37
502.55	1460.49
502.72	1446.45
502.90	1551.78
503.07	1448.79
503.25	1528.37
503.43	1432.41
503.60	1638.38
503.78	1544.75
503.95	1460.49
504.13	1460.49
504.30	1614.97
504.48	1544.75
504.65	1519.01
504.83	1521.35
505.01	1619.65
505.18	1500.28
505.36	1603.27
505.53	1675.82
505.71	1547.09
505.88	1629.01
506.06	1558.80
506.23	1593.90
506.41	1633.69
506.58	1614.97
506.76	1544.75
506.93	1671.14
507.11	1668.80
507.28	1607.95
507.46	1607.95
507.63	1582.20
507.81	1654.76
507.98	1671.14
508.16	1598.59
508.33	1734.34
508.50	1657.10
508.68	1696.89
508.85	1715.61
509.03	1699.23
509.20	1643.06
509.38	1673.48
509.55	1760.08
509.73	1727.32
509.90	1762.42
510.08	1734.34
510.25	1720.29
510.42	1621.99
510.60	1715.61
510.77	1724.97
510.95	1713.27
511.12	1762.42
511.30	1687.53
511.47	1750.72
511.64	1657.10
511.82	1724.97
511.99	1699.23
512.17	1830.30
512.34	1722.63
512.51	1783.49
512.69	1682.85
512.86	1818.60
513.04	1746.04
513.21	1842.00
513.38	1811.57
513.56	1846.68
513.73	1809.23
513.90	1675.82
514.08	1870.09
514.25	1762.42
514.43	1748.38
514.60	1844.34
514.77	1699.23
514.95	1816.26
515.12	1816.26
515.29	1762.42
515.47	1743.70
515.64	1785.83
515.81	1865.41
515.99	1732.00
516.16	1914.56
516.33	1788.17
516.51	1820.94
516.68	1804.55
516.85	1820.94
517.03	1827.96
517.20	1856.04
517.37	1966.05
517.54	1907.54
517.72	1865.41
517.89	1809.23
518.06	1813.92
518.24	1966.05
518.41	1870.09
518.58	1895.83
518.75	1844.34
518.93	1799.87
519.10	1900.52
519.27	2010.52
519.45	1914.56
519.62	1956.69
519.79	1921.58
519.96	1844.34
520.14	1998.82
520.31	1884.13
520.48	1872.43
520.65	1930.94
520.83	1963.71
521.00	1935.62
521.17	1902.86
521.34	1921.58
521.52	1942.64
521.69	2001.16
521.86	1970.73
522.03	1968.39
522.20	1987.11
522.38	1844.34
522.55	1881.79
522.72	1987.11
522.89	2047.97
523.07	2099.46
523.24	1921.58
523.41	1909.88
523.58	1959.03
523.75	1991.80
523.92	1968.39
524.10	1996.48
524.27	2038.61
524.44	1991.80
524.61	2073.71
524.78	2010.52
524.96	2092.44
525.13	2003.50
525.30	2010.52
525.47	2087.76
525.64	1966.05
525.81	1952.01
525.98	2017.54
526.16	2062.01
526.33	2031.58
526.50	1944.99
526.67	2059.67
526.84	1952.01
527.01	1919.24
527.18	1994.14
527.36	2059.67
527.53	2076.06
527.70	2076.06
527.87	2080.74
528.04	2115.84
528.21	2092.44
528.38	2064.35
528.55	2087.76
528.72	2134.57
528.89	2162.66
529.07	2012.86
529.24	2120.53
529.41	2050.31
529.58	2022.22
529.75	2024.56
529.92	1966.05
530.09	2073.71
530.26	2132.23
530.43	2176.70
530.60	1947.33
530.77	2062.01
530.94	2038.61
531.11	2099.46
531.28	2127.55
531.46	2172.02
531.63	2122.87
531.80	2143.93
531.97	2097.12
532.14	2120.53
532.31	2031.58
532.48	2071.37
532.65	2069.03
532.82	2101.80
532.99	2200.10
533.16	2216.49
533.33	2214.15
533.50	2218.83
533.67	2165.00
533.84	2169.68
534.01	2031.58
534.18	2211.81
534.35	2270.32
534.52	2165.00
534.69	2270.32
534.86	2237.55
535.03	2251.60
535.20	2115.84
535.37	2237.55
535.54	2237.55
535.71	2136.91
535.88	2190.74
536.05	2239.89
536.22	2223.51
536.38	2160.31
536.55	2186.06
536.72	2307.77
536.89	2230.53
537.06	2296.07
537.23	2286.70
537.40	2225.85
537.57	2289.04
537.74	2256.28
537.91	2242.23
538.08	2347.56
538.25	2396.71
538.42	2237.55
538.59	2270.32
538.75	2279.68
538.92	2356.92
539.09	2363.94
539.26	2431.82
539.43	2385.01
539.60	2478.63
539.77	2408.41
539.94	2495.01
540.11	2586.29
540.28	2635.44
540.44	2553.52
540.61	2665.87
540.78	2656.51
540.95	2862.48
541.12	2874.18
541.29	3005.25
541.46	3023.97
541.62	3042.70
541.79	3227.60
541.96	2986.52
542.13	3012.27
542.30	2998.23
542.47	3012.27
542.63	2949.08
542.80	2988.86
542.97	2965.46
543.14	3023.97
543.31	2939.71
543.48	3056.74
543.64	3002.91
543.81	2974.82
543.98	2932.69
544.15	2895.24
544.32	2939.71
544.48	2899.92
544.65	2848.43
544.82	2855.45
544.99	2899.92
545.16	2932.69
545.32	2820.35
545.49	3428.88
545.66	4060.83
545.83	4519.57
546.00	4229.35
546.16	3569.32
546.33	3150.36
546.50	2958.44
546.67	2928.01
546.83	2850.77
547.00	2712.68
547.17	2801.62
547.34	2747.79
547.50	2747.79
547.67	2663.53
547.84	2558.21
548.00	2722.04
548.17	2499.69
548.34	2663.53
548.51	2651.83
548.67	2590.97
548.84	2546.50
549.01	2518.42
549.18	2574.59
549.34	2661.19
549.51	2670.55
549.68	2572.25
549.84	2649.49
550.01	2523.10
550.18	2670.55
550.34	2677.57
550.51	2614.38
550.68	2541.82
550.84	2548.84
551.01	2544.16
551.18	2487.99
551.34	2546.50
551.51	2537.14
551.68	2551.18
551.84	2534.80
552.01	2445.86
552.18	2443.52
552.34	2518.42
552.51	2495.01
552.68	2380.32
552.84	2375.64
553.01	2534.80
553.18	2579.27
553.34	2516.08
553.51	2422.45
553.67	2431.82
553.84	2548.84
554.01	2495.01
554.17	2473.95
554.34	2354.58
554.51	2614.38
554.67	2490.33
554.84	2457.56
555.00	2448.20
555.17	2382.67
555.33	2438.84
555.50	2455.22
555.67	2532.46
555.83	2403.73
556.00	2267.98
556.16	2525.44
556.33	2300.75
556.50	2394.37
556.66	2335.85
556.83	2396.71
556.99	2305.43
557.16	2403.73
557.32	2347.56
557.49	2399.05
557.65	2361.60
557.82	2427.14
557.98	2434.16
558.15	2298.41
558.32	2478.63
558.48	2415.43
558.65	2485.65
558.81	2352.24
558.98	2368.62
559.14	2349.90
559.31	2523.10
559.47	2370.96
559.64	2319.47
559.80	2387.35
559.97	2335.85
560.13	2356.92
560.30	2492.67
560.46	2476.29
560.63	2347.56
560.79	2441.18
560.96	2434.16
561.12	2373.30
561.29	2366.28
561.45	2424.80
561.61	2342.88
561.78	2455.22
561.94	2427.14
562.11	2328.83
562.27	2328.83
562.44	2279.68
562.60	2436.50
562.77	2443.52
562.93	2399.05
563.10	2499.69
563.26	2368.62
563.42	2319.47
563.59	2338.20
563.75	2431.82
563.92	2520.76
564.08	2420.11
564.24	2466.92
564.41	2417.77
564.57	2293.72
564.74	2403.73
564.90	2466.92
565.07	2345.22
565.23	2452.88
565.39	2345.22
565.56	2455.22
565.72	2314.79
565.88	2392.03
566.05	2438.84
566.21	2408.41
566.38	2438.84
566.54	2480.97
566.70	2310.11
566.87	2359.26
567.03	2382.67
567.19	2415.43
567.36	2317.13
567.52	2466.92
567.68	2424.80
567.85	2377.98
568.01	2443.52
568.17	2438.84
568.34	2352.24
568.50	2471.61
568.66	2253.94
568.83	2509.05
568.99	2361.60
569.15	2427.14
569.32	2448.20
569.48	2431.82
569.64	2424.80
569.81	2406.07
569.97	2410.75
570.13	2429.48
570.30	2492.67
570.46	2392.03
570.62	2373.30
570.78	2347.56
570.95	2455.22
571.11	2415.43
571.27	2438.84
571.43	2436.50
571.60	2394.37
571.76	2359.26
571.92	2356.92
572.09	2459.90
572.25	2375.64
572.41	2359.26
572.57	2385.01
572.74	2628.42
572.90	2382.67
573.06	2445.86
573.22	2476.29
573.38	2537.14
573.55	2509.05
573.71	2509.05
573.87	2473.95
574.03	2345.22
574.20	2368.62
574.36	2436.50
574.52	2347.56
574.68	2431.82
574.84	2413.09
575.01	2429.48
575.17	2471.61
575.33	2408.41
575.49	2415.43
575.65	2429.48
575.82	2452.88
575.98	2523.10
576.14	2368.62
576.30	2480.97
576.46	2581.61
576.62	2796.94
576.79	2803.96
576.95	2691.62
577.11	2635.44
577.27	2525.44
577.43	2462.24
577.59	2469.27
577.75	2530.12
577.92	2410.75
578.08	2427.14
578.24	2478.63
578.40	2499.69
578.56	2663.53
578.72	2747.79
578.88	2899.92
579.04	2794.60
579.21	2691.62
579.37	2579.27
579.53	2560.55
579.69	2619.06
579.85	2546.50
580.01	2516.08
580.17	2483.31
580.33	2574.59
580.49	2438.84
580.65	2614.38
580.82	2551.18
580.98	2581.61
581.14	2469.27
581.30	2502.03
581.46	2583.95
581.62	2509.05
581.78	2565.23
581.94	2600.34
582.10	2483.31
582.26	2558.21
582.42	2548.84
582.58	2532.46
582.74	2605.02
582.90	2476.29
583.06	2574.59
583.22	2600.34
583.38	2609.70
583.54	2630.76
583.70	2722.04
583.86	2605.02
584.02	2630.76
584.18	2752.47
584.34	2586.29
584.50	2586.29
584.66	2574.59
584.82	2551.18
584.98	2502.03
585.14	2555.86
585.30	2562.89
585.46	2511.39
585.62	2572.25
585.78	2513.74
585.94	2509.05
586.10	2731.41
586.26	2450.54
586.42	2576.93
586.58	2644.81
586.74	2553.52
586.90	2700.98
587.06	2780.56
587.22	2768.85
587.38	2644.81
587.54	2663.53
587.70	2747.79
587.86	2665.87
588.02	2530.12
588.18	2506.71
588.34	2483.31
588.49	2567.57
588.65	2431.82
588.81	2455.22
588.97	2420.11
589.13	2424.80
589.29	2532.46
589.45	2480.97
589.61	2520.76
589.77	2497.35
589.93	2392.03
590.08	2516.08
590.24	2677.57
590.40	2366.28
590.56	2530.12
590.72	2457.56
590.88	2471.61
591.04	2513.74
591.20	2485.65
591.35	2569.91
591.51	2621.40
591.67	2450.54
591.83	2574.59
591.99	2569.91
592.15	2612.04
592.31	2506.71
592.46	2612.04
592.62	2623.74
592.78	2621.40
592.94	2612.04
593.10	2612.04
593.26	2518.42
593.41	2530.12
593.57	2544.16
593.73	2492.67
593.89	2633.10
594.05	2466.92
594.20	2513.74
594.36	2548.84
594.52	2523.10
594.68	2480.97
594.84	2534.80
594.99	2431.82
595.15	2452.88
595.31	2520.76
595.47	2471.61
595.62	2502.03
595.78	2506.71
595.94	2356.92
596.10	2385.01
596.25	2483.31
596.41	2562.89
596.57	2389.69
596.73	2424.80
596.88	2342.88
597.04	2492.67
597.20	2516.08
597.36	2541.82
597.51	2448.20
597.67	2434.16
597.83	2597.99
597.99	2527.78
598.14	2607.36
598.30	2586.29
598.46	2581.61
598.61	2640.12
598.77	2537.14
598.93	2551.18
599.09	2546.50
599.24	2654.17
599.40	2605.02
599.56	2600.34
599.71	2506.71
599.87	2560.55
600.03	2417.77
600.18	2495.01
600.34	2469.27
600.50	2466.92
600.65	2511.39
600.81	2455.22
600.97	2420.11
601.12	2546.50
601.28	2478.63
601.44	2518.42
601.59	2420.11
601.75	2438.84
601.91	2544.16
602.06	2389.69
602.22	2597.99
602.37	2541.82
602.53	2422.45
602.69	2469.27
602.84	2380.32
603.00	2469.27
603.16	2399.05
603.31	2445.86
603.47	2562.89
603.62	2427.14
603.78	2492.67
603.94	2349.90
604.09	2338.20
604.25	2392.03
604.40	2469.27
604.56	2443.52
604.71	2492.67
604.87	2478.63
605.03	2401.39
605.18	2497.35
605.34	2649.49
605.49	2495.01
605.65	2436.50
605.80	2473.95
605.96	2422.45
606.12	2434.16
606.27	2516.08
606.43	2452.88
606.58	2431.82
606.74	2429.48
606.89	2359.26
607.05	2605.02
607.20	2492.67
607.36	2530.12
607.51	2326.49
607.67	2546.50
607.82	2675.23
607.98	2574.59
608.13	2516.08
608.29	2495.01
608.44	2647.15
608.60	2588.63
608.75	2600.34
608.91	2541.82
609.06	2651.83
609.22	2640.12
609.37	2523.10
609.53	2705.66
609.68	2785.24
609.84	2799.28
609.99	2916.31
610.15	2888.22
610.30	3251.00
610.46	3206.53
610.61	3651.24
610.76	3803.37
610.92	4329.99
611.07	4329.99
611.23	4451.70
611.38	4365.10
611.54	4016.36
611.69	3824.44
611.84	3536.55
612.00	3400.80
612.15	3105.89
612.31	3162.06
612.46	2939.71
612.62	3070.78
612.77	3094.19
612.92	2970.14
613.08	2958.44
613.23	2843.75
613.39	2789.92
613.54	2766.51
613.69	2778.22
613.85	2771.19
614.00	2726.72
614.15	2759.49
614.31	2747.79
614.46	2715.02
614.62	2719.70
614.77	2801.62
614.92	2656.51
615.08	2675.23
615.23	2633.10
615.38	2684.59
615.54	2434.16
615.69	2689.28
615.84	2544.16
616.00	2544.16
616.15	2410.75
616.30	2464.58
616.46	2551.18
616.61	2516.08
616.76	2429.48
616.92	2387.35
617.07	2502.03
617.22	2258.62
617.37	2431.82
617.53	2408.41
617.68	2408.41
617.83	2509.05
617.99	2377.98
618.14	2389.69
618.29	2399.05
618.45	2497.35
618.60	2415.43
618.75	2305.43
618.90	2373.30
619.06	2487.99
619.21	2569.91
619.36	2443.52
619.51	2314.79
619.67	2422.45
619.82	2373.30
619.97	2389.69
620.12	2377.98
620.28	2485.65
620.43	2385.01
620.58	2345.22
620.73	2368.62
620.89	2497.35
621.04	2333.51
621.19	2377.98
621.34	2340.54
621.49	2382.67
621.65	2469.27
621.80	2335.85
621.95	2279.68
622.10	2464.58
622.25	2328.83
622.41	2235.21
622.56	2373.30
622.71	2359.26
622.86	2249.25
623.01	2431.82
623.16	2267.98
623.32	2326.49
623.47	2389.69
623.62	2335.85
623.77	2331.17
623.92	2387.35
624.07	2499.69
624.23	2282.02
624.38	2333.51
624.53	2310.11
624.68	2434.16
624.83	2392.03
624.98	2223.51
625.13	2326.49
625.29	2427.14
625.44	2450.54
625.59	2347.56
625.74	2289.04
625.89	2249.25
626.04	2345.22
626.19	2307.77
626.34	2265.64
626.49	2321.81
626.65	2345.22
626.80	2342.88
626.95	2286.70
627.10	2197.76
627.25	2370.96
627.40	2310.11
627.55	2263.30
627.70	2258.62
627.85	2317.13
628.00	2258.62
628.15	2216.49
628.30	2312.45
628.45	2165.00
628.60	2200.10
628.76	2392.03
628.91	2165.00
629.06	2293.72
629.21	2326.49
629.36	2307.77
629.51	2230.53
629.66	2380.32
629.81	2239.89
629.96	2352.24
630.11	2380.32
630.26	2335.85
630.41	2399.05
630.56	2441.18
630.71	2396.71
630.86	2417.77
631.01	2429.48
631.16	2289.04
631.31	2380.32
631.46	2282.02
631.61	2408.41
631.76	2375.64
631.91	2218.83
632.06	2155.63
632.21	2216.49
632.36	2186.06
632.51	2162.66
632.66	2209.47
632.81	2244.57
632.96	2237.55
633.10	2115.84
633.25	2286.70
633.40	2286.70
633.55	2202.44
633.70	2120.53
633.85	2139.25
634.00	2195.42
634.15	2221.17
634.30	2249.25
634.45	2225.85
634.60	2010.52
634.75	2155.63
634.90	2111.16
635.05	2150.95
635.19	2064.35
635.34	2111.16
635.49	2136.91
635.64	2087.76
635.79	2122.87
635.94	2202.44
636.09	2111.16
636.24	2078.40
636.39	2183.72
636.53	2251.60
636.68	2160.31
636.83	2069.03
636.98	2118.18
637.13	2176.70
637.28	2162.66
637.43	2204.78
637.57	2246.91
637.72	2071.37
637.87	2062.01
638.02	2155.63
638.17	2129.89
638.32	2127.55
638.46	2165.00
638.61	2211.81
638.76	1980.09
638.91	2036.27
639.06	2188.40
639.20	1996.48
639.35	2160.31
639.50	2120.53
639.65	2200.10
639.80	2083.08
639.94	2218.83
640.09	2099.46
640.24	2092.44
640.39	1973.07
640.54	2001.16
640.68	2132.23
640.83	2017.54
640.98	2080.74
641.13	2022.22
641.27	2031.58
641.42	2155.63
641.57	2160.31
641.72	2064.35
641.86	2125.21
642.01	2040.95
642.16	2057.33
642.31	2078.40
642.45	2136.91
642.60	2139.25
642.75	2125.21
642.90	2087.76
643.04	2090.10
643.19	2059.67
643.34	2129.89
643.48	1989.46
643.63	2069.03
643.78	2211.81
643.93	2134.57
644.07	2031.58
644.22	2122.87
644.37	2059.67
644.51	2071.37
644.66	2012.86
644.81	1982.43
644.95	2010.52
645.10	2071.37
645.25	2029.24
645.39	2008.18
645.54	2122.87
645.69	2162.66
645.83	2139.25
645.98	2008.18
646.13	2132.23
646.27	2064.35
646.42	2012.86
646.57	2157.97
646.71	1961.37
646.86	1989.46
647.00	2001.16
647.15	2029.24
647.30	1947.33
647.44	1935.62
647.59	2001.16
647.74	2029.24
647.88	2141.59
648.03	2057.33
648.17	2031.58
648.32	2003.50
648.47	2047.97
648.61	2038.61
648.76	2108.82
648.90	2010.52
649.05	2064.35
649.20	1968.39
649.34	1963.71
649.49	2040.95
649.63	2169.68
649.78	2001.16
649.92	1973.07
650.07	2010.52
650.21	1980.09
650.36	2029.24
650.51	2111.16
650.65	2038.61
650.80	2045.63
650.94	2073.71
651.09	1984.77
651.23	1954.35
651.38	1935.62
651.52	2001.16
651.67	1923.92
651.81	1912.22
651.96	1966.05
652.10	1947.33
652.25	1940.30
652.39	1888.81
652.54	2029.24
652.68	1977.75
652.83	2069.03
652.97	2033.93
653.12	1961.37
653.26	2071.37
653.41	2015.20
653.55	1984.77
653.70	1984.77
653.84	1954.35
653.99	2012.86
654.13	1980.09
654.27	2001.16
654.42	1893.49
654.56	2069.03
654.71	2069.03
654.85	1956.69
655.00	1940.30
655.14	2022.22
655.29	1996.48
655.43	1961.37
655.57	1998.82
655.72	1921.58
655.86	1921.58
656.01	2008.18
656.15	1891.15
656.30	1933.28
656.44	1930.94
656.58	1888.81
656.73	1912.22
656.87	1952.01
657.01	1987.11
657.16	2036.27
657.30	1987.11
657.45	2069.03
657.59	1980.09
657.73	1994.14
657.88	1952.01
658.02	2008.18
658.16	1952.01
658.31	2069.03
658.45	1926.26
658.60	1851.36
658.74	1926.26
658.88	1966.05
659.03	1905.20
659.17	1947.33
659.31	1987.11
659.46	1877.11
659.60	2038.61
659.74	1895.83
659.89	1916.90
660.03	1809.23
660.17	1949.67
660.32	1952.01
660.46	1837.32
660.60	1820.94
660.74	1865.41
660.89	1893.49
661.03	1849.02
661.17	1825.62
661.32	1874.77
661.46	1884.13
661.60	1956.69
661.74	1867.75
661.89	1851.36
662.03	1996.48
662.17	1928.60
662.31	1914.56
662.46	1987.11
662.60	1856.04
662.74	1816.26
662.88	1865.41
663.03	1827.96
663.17	1832.64
663.31	1860.73
663.45	1928.60
663.60	1804.55
663.74	1809.23
663.88	1816.26
664.02	1764.76
664.17	1816.26
664.31	1858.39
664.45	1825.62
664.59	1792.85
664.73	1792.85
664.88	1846.68
665.02	1795.19
665.16	1783.49
665.30	1839.66
665.44	1905.20
665.59	1844.34
665.73	1858.39
665.87	1706.25
666.01	1694.55
666.15	1834.98
666.29	1755.40
666.44	1933.28
666.58	1954.35
666.72	1767.10
666.86	1750.72
667.00	1785.83
667.14	1797.53
667.28	1825.62
667.43	1736.68
667.57	1755.40
667.71	1750.72
667.85	1739.02
667.99	1778.81
668.13	1790.51
668.27	1610.29
668.41	1729.66
668.56	1825.62
668.70	1703.91
668.84	1767.10
668.98	1746.04
669.12	1722.63
669.26	1673.48
669.40	1851.36
669.54	1678.16
669.68	1774.13
669.82	1755.40
669.96	1767.10
670.10	1734.34
670.25	1715.61
670.39	1701.57
670.53	1771.79
670.67	1746.04
670.81	1748.38
670.95	1809.23
671.09	1664.12
671.23	1802.21
671.37	1788.17
671.51	1678.16
671.65	1769.44
671.79	1701.57
671.93	1724.97
672.07	1797.53
672.21	1764.76
672.35	1579.86
672.49	1652.42
672.63	1680.50
672.77	1748.38
672.91	1661.78
673.05	1699.23
673.19	1692.21
673.33	1706.25
673.47	1741.36
673.61	1607.95
673.75	1612.63
673.89	1654.76
674.03	1671.14
674.17	1596.25
674.31	1643.06
674.45	1631.35
674.59	1614.97
674.73	1596.25
674.87	1526.03
675.01	1575.18
675.15	1558.80
675.29	1685.19
675.43	1732.00
675.56	1657.10
675.70	1589.22
675.84	1633.69
675.98	1591.56
676.12	1530.71
676.26	1605.61
676.40	1687.53
676.54	1603.27
676.68	1624.33
676.82	1650.08
676.96	1671.14
677.10	1631.35
677.23	1537.73
677.37	1584.54
677.51	1544.75
677.65	1703.91
677.79	1413.68
677.93	1511.99
678.07	1551.78
678.21	1570.50
678.34	1516.67
678.48	1493.26
678.62	1497.94
678.76	1444.11
678.90	1526.03
679.04	1479.22
679.18	1540.07
679.31	1572.84
679.45	1502.62
679.59	1516.67
679.73	1474.54
679.87	1490.92
680.00	1530.71
680.14	1420.71
680.28	1589.22
680.42	1528.37
680.56	1366.87
680.70	1434.75
680.83	1446.45
680.97	1509.65
681.11	1469.86
681.25	1430.07
681.39	1523.69
681.52	1383.26
681.66	1434.75
681.80	1362.19
681.94	1329.42
682.07	1350.49
682.21	1296.66
682.35	1369.21
682.49	1418.36
682.62	1448.79
682.76	1495.60
682.90	1329.42
683.04	1394.96
683.17	1401.98
683.31	1357.51
683.45	1366.87
683.59	1448.79
683.72	1504.96
683.86	1416.02
684.00	1317.72
684.13	1413.68
684.27	1362.19
684.41	1345.81
684.55	1479.22
684.68	1296.66
684.82	1329.42
684.96	1268.57
685.09	1308.36
685.23	1334.11
685.37	1299.00
685.50	1406.66
685.64	1331.76
685.78	1301.34
685.91	1401.98
686.05	1397.30
686.19	1336.45
686.32	1275.59
686.46	1256.87
686.60	1231.12
686.73	1263.89
686.87	1275.59
687.01	1357.51
687.14	1214.74
687.28	1245.16
687.42	1200.69
687.55	1270.91
687.69	1348.15
687.82	1270.91
687.96	1338.79
688.10	1261.55
688.23	1228.78
688.37	1259.21
688.50	1317.72
688.64	1282.61
688.78	1240.48
688.91	1240.48
689.05	1196.01
689.18	1123.46
689.32	1137.50
689.46	1156.22
689.59	1163.25
689.73	1263.89
689.86	1245.16
690.00	1249.85
690.13	1198.35
690.27	1146.86
690.41	1132.82
690.54	1153.88
690.68	1125.80
690.81	1146.86
690.95	1130.48
691.08	1146.86
691.22	1149.20
691.35	1254.53
691.49	1181.97
691.62	1149.20
691.76	1151.54
691.89	1221.76
692.03	1151.54
692.16	1048.56
692.30	1130.48
692.43	1217.08
692.57	1097.71
692.70	1060.26
692.84	1132.82
692.97	1074.31
693.11	1034.52
693.24	1151.54
693.38	1130.48
693.51	1125.80
693.65	1104.73
693.78	1100.05
693.92	1081.33
694.05	1128.14
694.19	1013.45
694.32	1095.37
694.45	1057.92
694.59	1125.80
694.72	1095.37
694.86	1029.84
694.99	1046.22
695.13	1022.81
695.26	1032.18
695.39	1071.97
695.53	1111.75
695.66	1107.07
695.80	1067.28
695.93	1013.45
696.07	1074.31
696.20	938.55
696.33	1069.62
696.47	931.53
696.60	966.64
696.73	1013.45
696.87	961.96
697.00	1032.18
697.14	957.28
697.27	901.11
697.40	1025.15
697.54	1008.77
697.67	1001.75
697.80	983.02
697.94	922.17
698.07	1011.11
698.21	966.64
698.34	1043.88
698.47	945.58
698.61	905.79
698.74	910.47
698.87	968.98
699.01	861.32
699.14	924.51
699.27	945.58
699.40	1104.73
699.54	915.15
699.67	959.62
699.80	901.11
699.94	919.83
700.07	987.71
700.20	856.64
700.34	915.15
700.47	870.68
700.60	835.57
700.73	919.83
700.87	877.70
701.00	915.15
701.13	926.85
701.26	889.40
701.40	870.68
701.53	847.27
701.66	863.66
701.79	894.08
701.93	889.40
702.06	947.92
702.19	861.32
702.32	863.66
702.46	894.08
702.59	842.59
702.72	788.76
702.85	894.08
702.99	861.32
703.12	765.36
703.25	851.96
703.38	863.66
703.51	816.85
703.65	753.65
703.78	798.12
703.91	805.14
704.04	870.68
704.17	870.68
704.31	786.42
704.44	816.85
704.57	809.83
704.70	847.27
704.83	849.61
704.96	819.19
705.10	849.61
705.23	835.57
>>>>>End Processed Spectral Data<<<<<
