SpectraSuite Data File
++++++++++++++++++++++++++++++++++++
Date: Fri Oct 04 11:40:06 GMT-05:00 2013
User: price-jones
Dark Spectrum Present: No
Reference Spectrum Present: No
Number of Sampled Component Spectra: 1
Spectrometers: USB2+H05261
Integration Time (usec): 100000 (USB2+H05261)
Spectra Averaged: 1 (USB2+H05261)
Boxcar Smoothing: 0 (USB2+H05261)
Correct for Electrical Dark: No (USB2+H05261)
Strobe/Lamp Enabled: No (USB2+H05261)
Correct for Detector Non-linearity: No (USB2+H05261)
Correct for Stray Light: No (USB2+H05261)
Number of Pixels in Processed Spectrum: 2048
>>>>>Begin Processed Spectral Data<<<<<
365.73	37.45
365.92	37.45
366.12	37.45
366.32	0.00
366.52	0.00
366.72	0.00
366.91	0.00
367.11	0.00
367.31	0.00
367.51	0.00
367.70	0.00
367.90	0.00
368.10	0.00
368.30	0.00
368.49	0.00
368.69	0.00
368.89	0.00
369.09	0.00
369.28	0.00
369.48	0.00
369.68	11.70
369.87	23.41
370.07	0.00
370.27	93.62
370.47	154.48
370.66	468.11
370.86	470.45
371.06	671.73
371.25	713.86
371.45	521.94
371.65	608.54
371.84	491.51
372.04	482.15
372.24	533.64
372.44	526.62
372.63	592.16
372.83	594.50
373.03	477.47
373.22	421.30
373.42	512.58
373.62	559.39
373.81	610.88
374.01	624.92
374.21	533.64
374.40	582.79
374.60	559.39
374.79	601.52
374.99	718.54
375.19	690.46
375.38	671.73
375.58	697.48
375.78	683.44
375.97	713.86
376.17	664.71
376.37	634.29
376.56	695.14
376.76	770.04
376.95	784.08
377.15	873.02
377.35	837.91
377.54	835.57
377.74	919.83
377.93	901.11
378.13	889.40
378.33	861.32
378.52	765.36
378.72	814.51
378.91	699.82
379.11	711.52
379.31	599.18
379.50	660.03
379.70	720.88
379.89	866.00
380.09	861.32
380.28	807.48
380.48	917.49
380.68	802.80
380.87	861.32
381.07	765.36
381.26	720.88
381.46	692.80
381.65	704.50
381.85	669.39
382.04	631.94
382.24	645.99
382.43	631.94
382.63	528.96
382.83	622.58
383.02	580.45
383.22	648.33
383.41	585.13
383.61	587.47
383.80	699.82
384.00	732.59
384.19	870.68
384.39	875.36
384.58	809.83
384.78	840.25
384.97	842.59
385.17	784.08
385.36	781.74
385.56	802.80
385.75	765.36
385.95	800.46
386.14	903.45
386.34	812.17
386.53	833.23
386.72	753.65
386.92	812.17
387.11	940.90
387.31	858.98
387.50	889.40
387.70	894.08
387.89	903.45
388.09	891.74
388.28	837.91
388.48	917.49
388.67	926.85
388.86	1022.81
389.06	1022.81
389.25	1074.31
389.45	1102.39
389.64	1055.58
389.84	1114.10
390.03	1163.25
390.22	1109.41
390.42	1111.75
390.61	1118.78
390.81	1263.89
391.00	1235.80
391.19	1296.66
391.39	1277.93
391.58	1186.65
391.78	1027.50
391.97	1074.31
392.16	1020.47
392.36	1020.47
392.55	784.08
392.75	622.58
392.94	571.09
393.13	573.43
393.33	615.56
393.52	655.35
393.71	933.87
393.91	997.07
394.10	1081.33
394.29	1088.35
394.49	1205.38
394.68	1263.89
394.88	1277.93
395.07	1317.72
395.26	1404.32
395.46	1334.11
395.65	1205.38
395.84	1060.26
396.04	1048.56
396.23	819.19
396.42	746.63
396.62	709.18
396.81	678.76
397.00	861.32
397.19	1104.73
397.39	1350.49
397.58	1488.58
397.77	1430.07
397.97	1530.71
398.16	1610.29
398.35	1736.68
398.55	1598.59
398.74	1652.42
398.93	1837.32
399.12	1792.85
399.32	1727.32
399.51	1720.29
399.70	1888.81
399.90	1802.21
400.09	1799.87
400.28	1844.34
400.47	1827.96
400.67	1820.94
400.86	1947.33
401.05	1928.60
401.24	1973.07
401.44	1858.39
401.63	1926.26
401.82	2005.84
402.01	1933.28
402.21	1919.24
402.40	2066.69
402.59	1961.37
402.78	1827.96
402.97	1785.83
403.17	1865.41
403.36	1919.24
403.55	2024.56
403.74	2031.58
403.93	2019.88
404.13	1919.24
404.32	1830.30
404.51	1914.56
404.70	2024.56
404.89	1937.96
405.09	2005.84
405.28	1914.56
405.47	1947.33
405.66	1895.83
405.85	1942.64
406.05	1874.77
406.24	1839.66
406.43	1947.33
406.62	1923.92
406.81	1980.09
407.00	1944.99
407.20	1853.70
407.39	1891.15
407.58	2045.63
407.77	2012.86
407.96	2071.37
408.15	2165.00
408.34	2047.97
408.54	2324.15
408.73	2172.02
408.92	2209.47
409.11	2167.34
409.30	2115.84
409.49	1930.94
409.68	1881.79
409.87	1856.04
410.07	1834.98
410.26	2108.82
410.45	2118.18
410.64	2193.08
410.83	2167.34
411.02	2258.62
411.21	2396.71
411.40	2279.68
411.59	2260.96
411.78	2349.90
411.98	2275.00
412.17	2417.77
412.36	2242.23
412.55	2424.80
412.74	2312.45
412.93	2314.79
413.12	2277.34
413.31	2401.39
413.50	2347.56
413.69	2469.27
413.88	2251.60
414.07	2375.64
414.26	2408.41
414.45	2520.76
414.64	2401.39
414.83	2389.69
415.02	2382.67
415.22	2310.11
415.41	2532.46
415.60	2422.45
415.79	2686.94
415.98	2644.81
416.17	2726.72
416.36	2553.52
416.55	2614.38
416.74	2583.95
416.93	2459.90
417.12	2497.35
417.31	2380.32
417.50	2530.12
417.69	2670.55
417.88	2527.78
418.07	2548.84
418.26	2555.86
418.45	2583.95
418.64	2616.72
418.83	2691.62
419.02	2729.06
419.21	2813.32
419.39	2534.80
419.58	2431.82
419.77	2581.61
419.96	2567.57
420.15	2818.00
420.34	2696.30
420.53	2829.71
420.72	2918.65
420.91	2827.37
421.10	2696.30
421.29	2904.60
421.48	2689.28
421.67	2754.81
421.86	2698.64
422.05	2569.91
422.24	2389.69
422.43	2317.13
422.61	2551.18
422.80	2724.38
422.99	2768.85
423.18	2710.34
423.37	2588.63
423.56	2518.42
423.75	2473.95
423.94	2642.46
424.13	2406.07
424.32	2569.91
424.50	2630.76
424.69	2464.58
424.88	2600.34
425.07	2525.44
425.26	2579.27
425.45	2473.95
425.64	2436.50
425.83	2385.01
426.01	2581.61
426.20	2686.94
426.39	2581.61
426.58	2441.18
426.77	2338.20
426.96	2347.56
427.15	2349.90
427.33	2429.48
427.52	2623.74
427.71	2581.61
427.90	2553.52
428.09	2480.97
428.28	2511.39
428.46	2511.39
428.65	2361.60
428.84	2459.90
429.03	2359.26
429.22	2265.64
429.40	2200.10
429.59	2083.08
429.78	1834.98
429.97	1783.49
430.16	1874.77
430.34	1781.15
430.53	1994.14
430.72	1827.96
430.91	2118.18
431.10	2401.39
431.28	2705.66
431.47	2967.80
431.66	3105.89
431.85	2726.72
432.03	2572.25
432.22	2476.29
432.41	2480.97
432.60	2780.56
432.79	2722.04
432.97	2822.69
433.16	2832.05
433.35	2663.53
433.54	2401.39
433.72	2368.62
433.91	2377.98
434.10	2640.12
434.28	2696.30
434.47	2801.62
434.66	2920.99
434.85	2785.24
435.03	2782.90
435.22	2995.89
435.41	3157.38
435.59	3384.41
435.78	3232.28
435.97	3084.83
436.16	3084.83
436.34	3007.59
436.53	3023.97
436.72	3176.11
436.90	2860.13
437.09	2853.11
437.28	2972.48
437.46	2883.54
437.65	2888.22
437.84	2771.19
438.02	2473.95
438.21	2511.39
438.40	2612.04
438.58	2827.37
438.77	2876.52
438.96	2951.42
439.14	2979.50
439.33	3143.34
439.52	3178.45
439.70	3133.98
439.89	2986.52
440.08	2881.20
440.26	2911.63
440.45	3019.29
440.63	3227.60
440.82	3255.69
441.01	3431.23
441.19	3206.53
441.38	3358.67
441.57	3321.22
441.75	3538.89
441.94	3466.33
442.12	3407.82
442.31	3623.15
442.50	3592.72
442.68	3454.63
442.87	3405.48
443.05	3377.39
443.24	3534.21
443.43	3473.36
443.61	3658.26
443.80	3620.81
443.98	3468.67
444.17	3459.31
444.35	3503.78
444.54	3646.55
444.73	3489.74
444.91	3426.54
445.10	3412.50
445.28	3267.39
445.47	3267.39
445.65	3274.41
445.84	3225.26
446.02	3428.88
446.21	3487.40
446.39	3417.18
446.58	3475.70
446.77	3604.42
446.95	3576.34
447.14	3620.81
447.32	3899.33
447.51	3637.19
447.69	3515.48
447.88	3489.74
448.06	3445.27
448.25	3545.91
448.43	3599.74
448.62	3569.32
448.80	3632.51
448.99	3426.54
449.17	3655.92
449.36	3566.98
449.54	3698.05
449.73	3847.84
449.91	3737.84
450.10	3861.88
450.28	3955.51
450.46	3840.82
450.65	3875.93
450.83	3894.65
451.02	3904.01
451.20	3812.73
451.39	3786.99
451.57	3803.37
451.76	3754.22
451.94	3779.97
452.13	3684.00
452.31	3637.19
452.49	3426.54
452.68	3405.48
452.86	3337.60
453.05	3595.06
453.23	3510.80
453.42	3648.90
453.60	3679.32
453.78	3805.71
453.97	3772.94
454.15	3679.32
454.34	3606.77
454.52	3527.19
454.70	3599.74
454.89	3712.09
455.07	3695.71
455.26	3632.51
455.44	3707.41
455.62	3887.63
455.81	4032.74
455.99	3875.93
456.17	3798.69
456.36	3864.22
456.54	4042.11
456.73	3908.69
456.91	3927.42
457.09	4021.04
457.28	4105.30
457.46	3819.75
457.64	3922.74
457.83	3808.05
458.01	3588.04
458.19	3744.86
458.38	3836.14
458.56	3920.40
458.74	3988.27
458.93	3899.33
459.11	3810.39
459.29	3854.86
459.48	3768.26
459.66	3885.29
459.84	3946.14
460.03	4091.26
460.21	4060.83
460.39	3927.42
460.57	3850.18
460.76	3983.59
460.94	4051.47
461.12	4014.02
461.31	4060.83
461.49	4018.70
461.67	4030.40
461.85	4208.28
462.04	4037.42
462.22	4561.70
462.40	4215.30
462.59	4007.00
462.77	4135.73
462.95	4140.41
463.13	4046.79
463.32	4044.45
463.50	4091.26
463.68	4023.38
463.86	3920.40
464.05	3904.01
464.23	3920.40
464.41	3941.46
464.59	3838.48
464.78	3974.23
464.96	3852.52
465.14	3866.56
465.32	3957.85
465.50	4163.81
465.69	4149.77
465.87	4007.00
466.05	4053.81
466.23	3810.39
466.41	3735.50
466.60	3777.62
466.78	3714.43
466.96	3941.46
467.14	4126.36
467.32	3922.74
467.51	3817.41
467.69	3927.42
467.87	3824.44
468.05	3892.31
468.23	3894.65
468.41	3896.99
468.60	4102.96
468.78	3969.55
468.96	3899.33
469.14	3843.16
469.32	3990.61
469.50	3857.20
469.69	3983.59
469.87	3859.54
470.05	3836.14
470.23	3882.95
470.41	3698.05
470.59	3857.20
470.77	3824.44
470.95	3901.67
471.14	4072.53
471.32	4053.81
471.50	4227.01
471.68	4259.78
471.86	4269.14
472.04	4294.88
472.22	4276.16
472.40	4135.73
472.58	3964.87
472.77	4084.23
472.95	4021.04
473.13	4327.65
473.31	4042.11
473.49	4121.68
473.67	4280.84
473.85	4198.92
474.03	4367.44
474.21	4458.72
474.39	4489.15
474.57	4271.48
474.75	4334.67
474.93	4278.50
475.12	4308.93
475.30	4374.46
475.48	4337.01
475.66	4327.65
475.84	4198.92
476.02	4198.92
476.20	4271.48
476.38	4203.60
476.56	4393.19
476.74	4519.57
476.92	4409.57
477.10	4484.47
477.28	4660.01
477.46	4542.98
477.64	4617.88
477.82	4788.74
478.00	4645.96
478.18	4674.05
478.36	4554.68
478.54	4678.73
478.72	4545.32
478.90	4805.12
479.08	4765.33
479.26	4947.89
479.44	4954.91
479.62	4959.60
479.80	4802.78
479.98	4952.57
480.16	5067.26
480.34	4858.95
480.52	5029.81
480.70	5022.79
480.88	5109.39
481.06	5130.45
481.24	5247.48
481.41	5277.91
481.59	5352.81
481.77	5362.17
481.95	5123.43
482.13	5317.70
482.31	5167.90
482.49	5355.15
482.67	5135.14
482.85	5310.68
483.03	5465.15
483.21	5518.98
483.39	5373.87
483.57	5444.09
483.74	5352.81
483.92	5533.03
484.10	5327.06
484.28	5460.47
484.46	5612.60
484.64	5696.86
484.82	5530.69
485.00	5479.19
485.18	5373.87
485.35	5280.25
485.53	4812.14
485.71	4568.73
485.89	4386.16
486.07	4667.03
486.25	5048.54
486.43	5195.99
486.61	5408.98
486.78	5350.46
486.96	5289.61
487.14	5430.04
487.32	5561.11
487.50	5902.83
487.68	6047.94
487.85	6129.86
488.03	6090.07
488.21	5984.75
488.39	5858.36
488.57	5703.89
488.75	5579.84
488.92	6092.41
489.10	6221.14
489.28	6558.18
489.46	6497.33
489.64	6539.46
489.81	6738.40
489.99	6693.93
490.17	6656.48
490.35	6733.72
490.53	6527.75
490.70	6459.88
490.88	6455.20
491.06	6544.14
491.24	6750.10
491.41	6546.48
491.59	6127.52
491.77	6073.69
491.95	6291.36
492.13	6223.48
492.30	6640.10
492.48	6796.92
492.66	6944.37
492.84	6949.05
493.01	6951.39
493.19	6906.92
493.37	6806.28
493.54	6757.13
493.72	6630.74
493.90	6986.50
494.08	7061.40
494.25	7311.83
494.43	7314.17
494.61	7417.16
494.79	7365.67
494.96	7309.49
495.14	7152.68
495.32	6864.79
495.49	6839.05
495.67	6981.82
495.85	7295.45
496.02	7522.48
496.20	7557.59
496.38	7339.92
496.55	7311.83
496.73	7658.23
496.91	7768.24
497.09	7648.87
497.26	7836.11
497.44	7433.54
497.62	7555.25
497.79	7215.87
497.97	7110.55
498.14	7077.78
498.32	7152.68
498.50	7454.61
498.67	7478.01
498.85	7606.74
499.03	7623.12
499.20	7796.32
499.38	7737.81
499.56	7669.94
499.73	7534.18
499.91	7463.97
500.08	7253.32
500.26	7096.50
500.44	7112.89
500.61	7372.69
500.79	7300.13
500.97	7382.05
501.14	7288.43
501.32	7246.30
501.49	7054.37
501.67	7197.15
501.84	7110.55
502.02	7307.15
502.20	7531.84
502.37	7550.57
502.55	7445.24
502.72	7492.05
502.90	7667.60
503.07	7618.44
503.25	7370.35
503.43	7040.33
503.60	6906.92
503.78	6794.58
503.95	6869.47
504.13	7162.04
504.30	7480.35
504.48	7576.31
504.65	7501.42
504.83	7662.91
505.01	7719.09
505.18	7723.77
505.36	7829.09
505.53	7960.16
505.71	7927.39
505.88	8037.40
506.06	8035.06
506.23	8011.65
506.41	7770.58
506.58	7585.68
506.76	7742.49
506.93	7754.19
507.11	7513.12
507.28	7527.16
507.46	7398.43
507.63	7552.91
507.81	7447.58
507.98	7417.16
508.16	7581.00
508.33	7775.26
508.50	7761.22
508.68	8119.32
508.85	8241.03
509.03	8273.79
509.20	8107.62
509.38	7985.91
509.55	7709.72
509.73	7599.72
509.90	7833.77
510.08	8154.43
510.25	7948.46
510.42	7798.66
510.60	7985.91
510.77	8091.23
510.95	7960.16
511.12	8070.17
511.30	8149.75
511.47	8320.60
511.64	8325.29
511.82	8133.36
511.99	8049.10
512.17	7992.93
512.34	7887.61
512.51	7775.26
512.69	7719.09
512.86	7765.90
513.04	8072.51
513.21	7936.76
513.38	8088.89
513.56	7688.66
513.73	7641.85
513.90	7520.14
514.08	7695.68
514.25	7756.54
514.43	7831.43
514.60	7805.69
514.77	7934.42
514.95	7896.97
515.12	7803.35
515.29	7793.98
515.47	8180.17
515.64	8175.49
515.81	8234.00
515.99	8046.76
516.16	7513.12
516.33	7213.53
516.51	6567.54
516.68	6506.69
516.85	6497.33
517.03	6546.48
517.20	7002.88
517.37	7517.80
517.54	7955.48
517.72	7693.34
517.89	7332.90
518.06	6644.78
518.24	6972.46
518.41	7321.20
518.58	7515.46
518.75	7578.65
518.93	7679.30
519.10	7541.21
519.27	7655.89
519.45	7868.88
519.62	7967.18
519.79	7929.74
519.96	7941.44
520.14	7957.82
520.31	7761.22
520.48	7772.92
520.65	7573.97
520.83	8126.34
521.00	8336.99
521.17	8025.70
521.34	7927.39
521.52	7995.27
521.69	8187.19
521.86	8081.87
522.03	8191.88
522.20	8063.15
522.38	7723.77
522.55	7602.06
522.72	7770.58
522.89	7831.43
523.07	7812.71
523.24	7925.05
523.41	8152.09
523.58	8147.40
523.75	8325.29
523.92	8367.42
524.10	8411.89
524.27	8241.03
524.44	8308.90
524.61	8142.72
524.78	8252.73
524.96	8072.51
525.13	8023.36
525.30	8351.03
525.47	8355.71
525.64	8456.36
525.81	8191.88
525.98	7808.03
526.16	7506.10
526.33	7316.51
526.50	7110.55
526.67	7225.23
526.84	7318.86
527.01	7487.37
527.18	7662.91
527.36	7845.48
527.53	8131.02
527.70	8212.94
527.87	8009.31
528.04	7782.28
528.21	8124.00
528.38	8404.86
528.55	8336.99
528.72	8730.20
528.89	8891.70
529.07	8659.98
529.24	8439.97
529.41	8348.69
529.58	7957.82
529.75	8131.02
529.92	8205.92
530.09	8140.38
530.26	8358.05
530.43	8325.29
530.60	8470.40
530.77	8463.38
530.94	8369.76
531.11	8503.17
531.28	8217.62
531.46	8325.29
531.63	8383.80
531.80	8414.23
531.97	8198.90
532.14	8109.96
532.31	7665.25
532.48	7641.85
532.65	7550.57
532.82	7691.00
532.99	7985.91
533.16	7927.39
533.33	8388.48
533.50	8369.76
533.67	8215.28
533.84	7896.97
534.01	7882.92
534.18	7873.56
534.35	7801.01
534.52	8194.22
534.69	8311.24
534.86	8196.56
535.03	8381.46
535.20	8355.71
535.37	8582.74
535.54	8442.31
535.71	8540.61
535.88	8362.73
536.05	8283.16
536.22	8231.66
536.38	7906.33
536.55	8049.10
536.72	7836.11
536.89	7798.66
537.06	8135.70
537.23	8264.43
537.40	8336.99
537.57	8229.32
537.74	8322.94
537.91	8280.82
538.08	8210.60
538.25	8156.77
538.42	8271.45
538.59	8236.35
538.75	7999.95
538.92	7955.48
539.09	7885.26
539.26	7700.36
539.43	7871.22
539.60	7822.07
539.77	8023.36
539.94	7920.37
540.11	7651.21
540.28	7545.89
540.44	7337.58
540.61	7438.22
540.78	7744.83
540.95	7840.79
541.12	8091.23
541.29	8093.57
541.46	8159.11
541.62	8304.22
541.79	8262.09
541.96	7864.20
542.13	7808.03
542.30	8091.23
542.47	8236.35
542.63	7943.78
542.80	7934.42
542.97	7936.76
543.14	7770.58
543.31	7859.52
543.48	8079.53
543.64	8210.60
543.81	8393.16
543.98	8461.04
544.15	8203.58
544.32	7903.99
544.48	7955.48
544.65	8013.99
544.82	8163.79
544.99	8332.31
545.16	7857.18
545.32	7854.84
545.49	8414.23
545.66	8868.29
545.83	8816.80
546.00	8606.15
546.16	8142.72
546.33	8121.66
546.50	8152.09
546.67	8112.30
546.83	8044.42
547.00	8091.23
547.17	7964.84
547.34	7581.00
547.50	7653.55
547.67	7669.94
547.84	7803.35
548.00	7981.23
548.17	8180.17
548.34	8091.23
548.51	7985.91
548.67	8046.76
548.84	8283.16
549.01	8002.29
549.18	8102.93
549.34	8004.63
549.51	7801.01
549.68	7742.49
549.84	8030.38
550.01	7866.54
550.18	7939.10
550.34	7857.18
550.51	7868.88
550.68	7831.43
550.84	7646.53
551.01	7805.69
551.18	7637.17
551.34	7772.92
551.51	7927.39
551.68	7995.27
551.84	8049.10
552.01	7936.76
552.18	7791.64
552.34	7765.90
552.51	7557.59
552.68	7440.56
552.84	7672.28
553.01	7885.26
553.18	7765.90
553.34	7719.09
553.51	7749.51
553.67	7878.24
553.84	7978.89
554.01	7765.90
554.17	7789.30
554.34	7578.65
554.51	7784.62
554.67	7887.61
554.84	7978.89
555.00	7819.73
555.17	7976.55
555.33	7868.88
555.50	7651.21
555.67	7660.57
555.83	7566.95
556.00	7513.12
556.16	7754.19
556.33	7559.93
556.50	7463.97
556.66	7513.12
556.83	7300.13
556.99	7300.13
557.16	7337.58
557.32	7604.40
557.49	7726.11
557.65	7407.80
557.82	7449.93
557.98	7524.82
558.15	7328.22
558.32	7262.68
558.48	7218.21
558.65	7002.88
558.81	7164.38
558.98	7133.95
559.14	7253.32
559.31	7276.73
559.47	7293.11
559.64	7204.17
559.80	7206.51
559.97	7201.83
560.13	7183.10
560.30	7398.43
560.46	7501.42
560.63	7627.81
560.79	7686.32
560.96	7463.97
561.12	7447.58
561.29	7276.73
561.45	7140.97
561.61	6986.50
561.78	7435.88
561.94	7274.38
562.11	7269.70
562.27	7126.93
562.44	7384.39
562.60	7241.62
562.77	7321.20
562.93	7599.72
563.10	7351.62
563.26	7211.19
563.42	7218.21
563.59	7138.63
563.75	7304.81
563.92	7136.29
564.08	7037.99
564.24	7272.04
564.41	7297.79
564.57	7194.81
564.74	7066.08
564.90	7159.70
565.07	7201.83
565.23	6998.20
565.39	6890.54
565.56	6782.87
565.72	6684.57
565.88	6717.34
566.05	6911.60
566.21	6792.23
566.38	7016.93
566.54	6806.28
566.70	7136.29
566.87	7208.85
567.03	7133.95
567.19	7199.49
567.36	7094.16
567.52	7056.72
567.68	6839.05
567.85	6874.15
568.01	6537.12
568.17	6523.07
568.34	6649.46
568.50	6450.52
568.66	6518.39
568.83	6684.57
568.99	6668.19
569.15	6600.31
569.32	6464.56
569.48	6668.19
569.64	6764.15
569.81	6572.22
569.97	6637.76
570.13	6747.76
570.30	6469.24
570.46	6504.35
570.62	6466.90
570.78	6441.15
570.95	6279.66
571.11	6424.77
571.27	6392.00
571.43	6506.69
571.60	6658.82
571.76	6499.67
571.92	6675.21
572.09	6661.16
572.25	6670.53
572.41	6518.39
572.57	6661.16
572.74	6504.35
572.90	6459.88
573.06	6712.66
573.22	6579.25
573.38	6768.83
573.55	6607.33
573.71	6745.42
573.87	6775.85
574.03	6466.90
574.20	6602.65
574.36	6300.72
574.52	6361.58
574.68	6373.28
574.84	6370.94
575.01	6279.66
575.17	6394.34
575.33	6368.60
575.49	6370.94
575.65	6354.55
575.82	6485.62
575.98	6462.22
576.14	6408.39
576.30	6272.64
576.46	6513.71
576.62	6499.67
576.79	6502.01
576.95	6640.10
577.11	6314.77
577.27	6464.56
577.43	6450.52
577.59	6282.00
577.75	6193.06
577.92	6125.18
578.08	6061.99
578.24	6141.57
578.40	6326.47
578.56	6427.11
578.72	6352.21
578.88	6410.73
579.04	6420.09
579.21	6342.85
579.37	6363.92
579.53	6382.64
579.69	6394.34
579.85	6331.15
580.01	6572.22
580.17	6396.68
580.33	6279.66
580.49	6319.45
580.65	6502.01
580.82	6490.31
580.98	6424.77
581.14	6469.24
581.30	6471.58
581.46	6356.90
581.62	6328.81
581.78	6328.81
581.94	6497.33
582.10	6347.53
582.26	6630.74
582.42	6326.47
582.58	6443.49
582.74	6338.17
582.90	6555.84
583.06	6478.60
583.22	6303.06
583.38	6319.45
583.54	6382.64
583.70	6473.92
583.86	6312.42
584.02	6209.44
584.18	6375.62
584.34	6403.71
584.50	6394.34
584.66	6289.02
584.82	6181.35
584.98	6307.74
585.14	6272.64
585.30	6019.86
585.46	5921.56
585.62	6024.54
585.78	6003.47
585.94	5975.39
586.10	6059.65
586.26	6008.16
586.42	6094.76
586.58	6059.65
586.74	6195.40
586.90	6127.52
587.06	6136.88
587.22	6169.65
587.38	5849.00
587.54	5928.58
587.70	5893.47
587.86	5497.92
588.02	5575.16
588.18	5430.04
588.34	5172.58
588.49	4887.04
588.65	4479.79
588.81	4542.98
588.97	4741.93
589.13	4610.86
589.29	4470.42
589.45	4477.44
589.61	4535.96
589.77	4901.08
589.93	4990.02
590.08	5142.16
590.24	5118.75
590.40	5195.99
590.56	5259.18
590.72	5289.61
590.88	5231.10
591.04	5291.95
591.20	5191.31
591.35	5057.90
591.51	5107.05
591.67	5041.51
591.83	5004.07
591.99	5184.29
592.15	5055.56
592.31	5273.23
592.46	5331.74
592.62	5504.94
592.78	5362.17
592.94	5458.13
593.10	5434.72
593.26	5465.15
593.41	5638.35
593.57	5401.96
593.73	5205.35
593.89	5097.69
594.05	4990.02
594.20	4805.12
594.36	4711.50
594.52	4802.78
594.68	4889.38
594.84	5057.90
594.99	5074.28
595.15	5205.35
595.31	5303.65
595.47	5231.10
595.62	5219.39
595.78	5214.71
595.94	5315.36
596.10	5357.49
596.25	5357.49
596.41	5416.00
596.57	5088.32
596.73	5184.29
596.88	5366.85
597.04	5301.31
597.20	5294.29
597.36	5268.55
597.51	5310.68
597.67	5320.04
597.83	5217.05
597.99	5373.87
598.14	5207.69
598.30	5268.55
598.46	5320.04
598.61	5195.99
598.77	5231.10
598.93	5397.28
599.09	5423.02
599.24	5366.85
599.40	5444.09
599.56	5362.17
599.71	5406.64
599.87	5472.17
600.03	5380.89
600.18	5383.23
600.34	5565.79
600.50	5289.61
600.65	5315.36
600.81	5500.26
600.97	5359.83
601.12	5411.32
601.28	5462.81
601.44	5427.70
601.59	5469.83
601.75	5210.03
601.91	5366.85
602.06	5418.34
602.22	5345.78
602.37	5355.15
602.53	5533.03
602.69	5507.28
602.84	5469.83
603.00	5504.94
603.16	5467.49
603.31	5465.15
603.47	5661.76
603.62	5490.90
603.78	5404.30
603.94	5385.57
604.09	5446.43
604.25	5558.77
604.40	5516.64
604.56	5401.96
604.71	5509.62
604.87	5434.72
605.03	5406.64
605.18	5308.34
605.34	5289.61
605.49	5294.29
605.65	5497.92
605.80	5247.48
605.96	5348.12
606.12	5228.76
606.27	5322.38
606.43	5416.00
606.58	5383.23
606.74	5383.23
606.89	5392.59
607.05	5369.19
607.20	5448.77
607.36	5308.34
607.51	5280.25
607.67	5123.43
607.82	5303.65
607.98	5280.25
608.13	5261.52
608.29	5214.71
608.44	5224.08
608.60	5242.80
608.75	5123.43
608.91	5357.49
609.06	5266.21
609.22	5191.31
609.37	5217.05
609.53	5289.61
609.68	5212.37
609.84	5310.68
609.99	5102.37
610.15	5195.99
610.30	5219.39
610.46	5481.53
610.61	5579.84
610.76	5802.19
610.92	5984.75
611.07	6059.65
611.23	6054.97
611.38	5846.66
611.54	5806.87
611.69	5568.13
611.84	5556.43
612.00	5284.93
612.15	5284.93
612.31	5331.74
612.46	5062.58
612.62	5446.43
612.77	5181.95
612.92	5287.27
613.08	5184.29
613.23	5055.56
613.39	5013.43
613.54	4945.55
613.69	4835.55
613.85	4926.83
614.00	5022.79
614.15	5004.07
614.31	5034.49
614.46	5198.33
614.62	5074.28
614.77	5071.94
614.92	4954.91
615.08	4931.51
615.23	4873.00
615.38	4929.17
615.54	4791.08
615.69	4821.50
615.84	4795.76
616.00	4561.70
616.15	4568.73
616.30	4650.64
616.46	4657.67
616.61	4624.90
616.76	4767.67
616.92	4634.26
617.07	4688.09
617.22	4732.56
617.37	4737.24
617.53	4718.52
617.68	4772.35
617.83	4748.95
617.99	4765.33
618.14	4917.47
618.29	4847.25
618.45	4681.07
618.60	4725.54
618.75	4720.86
618.90	4505.53
619.06	4514.89
619.21	4692.77
619.36	4734.90
619.51	4652.98
619.67	4643.62
619.82	4699.80
619.97	4638.94
620.12	4695.11
620.28	4833.21
620.43	4702.14
620.58	4667.03
620.73	4798.10
620.89	4690.43
621.04	4542.98
621.19	4568.73
621.34	4608.51
621.49	4505.53
621.65	4362.76
621.80	4500.85
621.95	4582.77
622.10	4564.04
622.25	4624.90
622.41	4603.83
622.56	4414.25
622.71	4468.08
622.86	4383.82
623.01	4470.42
623.16	4388.50
623.32	4414.25
623.47	4337.01
623.62	4271.48
623.77	4376.80
623.92	4437.66
624.07	4423.61
624.23	4395.53
624.38	4285.52
624.53	4353.40
624.68	4287.86
624.83	4353.40
624.98	4294.88
625.13	4142.75
625.29	4201.26
625.44	4236.37
625.59	4285.52
625.74	4175.52
625.89	4250.41
626.04	4217.65
626.19	4264.46
626.34	4241.05
626.49	4283.18
626.65	4212.96
626.80	4095.94
626.95	4184.88
627.10	4262.12
627.25	3997.64
627.40	3845.50
627.55	3796.35
627.70	3768.26
627.85	3726.13
628.00	3712.09
628.15	3772.94
628.30	3812.73
628.45	4072.53
628.60	4100.62
628.76	4098.28
628.91	3939.12
629.06	3974.23
629.21	3939.12
629.36	4046.79
629.51	3882.95
629.66	3810.39
629.81	3808.05
629.96	3840.82
630.11	4039.76
630.26	4077.21
630.41	3983.59
630.56	4053.81
630.71	4023.38
630.86	4014.02
631.01	3875.93
631.16	4067.85
631.31	3784.65
631.46	3801.03
631.61	3712.09
631.76	3775.28
631.91	3815.07
632.06	3782.31
632.21	3934.44
632.36	3880.61
632.51	3964.87
632.66	3908.69
632.81	3857.20
632.96	4021.04
633.10	3871.25
633.25	3889.97
633.40	3880.61
633.55	3763.58
633.70	3829.12
633.85	3754.22
634.00	3777.62
634.15	3733.15
634.30	3875.93
634.45	3889.97
634.60	3871.25
634.75	3838.48
634.90	3850.18
635.05	3974.23
635.19	3864.22
635.34	3836.14
635.49	3836.14
635.64	3777.62
635.79	3747.20
635.94	3595.06
636.09	3742.52
636.24	3751.88
636.39	3620.81
636.53	3672.30
636.68	3779.97
636.83	3803.37
636.98	3875.93
637.13	3859.54
637.28	3817.41
637.43	3845.50
637.57	3674.64
637.72	3686.34
637.87	3517.83
638.02	3522.51
638.17	3796.35
638.32	3829.12
638.46	3737.84
638.61	3730.81
638.76	3794.01
638.91	3796.35
639.06	3693.37
639.20	3492.08
639.35	3789.33
639.50	3604.42
639.65	3613.79
639.80	3566.98
639.94	3445.27
640.09	3637.19
640.24	3641.87
640.39	3672.30
640.54	3644.21
640.68	3564.64
640.83	3562.30
640.98	3389.10
641.13	3585.70
641.27	3590.38
641.42	3538.89
641.57	3611.45
641.72	3503.78
641.86	3527.19
642.01	3529.53
642.16	3524.85
642.31	3566.98
642.45	3730.81
642.60	3550.59
642.75	3613.79
642.90	3672.30
643.04	3499.10
643.19	3461.65
643.34	3555.27
643.48	3466.33
643.63	3569.32
643.78	3459.31
643.93	3569.32
644.07	3494.42
644.22	3559.95
644.37	3564.64
644.51	3534.21
644.66	3473.36
644.81	3496.76
644.95	3463.99
645.10	3433.57
645.25	3330.58
645.39	3403.14
645.54	3288.45
645.69	3176.11
645.83	3229.94
645.98	3204.19
646.13	3164.40
646.27	3169.09
646.42	3045.04
646.57	3164.40
646.71	3173.77
646.86	3129.30
647.00	2911.63
647.15	2986.52
647.30	2841.41
647.44	2928.01
647.59	2918.65
647.74	2913.97
647.88	3012.27
648.03	2935.03
648.17	2951.42
648.32	3045.04
648.47	3056.74
648.61	2993.55
648.76	3157.38
648.90	2841.41
649.05	2864.82
649.20	2930.35
649.34	2810.98
649.49	2871.84
649.63	2942.05
649.78	3033.33
649.92	3124.62
650.07	3110.57
650.21	3150.36
650.36	3286.11
650.51	3208.87
650.65	3267.39
650.80	3218.24
650.94	3021.63
651.09	3145.68
651.23	2972.48
651.38	2841.41
651.52	2710.34
651.67	2703.32
651.81	2768.85
651.96	3000.57
652.10	2836.73
652.25	2972.48
652.39	3131.64
652.54	3192.49
652.68	3152.70
652.83	3164.40
652.97	3091.85
653.12	2909.29
653.26	3016.95
653.41	3009.93
653.55	3133.98
653.70	2944.39
653.84	2984.18
653.99	3066.10
654.13	3014.61
654.27	2942.05
654.42	2841.41
654.56	2897.58
654.71	2874.18
654.85	2848.43
655.00	2935.03
655.14	2738.43
655.29	2818.00
655.43	2703.32
655.57	2705.66
655.72	2630.76
655.86	2487.99
656.01	2235.21
656.15	2157.97
656.30	2298.41
656.44	2359.26
656.58	2502.03
656.73	2583.95
656.87	2700.98
657.01	2738.43
657.16	2834.39
657.30	2792.26
657.45	2836.73
657.59	2850.77
657.73	2918.65
657.88	2906.95
658.02	2930.35
658.16	2869.50
658.31	2857.79
658.45	2904.60
658.60	2871.84
658.74	2960.78
658.88	2960.78
659.03	2925.67
659.17	2904.60
659.31	2813.32
659.46	3005.25
659.60	2965.46
659.74	2923.33
659.89	2995.89
660.03	2916.31
660.17	2904.60
660.32	2918.65
660.46	2909.29
660.60	3026.31
660.74	2881.20
660.89	2963.12
661.03	2946.73
661.17	2906.95
661.32	2888.22
661.46	2885.88
661.60	2972.48
661.74	2974.82
661.89	2932.69
662.03	2942.05
662.17	2874.18
662.31	2972.48
662.46	2881.20
662.60	2853.11
662.74	2939.71
662.88	2857.79
663.03	2843.75
663.17	2822.69
663.31	2708.00
663.45	2815.66
663.60	2869.50
663.74	2745.45
663.88	2862.48
664.02	2761.83
664.17	2836.73
664.31	2822.69
664.45	2794.60
664.59	2888.22
664.73	2708.00
664.88	2726.72
665.02	2855.45
665.16	2700.98
665.30	2792.26
665.44	2782.90
665.59	2785.24
665.73	2848.43
665.87	2747.79
666.01	2724.38
666.15	2715.02
666.29	2691.62
666.44	2747.79
666.58	2722.04
666.72	2904.60
666.86	2693.96
667.00	2736.09
667.14	2766.51
667.28	2626.08
667.43	2649.49
667.57	2708.00
667.71	2658.85
667.85	2750.13
667.99	2792.26
668.13	2705.66
668.27	2686.94
668.41	2649.49
668.56	2733.75
668.70	2722.04
668.84	2700.98
668.98	2679.91
669.12	2710.34
669.26	2686.94
669.40	2609.70
669.54	2628.42
669.68	2614.38
669.82	2555.86
669.96	2532.46
670.10	2473.95
670.25	2504.37
670.39	2546.50
670.53	2483.31
670.67	2541.82
670.81	2457.56
670.95	2485.65
671.09	2518.42
671.23	2619.06
671.37	2590.97
671.51	2485.65
671.65	2485.65
671.79	2434.16
671.93	2399.05
672.07	2497.35
672.21	2340.54
672.35	2399.05
672.49	2466.92
672.63	2333.51
672.77	2436.50
672.91	2476.29
673.05	2370.96
673.19	2408.41
673.33	2366.28
673.47	2497.35
673.61	2361.60
673.75	2429.48
673.89	2434.16
674.03	2462.24
674.17	2399.05
674.31	2443.52
674.45	2345.22
674.59	2417.77
674.73	2359.26
674.87	2333.51
675.01	2427.14
675.15	2387.35
675.29	2448.20
675.43	2441.18
675.56	2354.58
675.70	2349.90
675.84	2401.39
675.98	2319.47
676.12	2258.62
676.26	2279.68
676.40	2303.09
676.54	2385.01
676.68	2310.11
676.82	2202.44
676.96	2263.30
677.10	2279.68
677.23	2284.36
677.37	2200.10
677.51	2284.36
677.65	2363.94
677.79	2258.62
677.93	2258.62
678.07	2202.44
678.21	2214.15
678.34	2057.33
678.48	2132.23
678.62	2134.57
678.76	2169.68
678.90	2232.87
679.04	2179.04
679.18	2036.27
679.31	2183.72
679.45	2066.69
679.59	2078.40
679.73	2214.15
679.87	2036.27
680.00	2057.33
680.14	2127.55
680.28	2157.97
680.42	2047.97
680.56	2036.27
680.70	2019.88
680.83	2057.33
680.97	2129.89
681.11	1970.73
681.25	1987.11
681.39	2040.95
681.52	2054.99
681.66	1980.09
681.80	2111.16
681.94	1923.92
682.07	2010.52
682.21	2050.31
682.35	1923.92
682.49	1991.80
682.62	1935.62
682.76	1989.46
682.90	1930.94
683.04	1902.86
683.17	1935.62
683.31	1930.94
683.45	1914.56
683.59	1879.45
683.72	1842.00
683.86	1916.90
684.00	1802.21
684.13	1790.51
684.27	1795.19
684.41	1804.55
684.55	1811.57
684.68	1902.86
684.82	1867.75
684.96	1785.83
685.09	1914.56
685.23	1771.79
685.37	1858.39
685.50	1785.83
685.64	1764.76
685.78	1832.64
685.91	1762.42
686.05	1713.27
686.19	1858.39
686.32	1699.23
686.46	1605.61
686.60	1439.43
686.73	1392.62
686.87	1177.29
687.01	1067.28
687.14	1060.26
687.28	1123.46
687.42	1205.38
687.55	1135.16
687.69	1299.00
687.82	1366.87
687.96	1308.36
688.10	1474.54
688.23	1551.78
688.37	1493.26
688.50	1284.95
688.64	1411.34
688.78	1348.15
688.91	1322.40
689.05	1299.00
689.18	1231.12
689.32	1196.01
689.46	1268.57
689.59	1280.27
689.73	1327.08
689.86	1263.89
690.00	1348.15
690.13	1315.38
690.27	1221.76
690.41	1341.13
690.54	1401.98
690.68	1334.11
690.81	1348.15
690.95	1352.83
691.08	1425.39
691.22	1329.42
691.35	1352.83
691.49	1315.38
691.62	1331.76
691.76	1376.24
691.89	1378.58
692.03	1320.06
692.16	1287.29
692.30	1242.82
692.43	1256.87
692.57	1221.76
692.70	1235.80
692.84	1116.44
692.97	1100.05
693.11	1188.99
693.24	1160.91
693.38	1135.16
693.51	1242.82
693.65	1221.76
693.78	1041.54
693.92	1102.39
694.05	1081.33
694.19	1111.75
694.32	1046.22
694.45	1032.18
694.59	1158.57
694.72	1104.73
694.86	1055.58
694.99	1078.99
695.13	1172.61
695.26	1132.82
695.39	1146.86
695.53	1142.18
695.66	1160.91
695.80	1139.84
695.93	1060.26
696.07	999.41
696.20	1205.38
696.33	1214.74
696.47	1109.41
696.60	1277.93
696.73	1348.15
696.87	1224.10
697.00	1252.19
697.14	1245.16
697.27	1263.89
697.40	1238.14
697.54	1196.01
697.67	1125.80
697.80	1100.05
697.94	1069.62
698.07	1102.39
698.21	1128.14
698.34	1146.86
698.47	1107.07
698.61	919.83
698.74	1039.20
698.87	1116.44
699.01	933.87
699.14	933.87
699.27	1018.13
699.40	1027.50
699.54	1006.43
699.67	999.41
699.80	943.24
699.94	936.21
700.07	966.64
700.20	950.26
700.34	912.81
700.47	917.49
700.60	990.05
700.73	933.87
700.87	1006.43
701.00	945.58
701.13	1032.18
701.26	973.66
701.40	842.59
701.53	1018.13
701.66	833.23
701.79	990.05
701.93	910.47
702.06	952.60
702.19	957.28
702.32	954.94
702.46	884.72
702.59	816.85
702.72	959.62
702.85	908.13
702.99	938.55
703.12	990.05
703.25	983.02
703.38	851.96
703.51	966.64
703.65	954.94
703.78	931.53
703.91	887.06
704.04	929.19
704.17	905.79
704.31	884.72
704.44	954.94
704.57	910.47
704.70	910.47
704.83	957.28
704.96	901.11
705.10	856.64
705.23	922.17
>>>>>End Processed Spectral Data<<<<<
