SpectraSuite Data File
++++++++++++++++++++++++++++++++++++
Date: Fri Oct 04 11:39:24 GMT-05:00 2013
User: price-jones
Dark Spectrum Present: No
Reference Spectrum Present: No
Number of Sampled Component Spectra: 1
Spectrometers: USB2+H05261
Integration Time (usec): 100000 (USB2+H05261)
Spectra Averaged: 1 (USB2+H05261)
Boxcar Smoothing: 0 (USB2+H05261)
Correct for Electrical Dark: No (USB2+H05261)
Strobe/Lamp Enabled: No (USB2+H05261)
Correct for Detector Non-linearity: No (USB2+H05261)
Correct for Stray Light: No (USB2+H05261)
Number of Pixels in Processed Spectrum: 2048
>>>>>Begin Processed Spectral Data<<<<<
365.73	30.43
365.92	30.43
366.12	30.43
366.32	0.00
366.52	0.00
366.72	0.00
366.91	0.00
367.11	0.00
367.31	0.00
367.51	0.00
367.70	0.00
367.90	0.00
368.10	0.00
368.30	0.00
368.49	0.00
368.69	0.00
368.89	0.00
369.09	0.00
369.28	0.00
369.48	0.00
369.68	0.00
369.87	11.70
370.07	18.72
370.27	9.36
370.47	110.01
370.66	236.39
370.86	194.26
371.06	210.65
371.25	248.10
371.45	365.12
371.65	280.86
371.84	273.84
372.04	327.68
372.24	294.91
372.44	311.29
372.63	308.95
372.83	311.29
373.03	255.12
373.22	299.59
373.42	322.99
373.62	294.91
373.81	259.80
374.01	409.59
374.21	362.78
374.40	372.15
374.60	330.02
374.79	358.10
374.99	360.44
375.19	318.31
375.38	411.93
375.58	386.19
375.78	435.34
375.97	348.74
376.17	435.34
376.37	290.23
376.56	332.36
376.76	386.19
376.95	367.46
377.15	351.08
377.35	390.87
377.54	430.66
377.74	393.21
377.93	360.44
378.13	421.30
378.33	404.91
378.52	435.34
378.72	456.40
378.91	423.64
379.11	360.44
379.31	339.38
379.50	322.99
379.70	337.04
379.89	395.55
380.09	358.10
380.28	362.78
380.48	421.30
380.68	346.40
380.87	414.27
381.07	404.91
381.26	498.53
381.46	383.85
381.65	472.79
381.85	428.32
382.04	449.38
382.24	390.87
382.43	390.87
382.63	425.98
382.83	493.85
383.02	538.32
383.22	521.94
383.41	456.40
383.61	400.23
383.80	449.38
384.00	465.77
384.19	449.38
384.39	400.23
384.58	425.98
384.78	512.58
384.97	465.77
385.17	470.45
385.36	526.62
385.56	482.15
385.75	475.13
385.95	451.72
386.14	517.26
386.34	479.81
386.53	561.73
386.72	468.11
386.92	575.77
387.11	601.52
387.31	479.81
387.50	566.41
387.70	589.82
387.89	601.52
388.09	533.64
388.28	543.00
388.48	575.77
388.67	552.37
388.86	585.13
389.06	568.75
389.25	561.73
389.45	531.30
389.64	554.71
389.84	547.69
390.03	543.00
390.22	575.77
390.42	608.54
390.61	592.16
390.81	519.60
391.00	608.54
391.19	578.11
391.39	521.94
391.58	559.39
391.78	627.26
391.97	636.63
392.16	627.26
392.36	550.03
392.55	631.94
392.75	571.09
392.94	571.09
393.13	720.88
393.33	716.20
393.52	660.03
393.71	702.16
393.91	720.88
394.10	655.35
394.29	634.29
394.49	678.76
394.68	823.87
394.88	650.67
395.07	660.03
395.26	767.70
395.46	744.29
395.65	720.88
395.84	751.31
396.04	866.00
396.23	763.01
396.42	751.31
396.62	851.96
396.81	873.02
397.00	788.76
397.19	812.17
397.39	758.33
397.58	758.33
397.77	861.32
397.97	828.55
398.16	807.48
398.35	856.64
398.55	924.51
398.74	812.17
398.93	858.98
399.12	816.85
399.32	903.45
399.51	791.10
399.70	887.06
399.90	957.28
400.09	1001.75
400.28	1006.43
400.47	976.00
400.67	938.55
400.86	1001.75
401.05	945.58
401.24	1048.56
401.44	1001.75
401.63	994.73
401.82	1011.11
402.01	938.55
402.21	1078.99
402.40	1102.39
402.59	957.28
402.78	968.98
402.97	1093.03
403.17	1097.71
403.36	1100.05
403.55	1114.10
403.74	1111.75
403.93	1224.10
404.13	1193.67
404.32	1181.97
404.51	1165.59
404.70	1268.57
404.89	1174.95
405.09	1296.66
405.28	1226.44
405.47	1235.80
405.66	1198.35
405.85	1214.74
406.05	1224.10
406.24	1371.55
406.43	1329.42
406.62	1378.58
406.81	1390.28
407.00	1404.32
407.20	1362.19
407.39	1392.62
407.58	1404.32
407.77	1411.34
407.96	1490.92
408.15	1453.47
408.34	1434.75
408.54	1462.83
408.73	1448.79
408.92	1376.24
409.11	1521.35
409.30	1530.71
409.49	1514.33
409.68	1579.86
409.87	1579.86
410.07	1526.03
410.26	1680.50
410.45	1666.46
410.64	1636.03
410.83	1600.93
411.02	1687.53
411.21	1713.27
411.40	1802.21
411.59	1816.26
411.78	1839.66
411.98	1760.08
412.17	1746.04
412.36	1937.96
412.55	1916.90
412.74	1877.11
412.93	1909.88
413.12	2092.44
413.31	2050.31
413.50	2052.65
413.69	1930.94
413.88	2057.33
414.07	2113.50
414.26	2078.40
414.45	2167.34
414.64	2134.57
414.83	2193.08
415.02	2083.08
415.22	2265.64
415.41	2310.11
415.60	2197.76
415.79	2289.04
415.98	2310.11
416.17	2354.58
416.36	2380.32
416.55	2349.90
416.74	2326.49
416.93	2420.11
417.12	2452.88
417.31	2609.70
417.50	2450.54
417.69	2581.61
417.88	2551.18
418.07	2558.21
418.26	2635.44
418.45	2593.31
418.64	2708.00
418.83	2679.91
419.02	2569.91
419.21	2593.31
419.39	2616.72
419.58	2644.81
419.77	2630.76
419.96	2881.20
420.15	2867.16
420.34	2799.28
420.53	2808.64
420.72	2850.77
420.91	2860.13
421.10	2892.90
421.29	2867.16
421.48	2855.45
421.67	2951.42
421.86	2913.97
422.05	2911.63
422.24	2801.62
422.43	2913.97
422.61	3009.93
422.80	3002.91
422.99	2937.37
423.18	2974.82
423.37	3206.53
423.56	3014.61
423.75	2925.67
423.94	2920.99
424.13	2759.49
424.32	2871.84
424.50	3145.68
424.69	3150.36
424.88	3213.56
425.07	3052.06
425.26	3026.31
425.45	2904.60
425.64	3105.89
425.83	3000.57
426.01	3208.87
426.20	3133.98
426.39	3094.19
426.58	2974.82
426.77	3143.34
426.96	3087.17
427.15	3110.57
427.33	3234.62
427.52	3087.17
427.71	3110.57
427.90	3218.24
428.09	3356.33
428.28	3283.77
428.46	3325.90
428.65	3276.75
428.84	3396.12
429.03	3473.36
429.22	3323.56
429.40	3438.25
429.59	3513.14
429.78	3267.39
429.97	3204.19
430.16	3300.16
430.34	3478.04
430.53	3524.85
430.72	3389.10
430.91	3473.36
431.10	3503.78
431.28	3538.89
431.47	3665.28
431.66	3775.28
431.85	3447.61
432.03	3676.98
432.22	3712.09
432.41	3623.15
432.60	3613.79
432.79	3667.62
432.97	3716.77
433.16	3700.39
433.35	3815.07
433.54	3765.92
433.72	3772.94
433.91	3730.81
434.10	3611.45
434.28	3688.68
434.47	3864.22
434.66	3918.06
434.85	3906.35
435.03	4023.38
435.22	4117.00
435.41	4344.03
435.59	4400.21
435.78	4212.96
435.97	4100.62
436.16	4142.75
436.34	4070.19
436.53	4009.34
436.72	4049.13
436.90	4114.66
437.09	4203.60
437.28	4154.45
437.46	4128.70
437.65	4067.85
437.84	4187.22
438.02	4215.30
438.21	4327.65
438.40	4201.26
438.58	4315.95
438.77	4198.92
438.96	4360.42
439.14	4496.17
439.33	4423.61
439.52	4557.02
439.70	4402.55
439.89	4542.98
440.08	4681.07
440.26	4456.38
440.45	4542.98
440.63	4692.77
440.82	4662.35
441.01	4580.43
441.19	4849.59
441.38	4861.29
441.57	4713.84
441.75	4819.16
441.94	5060.24
442.12	5057.90
442.31	4898.74
442.50	4994.70
442.68	4917.47
442.87	4870.65
443.05	4873.00
443.24	5224.08
443.43	5188.97
443.61	5132.79
443.80	5085.98
443.98	5093.01
444.17	4767.67
444.35	5212.37
444.54	5214.71
444.73	5308.34
444.91	5184.29
445.10	5315.36
445.28	5235.78
445.47	5212.37
445.65	5334.08
445.84	5268.55
446.02	5200.67
446.21	5116.41
446.39	5102.37
446.58	5254.50
446.77	5184.29
446.95	5233.44
447.14	5287.27
447.32	5172.58
447.51	5294.29
447.69	5336.42
447.88	5296.63
448.06	5207.69
448.25	5273.23
448.43	5320.04
448.62	5352.81
448.80	5252.16
448.99	5441.75
449.17	5385.57
449.36	5399.62
449.54	5518.98
449.73	5472.17
449.91	5486.22
450.10	5535.37
450.28	5523.66
450.46	5518.98
450.65	5813.89
450.83	5696.86
451.02	5584.52
451.20	5746.02
451.39	5809.21
451.57	5734.31
451.76	5549.41
451.94	5617.29
452.13	5799.85
452.31	5753.04
452.49	5631.33
452.68	5748.36
452.86	5853.68
453.05	5893.47
453.23	6008.16
453.42	5872.40
453.60	5994.11
453.78	5863.04
453.97	5849.00
454.15	5872.40
454.34	5844.32
454.52	6040.92
454.70	5944.96
454.89	6115.82
455.07	6157.95
455.26	6127.52
455.44	6097.10
455.62	6059.65
455.81	6040.92
455.99	6239.87
456.17	6349.87
456.36	6200.08
456.54	6274.98
456.73	6452.86
456.91	6483.28
457.09	6300.72
457.28	6630.74
457.46	6434.13
457.64	6457.54
457.83	6630.74
458.01	6317.11
458.19	6408.39
458.38	6544.14
458.56	6661.16
458.74	6590.95
458.93	6574.56
459.11	6651.80
459.29	6590.95
459.48	6551.16
459.66	6766.49
459.84	6820.32
460.03	7021.61
460.21	6771.17
460.39	6787.55
460.57	6761.81
460.76	6839.05
460.94	6909.26
461.12	6974.80
461.31	6906.92
461.49	6839.05
461.67	6841.39
461.85	7208.85
462.04	6991.18
462.22	7382.05
462.40	7124.59
462.59	7119.91
462.77	7040.33
462.95	7082.46
463.13	7157.36
463.32	7197.15
463.50	7412.48
463.68	7276.73
463.86	7351.62
464.05	7241.62
464.23	7307.15
464.41	7421.84
464.59	7222.89
464.78	7470.99
464.96	7595.04
465.14	7346.94
465.32	7368.01
465.50	7330.56
465.69	7712.07
465.87	7339.92
466.05	7651.21
466.23	7492.05
466.41	7466.31
466.60	7934.42
466.78	7463.97
466.96	7620.78
467.14	7632.49
467.32	7538.87
467.51	7824.41
467.69	7531.84
467.87	7796.32
468.05	7658.23
468.23	7573.97
468.41	7630.15
468.60	7686.32
468.78	7941.44
468.96	7466.31
469.14	7941.44
469.32	8030.38
469.50	7742.49
469.69	8154.43
469.87	8114.64
470.05	8025.70
470.23	8091.23
470.41	8177.83
470.59	8245.71
470.77	8124.00
470.95	8088.89
471.14	8238.69
471.32	8159.11
471.50	8456.36
471.68	8287.84
471.86	8271.45
472.04	8430.61
472.22	8538.27
472.40	8358.05
472.58	8545.30
472.77	8716.16
472.95	8564.02
473.13	8730.20
473.31	8774.67
473.49	8681.05
473.67	8947.87
473.85	8711.47
474.03	9102.34
474.21	8823.82
474.39	9015.74
474.57	8959.57
474.75	9085.96
474.93	9060.21
475.12	9270.86
475.30	9242.78
475.48	9137.45
475.66	9289.59
475.84	9240.44
476.02	9341.08
476.20	9455.76
476.38	9771.74
476.56	9816.21
476.74	9804.50
476.92	9724.93
477.10	9614.92
477.28	9994.09
477.46	9731.95
477.64	9966.00
477.82	10080.69
478.00	10361.55
478.18	10403.68
478.36	10223.46
478.54	10494.96
478.72	10560.50
478.90	10721.99
479.08	10621.35
479.26	10796.89
479.44	10916.26
479.62	10963.07
479.80	11005.20
479.98	11122.23
480.16	11386.71
480.34	11335.21
480.52	11379.68
480.70	11569.27
480.88	11260.32
481.06	11391.39
481.24	11400.75
481.41	11576.29
481.59	11723.74
481.77	12149.72
481.95	11978.86
482.13	12145.04
482.31	12011.63
482.49	12362.71
482.67	12271.43
482.85	12463.35
483.03	12753.58
483.21	12732.51
483.39	13006.36
483.57	12681.02
483.74	12945.50
483.92	13085.94
484.10	12858.90
484.28	13359.78
484.46	13530.64
484.64	13743.63
484.82	13329.35
485.00	13767.03
485.18	13748.31
485.35	14195.35
485.53	14108.75
485.71	13961.30
485.89	14427.06
486.07	14417.70
486.25	14621.33
486.43	14361.53
486.61	14665.80
486.78	14679.84
486.96	14871.76
487.14	15220.50
487.32	14960.70
487.50	15138.58
487.68	15264.97
487.85	15480.30
488.03	15772.87
488.21	15798.62
488.39	15712.02
488.57	16027.99
488.75	15917.98
488.92	16203.53
489.10	16409.50
489.28	16325.24
489.46	16524.18
489.64	16779.30
489.81	16936.12
489.99	16922.07
490.17	17202.94
490.35	16968.88
490.53	17387.84
490.70	17474.44
490.88	17104.64
491.06	17469.76
491.24	17799.77
491.41	17694.45
491.59	17783.39
491.77	17659.34
491.95	18314.69
492.13	18244.48
492.30	18115.75
492.48	18302.99
492.66	18040.85
492.84	18298.31
493.01	18913.87
493.19	19147.92
493.37	18993.45
493.54	18836.63
493.72	19250.91
493.90	19082.39
494.08	19412.40
494.25	19726.04
494.43	19805.61
494.61	19777.53
494.79	19791.57
494.96	19723.69
495.14	19971.79
495.32	19852.42
495.49	20116.90
495.67	20620.12
495.85	20379.04
496.02	20285.42
496.20	20489.05
496.38	20577.99
496.55	20830.77
496.73	21231.00
496.91	20854.17
497.09	21214.62
497.26	21738.90
497.44	21209.93
497.62	21656.98
497.79	21708.47
497.97	21724.85
498.14	21799.75
498.32	22225.73
498.50	21853.58
498.67	22295.94
498.85	21961.25
499.03	22221.05
499.20	22087.64
499.38	22246.79
499.56	22499.57
499.73	22588.51
499.91	22562.76
500.08	23229.82
500.26	22581.49
500.44	22602.55
500.61	22930.23
500.79	23208.75
500.97	23157.26
501.14	23737.71
501.32	23639.41
501.49	23295.35
501.67	23468.55
501.84	23632.39
502.02	23379.61
502.20	24095.82
502.37	24254.97
502.55	23852.40
502.72	24091.13
502.90	24123.90
503.07	23861.76
503.25	24257.31
503.43	24402.43
503.60	24381.36
503.78	24673.93
503.95	24734.78
504.13	24697.33
504.30	24837.76
504.48	25142.03
504.65	24690.31
504.83	25406.52
505.01	25472.05
505.18	25219.27
505.36	25659.29
505.53	25146.72
505.71	25195.87
505.88	25289.49
506.06	25268.42
506.23	25331.62
506.41	25528.22
506.58	25832.49
506.76	25865.26
506.93	25635.89
507.11	25797.38
507.28	26118.04
507.46	26188.25
507.63	26038.46
507.81	26096.97
507.98	26602.53
508.16	26239.75
508.33	26244.43
508.50	26761.69
508.68	26656.36
508.85	26738.28
509.03	26679.77
509.20	27049.57
509.38	27405.33
509.55	27325.75
509.73	27239.15
509.90	27379.59
510.08	27461.51
510.25	27428.74
510.42	27520.02
510.60	27931.95
510.77	28236.22
510.95	27833.65
511.12	27695.56
511.30	28086.43
511.47	27938.97
511.64	27875.78
511.82	28229.20
511.99	28510.07
512.17	28706.67
512.34	28205.80
512.51	28322.82
512.69	28594.32
512.86	28135.58
513.04	28797.95
513.21	29156.05
513.38	28877.53
513.56	29385.43
513.73	28903.28
513.90	28996.90
514.08	29029.66
514.25	29319.89
514.43	29149.03
514.60	29102.22
514.77	29420.53
514.95	29514.16
515.12	29254.36
515.29	29387.77
515.47	29907.37
515.64	29628.84
515.81	29858.21
515.99	30260.79
516.16	30136.74
516.33	30455.05
516.51	29937.79
516.68	30050.14
516.85	30096.95
517.03	30176.53
517.20	30349.73
517.37	30672.72
517.54	30663.36
517.72	30679.74
517.89	30899.75
518.06	30806.13
518.24	30731.23
518.41	30288.87
518.58	30831.88
518.75	31014.44
518.93	31159.55
519.10	31630.00
519.27	31477.86
519.45	30932.52
519.62	31115.08
519.79	31056.57
519.96	31381.90
520.14	31728.30
520.31	31576.17
520.48	32058.32
520.65	31648.72
520.83	31709.58
521.00	31749.37
521.17	32170.66
521.34	31941.29
521.52	32018.53
521.69	32156.62
521.86	32374.29
522.03	32446.85
522.20	32788.56
522.38	32493.66
522.55	32400.04
522.72	32556.85
522.89	32973.47
523.07	32893.89
523.24	32786.22
523.41	32886.87
523.58	32638.77
523.75	33020.28
523.92	32858.78
524.10	33151.35
524.27	33282.42
524.44	33099.86
524.61	33354.97
524.78	33408.81
524.96	33476.68
525.13	33560.94
525.30	33486.04
525.47	34043.09
525.64	33610.09
525.81	33940.11
525.98	34345.02
526.16	33631.16
526.33	34202.25
526.50	34064.16
526.67	33680.31
526.84	33647.54
527.01	33825.42
527.18	34007.98
527.36	34375.45
527.53	34469.07
527.70	34611.84
527.87	34567.37
528.04	34270.12
528.21	34586.10
528.38	34567.37
528.55	34895.05
528.72	34728.87
528.89	34656.31
529.07	35051.86
529.24	34803.77
529.41	34398.85
529.58	34967.60
529.75	35054.20
529.92	34918.45
530.09	35196.98
530.26	35271.87
530.43	35225.06
530.60	35154.85
530.77	34913.77
530.94	35536.35
531.11	35056.54
531.28	35262.51
531.46	35611.25
531.63	35330.39
531.80	35648.70
531.97	35775.09
532.14	35807.86
532.31	35775.09
532.48	35711.89
532.65	35861.69
532.82	35906.16
532.99	35725.94
533.16	35929.56
533.33	35920.20
533.50	36395.33
533.67	35997.44
533.84	35489.54
534.01	35910.84
534.18	35833.60
534.35	36229.15
534.52	35950.63
534.69	36172.98
534.86	36594.28
535.03	36378.95
535.20	36760.45
535.37	36540.44
535.54	36734.71
535.71	36378.95
535.88	36961.74
536.05	36613.00
536.22	37092.81
536.38	37397.08
536.55	37418.14
536.72	37062.38
536.89	36535.76
537.06	36655.13
537.23	37139.62
537.40	37017.91
537.57	37163.03
537.74	36608.32
537.91	37633.47
538.08	37483.68
538.25	37394.74
538.42	37179.41
538.59	37696.67
538.75	36980.46
538.92	37511.77
539.09	37766.88
539.26	37315.16
539.43	37827.74
539.60	37951.79
539.77	38014.98
539.94	38347.34
540.11	38080.52
540.28	38043.07
540.44	38026.68
540.61	38110.94
540.78	38085.20
540.95	38314.57
541.12	38419.89
541.29	38419.89
541.46	38246.69
541.62	38455.00
541.79	38548.62
541.96	38408.19
542.13	38342.66
542.30	38637.56
542.47	38555.64
542.63	39147.80
542.80	39232.06
542.97	39484.84
543.14	39414.62
543.31	39089.29
543.48	39105.67
543.64	39459.09
543.81	39737.62
543.98	39164.18
544.15	39281.21
544.32	39681.44
544.48	39908.47
544.65	39636.97
544.82	39662.72
544.99	39482.50
545.16	39880.39
545.32	39391.22
545.49	40355.52
545.66	40868.09
545.83	41008.53
546.00	40678.51
546.16	40329.77
546.33	39533.99
546.50	39646.33
546.67	39814.85
546.83	39189.93
547.00	40123.80
547.17	39613.57
547.34	39789.11
547.50	40093.38
547.67	40343.81
547.84	40332.11
548.00	40250.19
548.17	40257.21
548.34	40170.61
548.51	40318.07
548.67	40357.86
548.84	40458.50
549.01	40212.74
549.18	40608.29
549.34	40126.14
549.51	40500.63
549.68	40039.54
549.84	39887.41
550.01	40547.44
550.18	40517.01
550.34	40371.90
550.51	40821.28
550.68	40657.45
550.84	40655.11
551.01	40739.36
551.18	40219.77
551.34	40348.50
551.51	40678.51
551.68	40886.82
551.84	40835.33
552.01	40779.15
552.18	40788.52
552.34	40823.62
552.51	41148.96
552.68	40697.24
552.84	40884.48
553.01	40856.39
553.18	40608.29
553.34	41258.96
553.51	40416.37
553.67	41001.50
553.84	41605.36
554.01	41743.45
554.17	40840.01
554.34	41167.68
554.51	41397.06
554.67	41280.03
554.84	41284.71
555.00	41329.18
555.17	41268.33
555.33	41331.52
555.50	41104.49
555.67	41385.35
555.83	41600.68
556.00	41198.11
556.16	41624.09
556.33	41146.62
556.50	41394.71
556.66	41551.53
556.83	41509.40
556.99	41841.76
557.16	41551.53
557.32	41715.37
557.49	41804.31
557.65	41500.04
557.82	41626.43
557.98	41638.13
558.15	41446.21
558.32	41933.04
558.48	41879.21
558.65	42153.05
558.81	41991.55
558.98	42054.75
559.14	42148.37
559.31	41998.57
559.47	41780.90
559.64	41834.74
559.80	41951.76
559.97	41867.50
560.13	41776.22
560.30	41933.04
560.46	41879.21
560.63	41947.08
560.79	41935.38
560.96	42066.45
561.12	42256.03
561.29	42045.38
561.45	42241.99
561.61	42363.70
561.78	42356.67
561.94	42279.44
562.11	42504.13
562.27	42204.54
562.44	42471.36
562.60	41808.99
562.77	42473.70
562.93	42249.01
563.10	42426.89
563.26	42251.35
563.42	42628.18
563.59	42398.80
563.75	42307.52
563.92	42679.67
564.08	42330.93
564.24	42656.26
564.41	42157.73
564.57	42307.52
564.74	42628.18
564.90	42731.16
565.07	42309.86
565.23	42646.90
565.39	42621.16
565.56	42777.97
565.72	42155.39
565.88	42068.79
566.05	42302.84
566.21	42113.26
566.38	42424.55
566.54	42490.09
566.70	43421.62
566.87	42974.58
567.03	42653.92
567.19	42951.17
567.36	42527.53
567.52	42850.53
567.68	42539.24
567.85	42494.77
568.01	42124.96
568.17	43271.82
568.34	42796.70
568.50	42801.38
568.66	42660.94
568.83	42850.53
568.99	42454.98
569.15	42836.48
569.32	42946.49
569.48	42321.57
569.64	42803.72
569.81	42593.07
569.97	42714.78
570.13	42745.20
570.30	42604.77
570.46	42714.78
570.62	42946.49
570.78	42719.46
570.95	42494.77
571.11	42747.54
571.27	42820.10
571.43	42607.11
571.60	42642.22
571.76	43028.41
571.92	42939.47
572.09	43189.91
572.25	43044.79
572.41	43262.46
572.57	42836.48
572.74	43079.90
572.90	43166.50
573.06	42637.54
573.22	43194.59
573.38	42930.11
573.55	43178.20
573.71	43241.40
573.87	43552.69
574.03	43386.51
574.20	42665.63
574.36	42595.41
574.52	43189.91
574.68	42366.04
574.84	43136.07
575.01	42944.15
575.17	42937.13
575.33	42876.27
575.49	42899.68
575.65	43203.95
575.82	42876.27
575.98	42625.84
576.14	43035.43
576.30	43346.72
576.46	43323.32
576.62	43222.67
576.79	43337.36
576.95	43166.50
577.11	43494.18
577.27	43051.81
577.43	42897.34
577.59	43304.59
577.75	43243.74
577.92	43051.81
578.08	42885.64
578.24	43007.34
578.40	43269.48
578.56	42768.61
578.72	43100.97
578.88	43379.49
579.04	43426.30
579.21	42859.89
579.37	43501.20
579.53	43082.24
579.69	42752.23
579.85	43304.59
580.01	43416.94
580.17	42976.92
580.33	43161.82
580.49	43295.23
580.65	43152.46
580.82	43110.33
580.98	43374.81
581.14	43260.12
581.30	43014.37
581.46	42866.91
581.62	43295.23
581.78	42869.25
581.94	43498.86
582.10	43157.14
582.26	43592.48
582.42	43241.40
582.58	43449.70
582.74	43658.01
582.90	43789.08
583.06	43365.45
583.22	43168.84
583.38	43690.78
583.54	43562.05
583.70	42810.74
583.86	43587.80
584.02	43395.87
584.18	43339.70
584.34	43414.60
584.50	43414.60
584.66	43569.07
584.82	43192.25
584.98	43295.23
585.14	43388.85
585.30	43063.52
585.46	43159.48
585.62	43084.58
585.78	43548.01
585.94	42965.21
586.10	43407.58
586.26	43880.36
586.42	43529.28
586.58	43545.67
586.74	43505.88
586.90	43480.13
587.06	42939.47
587.22	43475.45
587.38	42906.70
587.54	43358.42
587.70	43540.99
587.86	43428.64
588.02	43278.85
588.18	43629.93
588.34	43576.09
588.49	43552.69
588.65	43178.20
588.81	43562.05
588.97	43423.96
589.13	43519.92
589.29	43239.06
589.45	43632.27
589.61	43545.67
589.77	44023.14
589.93	43810.15
590.08	44004.41
590.24	43999.73
590.40	43578.43
590.56	43936.54
590.72	43807.81
590.88	43758.66
591.04	43320.98
591.20	43646.31
591.35	43749.29
591.51	44147.18
591.67	43889.73
591.83	43761.00
591.99	43838.23
592.15	43833.55
592.31	43636.95
592.46	43592.48
592.62	43697.80
592.78	43770.36
592.94	43494.18
593.10	43335.02
593.26	44196.34
593.41	43615.88
593.57	44374.22
593.73	44121.44
593.89	43819.51
594.05	43798.44
594.20	43805.47
594.36	43543.33
594.52	43810.15
594.68	43791.42
594.84	43672.06
594.99	43608.86
595.15	43824.19
595.31	43920.15
595.47	43707.16
595.62	44308.68
595.78	43910.79
595.94	43739.93
596.10	43849.94
596.25	43700.14
596.41	43576.09
596.57	43693.12
596.73	44198.68
596.88	43714.19
597.04	43803.13
597.20	43955.26
597.36	43866.32
597.51	43990.37
597.67	43880.36
597.83	43803.13
597.99	44140.16
598.14	43962.28
598.30	43950.58
598.46	43894.41
598.61	44069.95
598.77	43779.72
598.93	43828.87
599.09	43871.00
599.24	44514.65
599.40	44163.57
599.56	43803.13
599.71	44030.16
599.87	43917.81
600.03	44069.95
600.18	44091.01
600.34	44121.44
600.50	43742.27
600.65	43770.36
600.81	44217.40
600.97	44142.50
601.12	44067.61
601.28	44039.52
601.44	43978.67
601.59	44060.58
601.75	43526.94
601.91	43920.15
602.06	43625.25
602.22	43632.27
602.37	43658.01
602.53	43927.17
602.69	43543.33
602.84	44114.42
603.00	44032.50
603.16	43929.51
603.31	43863.98
603.47	43880.36
603.62	43667.37
603.78	43990.37
603.94	43632.27
604.09	43800.79
604.25	43885.04
604.40	43735.25
604.56	43812.49
604.71	43650.99
604.87	44208.04
605.03	43447.36
605.18	43697.80
605.34	44060.58
605.49	43515.24
605.65	43679.08
605.80	43386.51
605.96	43367.79
606.12	43721.21
606.27	43929.51
606.43	43737.59
606.58	43721.21
606.74	43793.76
606.89	44030.16
607.05	43377.15
607.20	43763.34
607.36	43365.45
607.51	43356.08
607.67	43367.79
607.82	43360.76
607.98	43585.46
608.13	43529.28
608.29	43732.91
608.44	43697.80
608.60	43555.03
608.75	43868.66
608.91	43559.71
609.06	43793.76
609.22	43765.68
609.37	43096.28
609.53	43491.83
609.68	43650.99
609.84	43365.45
609.99	43278.85
610.15	43545.67
610.30	43826.53
610.46	43899.09
610.61	44086.33
610.76	44383.58
610.92	44538.05
611.07	44259.53
611.23	44147.18
611.38	44502.95
611.54	44493.58
611.69	43969.30
611.84	43622.90
612.00	43433.32
612.15	43529.28
612.31	43313.95
612.46	43463.75
612.62	43608.86
612.77	43550.35
612.92	43620.56
613.08	43255.44
613.23	43402.89
613.39	43227.35
613.54	42728.82
613.69	42733.50
613.85	42993.30
614.00	43374.81
614.15	43405.23
614.31	43295.23
614.46	42838.83
614.62	42967.55
614.77	42871.59
614.92	43283.53
615.08	43119.69
615.23	43262.46
615.38	43332.68
615.54	42667.97
615.69	42206.88
615.84	42483.06
616.00	42656.26
616.15	42667.97
616.30	42684.35
616.46	42548.60
616.61	42394.12
616.76	42953.51
616.92	42829.46
617.07	42604.77
617.22	42789.67
617.37	42232.63
617.53	42054.75
617.68	42300.50
617.83	41860.48
617.99	42253.69
618.14	42487.74
618.29	42036.02
618.45	42080.49
618.60	42260.71
618.75	42586.05
618.90	42302.84
619.06	42581.37
619.21	42059.43
619.36	42417.53
619.51	41986.87
619.67	41783.24
619.82	41918.99
619.97	41975.17
620.12	42529.87
620.28	41579.62
620.43	42157.73
620.58	42319.23
620.73	42307.52
620.89	42344.97
621.04	42211.56
621.19	42178.79
621.34	42408.17
621.49	41844.10
621.65	41918.99
621.80	41790.27
621.95	41783.24
622.10	41886.23
622.25	41514.08
622.41	41706.01
622.56	41425.14
622.71	42347.31
622.86	42050.06
623.01	41617.07
623.16	41635.79
623.32	41375.99
623.47	41937.72
623.62	41666.22
623.77	41305.77
623.92	41312.80
624.07	41404.08
624.23	41020.23
624.38	41378.33
624.53	41464.93
624.68	41670.90
624.83	41469.61
624.98	41776.22
625.13	41331.52
625.29	41373.65
625.44	41319.82
625.59	40919.59
625.74	40982.78
625.89	40727.66
626.04	40589.57
626.19	40900.86
626.34	41193.43
626.49	41020.23
626.65	41048.32
626.80	40959.38
626.95	41212.15
627.10	40980.44
627.25	40992.14
627.40	40797.88
627.55	40835.33
627.70	40664.47
627.85	40730.00
628.00	40608.29
628.15	40533.40
628.30	40521.69
628.45	40627.02
628.60	40800.22
628.76	41081.08
628.91	41125.55
629.06	40818.94
629.21	40650.42
629.36	40540.42
629.51	40002.10
629.66	40591.91
629.81	40098.06
629.96	39978.69
630.11	40275.94
630.26	40718.30
630.41	40549.78
630.56	40362.54
630.71	40802.56
630.86	40594.25
631.01	40531.06
631.16	40041.88
631.31	40374.24
631.46	40123.80
631.61	40514.67
631.76	40561.48
631.91	40105.08
632.06	40275.94
632.21	39798.47
632.36	39482.50
632.51	39400.58
632.66	40062.95
632.81	39634.63
632.96	39971.67
633.10	40081.67
633.25	39992.73
633.40	40032.52
633.55	40208.06
633.70	39510.58
633.85	39777.40
634.00	39566.76
634.15	39344.41
634.30	39351.43
634.45	39718.89
634.60	39749.32
634.75	39732.93
634.90	39632.29
635.05	39742.30
635.19	39854.64
635.34	40041.88
635.49	39667.40
635.64	39562.08
635.79	39695.49
635.94	39126.74
636.09	39658.04
636.24	39676.76
636.39	39030.77
636.53	39360.79
636.68	39449.73
636.83	39306.96
636.98	39627.61
637.13	39318.66
637.28	39533.99
637.43	39299.94
637.57	39503.56
637.72	39253.12
637.87	39035.45
638.02	39145.46
638.17	39040.14
638.32	39246.10
638.46	38511.17
638.61	38969.92
638.76	38778.00
638.91	38623.52
639.06	39480.16
639.20	38941.83
639.35	39222.70
639.50	38951.20
639.65	39110.35
639.80	39468.45
639.94	38450.32
640.09	38862.26
640.24	38792.04
640.39	38897.36
640.54	38689.06
640.68	38597.77
640.83	38838.85
640.98	38342.66
641.13	38335.63
641.27	38864.60
641.42	38888.00
641.57	38567.35
641.72	38951.20
641.86	38600.12
642.01	38113.28
642.16	38520.54
642.31	38373.08
642.45	38426.92
642.60	38113.28
642.75	38169.46
642.90	38003.28
643.04	38153.07
643.19	38029.02
643.34	38436.28
643.48	38345.00
643.63	38302.87
643.78	38230.31
643.93	38529.90
644.07	38440.96
644.22	38181.16
644.37	38298.19
644.51	38286.48
644.66	38139.03
644.81	38429.26
644.95	37874.55
645.10	38256.06
645.25	38113.28
645.39	38204.56
645.54	37661.56
645.69	37883.91
645.83	37656.88
645.98	37991.58
646.13	37797.31
646.27	37867.53
646.42	37933.06
646.57	38068.81
646.71	37724.75
646.86	38019.66
647.00	37631.13
647.15	37659.22
647.30	37687.31
647.44	37778.59
647.59	38141.37
647.74	37544.53
647.88	37816.04
648.03	38169.46
648.17	38085.20
648.32	37713.05
648.47	37963.49
648.61	37691.99
648.76	37443.89
648.90	37380.70
649.05	37390.06
649.20	37523.47
649.34	37607.73
649.49	37574.96
649.63	37151.32
649.78	37598.37
649.92	37092.81
650.07	37413.46
650.21	37919.02
650.36	37729.44
650.51	37479.00
650.65	37619.43
650.80	37256.65
650.94	37256.65
651.09	37237.92
651.23	37233.24
651.38	36748.75
651.52	36987.49
651.67	36961.74
651.81	36879.82
651.96	36638.75
652.10	37123.24
652.25	36711.30
652.39	37214.52
652.54	36704.28
652.68	37268.35
652.83	37134.94
652.97	37160.69
653.12	36870.46
653.26	37151.32
653.41	36818.97
653.55	36914.93
653.70	36416.40
653.84	36720.66
653.99	36903.23
654.13	36734.71
654.27	36449.16
654.42	36587.25
654.56	36987.49
654.71	36678.54
654.85	36554.49
655.00	36931.31
655.14	36224.47
655.29	36371.92
655.43	36570.87
655.57	36484.27
655.72	36079.36
655.86	35889.77
656.01	35985.74
656.15	35585.50
656.30	35988.08
656.44	36395.33
656.58	36182.34
656.73	36414.05
656.87	36070.00
657.01	36313.41
657.16	36142.55
657.30	36477.25
657.45	36107.44
657.59	36254.90
657.73	36112.13
657.88	36067.66
658.02	35782.11
658.16	36055.95
658.31	36023.19
658.45	36107.44
658.60	35587.85
658.74	35707.21
658.88	35618.27
659.03	35306.98
659.17	35838.28
659.31	35473.16
659.46	35931.90
659.60	35686.15
659.74	36067.66
659.89	35660.40
660.03	35718.92
660.17	35784.45
660.32	35276.55
660.46	35548.06
660.60	35288.26
660.74	35208.68
660.89	35309.32
661.03	35424.01
661.17	34838.87
661.32	34988.67
661.46	35192.30
661.60	35377.20
661.74	35218.04
661.89	35147.82
662.03	35180.59
662.17	35028.46
662.31	35171.23
662.46	34906.75
662.60	34513.54
662.74	34602.48
662.88	34270.12
663.03	34338.00
663.17	34242.04
663.31	34375.45
663.45	34293.53
663.60	34508.86
663.74	34178.84
663.88	34464.39
664.02	34679.72
664.17	34691.42
664.31	34429.28
664.45	33752.87
664.59	33961.17
664.73	33867.55
664.88	33577.33
665.02	33514.13
665.16	34012.66
665.30	33876.91
665.44	33392.42
665.59	33453.28
665.73	33567.96
665.87	33127.94
666.01	33661.58
666.15	33919.04
666.29	33584.35
666.44	33577.33
666.58	33296.46
666.72	33137.30
666.86	33560.94
667.00	33731.80
667.14	32723.03
667.28	33036.66
667.43	33046.02
667.57	33418.17
667.71	32793.25
667.85	33195.82
667.99	32734.73
668.13	32861.12
668.27	32673.88
668.41	33095.18
668.56	32435.14
668.70	32680.90
668.84	32861.12
668.98	32627.07
669.12	32613.02
669.26	32704.31
669.40	32411.74
669.54	32573.24
669.68	32907.93
669.82	32617.71
669.96	32250.24
670.10	31711.92
670.25	31941.29
670.39	32173.00
670.53	31936.61
670.67	31751.71
670.81	32100.45
670.95	32283.01
671.09	31814.90
671.23	31704.90
671.37	32245.56
671.51	31908.52
671.65	31894.48
671.79	31732.98
671.93	31304.67
672.07	31749.37
672.21	31136.15
672.35	31536.38
672.49	31021.46
672.63	31360.84
672.77	31257.85
672.91	31089.34
673.05	31208.70
673.19	31285.94
673.33	30976.99
673.47	31108.06
673.61	31466.16
673.75	31166.57
673.89	30939.54
674.03	31079.97
674.17	30848.26
674.31	30412.92
674.45	30192.91
674.59	30824.86
674.73	30616.55
674.87	30092.27
675.01	29989.28
675.15	29951.84
675.29	30178.87
675.43	30099.29
675.56	29818.42
675.70	30237.38
675.84	30115.67
675.98	29160.73
676.12	30057.16
676.26	29802.04
676.40	29862.90
676.54	29439.26
676.68	29600.76
676.82	29036.69
676.96	29734.17
677.10	29179.46
677.23	28889.23
677.37	28840.08
677.51	28744.12
677.65	29116.26
677.79	28856.46
677.93	28851.78
678.07	28547.51
678.21	28795.61
678.34	28624.75
678.48	28676.24
678.62	28217.50
678.76	28343.89
678.90	28107.49
679.04	28217.50
679.18	27854.72
679.31	27463.85
679.45	27646.41
679.59	27515.34
679.73	27424.06
679.87	27477.89
680.00	27576.19
680.14	27049.57
680.28	27356.18
680.42	27456.82
680.56	27267.24
680.70	27026.17
680.83	26918.50
680.97	27271.92
681.11	27194.68
681.25	26890.41
681.39	26768.71
681.52	26604.87
681.66	26806.16
681.80	26426.99
681.94	26536.99
682.07	26476.14
682.21	26122.72
682.35	25811.43
682.49	25816.11
682.62	25914.41
682.76	25759.94
682.90	25930.80
683.04	26001.01
683.17	25748.23
683.31	25671.00
683.45	25750.57
683.59	25558.65
683.72	25549.29
683.86	25415.88
684.00	25404.17
684.13	25238.00
684.27	25216.93
684.41	24957.13
684.55	24620.10
684.68	24634.14
684.82	24474.98
684.96	24659.88
685.09	24697.33
685.23	24194.12
685.37	24290.08
685.50	24634.14
685.64	24584.99
685.78	24247.95
685.91	24414.13
686.05	24446.90
686.19	23758.78
686.32	23871.12
686.46	23885.17
686.60	23939.00
686.73	23817.29
686.87	23946.02
687.01	23304.71
687.14	23585.58
687.28	23700.26
687.42	23461.53
687.55	22794.48
687.69	23236.84
687.82	22885.76
687.96	22955.97
688.10	23065.98
688.23	23140.88
688.37	22768.73
688.50	23101.09
688.64	22649.36
688.78	22630.64
688.91	22415.31
689.05	22469.14
689.18	22354.46
689.32	21923.80
689.46	22347.44
689.59	21703.79
689.73	21708.47
689.86	21869.97
690.00	21998.70
690.13	21937.84
690.27	21488.46
690.41	21607.83
690.54	21436.97
690.68	21507.18
690.81	21329.30
690.95	21589.10
691.08	21298.88
691.22	21090.57
691.35	21067.16
691.49	21064.82
691.62	21043.76
691.76	20760.55
691.89	20816.72
692.03	20149.67
692.16	20119.24
692.30	20547.56
692.43	20252.66
692.57	20437.56
692.70	20327.55
692.84	20395.43
692.97	20168.40
693.11	20484.37
693.24	20072.43
693.38	19646.46
693.51	20002.22
693.65	19896.89
693.78	19768.16
693.92	19793.91
694.05	19742.42
694.19	19548.15
694.32	19704.97
694.45	19438.15
694.59	19136.22
694.72	19087.07
694.86	19215.80
694.99	18759.39
695.13	18705.56
695.26	18698.54
695.39	19019.19
695.53	18733.65
695.66	18927.91
695.80	18448.10
695.93	18817.91
696.07	18408.31
696.20	18747.69
696.33	18272.56
696.47	18352.14
696.60	18349.80
696.73	17860.63
696.87	17996.38
697.00	17830.20
697.14	17738.92
697.27	17436.99
697.40	17694.45
697.54	17778.71
697.67	17425.29
697.80	17476.78
697.94	17369.12
698.07	17205.28
698.21	17263.79
698.34	17174.85
698.47	17128.04
698.61	17020.38
698.74	17282.52
698.87	17188.89
699.01	16842.50
699.14	16936.12
699.27	16521.84
699.40	16636.53
699.54	16533.54
699.67	16226.93
699.80	16208.21
699.94	16346.30
700.07	16086.50
700.20	15908.62
700.34	15798.62
700.47	15932.03
700.60	15948.41
700.73	16035.01
700.87	16135.65
701.00	15557.54
701.13	15704.99
701.26	15721.38
701.40	15744.78
701.53	15452.22
701.66	15445.20
701.79	15410.09
701.93	15632.44
702.06	15286.04
702.19	15269.66
702.32	15363.28
702.46	14939.64
702.59	14562.81
702.72	14956.02
702.85	14820.27
702.99	14965.39
703.12	14705.59
703.25	14633.03
703.38	14520.68
703.51	14623.67
703.65	14766.44
703.78	14567.49
703.91	14431.74
704.04	14464.51
704.17	14513.66
704.31	14417.70
704.44	14295.99
704.57	13895.76
704.70	13954.27
704.83	13874.70
704.96	13855.97
705.10	13680.43
705.23	13764.69
>>>>>End Processed Spectral Data<<<<<
