SpectraSuite Data File
++++++++++++++++++++++++++++++++++++
Date: Fri Oct 04 11:40:07 GMT-05:00 2013
User: price-jones
Dark Spectrum Present: No
Reference Spectrum Present: No
Number of Sampled Component Spectra: 1
Spectrometers: USB2+H05261
Integration Time (usec): 100000 (USB2+H05261)
Spectra Averaged: 1 (USB2+H05261)
Boxcar Smoothing: 0 (USB2+H05261)
Correct for Electrical Dark: No (USB2+H05261)
Strobe/Lamp Enabled: No (USB2+H05261)
Correct for Detector Non-linearity: No (USB2+H05261)
Correct for Stray Light: No (USB2+H05261)
Number of Pixels in Processed Spectrum: 2048
>>>>>Begin Processed Spectral Data<<<<<
365.73	44.47
365.92	44.47
366.12	44.47
366.32	0.00
366.52	0.00
366.72	0.00
366.91	0.00
367.11	0.00
367.31	0.00
367.51	0.00
367.70	0.00
367.90	0.00
368.10	14.04
368.30	0.00
368.49	0.00
368.69	0.00
368.89	0.00
369.09	0.00
369.28	0.00
369.48	7.02
369.68	16.38
369.87	0.00
370.07	58.51
370.27	37.45
370.47	11.70
370.66	0.00
370.86	98.30
371.06	159.16
371.25	149.79
371.45	110.01
371.65	110.01
371.84	86.60
372.04	42.13
372.24	124.05
372.44	37.45
372.63	135.75
372.83	166.18
373.03	95.96
373.22	49.15
373.42	205.97
373.62	124.05
373.81	93.62
374.01	107.66
374.21	58.51
374.40	105.32
374.60	159.16
374.79	133.41
374.99	175.54
375.19	100.64
375.38	177.88
375.58	114.69
375.78	173.20
375.97	131.07
376.17	177.88
376.37	140.43
376.56	79.58
376.76	70.22
376.95	180.22
377.15	201.29
377.35	79.58
377.54	102.98
377.74	119.37
377.93	9.36
378.13	88.94
378.33	177.88
378.52	105.32
378.72	107.66
378.91	114.69
379.11	126.39
379.31	138.09
379.50	67.88
379.70	126.39
379.89	138.09
380.09	91.28
380.28	46.81
380.48	53.83
380.68	149.79
380.87	60.85
381.07	152.13
381.26	163.84
381.46	177.88
381.65	102.98
381.85	119.37
382.04	93.62
382.24	98.30
382.43	112.35
382.63	121.71
382.83	107.66
383.02	161.50
383.22	110.01
383.41	91.28
383.61	121.71
383.80	131.07
384.00	93.62
384.19	81.92
384.39	107.66
384.58	81.92
384.78	145.11
384.97	128.73
385.17	140.43
385.36	91.28
385.56	170.86
385.75	93.62
385.95	117.03
386.14	168.52
386.34	131.07
386.53	128.73
386.72	74.90
386.92	126.39
387.11	121.71
387.31	110.01
387.50	105.32
387.70	100.64
387.89	126.39
388.09	119.37
388.28	77.24
388.48	114.69
388.67	138.09
388.86	175.54
389.06	126.39
389.25	191.92
389.45	205.97
389.64	105.32
389.84	170.86
390.03	163.84
390.22	161.50
390.42	124.05
390.61	128.73
390.81	105.32
391.00	135.75
391.19	135.75
391.39	98.30
391.58	145.11
391.78	156.82
391.97	86.60
392.16	86.60
392.36	152.13
392.55	163.84
392.75	142.77
392.94	126.39
393.13	126.39
393.33	65.54
393.52	51.49
393.71	166.18
393.91	105.32
394.10	100.64
394.29	102.98
394.49	91.28
394.68	133.41
394.88	128.73
395.07	133.41
395.26	102.98
395.46	37.45
395.65	121.71
395.84	121.71
396.04	194.26
396.23	119.37
396.42	65.54
396.62	205.97
396.81	112.35
397.00	56.17
397.19	140.43
397.39	51.49
397.58	182.56
397.77	39.79
397.97	131.07
398.16	142.77
398.35	205.97
398.55	140.43
398.74	189.58
398.93	149.79
399.12	93.62
399.32	121.71
399.51	156.82
399.70	135.75
399.90	131.07
400.09	142.77
400.28	112.35
400.47	131.07
400.67	133.41
400.86	133.41
401.05	121.71
401.24	135.75
401.44	161.50
401.63	227.03
401.82	187.24
402.01	126.39
402.21	222.35
402.40	145.11
402.59	133.41
402.78	67.88
402.97	77.24
403.17	124.05
403.36	135.75
403.55	121.71
403.74	198.95
403.93	168.52
404.13	234.05
404.32	170.86
404.51	163.84
404.70	170.86
404.89	168.52
405.09	203.63
405.28	156.82
405.47	23.41
405.66	177.88
405.85	124.05
406.05	135.75
406.24	91.28
406.43	201.29
406.62	142.77
406.81	220.01
407.00	189.58
407.20	133.41
407.39	163.84
407.58	191.92
407.77	175.54
407.96	149.79
408.15	112.35
408.34	159.16
408.54	180.22
408.73	173.20
408.92	161.50
409.11	191.92
409.30	191.92
409.49	159.16
409.68	131.07
409.87	154.48
410.07	161.50
410.26	138.09
410.45	175.54
410.64	189.58
410.83	159.16
411.02	168.52
411.21	175.54
411.40	175.54
411.59	93.62
411.78	67.88
411.98	112.35
412.17	128.73
412.36	163.84
412.55	86.60
412.74	231.71
412.93	152.13
413.12	152.13
413.31	168.52
413.50	215.33
413.69	180.22
413.88	238.73
414.07	241.08
414.26	166.18
414.45	138.09
414.64	110.01
414.83	135.75
415.02	128.73
415.22	152.13
415.41	168.52
415.60	133.41
415.79	138.09
415.98	194.26
416.17	170.86
416.36	173.20
416.55	131.07
416.74	145.11
416.93	182.56
417.12	145.11
417.31	133.41
417.50	161.50
417.69	149.79
417.88	159.16
418.07	149.79
418.26	196.60
418.45	128.73
418.64	222.35
418.83	152.13
419.02	124.05
419.21	173.20
419.39	159.16
419.58	180.22
419.77	93.62
419.96	100.64
420.15	154.48
420.34	184.90
420.53	88.94
420.72	187.24
420.91	114.69
421.10	177.88
421.29	100.64
421.48	133.41
421.67	154.48
421.86	114.69
422.05	161.50
422.24	173.20
422.43	208.31
422.61	168.52
422.80	126.39
422.99	133.41
423.18	182.56
423.37	205.97
423.56	224.69
423.75	187.24
423.94	145.11
424.13	187.24
424.32	203.63
424.50	238.73
424.69	147.45
424.88	184.90
425.07	161.50
425.26	198.95
425.45	145.11
425.64	131.07
425.83	187.24
426.01	189.58
426.20	184.90
426.39	133.41
426.58	95.96
426.77	133.41
426.96	205.97
427.15	182.56
427.33	231.71
427.52	168.52
427.71	166.18
427.90	142.77
428.09	138.09
428.28	107.66
428.46	220.01
428.65	194.26
428.84	175.54
429.03	159.16
429.22	133.41
429.40	156.82
429.59	145.11
429.78	273.84
429.97	175.54
430.16	187.24
430.34	187.24
430.53	128.73
430.72	114.69
430.91	191.92
431.10	142.77
431.28	201.29
431.47	152.13
431.66	177.88
431.85	170.86
432.03	184.90
432.22	196.60
432.41	149.79
432.60	184.90
432.79	161.50
432.97	88.94
433.16	187.24
433.35	114.69
433.54	135.75
433.72	224.69
433.91	220.01
434.10	100.64
434.28	163.84
434.47	198.95
434.66	238.73
434.85	215.33
435.03	276.18
435.22	428.32
435.41	484.49
435.59	500.87
435.78	315.97
435.97	283.20
436.16	243.42
436.34	145.11
436.53	220.01
436.72	177.88
436.90	189.58
437.09	259.80
437.28	184.90
437.46	184.90
437.65	245.76
437.84	227.03
438.02	231.71
438.21	191.92
438.40	196.60
438.58	107.66
438.77	203.63
438.96	203.63
439.14	119.37
439.33	163.84
439.52	173.20
439.70	201.29
439.89	128.73
440.08	145.11
440.26	170.86
440.45	250.44
440.63	241.08
440.82	168.52
441.01	67.88
441.19	170.86
441.38	177.88
441.57	145.11
441.75	191.92
441.94	198.95
442.12	287.89
442.31	198.95
442.50	131.07
442.68	191.92
442.87	227.03
443.05	227.03
443.24	220.01
443.43	236.39
443.61	227.03
443.80	215.33
443.98	133.41
444.17	184.90
444.35	255.12
444.54	187.24
444.73	234.05
444.91	212.99
445.10	112.35
445.28	198.95
445.47	145.11
445.65	278.52
445.84	175.54
446.02	149.79
446.21	201.29
446.39	212.99
446.58	187.24
446.77	161.50
446.95	184.90
447.14	210.65
447.32	238.73
447.51	210.65
447.69	217.67
447.88	191.92
448.06	264.48
448.25	231.71
448.43	133.41
448.62	184.90
448.80	205.97
448.99	201.29
449.17	145.11
449.36	283.20
449.54	142.77
449.73	166.18
449.91	184.90
450.10	212.99
450.28	205.97
450.46	196.60
450.65	231.71
450.83	266.82
451.02	145.11
451.20	191.92
451.39	215.33
451.57	201.29
451.76	156.82
451.94	175.54
452.13	163.84
452.31	182.56
452.49	280.86
452.68	184.90
452.86	170.86
453.05	205.97
453.23	138.09
453.42	182.56
453.60	210.65
453.78	203.63
453.97	180.22
454.15	208.31
454.34	201.29
454.52	191.92
454.70	245.76
454.89	163.84
455.07	222.35
455.26	252.78
455.44	241.08
455.62	222.35
455.81	231.71
455.99	180.22
456.17	224.69
456.36	205.97
456.54	196.60
456.73	234.05
456.91	182.56
457.09	222.35
457.28	255.12
457.46	217.67
457.64	203.63
457.83	175.54
458.01	224.69
458.19	173.20
458.38	189.58
458.56	241.08
458.74	177.88
458.93	299.59
459.11	189.58
459.29	187.24
459.48	201.29
459.66	227.03
459.84	191.92
460.03	276.18
460.21	257.46
460.39	187.24
460.57	243.42
460.76	189.58
460.94	266.82
461.12	222.35
461.31	224.69
461.49	149.79
461.67	180.22
461.85	227.03
462.04	238.73
462.22	657.69
462.40	187.24
462.59	313.63
462.77	177.88
462.95	243.42
463.13	208.31
463.32	248.10
463.50	243.42
463.68	220.01
463.86	301.93
464.05	102.98
464.23	287.89
464.41	229.37
464.59	138.09
464.78	170.86
464.96	210.65
465.14	161.50
465.32	182.56
465.50	198.95
465.69	191.92
465.87	163.84
466.05	224.69
466.23	210.65
466.41	212.99
466.60	194.26
466.78	245.76
466.96	248.10
467.14	205.97
467.32	227.03
467.51	128.73
467.69	208.31
467.87	231.71
468.05	248.10
468.23	285.55
468.41	255.12
468.60	191.92
468.78	217.67
468.96	189.58
469.14	210.65
469.32	180.22
469.50	170.86
469.69	196.60
469.87	236.39
470.05	224.69
470.23	259.80
470.41	245.76
470.59	248.10
470.77	177.88
470.95	189.58
471.14	271.50
471.32	166.18
471.50	252.78
471.68	220.01
471.86	189.58
472.04	131.07
472.22	250.44
472.40	166.18
472.58	105.32
472.77	248.10
472.95	191.92
473.13	252.78
473.31	241.08
473.49	147.45
473.67	220.01
473.85	184.90
474.03	334.70
474.21	294.91
474.39	243.42
474.57	292.57
474.75	259.80
474.93	222.35
475.12	231.71
475.30	182.56
475.48	196.60
475.66	238.73
475.84	212.99
476.02	229.37
476.20	271.50
476.38	184.90
476.56	285.55
476.74	217.67
476.92	124.05
477.10	147.45
477.28	243.42
477.46	173.20
477.64	236.39
477.82	198.95
478.00	273.84
478.18	203.63
478.36	194.26
478.54	208.31
478.72	245.76
478.90	224.69
479.08	208.31
479.26	215.33
479.44	276.18
479.62	215.33
479.80	196.60
479.98	269.16
480.16	191.92
480.34	313.63
480.52	229.37
480.70	243.42
480.88	245.76
481.06	257.46
481.24	285.55
481.41	241.08
481.59	227.03
481.77	227.03
481.95	290.23
482.13	266.82
482.31	201.29
482.49	248.10
482.67	269.16
482.85	301.93
483.03	337.04
483.21	191.92
483.39	283.20
483.57	234.05
483.74	220.01
483.92	257.46
484.10	217.67
484.28	308.95
484.46	299.59
484.64	212.99
484.82	245.76
485.00	245.76
485.18	252.78
485.35	196.60
485.53	287.89
485.71	276.18
485.89	215.33
486.07	271.50
486.25	330.02
486.43	294.91
486.61	320.65
486.78	194.26
486.96	297.25
487.14	205.97
487.32	285.55
487.50	262.14
487.68	285.55
487.85	259.80
488.03	278.52
488.21	271.50
488.39	273.84
488.57	313.63
488.75	264.48
488.92	479.81
489.10	339.38
489.28	337.04
489.46	285.55
489.64	355.76
489.81	287.89
489.99	250.44
490.17	285.55
490.35	386.19
490.53	332.36
490.70	287.89
490.88	379.17
491.06	280.86
491.24	383.85
491.41	334.70
491.59	362.78
491.77	318.31
491.95	294.91
492.13	266.82
492.30	257.46
492.48	227.03
492.66	259.80
492.84	325.33
493.01	339.38
493.19	243.42
493.37	334.70
493.54	257.46
493.72	301.93
493.90	337.04
494.08	344.06
494.25	259.80
494.43	306.61
494.61	358.10
494.79	353.42
494.96	313.63
495.14	337.04
495.32	273.84
495.49	259.80
495.67	304.27
495.85	278.52
496.02	269.16
496.20	280.86
496.38	287.89
496.55	299.59
496.73	327.68
496.91	315.97
497.09	330.02
497.26	369.80
497.44	220.01
497.62	250.44
497.79	220.01
497.97	224.69
498.14	259.80
498.32	304.27
498.50	337.04
498.67	313.63
498.85	313.63
499.03	276.18
499.20	276.18
499.38	285.55
499.56	348.74
499.73	320.65
499.91	332.36
500.08	334.70
500.26	318.31
500.44	369.80
500.61	243.42
500.79	367.46
500.97	320.65
501.14	351.08
501.32	259.80
501.49	327.68
501.67	215.33
501.84	241.08
502.02	250.44
502.20	372.15
502.37	269.16
502.55	325.33
502.72	264.48
502.90	276.18
503.07	341.72
503.25	306.61
503.43	325.33
503.60	238.73
503.78	287.89
503.95	250.44
504.13	325.33
504.30	287.89
504.48	255.12
504.65	315.97
504.83	381.51
505.01	299.59
505.18	367.46
505.36	184.90
505.53	231.71
505.71	287.89
505.88	306.61
506.06	325.33
506.23	294.91
506.41	287.89
506.58	262.14
506.76	231.71
506.93	287.89
507.11	292.57
507.28	280.86
507.46	311.29
507.63	386.19
507.81	337.04
507.98	231.71
508.16	313.63
508.33	294.91
508.50	290.23
508.68	365.12
508.85	320.65
509.03	304.27
509.20	217.67
509.38	264.48
509.55	353.42
509.73	365.12
509.90	297.25
510.08	264.48
510.25	262.14
510.42	222.35
510.60	320.65
510.77	231.71
510.95	388.53
511.12	320.65
511.30	285.55
511.47	322.99
511.64	327.68
511.82	308.95
511.99	311.29
512.17	271.50
512.34	266.82
512.51	341.72
512.69	297.25
512.86	276.18
513.04	269.16
513.21	276.18
513.38	327.68
513.56	334.70
513.73	320.65
513.90	304.27
514.08	269.16
514.25	287.89
514.43	262.14
514.60	285.55
514.77	273.84
514.95	362.78
515.12	271.50
515.29	365.12
515.47	311.29
515.64	400.23
515.81	341.72
515.99	346.40
516.16	313.63
516.33	299.59
516.51	278.52
516.68	273.84
516.85	269.16
517.03	292.57
517.20	367.46
517.37	353.42
517.54	369.80
517.72	224.69
517.89	236.39
518.06	212.99
518.24	285.55
518.41	285.55
518.58	322.99
518.75	308.95
518.93	353.42
519.10	353.42
519.27	325.33
519.45	355.76
519.62	325.33
519.79	283.20
519.96	346.40
520.14	262.14
520.31	358.10
520.48	344.06
520.65	332.36
520.83	362.78
521.00	397.89
521.17	322.99
521.34	330.02
521.52	341.72
521.69	301.93
521.86	278.52
522.03	283.20
522.20	374.49
522.38	341.72
522.55	313.63
522.72	297.25
522.89	367.46
523.07	299.59
523.24	271.50
523.41	283.20
523.58	369.80
523.75	414.27
523.92	337.04
524.10	355.76
524.27	344.06
524.44	348.74
524.61	397.89
524.78	339.38
524.96	360.44
525.13	301.93
525.30	407.25
525.47	360.44
525.64	355.76
525.81	388.53
525.98	315.97
526.16	299.59
526.33	346.40
526.50	337.04
526.67	250.44
526.84	248.10
527.01	290.23
527.18	308.95
527.36	313.63
527.53	390.87
527.70	433.00
527.87	404.91
528.04	348.74
528.21	325.33
528.38	393.21
528.55	322.99
528.72	367.46
528.89	402.57
529.07	365.12
529.24	344.06
529.41	290.23
529.58	315.97
529.75	339.38
529.92	322.99
530.09	334.70
530.26	414.27
530.43	330.02
530.60	287.89
530.77	421.30
530.94	374.49
531.11	327.68
531.28	313.63
531.46	315.97
531.63	374.49
531.80	369.80
531.97	365.12
532.14	390.87
532.31	285.55
532.48	271.50
532.65	344.06
532.82	341.72
532.99	320.65
533.16	400.23
533.33	313.63
533.50	360.44
533.67	318.31
533.84	395.55
534.01	404.91
534.18	341.72
534.35	397.89
534.52	369.80
534.69	388.53
534.86	379.17
535.03	322.99
535.20	344.06
535.37	397.89
535.54	346.40
535.71	292.57
535.88	400.23
536.05	411.93
536.22	437.68
536.38	397.89
536.55	425.98
536.72	315.97
536.89	407.25
537.06	397.89
537.23	341.72
537.40	372.15
537.57	365.12
537.74	409.59
537.91	376.83
538.08	355.76
538.25	404.91
538.42	374.49
538.59	482.15
538.75	397.89
538.92	416.62
539.09	447.04
539.26	507.90
539.43	461.09
539.60	402.57
539.77	547.69
539.94	505.56
540.11	498.53
540.28	566.41
540.44	606.20
540.61	606.20
540.78	631.94
540.95	571.09
541.12	706.84
541.29	760.67
541.46	732.59
541.62	692.80
541.79	664.71
541.96	763.01
542.13	739.61
542.30	737.27
542.47	667.05
542.63	660.03
542.80	624.92
542.97	695.14
543.14	676.41
543.31	627.26
543.48	657.69
543.64	720.88
543.81	624.92
543.98	568.75
544.15	681.10
544.32	653.01
544.48	692.80
544.65	568.75
544.82	573.43
544.99	634.29
545.16	685.78
545.32	713.86
545.49	985.37
545.66	1359.85
545.83	1313.04
546.00	1254.53
546.16	915.15
546.33	784.08
546.50	695.14
546.67	699.82
546.83	662.37
547.00	507.90
547.17	440.02
547.34	547.69
547.50	587.47
547.67	517.26
547.84	472.79
548.00	451.72
548.17	503.22
548.34	484.49
548.51	451.72
548.67	482.15
548.84	465.77
549.01	538.32
549.18	479.81
549.34	493.85
549.51	477.47
549.68	472.79
549.84	440.02
550.01	397.89
550.18	528.96
550.34	573.43
550.51	472.79
550.68	463.43
550.84	397.89
551.01	386.19
551.18	355.76
551.34	374.49
551.51	440.02
551.68	510.24
551.84	397.89
552.01	372.15
552.18	351.08
552.34	493.85
552.51	461.09
552.68	358.10
552.84	344.06
553.01	409.59
553.18	358.10
553.34	360.44
553.51	372.15
553.67	435.34
553.84	475.13
554.01	383.85
554.17	475.13
554.34	348.74
554.51	325.33
554.67	383.85
554.84	397.89
555.00	390.87
555.17	400.23
555.33	337.04
555.50	423.64
555.67	404.91
555.83	353.42
556.00	376.83
556.16	482.15
556.33	339.38
556.50	353.42
556.66	318.31
556.83	360.44
556.99	334.70
557.16	334.70
557.32	320.65
557.49	353.42
557.65	386.19
557.82	358.10
557.98	320.65
558.15	292.57
558.32	315.97
558.48	358.10
558.65	337.04
558.81	292.57
558.98	369.80
559.14	369.80
559.31	381.51
559.47	360.44
559.64	416.62
559.80	330.02
559.97	374.49
560.13	397.89
560.30	351.08
560.46	325.33
560.63	351.08
560.79	367.46
560.96	276.18
561.12	369.80
561.29	416.62
561.45	306.61
561.61	339.38
561.78	360.44
561.94	365.12
562.11	362.78
562.27	346.40
562.44	318.31
562.60	330.02
562.77	304.27
562.93	344.06
563.10	308.95
563.26	330.02
563.42	369.80
563.59	355.76
563.75	315.97
563.92	388.53
564.08	374.49
564.24	346.40
564.41	540.66
564.57	292.57
564.74	393.21
564.90	315.97
565.07	304.27
565.23	400.23
565.39	344.06
565.56	308.95
565.72	266.82
565.88	301.93
566.05	348.74
566.21	351.08
566.38	341.72
566.54	409.59
566.70	390.87
566.87	395.55
567.03	308.95
567.19	315.97
567.36	299.59
567.52	304.27
567.68	428.32
567.85	390.87
568.01	409.59
568.17	325.33
568.34	346.40
568.50	341.72
568.66	299.59
568.83	433.00
568.99	269.16
569.15	290.23
569.32	372.15
569.48	320.65
569.64	355.76
569.81	320.65
569.97	337.04
570.13	332.36
570.30	283.20
570.46	334.70
570.62	306.61
570.78	414.27
570.95	320.65
571.11	283.20
571.27	292.57
571.43	273.84
571.60	358.10
571.76	325.33
571.92	353.42
572.09	252.78
572.25	362.78
572.41	276.18
572.57	301.93
572.74	320.65
572.90	330.02
573.06	306.61
573.22	304.27
573.38	416.62
573.55	292.57
573.71	322.99
573.87	409.59
574.03	325.33
574.20	404.91
574.36	360.44
574.52	269.16
574.68	360.44
574.84	297.25
575.01	383.85
575.17	304.27
575.33	341.72
575.49	322.99
575.65	276.18
575.82	301.93
575.98	330.02
576.14	297.25
576.30	365.12
576.46	376.83
576.62	507.90
576.79	503.22
576.95	489.17
577.11	369.80
577.27	395.55
577.43	418.96
577.59	379.17
577.75	301.93
577.92	294.91
578.08	322.99
578.24	337.04
578.40	346.40
578.56	463.43
578.72	507.90
578.88	538.32
579.04	468.11
579.21	351.08
579.37	348.74
579.53	339.38
579.69	369.80
579.85	313.63
580.01	416.62
580.17	416.62
580.33	283.20
580.49	381.51
580.65	360.44
580.82	379.17
580.98	374.49
581.14	379.17
581.30	491.51
581.46	330.02
581.62	400.23
581.78	367.46
581.94	386.19
582.10	409.59
582.26	416.62
582.42	341.72
582.58	315.97
582.74	435.34
582.90	386.19
583.06	355.76
583.22	369.80
583.38	353.42
583.54	404.91
583.70	477.47
583.86	397.89
584.02	386.19
584.18	418.96
584.34	433.00
584.50	416.62
584.66	360.44
584.82	332.36
584.98	404.91
585.14	414.27
585.30	451.72
585.46	376.83
585.62	330.02
585.78	327.68
585.94	365.12
586.10	304.27
586.26	423.64
586.42	449.38
586.58	433.00
586.74	369.80
586.90	421.30
587.06	477.47
587.22	442.36
587.38	388.53
587.54	425.98
587.70	440.02
587.86	437.68
588.02	430.66
588.18	362.78
588.34	369.80
588.49	390.87
588.65	339.38
588.81	360.44
588.97	285.55
589.13	339.38
589.29	257.46
589.45	458.74
589.61	351.08
589.77	334.70
589.93	294.91
590.08	285.55
590.24	306.61
590.40	395.55
590.56	348.74
590.72	299.59
590.88	395.55
591.04	393.21
591.20	294.91
591.35	390.87
591.51	280.86
591.67	367.46
591.83	222.35
591.99	411.93
592.15	332.36
592.31	332.36
592.46	344.06
592.62	397.89
592.78	365.12
592.94	388.53
593.10	339.38
593.26	421.30
593.41	447.04
593.57	404.91
593.73	358.10
593.89	358.10
594.05	257.46
594.20	369.80
594.36	337.04
594.52	301.93
594.68	266.82
594.84	315.97
594.99	308.95
595.15	299.59
595.31	322.99
595.47	332.36
595.62	388.53
595.78	383.85
595.94	355.76
596.10	341.72
596.25	313.63
596.41	358.10
596.57	351.08
596.73	330.02
596.88	344.06
597.04	393.21
597.20	325.33
597.36	379.17
597.51	311.29
597.67	285.55
597.83	262.14
597.99	386.19
598.14	353.42
598.30	360.44
598.46	341.72
598.61	355.76
598.77	334.70
598.93	376.83
599.09	341.72
599.24	344.06
599.40	388.53
599.56	339.38
599.71	374.49
599.87	348.74
600.03	337.04
600.18	358.10
600.34	409.59
600.50	280.86
600.65	344.06
600.81	355.76
600.97	360.44
601.12	320.65
601.28	315.97
601.44	266.82
601.59	308.95
601.75	271.50
601.91	315.97
602.06	400.23
602.22	416.62
602.37	362.78
602.53	287.89
602.69	365.12
602.84	287.89
603.00	330.02
603.16	325.33
603.31	353.42
603.47	351.08
603.62	344.06
603.78	344.06
603.94	365.12
604.09	278.52
604.25	311.29
604.40	409.59
604.56	332.36
604.71	325.33
604.87	313.63
605.03	320.65
605.18	318.31
605.34	367.46
605.49	393.21
605.65	271.50
605.80	306.61
605.96	315.97
606.12	313.63
606.27	330.02
606.43	292.57
606.58	283.20
606.74	381.51
606.89	306.61
607.05	360.44
607.20	337.04
607.36	402.57
607.51	416.62
607.67	276.18
607.82	383.85
607.98	388.53
608.13	355.76
608.29	306.61
608.44	369.80
608.60	414.27
608.75	440.02
608.91	430.66
609.06	383.85
609.22	423.64
609.37	404.91
609.53	402.57
609.68	472.79
609.84	514.92
609.99	498.53
610.15	594.50
610.30	678.76
610.46	699.82
610.61	919.83
610.76	1048.56
610.92	1179.63
611.07	1284.95
611.23	1303.68
611.38	1240.48
611.54	1057.92
611.69	919.83
611.84	870.68
612.00	732.59
612.15	704.50
612.31	638.97
612.46	559.39
612.62	524.28
612.77	603.86
612.92	566.41
613.08	514.92
613.23	561.73
613.39	486.83
613.54	477.47
613.69	575.77
613.85	505.56
614.00	550.03
614.15	554.71
614.31	550.03
614.46	505.56
614.62	442.36
614.77	475.13
614.92	486.83
615.08	507.90
615.23	400.23
615.38	414.27
615.54	369.80
615.69	360.44
615.84	383.85
616.00	318.31
616.15	344.06
616.30	362.78
616.46	369.80
616.61	355.76
616.76	351.08
616.92	306.61
617.07	276.18
617.22	358.10
617.37	273.84
617.53	313.63
617.68	315.97
617.83	306.61
617.99	287.89
618.14	353.42
618.29	271.50
618.45	346.40
618.60	344.06
618.75	292.57
618.90	252.78
619.06	360.44
619.21	393.21
619.36	346.40
619.51	332.36
619.67	238.73
619.82	252.78
619.97	330.02
620.12	259.80
620.28	386.19
620.43	346.40
620.58	339.38
620.73	339.38
620.89	348.74
621.04	341.72
621.19	407.25
621.34	348.74
621.49	234.05
621.65	306.61
621.80	355.76
621.95	234.05
622.10	330.02
622.25	287.89
622.41	362.78
622.56	294.91
622.71	372.15
622.86	334.70
623.01	325.33
623.16	428.32
623.32	325.33
623.47	304.27
623.62	339.38
623.77	428.32
623.92	330.02
624.07	318.31
624.23	255.12
624.38	332.36
624.53	355.76
624.68	264.48
624.83	369.80
624.98	348.74
625.13	341.72
625.29	322.99
625.44	301.93
625.59	337.04
625.74	290.23
625.89	367.46
626.04	269.16
626.19	320.65
626.34	351.08
626.49	301.93
626.65	313.63
626.80	322.99
626.95	311.29
627.10	313.63
627.25	346.40
627.40	325.33
627.55	365.12
627.70	238.73
627.85	318.31
628.00	353.42
628.15	315.97
628.30	341.72
628.45	318.31
628.60	283.20
628.76	318.31
628.91	259.80
629.06	255.12
629.21	313.63
629.36	299.59
629.51	278.52
629.66	374.49
629.81	355.76
629.96	304.27
630.11	346.40
630.26	344.06
630.41	372.15
630.56	435.34
630.71	330.02
630.86	334.70
631.01	360.44
631.16	339.38
631.31	379.17
631.46	322.99
631.61	327.68
631.76	365.12
631.91	308.95
632.06	327.68
632.21	234.05
632.36	271.50
632.51	355.76
632.66	313.63
632.81	332.36
632.96	215.33
633.10	229.37
633.25	402.57
633.40	220.01
633.55	227.03
633.70	287.89
633.85	339.38
634.00	205.97
634.15	194.26
634.30	287.89
634.45	285.55
634.60	234.05
634.75	285.55
634.90	341.72
635.05	313.63
635.19	259.80
635.34	325.33
635.49	365.12
635.64	238.73
635.79	292.57
635.94	266.82
636.09	262.14
636.24	248.10
636.39	252.78
636.53	250.44
636.68	227.03
636.83	280.86
636.98	243.42
637.13	287.89
637.28	224.69
637.43	243.42
637.57	344.06
637.72	320.65
637.87	290.23
638.02	210.65
638.17	201.29
638.32	283.20
638.46	346.40
638.61	234.05
638.76	255.12
638.91	201.29
639.06	252.78
639.20	250.44
639.35	264.48
639.50	159.16
639.65	198.95
639.80	220.01
639.94	252.78
640.09	290.23
640.24	322.99
640.39	245.76
640.54	266.82
640.68	308.95
640.83	236.39
640.98	264.48
641.13	227.03
641.27	236.39
641.42	262.14
641.57	315.97
641.72	266.82
641.86	236.39
642.01	168.52
642.16	255.12
642.31	147.45
642.45	292.57
642.60	306.61
642.75	259.80
642.90	313.63
643.04	320.65
643.19	266.82
643.34	315.97
643.48	248.10
643.63	283.20
643.78	252.78
643.93	269.16
644.07	318.31
644.22	269.16
644.37	266.82
644.51	266.82
644.66	224.69
644.81	234.05
644.95	243.42
645.10	208.31
645.25	196.60
645.39	330.02
645.54	287.89
645.69	210.65
645.83	248.10
645.98	278.52
646.13	208.31
646.27	227.03
646.42	255.12
646.57	245.76
646.71	299.59
646.86	191.92
647.00	255.12
647.15	243.42
647.30	250.44
647.44	276.18
647.59	271.50
647.74	271.50
647.88	259.80
648.03	215.33
648.17	229.37
648.32	283.20
648.47	290.23
648.61	217.67
648.76	271.50
648.90	292.57
649.05	252.78
649.20	245.76
649.34	229.37
649.49	220.01
649.63	243.42
649.78	280.86
649.92	222.35
650.07	234.05
650.21	205.97
650.36	283.20
650.51	287.89
650.65	198.95
650.80	189.58
650.94	248.10
651.09	259.80
651.23	224.69
651.38	182.56
651.52	161.50
651.67	227.03
651.81	271.50
651.96	262.14
652.10	231.71
652.25	250.44
652.39	187.24
652.54	257.46
652.68	327.68
652.83	276.18
652.97	248.10
653.12	266.82
653.26	170.86
653.41	210.65
653.55	245.76
653.70	311.29
653.84	217.67
653.99	201.29
654.13	210.65
654.27	205.97
654.42	184.90
654.56	191.92
654.71	194.26
654.85	222.35
655.00	196.60
655.14	161.50
655.29	117.03
655.43	220.01
655.57	222.35
655.72	236.39
655.86	210.65
656.01	182.56
656.15	222.35
656.30	222.35
656.44	269.16
656.58	280.86
656.73	175.54
656.87	170.86
657.01	180.22
657.16	250.44
657.30	287.89
657.45	259.80
657.59	252.78
657.73	264.48
657.88	257.46
658.02	320.65
658.16	231.71
658.31	238.73
658.45	161.50
658.60	159.16
658.74	210.65
658.88	248.10
659.03	217.67
659.17	241.08
659.31	156.82
659.46	231.71
659.60	224.69
659.74	276.18
659.89	227.03
660.03	234.05
660.17	297.25
660.32	234.05
660.46	269.16
660.60	210.65
660.74	173.20
660.89	217.67
661.03	224.69
661.17	245.76
661.32	306.61
661.46	271.50
661.60	198.95
661.74	248.10
661.89	238.73
662.03	259.80
662.17	177.88
662.31	248.10
662.46	276.18
662.60	212.99
662.74	182.56
662.88	212.99
663.03	163.84
663.17	180.22
663.31	287.89
663.45	241.08
663.60	177.88
663.74	210.65
663.88	243.42
664.02	203.63
664.17	177.88
664.31	224.69
664.45	166.18
664.59	175.54
664.73	266.82
664.88	269.16
665.02	187.24
665.16	262.14
665.30	229.37
665.44	196.60
665.59	220.01
665.73	217.67
665.87	191.92
666.01	257.46
666.15	264.48
666.29	196.60
666.44	210.65
666.58	301.93
666.72	177.88
666.86	222.35
667.00	180.22
667.14	299.59
667.28	208.31
667.43	241.08
667.57	224.69
667.71	126.39
667.85	182.56
667.99	220.01
668.13	175.54
668.27	220.01
668.41	203.63
668.56	201.29
668.70	224.69
668.84	217.67
668.98	217.67
669.12	187.24
669.26	210.65
669.40	189.58
669.54	194.26
669.68	212.99
669.82	198.95
669.96	222.35
670.10	220.01
670.25	229.37
670.39	212.99
670.53	271.50
670.67	212.99
670.81	161.50
670.95	243.42
671.09	184.90
671.23	215.33
671.37	243.42
671.51	252.78
671.65	168.52
671.79	194.26
671.93	236.39
672.07	294.91
672.21	243.42
672.35	182.56
672.49	168.52
672.63	229.37
672.77	290.23
672.91	241.08
673.05	212.99
673.19	191.92
673.33	215.33
673.47	208.31
673.61	187.24
673.75	236.39
673.89	203.63
674.03	229.37
674.17	208.31
674.31	201.29
674.45	231.71
674.59	280.86
674.73	250.44
674.87	224.69
675.01	210.65
675.15	210.65
675.29	248.10
675.43	222.35
675.56	231.71
675.70	271.50
675.84	196.60
675.98	252.78
676.12	93.62
676.26	220.01
676.40	187.24
676.54	159.16
676.68	191.92
676.82	184.90
676.96	264.48
677.10	201.29
677.23	236.39
677.37	201.29
677.51	138.09
677.65	325.33
677.79	220.01
677.93	170.86
678.07	177.88
678.21	187.24
678.34	149.79
678.48	208.31
678.62	229.37
678.76	262.14
678.90	227.03
679.04	287.89
679.18	126.39
679.31	182.56
679.45	133.41
679.59	224.69
679.73	124.05
679.87	161.50
680.00	166.18
680.14	182.56
680.28	163.84
680.42	135.75
680.56	180.22
680.70	203.63
680.83	196.60
680.97	243.42
681.11	180.22
681.25	212.99
681.39	191.92
681.52	264.48
681.66	126.39
681.80	205.97
681.94	145.11
682.07	168.52
682.21	196.60
682.35	173.20
682.49	166.18
682.62	191.92
682.76	121.71
682.90	205.97
683.04	175.54
683.17	189.58
683.31	159.16
683.45	273.84
683.59	177.88
683.72	264.48
683.86	135.75
684.00	114.69
684.13	149.79
684.27	187.24
684.41	203.63
684.55	131.07
684.68	248.10
684.82	227.03
684.96	238.73
685.09	201.29
685.23	161.50
685.37	154.48
685.50	177.88
685.64	210.65
685.78	173.20
685.91	238.73
686.05	191.92
686.19	208.31
686.32	208.31
686.46	229.37
686.60	182.56
686.73	243.42
686.87	234.05
687.01	133.41
687.14	215.33
687.28	128.73
687.42	215.33
687.55	105.32
687.69	220.01
687.82	187.24
687.96	210.65
688.10	184.90
688.23	88.94
688.37	198.95
688.50	170.86
688.64	140.43
688.78	170.86
688.91	189.58
689.05	189.58
689.18	250.44
689.32	156.82
689.46	189.58
689.59	156.82
689.73	182.56
689.86	126.39
690.00	203.63
690.13	95.96
690.27	102.98
690.41	128.73
690.54	170.86
690.68	175.54
690.81	138.09
690.95	140.43
691.08	215.33
691.22	135.75
691.35	133.41
691.49	152.13
691.62	187.24
691.76	133.41
691.89	227.03
692.03	182.56
692.16	124.05
692.30	182.56
692.43	126.39
692.57	194.26
692.70	121.71
692.84	177.88
692.97	196.60
693.11	177.88
693.24	140.43
693.38	184.90
693.51	208.31
693.65	231.71
693.78	208.31
693.92	191.92
694.05	180.22
694.19	205.97
694.32	145.11
694.45	138.09
694.59	147.45
694.72	46.81
694.86	145.11
694.99	222.35
695.13	184.90
695.26	112.35
695.39	114.69
695.53	234.05
695.66	205.97
695.80	184.90
695.93	100.64
696.07	147.45
696.20	173.20
696.33	100.64
696.47	107.66
696.60	177.88
696.73	168.52
696.87	220.01
697.00	184.90
697.14	142.77
697.27	126.39
697.40	121.71
697.54	133.41
697.67	166.18
697.80	210.65
697.94	154.48
698.07	163.84
698.21	102.98
698.34	177.88
698.47	173.20
698.61	95.96
698.74	196.60
698.87	124.05
699.01	194.26
699.14	138.09
699.27	217.67
699.40	301.93
699.54	161.50
699.67	147.45
699.80	107.66
699.94	166.18
700.07	135.75
700.20	135.75
700.34	161.50
700.47	135.75
700.60	138.09
700.73	135.75
700.87	196.60
701.00	152.13
701.13	140.43
701.26	110.01
701.40	196.60
701.53	42.13
701.66	124.05
701.79	182.56
701.93	180.22
702.06	198.95
702.19	88.94
702.32	135.75
702.46	102.98
702.59	112.35
702.72	126.39
702.85	182.56
702.99	110.01
703.12	147.45
703.25	100.64
703.38	63.19
703.51	189.58
703.65	159.16
703.78	114.69
703.91	217.67
704.04	170.86
704.17	156.82
704.31	86.60
704.44	74.90
704.57	142.77
704.70	128.73
704.83	198.95
704.96	161.50
705.10	201.29
705.23	131.07
>>>>>End Processed Spectral Data<<<<<
