SpectraSuite Data File
++++++++++++++++++++++++++++++++++++
Date: Fri Oct 04 11:34:06 GMT-05:00 2013
User: price-jones
Dark Spectrum Present: No
Reference Spectrum Present: No
Number of Sampled Component Spectra: 1
Spectrometers: USB2+H05261
Integration Time (usec): 100000 (USB2+H05261)
Spectra Averaged: 1 (USB2+H05261)
Boxcar Smoothing: 0 (USB2+H05261)
Correct for Electrical Dark: No (USB2+H05261)
Strobe/Lamp Enabled: No (USB2+H05261)
Correct for Detector Non-linearity: No (USB2+H05261)
Correct for Stray Light: No (USB2+H05261)
Number of Pixels in Processed Spectrum: 2048
>>>>>Begin Processed Spectral Data<<<<<
365.73	53.83
365.92	53.83
366.12	53.83
366.32	0.00
366.52	0.00
366.72	91.28
366.91	0.00
367.11	0.00
367.31	0.00
367.51	0.00
367.70	0.00
367.90	0.00
368.10	0.00
368.30	0.00
368.49	0.00
368.69	60.85
368.89	0.00
369.09	0.00
369.28	0.00
369.48	32.77
369.68	81.92
369.87	21.06
370.07	56.17
370.27	60.85
370.47	28.09
370.66	58.51
370.86	77.24
371.06	91.28
371.25	93.62
371.45	102.98
371.65	159.16
371.84	28.09
372.04	81.92
372.24	119.37
372.44	189.58
372.63	100.64
372.83	147.45
373.03	166.18
373.22	138.09
373.42	128.73
373.62	147.45
373.81	215.33
374.01	205.97
374.21	142.77
374.40	147.45
374.60	133.41
374.79	177.88
374.99	163.84
375.19	170.86
375.38	163.84
375.58	81.92
375.78	168.52
375.97	203.63
376.17	128.73
376.37	149.79
376.56	119.37
376.76	133.41
376.95	124.05
377.15	140.43
377.35	170.86
377.54	196.60
377.74	173.20
377.93	133.41
378.13	105.32
378.33	175.54
378.52	159.16
378.72	154.48
378.91	133.41
379.11	124.05
379.31	154.48
379.50	182.56
379.70	224.69
379.89	156.82
380.09	107.66
380.28	175.54
380.48	95.96
380.68	91.28
380.87	110.01
381.07	102.98
381.26	166.18
381.46	313.63
381.65	126.39
381.85	126.39
382.04	147.45
382.24	142.77
382.43	194.26
382.63	175.54
382.83	194.26
383.02	182.56
383.22	194.26
383.41	131.07
383.61	152.13
383.80	217.67
384.00	166.18
384.19	149.79
384.39	191.92
384.58	154.48
384.78	191.92
384.97	86.60
385.17	117.03
385.36	138.09
385.56	173.20
385.75	149.79
385.95	119.37
386.14	119.37
386.34	138.09
386.53	140.43
386.72	133.41
386.92	175.54
387.11	163.84
387.31	229.37
387.50	63.19
387.70	86.60
387.89	184.90
388.09	142.77
388.28	133.41
388.48	180.22
388.67	173.20
388.86	128.73
389.06	159.16
389.25	191.92
389.45	212.99
389.64	100.64
389.84	152.13
390.03	168.52
390.22	110.01
390.42	124.05
390.61	110.01
390.81	100.64
391.00	102.98
391.19	196.60
391.39	79.58
391.58	91.28
391.78	205.97
391.97	133.41
392.16	138.09
392.36	180.22
392.55	100.64
392.75	152.13
392.94	161.50
393.13	180.22
393.33	124.05
393.52	156.82
393.71	110.01
393.91	184.90
394.10	100.64
394.29	105.32
394.49	84.26
394.68	107.66
394.88	201.29
395.07	154.48
395.26	152.13
395.46	173.20
395.65	154.48
395.84	119.37
396.04	198.95
396.23	191.92
396.42	119.37
396.62	196.60
396.81	105.32
397.00	88.94
397.19	170.86
397.39	170.86
397.58	208.31
397.77	138.09
397.97	154.48
398.16	156.82
398.35	180.22
398.55	126.39
398.74	131.07
398.93	142.77
399.12	161.50
399.32	145.11
399.51	121.71
399.70	168.52
399.90	138.09
400.09	119.37
400.28	187.24
400.47	32.77
400.67	142.77
400.86	149.79
401.05	161.50
401.24	154.48
401.44	196.60
401.63	266.82
401.82	210.65
402.01	145.11
402.21	170.86
402.40	196.60
402.59	241.08
402.78	131.07
402.97	88.94
403.17	140.43
403.36	98.30
403.55	205.97
403.74	91.28
403.93	220.01
404.13	273.84
404.32	159.16
404.51	135.75
404.70	145.11
404.89	166.18
405.09	234.05
405.28	205.97
405.47	126.39
405.66	220.01
405.85	149.79
406.05	135.75
406.24	46.81
406.43	124.05
406.62	159.16
406.81	156.82
407.00	189.58
407.20	194.26
407.39	187.24
407.58	140.43
407.77	124.05
407.96	208.31
408.15	184.90
408.34	161.50
408.54	231.71
408.73	177.88
408.92	170.86
409.11	208.31
409.30	224.69
409.49	107.66
409.68	98.30
409.87	163.84
410.07	234.05
410.26	152.13
410.45	112.35
410.64	208.31
410.83	187.24
411.02	152.13
411.21	140.43
411.40	149.79
411.59	135.75
411.78	152.13
411.98	65.54
412.17	201.29
412.36	112.35
412.55	245.76
412.74	133.41
412.93	229.37
413.12	156.82
413.31	189.58
413.50	100.64
413.69	163.84
413.88	236.39
414.07	170.86
414.26	210.65
414.45	212.99
414.64	142.77
414.83	161.50
415.02	140.43
415.22	234.05
415.41	173.20
415.60	124.05
415.79	180.22
415.98	140.43
416.17	161.50
416.36	159.16
416.55	147.45
416.74	119.37
416.93	243.42
417.12	121.71
417.31	138.09
417.50	166.18
417.69	189.58
417.88	220.01
418.07	166.18
418.26	201.29
418.45	175.54
418.64	189.58
418.83	140.43
419.02	175.54
419.21	166.18
419.39	194.26
419.58	189.58
419.77	93.62
419.96	147.45
420.15	154.48
420.34	138.09
420.53	140.43
420.72	194.26
420.91	264.48
421.10	205.97
421.29	142.77
421.48	182.56
421.67	205.97
421.86	131.07
422.05	205.97
422.24	133.41
422.43	198.95
422.61	124.05
422.80	140.43
422.99	105.32
423.18	196.60
423.37	175.54
423.56	112.35
423.75	259.80
423.94	175.54
424.13	154.48
424.32	124.05
424.50	191.92
424.69	163.84
424.88	182.56
425.07	168.52
425.26	133.41
425.45	238.73
425.64	98.30
425.83	163.84
426.01	241.08
426.20	131.07
426.39	168.52
426.58	98.30
426.77	187.24
426.96	205.97
427.15	229.37
427.33	135.75
427.52	168.52
427.71	124.05
427.90	119.37
428.09	159.16
428.28	128.73
428.46	198.95
428.65	189.58
428.84	205.97
429.03	159.16
429.22	203.63
429.40	182.56
429.59	166.18
429.78	234.05
429.97	163.84
430.16	184.90
430.34	154.48
430.53	163.84
430.72	39.79
430.91	110.01
431.10	142.77
431.28	170.86
431.47	187.24
431.66	222.35
431.85	140.43
432.03	128.73
432.22	245.76
432.41	131.07
432.60	154.48
432.79	184.90
432.97	245.76
433.16	152.13
433.35	161.50
433.54	177.88
433.72	205.97
433.91	161.50
434.10	117.03
434.28	177.88
434.47	156.82
434.66	126.39
434.85	168.52
435.03	163.84
435.22	346.40
435.41	341.72
435.59	322.99
435.78	287.89
435.97	159.16
436.16	156.82
436.34	234.05
436.53	255.12
436.72	189.58
436.90	189.58
437.09	173.20
437.28	191.92
437.46	145.11
437.65	217.67
437.84	227.03
438.02	229.37
438.21	212.99
438.40	198.95
438.58	166.18
438.77	156.82
438.96	124.05
439.14	107.66
439.33	208.31
439.52	161.50
439.70	93.62
439.89	175.54
440.08	227.03
440.26	163.84
440.45	182.56
440.63	187.24
440.82	100.64
441.01	173.20
441.19	182.56
441.38	215.33
441.57	159.16
441.75	175.54
441.94	184.90
442.12	152.13
442.31	98.30
442.50	161.50
442.68	147.45
442.87	166.18
443.05	119.37
443.24	175.54
443.43	203.63
443.61	252.78
443.80	168.52
443.98	121.71
444.17	180.22
444.35	166.18
444.54	182.56
444.73	131.07
444.91	156.82
445.10	182.56
445.28	175.54
445.47	145.11
445.65	238.73
445.84	180.22
446.02	227.03
446.21	140.43
446.39	301.93
446.58	131.07
446.77	227.03
446.95	95.96
447.14	205.97
447.32	203.63
447.51	222.35
447.69	234.05
447.88	196.60
448.06	133.41
448.25	126.39
448.43	243.42
448.62	184.90
448.80	133.41
448.99	201.29
449.17	91.28
449.36	156.82
449.54	173.20
449.73	140.43
449.91	252.78
450.10	217.67
450.28	152.13
450.46	322.99
450.65	191.92
450.83	180.22
451.02	231.71
451.20	152.13
451.39	79.58
451.57	149.79
451.76	163.84
451.94	170.86
452.13	170.86
452.31	175.54
452.49	236.39
452.68	177.88
452.86	184.90
453.05	177.88
453.23	210.65
453.42	184.90
453.60	149.79
453.78	250.44
453.97	135.75
454.15	208.31
454.34	156.82
454.52	177.88
454.70	175.54
454.89	262.14
455.07	166.18
455.26	128.73
455.44	182.56
455.62	201.29
455.81	229.37
455.99	210.65
456.17	187.24
456.36	198.95
456.54	236.39
456.73	173.20
456.91	243.42
457.09	166.18
457.28	212.99
457.46	138.09
457.64	189.58
457.83	196.60
458.01	187.24
458.19	168.52
458.38	191.92
458.56	191.92
458.74	170.86
458.93	128.73
459.11	182.56
459.29	156.82
459.48	168.52
459.66	205.97
459.84	203.63
460.03	287.89
460.21	224.69
460.39	205.97
460.57	175.54
460.76	215.33
460.94	149.79
461.12	194.26
461.31	191.92
461.49	227.03
461.67	210.65
461.85	198.95
462.04	203.63
462.22	610.88
462.40	229.37
462.59	161.50
462.77	84.26
462.95	156.82
463.13	245.76
463.32	210.65
463.50	201.29
463.68	252.78
463.86	184.90
464.05	194.26
464.23	159.16
464.41	187.24
464.59	168.52
464.78	140.43
464.96	194.26
465.14	273.84
465.32	210.65
465.50	189.58
465.69	231.71
465.87	135.75
466.05	255.12
466.23	180.22
466.41	177.88
466.60	208.31
466.78	210.65
466.96	163.84
467.14	229.37
467.32	210.65
467.51	210.65
467.69	245.76
467.87	187.24
468.05	182.56
468.23	210.65
468.41	227.03
468.60	166.18
468.78	208.31
468.96	154.48
469.14	149.79
469.32	168.52
469.50	152.13
469.69	299.59
469.87	255.12
470.05	203.63
470.23	152.13
470.41	114.69
470.59	156.82
470.77	224.69
470.95	299.59
471.14	212.99
471.32	196.60
471.50	175.54
471.68	248.10
471.86	231.71
472.04	142.77
472.22	168.52
472.40	138.09
472.58	121.71
472.77	168.52
472.95	222.35
473.13	173.20
473.31	250.44
473.49	222.35
473.67	168.52
473.85	196.60
474.03	236.39
474.21	154.48
474.39	241.08
474.57	262.14
474.75	149.79
474.93	147.45
475.12	93.62
475.30	149.79
475.48	248.10
475.66	180.22
475.84	161.50
476.02	196.60
476.20	201.29
476.38	177.88
476.56	252.78
476.74	142.77
476.92	201.29
477.10	189.58
477.28	189.58
477.46	198.95
477.64	266.82
477.82	180.22
478.00	147.45
478.18	273.84
478.36	182.56
478.54	95.96
478.72	184.90
478.90	152.13
479.08	224.69
479.26	126.39
479.44	145.11
479.62	191.92
479.80	203.63
479.98	175.54
480.16	194.26
480.34	196.60
480.52	201.29
480.70	238.73
480.88	93.62
481.06	231.71
481.24	184.90
481.41	163.84
481.59	231.71
481.77	238.73
481.95	243.42
482.13	273.84
482.31	203.63
482.49	187.24
482.67	138.09
482.85	220.01
483.03	252.78
483.21	227.03
483.39	173.20
483.57	231.71
483.74	177.88
483.92	149.79
484.10	147.45
484.28	245.76
484.46	301.93
484.64	248.10
484.82	222.35
485.00	215.33
485.18	245.76
485.35	250.44
485.53	243.42
485.71	290.23
485.89	135.75
486.07	227.03
486.25	287.89
486.43	236.39
486.61	271.50
486.78	266.82
486.96	182.56
487.14	210.65
487.32	220.01
487.50	191.92
487.68	283.20
487.85	222.35
488.03	229.37
488.21	285.55
488.39	234.05
488.57	224.69
488.75	215.33
488.92	454.06
489.10	266.82
489.28	327.68
489.46	191.92
489.64	255.12
489.81	241.08
489.99	245.76
490.17	194.26
490.35	360.44
490.53	191.92
490.70	269.16
490.88	297.25
491.06	255.12
491.24	222.35
491.41	255.12
491.59	285.55
491.77	227.03
491.95	170.86
492.13	203.63
492.30	255.12
492.48	222.35
492.66	212.99
492.84	250.44
493.01	208.31
493.19	208.31
493.37	283.20
493.54	252.78
493.72	234.05
493.90	262.14
494.08	220.01
494.25	259.80
494.43	280.86
494.61	269.16
494.79	276.18
494.96	180.22
495.14	224.69
495.32	201.29
495.49	205.97
495.67	238.73
495.85	264.48
496.02	205.97
496.20	285.55
496.38	227.03
496.55	255.12
496.73	255.12
496.91	229.37
497.09	262.14
497.26	276.18
497.44	269.16
497.62	231.71
497.79	194.26
497.97	201.29
498.14	280.86
498.32	231.71
498.50	280.86
498.67	243.42
498.85	184.90
499.03	229.37
499.20	215.33
499.38	273.84
499.56	236.39
499.73	201.29
499.91	383.85
500.08	264.48
500.26	229.37
500.44	220.01
500.61	229.37
500.79	241.08
500.97	250.44
501.14	278.52
501.32	259.80
501.49	255.12
501.67	215.33
501.84	273.84
502.02	229.37
502.20	224.69
502.37	276.18
502.55	212.99
502.72	163.84
502.90	236.39
503.07	229.37
503.25	205.97
503.43	131.07
503.60	215.33
503.78	250.44
503.95	220.01
504.13	187.24
504.30	154.48
504.48	252.78
504.65	255.12
504.83	273.84
505.01	191.92
505.18	198.95
505.36	299.59
505.53	276.18
505.71	215.33
505.88	243.42
506.06	222.35
506.23	227.03
506.41	266.82
506.58	292.57
506.76	276.18
506.93	210.65
507.11	212.99
507.28	255.12
507.46	198.95
507.63	271.50
507.81	131.07
507.98	220.01
508.16	257.46
508.33	262.14
508.50	191.92
508.68	189.58
508.85	250.44
509.03	175.54
509.20	198.95
509.38	290.23
509.55	313.63
509.73	245.76
509.90	231.71
510.08	266.82
510.25	257.46
510.42	245.76
510.60	210.65
510.77	290.23
510.95	252.78
511.12	187.24
511.30	287.89
511.47	304.27
511.64	318.31
511.82	259.80
511.99	276.18
512.17	217.67
512.34	248.10
512.51	217.67
512.69	189.58
512.86	252.78
513.04	248.10
513.21	145.11
513.38	227.03
513.56	243.42
513.73	299.59
513.90	248.10
514.08	271.50
514.25	224.69
514.43	205.97
514.60	245.76
514.77	205.97
514.95	257.46
515.12	266.82
515.29	227.03
515.47	262.14
515.64	187.24
515.81	236.39
515.99	308.95
516.16	301.93
516.33	234.05
516.51	224.69
516.68	241.08
516.85	322.99
517.03	229.37
517.20	229.37
517.37	262.14
517.54	203.63
517.72	236.39
517.89	170.86
518.06	140.43
518.24	294.91
518.41	212.99
518.58	264.48
518.75	222.35
518.93	273.84
519.10	259.80
519.27	250.44
519.45	187.24
519.62	262.14
519.79	231.71
519.96	154.48
520.14	269.16
520.31	264.48
520.48	217.67
520.65	217.67
520.83	243.42
521.00	248.10
521.17	276.18
521.34	297.25
521.52	276.18
521.69	191.92
521.86	231.71
522.03	229.37
522.20	180.22
522.38	210.65
522.55	170.86
522.72	241.08
522.89	287.89
523.07	325.33
523.24	262.14
523.41	198.95
523.58	227.03
523.75	257.46
523.92	294.91
524.10	280.86
524.27	248.10
524.44	257.46
524.61	355.76
524.78	217.67
524.96	196.60
525.13	245.76
525.30	271.50
525.47	358.10
525.64	294.91
525.81	276.18
525.98	283.20
526.16	278.52
526.33	245.76
526.50	220.01
526.67	173.20
526.84	231.71
527.01	325.33
527.18	283.20
527.36	234.05
527.53	227.03
527.70	271.50
527.87	201.29
528.04	311.29
528.21	229.37
528.38	325.33
528.55	315.97
528.72	341.72
528.89	351.08
529.07	276.18
529.24	290.23
529.41	238.73
529.58	290.23
529.75	292.57
529.92	290.23
530.09	205.97
530.26	304.27
530.43	308.95
530.60	220.01
530.77	257.46
530.94	313.63
531.11	234.05
531.28	224.69
531.46	266.82
531.63	285.55
531.80	231.71
531.97	248.10
532.14	252.78
532.31	241.08
532.48	224.69
532.65	339.38
532.82	255.12
532.99	210.65
533.16	297.25
533.33	217.67
533.50	222.35
533.67	280.86
533.84	264.48
534.01	278.52
534.18	262.14
534.35	271.50
534.52	229.37
534.69	250.44
534.86	306.61
535.03	259.80
535.20	259.80
535.37	301.93
535.54	280.86
535.71	276.18
535.88	301.93
536.05	241.08
536.22	250.44
536.38	283.20
536.55	215.33
536.72	334.70
536.89	250.44
537.06	292.57
537.23	327.68
537.40	182.56
537.57	299.59
537.74	304.27
537.91	273.84
538.08	292.57
538.25	358.10
538.42	255.12
538.59	210.65
538.75	264.48
538.92	304.27
539.09	362.78
539.26	236.39
539.43	304.27
539.60	283.20
539.77	355.76
539.94	372.15
540.11	255.12
540.28	315.97
540.44	423.64
540.61	313.63
540.78	290.23
540.95	372.15
541.12	496.19
541.29	383.85
541.46	456.40
541.62	433.00
541.79	358.10
541.96	418.96
542.13	418.96
542.30	465.77
542.47	374.49
542.63	367.46
542.80	369.80
542.97	479.81
543.14	397.89
543.31	393.21
543.48	381.51
543.64	440.02
543.81	414.27
543.98	472.79
544.15	404.91
544.32	332.36
544.48	425.98
544.65	369.80
544.82	372.15
544.99	367.46
545.16	440.02
545.32	421.30
545.49	578.11
545.66	751.31
545.83	653.01
546.00	716.20
546.16	521.94
546.33	465.77
546.50	379.17
546.67	383.85
546.83	322.99
547.00	362.78
547.17	358.10
547.34	327.68
547.50	322.99
547.67	325.33
547.84	353.42
548.00	341.72
548.17	306.61
548.34	334.70
548.51	292.57
548.67	339.38
548.84	339.38
549.01	294.91
549.18	290.23
549.34	360.44
549.51	273.84
549.68	290.23
549.84	290.23
550.01	322.99
550.18	447.04
550.34	360.44
550.51	297.25
550.68	301.93
550.84	325.33
551.01	353.42
551.18	348.74
551.34	320.65
551.51	285.55
551.68	271.50
551.84	297.25
552.01	224.69
552.18	334.70
552.34	294.91
552.51	255.12
552.68	337.04
552.84	318.31
553.01	283.20
553.18	334.70
553.34	210.65
553.51	243.42
553.67	299.59
553.84	210.65
554.01	285.55
554.17	355.76
554.34	266.82
554.51	318.31
554.67	299.59
554.84	285.55
555.00	252.78
555.17	299.59
555.33	271.50
555.50	278.52
555.67	212.99
555.83	250.44
556.00	257.46
556.16	442.36
556.33	266.82
556.50	257.46
556.66	304.27
556.83	257.46
556.99	222.35
557.16	250.44
557.32	259.80
557.49	353.42
557.65	273.84
557.82	250.44
557.98	203.63
558.15	236.39
558.32	212.99
558.48	266.82
558.65	245.76
558.81	290.23
558.98	248.10
559.14	299.59
559.31	266.82
559.47	306.61
559.64	245.76
559.80	271.50
559.97	177.88
560.13	210.65
560.30	212.99
560.46	273.84
560.63	224.69
560.79	231.71
560.96	229.37
561.12	231.71
561.29	224.69
561.45	283.20
561.61	330.02
561.78	365.12
561.94	152.13
562.11	205.97
562.27	205.97
562.44	227.03
562.60	266.82
562.77	290.23
562.93	297.25
563.10	308.95
563.26	182.56
563.42	285.55
563.59	266.82
563.75	262.14
563.92	243.42
564.08	222.35
564.24	285.55
564.41	283.20
564.57	173.20
564.74	196.60
564.90	208.31
565.07	243.42
565.23	304.27
565.39	285.55
565.56	227.03
565.72	187.24
565.88	269.16
566.05	205.97
566.21	215.33
566.38	308.95
566.54	234.05
566.70	266.82
566.87	236.39
567.03	170.86
567.19	273.84
567.36	259.80
567.52	201.29
567.68	227.03
567.85	180.22
568.01	196.60
568.17	208.31
568.34	250.44
568.50	257.46
568.66	198.95
568.83	320.65
568.99	182.56
569.15	311.29
569.32	248.10
569.48	184.90
569.64	229.37
569.81	269.16
569.97	138.09
570.13	257.46
570.30	184.90
570.46	245.76
570.62	222.35
570.78	159.16
570.95	184.90
571.11	322.99
571.27	238.73
571.43	201.29
571.60	212.99
571.76	159.16
571.92	182.56
572.09	182.56
572.25	229.37
572.41	187.24
572.57	234.05
572.74	241.08
572.90	238.73
573.06	238.73
573.22	243.42
573.38	292.57
573.55	208.31
573.71	243.42
573.87	210.65
574.03	191.92
574.20	243.42
574.36	264.48
574.52	255.12
574.68	236.39
574.84	245.76
575.01	184.90
575.17	231.71
575.33	241.08
575.49	194.26
575.65	236.39
575.82	250.44
575.98	297.25
576.14	227.03
576.30	292.57
576.46	259.80
576.62	358.10
576.79	285.55
576.95	301.93
577.11	262.14
577.27	208.31
577.43	241.08
577.59	257.46
577.75	278.52
577.92	285.55
578.08	215.33
578.24	203.63
578.40	297.25
578.56	299.59
578.72	393.21
578.88	346.40
579.04	250.44
579.21	294.91
579.37	313.63
579.53	212.99
579.69	313.63
579.85	292.57
580.01	320.65
580.17	301.93
580.33	259.80
580.49	358.10
580.65	308.95
580.82	227.03
580.98	229.37
581.14	208.31
581.30	257.46
581.46	301.93
581.62	278.52
581.78	290.23
581.94	308.95
582.10	313.63
582.26	322.99
582.42	325.33
582.58	231.71
582.74	259.80
582.90	250.44
583.06	362.78
583.22	252.78
583.38	290.23
583.54	250.44
583.70	276.18
583.86	390.87
584.02	304.27
584.18	351.08
584.34	236.39
584.50	287.89
584.66	498.53
584.82	709.18
584.98	933.87
585.14	781.74
585.30	653.01
585.46	557.05
585.62	430.66
585.78	334.70
585.94	262.14
586.10	285.55
586.26	262.14
586.42	351.08
586.58	299.59
586.74	287.89
586.90	283.20
587.06	259.80
587.22	322.99
587.38	369.80
587.54	271.50
587.70	330.02
587.86	339.38
588.02	322.99
588.18	280.86
588.34	292.57
588.49	257.46
588.65	259.80
588.81	252.78
588.97	227.03
589.13	252.78
589.29	236.39
589.45	269.16
589.61	276.18
589.77	208.31
589.93	201.29
590.08	229.37
590.24	280.86
590.40	234.05
590.56	236.39
590.72	283.20
590.88	285.55
591.04	229.37
591.20	210.65
591.35	257.46
591.51	201.29
591.67	297.25
591.83	243.42
591.99	311.29
592.15	301.93
592.31	287.89
592.46	344.06
592.62	273.84
592.78	280.86
592.94	208.31
593.10	262.14
593.26	241.08
593.41	285.55
593.57	339.38
593.73	290.23
593.89	306.61
594.05	250.44
594.20	306.61
594.36	362.78
594.52	393.21
594.68	271.50
594.84	273.84
594.99	313.63
595.15	259.80
595.31	294.91
595.47	231.71
595.62	262.14
595.78	222.35
595.94	250.44
596.10	191.92
596.25	215.33
596.41	269.16
596.57	220.01
596.73	238.73
596.88	196.60
597.04	259.80
597.20	220.01
597.36	229.37
597.51	231.71
597.67	315.97
597.83	198.95
597.99	304.27
598.14	227.03
598.30	264.48
598.46	287.89
598.61	273.84
598.77	259.80
598.93	278.52
599.09	243.42
599.24	346.40
599.40	299.59
599.56	194.26
599.71	236.39
599.87	201.29
600.03	231.71
600.18	205.97
600.34	201.29
600.50	198.95
600.65	198.95
600.81	227.03
600.97	142.77
601.12	248.10
601.28	255.12
601.44	243.42
601.59	252.78
601.75	212.99
601.91	266.82
602.06	234.05
602.22	311.29
602.37	208.31
602.53	243.42
602.69	283.20
602.84	280.86
603.00	243.42
603.16	215.33
603.31	318.31
603.47	238.73
603.62	325.33
603.78	229.37
603.94	210.65
604.09	212.99
604.25	297.25
604.40	259.80
604.56	248.10
604.71	262.14
604.87	280.86
605.03	212.99
605.18	280.86
605.34	231.71
605.49	301.93
605.65	276.18
605.80	196.60
605.96	243.42
606.12	238.73
606.27	255.12
606.43	236.39
606.58	241.08
606.74	280.86
606.89	262.14
607.05	292.57
607.20	299.59
607.36	278.52
607.51	248.10
607.67	322.99
607.82	287.89
607.98	250.44
608.13	325.33
608.29	231.71
608.44	318.31
608.60	271.50
608.75	287.89
608.91	285.55
609.06	355.76
609.22	393.21
609.37	369.80
609.53	327.68
609.68	348.74
609.84	407.25
609.99	346.40
610.15	362.78
610.30	482.15
610.46	479.81
610.61	596.84
610.76	561.73
610.92	704.50
611.07	788.76
611.23	802.80
611.38	737.27
611.54	641.31
611.69	543.00
611.84	545.34
612.00	447.04
612.15	444.70
612.31	449.38
612.46	320.65
612.62	348.74
612.77	395.55
612.92	383.85
613.08	397.89
613.23	390.87
613.39	348.74
613.54	358.10
613.69	397.89
613.85	456.40
614.00	547.69
614.15	571.09
614.31	484.49
614.46	421.30
614.62	400.23
614.77	383.85
614.92	358.10
615.08	322.99
615.23	292.57
615.38	283.20
615.54	257.46
615.69	280.86
615.84	322.99
616.00	297.25
616.15	346.40
616.30	327.68
616.46	273.84
616.61	299.59
616.76	315.97
616.92	332.36
617.07	241.08
617.22	227.03
617.37	241.08
617.53	327.68
617.68	177.88
617.83	222.35
617.99	217.67
618.14	318.31
618.29	280.86
618.45	238.73
618.60	191.92
618.75	205.97
618.90	205.97
619.06	175.54
619.21	250.44
619.36	217.67
619.51	255.12
619.67	266.82
619.82	252.78
619.97	238.73
620.12	271.50
620.28	278.52
620.43	217.67
620.58	304.27
620.73	259.80
620.89	243.42
621.04	255.12
621.19	322.99
621.34	243.42
621.49	198.95
621.65	278.52
621.80	262.14
621.95	154.48
622.10	208.31
622.25	250.44
622.41	283.20
622.56	217.67
622.71	250.44
622.86	273.84
623.01	189.58
623.16	273.84
623.32	259.80
623.47	245.76
623.62	135.75
623.77	243.42
623.92	234.05
624.07	243.42
624.23	222.35
624.38	189.58
624.53	227.03
624.68	262.14
624.83	299.59
624.98	325.33
625.13	252.78
625.29	177.88
625.44	205.97
625.59	180.22
625.74	259.80
625.89	220.01
626.04	170.86
626.19	285.55
626.34	353.42
626.49	369.80
626.65	304.27
626.80	252.78
626.95	262.14
627.10	306.61
627.25	259.80
627.40	243.42
627.55	227.03
627.70	215.33
627.85	243.42
628.00	269.16
628.15	152.13
628.30	224.69
628.45	215.33
628.60	201.29
628.76	227.03
628.91	203.63
629.06	238.73
629.21	245.76
629.36	287.89
629.51	248.10
629.66	294.91
629.81	205.97
629.96	273.84
630.11	299.59
630.26	325.33
630.41	152.13
630.56	283.20
630.71	231.71
630.86	184.90
631.01	290.23
631.16	278.52
631.31	212.99
631.46	306.61
631.61	124.05
631.76	259.80
631.91	210.65
632.06	229.37
632.21	196.60
632.36	238.73
632.51	241.08
632.66	198.95
632.81	180.22
632.96	285.55
633.10	227.03
633.25	306.61
633.40	227.03
633.55	297.25
633.70	292.57
633.85	168.52
634.00	173.20
634.15	147.45
634.30	189.58
634.45	140.43
634.60	175.54
634.75	126.39
634.90	119.37
635.05	184.90
635.19	262.14
635.34	156.82
635.49	227.03
635.64	187.24
635.79	278.52
635.94	182.56
636.09	220.01
636.24	187.24
636.39	245.76
636.53	238.73
636.68	156.82
636.83	264.48
636.98	208.31
637.13	224.69
637.28	168.52
637.43	259.80
637.57	257.46
637.72	250.44
637.87	278.52
638.02	346.40
638.17	320.65
638.32	315.97
638.46	330.02
638.61	229.37
638.76	142.77
638.91	189.58
639.06	177.88
639.20	252.78
639.35	236.39
639.50	215.33
639.65	285.55
639.80	330.02
639.94	374.49
640.09	367.46
640.24	365.12
640.39	353.42
640.54	344.06
640.68	250.44
640.83	271.50
640.98	189.58
641.13	236.39
641.27	140.43
641.42	205.97
641.57	196.60
641.72	212.99
641.86	191.92
642.01	154.48
642.16	234.05
642.31	212.99
642.45	191.92
642.60	133.41
642.75	187.24
642.90	229.37
643.04	250.44
643.19	236.39
643.34	126.39
643.48	220.01
643.63	215.33
643.78	304.27
643.93	194.26
644.07	138.09
644.22	180.22
644.37	121.71
644.51	187.24
644.66	184.90
644.81	196.60
644.95	231.71
645.10	198.95
645.25	203.63
645.39	159.16
645.54	201.29
645.69	245.76
645.83	243.42
645.98	212.99
646.13	201.29
646.27	234.05
646.42	198.95
646.57	135.75
646.71	102.98
646.86	119.37
647.00	231.71
647.15	175.54
647.30	194.26
647.44	205.97
647.59	210.65
647.74	191.92
647.88	198.95
648.03	222.35
648.17	208.31
648.32	184.90
648.47	222.35
648.61	173.20
648.76	168.52
648.90	217.67
649.05	203.63
649.20	187.24
649.34	140.43
649.49	154.48
649.63	252.78
649.78	205.97
649.92	182.56
650.07	241.08
650.21	255.12
650.36	332.36
650.51	360.44
650.65	369.80
650.80	241.08
650.94	255.12
651.09	100.64
651.23	196.60
651.38	187.24
651.52	210.65
651.67	184.90
651.81	234.05
651.96	231.71
652.10	243.42
652.25	236.39
652.39	271.50
652.54	222.35
652.68	152.13
652.83	217.67
652.97	194.26
653.12	194.26
653.26	177.88
653.41	182.56
653.55	182.56
653.70	152.13
653.84	234.05
653.99	198.95
654.13	229.37
654.27	205.97
654.42	142.77
654.56	159.16
654.71	227.03
654.85	205.97
655.00	184.90
655.14	196.60
655.29	194.26
655.43	145.11
655.57	126.39
655.72	145.11
655.86	201.29
656.01	194.26
656.15	168.52
656.30	241.08
656.44	243.42
656.58	187.24
656.73	175.54
656.87	112.35
657.01	198.95
657.16	262.14
657.30	248.10
657.45	142.77
657.59	203.63
657.73	210.65
657.88	145.11
658.02	280.86
658.16	152.13
658.31	163.84
658.45	191.92
658.60	145.11
658.74	149.79
658.88	210.65
659.03	145.11
659.17	196.60
659.31	257.46
659.46	212.99
659.60	212.99
659.74	182.56
659.89	227.03
660.03	243.42
660.17	220.01
660.32	222.35
660.46	187.24
660.60	170.86
660.74	215.33
660.89	191.92
661.03	203.63
661.17	84.26
661.32	170.86
661.46	208.31
661.60	196.60
661.74	161.50
661.89	243.42
662.03	217.67
662.17	257.46
662.31	259.80
662.46	201.29
662.60	184.90
662.74	184.90
662.88	208.31
663.03	231.71
663.17	163.84
663.31	110.01
663.45	229.37
663.60	201.29
663.74	105.32
663.88	124.05
664.02	208.31
664.17	203.63
664.31	177.88
664.45	217.67
664.59	212.99
664.73	208.31
664.88	208.31
665.02	168.52
665.16	208.31
665.30	257.46
665.44	177.88
665.59	222.35
665.73	208.31
665.87	142.77
666.01	175.54
666.15	159.16
666.29	208.31
666.44	203.63
666.58	292.57
666.72	67.88
666.86	166.18
667.00	196.60
667.14	107.66
667.28	161.50
667.43	322.99
667.57	257.46
667.71	334.70
667.85	318.31
667.99	243.42
668.13	241.08
668.27	220.01
668.41	184.90
668.56	189.58
668.70	243.42
668.84	205.97
668.98	173.20
669.12	147.45
669.26	166.18
669.40	238.73
669.54	126.39
669.68	198.95
669.82	126.39
669.96	203.63
670.10	229.37
670.25	184.90
670.39	212.99
670.53	203.63
670.67	255.12
670.81	119.37
670.95	175.54
671.09	161.50
671.23	238.73
671.37	241.08
671.51	290.23
671.65	224.69
671.79	212.99
671.93	212.99
672.07	191.92
672.21	187.24
672.35	124.05
672.49	198.95
672.63	212.99
672.77	194.26
672.91	175.54
673.05	156.82
673.19	194.26
673.33	142.77
673.47	203.63
673.61	196.60
673.75	203.63
673.89	145.11
674.03	168.52
674.17	154.48
674.31	173.20
674.45	189.58
674.59	196.60
674.73	166.18
674.87	191.92
675.01	257.46
675.15	210.65
675.29	259.80
675.43	259.80
675.56	245.76
675.70	227.03
675.84	128.73
675.98	152.13
676.12	191.92
676.26	187.24
676.40	105.32
676.54	201.29
676.68	191.92
676.82	241.08
676.96	168.52
677.10	163.84
677.23	138.09
677.37	212.99
677.51	245.76
677.65	276.18
677.79	180.22
677.93	152.13
678.07	210.65
678.21	243.42
678.34	203.63
678.48	154.48
678.62	161.50
678.76	88.94
678.90	166.18
679.04	182.56
679.18	147.45
679.31	163.84
679.45	138.09
679.59	138.09
679.73	205.97
679.87	245.76
680.00	173.20
680.14	180.22
680.28	189.58
680.42	191.92
680.56	131.07
680.70	156.82
680.83	170.86
680.97	131.07
681.11	196.60
681.25	142.77
681.39	250.44
681.52	117.03
681.66	117.03
681.80	140.43
681.94	154.48
682.07	128.73
682.21	161.50
682.35	159.16
682.49	163.84
682.62	177.88
682.76	175.54
682.90	194.26
683.04	170.86
683.17	121.71
683.31	154.48
683.45	135.75
683.59	177.88
683.72	201.29
683.86	154.48
684.00	166.18
684.13	182.56
684.27	161.50
684.41	154.48
684.55	189.58
684.68	175.54
684.82	142.77
684.96	168.52
685.09	138.09
685.23	107.66
685.37	135.75
685.50	163.84
685.64	205.97
685.78	140.43
685.91	194.26
686.05	208.31
686.19	205.97
686.32	152.13
686.46	161.50
686.60	142.77
686.73	212.99
686.87	198.95
687.01	159.16
687.14	117.03
687.28	177.88
687.42	208.31
687.55	177.88
687.69	255.12
687.82	156.82
687.96	145.11
688.10	201.29
688.23	208.31
688.37	159.16
688.50	212.99
688.64	142.77
688.78	175.54
688.91	124.05
689.05	124.05
689.18	110.01
689.32	154.48
689.46	266.82
689.59	159.16
689.73	152.13
689.86	166.18
690.00	110.01
690.13	184.90
690.27	140.43
690.41	149.79
690.54	191.92
690.68	145.11
690.81	138.09
690.95	196.60
691.08	156.82
691.22	138.09
691.35	152.13
691.49	72.56
691.62	177.88
691.76	140.43
691.89	217.67
692.03	128.73
692.16	107.66
692.30	131.07
692.43	212.99
692.57	156.82
692.70	180.22
692.84	205.97
692.97	163.84
693.11	205.97
693.24	189.58
693.38	191.92
693.51	135.75
693.65	182.56
693.78	156.82
693.92	133.41
694.05	128.73
694.19	117.03
694.32	220.01
694.45	182.56
694.59	156.82
694.72	112.35
694.86	100.64
694.99	154.48
695.13	74.90
695.26	173.20
695.39	182.56
695.53	215.33
695.66	138.09
695.80	234.05
695.93	168.52
696.07	184.90
696.20	88.94
696.33	121.71
696.47	208.31
696.60	149.79
696.73	159.16
696.87	112.35
697.00	222.35
697.14	124.05
697.27	238.73
697.40	205.97
697.54	117.03
697.67	201.29
697.80	173.20
697.94	135.75
698.07	119.37
698.21	208.31
698.34	112.35
698.47	154.48
698.61	166.18
698.74	133.41
698.87	93.62
699.01	81.92
699.14	135.75
699.27	215.33
699.40	203.63
699.54	161.50
699.67	147.45
699.80	205.97
699.94	131.07
700.07	112.35
700.20	175.54
700.34	182.56
700.47	105.32
700.60	170.86
700.73	128.73
700.87	224.69
701.00	138.09
701.13	117.03
701.26	145.11
701.40	191.92
701.53	100.64
701.66	145.11
701.79	163.84
701.93	168.52
702.06	212.99
702.19	131.07
702.32	224.69
702.46	100.64
702.59	180.22
702.72	184.90
702.85	189.58
702.99	271.50
703.12	205.97
703.25	184.90
703.38	187.24
703.51	168.52
703.65	189.58
703.78	243.42
703.91	262.14
704.04	196.60
704.17	154.48
704.31	159.16
704.44	173.20
704.57	203.63
704.70	210.65
704.83	135.75
704.96	180.22
705.10	196.60
705.23	201.29
>>>>>End Processed Spectral Data<<<<<
