SpectraSuite Data File
++++++++++++++++++++++++++++++++++++
Date: Fri Oct 04 11:33:52 GMT-05:00 2013
User: price-jones
Dark Spectrum Present: No
Reference Spectrum Present: No
Number of Sampled Component Spectra: 1
Spectrometers: USB2+H05261
Integration Time (usec): 100000 (USB2+H05261)
Spectra Averaged: 1 (USB2+H05261)
Boxcar Smoothing: 0 (USB2+H05261)
Correct for Electrical Dark: No (USB2+H05261)
Strobe/Lamp Enabled: No (USB2+H05261)
Correct for Detector Non-linearity: No (USB2+H05261)
Correct for Stray Light: No (USB2+H05261)
Number of Pixels in Processed Spectrum: 2048
>>>>>Begin Processed Spectral Data<<<<<
365.73	72.56
365.92	72.56
366.12	72.56
366.32	0.00
366.52	0.00
366.72	0.00
366.91	4.68
367.11	0.00
367.31	0.00
367.51	0.00
367.70	0.00
367.90	44.47
368.10	0.00
368.30	0.00
368.49	0.00
368.69	0.00
368.89	0.00
369.09	0.00
369.28	0.00
369.48	56.17
369.68	11.70
369.87	0.00
370.07	0.00
370.27	88.94
370.47	93.62
370.66	60.85
370.86	79.58
371.06	49.15
371.25	77.24
371.45	72.56
371.65	135.75
371.84	105.32
372.04	175.54
372.24	140.43
372.44	124.05
372.63	93.62
372.83	177.88
373.03	191.92
373.22	154.48
373.42	93.62
373.62	152.13
373.81	196.60
374.01	142.77
374.21	112.35
374.40	133.41
374.60	163.84
374.79	168.52
374.99	161.50
375.19	154.48
375.38	159.16
375.58	131.07
375.78	128.73
375.97	243.42
376.17	205.97
376.37	212.99
376.56	161.50
376.76	166.18
376.95	138.09
377.15	166.18
377.35	100.64
377.54	201.29
377.74	135.75
377.93	156.82
378.13	182.56
378.33	140.43
378.52	175.54
378.72	175.54
378.91	133.41
379.11	175.54
379.31	154.48
379.50	30.43
379.70	217.67
379.89	149.79
380.09	170.86
380.28	63.19
380.48	140.43
380.68	112.35
380.87	51.49
381.07	166.18
381.26	168.52
381.46	114.69
381.65	107.66
381.85	102.98
382.04	191.92
382.24	114.69
382.43	105.32
382.63	131.07
382.83	119.37
383.02	182.56
383.22	140.43
383.41	98.30
383.61	205.97
383.80	128.73
384.00	105.32
384.19	53.83
384.39	168.52
384.58	114.69
384.78	112.35
384.97	231.71
385.17	203.63
385.36	182.56
385.56	102.98
385.75	140.43
385.95	81.92
386.14	105.32
386.34	156.82
386.53	100.64
386.72	86.60
386.92	196.60
387.11	191.92
387.31	152.13
387.50	112.35
387.70	124.05
387.89	117.03
388.09	70.22
388.28	72.56
388.48	91.28
388.67	149.79
388.86	170.86
389.06	163.84
389.25	147.45
389.45	189.58
389.64	49.15
389.84	140.43
390.03	196.60
390.22	117.03
390.42	140.43
390.61	126.39
390.81	128.73
391.00	138.09
391.19	191.92
391.39	119.37
391.58	159.16
391.78	121.71
391.97	180.22
392.16	126.39
392.36	184.90
392.55	189.58
392.75	175.54
392.94	145.11
393.13	149.79
393.33	100.64
393.52	112.35
393.71	189.58
393.91	175.54
394.10	135.75
394.29	163.84
394.49	133.41
394.68	201.29
394.88	140.43
395.07	196.60
395.26	159.16
395.46	156.82
395.65	159.16
395.84	121.71
396.04	196.60
396.23	156.82
396.42	152.13
396.62	105.32
396.81	180.22
397.00	145.11
397.19	175.54
397.39	100.64
397.58	124.05
397.77	168.52
397.97	117.03
398.16	138.09
398.35	147.45
398.55	138.09
398.74	154.48
398.93	140.43
399.12	210.65
399.32	163.84
399.51	154.48
399.70	145.11
399.90	149.79
400.09	182.56
400.28	133.41
400.47	138.09
400.67	149.79
400.86	215.33
401.05	168.52
401.24	112.35
401.44	147.45
401.63	191.92
401.82	124.05
402.01	131.07
402.21	93.62
402.40	149.79
402.59	138.09
402.78	147.45
402.97	121.71
403.17	184.90
403.36	84.26
403.55	222.35
403.74	149.79
403.93	248.10
404.13	163.84
404.32	257.46
404.51	231.71
404.70	65.54
404.89	100.64
405.09	152.13
405.28	131.07
405.47	163.84
405.66	124.05
405.85	187.24
406.05	126.39
406.24	102.98
406.43	156.82
406.62	180.22
406.81	191.92
407.00	180.22
407.20	198.95
407.39	84.26
407.58	126.39
407.77	182.56
407.96	121.71
408.15	177.88
408.34	187.24
408.54	121.71
408.73	166.18
408.92	245.76
409.11	194.26
409.30	154.48
409.49	156.82
409.68	131.07
409.87	133.41
410.07	133.41
410.26	189.58
410.45	145.11
410.64	126.39
410.83	131.07
411.02	142.77
411.21	163.84
411.40	196.60
411.59	191.92
411.78	105.32
411.98	173.20
412.17	196.60
412.36	170.86
412.55	124.05
412.74	149.79
412.93	196.60
413.12	110.01
413.31	142.77
413.50	187.24
413.69	133.41
413.88	147.45
414.07	191.92
414.26	198.95
414.45	156.82
414.64	222.35
414.83	175.54
415.02	142.77
415.22	145.11
415.41	212.99
415.60	177.88
415.79	173.20
415.98	215.33
416.17	145.11
416.36	175.54
416.55	156.82
416.74	241.08
416.93	234.05
417.12	142.77
417.31	95.96
417.50	154.48
417.69	145.11
417.88	189.58
418.07	173.20
418.26	196.60
418.45	102.98
418.64	196.60
418.83	128.73
419.02	163.84
419.21	154.48
419.39	107.66
419.58	142.77
419.77	180.22
419.96	107.66
420.15	161.50
420.34	198.95
420.53	257.46
420.72	187.24
420.91	170.86
421.10	180.22
421.29	114.69
421.48	175.54
421.67	114.69
421.86	121.71
422.05	124.05
422.24	86.60
422.43	156.82
422.61	152.13
422.80	140.43
422.99	236.39
423.18	175.54
423.37	187.24
423.56	196.60
423.75	177.88
423.94	140.43
424.13	145.11
424.32	128.73
424.50	121.71
424.69	156.82
424.88	243.42
425.07	198.95
425.26	149.79
425.45	194.26
425.64	248.10
425.83	217.67
426.01	196.60
426.20	184.90
426.39	163.84
426.58	119.37
426.77	168.52
426.96	147.45
427.15	234.05
427.33	145.11
427.52	196.60
427.71	140.43
427.90	156.82
428.09	196.60
428.28	142.77
428.46	156.82
428.65	231.71
428.84	220.01
429.03	180.22
429.22	203.63
429.40	198.95
429.59	180.22
429.78	196.60
429.97	212.99
430.16	152.13
430.34	220.01
430.53	220.01
430.72	168.52
430.91	196.60
431.10	107.66
431.28	119.37
431.47	220.01
431.66	152.13
431.85	124.05
432.03	98.30
432.22	154.48
432.41	238.73
432.60	175.54
432.79	224.69
432.97	182.56
433.16	231.71
433.35	133.41
433.54	142.77
433.72	222.35
433.91	177.88
434.10	182.56
434.28	201.29
434.47	189.58
434.66	215.33
434.85	198.95
435.03	243.42
435.22	273.84
435.41	315.97
435.59	308.95
435.78	287.89
435.97	180.22
436.16	191.92
436.34	208.31
436.53	170.86
436.72	208.31
436.90	217.67
437.09	215.33
437.28	163.84
437.46	184.90
437.65	56.17
437.84	135.75
438.02	170.86
438.21	203.63
438.40	152.13
438.58	124.05
438.77	227.03
438.96	177.88
439.14	177.88
439.33	257.46
439.52	198.95
439.70	187.24
439.89	166.18
440.08	126.39
440.26	231.71
440.45	205.97
440.63	194.26
440.82	222.35
441.01	184.90
441.19	180.22
441.38	93.62
441.57	177.88
441.75	154.48
441.94	196.60
442.12	224.69
442.31	140.43
442.50	112.35
442.68	212.99
442.87	194.26
443.05	217.67
443.24	180.22
443.43	182.56
443.61	234.05
443.80	212.99
443.98	107.66
444.17	189.58
444.35	187.24
444.54	163.84
444.73	212.99
444.91	236.39
445.10	100.64
445.28	149.79
445.47	180.22
445.65	177.88
445.84	161.50
446.02	201.29
446.21	215.33
446.39	175.54
446.58	201.29
446.77	140.43
446.95	177.88
447.14	201.29
447.32	170.86
447.51	119.37
447.69	198.95
447.88	166.18
448.06	224.69
448.25	154.48
448.43	175.54
448.62	145.11
448.80	231.71
448.99	196.60
449.17	248.10
449.36	198.95
449.54	166.18
449.73	117.03
449.91	191.92
450.10	110.01
450.28	241.08
450.46	245.76
450.65	334.70
450.83	182.56
451.02	182.56
451.20	163.84
451.39	177.88
451.57	217.67
451.76	205.97
451.94	180.22
452.13	252.78
452.31	243.42
452.49	210.65
452.68	140.43
452.86	201.29
453.05	243.42
453.23	194.26
453.42	194.26
453.60	194.26
453.78	203.63
453.97	119.37
454.15	222.35
454.34	112.35
454.52	128.73
454.70	269.16
454.89	196.60
455.07	243.42
455.26	170.86
455.44	124.05
455.62	217.67
455.81	234.05
455.99	184.90
456.17	128.73
456.36	203.63
456.54	229.37
456.73	149.79
456.91	147.45
457.09	229.37
457.28	227.03
457.46	205.97
457.64	170.86
457.83	154.48
458.01	156.82
458.19	175.54
458.38	166.18
458.56	208.31
458.74	168.52
458.93	198.95
459.11	149.79
459.29	205.97
459.48	227.03
459.66	241.08
459.84	168.52
460.03	327.68
460.21	203.63
460.39	201.29
460.57	311.29
460.76	170.86
460.94	126.39
461.12	191.92
461.31	222.35
461.49	217.67
461.67	166.18
461.85	236.39
462.04	166.18
462.22	512.58
462.40	175.54
462.59	241.08
462.77	149.79
462.95	222.35
463.13	163.84
463.32	212.99
463.50	187.24
463.68	205.97
463.86	238.73
464.05	191.92
464.23	250.44
464.41	224.69
464.59	163.84
464.78	234.05
464.96	112.35
465.14	227.03
465.32	212.99
465.50	189.58
465.69	191.92
465.87	140.43
466.05	250.44
466.23	117.03
466.41	168.52
466.60	224.69
466.78	241.08
466.96	208.31
467.14	205.97
467.32	210.65
467.51	194.26
467.69	161.50
467.87	187.24
468.05	266.82
468.23	187.24
468.41	252.78
468.60	259.80
468.78	184.90
468.96	201.29
469.14	163.84
469.32	191.92
469.50	175.54
469.69	234.05
469.87	189.58
470.05	182.56
470.23	220.01
470.41	217.67
470.59	173.20
470.77	203.63
470.95	102.98
471.14	184.90
471.32	154.48
471.50	212.99
471.68	241.08
471.86	117.03
472.04	229.37
472.22	166.18
472.40	154.48
472.58	152.13
472.77	154.48
472.95	196.60
473.13	238.73
473.31	250.44
473.49	217.67
473.67	203.63
473.85	205.97
474.03	210.65
474.21	180.22
474.39	238.73
474.57	238.73
474.75	198.95
474.93	231.71
475.12	147.45
475.30	187.24
475.48	173.20
475.66	224.69
475.84	149.79
476.02	203.63
476.20	222.35
476.38	187.24
476.56	255.12
476.74	187.24
476.92	208.31
477.10	224.69
477.28	224.69
477.46	229.37
477.64	189.58
477.82	205.97
478.00	112.35
478.18	182.56
478.36	205.97
478.54	194.26
478.72	133.41
478.90	175.54
479.08	217.67
479.26	231.71
479.44	201.29
479.62	163.84
479.80	154.48
479.98	215.33
480.16	145.11
480.34	222.35
480.52	175.54
480.70	273.84
480.88	154.48
481.06	191.92
481.24	180.22
481.41	229.37
481.59	234.05
481.77	180.22
481.95	184.90
482.13	236.39
482.31	278.52
482.49	184.90
482.67	170.86
482.85	163.84
483.03	154.48
483.21	224.69
483.39	215.33
483.57	145.11
483.74	234.05
483.92	238.73
484.10	161.50
484.28	238.73
484.46	252.78
484.64	229.37
484.82	252.78
485.00	215.33
485.18	201.29
485.35	245.76
485.53	201.29
485.71	227.03
485.89	135.75
486.07	215.33
486.25	276.18
486.43	210.65
486.61	304.27
486.78	294.91
486.96	201.29
487.14	276.18
487.32	177.88
487.50	243.42
487.68	227.03
487.85	250.44
488.03	259.80
488.21	292.57
488.39	220.01
488.57	301.93
488.75	269.16
488.92	503.22
489.10	138.09
489.28	290.23
489.46	191.92
489.64	269.16
489.81	215.33
489.99	271.50
490.17	264.48
490.35	332.36
490.53	245.76
490.70	308.95
490.88	318.31
491.06	184.90
491.24	238.73
491.41	292.57
491.59	245.76
491.77	243.42
491.95	217.67
492.13	159.16
492.30	236.39
492.48	245.76
492.66	224.69
492.84	241.08
493.01	248.10
493.19	168.52
493.37	266.82
493.54	222.35
493.72	262.14
493.90	212.99
494.08	229.37
494.25	259.80
494.43	191.92
494.61	264.48
494.79	203.63
494.96	191.92
495.14	217.67
495.32	191.92
495.49	255.12
495.67	210.65
495.85	220.01
496.02	234.05
496.20	215.33
496.38	241.08
496.55	255.12
496.73	250.44
496.91	224.69
497.09	269.16
497.26	283.20
497.44	264.48
497.62	259.80
497.79	236.39
497.97	184.90
498.14	257.46
498.32	252.78
498.50	243.42
498.67	273.84
498.85	194.26
499.03	189.58
499.20	175.54
499.38	280.86
499.56	227.03
499.73	287.89
499.91	191.92
500.08	285.55
500.26	227.03
500.44	276.18
500.61	325.33
500.79	234.05
500.97	217.67
501.14	278.52
501.32	271.50
501.49	236.39
501.67	248.10
501.84	245.76
502.02	227.03
502.20	264.48
502.37	278.52
502.55	241.08
502.72	222.35
502.90	212.99
503.07	308.95
503.25	292.57
503.43	238.73
503.60	217.67
503.78	198.95
503.95	201.29
504.13	203.63
504.30	245.76
504.48	266.82
504.65	322.99
504.83	306.61
505.01	189.58
505.18	243.42
505.36	238.73
505.53	243.42
505.71	234.05
505.88	301.93
506.06	280.86
506.23	236.39
506.41	234.05
506.58	231.71
506.76	224.69
506.93	243.42
507.11	229.37
507.28	231.71
507.46	234.05
507.63	220.01
507.81	238.73
507.98	301.93
508.16	250.44
508.33	208.31
508.50	245.76
508.68	243.42
508.85	308.95
509.03	250.44
509.20	243.42
509.38	252.78
509.55	266.82
509.73	231.71
509.90	311.29
510.08	215.33
510.25	255.12
510.42	276.18
510.60	315.97
510.77	252.78
510.95	304.27
511.12	212.99
511.30	369.80
511.47	252.78
511.64	273.84
511.82	306.61
511.99	259.80
512.17	203.63
512.34	231.71
512.51	262.14
512.69	245.76
512.86	248.10
513.04	292.57
513.21	222.35
513.38	184.90
513.56	215.33
513.73	142.77
513.90	163.84
514.08	201.29
514.25	227.03
514.43	177.88
514.60	222.35
514.77	262.14
514.95	210.65
515.12	210.65
515.29	177.88
515.47	280.86
515.64	334.70
515.81	187.24
515.99	255.12
516.16	250.44
516.33	346.40
516.51	250.44
516.68	212.99
516.85	205.97
517.03	245.76
517.20	215.33
517.37	227.03
517.54	257.46
517.72	201.29
517.89	180.22
518.06	224.69
518.24	271.50
518.41	273.84
518.58	313.63
518.75	224.69
518.93	212.99
519.10	234.05
519.27	236.39
519.45	259.80
519.62	236.39
519.79	297.25
519.96	252.78
520.14	315.97
520.31	308.95
520.48	337.04
520.65	222.35
520.83	243.42
521.00	287.89
521.17	299.59
521.34	196.60
521.52	255.12
521.69	264.48
521.86	255.12
522.03	264.48
522.20	255.12
522.38	224.69
522.55	243.42
522.72	229.37
522.89	156.82
523.07	250.44
523.24	210.65
523.41	248.10
523.58	229.37
523.75	269.16
523.92	227.03
524.10	231.71
524.27	222.35
524.44	236.39
524.61	315.97
524.78	168.52
524.96	198.95
525.13	273.84
525.30	325.33
525.47	252.78
525.64	231.71
525.81	285.55
525.98	152.13
526.16	320.65
526.33	224.69
526.50	252.78
526.67	280.86
526.84	285.55
527.01	248.10
527.18	318.31
527.36	290.23
527.53	266.82
527.70	210.65
527.87	271.50
528.04	266.82
528.21	245.76
528.38	269.16
528.55	322.99
528.72	238.73
528.89	245.76
529.07	194.26
529.24	238.73
529.41	294.91
529.58	280.86
529.75	285.55
529.92	264.48
530.09	264.48
530.26	297.25
530.43	269.16
530.60	229.37
530.77	266.82
530.94	271.50
531.11	290.23
531.28	257.46
531.46	276.18
531.63	327.68
531.80	327.68
531.97	308.95
532.14	208.31
532.31	278.52
532.48	259.80
532.65	241.08
532.82	252.78
532.99	297.25
533.16	311.29
533.33	278.52
533.50	231.71
533.67	266.82
533.84	365.12
534.01	304.27
534.18	245.76
534.35	337.04
534.52	229.37
534.69	311.29
534.86	322.99
535.03	262.14
535.20	318.31
535.37	238.73
535.54	262.14
535.71	217.67
535.88	278.52
536.05	299.59
536.22	255.12
536.38	250.44
536.55	285.55
536.72	332.36
536.89	252.78
537.06	203.63
537.23	271.50
537.40	304.27
537.57	313.63
537.74	283.20
537.91	308.95
538.08	341.72
538.25	285.55
538.42	297.25
538.59	304.27
538.75	334.70
538.92	369.80
539.09	346.40
539.26	269.16
539.43	372.15
539.60	369.80
539.77	381.51
539.94	358.10
540.11	346.40
540.28	409.59
540.44	372.15
540.61	423.64
540.78	454.06
540.95	454.06
541.12	500.87
541.29	479.81
541.46	470.45
541.62	507.90
541.79	411.93
541.96	407.25
542.13	463.43
542.30	444.70
542.47	414.27
542.63	416.62
542.80	409.59
542.97	486.83
543.14	479.81
543.31	479.81
543.48	376.83
543.64	435.34
543.81	482.15
543.98	355.76
544.15	425.98
544.32	397.89
544.48	428.32
544.65	435.34
544.82	470.45
544.99	411.93
545.16	500.87
545.32	444.70
545.49	603.86
545.66	758.33
545.83	840.25
546.00	725.57
546.16	580.45
546.33	463.43
546.50	388.53
546.67	411.93
546.83	383.85
547.00	430.66
547.17	428.32
547.34	402.57
547.50	306.61
547.67	393.21
547.84	381.51
548.00	353.42
548.17	348.74
548.34	397.89
548.51	374.49
548.67	433.00
548.84	301.93
549.01	337.04
549.18	297.25
549.34	358.10
549.51	290.23
549.68	355.76
549.84	327.68
550.01	238.73
550.18	386.19
550.34	383.85
550.51	334.70
550.68	245.76
550.84	280.86
551.01	327.68
551.18	285.55
551.34	320.65
551.51	252.78
551.68	276.18
551.84	264.48
552.01	322.99
552.18	271.50
552.34	318.31
552.51	311.29
552.68	315.97
552.84	238.73
553.01	278.52
553.18	259.80
553.34	262.14
553.51	292.57
553.67	276.18
553.84	332.36
554.01	292.57
554.17	360.44
554.34	271.50
554.51	236.39
554.67	245.76
554.84	287.89
555.00	250.44
555.17	215.33
555.33	301.93
555.50	325.33
555.67	250.44
555.83	259.80
556.00	234.05
556.16	376.83
556.33	287.89
556.50	168.52
556.66	273.84
556.83	255.12
556.99	259.80
557.16	224.69
557.32	271.50
557.49	273.84
557.65	344.06
557.82	280.86
557.98	276.18
558.15	255.12
558.32	243.42
558.48	217.67
558.65	222.35
558.81	273.84
558.98	243.42
559.14	266.82
559.31	287.89
559.47	285.55
559.64	301.93
559.80	297.25
559.97	217.67
560.13	262.14
560.30	304.27
560.46	236.39
560.63	252.78
560.79	259.80
560.96	259.80
561.12	262.14
561.29	290.23
561.45	313.63
561.61	191.92
561.78	355.76
561.94	257.46
562.11	290.23
562.27	245.76
562.44	280.86
562.60	220.01
562.77	257.46
562.93	304.27
563.10	203.63
563.26	264.48
563.42	308.95
563.59	194.26
563.75	259.80
563.92	262.14
564.08	271.50
564.24	248.10
564.41	245.76
564.57	285.55
564.74	201.29
564.90	198.95
565.07	334.70
565.23	259.80
565.39	294.91
565.56	287.89
565.72	220.01
565.88	210.65
566.05	224.69
566.21	250.44
566.38	337.04
566.54	285.55
566.70	198.95
566.87	205.97
567.03	252.78
567.19	234.05
567.36	243.42
567.52	248.10
567.68	257.46
567.85	241.08
568.01	259.80
568.17	252.78
568.34	131.07
568.50	269.16
568.66	222.35
568.83	297.25
568.99	198.95
569.15	278.52
569.32	205.97
569.48	313.63
569.64	278.52
569.81	177.88
569.97	271.50
570.13	280.86
570.30	166.18
570.46	203.63
570.62	229.37
570.78	187.24
570.95	280.86
571.11	283.20
571.27	269.16
571.43	250.44
571.60	229.37
571.76	243.42
571.92	294.91
572.09	177.88
572.25	210.65
572.41	196.60
572.57	255.12
572.74	294.91
572.90	292.57
573.06	283.20
573.22	290.23
573.38	264.48
573.55	177.88
573.71	278.52
573.87	224.69
574.03	182.56
574.20	285.55
574.36	266.82
574.52	168.52
574.68	238.73
574.84	287.89
575.01	212.99
575.17	257.46
575.33	271.50
575.49	301.93
575.65	236.39
575.82	250.44
575.98	250.44
576.14	299.59
576.30	304.27
576.46	294.91
576.62	318.31
576.79	344.06
576.95	353.42
577.11	220.01
577.27	264.48
577.43	196.60
577.59	262.14
577.75	220.01
577.92	250.44
578.08	262.14
578.24	191.92
578.40	330.02
578.56	341.72
578.72	304.27
578.88	416.62
579.04	383.85
579.21	301.93
579.37	262.14
579.53	222.35
579.69	372.15
579.85	250.44
580.01	285.55
580.17	292.57
580.33	234.05
580.49	311.29
580.65	327.68
580.82	222.35
580.98	297.25
581.14	231.71
581.30	255.12
581.46	271.50
581.62	304.27
581.78	248.10
581.94	248.10
582.10	241.08
582.26	304.27
582.42	243.42
582.58	297.25
582.74	346.40
582.90	369.80
583.06	339.38
583.22	308.95
583.38	294.91
583.54	332.36
583.70	294.91
583.86	304.27
584.02	322.99
584.18	322.99
584.34	376.83
584.50	451.72
584.66	1191.33
584.82	2516.08
584.98	3260.37
585.14	3052.06
585.30	2017.54
585.46	1296.66
585.62	898.77
585.78	620.24
585.94	465.77
586.10	273.84
586.26	320.65
586.42	411.93
586.58	339.38
586.74	245.76
586.90	315.97
587.06	386.19
587.22	325.33
587.38	252.78
587.54	292.57
587.70	402.57
587.86	472.79
588.02	470.45
588.18	344.06
588.34	304.27
588.49	297.25
588.65	299.59
588.81	236.39
588.97	189.58
589.13	245.76
589.29	175.54
589.45	238.73
589.61	301.93
589.77	189.58
589.93	297.25
590.08	222.35
590.24	196.60
590.40	215.33
590.56	229.37
590.72	245.76
590.88	278.52
591.04	262.14
591.20	294.91
591.35	308.95
591.51	294.91
591.67	175.54
591.83	236.39
591.99	266.82
592.15	304.27
592.31	327.68
592.46	259.80
592.62	388.53
592.78	320.65
592.94	285.55
593.10	234.05
593.26	250.44
593.41	285.55
593.57	304.27
593.73	280.86
593.89	376.83
594.05	500.87
594.20	692.80
594.36	561.73
594.52	512.58
594.68	369.80
594.84	351.08
594.99	297.25
595.15	250.44
595.31	273.84
595.47	299.59
595.62	255.12
595.78	201.29
595.94	241.08
596.10	257.46
596.25	227.03
596.41	311.29
596.57	250.44
596.73	243.42
596.88	252.78
597.04	285.55
597.20	334.70
597.36	334.70
597.51	393.21
597.67	381.51
597.83	287.89
597.99	348.74
598.14	266.82
598.30	292.57
598.46	259.80
598.61	271.50
598.77	255.12
598.93	301.93
599.09	304.27
599.24	255.12
599.40	259.80
599.56	276.18
599.71	248.10
599.87	299.59
600.03	255.12
600.18	308.95
600.34	276.18
600.50	215.33
600.65	149.79
600.81	227.03
600.97	196.60
601.12	182.56
601.28	189.58
601.44	297.25
601.59	264.48
601.75	234.05
601.91	290.23
602.06	264.48
602.22	320.65
602.37	341.72
602.53	266.82
602.69	365.12
602.84	313.63
603.00	351.08
603.16	327.68
603.31	297.25
603.47	231.71
603.62	227.03
603.78	280.86
603.94	227.03
604.09	180.22
604.25	285.55
604.40	259.80
604.56	294.91
604.71	278.52
604.87	245.76
605.03	271.50
605.18	248.10
605.34	287.89
605.49	234.05
605.65	271.50
605.80	187.24
605.96	184.90
606.12	271.50
606.27	266.82
606.43	262.14
606.58	255.12
606.74	320.65
606.89	418.96
607.05	613.22
607.20	641.31
607.36	491.51
607.51	423.64
607.67	339.38
607.82	358.10
607.98	355.76
608.13	287.89
608.29	248.10
608.44	285.55
608.60	325.33
608.75	259.80
608.91	444.70
609.06	582.79
609.22	791.10
609.37	971.32
609.53	791.10
609.68	671.73
609.84	580.45
609.99	440.02
610.15	517.26
610.30	540.66
610.46	617.90
610.61	566.41
610.76	692.80
610.92	774.72
611.07	844.93
611.23	870.68
611.38	812.17
611.54	685.78
611.69	599.18
611.84	585.13
612.00	496.19
612.15	505.56
612.31	416.62
612.46	416.62
612.62	465.77
612.77	411.93
612.92	393.21
613.08	465.77
613.23	388.53
613.39	374.49
613.54	400.23
613.69	603.86
613.85	929.19
614.00	1217.08
614.15	1158.57
614.31	887.06
614.46	835.57
614.62	568.75
614.77	535.98
614.92	379.17
615.08	308.95
615.23	299.59
615.38	325.33
615.54	290.23
615.69	255.12
615.84	337.04
616.00	386.19
616.15	521.94
616.30	444.70
616.46	330.02
616.61	397.89
616.76	266.82
616.92	297.25
617.07	234.05
617.22	276.18
617.37	294.91
617.53	297.25
617.68	236.39
617.83	231.71
617.99	299.59
618.14	280.86
618.29	304.27
618.45	266.82
618.60	210.65
618.75	287.89
618.90	215.33
619.06	243.42
619.21	360.44
619.36	245.76
619.51	215.33
619.67	245.76
619.82	285.55
619.97	170.86
620.12	280.86
620.28	308.95
620.43	229.37
620.58	320.65
620.73	301.93
620.89	346.40
621.04	208.31
621.19	381.51
621.34	351.08
621.49	440.02
621.65	369.80
621.80	315.97
621.95	276.18
622.10	318.31
622.25	229.37
622.41	161.50
622.56	208.31
622.71	315.97
622.86	250.44
623.01	266.82
623.16	330.02
623.32	212.99
623.47	285.55
623.62	227.03
623.77	252.78
623.92	180.22
624.07	259.80
624.23	215.33
624.38	215.33
624.53	245.76
624.68	236.39
624.83	332.36
624.98	187.24
625.13	250.44
625.29	259.80
625.44	236.39
625.59	217.67
625.74	273.84
625.89	273.84
626.04	397.89
626.19	554.71
626.34	695.14
626.49	763.01
626.65	531.30
626.80	458.74
626.95	461.09
627.10	327.68
627.25	322.99
627.40	196.60
627.55	245.76
627.70	194.26
627.85	196.60
628.00	229.37
628.15	255.12
628.30	210.65
628.45	259.80
628.60	287.89
628.76	210.65
628.91	222.35
629.06	175.54
629.21	238.73
629.36	292.57
629.51	208.31
629.66	229.37
629.81	224.69
629.96	287.89
630.11	341.72
630.26	318.31
630.41	383.85
630.56	362.78
630.71	297.25
630.86	264.48
631.01	264.48
631.16	229.37
631.31	292.57
631.46	266.82
631.61	297.25
631.76	243.42
631.91	161.50
632.06	203.63
632.21	252.78
632.36	224.69
632.51	212.99
632.66	152.13
632.81	266.82
632.96	320.65
633.10	496.19
633.25	620.24
633.40	484.49
633.55	360.44
633.70	355.76
633.85	304.27
634.00	182.56
634.15	243.42
634.30	248.10
634.45	124.05
634.60	177.88
634.75	238.73
634.90	250.44
635.05	238.73
635.19	255.12
635.34	175.54
635.49	175.54
635.64	203.63
635.79	194.26
635.94	269.16
636.09	271.50
636.24	220.01
636.39	276.18
636.53	259.80
636.68	175.54
636.83	180.22
636.98	187.24
637.13	180.22
637.28	266.82
637.43	215.33
637.57	194.26
637.72	330.02
637.87	566.41
638.02	730.25
638.17	840.25
638.32	690.46
638.46	561.73
638.61	482.15
638.76	393.21
638.91	259.80
639.06	278.52
639.20	278.52
639.35	241.08
639.50	234.05
639.65	435.34
639.80	704.50
639.94	1100.05
640.09	1102.39
640.24	964.30
640.39	720.88
640.54	507.90
640.68	416.62
640.83	271.50
640.98	236.39
641.13	227.03
641.27	177.88
641.42	201.29
641.57	311.29
641.72	198.95
641.86	168.52
642.01	224.69
642.16	217.67
642.31	173.20
642.45	337.04
642.60	269.16
642.75	112.35
642.90	222.35
643.04	168.52
643.19	184.90
643.34	184.90
643.48	243.42
643.63	227.03
643.78	243.42
643.93	231.71
644.07	154.48
644.22	194.26
644.37	170.86
644.51	236.39
644.66	229.37
644.81	231.71
644.95	255.12
645.10	182.56
645.25	203.63
645.39	238.73
645.54	189.58
645.69	241.08
645.83	220.01
645.98	266.82
646.13	229.37
646.27	224.69
646.42	168.52
646.57	196.60
646.71	147.45
646.86	191.92
647.00	266.82
647.15	189.58
647.30	224.69
647.44	159.16
647.59	245.76
647.74	152.13
647.88	217.67
648.03	231.71
648.17	191.92
648.32	238.73
648.47	273.84
648.61	180.22
648.76	299.59
648.90	264.48
649.05	241.08
649.20	292.57
649.34	163.84
649.49	203.63
649.63	203.63
649.78	236.39
649.92	161.50
650.07	264.48
650.21	404.91
650.36	648.33
650.51	592.16
650.65	674.07
650.80	524.28
650.94	386.19
651.09	311.29
651.23	243.42
651.38	145.11
651.52	196.60
651.67	241.08
651.81	203.63
651.96	269.16
652.10	250.44
652.25	287.89
652.39	262.14
652.54	203.63
652.68	262.14
652.83	337.04
652.97	367.46
653.12	409.59
653.26	341.72
653.41	301.93
653.55	231.71
653.70	156.82
653.84	229.37
653.99	231.71
654.13	170.86
654.27	248.10
654.42	210.65
654.56	210.65
654.71	255.12
654.85	243.42
655.00	217.67
655.14	112.35
655.29	231.71
655.43	187.24
655.57	229.37
655.72	175.54
655.86	184.90
656.01	212.99
656.15	140.43
656.30	201.29
656.44	168.52
656.58	170.86
656.73	166.18
656.87	236.39
657.01	184.90
657.16	170.86
657.30	238.73
657.45	266.82
657.59	175.54
657.73	152.13
657.88	201.29
658.02	327.68
658.16	203.63
658.31	198.95
658.45	177.88
658.60	180.22
658.74	205.97
658.88	191.92
659.03	245.76
659.17	124.05
659.31	222.35
659.46	255.12
659.60	435.34
659.74	407.25
659.89	372.15
660.03	358.10
660.17	325.33
660.32	271.50
660.46	238.73
660.60	231.71
660.74	177.88
660.89	229.37
661.03	191.92
661.17	248.10
661.32	128.73
661.46	212.99
661.60	135.75
661.74	159.16
661.89	187.24
662.03	194.26
662.17	205.97
662.31	271.50
662.46	234.05
662.60	117.03
662.74	255.12
662.88	166.18
663.03	205.97
663.17	173.20
663.31	168.52
663.45	264.48
663.60	177.88
663.74	196.60
663.88	203.63
664.02	257.46
664.17	191.92
664.31	170.86
664.45	234.05
664.59	252.78
664.73	131.07
664.88	161.50
665.02	184.90
665.16	189.58
665.30	152.13
665.44	208.31
665.59	234.05
665.73	189.58
665.87	205.97
666.01	187.24
666.15	147.45
666.29	140.43
666.44	243.42
666.58	208.31
666.72	208.31
666.86	212.99
667.00	236.39
667.14	201.29
667.28	259.80
667.43	461.09
667.57	418.96
667.71	678.76
667.85	540.66
667.99	528.96
668.13	348.74
668.27	290.23
668.41	318.31
668.56	210.65
668.70	276.18
668.84	163.84
668.98	198.95
669.12	147.45
669.26	182.56
669.40	220.01
669.54	191.92
669.68	205.97
669.82	201.29
669.96	168.52
670.10	145.11
670.25	196.60
670.39	126.39
670.53	182.56
670.67	224.69
670.81	227.03
670.95	220.01
671.09	196.60
671.23	238.73
671.37	400.23
671.51	423.64
671.65	451.72
671.79	355.76
671.93	339.38
672.07	353.42
672.21	262.14
672.35	271.50
672.49	215.33
672.63	262.14
672.77	250.44
672.91	234.05
673.05	180.22
673.19	215.33
673.33	163.84
673.47	220.01
673.61	241.08
673.75	159.16
673.89	159.16
674.03	187.24
674.17	198.95
674.31	147.45
674.45	217.67
674.59	135.75
674.73	184.90
674.87	210.65
675.01	231.71
675.15	189.58
675.29	205.97
675.43	224.69
675.56	210.65
675.70	182.56
675.84	182.56
675.98	203.63
676.12	166.18
676.26	220.01
676.40	245.76
676.54	147.45
676.68	105.32
676.82	173.20
676.96	227.03
677.10	217.67
677.23	166.18
677.37	177.88
677.51	198.95
677.65	220.01
677.79	180.22
677.93	217.67
678.07	163.84
678.21	170.86
678.34	201.29
678.48	91.28
678.62	208.31
678.76	187.24
678.90	166.18
679.04	156.82
679.18	196.60
679.31	170.86
679.45	168.52
679.59	224.69
679.73	95.96
679.87	159.16
680.00	166.18
680.14	215.33
680.28	222.35
680.42	131.07
680.56	255.12
680.70	203.63
680.83	229.37
680.97	194.26
681.11	166.18
681.25	173.20
681.39	210.65
681.52	184.90
681.66	91.28
681.80	212.99
681.94	163.84
682.07	147.45
682.21	147.45
682.35	175.54
682.49	138.09
682.62	189.58
682.76	121.71
682.90	65.54
683.04	229.37
683.17	210.65
683.31	177.88
683.45	198.95
683.59	229.37
683.72	205.97
683.86	231.71
684.00	121.71
684.13	236.39
684.27	189.58
684.41	126.39
684.55	259.80
684.68	154.48
684.82	117.03
684.96	105.32
685.09	138.09
685.23	124.05
685.37	208.31
685.50	198.95
685.64	222.35
685.78	154.48
685.91	175.54
686.05	107.66
686.19	117.03
686.32	159.16
686.46	203.63
686.60	131.07
686.73	189.58
686.87	117.03
687.01	102.98
687.14	149.79
687.28	205.97
687.42	117.03
687.55	201.29
687.69	212.99
687.82	149.79
687.96	287.89
688.10	215.33
688.23	140.43
688.37	135.75
688.50	161.50
688.64	173.20
688.78	152.13
688.91	222.35
689.05	184.90
689.18	177.88
689.32	208.31
689.46	236.39
689.59	152.13
689.73	95.96
689.86	117.03
690.00	131.07
690.13	135.75
690.27	184.90
690.41	117.03
690.54	210.65
690.68	117.03
690.81	217.67
690.95	138.09
691.08	149.79
691.22	119.37
691.35	187.24
691.49	156.82
691.62	161.50
691.76	133.41
691.89	161.50
692.03	170.86
692.16	191.92
692.30	201.29
692.43	208.31
692.57	273.84
692.70	271.50
692.84	318.31
692.97	266.82
693.11	320.65
693.24	245.76
693.38	231.71
693.51	145.11
693.65	128.73
693.78	140.43
693.92	182.56
694.05	182.56
694.19	163.84
694.32	133.41
694.45	119.37
694.59	198.95
694.72	135.75
694.86	248.10
694.99	142.77
695.13	135.75
695.26	220.01
695.39	210.65
695.53	234.05
695.66	161.50
695.80	156.82
695.93	189.58
696.07	229.37
696.20	177.88
696.33	142.77
696.47	145.11
696.60	182.56
696.73	100.64
696.87	131.07
697.00	191.92
697.14	100.64
697.27	159.16
697.40	191.92
697.54	191.92
697.67	196.60
697.80	168.52
697.94	147.45
698.07	135.75
698.21	147.45
698.34	210.65
698.47	110.01
698.61	152.13
698.74	117.03
698.87	161.50
699.01	156.82
699.14	159.16
699.27	222.35
699.40	255.12
699.54	126.39
699.67	154.48
699.80	84.26
699.94	154.48
700.07	159.16
700.20	124.05
700.34	110.01
700.47	168.52
700.60	159.16
700.73	177.88
700.87	168.52
701.00	161.50
701.13	135.75
701.26	161.50
701.40	182.56
701.53	187.24
701.66	72.56
701.79	142.77
701.93	149.79
702.06	234.05
702.19	187.24
702.32	159.16
702.46	128.73
702.59	128.73
702.72	152.13
702.85	238.73
702.99	334.70
703.12	472.79
703.25	510.24
703.38	468.11
703.51	421.30
703.65	287.89
703.78	292.57
703.91	231.71
704.04	182.56
704.17	156.82
704.31	180.22
704.44	231.71
704.57	140.43
704.70	152.13
704.83	147.45
704.96	145.11
705.10	159.16
705.23	81.92
>>>>>End Processed Spectral Data<<<<<
