SpectraSuite Data File
++++++++++++++++++++++++++++++++++++
Date: Fri Oct 04 12:13:44 GMT-05:00 2013
User: price-jones
Dark Spectrum Present: No
Reference Spectrum Present: No
Number of Sampled Component Spectra: 1
Spectrometers: USB2+H05261
Integration Time (usec): 10000 (USB2+H05261)
Spectra Averaged: 1 (USB2+H05261)
Boxcar Smoothing: 0 (USB2+H05261)
Correct for Electrical Dark: No (USB2+H05261)
Strobe/Lamp Enabled: No (USB2+H05261)
Correct for Detector Non-linearity: No (USB2+H05261)
Correct for Stray Light: No (USB2+H05261)
Number of Pixels in Processed Spectrum: 2048
>>>>>Begin Processed Spectral Data<<<<<
365.73	0.00
365.92	0.00
366.12	0.00
366.32	0.00
366.52	0.00
366.72	0.00
366.91	0.00
367.11	0.00
367.31	0.00
367.51	0.00
367.70	0.00
367.90	0.00
368.10	0.00
368.30	0.00
368.49	0.00
368.69	0.00
368.89	0.00
369.09	0.00
369.28	0.00
369.48	0.00
369.68	0.00
369.87	0.00
370.07	0.00
370.27	0.00
370.47	0.00
370.66	0.00
370.86	0.00
371.06	0.00
371.25	0.00
371.45	0.00
371.65	0.00
371.84	0.00
372.04	32.77
372.24	0.00
372.44	23.41
372.63	14.04
372.83	63.19
373.03	9.36
373.22	72.56
373.42	0.00
373.62	0.00
373.81	2.34
374.01	23.41
374.21	28.09
374.40	0.00
374.60	81.92
374.79	30.43
374.99	30.43
375.19	93.62
375.38	0.00
375.58	53.83
375.78	32.77
375.97	133.41
376.17	58.51
376.37	9.36
376.56	7.02
376.76	0.00
376.95	102.98
377.15	100.64
377.35	11.70
377.54	16.38
377.74	79.58
377.93	44.47
378.13	65.54
378.33	14.04
378.52	14.04
378.72	58.51
378.91	65.54
379.11	21.06
379.31	124.05
379.50	44.47
379.70	0.00
379.89	46.81
380.09	0.00
380.28	0.00
380.48	32.77
380.68	0.00
380.87	88.94
381.07	77.24
381.26	16.38
381.46	7.02
381.65	0.00
381.85	53.83
382.04	11.70
382.24	14.04
382.43	23.41
382.63	7.02
382.83	4.68
383.02	9.36
383.22	30.43
383.41	0.00
383.61	0.00
383.80	77.24
384.00	0.00
384.19	0.00
384.39	0.00
384.58	79.58
384.78	0.00
384.97	0.00
385.17	30.43
385.36	0.00
385.56	72.56
385.75	37.45
385.95	21.06
386.14	51.49
386.34	0.00
386.53	30.43
386.72	58.51
386.92	0.00
387.11	0.00
387.31	0.00
387.50	2.34
387.70	25.75
387.89	51.49
388.09	67.88
388.28	4.68
388.48	42.13
388.67	9.36
388.86	58.51
389.06	0.00
389.25	0.00
389.45	23.41
389.64	14.04
389.84	0.00
390.03	14.04
390.22	0.00
390.42	35.11
390.61	4.68
390.81	93.62
391.00	0.00
391.19	0.00
391.39	0.00
391.58	2.34
391.78	60.85
391.97	14.04
392.16	14.04
392.36	79.58
392.55	88.94
392.75	35.11
392.94	23.41
393.13	65.54
393.33	28.09
393.52	21.06
393.71	23.41
393.91	9.36
394.10	21.06
394.29	2.34
394.49	7.02
394.68	0.00
394.88	0.00
395.07	0.00
395.26	2.34
395.46	0.00
395.65	0.00
395.84	65.54
396.04	23.41
396.23	37.45
396.42	0.00
396.62	42.13
396.81	16.38
397.00	79.58
397.19	32.77
397.39	49.15
397.58	16.38
397.77	63.19
397.97	11.70
398.16	44.47
398.35	30.43
398.55	44.47
398.74	28.09
398.93	70.22
399.12	23.41
399.32	0.00
399.51	9.36
399.70	44.47
399.90	39.79
400.09	0.00
400.28	11.70
400.47	14.04
400.67	70.22
400.86	39.79
401.05	67.88
401.24	9.36
401.44	0.00
401.63	14.04
401.82	37.45
402.01	42.13
402.21	112.35
402.40	4.68
402.59	56.17
402.78	0.00
402.97	81.92
403.17	21.06
403.36	16.38
403.55	16.38
403.74	0.00
403.93	53.83
404.13	42.13
404.32	16.38
404.51	0.00
404.70	70.22
404.89	2.34
405.09	77.24
405.28	11.70
405.47	0.00
405.66	56.17
405.85	65.54
406.05	30.43
406.24	0.00
406.43	16.38
406.62	95.96
406.81	16.38
407.00	86.60
407.20	14.04
407.39	53.83
407.58	46.81
407.77	28.09
407.96	28.09
408.15	0.00
408.34	74.90
408.54	25.75
408.73	88.94
408.92	124.05
409.11	51.49
409.30	63.19
409.49	51.49
409.68	91.28
409.87	70.22
410.07	70.22
410.26	25.75
410.45	0.00
410.64	0.00
410.83	58.51
411.02	2.34
411.21	25.75
411.40	88.94
411.59	21.06
411.78	37.45
411.98	0.00
412.17	88.94
412.36	72.56
412.55	63.19
412.74	21.06
412.93	56.17
413.12	67.88
413.31	58.51
413.50	88.94
413.69	65.54
413.88	35.11
414.07	30.43
414.26	14.04
414.45	0.00
414.64	44.47
414.83	56.17
415.02	2.34
415.22	35.11
415.41	23.41
415.60	44.47
415.79	0.00
415.98	0.00
416.17	11.70
416.36	88.94
416.55	0.00
416.74	32.77
416.93	7.02
417.12	72.56
417.31	23.41
417.50	79.58
417.69	32.77
417.88	79.58
418.07	86.60
418.26	72.56
418.45	39.79
418.64	30.43
418.83	49.15
419.02	67.88
419.21	2.34
419.39	30.43
419.58	49.15
419.77	102.98
419.96	39.79
420.15	58.51
420.34	0.00
420.53	84.26
420.72	53.83
420.91	65.54
421.10	102.98
421.29	51.49
421.48	35.11
421.67	65.54
421.86	0.00
422.05	25.75
422.24	42.13
422.43	44.47
422.61	35.11
422.80	44.47
422.99	117.03
423.18	81.92
423.37	23.41
423.56	0.00
423.75	84.26
423.94	21.06
424.13	84.26
424.32	21.06
424.50	0.00
424.69	18.72
424.88	72.56
425.07	0.00
425.26	74.90
425.45	25.75
425.64	28.09
425.83	39.79
426.01	74.90
426.20	18.72
426.39	0.00
426.58	4.68
426.77	105.32
426.96	18.72
427.15	23.41
427.33	60.85
427.52	49.15
427.71	51.49
427.90	37.45
428.09	39.79
428.28	0.00
428.46	67.88
428.65	84.26
428.84	23.41
429.03	9.36
429.22	30.43
429.40	0.00
429.59	4.68
429.78	32.77
429.97	63.19
430.16	58.51
430.34	4.68
430.53	2.34
430.72	25.75
430.91	37.45
431.10	86.60
431.28	9.36
431.47	30.43
431.66	88.94
431.85	110.01
432.03	67.88
432.22	145.11
432.41	67.88
432.60	102.98
432.79	107.66
432.97	189.58
433.16	44.47
433.35	81.92
433.54	0.00
433.72	0.00
433.91	14.04
434.10	32.77
434.28	86.60
434.47	72.56
434.66	32.77
434.85	44.47
435.03	58.51
435.22	63.19
435.41	0.00
435.59	28.09
435.78	51.49
435.97	42.13
436.16	14.04
436.34	63.19
436.53	46.81
436.72	49.15
436.90	30.43
437.09	81.92
437.28	74.90
437.46	58.51
437.65	42.13
437.84	0.00
438.02	0.00
438.21	28.09
438.40	91.28
438.58	67.88
438.77	32.77
438.96	60.85
439.14	0.00
439.33	117.03
439.52	65.54
439.70	44.47
439.89	42.13
440.08	88.94
440.26	42.13
440.45	32.77
440.63	65.54
440.82	91.28
441.01	84.26
441.19	46.81
441.38	11.70
441.57	16.38
441.75	86.60
441.94	100.64
442.12	124.05
442.31	58.51
442.50	91.28
442.68	79.58
442.87	65.54
443.05	67.88
443.24	65.54
443.43	32.77
443.61	58.51
443.80	58.51
443.98	0.00
444.17	88.94
444.35	23.41
444.54	70.22
444.73	110.01
444.91	18.72
445.10	91.28
445.28	51.49
445.47	95.96
445.65	67.88
445.84	14.04
446.02	147.45
446.21	53.83
446.39	28.09
446.58	81.92
446.77	21.06
446.95	98.30
447.14	35.11
447.32	18.72
447.51	28.09
447.69	28.09
447.88	77.24
448.06	7.02
448.25	37.45
448.43	65.54
448.62	72.56
448.80	28.09
448.99	46.81
449.17	28.09
449.36	28.09
449.54	60.85
449.73	42.13
449.91	102.98
450.10	23.41
450.28	0.00
450.46	149.79
450.65	28.09
450.83	117.03
451.02	88.94
451.20	65.54
451.39	100.64
451.57	0.00
451.76	107.66
451.94	46.81
452.13	42.13
452.31	39.79
452.49	35.11
452.68	42.13
452.86	65.54
453.05	44.47
453.23	0.00
453.42	42.13
453.60	81.92
453.78	0.00
453.97	46.81
454.15	110.01
454.34	4.68
454.52	81.92
454.70	9.36
454.89	9.36
455.07	88.94
455.26	119.37
455.44	49.15
455.62	21.06
455.81	42.13
455.99	37.45
456.17	44.47
456.36	53.83
456.54	11.70
456.73	35.11
456.91	60.85
457.09	98.30
457.28	121.71
457.46	60.85
457.64	39.79
457.83	93.62
458.01	77.24
458.19	49.15
458.38	0.00
458.56	0.00
458.74	81.92
458.93	56.17
459.11	23.41
459.29	79.58
459.48	117.03
459.66	44.47
459.84	0.00
460.03	65.54
460.21	23.41
460.39	35.11
460.57	74.90
460.76	46.81
460.94	14.04
461.12	72.56
461.31	28.09
461.49	21.06
461.67	0.00
461.85	28.09
462.04	4.68
462.22	110.01
462.40	7.02
462.59	53.83
462.77	110.01
462.95	53.83
463.13	32.77
463.32	84.26
463.50	70.22
463.68	70.22
463.86	56.17
464.05	98.30
464.23	39.79
464.41	14.04
464.59	53.83
464.78	37.45
464.96	51.49
465.14	128.73
465.32	9.36
465.50	74.90
465.69	53.83
465.87	39.79
466.05	25.75
466.23	0.00
466.41	51.49
466.60	37.45
466.78	58.51
466.96	114.69
467.14	107.66
467.32	4.68
467.51	7.02
467.69	28.09
467.87	2.34
468.05	110.01
468.23	28.09
468.41	91.28
468.60	25.75
468.78	63.19
468.96	28.09
469.14	56.17
469.32	58.51
469.50	79.58
469.69	77.24
469.87	131.07
470.05	84.26
470.23	77.24
470.41	9.36
470.59	0.00
470.77	74.90
470.95	138.09
471.14	11.70
471.32	9.36
471.50	63.19
471.68	0.00
471.86	74.90
472.04	21.06
472.22	67.88
472.40	56.17
472.58	9.36
472.77	25.75
472.95	37.45
473.13	63.19
473.31	46.81
473.49	21.06
473.67	42.13
473.85	72.56
474.03	0.00
474.21	35.11
474.39	159.16
474.57	42.13
474.75	65.54
474.93	93.62
475.12	60.85
475.30	79.58
475.48	81.92
475.66	63.19
475.84	98.30
476.02	67.88
476.20	23.41
476.38	37.45
476.56	44.47
476.74	46.81
476.92	53.83
477.10	23.41
477.28	110.01
477.46	53.83
477.64	30.43
477.82	107.66
478.00	67.88
478.18	0.00
478.36	63.19
478.54	37.45
478.72	0.00
478.90	114.69
479.08	46.81
479.26	28.09
479.44	74.90
479.62	114.69
479.80	51.49
479.98	60.85
480.16	81.92
480.34	58.51
480.52	25.75
480.70	77.24
480.88	67.88
481.06	79.58
481.24	100.64
481.41	105.32
481.59	112.35
481.77	133.41
481.95	72.56
482.13	133.41
482.31	51.49
482.49	86.60
482.67	72.56
482.85	30.43
483.03	44.47
483.21	60.85
483.39	65.54
483.57	117.03
483.74	30.43
483.92	72.56
484.10	0.00
484.28	84.26
484.46	95.96
484.64	79.58
484.82	56.17
485.00	63.19
485.18	42.13
485.35	65.54
485.53	81.92
485.71	107.66
485.89	35.11
486.07	39.79
486.25	49.15
486.43	7.02
486.61	53.83
486.78	128.73
486.96	35.11
487.14	7.02
487.32	70.22
487.50	7.02
487.68	100.64
487.85	70.22
488.03	105.32
488.21	18.72
488.39	124.05
488.57	131.07
488.75	102.98
488.92	88.94
489.10	105.32
489.28	84.26
489.46	35.11
489.64	53.83
489.81	63.19
489.99	32.77
490.17	18.72
490.35	18.72
490.53	23.41
490.70	70.22
490.88	46.81
491.06	72.56
491.24	39.79
491.41	30.43
491.59	58.51
491.77	121.71
491.95	126.39
492.13	77.24
492.30	42.13
492.48	58.51
492.66	35.11
492.84	91.28
493.01	114.69
493.19	110.01
493.37	110.01
493.54	51.49
493.72	56.17
493.90	72.56
494.08	60.85
494.25	16.38
494.43	23.41
494.61	70.22
494.79	95.96
494.96	77.24
495.14	65.54
495.32	70.22
495.49	28.09
495.67	86.60
495.85	112.35
496.02	114.69
496.20	93.62
496.38	60.85
496.55	49.15
496.73	91.28
496.91	98.30
497.09	124.05
497.26	84.26
497.44	0.00
497.62	74.90
497.79	56.17
497.97	133.41
498.14	79.58
498.32	98.30
498.50	35.11
498.67	28.09
498.85	37.45
499.03	70.22
499.20	14.04
499.38	72.56
499.56	98.30
499.73	65.54
499.91	58.51
500.08	74.90
500.26	131.07
500.44	51.49
500.61	86.60
500.79	65.54
500.97	77.24
501.14	93.62
501.32	105.32
501.49	70.22
501.67	128.73
501.84	51.49
502.02	67.88
502.20	53.83
502.37	133.41
502.55	107.66
502.72	133.41
502.90	21.06
503.07	46.81
503.25	74.90
503.43	140.43
503.60	77.24
503.78	107.66
503.95	189.58
504.13	95.96
504.30	133.41
504.48	74.90
504.65	110.01
504.83	112.35
505.01	21.06
505.18	60.85
505.36	128.73
505.53	88.94
505.71	56.17
505.88	74.90
506.06	112.35
506.23	46.81
506.41	72.56
506.58	65.54
506.76	126.39
506.93	126.39
507.11	126.39
507.28	46.81
507.46	35.11
507.63	98.30
507.81	114.69
507.98	67.88
508.16	126.39
508.33	98.30
508.50	35.11
508.68	65.54
508.85	102.98
509.03	91.28
509.20	74.90
509.38	58.51
509.55	133.41
509.73	98.30
509.90	110.01
510.08	119.37
510.25	58.51
510.42	86.60
510.60	58.51
510.77	105.32
510.95	95.96
511.12	93.62
511.30	102.98
511.47	72.56
511.64	93.62
511.82	35.11
511.99	46.81
512.17	102.98
512.34	39.79
512.51	58.51
512.69	102.98
512.86	81.92
513.04	53.83
513.21	126.39
513.38	112.35
513.56	21.06
513.73	142.77
513.90	119.37
514.08	70.22
514.25	84.26
514.43	95.96
514.60	107.66
514.77	65.54
514.95	49.15
515.12	72.56
515.29	161.50
515.47	98.30
515.64	65.54
515.81	93.62
515.99	117.03
516.16	86.60
516.33	70.22
516.51	88.94
516.68	53.83
516.85	46.81
517.03	93.62
517.20	110.01
517.37	65.54
517.54	53.83
517.72	28.09
517.89	95.96
518.06	49.15
518.24	67.88
518.41	56.17
518.58	37.45
518.75	49.15
518.93	74.90
519.10	100.64
519.27	95.96
519.45	86.60
519.62	79.58
519.79	81.92
519.96	105.32
520.14	105.32
520.31	98.30
520.48	95.96
520.65	72.56
520.83	65.54
521.00	25.75
521.17	110.01
521.34	100.64
521.52	67.88
521.69	28.09
521.86	30.43
522.03	60.85
522.20	107.66
522.38	110.01
522.55	72.56
522.72	86.60
522.89	110.01
523.07	124.05
523.24	110.01
523.41	105.32
523.58	112.35
523.75	86.60
523.92	98.30
524.10	133.41
524.27	28.09
524.44	4.68
524.61	112.35
524.78	72.56
524.96	56.17
525.13	72.56
525.30	74.90
525.47	65.54
525.64	98.30
525.81	67.88
525.98	37.45
526.16	81.92
526.33	93.62
526.50	81.92
526.67	102.98
526.84	86.60
527.01	44.47
527.18	126.39
527.36	53.83
527.53	131.07
527.70	86.60
527.87	60.85
528.04	98.30
528.21	28.09
528.38	49.15
528.55	128.73
528.72	79.58
528.89	14.04
529.07	79.58
529.24	0.00
529.41	30.43
529.58	32.77
529.75	51.49
529.92	53.83
530.09	168.52
530.26	56.17
530.43	175.54
530.60	39.79
530.77	100.64
530.94	117.03
531.11	119.37
531.28	112.35
531.46	84.26
531.63	79.58
531.80	79.58
531.97	63.19
532.14	0.00
532.31	44.47
532.48	107.66
532.65	42.13
532.82	81.92
532.99	77.24
533.16	84.26
533.33	77.24
533.50	60.85
533.67	88.94
533.84	152.13
534.01	105.32
534.18	88.94
534.35	79.58
534.52	98.30
534.69	60.85
534.86	138.09
535.03	121.71
535.20	65.54
535.37	93.62
535.54	156.82
535.71	42.13
535.88	95.96
536.05	58.51
536.22	60.85
536.38	79.58
536.55	79.58
536.72	58.51
536.89	72.56
537.06	161.50
537.23	110.01
537.40	117.03
537.57	102.98
537.74	51.49
537.91	105.32
538.08	51.49
538.25	91.28
538.42	107.66
538.59	46.81
538.75	11.70
538.92	18.72
539.09	117.03
539.26	110.01
539.43	119.37
539.60	72.56
539.77	56.17
539.94	9.36
540.11	42.13
540.28	2.34
540.44	102.98
540.61	72.56
540.78	105.32
540.95	86.60
541.12	46.81
541.29	102.98
541.46	2.34
541.62	18.72
541.79	14.04
541.96	95.96
542.13	70.22
542.30	46.81
542.47	56.17
542.63	81.92
542.80	37.45
542.97	95.96
543.14	67.88
543.31	117.03
543.48	107.66
543.64	156.82
543.81	67.88
543.98	77.24
544.15	86.60
544.32	11.70
544.48	53.83
544.65	121.71
544.82	102.98
544.99	110.01
545.16	77.24
545.32	86.60
545.49	100.64
545.66	91.28
545.83	35.11
546.00	42.13
546.16	135.75
546.33	9.36
546.50	37.45
546.67	37.45
546.83	145.11
547.00	91.28
547.17	126.39
547.34	58.51
547.50	32.77
547.67	56.17
547.84	86.60
548.00	98.30
548.17	37.45
548.34	95.96
548.51	11.70
548.67	107.66
548.84	4.68
549.01	53.83
549.18	133.41
549.34	60.85
549.51	131.07
549.68	44.47
549.84	81.92
550.01	49.15
550.18	88.94
550.34	42.13
550.51	84.26
550.68	84.26
550.84	156.82
551.01	30.43
551.18	84.26
551.34	63.19
551.51	98.30
551.68	100.64
551.84	105.32
552.01	56.17
552.18	74.90
552.34	86.60
552.51	140.43
552.68	131.07
552.84	86.60
553.01	93.62
553.18	161.50
553.34	91.28
553.51	0.00
553.67	56.17
553.84	56.17
554.01	117.03
554.17	112.35
554.34	91.28
554.51	156.82
554.67	102.98
554.84	65.54
555.00	114.69
555.17	72.56
555.33	79.58
555.50	11.70
555.67	121.71
555.83	149.79
556.00	81.92
556.16	93.62
556.33	46.81
556.50	53.83
556.66	4.68
556.83	9.36
556.99	102.98
557.16	95.96
557.32	67.88
557.49	110.01
557.65	46.81
557.82	53.83
557.98	53.83
558.15	126.39
558.32	70.22
558.48	67.88
558.65	53.83
558.81	124.05
558.98	112.35
559.14	56.17
559.31	107.66
559.47	30.43
559.64	95.96
559.80	131.07
559.97	91.28
560.13	98.30
560.30	72.56
560.46	86.60
560.63	86.60
560.79	72.56
560.96	100.64
561.12	28.09
561.29	128.73
561.45	117.03
561.61	88.94
561.78	95.96
561.94	133.41
562.11	114.69
562.27	65.54
562.44	84.26
562.60	124.05
562.77	58.51
562.93	77.24
563.10	32.77
563.26	93.62
563.42	14.04
563.59	65.54
563.75	91.28
563.92	86.60
564.08	70.22
564.24	51.49
564.41	67.88
564.57	77.24
564.74	56.17
564.90	86.60
565.07	51.49
565.23	93.62
565.39	93.62
565.56	65.54
565.72	84.26
565.88	53.83
566.05	72.56
566.21	42.13
566.38	91.28
566.54	14.04
566.70	74.90
566.87	67.88
567.03	93.62
567.19	56.17
567.36	84.26
567.52	37.45
567.68	81.92
567.85	105.32
568.01	56.17
568.17	63.19
568.34	77.24
568.50	84.26
568.66	79.58
568.83	67.88
568.99	0.00
569.15	112.35
569.32	168.52
569.48	79.58
569.64	21.06
569.81	91.28
569.97	119.37
570.13	65.54
570.30	98.30
570.46	72.56
570.62	91.28
570.78	65.54
570.95	58.51
571.11	91.28
571.27	21.06
571.43	70.22
571.60	16.38
571.76	60.85
571.92	39.79
572.09	84.26
572.25	93.62
572.41	9.36
572.57	14.04
572.74	98.30
572.90	63.19
573.06	88.94
573.22	121.71
573.38	72.56
573.55	91.28
573.71	81.92
573.87	102.98
574.03	86.60
574.20	14.04
574.36	44.47
574.52	93.62
574.68	154.48
574.84	67.88
575.01	98.30
575.17	70.22
575.33	25.75
575.49	58.51
575.65	46.81
575.82	14.04
575.98	49.15
576.14	67.88
576.30	30.43
576.46	105.32
576.62	46.81
576.79	72.56
576.95	37.45
577.11	4.68
577.27	124.05
577.43	51.49
577.59	25.75
577.75	86.60
577.92	105.32
578.08	81.92
578.24	145.11
578.40	60.85
578.56	32.77
578.72	131.07
578.88	79.58
579.04	112.35
579.21	98.30
579.37	28.09
579.53	156.82
579.69	93.62
579.85	100.64
580.01	49.15
580.17	142.77
580.33	124.05
580.49	65.54
580.65	81.92
580.82	42.13
580.98	84.26
581.14	131.07
581.30	117.03
581.46	28.09
581.62	133.41
581.78	44.47
581.94	32.77
582.10	9.36
582.26	23.41
582.42	142.77
582.58	91.28
582.74	65.54
582.90	46.81
583.06	77.24
583.22	32.77
583.38	9.36
583.54	0.00
583.70	79.58
583.86	56.17
584.02	67.88
584.18	42.13
584.34	2.34
584.50	28.09
584.66	121.71
584.82	42.13
584.98	112.35
585.14	70.22
585.30	133.41
585.46	39.79
585.62	37.45
585.78	121.71
585.94	131.07
586.10	49.15
586.26	46.81
586.42	30.43
586.58	114.69
586.74	46.81
586.90	28.09
587.06	51.49
587.22	77.24
587.38	131.07
587.54	46.81
587.70	107.66
587.86	46.81
588.02	35.11
588.18	114.69
588.34	35.11
588.49	110.01
588.65	7.02
588.81	70.22
588.97	79.58
589.13	114.69
589.29	84.26
589.45	53.83
589.61	142.77
589.77	65.54
589.93	18.72
590.08	79.58
590.24	63.19
590.40	65.54
590.56	16.38
590.72	79.58
590.88	7.02
591.04	114.69
591.20	49.15
591.35	56.17
591.51	77.24
591.67	14.04
591.83	117.03
591.99	53.83
592.15	126.39
592.31	2.34
592.46	93.62
592.62	60.85
592.78	86.60
592.94	56.17
593.10	126.39
593.26	18.72
593.41	95.96
593.57	0.00
593.73	49.15
593.89	107.66
594.05	44.47
594.20	77.24
594.36	49.15
594.52	63.19
594.68	121.71
594.84	117.03
594.99	107.66
595.15	67.88
595.31	23.41
595.47	32.77
595.62	18.72
595.78	74.90
595.94	70.22
596.10	0.00
596.25	74.90
596.41	25.75
596.57	56.17
596.73	53.83
596.88	117.03
597.04	9.36
597.20	95.96
597.36	133.41
597.51	70.22
597.67	53.83
597.83	0.00
597.99	74.90
598.14	42.13
598.30	77.24
598.46	88.94
598.61	67.88
598.77	39.79
598.93	0.00
599.09	93.62
599.24	65.54
599.40	44.47
599.56	35.11
599.71	58.51
599.87	74.90
600.03	117.03
600.18	91.28
600.34	147.45
600.50	30.43
600.65	21.06
600.81	105.32
600.97	65.54
601.12	77.24
601.28	93.62
601.44	98.30
601.59	105.32
601.75	35.11
601.91	133.41
602.06	65.54
602.22	53.83
602.37	126.39
602.53	70.22
602.69	28.09
602.84	21.06
603.00	53.83
603.16	72.56
603.31	81.92
603.47	9.36
603.62	74.90
603.78	53.83
603.94	51.49
604.09	107.66
604.25	105.32
604.40	112.35
604.56	18.72
604.71	72.56
604.87	56.17
605.03	18.72
605.18	28.09
605.34	49.15
605.49	39.79
605.65	65.54
605.80	7.02
605.96	65.54
606.12	105.32
606.27	53.83
606.43	86.60
606.58	51.49
606.74	88.94
606.89	88.94
607.05	11.70
607.20	9.36
607.36	58.51
607.51	23.41
607.67	74.90
607.82	84.26
607.98	39.79
608.13	60.85
608.29	100.64
608.44	88.94
608.60	95.96
608.75	49.15
608.91	117.03
609.06	30.43
609.22	79.58
609.37	105.32
609.53	32.77
609.68	11.70
609.84	0.00
609.99	25.75
610.15	23.41
610.30	67.88
610.46	60.85
610.61	58.51
610.76	88.94
610.92	72.56
611.07	51.49
611.23	28.09
611.38	28.09
611.54	74.90
611.69	0.00
611.84	74.90
612.00	60.85
612.15	124.05
612.31	53.83
612.46	0.00
612.62	117.03
612.77	23.41
612.92	63.19
613.08	77.24
613.23	49.15
613.39	51.49
613.54	35.11
613.69	138.09
613.85	86.60
614.00	128.73
614.15	93.62
614.31	95.96
614.46	16.38
614.62	70.22
614.77	84.26
614.92	25.75
615.08	86.60
615.23	67.88
615.38	23.41
615.54	63.19
615.69	0.00
615.84	42.13
616.00	100.64
616.15	0.00
616.30	60.85
616.46	60.85
616.61	4.68
616.76	25.75
616.92	63.19
617.07	79.58
617.22	60.85
617.37	72.56
617.53	44.47
617.68	79.58
617.83	98.30
617.99	100.64
618.14	58.51
618.29	67.88
618.45	105.32
618.60	60.85
618.75	95.96
618.90	28.09
619.06	65.54
619.21	72.56
619.36	84.26
619.51	67.88
619.67	72.56
619.82	84.26
619.97	37.45
620.12	14.04
620.28	2.34
620.43	77.24
620.58	93.62
620.73	138.09
620.89	84.26
621.04	114.69
621.19	32.77
621.34	0.00
621.49	70.22
621.65	9.36
621.80	28.09
621.95	79.58
622.10	46.81
622.25	102.98
622.41	9.36
622.56	0.00
622.71	28.09
622.86	93.62
623.01	65.54
623.16	79.58
623.32	72.56
623.47	16.38
623.62	46.81
623.77	107.66
623.92	56.17
624.07	100.64
624.23	42.13
624.38	49.15
624.53	32.77
624.68	70.22
624.83	117.03
624.98	39.79
625.13	79.58
625.29	70.22
625.44	105.32
625.59	49.15
625.74	84.26
625.89	23.41
626.04	98.30
626.19	44.47
626.34	140.43
626.49	112.35
626.65	98.30
626.80	4.68
626.95	72.56
627.10	0.00
627.25	42.13
627.40	70.22
627.55	117.03
627.70	65.54
627.85	77.24
628.00	56.17
628.15	0.00
628.30	184.90
628.45	128.73
628.60	42.13
628.76	4.68
628.91	65.54
629.06	7.02
629.21	9.36
629.36	91.28
629.51	65.54
629.66	39.79
629.81	0.00
629.96	117.03
630.11	65.54
630.26	81.92
630.41	79.58
630.56	77.24
630.71	65.54
630.86	74.90
631.01	53.83
631.16	30.43
631.31	65.54
631.46	32.77
631.61	0.00
631.76	37.45
631.91	35.11
632.06	110.01
632.21	58.51
632.36	23.41
632.51	65.54
632.66	0.00
632.81	0.00
632.96	25.75
633.10	51.49
633.25	91.28
633.40	42.13
633.55	32.77
633.70	65.54
633.85	105.32
634.00	35.11
634.15	39.79
634.30	88.94
634.45	39.79
634.60	39.79
634.75	77.24
634.90	100.64
635.05	84.26
635.19	23.41
635.34	65.54
635.49	46.81
635.64	7.02
635.79	39.79
635.94	81.92
636.09	42.13
636.24	117.03
636.39	51.49
636.53	102.98
636.68	18.72
636.83	67.88
636.98	0.00
637.13	32.77
637.28	16.38
637.43	74.90
637.57	112.35
637.72	25.75
637.87	2.34
638.02	74.90
638.17	58.51
638.32	63.19
638.46	44.47
638.61	67.88
638.76	32.77
638.91	51.49
639.06	67.88
639.20	63.19
639.35	81.92
639.50	93.62
639.65	0.00
639.80	74.90
639.94	117.03
640.09	21.06
640.24	77.24
640.39	46.81
640.54	56.17
640.68	42.13
640.83	79.58
640.98	119.37
641.13	49.15
641.27	107.66
641.42	88.94
641.57	51.49
641.72	112.35
641.86	70.22
642.01	86.60
642.16	124.05
642.31	28.09
642.45	88.94
642.60	70.22
642.75	30.43
642.90	70.22
643.04	105.32
643.19	121.71
643.34	67.88
643.48	112.35
643.63	63.19
643.78	53.83
643.93	42.13
644.07	60.85
644.22	63.19
644.37	0.00
644.51	67.88
644.66	58.51
644.81	77.24
644.95	11.70
645.10	72.56
645.25	2.34
645.39	70.22
645.54	102.98
645.69	63.19
645.83	110.01
645.98	67.88
646.13	28.09
646.27	42.13
646.42	39.79
646.57	86.60
646.71	51.49
646.86	124.05
647.00	88.94
647.15	51.49
647.30	9.36
647.44	7.02
647.59	28.09
647.74	81.92
647.88	91.28
648.03	0.00
648.17	23.41
648.32	67.88
648.47	124.05
648.61	39.79
648.76	53.83
648.90	58.51
649.05	35.11
649.20	42.13
649.34	135.75
649.49	49.15
649.63	91.28
649.78	70.22
649.92	63.19
650.07	63.19
650.21	53.83
650.36	51.49
650.51	53.83
650.65	88.94
650.80	53.83
650.94	102.98
651.09	16.38
651.23	0.00
651.38	44.47
651.52	114.69
651.67	60.85
651.81	49.15
651.96	88.94
652.10	100.64
652.25	112.35
652.39	37.45
652.54	51.49
652.68	105.32
652.83	72.56
652.97	86.60
653.12	77.24
653.26	37.45
653.41	9.36
653.55	32.77
653.70	53.83
653.84	7.02
653.99	131.07
654.13	88.94
654.27	58.51
654.42	16.38
654.56	25.75
654.71	42.13
654.85	46.81
655.00	100.64
655.14	72.56
655.29	117.03
655.43	16.38
655.57	51.49
655.72	49.15
655.86	14.04
656.01	58.51
656.15	11.70
656.30	65.54
656.44	16.38
656.58	46.81
656.73	4.68
656.87	4.68
657.01	30.43
657.16	53.83
657.30	58.51
657.45	28.09
657.59	37.45
657.73	7.02
657.88	63.19
658.02	91.28
658.16	74.90
658.31	7.02
658.45	98.30
658.60	98.30
658.74	56.17
658.88	0.00
659.03	18.72
659.17	91.28
659.31	35.11
659.46	81.92
659.60	51.49
659.74	7.02
659.89	56.17
660.03	0.00
660.17	88.94
660.32	98.30
660.46	112.35
660.60	0.00
660.74	56.17
660.89	74.90
661.03	46.81
661.17	60.85
661.32	53.83
661.46	56.17
661.60	46.81
661.74	0.00
661.89	79.58
662.03	28.09
662.17	0.00
662.31	56.17
662.46	49.15
662.60	37.45
662.74	11.70
662.88	30.43
663.03	37.45
663.17	0.00
663.31	42.13
663.45	32.77
663.60	58.51
663.74	28.09
663.88	56.17
664.02	81.92
664.17	28.09
664.31	39.79
664.45	60.85
664.59	67.88
664.73	23.41
664.88	30.43
665.02	16.38
665.16	25.75
665.30	60.85
665.44	154.48
665.59	147.45
665.73	53.83
665.87	131.07
666.01	49.15
666.15	110.01
666.29	32.77
666.44	114.69
666.58	70.22
666.72	0.00
666.86	23.41
667.00	67.88
667.14	53.83
667.28	81.92
667.43	51.49
667.57	0.00
667.71	0.00
667.85	86.60
667.99	30.43
668.13	4.68
668.27	0.00
668.41	16.38
668.56	0.00
668.70	49.15
668.84	84.26
668.98	60.85
669.12	98.30
669.26	23.41
669.40	81.92
669.54	46.81
669.68	30.43
669.82	37.45
669.96	86.60
670.10	93.62
670.25	65.54
670.39	60.85
670.53	14.04
670.67	25.75
670.81	14.04
670.95	0.00
671.09	35.11
671.23	32.77
671.37	2.34
671.51	51.49
671.65	56.17
671.79	74.90
671.93	53.83
672.07	0.00
672.21	86.60
672.35	51.49
672.49	0.00
672.63	32.77
672.77	49.15
672.91	32.77
673.05	44.47
673.19	25.75
673.33	95.96
673.47	84.26
673.61	28.09
673.75	56.17
673.89	79.58
674.03	102.98
674.17	65.54
674.31	0.00
674.45	140.43
674.59	79.58
674.73	79.58
674.87	98.30
675.01	37.45
675.15	37.45
675.29	32.77
675.43	32.77
675.56	72.56
675.70	93.62
675.84	65.54
675.98	39.79
676.12	28.09
676.26	65.54
676.40	44.47
676.54	28.09
676.68	77.24
676.82	21.06
676.96	0.00
677.10	42.13
677.23	63.19
677.37	37.45
677.51	35.11
677.65	74.90
677.79	7.02
677.93	0.00
678.07	30.43
678.21	0.00
678.34	58.51
678.48	79.58
678.62	63.19
678.76	81.92
678.90	102.98
679.04	0.00
679.18	105.32
679.31	9.36
679.45	9.36
679.59	42.13
679.73	58.51
679.87	21.06
680.00	86.60
680.14	88.94
680.28	79.58
680.42	0.00
680.56	23.41
680.70	35.11
680.83	37.45
680.97	49.15
681.11	86.60
681.25	32.77
681.39	32.77
681.52	93.62
681.66	42.13
681.80	0.00
681.94	25.75
682.07	0.00
682.21	37.45
682.35	60.85
682.49	0.00
682.62	84.26
682.76	88.94
682.90	53.83
683.04	128.73
683.17	42.13
683.31	44.47
683.45	30.43
683.59	0.00
683.72	39.79
683.86	65.54
684.00	28.09
684.13	2.34
684.27	16.38
684.41	126.39
684.55	39.79
684.68	0.00
684.82	0.00
684.96	4.68
685.09	46.81
685.23	32.77
685.37	58.51
685.50	0.00
685.64	51.49
685.78	16.38
685.91	35.11
686.05	25.75
686.19	60.85
686.32	18.72
686.46	79.58
686.60	88.94
686.73	46.81
686.87	16.38
687.01	46.81
687.14	91.28
687.28	18.72
687.42	21.06
687.55	49.15
687.69	16.38
687.82	0.00
687.96	25.75
688.10	77.24
688.23	65.54
688.37	72.56
688.50	25.75
688.64	9.36
688.78	49.15
688.91	7.02
689.05	39.79
689.18	32.77
689.32	0.00
689.46	18.72
689.59	30.43
689.73	4.68
689.86	53.83
690.00	30.43
690.13	35.11
690.27	65.54
690.41	16.38
690.54	46.81
690.68	65.54
690.81	60.85
690.95	102.98
691.08	74.90
691.22	35.11
691.35	105.32
691.49	44.47
691.62	93.62
691.76	0.00
691.89	0.00
692.03	0.00
692.16	84.26
692.30	49.15
692.43	70.22
692.57	46.81
692.70	39.79
692.84	58.51
692.97	30.43
693.11	98.30
693.24	53.83
693.38	23.41
693.51	49.15
693.65	32.77
693.78	0.00
693.92	102.98
694.05	60.85
694.19	65.54
694.32	60.85
694.45	79.58
694.59	42.13
694.72	11.70
694.86	0.00
694.99	0.00
695.13	42.13
695.26	79.58
695.39	138.09
695.53	35.11
695.66	4.68
695.80	70.22
695.93	23.41
696.07	81.92
696.20	18.72
696.33	0.00
696.47	7.02
696.60	28.09
696.73	93.62
696.87	0.00
697.00	72.56
697.14	49.15
697.27	63.19
697.40	65.54
697.54	67.88
697.67	77.24
697.80	86.60
697.94	0.00
698.07	63.19
698.21	58.51
698.34	0.00
698.47	28.09
698.61	46.81
698.74	86.60
698.87	65.54
699.01	95.96
699.14	58.51
699.27	84.26
699.40	21.06
699.54	0.00
699.67	25.75
699.80	16.38
699.94	9.36
700.07	0.00
700.20	88.94
700.34	86.60
700.47	49.15
700.60	21.06
700.73	16.38
700.87	81.92
701.00	30.43
701.13	72.56
701.26	95.96
701.40	65.54
701.53	77.24
701.66	30.43
701.79	37.45
701.93	9.36
702.06	37.45
702.19	77.24
702.32	4.68
702.46	58.51
702.59	25.75
702.72	39.79
702.85	16.38
702.99	86.60
703.12	14.04
703.25	23.41
703.38	28.09
703.51	49.15
703.65	56.17
703.78	60.85
703.91	30.43
704.04	37.45
704.17	16.38
704.31	77.24
704.44	0.00
704.57	16.38
704.70	0.00
704.83	65.54
704.96	21.06
705.10	74.90
705.23	0.00
>>>>>End Processed Spectral Data<<<<<
