SpectraSuite Data File
++++++++++++++++++++++++++++++++++++
Date: Fri Oct 04 12:13:44 GMT-05:00 2013
User: price-jones
Dark Spectrum Present: No
Reference Spectrum Present: No
Number of Sampled Component Spectra: 1
Spectrometers: USB2+H05261
Integration Time (usec): 10000 (USB2+H05261)
Spectra Averaged: 1 (USB2+H05261)
Boxcar Smoothing: 0 (USB2+H05261)
Correct for Electrical Dark: No (USB2+H05261)
Strobe/Lamp Enabled: No (USB2+H05261)
Correct for Detector Non-linearity: No (USB2+H05261)
Correct for Stray Light: No (USB2+H05261)
Number of Pixels in Processed Spectrum: 2048
>>>>>Begin Processed Spectral Data<<<<<
365.73	0.00
365.92	0.00
366.12	0.00
366.32	0.00
366.52	0.00
366.72	0.00
366.91	0.00
367.11	0.00
367.31	0.00
367.51	0.00
367.70	0.00
367.90	0.00
368.10	0.00
368.30	0.00
368.49	0.00
368.69	0.00
368.89	0.00
369.09	0.00
369.28	0.00
369.48	0.00
369.68	0.00
369.87	0.00
370.07	0.00
370.27	0.00
370.47	0.00
370.66	0.00
370.86	0.00
371.06	11.70
371.25	56.17
371.45	0.00
371.65	86.60
371.84	0.00
372.04	0.00
372.24	0.00
372.44	9.36
372.63	0.00
372.83	58.51
373.03	28.09
373.22	0.00
373.42	42.13
373.62	0.00
373.81	0.00
374.01	70.22
374.21	32.77
374.40	28.09
374.60	65.54
374.79	0.00
374.99	86.60
375.19	23.41
375.38	28.09
375.58	60.85
375.78	79.58
375.97	56.17
376.17	0.00
376.37	11.70
376.56	63.19
376.76	46.81
376.95	35.11
377.15	121.71
377.35	79.58
377.54	35.11
377.74	51.49
377.93	0.00
378.13	79.58
378.33	88.94
378.52	51.49
378.72	30.43
378.91	63.19
379.11	67.88
379.31	14.04
379.50	0.00
379.70	74.90
379.89	14.04
380.09	30.43
380.28	53.83
380.48	65.54
380.68	9.36
380.87	25.75
381.07	0.00
381.26	0.00
381.46	0.00
381.65	84.26
381.85	7.02
382.04	72.56
382.24	0.00
382.43	0.00
382.63	28.09
382.83	0.00
383.02	37.45
383.22	30.43
383.41	63.19
383.61	35.11
383.80	117.03
384.00	42.13
384.19	72.56
384.39	63.19
384.58	14.04
384.78	16.38
384.97	42.13
385.17	0.00
385.36	67.88
385.56	44.47
385.75	0.00
385.95	65.54
386.14	112.35
386.34	156.82
386.53	16.38
386.72	32.77
386.92	35.11
387.11	14.04
387.31	0.00
387.50	0.00
387.70	2.34
387.89	95.96
388.09	49.15
388.28	58.51
388.48	51.49
388.67	0.00
388.86	32.77
389.06	53.83
389.25	95.96
389.45	63.19
389.64	60.85
389.84	51.49
390.03	28.09
390.22	44.47
390.42	32.77
390.61	51.49
390.81	35.11
391.00	4.68
391.19	154.48
391.39	63.19
391.58	58.51
391.78	18.72
391.97	7.02
392.16	23.41
392.36	70.22
392.55	81.92
392.75	11.70
392.94	35.11
393.13	0.00
393.33	72.56
393.52	58.51
393.71	63.19
393.91	42.13
394.10	93.62
394.29	23.41
394.49	30.43
394.68	86.60
394.88	67.88
395.07	65.54
395.26	35.11
395.46	72.56
395.65	117.03
395.84	37.45
396.04	88.94
396.23	0.00
396.42	39.79
396.62	44.47
396.81	7.02
397.00	39.79
397.19	37.45
397.39	28.09
397.58	58.51
397.77	79.58
397.97	110.01
398.16	32.77
398.35	21.06
398.55	88.94
398.74	39.79
398.93	51.49
399.12	0.00
399.32	35.11
399.51	49.15
399.70	51.49
399.90	0.00
400.09	58.51
400.28	23.41
400.47	86.60
400.67	39.79
400.86	9.36
401.05	65.54
401.24	119.37
401.44	32.77
401.63	145.11
401.82	86.60
402.01	39.79
402.21	86.60
402.40	67.88
402.59	23.41
402.78	44.47
402.97	72.56
403.17	95.96
403.36	14.04
403.55	30.43
403.74	112.35
403.93	30.43
404.13	72.56
404.32	91.28
404.51	70.22
404.70	49.15
404.89	79.58
405.09	79.58
405.28	46.81
405.47	21.06
405.66	53.83
405.85	112.35
406.05	56.17
406.24	95.96
406.43	84.26
406.62	74.90
406.81	23.41
407.00	25.75
407.20	93.62
407.39	65.54
407.58	93.62
407.77	86.60
407.96	110.01
408.15	77.24
408.34	46.81
408.54	77.24
408.73	56.17
408.92	32.77
409.11	142.77
409.30	100.64
409.49	79.58
409.68	4.68
409.87	51.49
410.07	86.60
410.26	35.11
410.45	51.49
410.64	72.56
410.83	88.94
411.02	39.79
411.21	121.71
411.40	138.09
411.59	84.26
411.78	93.62
411.98	86.60
412.17	95.96
412.36	95.96
412.55	95.96
412.74	91.28
412.93	81.92
413.12	86.60
413.31	81.92
413.50	107.66
413.69	98.30
413.88	128.73
414.07	84.26
414.26	67.88
414.45	56.17
414.64	65.54
414.83	126.39
415.02	53.83
415.22	91.28
415.41	46.81
415.60	0.00
415.79	114.69
415.98	74.90
416.17	98.30
416.36	70.22
416.55	65.54
416.74	65.54
416.93	124.05
417.12	138.09
417.31	93.62
417.50	84.26
417.69	138.09
417.88	67.88
418.07	51.49
418.26	65.54
418.45	74.90
418.64	21.06
418.83	86.60
419.02	74.90
419.21	128.73
419.39	72.56
419.58	37.45
419.77	46.81
419.96	88.94
420.15	98.30
420.34	58.51
420.53	46.81
420.72	77.24
420.91	84.26
421.10	65.54
421.29	107.66
421.48	56.17
421.67	67.88
421.86	58.51
422.05	63.19
422.24	102.98
422.43	107.66
422.61	18.72
422.80	39.79
422.99	105.32
423.18	30.43
423.37	98.30
423.56	81.92
423.75	18.72
423.94	107.66
424.13	70.22
424.32	102.98
424.50	91.28
424.69	91.28
424.88	23.41
425.07	11.70
425.26	28.09
425.45	56.17
425.64	74.90
425.83	93.62
426.01	60.85
426.20	0.00
426.39	117.03
426.58	81.92
426.77	53.83
426.96	117.03
427.15	121.71
427.33	77.24
427.52	107.66
427.71	51.49
427.90	110.01
428.09	4.68
428.28	79.58
428.46	91.28
428.65	74.90
428.84	100.64
429.03	112.35
429.22	95.96
429.40	84.26
429.59	84.26
429.78	102.98
429.97	60.85
430.16	84.26
430.34	39.79
430.53	0.00
430.72	79.58
430.91	23.41
431.10	112.35
431.28	72.56
431.47	114.69
431.66	105.32
431.85	84.26
432.03	152.13
432.22	86.60
432.41	11.70
432.60	74.90
432.79	88.94
432.97	16.38
433.16	79.58
433.35	84.26
433.54	88.94
433.72	0.00
433.91	63.19
434.10	100.64
434.28	58.51
434.47	126.39
434.66	39.79
434.85	65.54
435.03	86.60
435.22	102.98
435.41	74.90
435.59	102.98
435.78	81.92
435.97	112.35
436.16	35.11
436.34	72.56
436.53	37.45
436.72	117.03
436.90	46.81
437.09	100.64
437.28	100.64
437.46	67.88
437.65	67.88
437.84	91.28
438.02	117.03
438.21	133.41
438.40	16.38
438.58	39.79
438.77	112.35
438.96	53.83
439.14	65.54
439.33	93.62
439.52	9.36
439.70	175.54
439.89	37.45
440.08	86.60
440.26	126.39
440.45	0.00
440.63	18.72
440.82	107.66
441.01	46.81
441.19	142.77
441.38	86.60
441.57	88.94
441.75	180.22
441.94	84.26
442.12	112.35
442.31	145.11
442.50	138.09
442.68	121.71
442.87	98.30
443.05	110.01
443.24	65.54
443.43	133.41
443.61	25.75
443.80	93.62
443.98	117.03
444.17	88.94
444.35	53.83
444.54	124.05
444.73	128.73
444.91	145.11
445.10	156.82
445.28	88.94
445.47	93.62
445.65	91.28
445.84	18.72
446.02	42.13
446.21	117.03
446.39	100.64
446.58	112.35
446.77	102.98
446.95	135.75
447.14	107.66
447.32	91.28
447.51	37.45
447.69	119.37
447.88	102.98
448.06	166.18
448.25	77.24
448.43	72.56
448.62	114.69
448.80	102.98
448.99	95.96
449.17	124.05
449.36	42.13
449.54	86.60
449.73	156.82
449.91	201.29
450.10	121.71
450.28	110.01
450.46	117.03
450.65	107.66
450.83	74.90
451.02	93.62
451.20	161.50
451.39	102.98
451.57	65.54
451.76	114.69
451.94	110.01
452.13	95.96
452.31	147.45
452.49	135.75
452.68	161.50
452.86	208.31
453.05	98.30
453.23	95.96
453.42	117.03
453.60	98.30
453.78	187.24
453.97	93.62
454.15	105.32
454.34	44.47
454.52	152.13
454.70	65.54
454.89	135.75
455.07	135.75
455.26	74.90
455.44	72.56
455.62	154.48
455.81	156.82
455.99	119.37
456.17	114.69
456.36	170.86
456.54	7.02
456.73	42.13
456.91	72.56
457.09	128.73
457.28	95.96
457.46	119.37
457.64	79.58
457.83	105.32
458.01	119.37
458.19	112.35
458.38	49.15
458.56	131.07
458.74	133.41
458.93	133.41
459.11	77.24
459.29	131.07
459.48	77.24
459.66	131.07
459.84	126.39
460.03	135.75
460.21	149.79
460.39	142.77
460.57	84.26
460.76	119.37
460.94	51.49
461.12	147.45
461.31	163.84
461.49	156.82
461.67	105.32
461.85	147.45
462.04	133.41
462.22	224.69
462.40	147.45
462.59	119.37
462.77	102.98
462.95	128.73
463.13	114.69
463.32	110.01
463.50	114.69
463.68	119.37
463.86	133.41
464.05	140.43
464.23	39.79
464.41	77.24
464.59	117.03
464.78	105.32
464.96	42.13
465.14	119.37
465.32	114.69
465.50	77.24
465.69	95.96
465.87	74.90
466.05	98.30
466.23	159.16
466.41	46.81
466.60	86.60
466.78	173.20
466.96	114.69
467.14	79.58
467.32	154.48
467.51	128.73
467.69	70.22
467.87	112.35
468.05	117.03
468.23	131.07
468.41	79.58
468.60	121.71
468.78	105.32
468.96	100.64
469.14	84.26
469.32	60.85
469.50	110.01
469.69	135.75
469.87	77.24
470.05	128.73
470.23	56.17
470.41	161.50
470.59	49.15
470.77	124.05
470.95	154.48
471.14	67.88
471.32	112.35
471.50	107.66
471.68	110.01
471.86	88.94
472.04	124.05
472.22	152.13
472.40	119.37
472.58	110.01
472.77	161.50
472.95	117.03
473.13	114.69
473.31	84.26
473.49	63.19
473.67	147.45
473.85	140.43
474.03	145.11
474.21	175.54
474.39	166.18
474.57	79.58
474.75	124.05
474.93	177.88
475.12	98.30
475.30	100.64
475.48	74.90
475.66	175.54
475.84	140.43
476.02	145.11
476.20	112.35
476.38	166.18
476.56	107.66
476.74	91.28
476.92	112.35
477.10	91.28
477.28	110.01
477.46	121.71
477.64	74.90
477.82	112.35
478.00	81.92
478.18	145.11
478.36	72.56
478.54	154.48
478.72	110.01
478.90	156.82
479.08	133.41
479.26	124.05
479.44	191.92
479.62	105.32
479.80	124.05
479.98	60.85
480.16	98.30
480.34	124.05
480.52	77.24
480.70	140.43
480.88	128.73
481.06	133.41
481.24	119.37
481.41	133.41
481.59	182.56
481.77	84.26
481.95	72.56
482.13	161.50
482.31	159.16
482.49	184.90
482.67	84.26
482.85	88.94
483.03	161.50
483.21	159.16
483.39	142.77
483.57	114.69
483.74	102.98
483.92	131.07
484.10	135.75
484.28	208.31
484.46	133.41
484.64	156.82
484.82	175.54
485.00	145.11
485.18	154.48
485.35	173.20
485.53	119.37
485.71	56.17
485.89	114.69
486.07	131.07
486.25	142.77
486.43	149.79
486.61	161.50
486.78	187.24
486.96	117.03
487.14	119.37
487.32	168.52
487.50	53.83
487.68	93.62
487.85	210.65
488.03	117.03
488.21	196.60
488.39	133.41
488.57	131.07
488.75	177.88
488.92	149.79
489.10	161.50
489.28	182.56
489.46	182.56
489.64	173.20
489.81	117.03
489.99	191.92
490.17	149.79
490.35	168.52
490.53	154.48
490.70	189.58
490.88	133.41
491.06	128.73
491.24	241.08
491.41	105.32
491.59	175.54
491.77	133.41
491.95	142.77
492.13	168.52
492.30	100.64
492.48	107.66
492.66	224.69
492.84	156.82
493.01	266.82
493.19	205.97
493.37	210.65
493.54	184.90
493.72	135.75
493.90	215.33
494.08	194.26
494.25	117.03
494.43	112.35
494.61	201.29
494.79	220.01
494.96	220.01
495.14	198.95
495.32	145.11
495.49	124.05
495.67	182.56
495.85	147.45
496.02	138.09
496.20	187.24
496.38	224.69
496.55	189.58
496.73	168.52
496.91	159.16
497.09	168.52
497.26	175.54
497.44	177.88
497.62	131.07
497.79	145.11
497.97	166.18
498.14	142.77
498.32	182.56
498.50	191.92
498.67	231.71
498.85	154.48
499.03	156.82
499.20	234.05
499.38	138.09
499.56	191.92
499.73	86.60
499.91	170.86
500.08	187.24
500.26	142.77
500.44	170.86
500.61	163.84
500.79	198.95
500.97	140.43
501.14	203.63
501.32	149.79
501.49	140.43
501.67	182.56
501.84	128.73
502.02	187.24
502.20	131.07
502.37	177.88
502.55	145.11
502.72	180.22
502.90	198.95
503.07	196.60
503.25	163.84
503.43	107.66
503.60	262.14
503.78	119.37
503.95	126.39
504.13	231.71
504.30	159.16
504.48	205.97
504.65	215.33
504.83	217.67
505.01	196.60
505.18	266.82
505.36	196.60
505.53	175.54
505.71	248.10
505.88	271.50
506.06	166.18
506.23	161.50
506.41	203.63
506.58	203.63
506.76	105.32
506.93	222.35
507.11	149.79
507.28	138.09
507.46	243.42
507.63	161.50
507.81	149.79
507.98	189.58
508.16	177.88
508.33	205.97
508.50	170.86
508.68	170.86
508.85	245.76
509.03	248.10
509.20	180.22
509.38	259.80
509.55	201.29
509.73	231.71
509.90	241.08
510.08	95.96
510.25	161.50
510.42	231.71
510.60	210.65
510.77	191.92
510.95	227.03
511.12	166.18
511.30	264.48
511.47	177.88
511.64	215.33
511.82	229.37
511.99	133.41
512.17	145.11
512.34	166.18
512.51	210.65
512.69	203.63
512.86	234.05
513.04	189.58
513.21	210.65
513.38	168.52
513.56	184.90
513.73	133.41
513.90	210.65
514.08	147.45
514.25	154.48
514.43	191.92
514.60	198.95
514.77	227.03
514.95	168.52
515.12	138.09
515.29	210.65
515.47	168.52
515.64	198.95
515.81	184.90
515.99	184.90
516.16	234.05
516.33	170.86
516.51	159.16
516.68	140.43
516.85	189.58
517.03	95.96
517.20	175.54
517.37	217.67
517.54	145.11
517.72	205.97
517.89	170.86
518.06	135.75
518.24	163.84
518.41	187.24
518.58	234.05
518.75	203.63
518.93	222.35
519.10	128.73
519.27	175.54
519.45	182.56
519.62	191.92
519.79	201.29
519.96	128.73
520.14	161.50
520.31	220.01
520.48	210.65
520.65	191.92
520.83	208.31
521.00	231.71
521.17	243.42
521.34	194.26
521.52	203.63
521.69	182.56
521.86	135.75
522.03	191.92
522.20	163.84
522.38	255.12
522.55	276.18
522.72	220.01
522.89	208.31
523.07	196.60
523.24	161.50
523.41	182.56
523.58	161.50
523.75	159.16
523.92	238.73
524.10	210.65
524.27	252.78
524.44	248.10
524.61	177.88
524.78	205.97
524.96	152.13
525.13	217.67
525.30	205.97
525.47	161.50
525.64	98.30
525.81	173.20
525.98	245.76
526.16	161.50
526.33	243.42
526.50	93.62
526.67	145.11
526.84	196.60
527.01	208.31
527.18	142.77
527.36	278.52
527.53	259.80
527.70	220.01
527.87	163.84
528.04	170.86
528.21	166.18
528.38	203.63
528.55	194.26
528.72	252.78
528.89	243.42
529.07	196.60
529.24	245.76
529.41	177.88
529.58	107.66
529.75	124.05
529.92	220.01
530.09	187.24
530.26	105.32
530.43	308.95
530.60	231.71
530.77	189.58
530.94	194.26
531.11	220.01
531.28	278.52
531.46	152.13
531.63	182.56
531.80	215.33
531.97	168.52
532.14	189.58
532.31	210.65
532.48	203.63
532.65	110.01
532.82	187.24
532.99	217.67
533.16	210.65
533.33	257.46
533.50	161.50
533.67	180.22
533.84	187.24
534.01	215.33
534.18	177.88
534.35	117.03
534.52	159.16
534.69	189.58
534.86	187.24
535.03	175.54
535.20	245.76
535.37	257.46
535.54	245.76
535.71	255.12
535.88	215.33
536.05	301.93
536.22	210.65
536.38	224.69
536.55	234.05
536.72	149.79
536.89	177.88
537.06	154.48
537.23	198.95
537.40	238.73
537.57	208.31
537.74	245.76
537.91	175.54
538.08	149.79
538.25	203.63
538.42	205.97
538.59	135.75
538.75	177.88
538.92	257.46
539.09	264.48
539.26	234.05
539.43	168.52
539.60	227.03
539.77	262.14
539.94	222.35
540.11	184.90
540.28	163.84
540.44	194.26
540.61	163.84
540.78	210.65
540.95	238.73
541.12	173.20
541.29	159.16
541.46	175.54
541.62	229.37
541.79	189.58
541.96	117.03
542.13	217.67
542.30	182.56
542.47	102.98
542.63	203.63
542.80	208.31
542.97	175.54
543.14	231.71
543.31	140.43
543.48	292.57
543.64	227.03
543.81	203.63
543.98	147.45
544.15	217.67
544.32	217.67
544.48	163.84
544.65	238.73
544.82	227.03
544.99	196.60
545.16	117.03
545.32	95.96
545.49	177.88
545.66	149.79
545.83	234.05
546.00	173.20
546.16	198.95
546.33	135.75
546.50	145.11
546.67	131.07
546.83	203.63
547.00	210.65
547.17	220.01
547.34	194.26
547.50	145.11
547.67	166.18
547.84	220.01
548.00	208.31
548.17	147.45
548.34	191.92
548.51	196.60
548.67	227.03
548.84	248.10
549.01	189.58
549.18	177.88
549.34	135.75
549.51	252.78
549.68	227.03
549.84	271.50
550.01	180.22
550.18	203.63
550.34	140.43
550.51	234.05
550.68	177.88
550.84	224.69
551.01	187.24
551.18	241.08
551.34	184.90
551.51	201.29
551.68	163.84
551.84	182.56
552.01	187.24
552.18	170.86
552.34	163.84
552.51	215.33
552.68	236.39
552.84	217.67
553.01	194.26
553.18	142.77
553.34	287.89
553.51	217.67
553.67	210.65
553.84	210.65
554.01	184.90
554.17	170.86
554.34	210.65
554.51	201.29
554.67	170.86
554.84	203.63
555.00	220.01
555.17	184.90
555.33	220.01
555.50	147.45
555.67	142.77
555.83	208.31
556.00	133.41
556.16	217.67
556.33	177.88
556.50	91.28
556.66	191.92
556.83	98.30
556.99	241.08
557.16	187.24
557.32	154.48
557.49	180.22
557.65	110.01
557.82	229.37
557.98	149.79
558.15	173.20
558.32	147.45
558.48	215.33
558.65	224.69
558.81	175.54
558.98	140.43
559.14	161.50
559.31	142.77
559.47	138.09
559.64	241.08
559.80	182.56
559.97	173.20
560.13	208.31
560.30	234.05
560.46	152.13
560.63	184.90
560.79	220.01
560.96	187.24
561.12	168.52
561.29	184.90
561.45	215.33
561.61	187.24
561.78	182.56
561.94	229.37
562.11	175.54
562.27	161.50
562.44	189.58
562.60	93.62
562.77	180.22
562.93	201.29
563.10	154.48
563.26	208.31
563.42	217.67
563.59	147.45
563.75	163.84
563.92	252.78
564.08	191.92
564.24	201.29
564.41	177.88
564.57	217.67
564.74	191.92
564.90	217.67
565.07	159.16
565.23	198.95
565.39	184.90
565.56	191.92
565.72	126.39
565.88	177.88
566.05	91.28
566.21	210.65
566.38	236.39
566.54	184.90
566.70	184.90
566.87	156.82
567.03	161.50
567.19	215.33
567.36	180.22
567.52	117.03
567.68	212.99
567.85	184.90
568.01	215.33
568.17	117.03
568.34	168.52
568.50	224.69
568.66	159.16
568.83	149.79
568.99	135.75
569.15	196.60
569.32	241.08
569.48	189.58
569.64	170.86
569.81	95.96
569.97	180.22
570.13	170.86
570.30	154.48
570.46	166.18
570.62	152.13
570.78	161.50
570.95	152.13
571.11	222.35
571.27	173.20
571.43	170.86
571.60	102.98
571.76	166.18
571.92	140.43
572.09	149.79
572.25	224.69
572.41	168.52
572.57	194.26
572.74	145.11
572.90	145.11
573.06	170.86
573.22	210.65
573.38	175.54
573.55	168.52
573.71	222.35
573.87	163.84
574.03	102.98
574.20	154.48
574.36	110.01
574.52	170.86
574.68	126.39
574.84	184.90
575.01	161.50
575.17	126.39
575.33	159.16
575.49	133.41
575.65	198.95
575.82	161.50
575.98	224.69
576.14	210.65
576.30	156.82
576.46	170.86
576.62	117.03
576.79	128.73
576.95	154.48
577.11	124.05
577.27	152.13
577.43	168.52
577.59	196.60
577.75	196.60
577.92	196.60
578.08	112.35
578.24	142.77
578.40	198.95
578.56	138.09
578.72	175.54
578.88	149.79
579.04	173.20
579.21	191.92
579.37	110.01
579.53	105.32
579.69	124.05
579.85	175.54
580.01	203.63
580.17	196.60
580.33	187.24
580.49	187.24
580.65	217.67
580.82	222.35
580.98	184.90
581.14	234.05
581.30	189.58
581.46	161.50
581.62	74.90
581.78	145.11
581.94	100.64
582.10	173.20
582.26	117.03
582.42	173.20
582.58	138.09
582.74	217.67
582.90	161.50
583.06	159.16
583.22	140.43
583.38	140.43
583.54	250.44
583.70	191.92
583.86	180.22
584.02	145.11
584.18	215.33
584.34	184.90
584.50	124.05
584.66	166.18
584.82	131.07
584.98	198.95
585.14	198.95
585.30	217.67
585.46	175.54
585.62	128.73
585.78	168.52
585.94	114.69
586.10	147.45
586.26	231.71
586.42	177.88
586.58	173.20
586.74	152.13
586.90	187.24
587.06	189.58
587.22	149.79
587.38	133.41
587.54	266.82
587.70	149.79
587.86	187.24
588.02	152.13
588.18	93.62
588.34	170.86
588.49	117.03
588.65	110.01
588.81	133.41
588.97	98.30
589.13	79.58
589.29	110.01
589.45	121.71
589.61	98.30
589.77	95.96
589.93	156.82
590.08	112.35
590.24	163.84
590.40	35.11
590.56	145.11
590.72	124.05
590.88	128.73
591.04	156.82
591.20	252.78
591.35	163.84
591.51	67.88
591.67	208.31
591.83	166.18
591.99	95.96
592.15	173.20
592.31	147.45
592.46	63.19
592.62	154.48
592.78	114.69
592.94	184.90
593.10	138.09
593.26	133.41
593.41	210.65
593.57	112.35
593.73	212.99
593.89	166.18
594.05	86.60
594.20	70.22
594.36	147.45
594.52	79.58
594.68	107.66
594.84	205.97
594.99	163.84
595.15	173.20
595.31	224.69
595.47	138.09
595.62	163.84
595.78	133.41
595.94	138.09
596.10	175.54
596.25	217.67
596.41	112.35
596.57	119.37
596.73	149.79
596.88	163.84
597.04	131.07
597.20	196.60
597.36	135.75
597.51	135.75
597.67	105.32
597.83	93.62
597.99	159.16
598.14	39.79
598.30	107.66
598.46	152.13
598.61	156.82
598.77	100.64
598.93	177.88
599.09	173.20
599.24	149.79
599.40	184.90
599.56	100.64
599.71	163.84
599.87	145.11
600.03	117.03
600.18	161.50
600.34	175.54
600.50	145.11
600.65	180.22
600.81	135.75
600.97	161.50
601.12	102.98
601.28	102.98
601.44	187.24
601.59	138.09
601.75	182.56
601.91	168.52
602.06	91.28
602.22	121.71
602.37	152.13
602.53	159.16
602.69	121.71
602.84	198.95
603.00	131.07
603.16	152.13
603.31	114.69
603.47	175.54
603.62	154.48
603.78	154.48
603.94	70.22
604.09	166.18
604.25	161.50
604.40	201.29
604.56	205.97
604.71	110.01
604.87	79.58
605.03	166.18
605.18	95.96
605.34	187.24
605.49	198.95
605.65	161.50
605.80	119.37
605.96	175.54
606.12	152.13
606.27	149.79
606.43	159.16
606.58	133.41
606.74	161.50
606.89	201.29
607.05	145.11
607.20	77.24
607.36	163.84
607.51	119.37
607.67	77.24
607.82	140.43
607.98	121.71
608.13	117.03
608.29	110.01
608.44	110.01
608.60	119.37
608.75	203.63
608.91	107.66
609.06	163.84
609.22	138.09
609.37	133.41
609.53	105.32
609.68	140.43
609.84	126.39
609.99	194.26
610.15	98.30
610.30	79.58
610.46	138.09
610.61	210.65
610.76	133.41
610.92	124.05
611.07	79.58
611.23	98.30
611.38	93.62
611.54	121.71
611.69	147.45
611.84	175.54
612.00	107.66
612.15	138.09
612.31	91.28
612.46	119.37
612.62	147.45
612.77	173.20
612.92	210.65
613.08	159.16
613.23	98.30
613.39	133.41
613.54	35.11
613.69	91.28
613.85	110.01
614.00	117.03
614.15	189.58
614.31	128.73
614.46	91.28
614.62	140.43
614.77	91.28
614.92	133.41
615.08	175.54
615.23	175.54
615.38	182.56
615.54	131.07
615.69	184.90
615.84	149.79
616.00	110.01
616.15	131.07
616.30	112.35
616.46	135.75
616.61	81.92
616.76	121.71
616.92	126.39
617.07	166.18
617.22	133.41
617.37	128.73
617.53	105.32
617.68	173.20
617.83	138.09
617.99	173.20
618.14	138.09
618.29	128.73
618.45	198.95
618.60	121.71
618.75	154.48
618.90	98.30
619.06	98.30
619.21	131.07
619.36	142.77
619.51	161.50
619.67	79.58
619.82	175.54
619.97	117.03
620.12	147.45
620.28	110.01
620.43	119.37
620.58	98.30
620.73	114.69
620.89	110.01
621.04	79.58
621.19	51.49
621.34	131.07
621.49	128.73
621.65	149.79
621.80	191.92
621.95	147.45
622.10	149.79
622.25	140.43
622.41	128.73
622.56	173.20
622.71	161.50
622.86	119.37
623.01	81.92
623.16	107.66
623.32	91.28
623.47	105.32
623.62	142.77
623.77	126.39
623.92	112.35
624.07	168.52
624.23	135.75
624.38	112.35
624.53	126.39
624.68	180.22
624.83	163.84
624.98	100.64
625.13	135.75
625.29	121.71
625.44	74.90
625.59	173.20
625.74	107.66
625.89	149.79
626.04	133.41
626.19	77.24
626.34	163.84
626.49	126.39
626.65	170.86
626.80	86.60
626.95	138.09
627.10	112.35
627.25	117.03
627.40	112.35
627.55	131.07
627.70	58.51
627.85	58.51
628.00	114.69
628.15	95.96
628.30	133.41
628.45	88.94
628.60	131.07
628.76	74.90
628.91	105.32
629.06	77.24
629.21	131.07
629.36	140.43
629.51	91.28
629.66	147.45
629.81	114.69
629.96	79.58
630.11	117.03
630.26	74.90
630.41	163.84
630.56	65.54
630.71	100.64
630.86	74.90
631.01	124.05
631.16	131.07
631.31	70.22
631.46	77.24
631.61	163.84
631.76	60.85
631.91	117.03
632.06	102.98
632.21	100.64
632.36	112.35
632.51	119.37
632.66	74.90
632.81	124.05
632.96	119.37
633.10	86.60
633.25	198.95
633.40	121.71
633.55	133.41
633.70	140.43
633.85	131.07
634.00	112.35
634.15	77.24
634.30	30.43
634.45	131.07
634.60	77.24
634.75	140.43
634.90	112.35
635.05	177.88
635.19	131.07
635.34	170.86
635.49	191.92
635.64	110.01
635.79	105.32
635.94	105.32
636.09	65.54
636.24	56.17
636.39	133.41
636.53	98.30
636.68	142.77
636.83	145.11
636.98	74.90
637.13	102.98
637.28	93.62
637.43	131.07
637.57	212.99
637.72	175.54
637.87	140.43
638.02	84.26
638.17	112.35
638.32	133.41
638.46	110.01
638.61	95.96
638.76	117.03
638.91	159.16
639.06	159.16
639.20	114.69
639.35	56.17
639.50	112.35
639.65	163.84
639.80	81.92
639.94	107.66
640.09	147.45
640.24	173.20
640.39	149.79
640.54	37.45
640.68	81.92
640.83	124.05
640.98	91.28
641.13	124.05
641.27	79.58
641.42	95.96
641.57	163.84
641.72	149.79
641.86	138.09
642.01	81.92
642.16	121.71
642.31	58.51
642.45	32.77
642.60	138.09
642.75	159.16
642.90	65.54
643.04	131.07
643.19	107.66
643.34	110.01
643.48	147.45
643.63	91.28
643.78	100.64
643.93	21.06
644.07	128.73
644.22	67.88
644.37	44.47
644.51	128.73
644.66	156.82
644.81	49.15
644.95	84.26
645.10	128.73
645.25	117.03
645.39	95.96
645.54	58.51
645.69	161.50
645.83	114.69
645.98	70.22
646.13	133.41
646.27	91.28
646.42	67.88
646.57	84.26
646.71	110.01
646.86	117.03
647.00	124.05
647.15	84.26
647.30	107.66
647.44	107.66
647.59	84.26
647.74	126.39
647.88	91.28
648.03	81.92
648.17	93.62
648.32	154.48
648.47	60.85
648.61	154.48
648.76	140.43
648.90	210.65
649.05	117.03
649.20	16.38
649.34	86.60
649.49	58.51
649.63	117.03
649.78	133.41
649.92	49.15
650.07	102.98
650.21	93.62
650.36	58.51
650.51	114.69
650.65	84.26
650.80	79.58
650.94	145.11
651.09	105.32
651.23	93.62
651.38	35.11
651.52	91.28
651.67	72.56
651.81	77.24
651.96	77.24
652.10	98.30
652.25	110.01
652.39	58.51
652.54	49.15
652.68	56.17
652.83	142.77
652.97	72.56
653.12	114.69
653.26	84.26
653.41	91.28
653.55	53.83
653.70	140.43
653.84	135.75
653.99	124.05
654.13	121.71
654.27	126.39
654.42	95.96
654.56	138.09
654.71	142.77
654.85	170.86
655.00	84.26
655.14	72.56
655.29	93.62
655.43	142.77
655.57	131.07
655.72	100.64
655.86	84.26
656.01	77.24
656.15	102.98
656.30	72.56
656.44	9.36
656.58	60.85
656.73	79.58
656.87	100.64
657.01	168.52
657.16	173.20
657.30	84.26
657.45	51.49
657.59	65.54
657.73	79.58
657.88	126.39
658.02	159.16
658.16	23.41
658.31	121.71
658.45	142.77
658.60	124.05
658.74	187.24
658.88	126.39
659.03	88.94
659.17	98.30
659.31	98.30
659.46	35.11
659.60	93.62
659.74	2.34
659.89	74.90
660.03	84.26
660.17	72.56
660.32	93.62
660.46	110.01
660.60	107.66
660.74	140.43
660.89	102.98
661.03	110.01
661.17	93.62
661.32	28.09
661.46	84.26
661.60	30.43
661.74	140.43
661.89	128.73
662.03	93.62
662.17	107.66
662.31	114.69
662.46	100.64
662.60	70.22
662.74	117.03
662.88	74.90
663.03	49.15
663.17	44.47
663.31	74.90
663.45	30.43
663.60	79.58
663.74	126.39
663.88	133.41
664.02	65.54
664.17	131.07
664.31	102.98
664.45	86.60
664.59	110.01
664.73	56.17
664.88	81.92
665.02	135.75
665.16	124.05
665.30	126.39
665.44	63.19
665.59	91.28
665.73	142.77
665.87	105.32
666.01	135.75
666.15	84.26
666.29	93.62
666.44	93.62
666.58	58.51
666.72	35.11
666.86	121.71
667.00	105.32
667.14	0.00
667.28	30.43
667.43	67.88
667.57	74.90
667.71	72.56
667.85	100.64
667.99	86.60
668.13	131.07
668.27	91.28
668.41	21.06
668.56	154.48
668.70	203.63
668.84	65.54
668.98	74.90
669.12	72.56
669.26	173.20
669.40	163.84
669.54	124.05
669.68	102.98
669.82	81.92
669.96	117.03
670.10	70.22
670.25	91.28
670.39	88.94
670.53	65.54
670.67	133.41
670.81	117.03
670.95	53.83
671.09	79.58
671.23	95.96
671.37	72.56
671.51	135.75
671.65	79.58
671.79	53.83
671.93	142.77
672.07	51.49
672.21	65.54
672.35	67.88
672.49	51.49
672.63	88.94
672.77	72.56
672.91	86.60
673.05	79.58
673.19	81.92
673.33	58.51
673.47	91.28
673.61	72.56
673.75	46.81
673.89	28.09
674.03	84.26
674.17	93.62
674.31	124.05
674.45	84.26
674.59	70.22
674.73	107.66
674.87	110.01
675.01	56.17
675.15	79.58
675.29	112.35
675.43	114.69
675.56	114.69
675.70	46.81
675.84	84.26
675.98	86.60
676.12	107.66
676.26	173.20
676.40	112.35
676.54	100.64
676.68	121.71
676.82	49.15
676.96	58.51
677.10	128.73
677.23	49.15
677.37	70.22
677.51	51.49
677.65	28.09
677.79	72.56
677.93	102.98
678.07	163.84
678.21	93.62
678.34	44.47
678.48	107.66
678.62	81.92
678.76	58.51
678.90	147.45
679.04	102.98
679.18	72.56
679.31	105.32
679.45	32.77
679.59	42.13
679.73	117.03
679.87	88.94
680.00	21.06
680.14	70.22
680.28	95.96
680.42	74.90
680.56	46.81
680.70	51.49
680.83	63.19
680.97	0.00
681.11	42.13
681.25	110.01
681.39	35.11
681.52	49.15
681.66	117.03
681.80	105.32
681.94	110.01
682.07	51.49
682.21	112.35
682.35	72.56
682.49	88.94
682.62	30.43
682.76	91.28
682.90	58.51
683.04	60.85
683.17	56.17
683.31	46.81
683.45	135.75
683.59	65.54
683.72	28.09
683.86	81.92
684.00	72.56
684.13	0.00
684.27	77.24
684.41	35.11
684.55	28.09
684.68	44.47
684.82	53.83
684.96	35.11
685.09	107.66
685.23	39.79
685.37	28.09
685.50	124.05
685.64	0.00
685.78	16.38
685.91	117.03
686.05	0.00
686.19	46.81
686.32	53.83
686.46	86.60
686.60	81.92
686.73	79.58
686.87	112.35
687.01	117.03
687.14	72.56
687.28	56.17
687.42	18.72
687.55	32.77
687.69	14.04
687.82	0.00
687.96	39.79
688.10	25.75
688.23	84.26
688.37	51.49
688.50	46.81
688.64	56.17
688.78	9.36
688.91	28.09
689.05	58.51
689.18	39.79
689.32	4.68
689.46	93.62
689.59	67.88
689.73	44.47
689.86	63.19
690.00	65.54
690.13	21.06
690.27	30.43
690.41	30.43
690.54	93.62
690.68	107.66
690.81	93.62
690.95	35.11
691.08	49.15
691.22	117.03
691.35	74.90
691.49	70.22
691.62	67.88
691.76	0.00
691.89	51.49
692.03	51.49
692.16	86.60
692.30	30.43
692.43	35.11
692.57	11.70
692.70	49.15
692.84	126.39
692.97	39.79
693.11	39.79
693.24	0.00
693.38	140.43
693.51	93.62
693.65	60.85
693.78	105.32
693.92	79.58
694.05	30.43
694.19	70.22
694.32	126.39
694.45	51.49
694.59	0.00
694.72	70.22
694.86	79.58
694.99	84.26
695.13	25.75
695.26	21.06
695.39	60.85
695.53	114.69
695.66	102.98
695.80	0.00
695.93	70.22
696.07	32.77
696.20	30.43
696.33	74.90
696.47	77.24
696.60	65.54
696.73	42.13
696.87	25.75
697.00	32.77
697.14	86.60
697.27	0.00
697.40	77.24
697.54	58.51
697.67	107.66
697.80	112.35
697.94	91.28
698.07	28.09
698.21	56.17
698.34	37.45
698.47	49.15
698.61	35.11
698.74	63.19
698.87	0.00
699.01	98.30
699.14	0.00
699.27	159.16
699.40	37.45
699.54	65.54
699.67	58.51
699.80	79.58
699.94	56.17
700.07	30.43
700.20	110.01
700.34	25.75
700.47	25.75
700.60	72.56
700.73	86.60
700.87	65.54
701.00	0.00
701.13	0.00
701.26	0.00
701.40	0.00
701.53	42.13
701.66	56.17
701.79	28.09
701.93	32.77
702.06	100.64
702.19	35.11
702.32	77.24
702.46	49.15
702.59	37.45
702.72	46.81
702.85	53.83
702.99	46.81
703.12	44.47
703.25	4.68
703.38	56.17
703.51	0.00
703.65	63.19
703.78	60.85
703.91	9.36
704.04	0.00
704.17	18.72
704.31	2.34
704.44	81.92
704.57	60.85
704.70	56.17
704.83	56.17
704.96	102.98
705.10	42.13
705.23	53.83
>>>>>End Processed Spectral Data<<<<<
