SpectraSuite Data File
++++++++++++++++++++++++++++++++++++
Date: Fri Oct 04 11:34:05 GMT-05:00 2013
User: price-jones
Dark Spectrum Present: No
Reference Spectrum Present: No
Number of Sampled Component Spectra: 1
Spectrometers: USB2+H05261
Integration Time (usec): 100000 (USB2+H05261)
Spectra Averaged: 1 (USB2+H05261)
Boxcar Smoothing: 0 (USB2+H05261)
Correct for Electrical Dark: No (USB2+H05261)
Strobe/Lamp Enabled: No (USB2+H05261)
Correct for Detector Non-linearity: No (USB2+H05261)
Correct for Stray Light: No (USB2+H05261)
Number of Pixels in Processed Spectrum: 2048
>>>>>Begin Processed Spectral Data<<<<<
365.73	117.03
365.92	117.03
366.12	117.03
366.32	0.00
366.52	0.00
366.72	0.00
366.91	14.04
367.11	0.00
367.31	0.00
367.51	0.00
367.70	42.13
367.90	0.00
368.10	0.00
368.30	0.00
368.49	0.00
368.69	0.00
368.89	0.00
369.09	0.00
369.28	46.81
369.48	0.00
369.68	0.00
369.87	23.41
370.07	0.00
370.27	70.22
370.47	44.47
370.66	86.60
370.86	74.90
371.06	131.07
371.25	133.41
371.45	49.15
371.65	114.69
371.84	30.43
372.04	110.01
372.24	119.37
372.44	177.88
372.63	152.13
372.83	187.24
373.03	58.51
373.22	126.39
373.42	166.18
373.62	100.64
373.81	110.01
374.01	220.01
374.21	135.75
374.40	138.09
374.60	147.45
374.79	145.11
374.99	182.56
375.19	217.67
375.38	205.97
375.58	110.01
375.78	135.75
375.97	105.32
376.17	159.16
376.37	128.73
376.56	159.16
376.76	84.26
376.95	156.82
377.15	152.13
377.35	196.60
377.54	187.24
377.74	110.01
377.93	105.32
378.13	149.79
378.33	212.99
378.52	110.01
378.72	217.67
378.91	201.29
379.11	145.11
379.31	128.73
379.50	88.94
379.70	180.22
379.89	140.43
380.09	81.92
380.28	142.77
380.48	98.30
380.68	88.94
380.87	23.41
381.07	156.82
381.26	138.09
381.46	98.30
381.65	175.54
381.85	133.41
382.04	114.69
382.24	126.39
382.43	133.41
382.63	119.37
382.83	107.66
383.02	128.73
383.22	173.20
383.41	112.35
383.61	156.82
383.80	114.69
384.00	133.41
384.19	138.09
384.39	126.39
384.58	149.79
384.78	107.66
384.97	121.71
385.17	133.41
385.36	154.48
385.56	117.03
385.75	154.48
385.95	135.75
386.14	177.88
386.34	91.28
386.53	159.16
386.72	182.56
386.92	124.05
387.11	159.16
387.31	121.71
387.50	124.05
387.70	201.29
387.89	208.31
388.09	126.39
388.28	177.88
388.48	88.94
388.67	147.45
388.86	138.09
389.06	131.07
389.25	126.39
389.45	161.50
389.64	124.05
389.84	238.73
390.03	133.41
390.22	222.35
390.42	156.82
390.61	145.11
390.81	166.18
391.00	152.13
391.19	110.01
391.39	126.39
391.58	208.31
391.78	119.37
391.97	88.94
392.16	152.13
392.36	175.54
392.55	180.22
392.75	140.43
392.94	133.41
393.13	112.35
393.33	152.13
393.52	152.13
393.71	173.20
393.91	145.11
394.10	107.66
394.29	152.13
394.49	161.50
394.68	170.86
394.88	236.39
395.07	147.45
395.26	124.05
395.46	121.71
395.65	135.75
395.84	149.79
396.04	198.95
396.23	142.77
396.42	177.88
396.62	147.45
396.81	138.09
397.00	65.54
397.19	93.62
397.39	187.24
397.58	121.71
397.77	159.16
397.97	98.30
398.16	187.24
398.35	159.16
398.55	91.28
398.74	117.03
398.93	177.88
399.12	163.84
399.32	159.16
399.51	138.09
399.70	191.92
399.90	156.82
400.09	163.84
400.28	173.20
400.47	119.37
400.67	131.07
400.86	159.16
401.05	208.31
401.24	177.88
401.44	177.88
401.63	208.31
401.82	231.71
402.01	154.48
402.21	159.16
402.40	173.20
402.59	163.84
402.78	53.83
402.97	98.30
403.17	152.13
403.36	140.43
403.55	133.41
403.74	135.75
403.93	147.45
404.13	203.63
404.32	177.88
404.51	163.84
404.70	170.86
404.89	131.07
405.09	194.26
405.28	124.05
405.47	121.71
405.66	194.26
405.85	189.58
406.05	70.22
406.24	154.48
406.43	119.37
406.62	215.33
406.81	131.07
407.00	187.24
407.20	161.50
407.39	201.29
407.58	177.88
407.77	166.18
407.96	217.67
408.15	145.11
408.34	227.03
408.54	107.66
408.73	191.92
408.92	138.09
409.11	191.92
409.30	220.01
409.49	147.45
409.68	142.77
409.87	161.50
410.07	156.82
410.26	173.20
410.45	126.39
410.64	124.05
410.83	102.98
411.02	128.73
411.21	133.41
411.40	191.92
411.59	168.52
411.78	208.31
411.98	117.03
412.17	145.11
412.36	166.18
412.55	177.88
412.74	198.95
412.93	224.69
413.12	100.64
413.31	191.92
413.50	189.58
413.69	152.13
413.88	128.73
414.07	156.82
414.26	86.60
414.45	105.32
414.64	215.33
414.83	138.09
415.02	117.03
415.22	163.84
415.41	212.99
415.60	177.88
415.79	138.09
415.98	177.88
416.17	215.33
416.36	184.90
416.55	163.84
416.74	220.01
416.93	212.99
417.12	159.16
417.31	168.52
417.50	145.11
417.69	189.58
417.88	198.95
418.07	177.88
418.26	124.05
418.45	112.35
418.64	126.39
418.83	149.79
419.02	145.11
419.21	187.24
419.39	138.09
419.58	152.13
419.77	119.37
419.96	182.56
420.15	205.97
420.34	119.37
420.53	196.60
420.72	147.45
420.91	138.09
421.10	131.07
421.29	140.43
421.48	212.99
421.67	229.37
421.86	149.79
422.05	170.86
422.24	133.41
422.43	182.56
422.61	220.01
422.80	110.01
422.99	126.39
423.18	182.56
423.37	131.07
423.56	173.20
423.75	140.43
423.94	77.24
424.13	159.16
424.32	159.16
424.50	114.69
424.69	156.82
424.88	203.63
425.07	98.30
425.26	220.01
425.45	117.03
425.64	138.09
425.83	138.09
426.01	191.92
426.20	198.95
426.39	205.97
426.58	173.20
426.77	102.98
426.96	201.29
427.15	114.69
427.33	208.31
427.52	182.56
427.71	194.26
427.90	166.18
428.09	187.24
428.28	184.90
428.46	98.30
428.65	117.03
428.84	175.54
429.03	152.13
429.22	184.90
429.40	177.88
429.59	142.77
429.78	255.12
429.97	201.29
430.16	175.54
430.34	184.90
430.53	173.20
430.72	138.09
430.91	210.65
431.10	131.07
431.28	177.88
431.47	194.26
431.66	156.82
431.85	177.88
432.03	168.52
432.22	184.90
432.41	182.56
432.60	208.31
432.79	156.82
432.97	215.33
433.16	128.73
433.35	147.45
433.54	189.58
433.72	241.08
433.91	243.42
434.10	159.16
434.28	180.22
434.47	187.24
434.66	135.75
434.85	191.92
435.03	259.80
435.22	355.76
435.41	400.23
435.59	294.91
435.78	257.46
435.97	191.92
436.16	215.33
436.34	184.90
436.53	196.60
436.72	222.35
436.90	173.20
437.09	203.63
437.28	154.48
437.46	163.84
437.65	184.90
437.84	156.82
438.02	168.52
438.21	194.26
438.40	133.41
438.58	114.69
438.77	126.39
438.96	215.33
439.14	140.43
439.33	215.33
439.52	177.88
439.70	184.90
439.89	243.42
440.08	194.26
440.26	194.26
440.45	259.80
440.63	215.33
440.82	198.95
441.01	145.11
441.19	212.99
441.38	128.73
441.57	170.86
441.75	198.95
441.94	220.01
442.12	110.01
442.31	119.37
442.50	255.12
442.68	142.77
442.87	180.22
443.05	177.88
443.24	205.97
443.43	299.59
443.61	208.31
443.80	135.75
443.98	128.73
444.17	168.52
444.35	236.39
444.54	215.33
444.73	168.52
444.91	191.92
445.10	208.31
445.28	201.29
445.47	212.99
445.65	128.73
445.84	227.03
446.02	128.73
446.21	168.52
446.39	100.64
446.58	131.07
446.77	93.62
446.95	149.79
447.14	187.24
447.32	264.48
447.51	163.84
447.69	182.56
447.88	231.71
448.06	173.20
448.25	180.22
448.43	203.63
448.62	217.67
448.80	182.56
448.99	205.97
449.17	189.58
449.36	168.52
449.54	220.01
449.73	145.11
449.91	222.35
450.10	170.86
450.28	163.84
450.46	208.31
450.65	234.05
450.83	133.41
451.02	208.31
451.20	142.77
451.39	175.54
451.57	255.12
451.76	159.16
451.94	187.24
452.13	196.60
452.31	180.22
452.49	124.05
452.68	168.52
452.86	205.97
453.05	257.46
453.23	182.56
453.42	149.79
453.60	220.01
453.78	208.31
453.97	215.33
454.15	126.39
454.34	142.77
454.52	224.69
454.70	252.78
454.89	198.95
455.07	198.95
455.26	191.92
455.44	191.92
455.62	184.90
455.81	177.88
455.99	126.39
456.17	138.09
456.36	180.22
456.54	128.73
456.73	208.31
456.91	210.65
457.09	173.20
457.28	208.31
457.46	205.97
457.64	290.23
457.83	266.82
458.01	173.20
458.19	184.90
458.38	252.78
458.56	187.24
458.74	168.52
458.93	224.69
459.11	180.22
459.29	173.20
459.48	177.88
459.66	234.05
459.84	229.37
460.03	208.31
460.21	205.97
460.39	173.20
460.57	194.26
460.76	147.45
460.94	168.52
461.12	212.99
461.31	255.12
461.49	262.14
461.67	187.24
461.85	184.90
462.04	154.48
462.22	650.67
462.40	184.90
462.59	147.45
462.77	149.79
462.95	234.05
463.13	86.60
463.32	166.18
463.50	182.56
463.68	222.35
463.86	271.50
464.05	189.58
464.23	159.16
464.41	220.01
464.59	196.60
464.78	147.45
464.96	177.88
465.14	161.50
465.32	217.67
465.50	248.10
465.69	184.90
465.87	105.32
466.05	170.86
466.23	194.26
466.41	234.05
466.60	224.69
466.78	173.20
466.96	227.03
467.14	196.60
467.32	198.95
467.51	191.92
467.69	259.80
467.87	224.69
468.05	117.03
468.23	217.67
468.41	203.63
468.60	154.48
468.78	161.50
468.96	166.18
469.14	161.50
469.32	119.37
469.50	208.31
469.69	133.41
469.87	184.90
470.05	276.18
470.23	198.95
470.41	180.22
470.59	154.48
470.77	220.01
470.95	189.58
471.14	198.95
471.32	154.48
471.50	224.69
471.68	161.50
471.86	142.77
472.04	152.13
472.22	262.14
472.40	212.99
472.58	198.95
472.77	154.48
472.95	215.33
473.13	264.48
473.31	177.88
473.49	159.16
473.67	191.92
473.85	152.13
474.03	201.29
474.21	194.26
474.39	231.71
474.57	196.60
474.75	152.13
474.93	114.69
475.12	217.67
475.30	234.05
475.48	224.69
475.66	168.52
475.84	145.11
476.02	156.82
476.20	175.54
476.38	290.23
476.56	198.95
476.74	198.95
476.92	196.60
477.10	238.73
477.28	257.46
477.46	229.37
477.64	210.65
477.82	234.05
478.00	149.79
478.18	154.48
478.36	91.28
478.54	159.16
478.72	180.22
478.90	250.44
479.08	224.69
479.26	196.60
479.44	234.05
479.62	215.33
479.80	145.11
479.98	238.73
480.16	161.50
480.34	210.65
480.52	173.20
480.70	182.56
480.88	95.96
481.06	184.90
481.24	215.33
481.41	196.60
481.59	320.65
481.77	262.14
481.95	205.97
482.13	266.82
482.31	217.67
482.49	168.52
482.67	222.35
482.85	266.82
483.03	227.03
483.21	205.97
483.39	168.52
483.57	201.29
483.74	322.99
483.92	229.37
484.10	222.35
484.28	248.10
484.46	266.82
484.64	170.86
484.82	138.09
485.00	208.31
485.18	210.65
485.35	227.03
485.53	250.44
485.71	266.82
485.89	198.95
486.07	257.46
486.25	259.80
486.43	154.48
486.61	241.08
486.78	322.99
486.96	163.84
487.14	222.35
487.32	191.92
487.50	222.35
487.68	257.46
487.85	222.35
488.03	222.35
488.21	257.46
488.39	212.99
488.57	259.80
488.75	252.78
488.92	496.19
489.10	231.71
489.28	315.97
489.46	292.57
489.64	203.63
489.81	337.04
489.99	264.48
490.17	212.99
490.35	273.84
490.53	245.76
490.70	241.08
490.88	245.76
491.06	236.39
491.24	189.58
491.41	280.86
491.59	327.68
491.77	205.97
491.95	283.20
492.13	177.88
492.30	198.95
492.48	259.80
492.66	236.39
492.84	210.65
493.01	191.92
493.19	294.91
493.37	208.31
493.54	238.73
493.72	259.80
493.90	205.97
494.08	201.29
494.25	280.86
494.43	191.92
494.61	205.97
494.79	189.58
494.96	248.10
495.14	259.80
495.32	290.23
495.49	250.44
495.67	264.48
495.85	257.46
496.02	212.99
496.20	351.08
496.38	203.63
496.55	175.54
496.73	198.95
496.91	262.14
497.09	212.99
497.26	301.93
497.44	250.44
497.62	264.48
497.79	227.03
497.97	297.25
498.14	283.20
498.32	266.82
498.50	262.14
498.67	191.92
498.85	243.42
499.03	194.26
499.20	245.76
499.38	198.95
499.56	250.44
499.73	285.55
499.91	220.01
500.08	285.55
500.26	238.73
500.44	243.42
500.61	201.29
500.79	229.37
500.97	283.20
501.14	222.35
501.32	210.65
501.49	318.31
501.67	252.78
501.84	264.48
502.02	262.14
502.20	285.55
502.37	236.39
502.55	215.33
502.72	208.31
502.90	201.29
503.07	299.59
503.25	243.42
503.43	201.29
503.60	264.48
503.78	222.35
503.95	212.99
504.13	198.95
504.30	257.46
504.48	273.84
504.65	322.99
504.83	252.78
505.01	234.05
505.18	313.63
505.36	215.33
505.53	215.33
505.71	198.95
505.88	243.42
506.06	313.63
506.23	308.95
506.41	210.65
506.58	229.37
506.76	259.80
506.93	224.69
507.11	285.55
507.28	285.55
507.46	217.67
507.63	238.73
507.81	210.65
507.98	187.24
508.16	229.37
508.33	241.08
508.50	234.05
508.68	236.39
508.85	210.65
509.03	231.71
509.20	273.84
509.38	264.48
509.55	297.25
509.73	337.04
509.90	210.65
510.08	224.69
510.25	266.82
510.42	212.99
510.60	271.50
510.77	264.48
510.95	348.74
511.12	203.63
511.30	238.73
511.47	355.76
511.64	299.59
511.82	292.57
511.99	252.78
512.17	208.31
512.34	229.37
512.51	243.42
512.69	269.16
512.86	220.01
513.04	294.91
513.21	243.42
513.38	224.69
513.56	264.48
513.73	273.84
513.90	238.73
514.08	210.65
514.25	234.05
514.43	224.69
514.60	212.99
514.77	255.12
514.95	229.37
515.12	198.95
515.29	220.01
515.47	252.78
515.64	238.73
515.81	182.56
515.99	257.46
516.16	243.42
516.33	248.10
516.51	243.42
516.68	234.05
516.85	264.48
517.03	250.44
517.20	234.05
517.37	245.76
517.54	299.59
517.72	278.52
517.89	245.76
518.06	252.78
518.24	337.04
518.41	238.73
518.58	283.20
518.75	285.55
518.93	252.78
519.10	196.60
519.27	236.39
519.45	337.04
519.62	299.59
519.79	243.42
519.96	255.12
520.14	212.99
520.31	269.16
520.48	308.95
520.65	259.80
520.83	227.03
521.00	290.23
521.17	252.78
521.34	301.93
521.52	224.69
521.69	175.54
521.86	255.12
522.03	271.50
522.20	250.44
522.38	217.67
522.55	212.99
522.72	259.80
522.89	276.18
523.07	266.82
523.24	262.14
523.41	182.56
523.58	250.44
523.75	227.03
523.92	250.44
524.10	337.04
524.27	262.14
524.44	224.69
524.61	320.65
524.78	217.67
524.96	262.14
525.13	255.12
525.30	252.78
525.47	245.76
525.64	222.35
525.81	250.44
525.98	203.63
526.16	276.18
526.33	215.33
526.50	234.05
526.67	236.39
526.84	170.86
527.01	191.92
527.18	294.91
527.36	271.50
527.53	266.82
527.70	262.14
527.87	266.82
528.04	292.57
528.21	175.54
528.38	250.44
528.55	229.37
528.72	271.50
528.89	280.86
529.07	236.39
529.24	269.16
529.41	280.86
529.58	210.65
529.75	196.60
529.92	273.84
530.09	271.50
530.26	308.95
530.43	266.82
530.60	234.05
530.77	271.50
530.94	257.46
531.11	287.89
531.28	168.52
531.46	215.33
531.63	203.63
531.80	229.37
531.97	290.23
532.14	252.78
532.31	283.20
532.48	212.99
532.65	287.89
532.82	191.92
532.99	210.65
533.16	322.99
533.33	238.73
533.50	215.33
533.67	278.52
533.84	245.76
534.01	180.22
534.18	238.73
534.35	280.86
534.52	264.48
534.69	341.72
534.86	290.23
535.03	248.10
535.20	337.04
535.37	299.59
535.54	276.18
535.71	266.82
535.88	243.42
536.05	271.50
536.22	196.60
536.38	262.14
536.55	262.14
536.72	315.97
536.89	234.05
537.06	203.63
537.23	334.70
537.40	234.05
537.57	301.93
537.74	330.02
537.91	264.48
538.08	280.86
538.25	304.27
538.42	276.18
538.59	252.78
538.75	276.18
538.92	320.65
539.09	355.76
539.26	322.99
539.43	285.55
539.60	271.50
539.77	325.33
539.94	334.70
540.11	351.08
540.28	388.53
540.44	400.23
540.61	369.80
540.78	421.30
540.95	416.62
541.12	369.80
541.29	395.55
541.46	430.66
541.62	416.62
541.79	411.93
541.96	407.25
542.13	393.21
542.30	402.57
542.47	409.59
542.63	468.11
542.80	390.87
542.97	393.21
543.14	440.02
543.31	444.70
543.48	376.83
543.64	442.36
543.81	365.12
543.98	374.49
544.15	381.51
544.32	395.55
544.48	365.12
544.65	407.25
544.82	402.57
544.99	395.55
545.16	454.06
545.32	381.51
545.49	615.56
545.66	709.18
545.83	620.24
546.00	627.26
546.16	475.13
546.33	416.62
546.50	404.91
546.67	369.80
546.83	470.45
547.00	358.10
547.17	334.70
547.34	280.86
547.50	238.73
547.67	360.44
547.84	285.55
548.00	315.97
548.17	325.33
548.34	339.38
548.51	367.46
548.67	304.27
548.84	308.95
549.01	292.57
549.18	351.08
549.34	388.53
549.51	273.84
549.68	238.73
549.84	273.84
550.01	250.44
550.18	407.25
550.34	339.38
550.51	344.06
550.68	306.61
550.84	229.37
551.01	217.67
551.18	315.97
551.34	283.20
551.51	273.84
551.68	248.10
551.84	266.82
552.01	278.52
552.18	278.52
552.34	224.69
552.51	276.18
552.68	348.74
552.84	271.50
553.01	231.71
553.18	294.91
553.34	276.18
553.51	276.18
553.67	337.04
553.84	301.93
554.01	344.06
554.17	299.59
554.34	231.71
554.51	252.78
554.67	271.50
554.84	255.12
555.00	315.97
555.17	217.67
555.33	339.38
555.50	353.42
555.67	285.55
555.83	294.91
556.00	248.10
556.16	355.76
556.33	280.86
556.50	201.29
556.66	184.90
556.83	175.54
556.99	236.39
557.16	194.26
557.32	278.52
557.49	205.97
557.65	191.92
557.82	285.55
557.98	264.48
558.15	271.50
558.32	205.97
558.48	180.22
558.65	212.99
558.81	294.91
558.98	280.86
559.14	304.27
559.31	273.84
559.47	285.55
559.64	229.37
559.80	287.89
559.97	290.23
560.13	257.46
560.30	227.03
560.46	217.67
560.63	250.44
560.79	234.05
560.96	255.12
561.12	294.91
561.29	222.35
561.45	203.63
561.61	278.52
561.78	409.59
561.94	182.56
562.11	262.14
562.27	231.71
562.44	313.63
562.60	250.44
562.77	234.05
562.93	285.55
563.10	262.14
563.26	227.03
563.42	297.25
563.59	205.97
563.75	271.50
563.92	283.20
564.08	294.91
564.24	217.67
564.41	315.97
564.57	175.54
564.74	257.46
564.90	196.60
565.07	203.63
565.23	248.10
565.39	212.99
565.56	287.89
565.72	241.08
565.88	191.92
566.05	262.14
566.21	236.39
566.38	168.52
566.54	229.37
566.70	290.23
566.87	222.35
567.03	276.18
567.19	308.95
567.36	320.65
567.52	285.55
567.68	301.93
567.85	255.12
568.01	285.55
568.17	264.48
568.34	269.16
568.50	322.99
568.66	245.76
568.83	250.44
568.99	269.16
569.15	290.23
569.32	203.63
569.48	252.78
569.64	255.12
569.81	231.71
569.97	222.35
570.13	311.29
570.30	208.31
570.46	271.50
570.62	198.95
570.78	184.90
570.95	234.05
571.11	259.80
571.27	243.42
571.43	182.56
571.60	231.71
571.76	238.73
571.92	201.29
572.09	234.05
572.25	194.26
572.41	241.08
572.57	266.82
572.74	308.95
572.90	294.91
573.06	220.01
573.22	217.67
573.38	220.01
573.55	266.82
573.71	273.84
573.87	220.01
574.03	327.68
574.20	212.99
574.36	297.25
574.52	220.01
574.68	243.42
574.84	112.35
575.01	220.01
575.17	229.37
575.33	198.95
575.49	306.61
575.65	290.23
575.82	205.97
575.98	294.91
576.14	222.35
576.30	266.82
576.46	290.23
576.62	287.89
576.79	304.27
576.95	365.12
577.11	182.56
577.27	266.82
577.43	334.70
577.59	208.31
577.75	278.52
577.92	184.90
578.08	245.76
578.24	184.90
578.40	294.91
578.56	325.33
578.72	358.10
578.88	334.70
579.04	245.76
579.21	301.93
579.37	250.44
579.53	224.69
579.69	360.44
579.85	308.95
580.01	327.68
580.17	257.46
580.33	313.63
580.49	325.33
580.65	266.82
580.82	238.73
580.98	142.77
581.14	222.35
581.30	245.76
581.46	280.86
581.62	313.63
581.78	238.73
581.94	318.31
582.10	271.50
582.26	224.69
582.42	257.46
582.58	283.20
582.74	269.16
582.90	210.65
583.06	250.44
583.22	231.71
583.38	306.61
583.54	250.44
583.70	278.52
583.86	257.46
584.02	227.03
584.18	231.71
584.34	341.72
584.50	299.59
584.66	255.12
584.82	285.55
584.98	315.97
585.14	285.55
585.30	299.59
585.46	325.33
585.62	238.73
585.78	236.39
585.94	248.10
586.10	276.18
586.26	315.97
586.42	292.57
586.58	283.20
586.74	294.91
586.90	339.38
587.06	351.08
587.22	367.46
587.38	369.80
587.54	294.91
587.70	301.93
587.86	285.55
588.02	259.80
588.18	184.90
588.34	262.14
588.49	220.01
588.65	217.67
588.81	297.25
588.97	224.69
589.13	245.76
589.29	280.86
589.45	285.55
589.61	269.16
589.77	287.89
589.93	212.99
590.08	271.50
590.24	259.80
590.40	229.37
590.56	271.50
590.72	241.08
590.88	210.65
591.04	238.73
591.20	227.03
591.35	285.55
591.51	229.37
591.67	220.01
591.83	222.35
591.99	327.68
592.15	203.63
592.31	306.61
592.46	252.78
592.62	297.25
592.78	325.33
592.94	276.18
593.10	248.10
593.26	308.95
593.41	290.23
593.57	308.95
593.73	138.09
593.89	273.84
594.05	220.01
594.20	215.33
594.36	234.05
594.52	245.76
594.68	276.18
594.84	198.95
594.99	301.93
595.15	346.40
595.31	280.86
595.47	348.74
595.62	278.52
595.78	217.67
595.94	224.69
596.10	198.95
596.25	196.60
596.41	262.14
596.57	264.48
596.73	238.73
596.88	252.78
597.04	280.86
597.20	222.35
597.36	262.14
597.51	175.54
597.67	252.78
597.83	159.16
597.99	257.46
598.14	205.97
598.30	217.67
598.46	278.52
598.61	234.05
598.77	245.76
598.93	227.03
599.09	220.01
599.24	248.10
599.40	290.23
599.56	168.52
599.71	238.73
599.87	269.16
600.03	283.20
600.18	273.84
600.34	266.82
600.50	245.76
600.65	187.24
600.81	217.67
600.97	222.35
601.12	234.05
601.28	231.71
601.44	201.29
601.59	306.61
601.75	227.03
601.91	248.10
602.06	280.86
602.22	269.16
602.37	210.65
602.53	304.27
602.69	255.12
602.84	276.18
603.00	224.69
603.16	313.63
603.31	220.01
603.47	266.82
603.62	194.26
603.78	231.71
603.94	257.46
604.09	308.95
604.25	238.73
604.40	166.18
604.56	306.61
604.71	292.57
604.87	276.18
605.03	227.03
605.18	290.23
605.34	215.33
605.49	269.16
605.65	264.48
605.80	238.73
605.96	259.80
606.12	304.27
606.27	210.65
606.43	280.86
606.58	252.78
606.74	243.42
606.89	224.69
607.05	271.50
607.20	252.78
607.36	297.25
607.51	210.65
607.67	241.08
607.82	262.14
607.98	313.63
608.13	283.20
608.29	266.82
608.44	351.08
608.60	255.12
608.75	234.05
608.91	285.55
609.06	236.39
609.22	334.70
609.37	351.08
609.53	362.78
609.68	301.93
609.84	250.44
609.99	266.82
610.15	390.87
610.30	491.51
610.46	514.92
610.61	524.28
610.76	660.03
610.92	641.31
611.07	767.70
611.23	746.63
611.38	655.35
611.54	631.94
611.69	589.82
611.84	514.92
612.00	425.98
612.15	421.30
612.31	451.72
612.46	447.04
612.62	433.00
612.77	425.98
612.92	374.49
613.08	390.87
613.23	299.59
613.39	271.50
613.54	355.76
613.69	325.33
613.85	325.33
614.00	330.02
614.15	362.78
614.31	276.18
614.46	393.21
614.62	341.72
614.77	381.51
614.92	344.06
615.08	301.93
615.23	269.16
615.38	311.29
615.54	269.16
615.69	292.57
615.84	201.29
616.00	245.76
616.15	255.12
616.30	238.73
616.46	222.35
616.61	250.44
616.76	280.86
616.92	273.84
617.07	248.10
617.22	189.58
617.37	243.42
617.53	222.35
617.68	182.56
617.83	248.10
617.99	210.65
618.14	271.50
618.29	269.16
618.45	238.73
618.60	182.56
618.75	163.84
618.90	280.86
619.06	210.65
619.21	322.99
619.36	224.69
619.51	227.03
619.67	269.16
619.82	325.33
619.97	152.13
620.12	252.78
620.28	292.57
620.43	196.60
620.58	266.82
620.73	297.25
620.89	187.24
621.04	252.78
621.19	313.63
621.34	224.69
621.49	234.05
621.65	215.33
621.80	191.92
621.95	252.78
622.10	264.48
622.25	198.95
622.41	205.97
622.56	327.68
622.71	273.84
622.86	290.23
623.01	259.80
623.16	266.82
623.32	175.54
623.47	234.05
623.62	238.73
623.77	248.10
623.92	229.37
624.07	215.33
624.23	191.92
624.38	287.89
624.53	215.33
624.68	243.42
624.83	322.99
624.98	227.03
625.13	264.48
625.29	252.78
625.44	231.71
625.59	194.26
625.74	257.46
625.89	315.97
626.04	198.95
626.19	280.86
626.34	149.79
626.49	278.52
626.65	168.52
626.80	250.44
626.95	229.37
627.10	243.42
627.25	313.63
627.40	227.03
627.55	231.71
627.70	245.76
627.85	294.91
628.00	220.01
628.15	217.67
628.30	238.73
628.45	280.86
628.60	264.48
628.76	278.52
628.91	294.91
629.06	248.10
629.21	259.80
629.36	266.82
629.51	196.60
629.66	287.89
629.81	194.26
629.96	210.65
630.11	294.91
630.26	278.52
630.41	241.08
630.56	243.42
630.71	292.57
630.86	210.65
631.01	273.84
631.16	177.88
631.31	241.08
631.46	224.69
631.61	217.67
631.76	149.79
631.91	205.97
632.06	208.31
632.21	266.82
632.36	201.29
632.51	222.35
632.66	184.90
632.81	210.65
632.96	278.52
633.10	269.16
633.25	292.57
633.40	227.03
633.55	245.76
633.70	196.60
633.85	205.97
634.00	227.03
634.15	173.20
634.30	245.76
634.45	166.18
634.60	182.56
634.75	170.86
634.90	208.31
635.05	255.12
635.19	325.33
635.34	201.29
635.49	210.65
635.64	210.65
635.79	243.42
635.94	294.91
636.09	217.67
636.24	227.03
636.39	231.71
636.53	297.25
636.68	220.01
636.83	224.69
636.98	227.03
637.13	259.80
637.28	220.01
637.43	285.55
637.57	255.12
637.72	198.95
637.87	170.86
638.02	201.29
638.17	163.84
638.32	227.03
638.46	224.69
638.61	259.80
638.76	266.82
638.91	163.84
639.06	227.03
639.20	227.03
639.35	215.33
639.50	187.24
639.65	301.93
639.80	287.89
639.94	236.39
640.09	205.97
640.24	255.12
640.39	133.41
640.54	196.60
640.68	184.90
640.83	287.89
640.98	276.18
641.13	205.97
641.27	208.31
641.42	264.48
641.57	250.44
641.72	191.92
641.86	198.95
642.01	217.67
642.16	201.29
642.31	184.90
642.45	227.03
642.60	222.35
642.75	168.52
642.90	236.39
643.04	191.92
643.19	189.58
643.34	180.22
643.48	290.23
643.63	154.48
643.78	187.24
643.93	222.35
644.07	234.05
644.22	234.05
644.37	149.79
644.51	234.05
644.66	229.37
644.81	142.77
644.95	231.71
645.10	191.92
645.25	161.50
645.39	262.14
645.54	149.79
645.69	250.44
645.83	238.73
645.98	330.02
646.13	177.88
646.27	208.31
646.42	154.48
646.57	196.60
646.71	203.63
646.86	81.92
647.00	170.86
647.15	227.03
647.30	126.39
647.44	149.79
647.59	187.24
647.74	154.48
647.88	252.78
648.03	201.29
648.17	208.31
648.32	217.67
648.47	297.25
648.61	175.54
648.76	166.18
648.90	63.19
649.05	187.24
649.20	229.37
649.34	220.01
649.49	217.67
649.63	227.03
649.78	222.35
649.92	187.24
650.07	210.65
650.21	224.69
650.36	198.95
650.51	259.80
650.65	208.31
650.80	140.43
650.94	161.50
651.09	229.37
651.23	224.69
651.38	189.58
651.52	170.86
651.67	198.95
651.81	236.39
651.96	236.39
652.10	191.92
652.25	187.24
652.39	234.05
652.54	189.58
652.68	194.26
652.83	259.80
652.97	140.43
653.12	133.41
653.26	290.23
653.41	189.58
653.55	236.39
653.70	112.35
653.84	187.24
653.99	208.31
654.13	168.52
654.27	212.99
654.42	262.14
654.56	177.88
654.71	135.75
654.85	154.48
655.00	182.56
655.14	154.48
655.29	196.60
655.43	184.90
655.57	191.92
655.72	201.29
655.86	259.80
656.01	189.58
656.15	159.16
656.30	210.65
656.44	98.30
656.58	95.96
656.73	168.52
656.87	182.56
657.01	208.31
657.16	227.03
657.30	252.78
657.45	280.86
657.59	205.97
657.73	212.99
657.88	259.80
658.02	276.18
658.16	271.50
658.31	91.28
658.45	201.29
658.60	245.76
658.74	187.24
658.88	184.90
659.03	189.58
659.17	191.92
659.31	210.65
659.46	252.78
659.60	182.56
659.74	135.75
659.89	177.88
660.03	166.18
660.17	173.20
660.32	248.10
660.46	163.84
660.60	245.76
660.74	208.31
660.89	138.09
661.03	241.08
661.17	180.22
661.32	227.03
661.46	215.33
661.60	168.52
661.74	231.71
661.89	191.92
662.03	175.54
662.17	152.13
662.31	114.69
662.46	170.86
662.60	177.88
662.74	234.05
662.88	236.39
663.03	124.05
663.17	140.43
663.31	170.86
663.45	208.31
663.60	198.95
663.74	234.05
663.88	175.54
664.02	107.66
664.17	145.11
664.31	229.37
664.45	215.33
664.59	175.54
664.73	227.03
664.88	208.31
665.02	234.05
665.16	220.01
665.30	285.55
665.44	166.18
665.59	203.63
665.73	210.65
665.87	173.20
666.01	163.84
666.15	184.90
666.29	166.18
666.44	147.45
666.58	198.95
666.72	110.01
666.86	215.33
667.00	203.63
667.14	140.43
667.28	161.50
667.43	154.48
667.57	149.79
667.71	234.05
667.85	191.92
667.99	145.11
668.13	154.48
668.27	236.39
668.41	217.67
668.56	243.42
668.70	238.73
668.84	201.29
668.98	191.92
669.12	135.75
669.26	231.71
669.40	222.35
669.54	173.20
669.68	189.58
669.82	304.27
669.96	241.08
670.10	198.95
670.25	250.44
670.39	198.95
670.53	140.43
670.67	142.77
670.81	154.48
670.95	180.22
671.09	184.90
671.23	187.24
671.37	210.65
671.51	236.39
671.65	166.18
671.79	187.24
671.93	184.90
672.07	142.77
672.21	93.62
672.35	138.09
672.49	163.84
672.63	163.84
672.77	257.46
672.91	201.29
673.05	100.64
673.19	271.50
673.33	168.52
673.47	234.05
673.61	182.56
673.75	198.95
673.89	154.48
674.03	189.58
674.17	161.50
674.31	196.60
674.45	227.03
674.59	184.90
674.73	163.84
674.87	269.16
675.01	210.65
675.15	205.97
675.29	198.95
675.43	154.48
675.56	187.24
675.70	220.01
675.84	182.56
675.98	201.29
676.12	156.82
676.26	194.26
676.40	159.16
676.54	126.39
676.68	140.43
676.82	173.20
676.96	194.26
677.10	238.73
677.23	140.43
677.37	159.16
677.51	229.37
677.65	248.10
677.79	173.20
677.93	191.92
678.07	196.60
678.21	100.64
678.34	140.43
678.48	159.16
678.62	189.58
678.76	175.54
678.90	184.90
679.04	224.69
679.18	156.82
679.31	182.56
679.45	189.58
679.59	196.60
679.73	201.29
679.87	159.16
680.00	163.84
680.14	208.31
680.28	241.08
680.42	147.45
680.56	194.26
680.70	149.79
680.83	191.92
680.97	212.99
681.11	215.33
681.25	177.88
681.39	215.33
681.52	231.71
681.66	234.05
681.80	126.39
681.94	180.22
682.07	95.96
682.21	161.50
682.35	112.35
682.49	184.90
682.62	212.99
682.76	198.95
682.90	203.63
683.04	173.20
683.17	182.56
683.31	229.37
683.45	248.10
683.59	201.29
683.72	248.10
683.86	175.54
684.00	245.76
684.13	177.88
684.27	159.16
684.41	161.50
684.55	175.54
684.68	149.79
684.82	201.29
684.96	117.03
685.09	189.58
685.23	166.18
685.37	220.01
685.50	135.75
685.64	243.42
685.78	140.43
685.91	198.95
686.05	180.22
686.19	166.18
686.32	189.58
686.46	170.86
686.60	100.64
686.73	196.60
686.87	182.56
687.01	149.79
687.14	159.16
687.28	177.88
687.42	126.39
687.55	133.41
687.69	201.29
687.82	114.69
687.96	152.13
688.10	145.11
688.23	145.11
688.37	121.71
688.50	227.03
688.64	215.33
688.78	184.90
688.91	131.07
689.05	149.79
689.18	119.37
689.32	222.35
689.46	161.50
689.59	238.73
689.73	220.01
689.86	114.69
690.00	100.64
690.13	187.24
690.27	140.43
690.41	196.60
690.54	191.92
690.68	152.13
690.81	161.50
690.95	196.60
691.08	194.26
691.22	184.90
691.35	142.77
691.49	142.77
691.62	177.88
691.76	161.50
691.89	170.86
692.03	117.03
692.16	173.20
692.30	187.24
692.43	180.22
692.57	138.09
692.70	140.43
692.84	168.52
692.97	154.48
693.11	154.48
693.24	187.24
693.38	203.63
693.51	154.48
693.65	112.35
693.78	138.09
693.92	156.82
694.05	133.41
694.19	88.94
694.32	166.18
694.45	161.50
694.59	131.07
694.72	196.60
694.86	102.98
694.99	168.52
695.13	182.56
695.26	177.88
695.39	147.45
695.53	215.33
695.66	147.45
695.80	159.16
695.93	149.79
696.07	124.05
696.20	229.37
696.33	67.88
696.47	180.22
696.60	140.43
696.73	133.41
696.87	133.41
697.00	124.05
697.14	184.90
697.27	154.48
697.40	149.79
697.54	163.84
697.67	180.22
697.80	154.48
697.94	114.69
698.07	93.62
698.21	173.20
698.34	147.45
698.47	194.26
698.61	119.37
698.74	208.31
698.87	152.13
699.01	248.10
699.14	180.22
699.27	145.11
699.40	306.61
699.54	121.71
699.67	110.01
699.80	191.92
699.94	175.54
700.07	210.65
700.20	119.37
700.34	196.60
700.47	135.75
700.60	131.07
700.73	149.79
700.87	278.52
701.00	95.96
701.13	234.05
701.26	152.13
701.40	173.20
701.53	159.16
701.66	131.07
701.79	154.48
701.93	145.11
702.06	201.29
702.19	227.03
702.32	126.39
702.46	142.77
702.59	175.54
702.72	168.52
702.85	201.29
702.99	138.09
703.12	159.16
703.25	182.56
703.38	170.86
703.51	182.56
703.65	156.82
703.78	177.88
703.91	187.24
704.04	124.05
704.17	138.09
704.31	93.62
704.44	198.95
704.57	91.28
704.70	140.43
704.83	201.29
704.96	145.11
705.10	191.92
705.23	124.05
>>>>>End Processed Spectral Data<<<<<
