SpectraSuite Data File
++++++++++++++++++++++++++++++++++++
Date: Fri Oct 04 12:13:43 GMT-05:00 2013
User: price-jones
Dark Spectrum Present: No
Reference Spectrum Present: No
Number of Sampled Component Spectra: 1
Spectrometers: USB2+H05261
Integration Time (usec): 10000 (USB2+H05261)
Spectra Averaged: 1 (USB2+H05261)
Boxcar Smoothing: 0 (USB2+H05261)
Correct for Electrical Dark: No (USB2+H05261)
Strobe/Lamp Enabled: No (USB2+H05261)
Correct for Detector Non-linearity: No (USB2+H05261)
Correct for Stray Light: No (USB2+H05261)
Number of Pixels in Processed Spectrum: 2048
>>>>>Begin Processed Spectral Data<<<<<
365.73	16.38
365.92	16.38
366.12	16.38
366.32	0.00
366.52	0.00
366.72	0.00
366.91	0.00
367.11	0.00
367.31	0.00
367.51	0.00
367.70	0.00
367.90	0.00
368.10	0.00
368.30	0.00
368.49	0.00
368.69	0.00
368.89	0.00
369.09	0.00
369.28	0.00
369.48	0.00
369.68	0.00
369.87	0.00
370.07	0.00
370.27	0.00
370.47	0.00
370.66	0.00
370.86	0.00
371.06	0.00
371.25	4.68
371.45	0.00
371.65	23.41
371.84	0.00
372.04	0.00
372.24	0.00
372.44	28.09
372.63	0.00
372.83	84.26
373.03	0.00
373.22	32.77
373.42	46.81
373.62	37.45
373.81	37.45
374.01	0.00
374.21	53.83
374.40	39.79
374.60	0.00
374.79	72.56
374.99	2.34
375.19	11.70
375.38	81.92
375.58	70.22
375.78	117.03
375.97	28.09
376.17	35.11
376.37	16.38
376.56	39.79
376.76	35.11
376.95	39.79
377.15	42.13
377.35	11.70
377.54	39.79
377.74	65.54
377.93	0.00
378.13	42.13
378.33	0.00
378.52	0.00
378.72	53.83
378.91	0.00
379.11	79.58
379.31	0.00
379.50	32.77
379.70	58.51
379.89	81.92
380.09	7.02
380.28	0.00
380.48	30.43
380.68	124.05
380.87	0.00
381.07	16.38
381.26	102.98
381.46	60.85
381.65	53.83
381.85	16.38
382.04	0.00
382.24	49.15
382.43	35.11
382.63	32.77
382.83	72.56
383.02	49.15
383.22	14.04
383.41	0.00
383.61	16.38
383.80	16.38
384.00	0.00
384.19	25.75
384.39	58.51
384.58	14.04
384.78	0.00
384.97	42.13
385.17	88.94
385.36	0.00
385.56	0.00
385.75	74.90
385.95	16.38
386.14	98.30
386.34	0.00
386.53	37.45
386.72	49.15
386.92	0.00
387.11	51.49
387.31	32.77
387.50	0.00
387.70	81.92
387.89	11.70
388.09	77.24
388.28	30.43
388.48	14.04
388.67	7.02
388.86	14.04
389.06	2.34
389.25	18.72
389.45	0.00
389.64	11.70
389.84	21.06
390.03	63.19
390.22	2.34
390.42	46.81
390.61	0.00
390.81	95.96
391.00	0.00
391.19	28.09
391.39	0.00
391.58	91.28
391.78	35.11
391.97	23.41
392.16	16.38
392.36	0.00
392.55	9.36
392.75	0.00
392.94	2.34
393.13	0.00
393.33	0.00
393.52	0.00
393.71	110.01
393.91	51.49
394.10	39.79
394.29	21.06
394.49	46.81
394.68	49.15
394.88	39.79
395.07	65.54
395.26	0.00
395.46	53.83
395.65	65.54
395.84	74.90
396.04	35.11
396.23	28.09
396.42	42.13
396.62	105.32
396.81	39.79
397.00	65.54
397.19	9.36
397.39	16.38
397.58	30.43
397.77	60.85
397.97	46.81
398.16	0.00
398.35	42.13
398.55	91.28
398.74	21.06
398.93	0.00
399.12	60.85
399.32	70.22
399.51	0.00
399.70	46.81
399.90	70.22
400.09	39.79
400.28	44.47
400.47	14.04
400.67	4.68
400.86	0.00
401.05	65.54
401.24	49.15
401.44	37.45
401.63	56.17
401.82	60.85
402.01	63.19
402.21	42.13
402.40	35.11
402.59	65.54
402.78	65.54
402.97	2.34
403.17	21.06
403.36	60.85
403.55	67.88
403.74	14.04
403.93	18.72
404.13	0.00
404.32	39.79
404.51	56.17
404.70	0.00
404.89	63.19
405.09	110.01
405.28	0.00
405.47	30.43
405.66	9.36
405.85	4.68
406.05	42.13
406.24	16.38
406.43	30.43
406.62	39.79
406.81	107.66
407.00	46.81
407.20	53.83
407.39	44.47
407.58	74.90
407.77	95.96
407.96	28.09
408.15	49.15
408.34	37.45
408.54	0.00
408.73	58.51
408.92	0.00
409.11	107.66
409.30	56.17
409.49	56.17
409.68	53.83
409.87	0.00
410.07	4.68
410.26	98.30
410.45	11.70
410.64	0.00
410.83	7.02
411.02	58.51
411.21	46.81
411.40	88.94
411.59	58.51
411.78	21.06
411.98	28.09
412.17	0.00
412.36	81.92
412.55	95.96
412.74	4.68
412.93	79.58
413.12	53.83
413.31	9.36
413.50	70.22
413.69	49.15
413.88	9.36
414.07	72.56
414.26	86.60
414.45	70.22
414.64	84.26
414.83	74.90
415.02	110.01
415.22	126.39
415.41	84.26
415.60	77.24
415.79	32.77
415.98	65.54
416.17	86.60
416.36	74.90
416.55	7.02
416.74	91.28
416.93	39.79
417.12	37.45
417.31	65.54
417.50	37.45
417.69	72.56
417.88	72.56
418.07	4.68
418.26	126.39
418.45	107.66
418.64	9.36
418.83	135.75
419.02	30.43
419.21	72.56
419.39	0.00
419.58	0.00
419.77	53.83
419.96	60.85
420.15	65.54
420.34	58.51
420.53	25.75
420.72	0.00
420.91	49.15
421.10	0.00
421.29	53.83
421.48	67.88
421.67	88.94
421.86	58.51
422.05	81.92
422.24	72.56
422.43	39.79
422.61	7.02
422.80	72.56
422.99	112.35
423.18	65.54
423.37	70.22
423.56	88.94
423.75	67.88
423.94	60.85
424.13	63.19
424.32	53.83
424.50	39.79
424.69	46.81
424.88	98.30
425.07	65.54
425.26	30.43
425.45	28.09
425.64	63.19
425.83	42.13
426.01	112.35
426.20	30.43
426.39	51.49
426.58	91.28
426.77	77.24
426.96	23.41
427.15	72.56
427.33	124.05
427.52	88.94
427.71	77.24
427.90	74.90
428.09	28.09
428.28	37.45
428.46	60.85
428.65	42.13
428.84	102.98
429.03	88.94
429.22	21.06
429.40	65.54
429.59	11.70
429.78	77.24
429.97	88.94
430.16	25.75
430.34	28.09
430.53	168.52
430.72	58.51
430.91	88.94
431.10	149.79
431.28	39.79
431.47	60.85
431.66	60.85
431.85	51.49
432.03	93.62
432.22	53.83
432.41	16.38
432.60	86.60
432.79	51.49
432.97	107.66
433.16	60.85
433.35	133.41
433.54	51.49
433.72	93.62
433.91	44.47
434.10	93.62
434.28	86.60
434.47	117.03
434.66	112.35
434.85	23.41
435.03	121.71
435.22	49.15
435.41	67.88
435.59	65.54
435.78	70.22
435.97	58.51
436.16	77.24
436.34	67.88
436.53	131.07
436.72	67.88
436.90	119.37
437.09	98.30
437.28	124.05
437.46	112.35
437.65	0.00
437.84	88.94
438.02	163.84
438.21	145.11
438.40	0.00
438.58	21.06
438.77	42.13
438.96	105.32
439.14	18.72
439.33	49.15
439.52	37.45
439.70	98.30
439.89	100.64
440.08	152.13
440.26	63.19
440.45	93.62
440.63	93.62
440.82	37.45
441.01	67.88
441.19	114.69
441.38	30.43
441.57	72.56
441.75	147.45
441.94	102.98
442.12	131.07
442.31	25.75
442.50	93.62
442.68	86.60
442.87	88.94
443.05	100.64
443.24	86.60
443.43	60.85
443.61	91.28
443.80	37.45
443.98	56.17
444.17	39.79
444.35	37.45
444.54	145.11
444.73	112.35
444.91	212.99
445.10	49.15
445.28	112.35
445.47	154.48
445.65	42.13
445.84	56.17
446.02	2.34
446.21	18.72
446.39	37.45
446.58	58.51
446.77	126.39
446.95	161.50
447.14	86.60
447.32	119.37
447.51	60.85
447.69	16.38
447.88	77.24
448.06	102.98
448.25	81.92
448.43	79.58
448.62	51.49
448.80	128.73
448.99	81.92
449.17	102.98
449.36	63.19
449.54	102.98
449.73	161.50
449.91	88.94
450.10	84.26
450.28	35.11
450.46	100.64
450.65	58.51
450.83	93.62
451.02	30.43
451.20	42.13
451.39	51.49
451.57	95.96
451.76	39.79
451.94	58.51
452.13	95.96
452.31	51.49
452.49	79.58
452.68	142.77
452.86	91.28
453.05	88.94
453.23	53.83
453.42	42.13
453.60	67.88
453.78	49.15
453.97	81.92
454.15	102.98
454.34	7.02
454.52	70.22
454.70	63.19
454.89	77.24
455.07	77.24
455.26	119.37
455.44	63.19
455.62	56.17
455.81	100.64
455.99	142.77
456.17	84.26
456.36	49.15
456.54	95.96
456.73	88.94
456.91	107.66
457.09	25.75
457.28	81.92
457.46	49.15
457.64	138.09
457.83	102.98
458.01	56.17
458.19	105.32
458.38	102.98
458.56	91.28
458.74	37.45
458.93	131.07
459.11	93.62
459.29	88.94
459.48	46.81
459.66	156.82
459.84	70.22
460.03	107.66
460.21	105.32
460.39	51.49
460.57	79.58
460.76	86.60
460.94	168.52
461.12	131.07
461.31	77.24
461.49	63.19
461.67	81.92
461.85	72.56
462.04	84.26
462.22	95.96
462.40	42.13
462.59	51.49
462.77	49.15
462.95	147.45
463.13	77.24
463.32	58.51
463.50	60.85
463.68	142.77
463.86	110.01
464.05	105.32
464.23	51.49
464.41	79.58
464.59	91.28
464.78	67.88
464.96	102.98
465.14	88.94
465.32	93.62
465.50	177.88
465.69	74.90
465.87	105.32
466.05	110.01
466.23	98.30
466.41	39.79
466.60	86.60
466.78	159.16
466.96	124.05
467.14	100.64
467.32	131.07
467.51	32.77
467.69	105.32
467.87	74.90
468.05	79.58
468.23	110.01
468.41	42.13
468.60	70.22
468.78	72.56
468.96	100.64
469.14	67.88
469.32	51.49
469.50	0.00
469.69	126.39
469.87	86.60
470.05	65.54
470.23	56.17
470.41	49.15
470.59	126.39
470.77	98.30
470.95	74.90
471.14	51.49
471.32	79.58
471.50	88.94
471.68	81.92
471.86	58.51
472.04	84.26
472.22	79.58
472.40	100.64
472.58	79.58
472.77	100.64
472.95	56.17
473.13	25.75
473.31	124.05
473.49	126.39
473.67	93.62
473.85	79.58
474.03	198.95
474.21	98.30
474.39	88.94
474.57	32.77
474.75	49.15
474.93	72.56
475.12	49.15
475.30	44.47
475.48	117.03
475.66	182.56
475.84	79.58
476.02	163.84
476.20	53.83
476.38	58.51
476.56	88.94
476.74	11.70
476.92	88.94
477.10	63.19
477.28	110.01
477.46	110.01
477.64	84.26
477.82	63.19
478.00	107.66
478.18	124.05
478.36	49.15
478.54	51.49
478.72	112.35
478.90	74.90
479.08	74.90
479.26	16.38
479.44	124.05
479.62	93.62
479.80	51.49
479.98	180.22
480.16	117.03
480.34	119.37
480.52	84.26
480.70	86.60
480.88	152.13
481.06	67.88
481.24	105.32
481.41	133.41
481.59	138.09
481.77	196.60
481.95	107.66
482.13	81.92
482.31	133.41
482.49	124.05
482.67	107.66
482.85	67.88
483.03	70.22
483.21	100.64
483.39	131.07
483.57	86.60
483.74	133.41
483.92	98.30
484.10	105.32
484.28	58.51
484.46	88.94
484.64	100.64
484.82	88.94
485.00	93.62
485.18	93.62
485.35	105.32
485.53	88.94
485.71	21.06
485.89	98.30
486.07	32.77
486.25	95.96
486.43	86.60
486.61	74.90
486.78	112.35
486.96	56.17
487.14	117.03
487.32	88.94
487.50	147.45
487.68	161.50
487.85	126.39
488.03	117.03
488.21	124.05
488.39	100.64
488.57	117.03
488.75	67.88
488.92	77.24
489.10	72.56
489.28	149.79
489.46	117.03
489.64	86.60
489.81	107.66
489.99	100.64
490.17	79.58
490.35	161.50
490.53	105.32
490.70	205.97
490.88	107.66
491.06	112.35
491.24	163.84
491.41	147.45
491.59	156.82
491.77	119.37
491.95	128.73
492.13	107.66
492.30	93.62
492.48	95.96
492.66	112.35
492.84	124.05
493.01	166.18
493.19	170.86
493.37	147.45
493.54	105.32
493.72	140.43
493.90	131.07
494.08	79.58
494.25	168.52
494.43	88.94
494.61	166.18
494.79	114.69
494.96	63.19
495.14	11.70
495.32	152.13
495.49	72.56
495.67	117.03
495.85	93.62
496.02	79.58
496.20	102.98
496.38	79.58
496.55	53.83
496.73	60.85
496.91	128.73
497.09	175.54
497.26	79.58
497.44	173.20
497.62	107.66
497.79	170.86
497.97	161.50
498.14	152.13
498.32	107.66
498.50	138.09
498.67	72.56
498.85	121.71
499.03	124.05
499.20	105.32
499.38	119.37
499.56	49.15
499.73	98.30
499.91	156.82
500.08	110.01
500.26	182.56
500.44	107.66
500.61	138.09
500.79	95.96
500.97	72.56
501.14	177.88
501.32	135.75
501.49	173.20
501.67	152.13
501.84	145.11
502.02	140.43
502.20	107.66
502.37	149.79
502.55	145.11
502.72	138.09
502.90	135.75
503.07	39.79
503.25	67.88
503.43	100.64
503.60	147.45
503.78	63.19
503.95	159.16
504.13	110.01
504.30	56.17
504.48	184.90
504.65	149.79
504.83	184.90
505.01	154.48
505.18	110.01
505.36	187.24
505.53	191.92
505.71	159.16
505.88	156.82
506.06	177.88
506.23	107.66
506.41	121.71
506.58	51.49
506.76	142.77
506.93	0.00
507.11	88.94
507.28	56.17
507.46	135.75
507.63	168.52
507.81	133.41
507.98	77.24
508.16	124.05
508.33	140.43
508.50	131.07
508.68	145.11
508.85	135.75
509.03	51.49
509.20	65.54
509.38	173.20
509.55	175.54
509.73	88.94
509.90	133.41
510.08	184.90
510.25	175.54
510.42	119.37
510.60	105.32
510.77	147.45
510.95	161.50
511.12	145.11
511.30	236.39
511.47	159.16
511.64	159.16
511.82	65.54
511.99	166.18
512.17	79.58
512.34	107.66
512.51	114.69
512.69	58.51
512.86	175.54
513.04	72.56
513.21	88.94
513.38	133.41
513.56	156.82
513.73	131.07
513.90	161.50
514.08	142.77
514.25	107.66
514.43	131.07
514.60	88.94
514.77	95.96
514.95	126.39
515.12	138.09
515.29	189.58
515.47	119.37
515.64	63.19
515.81	110.01
515.99	124.05
516.16	117.03
516.33	131.07
516.51	189.58
516.68	142.77
516.85	161.50
517.03	149.79
517.20	126.39
517.37	107.66
517.54	74.90
517.72	147.45
517.89	170.86
518.06	161.50
518.24	152.13
518.41	149.79
518.58	117.03
518.75	154.48
518.93	142.77
519.10	112.35
519.27	74.90
519.45	121.71
519.62	53.83
519.79	51.49
519.96	100.64
520.14	86.60
520.31	72.56
520.48	154.48
520.65	159.16
520.83	110.01
521.00	168.52
521.17	170.86
521.34	205.97
521.52	135.75
521.69	114.69
521.86	241.08
522.03	177.88
522.20	128.73
522.38	107.66
522.55	77.24
522.72	142.77
522.89	84.26
523.07	88.94
523.24	98.30
523.41	168.52
523.58	84.26
523.75	168.52
523.92	72.56
524.10	187.24
524.27	168.52
524.44	105.32
524.61	131.07
524.78	154.48
524.96	135.75
525.13	105.32
525.30	227.03
525.47	170.86
525.64	180.22
525.81	135.75
525.98	140.43
526.16	119.37
526.33	117.03
526.50	126.39
526.67	142.77
526.84	138.09
527.01	159.16
527.18	152.13
527.36	114.69
527.53	102.98
527.70	189.58
527.87	201.29
528.04	138.09
528.21	152.13
528.38	65.54
528.55	121.71
528.72	121.71
528.89	112.35
529.07	163.84
529.24	152.13
529.41	84.26
529.58	100.64
529.75	135.75
529.92	124.05
530.09	95.96
530.26	100.64
530.43	145.11
530.60	35.11
530.77	91.28
530.94	177.88
531.11	131.07
531.28	88.94
531.46	119.37
531.63	81.92
531.80	95.96
531.97	93.62
532.14	65.54
532.31	119.37
532.48	128.73
532.65	117.03
532.82	163.84
532.99	93.62
533.16	74.90
533.33	98.30
533.50	21.06
533.67	105.32
533.84	81.92
534.01	84.26
534.18	147.45
534.35	168.52
534.52	140.43
534.69	163.84
534.86	173.20
535.03	191.92
535.20	112.35
535.37	177.88
535.54	128.73
535.71	187.24
535.88	95.96
536.05	93.62
536.22	133.41
536.38	105.32
536.55	51.49
536.72	126.39
536.89	161.50
537.06	173.20
537.23	138.09
537.40	107.66
537.57	135.75
537.74	159.16
537.91	117.03
538.08	114.69
538.25	152.13
538.42	189.58
538.59	133.41
538.75	79.58
538.92	142.77
539.09	51.49
539.26	149.79
539.43	166.18
539.60	159.16
539.77	110.01
539.94	135.75
540.11	196.60
540.28	79.58
540.44	112.35
540.61	102.98
540.78	98.30
540.95	105.32
541.12	201.29
541.29	133.41
541.46	72.56
541.62	88.94
541.79	112.35
541.96	131.07
542.13	154.48
542.30	56.17
542.47	114.69
542.63	86.60
542.80	63.19
542.97	114.69
543.14	161.50
543.31	135.75
543.48	173.20
543.64	91.28
543.81	245.76
543.98	128.73
544.15	126.39
544.32	124.05
544.48	138.09
544.65	140.43
544.82	107.66
544.99	91.28
545.16	154.48
545.32	110.01
545.49	110.01
545.66	105.32
545.83	95.96
546.00	58.51
546.16	112.35
546.33	133.41
546.50	128.73
546.67	32.77
546.83	156.82
547.00	112.35
547.17	84.26
547.34	105.32
547.50	117.03
547.67	110.01
547.84	149.79
548.00	156.82
548.17	145.11
548.34	138.09
548.51	163.84
548.67	131.07
548.84	93.62
549.01	154.48
549.18	110.01
549.34	182.56
549.51	114.69
549.68	93.62
549.84	180.22
550.01	37.45
550.18	121.71
550.34	86.60
550.51	189.58
550.68	191.92
550.84	152.13
551.01	86.60
551.18	135.75
551.34	147.45
551.51	112.35
551.68	147.45
551.84	163.84
552.01	180.22
552.18	70.22
552.34	102.98
552.51	44.47
552.68	161.50
552.84	86.60
553.01	56.17
553.18	93.62
553.34	100.64
553.51	147.45
553.67	124.05
553.84	119.37
554.01	74.90
554.17	135.75
554.34	196.60
554.51	105.32
554.67	177.88
554.84	173.20
555.00	63.19
555.17	215.33
555.33	105.32
555.50	58.51
555.67	217.67
555.83	88.94
556.00	138.09
556.16	112.35
556.33	203.63
556.50	140.43
556.66	56.17
556.83	173.20
556.99	114.69
557.16	140.43
557.32	114.69
557.49	177.88
557.65	49.15
557.82	86.60
557.98	100.64
558.15	135.75
558.32	112.35
558.48	88.94
558.65	65.54
558.81	156.82
558.98	98.30
559.14	88.94
559.31	65.54
559.47	93.62
559.64	91.28
559.80	142.77
559.97	142.77
560.13	142.77
560.30	133.41
560.46	86.60
560.63	126.39
560.79	133.41
560.96	126.39
561.12	180.22
561.29	100.64
561.45	107.66
561.61	79.58
561.78	74.90
561.94	112.35
562.11	166.18
562.27	152.13
562.44	56.17
562.60	65.54
562.77	191.92
562.93	84.26
563.10	77.24
563.26	110.01
563.42	110.01
563.59	145.11
563.75	86.60
563.92	201.29
564.08	67.88
564.24	56.17
564.41	72.56
564.57	86.60
564.74	107.66
564.90	58.51
565.07	152.13
565.23	145.11
565.39	124.05
565.56	154.48
565.72	105.32
565.88	128.73
566.05	170.86
566.21	93.62
566.38	170.86
566.54	72.56
566.70	107.66
566.87	117.03
567.03	124.05
567.19	110.01
567.36	177.88
567.52	131.07
567.68	102.98
567.85	220.01
568.01	25.75
568.17	100.64
568.34	72.56
568.50	152.13
568.66	100.64
568.83	102.98
568.99	102.98
569.15	166.18
569.32	114.69
569.48	117.03
569.64	135.75
569.81	105.32
569.97	93.62
570.13	124.05
570.30	95.96
570.46	67.88
570.62	79.58
570.78	128.73
570.95	93.62
571.11	107.66
571.27	112.35
571.43	65.54
571.60	138.09
571.76	128.73
571.92	154.48
572.09	28.09
572.25	88.94
572.41	86.60
572.57	77.24
572.74	93.62
572.90	131.07
573.06	131.07
573.22	110.01
573.38	112.35
573.55	86.60
573.71	126.39
573.87	102.98
574.03	159.16
574.20	77.24
574.36	100.64
574.52	131.07
574.68	117.03
574.84	100.64
575.01	63.19
575.17	112.35
575.33	121.71
575.49	79.58
575.65	88.94
575.82	70.22
575.98	88.94
576.14	142.77
576.30	95.96
576.46	102.98
576.62	70.22
576.79	126.39
576.95	81.92
577.11	70.22
577.27	107.66
577.43	86.60
577.59	114.69
577.75	156.82
577.92	102.98
578.08	114.69
578.24	114.69
578.40	114.69
578.56	65.54
578.72	63.19
578.88	84.26
579.04	110.01
579.21	140.43
579.37	79.58
579.53	49.15
579.69	98.30
579.85	84.26
580.01	119.37
580.17	133.41
580.33	138.09
580.49	46.81
580.65	191.92
580.82	100.64
580.98	117.03
581.14	74.90
581.30	124.05
581.46	79.58
581.62	72.56
581.78	114.69
581.94	91.28
582.10	0.00
582.26	107.66
582.42	42.13
582.58	100.64
582.74	117.03
582.90	88.94
583.06	72.56
583.22	112.35
583.38	149.79
583.54	102.98
583.70	173.20
583.86	154.48
584.02	100.64
584.18	110.01
584.34	142.77
584.50	131.07
584.66	79.58
584.82	100.64
584.98	156.82
585.14	131.07
585.30	18.72
585.46	100.64
585.62	107.66
585.78	107.66
585.94	51.49
586.10	95.96
586.26	119.37
586.42	189.58
586.58	140.43
586.74	102.98
586.90	84.26
587.06	102.98
587.22	63.19
587.38	149.79
587.54	105.32
587.70	105.32
587.86	98.30
588.02	67.88
588.18	72.56
588.34	105.32
588.49	114.69
588.65	93.62
588.81	86.60
588.97	65.54
589.13	117.03
589.29	39.79
589.45	7.02
589.61	98.30
589.77	119.37
589.93	46.81
590.08	65.54
590.24	67.88
590.40	124.05
590.56	91.28
590.72	67.88
590.88	131.07
591.04	98.30
591.20	56.17
591.35	128.73
591.51	60.85
591.67	135.75
591.83	93.62
591.99	98.30
592.15	0.00
592.31	21.06
592.46	117.03
592.62	117.03
592.78	51.49
592.94	110.01
593.10	44.47
593.26	152.13
593.41	63.19
593.57	14.04
593.73	95.96
593.89	98.30
594.05	102.98
594.20	46.81
594.36	81.92
594.52	84.26
594.68	58.51
594.84	88.94
594.99	152.13
595.15	37.45
595.31	107.66
595.47	60.85
595.62	74.90
595.78	84.26
595.94	0.00
596.10	124.05
596.25	98.30
596.41	119.37
596.57	49.15
596.73	98.30
596.88	58.51
597.04	88.94
597.20	112.35
597.36	74.90
597.51	117.03
597.67	133.41
597.83	23.41
597.99	91.28
598.14	126.39
598.30	60.85
598.46	37.45
598.61	105.32
598.77	60.85
598.93	145.11
599.09	95.96
599.24	86.60
599.40	77.24
599.56	107.66
599.71	95.96
599.87	117.03
600.03	74.90
600.18	124.05
600.34	81.92
600.50	142.77
600.65	65.54
600.81	128.73
600.97	79.58
601.12	81.92
601.28	79.58
601.44	107.66
601.59	51.49
601.75	126.39
601.91	39.79
602.06	131.07
602.22	70.22
602.37	107.66
602.53	142.77
602.69	110.01
602.84	140.43
603.00	131.07
603.16	138.09
603.31	119.37
603.47	88.94
603.62	88.94
603.78	77.24
603.94	98.30
604.09	28.09
604.25	107.66
604.40	102.98
604.56	72.56
604.71	128.73
604.87	100.64
605.03	98.30
605.18	0.00
605.34	121.71
605.49	88.94
605.65	159.16
605.80	84.26
605.96	70.22
606.12	44.47
606.27	100.64
606.43	65.54
606.58	126.39
606.74	135.75
606.89	95.96
607.05	102.98
607.20	9.36
607.36	60.85
607.51	142.77
607.67	135.75
607.82	95.96
607.98	133.41
608.13	119.37
608.29	95.96
608.44	79.58
608.60	88.94
608.75	154.48
608.91	100.64
609.06	51.49
609.22	11.70
609.37	88.94
609.53	93.62
609.68	149.79
609.84	88.94
609.99	74.90
610.15	166.18
610.30	51.49
610.46	16.38
610.61	152.13
610.76	60.85
610.92	74.90
611.07	39.79
611.23	138.09
611.38	100.64
611.54	145.11
611.69	100.64
611.84	37.45
612.00	114.69
612.15	23.41
612.31	46.81
612.46	49.15
612.62	114.69
612.77	70.22
612.92	98.30
613.08	32.77
613.23	37.45
613.39	70.22
613.54	91.28
613.69	128.73
613.85	131.07
614.00	58.51
614.15	37.45
614.31	77.24
614.46	60.85
614.62	149.79
614.77	35.11
614.92	102.98
615.08	147.45
615.23	112.35
615.38	30.43
615.54	140.43
615.69	126.39
615.84	110.01
616.00	91.28
616.15	81.92
616.30	112.35
616.46	37.45
616.61	117.03
616.76	88.94
616.92	53.83
617.07	133.41
617.22	161.50
617.37	32.77
617.53	107.66
617.68	102.98
617.83	177.88
617.99	140.43
618.14	126.39
618.29	91.28
618.45	7.02
618.60	140.43
618.75	91.28
618.90	114.69
619.06	135.75
619.21	114.69
619.36	124.05
619.51	49.15
619.67	121.71
619.82	128.73
619.97	107.66
620.12	124.05
620.28	65.54
620.43	60.85
620.58	58.51
620.73	14.04
620.89	39.79
621.04	60.85
621.19	63.19
621.34	79.58
621.49	152.13
621.65	74.90
621.80	60.85
621.95	81.92
622.10	77.24
622.25	149.79
622.41	42.13
622.56	77.24
622.71	67.88
622.86	79.58
623.01	138.09
623.16	102.98
623.32	60.85
623.47	28.09
623.62	70.22
623.77	72.56
623.92	88.94
624.07	117.03
624.23	114.69
624.38	105.32
624.53	63.19
624.68	67.88
624.83	86.60
624.98	32.77
625.13	81.92
625.29	63.19
625.44	112.35
625.59	88.94
625.74	53.83
625.89	67.88
626.04	93.62
626.19	65.54
626.34	156.82
626.49	95.96
626.65	49.15
626.80	53.83
626.95	88.94
627.10	112.35
627.25	21.06
627.40	51.49
627.55	49.15
627.70	67.88
627.85	107.66
628.00	2.34
628.15	60.85
628.30	56.17
628.45	72.56
628.60	51.49
628.76	60.85
628.91	72.56
629.06	93.62
629.21	42.13
629.36	65.54
629.51	91.28
629.66	42.13
629.81	53.83
629.96	72.56
630.11	81.92
630.26	105.32
630.41	70.22
630.56	138.09
630.71	79.58
630.86	46.81
631.01	131.07
631.16	86.60
631.31	37.45
631.46	86.60
631.61	133.41
631.76	63.19
631.91	112.35
632.06	37.45
632.21	121.71
632.36	51.49
632.51	67.88
632.66	84.26
632.81	63.19
632.96	11.70
633.10	14.04
633.25	88.94
633.40	65.54
633.55	93.62
633.70	140.43
633.85	95.96
634.00	112.35
634.15	121.71
634.30	105.32
634.45	81.92
634.60	88.94
634.75	117.03
634.90	58.51
635.05	72.56
635.19	86.60
635.34	88.94
635.49	42.13
635.64	25.75
635.79	105.32
635.94	81.92
636.09	100.64
636.24	70.22
636.39	44.47
636.53	58.51
636.68	39.79
636.83	14.04
636.98	98.30
637.13	35.11
637.28	65.54
637.43	42.13
637.57	117.03
637.72	0.00
637.87	84.26
638.02	91.28
638.17	65.54
638.32	53.83
638.46	21.06
638.61	133.41
638.76	72.56
638.91	107.66
639.06	105.32
639.20	107.66
639.35	149.79
639.50	74.90
639.65	42.13
639.80	114.69
639.94	147.45
640.09	112.35
640.24	14.04
640.39	21.06
640.54	7.02
640.68	65.54
640.83	60.85
640.98	70.22
641.13	138.09
641.27	37.45
641.42	91.28
641.57	56.17
641.72	81.92
641.86	91.28
642.01	114.69
642.16	65.54
642.31	105.32
642.45	110.01
642.60	91.28
642.75	70.22
642.90	46.81
643.04	81.92
643.19	63.19
643.34	135.75
643.48	35.11
643.63	88.94
643.78	65.54
643.93	86.60
644.07	81.92
644.22	159.16
644.37	53.83
644.51	0.00
644.66	81.92
644.81	60.85
644.95	60.85
645.10	30.43
645.25	37.45
645.39	88.94
645.54	56.17
645.69	23.41
645.83	56.17
645.98	79.58
646.13	133.41
646.27	63.19
646.42	49.15
646.57	81.92
646.71	91.28
646.86	117.03
647.00	65.54
647.15	102.98
647.30	170.86
647.44	91.28
647.59	9.36
647.74	91.28
647.88	88.94
648.03	39.79
648.17	67.88
648.32	70.22
648.47	72.56
648.61	28.09
648.76	65.54
648.90	98.30
649.05	72.56
649.20	60.85
649.34	110.01
649.49	86.60
649.63	107.66
649.78	0.00
649.92	42.13
650.07	16.38
650.21	79.58
650.36	51.49
650.51	32.77
650.65	42.13
650.80	98.30
650.94	42.13
651.09	119.37
651.23	37.45
651.38	56.17
651.52	14.04
651.67	60.85
651.81	112.35
651.96	77.24
652.10	86.60
652.25	56.17
652.39	56.17
652.54	2.34
652.68	56.17
652.83	60.85
652.97	81.92
653.12	91.28
653.26	84.26
653.41	77.24
653.55	51.49
653.70	79.58
653.84	98.30
653.99	65.54
654.13	44.47
654.27	58.51
654.42	65.54
654.56	72.56
654.71	81.92
654.85	81.92
655.00	46.81
655.14	63.19
655.29	102.98
655.43	72.56
655.57	91.28
655.72	44.47
655.86	39.79
656.01	107.66
656.15	60.85
656.30	60.85
656.44	74.90
656.58	93.62
656.73	21.06
656.87	112.35
657.01	0.00
657.16	117.03
657.30	72.56
657.45	60.85
657.59	46.81
657.73	44.47
657.88	112.35
658.02	56.17
658.16	107.66
658.31	4.68
658.45	77.24
658.60	63.19
658.74	95.96
658.88	98.30
659.03	72.56
659.17	102.98
659.31	25.75
659.46	67.88
659.60	93.62
659.74	72.56
659.89	46.81
660.03	39.79
660.17	119.37
660.32	70.22
660.46	156.82
660.60	58.51
660.74	65.54
660.89	37.45
661.03	42.13
661.17	63.19
661.32	72.56
661.46	121.71
661.60	16.38
661.74	84.26
661.89	98.30
662.03	14.04
662.17	110.01
662.31	0.00
662.46	51.49
662.60	84.26
662.74	74.90
662.88	77.24
663.03	98.30
663.17	86.60
663.31	81.92
663.45	30.43
663.60	51.49
663.74	119.37
663.88	93.62
664.02	100.64
664.17	49.15
664.31	95.96
664.45	37.45
664.59	60.85
664.73	56.17
664.88	140.43
665.02	86.60
665.16	117.03
665.30	60.85
665.44	107.66
665.59	46.81
665.73	105.32
665.87	140.43
666.01	39.79
666.15	30.43
666.29	49.15
666.44	58.51
666.58	30.43
666.72	53.83
666.86	49.15
667.00	35.11
667.14	39.79
667.28	42.13
667.43	14.04
667.57	74.90
667.71	74.90
667.85	86.60
667.99	35.11
668.13	58.51
668.27	70.22
668.41	126.39
668.56	121.71
668.70	81.92
668.84	25.75
668.98	35.11
669.12	67.88
669.26	81.92
669.40	58.51
669.54	39.79
669.68	93.62
669.82	58.51
669.96	107.66
670.10	86.60
670.25	14.04
670.39	32.77
670.53	9.36
670.67	63.19
670.81	72.56
670.95	81.92
671.09	53.83
671.23	67.88
671.37	53.83
671.51	51.49
671.65	88.94
671.79	23.41
671.93	42.13
672.07	60.85
672.21	105.32
672.35	53.83
672.49	84.26
672.63	86.60
672.77	42.13
672.91	63.19
673.05	70.22
673.19	28.09
673.33	53.83
673.47	131.07
673.61	77.24
673.75	79.58
673.89	0.00
674.03	0.00
674.17	0.00
674.31	63.19
674.45	0.00
674.59	46.81
674.73	0.00
674.87	105.32
675.01	0.00
675.15	37.45
675.29	42.13
675.43	35.11
675.56	67.88
675.70	74.90
675.84	0.00
675.98	91.28
676.12	119.37
676.26	30.43
676.40	79.58
676.54	35.11
676.68	0.00
676.82	88.94
676.96	58.51
677.10	37.45
677.23	126.39
677.37	30.43
677.51	79.58
677.65	46.81
677.79	51.49
677.93	60.85
678.07	28.09
678.21	86.60
678.34	70.22
678.48	98.30
678.62	65.54
678.76	142.77
678.90	107.66
679.04	46.81
679.18	81.92
679.31	91.28
679.45	95.96
679.59	74.90
679.73	107.66
679.87	112.35
680.00	119.37
680.14	81.92
680.28	126.39
680.42	58.51
680.56	51.49
680.70	95.96
680.83	53.83
680.97	42.13
681.11	23.41
681.25	58.51
681.39	60.85
681.52	25.75
681.66	79.58
681.80	65.54
681.94	86.60
682.07	70.22
682.21	98.30
682.35	37.45
682.49	53.83
682.62	39.79
682.76	79.58
682.90	84.26
683.04	23.41
683.17	79.58
683.31	65.54
683.45	39.79
683.59	35.11
683.72	88.94
683.86	23.41
684.00	23.41
684.13	18.72
684.27	114.69
684.41	42.13
684.55	0.00
684.68	30.43
684.82	18.72
684.96	51.49
685.09	86.60
685.23	72.56
685.37	60.85
685.50	63.19
685.64	37.45
685.78	0.00
685.91	23.41
686.05	121.71
686.19	95.96
686.32	42.13
686.46	0.00
686.60	72.56
686.73	51.49
686.87	23.41
687.01	56.17
687.14	60.85
687.28	112.35
687.42	77.24
687.55	105.32
687.69	84.26
687.82	28.09
687.96	44.47
688.10	25.75
688.23	32.77
688.37	77.24
688.50	42.13
688.64	149.79
688.78	25.75
688.91	2.34
689.05	58.51
689.18	65.54
689.32	72.56
689.46	11.70
689.59	21.06
689.73	63.19
689.86	63.19
690.00	58.51
690.13	60.85
690.27	0.00
690.41	93.62
690.54	30.43
690.68	14.04
690.81	46.81
690.95	93.62
691.08	35.11
691.22	79.58
691.35	112.35
691.49	18.72
691.62	39.79
691.76	35.11
691.89	23.41
692.03	21.06
692.16	30.43
692.30	86.60
692.43	35.11
692.57	81.92
692.70	23.41
692.84	81.92
692.97	46.81
693.11	91.28
693.24	0.00
693.38	37.45
693.51	7.02
693.65	30.43
693.78	0.00
693.92	58.51
694.05	37.45
694.19	35.11
694.32	79.58
694.45	23.41
694.59	39.79
694.72	49.15
694.86	70.22
694.99	44.47
695.13	21.06
695.26	51.49
695.39	74.90
695.53	2.34
695.66	98.30
695.80	60.85
695.93	98.30
696.07	65.54
696.20	100.64
696.33	63.19
696.47	39.79
696.60	25.75
696.73	58.51
696.87	60.85
697.00	63.19
697.14	39.79
697.27	42.13
697.40	56.17
697.54	21.06
697.67	37.45
697.80	51.49
697.94	51.49
698.07	37.45
698.21	35.11
698.34	30.43
698.47	67.88
698.61	0.00
698.74	39.79
698.87	0.00
699.01	30.43
699.14	65.54
699.27	56.17
699.40	56.17
699.54	0.00
699.67	0.00
699.80	25.75
699.94	0.00
700.07	28.09
700.20	0.00
700.34	32.77
700.47	11.70
700.60	58.51
700.73	84.26
700.87	28.09
701.00	37.45
701.13	28.09
701.26	18.72
701.40	30.43
701.53	142.77
701.66	30.43
701.79	74.90
701.93	25.75
702.06	79.58
702.19	60.85
702.32	49.15
702.46	18.72
702.59	18.72
702.72	65.54
702.85	39.79
702.99	56.17
703.12	67.88
703.25	39.79
703.38	4.68
703.51	16.38
703.65	39.79
703.78	65.54
703.91	51.49
704.04	67.88
704.17	77.24
704.31	28.09
704.44	21.06
704.57	14.04
704.70	46.81
704.83	23.41
704.96	49.15
705.10	32.77
705.23	0.00
>>>>>End Processed Spectral Data<<<<<
