SpectraSuite Data File
++++++++++++++++++++++++++++++++++++
Date: Fri Oct 04 11:42:10 GMT-05:00 2013
User: price-jones
Dark Spectrum Present: No
Reference Spectrum Present: No
Number of Sampled Component Spectra: 1
Spectrometers: USB2+H05261
Integration Time (usec): 100000 (USB2+H05261)
Spectra Averaged: 1 (USB2+H05261)
Boxcar Smoothing: 0 (USB2+H05261)
Correct for Electrical Dark: No (USB2+H05261)
Strobe/Lamp Enabled: No (USB2+H05261)
Correct for Detector Non-linearity: No (USB2+H05261)
Correct for Stray Light: No (USB2+H05261)
Number of Pixels in Processed Spectrum: 2048
>>>>>Begin Processed Spectral Data<<<<<
365.73	51.49
365.92	51.49
366.12	51.49
366.32	0.00
366.52	0.00
366.72	0.00
366.91	0.00
367.11	0.00
367.31	0.00
367.51	0.00
367.70	0.00
367.90	0.00
368.10	0.00
368.30	0.00
368.49	0.00
368.69	0.00
368.89	0.00
369.09	11.70
369.28	0.00
369.48	0.00
369.68	0.00
369.87	30.43
370.07	0.00
370.27	18.72
370.47	0.00
370.66	0.00
370.86	39.79
371.06	23.41
371.25	110.01
371.45	51.49
371.65	102.98
371.84	72.56
372.04	65.54
372.24	147.45
372.44	140.43
372.63	175.54
372.83	175.54
373.03	128.73
373.22	72.56
373.42	79.58
373.62	124.05
373.81	110.01
374.01	138.09
374.21	149.79
374.40	119.37
374.60	184.90
374.79	128.73
374.99	42.13
375.19	126.39
375.38	58.51
375.58	145.11
375.78	161.50
375.97	77.24
376.17	107.66
376.37	88.94
376.56	100.64
376.76	100.64
376.95	133.41
377.15	100.64
377.35	124.05
377.54	182.56
377.74	100.64
377.93	126.39
378.13	121.71
378.33	117.03
378.52	77.24
378.72	140.43
378.91	93.62
379.11	72.56
379.31	93.62
379.50	147.45
379.70	93.62
379.89	105.32
380.09	147.45
380.28	56.17
380.48	119.37
380.68	110.01
380.87	117.03
381.07	98.30
381.26	95.96
381.46	91.28
381.65	133.41
381.85	42.13
382.04	93.62
382.24	88.94
382.43	93.62
382.63	53.83
382.83	86.60
383.02	145.11
383.22	142.77
383.41	58.51
383.61	220.01
383.80	102.98
384.00	84.26
384.19	93.62
384.39	124.05
384.58	107.66
384.78	88.94
384.97	140.43
385.17	105.32
385.36	138.09
385.56	149.79
385.75	93.62
385.95	95.96
386.14	39.79
386.34	95.96
386.53	142.77
386.72	46.81
386.92	51.49
387.11	124.05
387.31	131.07
387.50	131.07
387.70	159.16
387.89	124.05
388.09	67.88
388.28	177.88
388.48	79.58
388.67	131.07
388.86	159.16
389.06	145.11
389.25	114.69
389.45	133.41
389.64	131.07
389.84	142.77
390.03	95.96
390.22	86.60
390.42	147.45
390.61	102.98
390.81	110.01
391.00	140.43
391.19	196.60
391.39	84.26
391.58	58.51
391.78	140.43
391.97	149.79
392.16	135.75
392.36	145.11
392.55	140.43
392.75	184.90
392.94	126.39
393.13	105.32
393.33	65.54
393.52	128.73
393.71	105.32
393.91	79.58
394.10	112.35
394.29	58.51
394.49	58.51
394.68	63.19
394.88	163.84
395.07	168.52
395.26	112.35
395.46	86.60
395.65	98.30
395.84	100.64
396.04	152.13
396.23	184.90
396.42	126.39
396.62	117.03
396.81	126.39
397.00	142.77
397.19	133.41
397.39	121.71
397.58	156.82
397.77	138.09
397.97	182.56
398.16	28.09
398.35	74.90
398.55	65.54
398.74	168.52
398.93	98.30
399.12	91.28
399.32	145.11
399.51	154.48
399.70	77.24
399.90	126.39
400.09	142.77
400.28	161.50
400.47	124.05
400.67	159.16
400.86	30.43
401.05	28.09
401.24	119.37
401.44	121.71
401.63	114.69
401.82	67.88
402.01	93.62
402.21	154.48
402.40	105.32
402.59	107.66
402.78	100.64
402.97	173.20
403.17	126.39
403.36	154.48
403.55	86.60
403.74	131.07
403.93	182.56
404.13	224.69
404.32	173.20
404.51	224.69
404.70	191.92
404.89	84.26
405.09	149.79
405.28	187.24
405.47	110.01
405.66	196.60
405.85	170.86
406.05	81.92
406.24	91.28
406.43	133.41
406.62	107.66
406.81	126.39
407.00	147.45
407.20	102.98
407.39	91.28
407.58	166.18
407.77	154.48
407.96	212.99
408.15	114.69
408.34	152.13
408.54	147.45
408.73	86.60
408.92	93.62
409.11	88.94
409.30	107.66
409.49	149.79
409.68	84.26
409.87	88.94
410.07	102.98
410.26	133.41
410.45	74.90
410.64	131.07
410.83	117.03
411.02	133.41
411.21	60.85
411.40	133.41
411.59	37.45
411.78	105.32
411.98	126.39
412.17	102.98
412.36	124.05
412.55	187.24
412.74	124.05
412.93	135.75
413.12	77.24
413.31	159.16
413.50	142.77
413.69	112.35
413.88	138.09
414.07	135.75
414.26	114.69
414.45	145.11
414.64	124.05
414.83	88.94
415.02	46.81
415.22	88.94
415.41	135.75
415.60	117.03
415.79	124.05
415.98	124.05
416.17	49.15
416.36	168.52
416.55	107.66
416.74	184.90
416.93	191.92
417.12	11.70
417.31	100.64
417.50	173.20
417.69	138.09
417.88	147.45
418.07	114.69
418.26	135.75
418.45	121.71
418.64	168.52
418.83	159.16
419.02	117.03
419.21	67.88
419.39	154.48
419.58	81.92
419.77	198.95
419.96	159.16
420.15	133.41
420.34	170.86
420.53	205.97
420.72	177.88
420.91	119.37
421.10	114.69
421.29	177.88
421.48	163.84
421.67	117.03
421.86	121.71
422.05	102.98
422.24	105.32
422.43	124.05
422.61	205.97
422.80	98.30
422.99	168.52
423.18	222.35
423.37	210.65
423.56	135.75
423.75	159.16
423.94	28.09
424.13	152.13
424.32	147.45
424.50	138.09
424.69	159.16
424.88	180.22
425.07	128.73
425.26	119.37
425.45	135.75
425.64	168.52
425.83	72.56
426.01	124.05
426.20	180.22
426.39	154.48
426.58	86.60
426.77	140.43
426.96	154.48
427.15	105.32
427.33	133.41
427.52	131.07
427.71	107.66
427.90	152.13
428.09	126.39
428.28	140.43
428.46	152.13
428.65	142.77
428.84	124.05
429.03	224.69
429.22	145.11
429.40	173.20
429.59	102.98
429.78	152.13
429.97	175.54
430.16	105.32
430.34	126.39
430.53	215.33
430.72	147.45
430.91	70.22
431.10	79.58
431.28	105.32
431.47	159.16
431.66	203.63
431.85	147.45
432.03	79.58
432.22	194.26
432.41	142.77
432.60	166.18
432.79	189.58
432.97	84.26
433.16	107.66
433.35	170.86
433.54	112.35
433.72	135.75
433.91	201.29
434.10	142.77
434.28	191.92
434.47	241.08
434.66	86.60
434.85	147.45
435.03	248.10
435.22	414.27
435.41	697.48
435.59	800.46
435.78	638.97
435.97	344.06
436.16	227.03
436.34	135.75
436.53	149.79
436.72	208.31
436.90	191.92
437.09	154.48
437.28	112.35
437.46	135.75
437.65	124.05
437.84	175.54
438.02	91.28
438.21	187.24
438.40	107.66
438.58	81.92
438.77	95.96
438.96	138.09
439.14	117.03
439.33	180.22
439.52	222.35
439.70	168.52
439.89	128.73
440.08	168.52
440.26	152.13
440.45	142.77
440.63	119.37
440.82	152.13
441.01	131.07
441.19	138.09
441.38	147.45
441.57	124.05
441.75	184.90
441.94	145.11
442.12	107.66
442.31	168.52
442.50	119.37
442.68	98.30
442.87	170.86
443.05	100.64
443.24	184.90
443.43	184.90
443.61	126.39
443.80	112.35
443.98	189.58
444.17	135.75
444.35	259.80
444.54	156.82
444.73	173.20
444.91	166.18
445.10	117.03
445.28	208.31
445.47	203.63
445.65	159.16
445.84	121.71
446.02	77.24
446.21	72.56
446.39	182.56
446.58	163.84
446.77	128.73
446.95	121.71
447.14	187.24
447.32	100.64
447.51	175.54
447.69	112.35
447.88	145.11
448.06	217.67
448.25	184.90
448.43	163.84
448.62	217.67
448.80	149.79
448.99	112.35
449.17	117.03
449.36	135.75
449.54	133.41
449.73	173.20
449.91	203.63
450.10	201.29
450.28	189.58
450.46	212.99
450.65	252.78
450.83	196.60
451.02	149.79
451.20	79.58
451.39	107.66
451.57	126.39
451.76	133.41
451.94	147.45
452.13	147.45
452.31	145.11
452.49	147.45
452.68	173.20
452.86	187.24
453.05	168.52
453.23	128.73
453.42	91.28
453.60	163.84
453.78	140.43
453.97	194.26
454.15	182.56
454.34	163.84
454.52	107.66
454.70	149.79
454.89	198.95
455.07	138.09
455.26	177.88
455.44	203.63
455.62	184.90
455.81	194.26
455.99	168.52
456.17	142.77
456.36	138.09
456.54	175.54
456.73	173.20
456.91	156.82
457.09	156.82
457.28	205.97
457.46	147.45
457.64	124.05
457.83	166.18
458.01	168.52
458.19	170.86
458.38	191.92
458.56	168.52
458.74	201.29
458.93	86.60
459.11	107.66
459.29	170.86
459.48	156.82
459.66	205.97
459.84	161.50
460.03	182.56
460.21	100.64
460.39	156.82
460.57	227.03
460.76	220.01
460.94	220.01
461.12	222.35
461.31	241.08
461.49	84.26
461.67	124.05
461.85	182.56
462.04	135.75
462.22	671.73
462.40	159.16
462.59	182.56
462.77	154.48
462.95	175.54
463.13	161.50
463.32	142.77
463.50	98.30
463.68	149.79
463.86	98.30
464.05	184.90
464.23	147.45
464.41	170.86
464.59	138.09
464.78	128.73
464.96	135.75
465.14	182.56
465.32	147.45
465.50	168.52
465.69	117.03
465.87	142.77
466.05	142.77
466.23	156.82
466.41	133.41
466.60	100.64
466.78	102.98
466.96	184.90
467.14	208.31
467.32	187.24
467.51	175.54
467.69	163.84
467.87	210.65
468.05	245.76
468.23	201.29
468.41	224.69
468.60	128.73
468.78	210.65
468.96	117.03
469.14	180.22
469.32	149.79
469.50	182.56
469.69	124.05
469.87	173.20
470.05	166.18
470.23	60.85
470.41	180.22
470.59	142.77
470.77	145.11
470.95	168.52
471.14	173.20
471.32	95.96
471.50	170.86
471.68	163.84
471.86	238.73
472.04	187.24
472.22	152.13
472.40	124.05
472.58	124.05
472.77	194.26
472.95	140.43
473.13	220.01
473.31	189.58
473.49	117.03
473.67	112.35
473.85	198.95
474.03	212.99
474.21	95.96
474.39	212.99
474.57	124.05
474.75	201.29
474.93	117.03
475.12	110.01
475.30	95.96
475.48	187.24
475.66	159.16
475.84	222.35
476.02	102.98
476.20	191.92
476.38	102.98
476.56	241.08
476.74	182.56
476.92	142.77
477.10	131.07
477.28	166.18
477.46	173.20
477.64	161.50
477.82	142.77
478.00	189.58
478.18	217.67
478.36	210.65
478.54	98.30
478.72	182.56
478.90	166.18
479.08	180.22
479.26	117.03
479.44	159.16
479.62	173.20
479.80	163.84
479.98	166.18
480.16	117.03
480.34	224.69
480.52	194.26
480.70	102.98
480.88	128.73
481.06	196.60
481.24	180.22
481.41	236.39
481.59	140.43
481.77	224.69
481.95	191.92
482.13	208.31
482.31	173.20
482.49	236.39
482.67	117.03
482.85	203.63
483.03	201.29
483.21	222.35
483.39	224.69
483.57	166.18
483.74	229.37
483.92	217.67
484.10	173.20
484.28	212.99
484.46	255.12
484.64	126.39
484.82	234.05
485.00	222.35
485.18	229.37
485.35	280.86
485.53	257.46
485.71	222.35
485.89	229.37
486.07	205.97
486.25	285.55
486.43	212.99
486.61	259.80
486.78	248.10
486.96	248.10
487.14	311.29
487.32	306.61
487.50	210.65
487.68	266.82
487.85	252.78
488.03	334.70
488.21	278.52
488.39	259.80
488.57	245.76
488.75	262.14
488.92	540.66
489.10	297.25
489.28	299.59
489.46	306.61
489.64	205.97
489.81	257.46
489.99	320.65
490.17	283.20
490.35	330.02
490.53	245.76
490.70	154.48
490.88	304.27
491.06	238.73
491.24	241.08
491.41	334.70
491.59	212.99
491.77	208.31
491.95	220.01
492.13	255.12
492.30	278.52
492.48	147.45
492.66	224.69
492.84	255.12
493.01	229.37
493.19	227.03
493.37	322.99
493.54	257.46
493.72	304.27
493.90	220.01
494.08	166.18
494.25	208.31
494.43	330.02
494.61	215.33
494.79	189.58
494.96	278.52
495.14	264.48
495.32	269.16
495.49	217.67
495.67	266.82
495.85	210.65
496.02	231.71
496.20	217.67
496.38	280.86
496.55	231.71
496.73	231.71
496.91	255.12
497.09	299.59
497.26	252.78
497.44	283.20
497.62	215.33
497.79	273.84
497.97	252.78
498.14	234.05
498.32	255.12
498.50	245.76
498.67	250.44
498.85	330.02
499.03	161.50
499.20	227.03
499.38	271.50
499.56	212.99
499.73	285.55
499.91	290.23
500.08	182.56
500.26	201.29
500.44	156.82
500.61	189.58
500.79	180.22
500.97	229.37
501.14	191.92
501.32	222.35
501.49	231.71
501.67	131.07
501.84	201.29
502.02	227.03
502.20	266.82
502.37	189.58
502.55	198.95
502.72	236.39
502.90	191.92
503.07	224.69
503.25	227.03
503.43	156.82
503.60	210.65
503.78	201.29
503.95	159.16
504.13	198.95
504.30	231.71
504.48	273.84
504.65	245.76
504.83	210.65
505.01	145.11
505.18	182.56
505.36	224.69
505.53	212.99
505.71	196.60
505.88	245.76
506.06	259.80
506.23	182.56
506.41	220.01
506.58	217.67
506.76	285.55
506.93	203.63
507.11	196.60
507.28	161.50
507.46	217.67
507.63	191.92
507.81	107.66
507.98	198.95
508.16	215.33
508.33	161.50
508.50	238.73
508.68	250.44
508.85	224.69
509.03	229.37
509.20	250.44
509.38	189.58
509.55	243.42
509.73	187.24
509.90	292.57
510.08	229.37
510.25	283.20
510.42	128.73
510.60	257.46
510.77	227.03
510.95	198.95
511.12	241.08
511.30	278.52
511.47	245.76
511.64	175.54
511.82	217.67
511.99	212.99
512.17	205.97
512.34	241.08
512.51	191.92
512.69	138.09
512.86	320.65
513.04	241.08
513.21	198.95
513.38	168.52
513.56	166.18
513.73	126.39
513.90	262.14
514.08	198.95
514.25	241.08
514.43	194.26
514.60	149.79
514.77	208.31
514.95	191.92
515.12	191.92
515.29	149.79
515.47	121.71
515.64	236.39
515.81	133.41
515.99	238.73
516.16	259.80
516.33	203.63
516.51	266.82
516.68	187.24
516.85	222.35
517.03	234.05
517.20	238.73
517.37	238.73
517.54	252.78
517.72	224.69
517.89	198.95
518.06	86.60
518.24	250.44
518.41	212.99
518.58	238.73
518.75	227.03
518.93	257.46
519.10	191.92
519.27	124.05
519.45	149.79
519.62	182.56
519.79	229.37
519.96	215.33
520.14	224.69
520.31	166.18
520.48	245.76
520.65	222.35
520.83	243.42
521.00	252.78
521.17	182.56
521.34	266.82
521.52	215.33
521.69	189.58
521.86	220.01
522.03	241.08
522.20	205.97
522.38	229.37
522.55	252.78
522.72	215.33
522.89	161.50
523.07	273.84
523.24	135.75
523.41	243.42
523.58	205.97
523.75	191.92
523.92	156.82
524.10	138.09
524.27	264.48
524.44	215.33
524.61	290.23
524.78	236.39
524.96	215.33
525.13	187.24
525.30	285.55
525.47	215.33
525.64	159.16
525.81	180.22
525.98	201.29
526.16	224.69
526.33	222.35
526.50	187.24
526.67	212.99
526.84	152.13
527.01	220.01
527.18	229.37
527.36	187.24
527.53	215.33
527.70	252.78
527.87	180.22
528.04	299.59
528.21	168.52
528.38	269.16
528.55	273.84
528.72	184.90
528.89	241.08
529.07	177.88
529.24	301.93
529.41	306.61
529.58	196.60
529.75	182.56
529.92	266.82
530.09	184.90
530.26	196.60
530.43	252.78
530.60	243.42
530.77	248.10
530.94	175.54
531.11	243.42
531.28	166.18
531.46	212.99
531.63	234.05
531.80	196.60
531.97	177.88
532.14	168.52
532.31	283.20
532.48	191.92
532.65	224.69
532.82	187.24
532.99	264.48
533.16	191.92
533.33	215.33
533.50	208.31
533.67	224.69
533.84	262.14
534.01	217.67
534.18	344.06
534.35	177.88
534.52	290.23
534.69	285.55
534.86	285.55
535.03	264.48
535.20	271.50
535.37	252.78
535.54	320.65
535.71	271.50
535.88	266.82
536.05	280.86
536.22	297.25
536.38	217.67
536.55	259.80
536.72	315.97
536.89	276.18
537.06	243.42
537.23	243.42
537.40	304.27
537.57	257.46
537.74	367.46
537.91	416.62
538.08	325.33
538.25	379.17
538.42	292.57
538.59	381.51
538.75	344.06
538.92	287.89
539.09	355.76
539.26	353.42
539.43	425.98
539.60	430.66
539.77	458.74
539.94	517.26
540.11	458.74
540.28	573.43
540.44	503.22
540.61	510.24
540.78	601.52
540.95	580.45
541.12	737.27
541.29	840.25
541.46	997.07
541.62	917.49
541.79	866.00
541.96	908.13
542.13	842.59
542.30	851.96
542.47	784.08
542.63	887.06
542.80	763.01
542.97	777.06
543.14	819.19
543.31	744.29
543.48	826.21
543.64	861.32
543.81	730.25
543.98	821.53
544.15	858.98
544.32	755.99
544.48	816.85
544.65	737.27
544.82	723.23
544.99	606.20
545.16	723.23
545.32	828.55
545.49	1317.72
545.66	1783.49
545.83	2040.95
546.00	1842.00
546.16	1301.34
546.33	1062.60
546.50	765.36
546.67	662.37
546.83	557.05
547.00	622.58
547.17	559.39
547.34	599.18
547.50	440.02
547.67	449.38
547.84	505.56
548.00	524.28
548.17	580.45
548.34	444.70
548.51	489.17
548.67	512.58
548.84	496.19
549.01	451.72
549.18	435.34
549.34	470.45
549.51	437.68
549.68	486.83
549.84	397.89
550.01	393.21
550.18	507.90
550.34	423.64
550.51	304.27
550.68	402.57
550.84	433.00
551.01	313.63
551.18	381.51
551.34	379.17
551.51	383.85
551.68	400.23
551.84	414.27
552.01	255.12
552.18	367.46
552.34	266.82
552.51	308.95
552.68	301.93
552.84	294.91
553.01	362.78
553.18	306.61
553.34	320.65
553.51	276.18
553.67	339.38
553.84	376.83
554.01	250.44
554.17	231.71
554.34	257.46
554.51	344.06
554.67	358.10
554.84	341.72
555.00	299.59
555.17	308.95
555.33	266.82
555.50	257.46
555.67	248.10
555.83	255.12
556.00	177.88
556.16	414.27
556.33	266.82
556.50	212.99
556.66	276.18
556.83	248.10
556.99	224.69
557.16	297.25
557.32	220.01
557.49	325.33
557.65	159.16
557.82	222.35
557.98	210.65
558.15	217.67
558.32	149.79
558.48	138.09
558.65	182.56
558.81	283.20
558.98	175.54
559.14	196.60
559.31	236.39
559.47	227.03
559.64	248.10
559.80	229.37
559.97	227.03
560.13	187.24
560.30	208.31
560.46	252.78
560.63	166.18
560.79	217.67
560.96	229.37
561.12	201.29
561.29	191.92
561.45	290.23
561.61	262.14
561.78	290.23
561.94	222.35
562.11	72.56
562.27	273.84
562.44	184.90
562.60	191.92
562.77	194.26
562.93	259.80
563.10	215.33
563.26	208.31
563.42	217.67
563.59	222.35
563.75	252.78
563.92	297.25
564.08	238.73
564.24	264.48
564.41	250.44
564.57	210.65
564.74	217.67
564.90	241.08
565.07	205.97
565.23	241.08
565.39	203.63
565.56	227.03
565.72	184.90
565.88	205.97
566.05	229.37
566.21	262.14
566.38	205.97
566.54	215.33
566.70	241.08
566.87	205.97
567.03	205.97
567.19	201.29
567.36	187.24
567.52	217.67
567.68	182.56
567.85	285.55
568.01	220.01
568.17	184.90
568.34	112.35
568.50	271.50
568.66	194.26
568.83	276.18
568.99	238.73
569.15	191.92
569.32	145.11
569.48	205.97
569.64	194.26
569.81	212.99
569.97	215.33
570.13	224.69
570.30	210.65
570.46	198.95
570.62	184.90
570.78	208.31
570.95	184.90
571.11	276.18
571.27	262.14
571.43	163.84
571.60	210.65
571.76	257.46
571.92	250.44
572.09	301.93
572.25	238.73
572.41	276.18
572.57	241.08
572.74	234.05
572.90	184.90
573.06	259.80
573.22	266.82
573.38	262.14
573.55	262.14
573.71	236.39
573.87	220.01
574.03	238.73
574.20	154.48
574.36	243.42
574.52	259.80
574.68	205.97
574.84	212.99
575.01	217.67
575.17	290.23
575.33	142.77
575.49	273.84
575.65	208.31
575.82	243.42
575.98	313.63
576.14	175.54
576.30	297.25
576.46	433.00
576.62	512.58
576.79	587.47
576.95	447.04
577.11	276.18
577.27	301.93
577.43	278.52
577.59	238.73
577.75	248.10
577.92	287.89
578.08	189.58
578.24	229.37
578.40	273.84
578.56	414.27
578.72	543.00
578.88	624.92
579.04	435.34
579.21	341.72
579.37	287.89
579.53	252.78
579.69	315.97
579.85	285.55
580.01	322.99
580.17	332.36
580.33	369.80
580.49	379.17
580.65	250.44
580.82	201.29
580.98	276.18
581.14	236.39
581.30	327.68
581.46	276.18
581.62	285.55
581.78	353.42
581.94	313.63
582.10	220.01
582.26	273.84
582.42	297.25
582.58	269.16
582.74	327.68
582.90	344.06
583.06	390.87
583.22	346.40
583.38	285.55
583.54	344.06
583.70	402.57
583.86	276.18
584.02	365.12
584.18	346.40
584.34	259.80
584.50	315.97
584.66	285.55
584.82	262.14
584.98	250.44
585.14	269.16
585.30	365.12
585.46	346.40
585.62	236.39
585.78	283.20
585.94	269.16
586.10	332.36
586.26	360.44
586.42	358.10
586.58	294.91
586.74	437.68
586.90	468.11
587.06	517.26
587.22	416.62
587.38	456.40
587.54	440.02
587.70	402.57
587.86	372.15
588.02	339.38
588.18	285.55
588.34	287.89
588.49	243.42
588.65	299.59
588.81	297.25
588.97	229.37
589.13	222.35
589.29	318.31
589.45	292.57
589.61	222.35
589.77	313.63
589.93	238.73
590.08	215.33
590.24	252.78
590.40	173.20
590.56	220.01
590.72	250.44
590.88	229.37
591.04	248.10
591.20	271.50
591.35	264.48
591.51	318.31
591.67	304.27
591.83	353.42
591.99	362.78
592.15	320.65
592.31	360.44
592.46	330.02
592.62	344.06
592.78	299.59
592.94	297.25
593.10	355.76
593.26	283.20
593.41	397.89
593.57	344.06
593.73	287.89
593.89	243.42
594.05	250.44
594.20	334.70
594.36	325.33
594.52	257.46
594.68	252.78
594.84	205.97
594.99	271.50
595.15	198.95
595.31	210.65
595.47	205.97
595.62	250.44
595.78	339.38
595.94	217.67
596.10	243.42
596.25	259.80
596.41	294.91
596.57	285.55
596.73	278.52
596.88	248.10
597.04	215.33
597.20	189.58
597.36	248.10
597.51	205.97
597.67	266.82
597.83	308.95
597.99	313.63
598.14	301.93
598.30	318.31
598.46	276.18
598.61	313.63
598.77	273.84
598.93	215.33
599.09	306.61
599.24	292.57
599.40	273.84
599.56	224.69
599.71	264.48
599.87	245.76
600.03	308.95
600.18	236.39
600.34	280.86
600.50	210.65
600.65	201.29
600.81	212.99
600.97	222.35
601.12	297.25
601.28	163.84
601.44	351.08
601.59	252.78
601.75	224.69
601.91	166.18
602.06	238.73
602.22	306.61
602.37	156.82
602.53	196.60
602.69	245.76
602.84	231.71
603.00	224.69
603.16	248.10
603.31	159.16
603.47	250.44
603.62	278.52
603.78	224.69
603.94	266.82
604.09	220.01
604.25	210.65
604.40	257.46
604.56	248.10
604.71	208.31
604.87	154.48
605.03	196.60
605.18	227.03
605.34	227.03
605.49	238.73
605.65	304.27
605.80	184.90
605.96	231.71
606.12	334.70
606.27	269.16
606.43	234.05
606.58	276.18
606.74	313.63
606.89	236.39
607.05	241.08
607.20	318.31
607.36	283.20
607.51	245.76
607.67	299.59
607.82	273.84
607.98	327.68
608.13	264.48
608.29	280.86
608.44	374.49
608.60	383.85
608.75	369.80
608.91	313.63
609.06	430.66
609.22	454.06
609.37	411.93
609.53	416.62
609.68	538.32
609.84	568.75
609.99	671.73
610.15	716.20
610.30	795.78
610.46	994.73
610.61	1125.80
610.76	1462.83
610.92	1577.52
611.07	1804.55
611.23	1898.17
611.38	1919.24
611.54	1561.14
611.69	1399.64
611.84	1160.91
612.00	1013.45
612.15	840.25
612.31	784.08
612.46	732.59
612.62	603.86
612.77	669.39
612.92	617.90
613.08	596.84
613.23	671.73
613.39	594.50
613.54	547.69
613.69	550.03
613.85	559.39
614.00	561.73
614.15	531.30
614.31	575.77
614.46	575.77
614.62	489.17
614.77	571.09
614.92	454.06
615.08	425.98
615.23	484.49
615.38	393.21
615.54	435.34
615.69	423.64
615.84	372.15
616.00	311.29
616.15	313.63
616.30	381.51
616.46	278.52
616.61	348.74
616.76	273.84
616.92	322.99
617.07	311.29
617.22	322.99
617.37	304.27
617.53	297.25
617.68	252.78
617.83	294.91
617.99	306.61
618.14	264.48
618.29	299.59
618.45	280.86
618.60	262.14
618.75	308.95
618.90	294.91
619.06	248.10
619.21	308.95
619.36	266.82
619.51	229.37
619.67	241.08
619.82	210.65
619.97	252.78
620.12	290.23
620.28	262.14
620.43	255.12
620.58	308.95
620.73	332.36
620.89	255.12
621.04	273.84
621.19	358.10
621.34	243.42
621.49	238.73
621.65	234.05
621.80	243.42
621.95	269.16
622.10	238.73
622.25	252.78
622.41	252.78
622.56	238.73
622.71	301.93
622.86	264.48
623.01	311.29
623.16	173.20
623.32	248.10
623.47	273.84
623.62	315.97
623.77	243.42
623.92	227.03
624.07	285.55
624.23	290.23
624.38	252.78
624.53	280.86
624.68	238.73
624.83	301.93
624.98	248.10
625.13	301.93
625.29	248.10
625.44	318.31
625.59	311.29
625.74	224.69
625.89	271.50
626.04	280.86
626.19	229.37
626.34	245.76
626.49	203.63
626.65	161.50
626.80	271.50
626.95	341.72
627.10	255.12
627.25	264.48
627.40	241.08
627.55	210.65
627.70	271.50
627.85	315.97
628.00	241.08
628.15	273.84
628.30	238.73
628.45	299.59
628.60	269.16
628.76	241.08
628.91	238.73
629.06	285.55
629.21	220.01
629.36	266.82
629.51	184.90
629.66	248.10
629.81	255.12
629.96	273.84
630.11	276.18
630.26	322.99
630.41	388.53
630.56	308.95
630.71	334.70
630.86	337.04
631.01	311.29
631.16	416.62
631.31	344.06
631.46	271.50
631.61	264.48
631.76	278.52
631.91	222.35
632.06	215.33
632.21	208.31
632.36	248.10
632.51	227.03
632.66	222.35
632.81	142.77
632.96	142.77
633.10	131.07
633.25	227.03
633.40	182.56
633.55	194.26
633.70	170.86
633.85	191.92
634.00	198.95
634.15	168.52
634.30	180.22
634.45	170.86
634.60	84.26
634.75	184.90
634.90	184.90
635.05	182.56
635.19	243.42
635.34	191.92
635.49	140.43
635.64	198.95
635.79	126.39
635.94	215.33
636.09	252.78
636.24	250.44
636.39	220.01
636.53	131.07
636.68	198.95
636.83	236.39
636.98	124.05
637.13	154.48
637.28	156.82
637.43	191.92
637.57	217.67
637.72	187.24
637.87	194.26
638.02	173.20
638.17	117.03
638.32	201.29
638.46	161.50
638.61	222.35
638.76	147.45
638.91	170.86
639.06	159.16
639.20	168.52
639.35	180.22
639.50	135.75
639.65	236.39
639.80	224.69
639.94	175.54
640.09	166.18
640.24	170.86
640.39	131.07
640.54	227.03
640.68	128.73
640.83	93.62
640.98	145.11
641.13	128.73
641.27	44.47
641.42	86.60
641.57	205.97
641.72	191.92
641.86	180.22
642.01	131.07
642.16	224.69
642.31	168.52
642.45	227.03
642.60	180.22
642.75	255.12
642.90	140.43
643.04	189.58
643.19	215.33
643.34	147.45
643.48	229.37
643.63	142.77
643.78	205.97
643.93	187.24
644.07	135.75
644.22	142.77
644.37	128.73
644.51	196.60
644.66	145.11
644.81	145.11
644.95	142.77
645.10	180.22
645.25	149.79
645.39	159.16
645.54	58.51
645.69	241.08
645.83	177.88
645.98	257.46
646.13	154.48
646.27	217.67
646.42	98.30
646.57	142.77
646.71	203.63
646.86	117.03
647.00	170.86
647.15	191.92
647.30	168.52
647.44	255.12
647.59	154.48
647.74	145.11
647.88	156.82
648.03	114.69
648.17	212.99
648.32	182.56
648.47	166.18
648.61	170.86
648.76	107.66
648.90	163.84
649.05	161.50
649.20	112.35
649.34	163.84
649.49	124.05
649.63	264.48
649.78	189.58
649.92	184.90
650.07	238.73
650.21	201.29
650.36	203.63
650.51	238.73
650.65	187.24
650.80	175.54
650.94	198.95
651.09	220.01
651.23	222.35
651.38	170.86
651.52	86.60
651.67	182.56
651.81	154.48
651.96	297.25
652.10	194.26
652.25	224.69
652.39	236.39
652.54	194.26
652.68	227.03
652.83	238.73
652.97	250.44
653.12	166.18
653.26	133.41
653.41	180.22
653.55	203.63
653.70	105.32
653.84	42.13
653.99	156.82
654.13	138.09
654.27	177.88
654.42	159.16
654.56	124.05
654.71	196.60
654.85	184.90
655.00	201.29
655.14	177.88
655.29	100.64
655.43	248.10
655.57	138.09
655.72	112.35
655.86	180.22
656.01	114.69
656.15	135.75
656.30	194.26
656.44	117.03
656.58	124.05
656.73	180.22
656.87	128.73
657.01	149.79
657.16	236.39
657.30	161.50
657.45	147.45
657.59	224.69
657.73	156.82
657.88	142.77
658.02	227.03
658.16	95.96
658.31	126.39
658.45	168.52
658.60	194.26
658.74	156.82
658.88	112.35
659.03	194.26
659.17	154.48
659.31	142.77
659.46	191.92
659.60	166.18
659.74	128.73
659.89	161.50
660.03	182.56
660.17	220.01
660.32	203.63
660.46	187.24
660.60	194.26
660.74	210.65
660.89	201.29
661.03	180.22
661.17	147.45
661.32	140.43
661.46	184.90
661.60	147.45
661.74	198.95
661.89	173.20
662.03	182.56
662.17	147.45
662.31	177.88
662.46	257.46
662.60	145.11
662.74	170.86
662.88	119.37
663.03	177.88
663.17	74.90
663.31	191.92
663.45	166.18
663.60	128.73
663.74	203.63
663.88	187.24
664.02	147.45
664.17	156.82
664.31	93.62
664.45	102.98
664.59	154.48
664.73	191.92
664.88	180.22
665.02	161.50
665.16	98.30
665.30	170.86
665.44	161.50
665.59	184.90
665.73	161.50
665.87	79.58
666.01	114.69
666.15	128.73
666.29	217.67
666.44	168.52
666.58	191.92
666.72	133.41
666.86	152.13
667.00	159.16
667.14	112.35
667.28	110.01
667.43	166.18
667.57	91.28
667.71	163.84
667.85	170.86
667.99	173.20
668.13	154.48
668.27	196.60
668.41	201.29
668.56	133.41
668.70	229.37
668.84	215.33
668.98	182.56
669.12	180.22
669.26	208.31
669.40	208.31
669.54	182.56
669.68	163.84
669.82	133.41
669.96	112.35
670.10	182.56
670.25	175.54
670.39	189.58
670.53	147.45
670.67	93.62
670.81	173.20
670.95	229.37
671.09	138.09
671.23	124.05
671.37	189.58
671.51	152.13
671.65	117.03
671.79	126.39
671.93	166.18
672.07	243.42
672.21	152.13
672.35	154.48
672.49	217.67
672.63	210.65
672.77	142.77
672.91	133.41
673.05	156.82
673.19	142.77
673.33	135.75
673.47	201.29
673.61	241.08
673.75	166.18
673.89	212.99
674.03	156.82
674.17	152.13
674.31	119.37
674.45	119.37
674.59	217.67
674.73	163.84
674.87	191.92
675.01	175.54
675.15	173.20
675.29	201.29
675.43	210.65
675.56	210.65
675.70	180.22
675.84	182.56
675.98	196.60
676.12	93.62
676.26	203.63
676.40	203.63
676.54	166.18
676.68	168.52
676.82	138.09
676.96	166.18
677.10	107.66
677.23	107.66
677.37	161.50
677.51	131.07
677.65	196.60
677.79	180.22
677.93	112.35
678.07	102.98
678.21	39.79
678.34	159.16
678.48	138.09
678.62	147.45
678.76	168.52
678.90	142.77
679.04	212.99
679.18	102.98
679.31	114.69
679.45	131.07
679.59	189.58
679.73	175.54
679.87	133.41
680.00	138.09
680.14	170.86
680.28	147.45
680.42	194.26
680.56	110.01
680.70	93.62
680.83	149.79
680.97	65.54
681.11	126.39
681.25	156.82
681.39	152.13
681.52	145.11
681.66	135.75
681.80	212.99
681.94	152.13
682.07	124.05
682.21	147.45
682.35	107.66
682.49	152.13
682.62	161.50
682.76	145.11
682.90	124.05
683.04	241.08
683.17	152.13
683.31	187.24
683.45	191.92
683.59	154.48
683.72	149.79
683.86	135.75
684.00	159.16
684.13	126.39
684.27	107.66
684.41	117.03
684.55	98.30
684.68	175.54
684.82	159.16
684.96	149.79
685.09	72.56
685.23	135.75
685.37	161.50
685.50	161.50
685.64	163.84
685.78	128.73
685.91	102.98
686.05	191.92
686.19	107.66
686.32	102.98
686.46	107.66
686.60	121.71
686.73	161.50
686.87	163.84
687.01	100.64
687.14	110.01
687.28	88.94
687.42	74.90
687.55	35.11
687.69	177.88
687.82	121.71
687.96	140.43
688.10	131.07
688.23	149.79
688.37	145.11
688.50	194.26
688.64	110.01
688.78	168.52
688.91	154.48
689.05	100.64
689.18	126.39
689.32	117.03
689.46	46.81
689.59	133.41
689.73	126.39
689.86	163.84
690.00	133.41
690.13	187.24
690.27	100.64
690.41	208.31
690.54	173.20
690.68	138.09
690.81	168.52
690.95	119.37
691.08	215.33
691.22	152.13
691.35	98.30
691.49	107.66
691.62	95.96
691.76	77.24
691.89	138.09
692.03	91.28
692.16	117.03
692.30	161.50
692.43	149.79
692.57	124.05
692.70	147.45
692.84	198.95
692.97	91.28
693.11	124.05
693.24	126.39
693.38	119.37
693.51	177.88
693.65	203.63
693.78	107.66
693.92	88.94
694.05	102.98
694.19	100.64
694.32	196.60
694.45	84.26
694.59	180.22
694.72	100.64
694.86	86.60
694.99	156.82
695.13	159.16
695.26	107.66
695.39	128.73
695.53	203.63
695.66	105.32
695.80	152.13
695.93	142.77
696.07	88.94
696.20	70.22
696.33	67.88
696.47	124.05
696.60	154.48
696.73	117.03
696.87	124.05
697.00	149.79
697.14	88.94
697.27	131.07
697.40	170.86
697.54	95.96
697.67	189.58
697.80	163.84
697.94	142.77
698.07	135.75
698.21	198.95
698.34	201.29
698.47	114.69
698.61	67.88
698.74	77.24
698.87	100.64
699.01	121.71
699.14	121.71
699.27	119.37
699.40	259.80
699.54	114.69
699.67	105.32
699.80	84.26
699.94	131.07
700.07	98.30
700.20	84.26
700.34	95.96
700.47	110.01
700.60	112.35
700.73	112.35
700.87	184.90
701.00	124.05
701.13	105.32
701.26	142.77
701.40	102.98
701.53	95.96
701.66	147.45
701.79	124.05
701.93	161.50
702.06	191.92
702.19	79.58
702.32	79.58
702.46	51.49
702.59	140.43
702.72	145.11
702.85	142.77
702.99	93.62
703.12	145.11
703.25	98.30
703.38	93.62
703.51	98.30
703.65	67.88
703.78	100.64
703.91	175.54
704.04	98.30
704.17	140.43
704.31	128.73
704.44	166.18
704.57	182.56
704.70	159.16
704.83	128.73
704.96	163.84
705.10	135.75
705.23	145.11
>>>>>End Processed Spectral Data<<<<<
