SpectraSuite Data File
++++++++++++++++++++++++++++++++++++
Date: Fri Oct 04 11:42:02 GMT-05:00 2013
User: price-jones
Dark Spectrum Present: No
Reference Spectrum Present: No
Number of Sampled Component Spectra: 1
Spectrometers: USB2+H05261
Integration Time (usec): 100000 (USB2+H05261)
Spectra Averaged: 1 (USB2+H05261)
Boxcar Smoothing: 0 (USB2+H05261)
Correct for Electrical Dark: No (USB2+H05261)
Strobe/Lamp Enabled: No (USB2+H05261)
Correct for Detector Non-linearity: No (USB2+H05261)
Correct for Stray Light: No (USB2+H05261)
Number of Pixels in Processed Spectrum: 2048
>>>>>Begin Processed Spectral Data<<<<<
365.73	91.28
365.92	91.28
366.12	91.28
366.32	0.00
366.52	0.00
366.72	0.00
366.91	0.00
367.11	0.00
367.31	0.00
367.51	0.00
367.70	0.00
367.90	0.00
368.10	0.00
368.30	0.00
368.49	0.00
368.69	0.00
368.89	0.00
369.09	0.00
369.28	0.00
369.48	0.00
369.68	28.09
369.87	0.00
370.07	58.51
370.27	7.02
370.47	0.00
370.66	0.00
370.86	131.07
371.06	30.43
371.25	205.97
371.45	39.79
371.65	98.30
371.84	88.94
372.04	16.38
372.24	126.39
372.44	37.45
372.63	170.86
372.83	133.41
373.03	98.30
373.22	112.35
373.42	0.00
373.62	84.26
373.81	51.49
374.01	257.46
374.21	114.69
374.40	56.17
374.60	168.52
374.79	100.64
374.99	105.32
375.19	147.45
375.38	208.31
375.58	107.66
375.78	159.16
375.97	180.22
376.17	194.26
376.37	95.96
376.56	154.48
376.76	154.48
376.95	121.71
377.15	220.01
377.35	84.26
377.54	138.09
377.74	56.17
377.93	131.07
378.13	131.07
378.33	154.48
378.52	114.69
378.72	117.03
378.91	128.73
379.11	112.35
379.31	70.22
379.50	102.98
379.70	133.41
379.89	175.54
380.09	121.71
380.28	74.90
380.48	93.62
380.68	166.18
380.87	84.26
381.07	121.71
381.26	271.50
381.46	77.24
381.65	70.22
381.85	124.05
382.04	114.69
382.24	177.88
382.43	152.13
382.63	147.45
382.83	147.45
383.02	70.22
383.22	170.86
383.41	133.41
383.61	140.43
383.80	93.62
384.00	131.07
384.19	124.05
384.39	133.41
384.58	79.58
384.78	91.28
384.97	100.64
385.17	86.60
385.36	107.66
385.56	131.07
385.75	126.39
385.95	60.85
386.14	107.66
386.34	138.09
386.53	84.26
386.72	131.07
386.92	131.07
387.11	67.88
387.31	149.79
387.50	77.24
387.70	93.62
387.89	74.90
388.09	51.49
388.28	161.50
388.48	65.54
388.67	119.37
388.86	152.13
389.06	138.09
389.25	100.64
389.45	166.18
389.64	154.48
389.84	191.92
390.03	119.37
390.22	112.35
390.42	135.75
390.61	189.58
390.81	117.03
391.00	88.94
391.19	140.43
391.39	138.09
391.58	142.77
391.78	93.62
391.97	74.90
392.16	95.96
392.36	168.52
392.55	117.03
392.75	84.26
392.94	77.24
393.13	77.24
393.33	131.07
393.52	107.66
393.71	208.31
393.91	119.37
394.10	177.88
394.29	51.49
394.49	67.88
394.68	84.26
394.88	163.84
395.07	114.69
395.26	224.69
395.46	124.05
395.65	133.41
395.84	105.32
396.04	196.60
396.23	110.01
396.42	79.58
396.62	131.07
396.81	105.32
397.00	168.52
397.19	117.03
397.39	154.48
397.58	173.20
397.77	105.32
397.97	121.71
398.16	105.32
398.35	133.41
398.55	140.43
398.74	194.26
398.93	152.13
399.12	184.90
399.32	110.01
399.51	182.56
399.70	205.97
399.90	170.86
400.09	217.67
400.28	177.88
400.47	238.73
400.67	173.20
400.86	175.54
401.05	266.82
401.24	236.39
401.44	210.65
401.63	203.63
401.82	168.52
402.01	238.73
402.21	215.33
402.40	212.99
402.59	166.18
402.78	210.65
402.97	220.01
403.17	203.63
403.36	203.63
403.55	388.53
403.74	781.74
403.93	2113.50
404.13	5364.51
404.32	8603.81
404.51	8592.11
404.70	5277.91
404.89	1905.20
405.09	615.56
405.28	308.95
405.47	234.05
405.66	231.71
405.85	287.89
406.05	227.03
406.24	210.65
406.43	243.42
406.62	170.86
406.81	294.91
407.00	393.21
407.20	706.84
407.39	1149.20
407.58	1315.38
407.77	936.21
407.96	575.77
408.15	273.84
408.34	283.20
408.54	210.65
408.73	168.52
408.92	212.99
409.11	271.50
409.30	212.99
409.49	112.35
409.68	208.31
409.87	292.57
410.07	245.76
410.26	168.52
410.45	259.80
410.64	210.65
410.83	220.01
411.02	222.35
411.21	231.71
411.40	301.93
411.59	126.39
411.78	220.01
411.98	135.75
412.17	203.63
412.36	163.84
412.55	205.97
412.74	259.80
412.93	241.08
413.12	194.26
413.31	191.92
413.50	287.89
413.69	229.37
413.88	241.08
414.07	222.35
414.26	217.67
414.45	229.37
414.64	231.71
414.83	306.61
415.02	210.65
415.22	231.71
415.41	285.55
415.60	168.52
415.79	205.97
415.98	299.59
416.17	243.42
416.36	283.20
416.55	367.46
416.74	294.91
416.93	276.18
417.12	257.46
417.31	294.91
417.50	313.63
417.69	332.36
417.88	248.10
418.07	266.82
418.26	215.33
418.45	252.78
418.64	388.53
418.83	318.31
419.02	308.95
419.21	278.52
419.39	351.08
419.58	315.97
419.77	301.93
419.96	292.57
420.15	318.31
420.34	224.69
420.53	262.14
420.72	313.63
420.91	327.68
421.10	313.63
421.29	299.59
421.48	344.06
421.67	330.02
421.86	306.61
422.05	304.27
422.24	311.29
422.43	273.84
422.61	280.86
422.80	334.70
422.99	334.70
423.18	330.02
423.37	416.62
423.56	360.44
423.75	397.89
423.94	241.08
424.13	306.61
424.32	292.57
424.50	325.33
424.69	341.72
424.88	402.57
425.07	313.63
425.26	351.08
425.45	418.96
425.64	292.57
425.83	304.27
426.01	465.77
426.20	332.36
426.39	381.51
426.58	341.72
426.77	367.46
426.96	411.93
427.15	400.23
427.33	362.78
427.52	386.19
427.71	381.51
427.90	395.55
428.09	346.40
428.28	360.44
428.46	404.91
428.65	381.51
428.84	386.19
429.03	463.43
429.22	397.89
429.40	353.42
429.59	381.51
429.78	318.31
429.97	383.85
430.16	395.55
430.34	458.74
430.53	423.64
430.72	463.43
430.91	416.62
431.10	388.53
431.28	440.02
431.47	545.34
431.66	479.81
431.85	472.79
432.03	451.72
432.22	620.24
432.41	507.90
432.60	475.13
432.79	552.37
432.97	622.58
433.16	571.09
433.35	589.82
433.54	758.33
433.72	727.91
433.91	739.61
434.10	873.02
434.28	861.32
434.47	1109.41
434.66	1219.42
434.85	1448.79
435.03	3609.11
435.22	13121.04
435.41	32858.78
435.59	42768.61
435.78	29186.48
435.97	13989.38
436.16	5334.08
436.34	1750.72
436.53	1050.90
436.72	784.08
436.90	711.52
437.09	620.24
437.28	662.37
437.46	716.20
437.65	615.56
437.84	514.92
438.02	601.52
438.21	521.94
438.40	514.92
438.58	521.94
438.77	496.19
438.96	575.77
439.14	512.58
439.33	564.07
439.52	634.29
439.70	531.30
439.89	566.41
440.08	507.90
440.26	519.60
440.45	533.64
440.63	543.00
440.82	486.83
441.01	545.34
441.19	517.26
441.38	547.69
441.57	533.64
441.75	596.84
441.94	514.92
442.12	585.13
442.31	430.66
442.50	521.94
442.68	582.79
442.87	547.69
443.05	465.77
443.24	451.72
443.43	550.03
443.61	564.07
443.80	517.26
443.98	571.09
444.17	468.11
444.35	535.98
444.54	524.28
444.73	498.53
444.91	554.71
445.10	559.39
445.28	491.51
445.47	538.32
445.65	557.05
445.84	486.83
446.02	500.87
446.21	564.07
446.39	559.39
446.58	505.56
446.77	491.51
446.95	521.94
447.14	566.41
447.32	528.96
447.51	587.47
447.69	496.19
447.88	454.06
448.06	528.96
448.25	442.36
448.43	468.11
448.62	500.87
448.80	437.68
448.99	489.17
449.17	526.62
449.36	514.92
449.54	503.22
449.73	547.69
449.91	479.81
450.10	521.94
450.28	620.24
450.46	491.51
450.65	557.05
450.83	477.47
451.02	486.83
451.20	503.22
451.39	500.87
451.57	524.28
451.76	496.19
451.94	552.37
452.13	524.28
452.31	557.05
452.49	519.60
452.68	566.41
452.86	550.03
453.05	505.56
453.23	613.22
453.42	503.22
453.60	533.64
453.78	592.16
453.97	561.73
454.15	491.51
454.34	451.72
454.52	451.72
454.70	540.66
454.89	482.15
455.07	503.22
455.26	533.64
455.44	526.62
455.62	533.64
455.81	477.47
455.99	503.22
456.17	550.03
456.36	571.09
456.54	463.43
456.73	559.39
456.91	622.58
457.09	521.94
457.28	559.39
457.46	500.87
457.64	514.92
457.83	557.05
458.01	493.85
458.19	507.90
458.38	505.56
458.56	510.24
458.74	447.04
458.93	580.45
459.11	531.30
459.29	484.49
459.48	442.36
459.66	533.64
459.84	554.71
460.03	596.84
460.21	566.41
460.39	540.66
460.57	517.26
460.76	486.83
460.94	540.66
461.12	489.17
461.31	470.45
461.49	498.53
461.67	554.71
461.85	425.98
462.04	477.47
462.22	903.45
462.40	575.77
462.59	535.98
462.77	507.90
462.95	528.96
463.13	484.49
463.32	505.56
463.50	521.94
463.68	510.24
463.86	465.77
464.05	491.51
464.23	519.60
464.41	550.03
464.59	552.37
464.78	493.85
464.96	517.26
465.14	517.26
465.32	451.72
465.50	435.34
465.69	449.38
465.87	564.07
466.05	482.15
466.23	519.60
466.41	491.51
466.60	601.52
466.78	533.64
466.96	566.41
467.14	500.87
467.32	472.79
467.51	435.34
467.69	437.68
467.87	554.71
468.05	444.70
468.23	465.77
468.41	449.38
468.60	440.02
468.78	444.70
468.96	498.53
469.14	428.32
469.32	430.66
469.50	407.25
469.69	507.90
469.87	458.74
470.05	456.40
470.23	402.57
470.41	376.83
470.59	416.62
470.77	404.91
470.95	442.36
471.14	477.47
471.32	491.51
471.50	615.56
471.68	468.11
471.86	571.09
472.04	554.71
472.22	498.53
472.40	414.27
472.58	449.38
472.77	437.68
472.95	517.26
473.13	521.94
473.31	489.17
473.49	568.75
473.67	489.17
473.85	500.87
474.03	528.96
474.21	451.72
474.39	493.85
474.57	521.94
474.75	447.04
474.93	468.11
475.12	444.70
475.30	437.68
475.48	468.11
475.66	496.19
475.84	533.64
476.02	568.75
476.20	514.92
476.38	484.49
476.56	603.86
476.74	458.74
476.92	475.13
477.10	411.93
477.28	540.66
477.46	486.83
477.64	554.71
477.82	519.60
478.00	489.17
478.18	444.70
478.36	484.49
478.54	486.83
478.72	580.45
478.90	615.56
479.08	575.77
479.26	587.47
479.44	678.76
479.62	648.33
479.80	683.44
479.98	566.41
480.16	688.12
480.34	699.82
480.52	770.04
480.70	791.10
480.88	816.85
481.06	849.61
481.24	842.59
481.41	889.40
481.59	994.73
481.77	1020.47
481.95	1036.86
482.13	1158.57
482.31	1170.27
482.49	1212.40
482.67	1369.21
482.85	1444.11
483.03	1535.39
483.21	1790.51
483.39	1701.57
483.57	1856.04
483.74	1984.77
483.92	2139.25
484.10	2228.19
484.28	2387.35
484.46	2495.01
484.64	2647.15
484.82	2745.45
485.00	2846.09
485.18	3049.72
485.35	3164.40
485.53	3339.94
485.71	3447.61
485.89	3653.58
486.07	3798.69
486.25	3934.44
486.43	3672.30
486.61	3831.46
486.78	3857.20
486.96	3824.44
487.14	3852.52
487.32	3700.39
487.50	3838.48
487.68	3723.79
487.85	3669.96
488.03	3627.83
488.21	3644.21
488.39	3499.10
488.57	3421.86
488.75	3466.33
488.92	3463.99
489.10	3311.86
489.28	3281.43
489.46	3169.09
489.64	3045.04
489.81	3112.91
489.99	2942.05
490.17	2944.39
490.35	2960.78
490.53	2855.45
490.70	2841.41
490.88	2892.90
491.06	2862.48
491.24	3178.45
491.41	3335.26
491.59	3162.06
491.77	2867.16
491.95	2890.56
492.13	2750.13
492.30	2733.75
492.48	2567.57
492.66	2553.52
492.84	2509.05
493.01	2567.57
493.19	2427.14
493.37	2555.86
493.54	2431.82
493.72	2326.49
493.90	2307.77
494.08	2331.17
494.25	2326.49
494.43	2223.51
494.61	2183.72
494.79	2202.44
494.96	2087.76
495.14	2022.22
495.32	1928.60
495.49	1984.77
495.67	2008.18
495.85	1895.83
496.02	1959.03
496.20	1827.96
496.38	1827.96
496.55	1853.70
496.73	1792.85
496.91	1825.62
497.09	1827.96
497.26	1802.21
497.44	1778.81
497.62	1668.80
497.79	1589.22
497.97	1643.06
498.14	1643.06
498.32	1504.96
498.50	1507.30
498.67	1479.22
498.85	1425.39
499.03	1387.94
499.20	1273.25
499.38	1390.28
499.56	1254.53
499.73	1299.00
499.91	1270.91
500.08	1245.16
500.26	1191.33
500.44	1123.46
500.61	1181.97
500.79	1160.91
500.97	1032.18
501.14	1067.28
501.32	926.85
501.49	985.37
501.67	936.21
501.84	901.11
502.02	908.13
502.20	971.32
502.37	887.06
502.55	849.61
502.72	903.45
502.90	837.91
503.07	758.33
503.25	770.04
503.43	730.25
503.60	671.73
503.78	669.39
503.95	699.82
504.13	671.73
504.30	713.86
504.48	697.48
504.65	709.18
504.83	645.99
505.01	725.57
505.18	575.77
505.36	603.86
505.53	660.03
505.71	676.41
505.88	681.10
506.06	615.56
506.23	592.16
506.41	582.79
506.58	557.05
506.76	582.79
506.93	526.62
507.11	540.66
507.28	512.58
507.46	496.19
507.63	568.75
507.81	545.34
507.98	547.69
508.16	531.30
508.33	545.34
508.50	533.64
508.68	575.77
508.85	596.84
509.03	622.58
509.20	545.34
509.38	559.39
509.55	550.03
509.73	624.92
509.90	620.24
510.08	475.13
510.25	456.40
510.42	535.98
510.60	582.79
510.77	547.69
510.95	482.15
511.12	428.32
511.30	428.32
511.47	416.62
511.64	510.24
511.82	472.79
511.99	489.17
512.17	463.43
512.34	479.81
512.51	505.56
512.69	524.28
512.86	526.62
513.04	456.40
513.21	578.11
513.38	461.09
513.56	386.19
513.73	484.49
513.90	454.06
514.08	390.87
514.25	498.53
514.43	456.40
514.60	365.12
514.77	479.81
514.95	444.70
515.12	442.36
515.29	425.98
515.47	524.28
515.64	512.58
515.81	475.13
515.99	456.40
516.16	416.62
516.33	458.74
516.51	517.26
516.68	442.36
516.85	404.91
517.03	353.42
517.20	423.64
517.37	402.57
517.54	318.31
517.72	418.96
517.89	311.29
518.06	414.27
518.24	430.66
518.41	519.60
518.58	425.98
518.75	308.95
518.93	400.23
519.10	470.45
519.27	444.70
519.45	376.83
519.62	386.19
519.79	411.93
519.96	393.21
520.14	407.25
520.31	374.49
520.48	435.34
520.65	386.19
520.83	388.53
521.00	428.32
521.17	386.19
521.34	381.51
521.52	283.20
521.69	383.85
521.86	409.59
522.03	393.21
522.20	440.02
522.38	393.21
522.55	379.17
522.72	332.36
522.89	381.51
523.07	538.32
523.24	390.87
523.41	411.93
523.58	308.95
523.75	440.02
523.92	423.64
524.10	393.21
524.27	365.12
524.44	362.78
524.61	411.93
524.78	388.53
524.96	407.25
525.13	421.30
525.30	447.04
525.47	519.60
525.64	451.72
525.81	472.79
525.98	477.47
526.16	519.60
526.33	376.83
526.50	365.12
526.67	423.64
526.84	414.27
527.01	454.06
527.18	592.16
527.36	482.15
527.53	512.58
527.70	524.28
527.87	475.13
528.04	519.60
528.21	526.62
528.38	627.26
528.55	533.64
528.72	484.49
528.89	472.79
529.07	482.15
529.24	477.47
529.41	554.71
529.58	524.28
529.75	524.28
529.92	601.52
530.09	620.24
530.26	617.90
530.43	461.09
530.60	582.79
530.77	636.63
530.94	655.35
531.11	650.67
531.28	594.50
531.46	660.03
531.63	695.14
531.80	812.17
531.97	844.93
532.14	887.06
532.31	1081.33
532.48	1275.59
532.65	1455.81
532.82	1617.31
532.99	1912.22
533.16	2307.77
533.33	2427.14
533.50	2211.81
533.67	1764.76
533.84	1643.06
534.01	1432.41
534.18	1334.11
534.35	1366.87
534.52	1306.02
534.69	1392.62
534.86	1411.34
535.03	1406.66
535.20	1455.81
535.37	1584.54
535.54	1715.61
535.71	1762.42
535.88	1914.56
536.05	2050.31
536.22	2186.06
536.38	2347.56
536.55	2597.99
536.72	2803.96
536.89	3133.98
537.06	3463.99
537.23	3908.69
537.40	4187.22
537.57	4550.00
537.74	4880.02
537.91	4901.08
538.08	5125.77
538.25	5364.51
538.42	5282.59
538.59	5427.70
538.75	5528.35
538.92	5738.99
539.09	6303.06
539.26	7047.35
539.43	8044.42
539.60	8865.95
539.77	10272.61
539.94	11562.25
540.11	12805.07
540.28	13781.07
540.44	15463.92
540.61	16547.59
540.78	19115.16
540.95	23295.35
541.12	27323.41
541.29	31641.70
541.46	33635.84
541.62	33734.14
541.79	31784.48
541.96	29383.09
542.13	27690.88
542.30	25462.69
542.47	24184.76
542.63	22867.03
542.80	21799.75
542.97	21462.71
543.14	21738.90
543.31	21467.39
543.48	21970.61
543.64	22225.73
543.81	22005.72
543.98	22359.14
544.15	22394.25
544.32	22787.46
544.48	22265.52
544.65	22363.82
544.82	21989.33
544.99	21968.27
545.16	22401.27
545.32	23283.65
545.49	35330.39
545.66	57726.97
545.83	65535.00
546.00	64446.65
546.16	53020.16
546.33	39248.44
546.50	29378.40
546.67	22986.40
546.83	20521.82
547.00	19367.93
547.17	18747.69
547.34	17715.51
547.50	16868.24
547.67	16358.00
547.84	15522.43
548.00	14981.77
548.17	14499.62
548.34	14195.35
548.51	13673.41
548.67	12772.30
548.84	12177.81
549.01	11461.60
549.18	11255.64
549.34	10668.16
549.51	10289.00
549.68	9797.48
549.84	9521.30
550.01	8903.40
550.18	8718.50
550.34	8280.82
550.51	7880.58
550.68	7667.60
550.84	7241.62
551.01	6717.34
551.18	6221.14
551.34	6026.88
551.51	5769.42
551.68	5547.07
551.84	5273.23
552.01	5156.20
552.18	5118.75
552.34	4777.03
552.51	4608.51
552.68	4360.42
552.84	4152.11
553.01	4011.68
553.18	3899.33
553.34	3702.73
553.51	3667.62
553.67	3691.02
553.84	3513.14
554.01	3084.83
554.17	3019.29
554.34	2871.84
554.51	2621.40
554.67	2492.67
554.84	2314.79
555.00	2200.10
555.17	2207.13
555.33	2073.71
555.50	1863.07
555.67	1891.15
555.83	1706.25
556.00	1778.81
556.16	1909.88
556.33	1645.40
556.50	1617.31
556.66	1495.60
556.83	1469.86
556.99	1394.96
557.16	1387.94
557.32	1341.13
557.49	1320.06
557.65	1160.91
557.82	1214.74
557.98	1198.35
558.15	1156.22
558.32	1149.20
558.48	1158.57
558.65	1114.10
558.81	1078.99
558.98	1025.15
559.14	994.73
559.31	1043.88
559.47	1053.24
559.64	1057.92
559.80	1020.47
559.97	959.62
560.13	903.45
560.30	823.87
560.46	924.51
560.63	917.49
560.79	938.55
560.96	896.43
561.12	908.13
561.29	905.79
561.45	917.49
561.61	891.74
561.78	957.28
561.94	896.43
562.11	896.43
562.27	870.68
562.44	748.97
562.60	880.04
562.77	849.61
562.93	884.72
563.10	866.00
563.26	812.17
563.42	779.40
563.59	828.55
563.75	772.38
563.92	800.46
564.08	826.21
564.24	866.00
564.41	777.06
564.57	786.42
564.74	753.65
564.90	720.88
565.07	784.08
565.23	725.57
565.39	678.76
565.56	753.65
565.72	681.10
565.88	702.16
566.05	725.57
566.21	713.86
566.38	688.12
566.54	690.46
566.70	636.63
566.87	641.31
567.03	746.63
567.19	793.44
567.36	732.59
567.52	671.73
567.68	751.31
567.85	692.80
568.01	711.52
568.17	709.18
568.34	770.04
568.50	777.06
568.66	777.06
568.83	765.36
568.99	732.59
569.15	720.88
569.32	730.25
569.48	697.48
569.64	594.50
569.81	653.01
569.97	608.54
570.13	601.52
570.30	566.41
570.46	568.75
570.62	519.60
570.78	498.53
570.95	573.43
571.11	477.47
571.27	514.92
571.43	440.02
571.60	559.39
571.76	482.15
571.92	449.38
572.09	557.05
572.25	580.45
572.41	521.94
572.57	594.50
572.74	589.82
572.90	650.67
573.06	627.26
573.22	603.86
573.38	603.86
573.55	678.76
573.71	592.16
573.87	617.90
574.03	608.54
574.20	519.60
574.36	695.14
574.52	613.22
574.68	627.26
574.84	774.72
575.01	798.12
575.17	727.91
575.33	748.97
575.49	784.08
575.65	931.53
575.82	1022.81
575.98	1093.03
576.14	1184.31
576.30	2104.14
576.46	6967.77
576.62	14295.99
576.79	17167.83
576.95	12561.66
577.11	7906.33
577.27	5327.06
577.43	3707.41
577.59	2333.51
577.75	1825.62
577.92	1619.65
578.08	1528.37
578.24	1666.46
578.40	2396.71
578.56	6490.31
578.72	12388.46
578.88	16133.31
579.04	11751.83
579.21	7573.97
579.37	5570.48
579.53	4308.93
579.69	3812.73
579.85	4762.99
580.01	5865.38
580.17	5863.04
580.33	4798.10
580.49	3997.64
580.65	3616.13
580.82	3328.24
580.98	3234.62
581.14	3009.93
581.30	3438.25
581.46	3709.75
581.62	4093.60
581.78	4259.78
581.94	4594.47
582.10	4828.53
582.26	5116.41
582.42	5195.99
582.58	5481.53
582.74	5488.56
582.90	5621.97
583.06	5631.33
583.22	5493.24
583.38	5731.97
583.54	5458.13
583.70	5474.51
583.86	5383.23
584.02	5416.00
584.18	5394.93
584.34	5303.65
584.50	5231.10
584.66	4849.59
584.82	4919.81
584.98	5097.69
585.14	4681.07
585.30	4861.29
585.46	4779.37
585.62	4830.87
585.78	4624.90
585.94	4550.00
586.10	4734.90
586.26	5011.09
586.42	5631.33
586.58	6511.37
586.74	8266.77
586.90	9813.87
587.06	11009.88
587.22	11021.58
587.38	9745.99
587.54	8688.07
587.70	7115.23
587.86	6169.65
588.02	5221.74
588.18	4592.13
588.34	4131.05
588.49	3861.88
588.65	3538.89
588.81	3517.83
588.97	3208.87
589.13	3218.24
589.29	3208.87
589.45	3112.91
589.61	3033.33
589.77	3145.68
589.93	3103.55
590.08	3220.58
590.24	3311.86
590.40	3548.25
590.56	3562.30
590.72	3606.77
590.88	3681.66
591.04	3751.88
591.20	3981.25
591.35	4121.68
591.51	4329.99
591.67	4372.12
591.83	4844.91
591.99	5151.52
592.15	5802.19
592.31	6064.33
592.46	6572.22
592.62	6942.03
592.78	7868.88
592.94	7878.24
593.10	7824.41
593.26	7595.04
593.41	6920.96
593.57	6204.76
593.73	5542.39
593.89	4858.95
594.05	4386.16
594.20	3875.93
594.36	3499.10
594.52	3267.39
594.68	3220.58
594.84	3019.29
594.99	2995.89
595.15	2867.16
595.31	2855.45
595.47	2745.45
595.62	2684.59
595.78	2722.04
595.94	2789.92
596.10	2895.24
596.25	2839.07
596.41	2736.09
596.57	2689.28
596.73	2848.43
596.88	2775.88
597.04	2663.53
597.20	2752.47
597.36	2902.26
597.51	3049.72
597.67	3136.32
597.83	3155.04
597.99	3243.98
598.14	3662.94
598.30	3840.82
598.46	3946.14
598.61	4234.03
598.77	4315.95
598.93	4372.12
599.09	4667.03
599.24	4723.20
599.40	4695.11
599.56	4631.92
599.71	4578.09
599.87	4187.22
600.03	3875.93
600.18	3632.51
600.34	3428.88
600.50	3255.69
600.65	3040.36
600.81	2869.50
600.97	2703.32
601.12	2597.99
601.28	2499.69
601.44	2427.14
601.59	2244.57
601.75	2225.85
601.91	1998.82
602.06	2040.95
602.22	2024.56
602.37	1867.75
602.53	1774.13
602.69	1834.98
602.84	1853.70
603.00	1825.62
603.16	1937.96
603.31	1860.73
603.47	1944.99
603.62	1914.56
603.78	1982.43
603.94	2136.91
604.09	2078.40
604.25	2237.55
604.40	2136.91
604.56	2040.95
604.71	2235.21
604.87	2097.12
605.03	2200.10
605.18	2303.09
605.34	2389.69
605.49	2279.68
605.65	2422.45
605.80	2417.77
605.96	2628.42
606.12	2710.34
606.27	2796.94
606.43	2991.20
606.58	3105.89
606.74	3152.70
606.89	3243.98
607.05	3405.48
607.20	3655.92
607.36	3948.48
607.51	4030.40
607.67	4252.75
607.82	4662.35
607.98	4968.96
608.13	5376.21
608.29	5895.81
608.44	6347.53
608.60	6817.98
608.75	7449.93
608.91	8187.19
609.06	8952.55
609.22	10132.18
609.37	10883.49
609.53	12159.08
609.68	13853.63
609.84	15602.01
609.99	18324.05
610.15	22045.51
610.30	26969.99
610.46	34052.45
610.61	43704.82
610.76	52821.21
610.92	59355.99
611.07	62365.91
611.23	63016.58
611.38	62157.61
611.54	59484.72
611.69	55051.74
611.84	49088.06
612.00	41617.07
612.15	34829.51
612.31	30515.90
612.46	26953.61
612.62	25123.31
612.77	23274.29
612.92	22153.17
613.08	20673.95
613.23	19711.99
613.39	18974.72
613.54	18750.03
613.69	17811.48
613.85	18061.91
614.00	17689.77
614.15	17703.81
614.31	17057.82
614.46	16931.44
614.62	16018.63
614.77	15489.67
614.92	14464.51
615.08	13757.67
615.23	12711.45
615.38	11693.32
615.54	10668.16
615.69	9738.97
615.84	8805.10
616.00	8266.77
616.15	7634.83
616.30	7061.40
616.46	6607.33
616.61	6118.16
616.76	5853.68
616.92	5722.61
617.07	5404.30
617.22	5123.43
617.37	4821.50
617.53	4538.30
617.68	4386.16
617.83	4191.90
617.99	3960.19
618.14	3983.59
618.29	3908.69
618.45	3775.28
618.60	3796.35
618.75	3728.47
618.90	3679.32
619.06	3557.61
619.21	3630.17
619.36	3487.40
619.51	3515.48
619.67	3459.31
619.82	3501.44
619.97	3662.94
620.12	3829.12
620.28	3798.69
620.43	3922.74
620.58	3819.75
620.73	4049.13
620.89	3885.29
621.04	3913.38
621.19	3939.12
621.34	3768.26
621.49	3716.77
621.65	3606.77
621.80	3786.99
621.95	3651.24
622.10	3815.07
622.25	3756.56
622.41	3845.50
622.56	3824.44
622.71	3904.01
622.86	3899.33
623.01	4238.71
623.16	4259.78
623.32	4191.90
623.47	4212.96
623.62	4203.60
623.77	4241.05
623.92	4234.03
624.07	4205.94
624.23	4315.95
624.38	4353.40
624.53	4276.16
624.68	4119.34
624.83	4173.18
624.98	4386.16
625.13	4348.72
625.29	4358.08
625.44	4337.01
625.59	4327.65
625.74	4348.72
625.89	4386.16
626.04	4308.93
626.19	4257.43
626.34	4390.84
626.49	4301.90
626.65	4311.27
626.80	4217.65
626.95	4236.37
627.10	4119.34
627.25	4025.72
627.40	4002.32
627.55	4021.04
627.70	3997.64
627.85	3896.99
628.00	3911.04
628.15	3840.82
628.30	3812.73
628.45	3721.45
628.60	3829.12
628.76	3936.78
628.91	3843.16
629.06	3969.55
629.21	3833.80
629.36	4032.74
629.51	4072.53
629.66	4451.70
629.81	4587.45
629.96	5046.20
630.11	5619.63
630.26	6272.64
630.41	6981.82
630.56	7637.17
630.71	8196.56
630.86	8395.50
631.01	8257.41
631.16	7747.17
631.31	6839.05
631.46	5970.71
631.61	4945.55
631.76	4203.60
631.91	3667.62
632.06	3103.55
632.21	2661.19
632.36	2218.83
632.51	2108.82
632.66	1870.09
632.81	1778.81
632.96	1671.14
633.10	1598.59
633.25	1558.80
633.40	1409.00
633.55	1378.58
633.70	1235.80
633.85	1207.72
634.00	1139.84
634.15	1224.10
634.30	1181.97
634.45	1196.01
634.60	1102.39
634.75	1144.52
634.90	1116.44
635.05	1125.80
635.19	1132.82
635.34	1071.97
635.49	1062.60
635.64	1048.56
635.79	1032.18
635.94	992.39
636.09	1025.15
636.24	943.24
636.39	990.05
636.53	908.13
636.68	910.47
636.83	877.70
636.98	947.92
637.13	816.85
637.28	905.79
637.43	915.15
637.57	856.64
637.72	933.87
637.87	961.96
638.02	830.89
638.17	858.98
638.32	819.19
638.46	809.83
638.61	842.59
638.76	758.33
638.91	786.42
639.06	739.61
639.20	758.33
639.35	791.10
639.50	716.20
639.65	840.25
639.80	873.02
639.94	732.59
640.09	732.59
640.24	697.48
640.39	692.80
640.54	737.27
640.68	716.20
640.83	770.04
640.98	653.01
641.13	711.52
641.27	741.95
641.42	709.18
641.57	734.93
641.72	648.33
641.86	706.84
642.01	704.50
642.16	781.74
642.31	697.48
642.45	690.46
642.60	793.44
642.75	660.03
642.90	702.16
643.04	727.91
643.19	683.44
643.34	720.88
643.48	660.03
643.63	655.35
643.78	755.99
643.93	819.19
644.07	751.31
644.22	720.88
644.37	674.07
644.51	802.80
644.66	702.16
644.81	638.97
644.95	765.36
645.10	692.80
645.25	685.78
645.39	760.67
645.54	648.33
645.69	683.44
645.83	608.54
645.98	702.16
646.13	671.73
646.27	685.78
646.42	767.70
646.57	732.59
646.71	692.80
646.86	599.18
647.00	629.60
647.15	697.48
647.30	634.29
647.44	636.63
647.59	669.39
647.74	760.67
647.88	716.20
648.03	669.39
648.17	854.30
648.32	725.57
648.47	882.38
648.61	744.29
648.76	753.65
648.90	809.83
649.05	781.74
649.20	828.55
649.34	931.53
649.49	1008.77
649.63	1149.20
649.78	1296.66
649.92	1586.88
650.07	2033.93
650.21	2183.72
650.36	2352.24
650.51	2298.41
650.65	2326.49
650.80	2040.95
650.94	1795.19
651.09	1600.93
651.23	1387.94
651.38	1322.40
651.52	1142.18
651.67	1043.88
651.81	1041.54
651.96	1001.75
652.10	926.85
652.25	898.77
652.39	980.68
652.54	985.37
652.68	1032.18
652.83	1050.90
652.97	1156.22
653.12	1188.99
653.26	1064.94
653.41	1109.41
653.55	1011.11
653.70	849.61
653.84	849.61
653.99	725.57
654.13	767.70
654.27	755.99
654.42	772.38
654.56	674.07
654.71	683.44
654.85	727.91
655.00	690.46
655.14	702.16
655.29	608.54
655.43	622.58
655.57	627.26
655.72	688.12
655.86	692.80
656.01	732.59
656.15	622.58
656.30	660.03
656.44	678.76
656.58	603.86
656.73	676.41
656.87	545.34
657.01	631.94
657.16	753.65
657.30	704.50
657.45	760.67
657.59	877.70
657.73	844.93
657.88	702.16
658.02	840.25
658.16	807.48
658.31	660.03
658.45	692.80
658.60	594.50
658.74	524.28
658.88	636.63
659.03	535.98
659.17	486.83
659.31	561.73
659.46	545.34
659.60	531.30
659.74	479.81
659.89	559.39
660.03	498.53
660.17	540.66
660.32	589.82
660.46	496.19
660.60	512.58
660.74	641.31
660.89	503.22
661.03	533.64
661.17	596.84
661.32	622.58
661.46	709.18
661.60	770.04
661.74	940.90
661.89	1137.50
662.03	1270.91
662.17	1315.38
662.31	1432.41
662.46	1425.39
662.60	1299.00
662.74	1217.08
662.88	1018.13
663.03	1046.22
663.17	894.08
663.31	830.89
663.45	788.76
663.60	814.51
663.74	648.33
663.88	608.54
664.02	638.97
664.17	540.66
664.31	557.05
664.45	573.43
664.59	510.24
664.73	531.30
664.88	552.37
665.02	493.85
665.16	500.87
665.30	444.70
665.44	451.72
665.59	440.02
665.73	433.00
665.87	578.11
666.01	402.57
666.15	538.32
666.29	348.74
666.44	512.58
666.58	475.13
666.72	458.74
666.86	479.81
667.00	526.62
667.14	503.22
667.28	543.00
667.43	444.70
667.57	538.32
667.71	519.60
667.85	425.98
667.99	547.69
668.13	510.24
668.27	477.47
668.41	470.45
668.56	475.13
668.70	430.66
668.84	433.00
668.98	477.47
669.12	428.32
669.26	519.60
669.40	454.06
669.54	433.00
669.68	517.26
669.82	397.89
669.96	482.15
670.10	425.98
670.25	437.68
670.39	430.66
670.53	458.74
670.67	421.30
670.81	330.02
670.95	400.23
671.09	393.21
671.23	550.03
671.37	496.19
671.51	486.83
671.65	444.70
671.79	351.08
671.93	437.68
672.07	503.22
672.21	430.66
672.35	381.51
672.49	418.96
672.63	461.09
672.77	386.19
672.91	479.81
673.05	358.10
673.19	428.32
673.33	421.30
673.47	397.89
673.61	451.72
673.75	311.29
673.89	351.08
674.03	304.27
674.17	327.68
674.31	409.59
674.45	383.85
674.59	320.65
674.73	311.29
674.87	358.10
675.01	411.93
675.15	404.91
675.29	418.96
675.43	409.59
675.56	388.53
675.70	388.53
675.84	360.44
675.98	428.32
676.12	355.76
676.26	318.31
676.40	234.05
676.54	374.49
676.68	374.49
676.82	376.83
676.96	351.08
677.10	362.78
677.23	355.76
677.37	351.08
677.51	322.99
677.65	320.65
677.79	290.23
677.93	381.51
678.07	341.72
678.21	341.72
678.34	311.29
678.48	311.29
678.62	297.25
678.76	313.63
678.90	397.89
679.04	304.27
679.18	341.72
679.31	344.06
679.45	311.29
679.59	355.76
679.73	346.40
679.87	411.93
680.00	327.68
680.14	449.38
680.28	456.40
680.42	383.85
680.56	379.17
680.70	374.49
680.83	327.68
680.97	353.42
681.11	372.15
681.25	461.09
681.39	381.51
681.52	402.57
681.66	386.19
681.80	374.49
681.94	339.38
682.07	299.59
682.21	308.95
682.35	365.12
682.49	315.97
682.62	395.55
682.76	332.36
682.90	440.02
683.04	374.49
683.17	376.83
683.31	365.12
683.45	376.83
683.59	402.57
683.72	388.53
683.86	390.87
684.00	400.23
684.13	325.33
684.27	264.48
684.41	339.38
684.55	358.10
684.68	264.48
684.82	339.38
684.96	346.40
685.09	278.52
685.23	400.23
685.37	290.23
685.50	376.83
685.64	355.76
685.78	367.46
685.91	367.46
686.05	362.78
686.19	400.23
686.32	463.43
686.46	393.21
686.60	437.68
686.73	482.15
686.87	603.86
687.01	554.71
687.14	653.01
687.28	737.27
687.42	809.83
687.55	781.74
687.69	800.46
687.82	695.14
687.96	802.80
688.10	858.98
688.23	748.97
688.37	643.65
688.50	645.99
688.64	695.14
688.78	540.66
688.91	512.58
689.05	531.30
689.18	400.23
689.32	423.64
689.46	346.40
689.59	400.23
689.73	294.91
689.86	355.76
690.00	290.23
690.13	313.63
690.27	297.25
690.41	355.76
690.54	402.57
690.68	376.83
690.81	308.95
690.95	318.31
691.08	299.59
691.22	229.37
691.35	222.35
691.49	231.71
691.62	212.99
691.76	280.86
691.89	215.33
692.03	266.82
692.16	234.05
692.30	264.48
692.43	330.02
692.57	283.20
692.70	264.48
692.84	283.20
692.97	278.52
693.11	313.63
693.24	472.79
693.38	479.81
693.51	592.16
693.65	667.05
693.78	592.16
693.92	664.71
694.05	552.37
694.19	521.94
694.32	435.34
694.45	442.36
694.59	355.76
694.72	367.46
694.86	283.20
694.99	287.89
695.13	255.12
695.26	220.01
695.39	177.88
695.53	271.50
695.66	227.03
695.80	259.80
695.93	205.97
696.07	184.90
696.20	201.29
696.33	180.22
696.47	292.57
696.60	205.97
696.73	210.65
696.87	177.88
697.00	266.82
697.14	156.82
697.27	198.95
697.40	205.97
697.54	198.95
697.67	166.18
697.80	126.39
697.94	152.13
698.07	135.75
698.21	196.60
698.34	159.16
698.47	196.60
698.61	154.48
698.74	110.01
698.87	229.37
699.01	205.97
699.14	191.92
699.27	227.03
699.40	257.46
699.54	217.67
699.67	236.39
699.80	196.60
699.94	133.41
700.07	177.88
700.20	191.92
700.34	124.05
700.47	138.09
700.60	173.20
700.73	135.75
700.87	217.67
701.00	180.22
701.13	159.16
701.26	252.78
701.40	168.52
701.53	241.08
701.66	152.13
701.79	198.95
701.93	173.20
702.06	210.65
702.19	269.16
702.32	229.37
702.46	224.69
702.59	175.54
702.72	180.22
702.85	280.86
702.99	252.78
703.12	285.55
703.25	163.84
703.38	163.84
703.51	250.44
703.65	257.46
703.78	292.57
703.91	283.20
704.04	276.18
704.17	273.84
704.31	224.69
704.44	290.23
704.57	311.29
704.70	271.50
704.83	306.61
704.96	313.63
705.10	290.23
705.23	425.98
>>>>>End Processed Spectral Data<<<<<
