SpectraSuite Data File
++++++++++++++++++++++++++++++++++++
Date: Fri Oct 04 11:42:30 GMT-05:00 2013
User: price-jones
Dark Spectrum Present: No
Reference Spectrum Present: No
Number of Sampled Component Spectra: 1
Spectrometers: USB2+H05261
Integration Time (usec): 100000 (USB2+H05261)
Spectra Averaged: 1 (USB2+H05261)
Boxcar Smoothing: 0 (USB2+H05261)
Correct for Electrical Dark: No (USB2+H05261)
Strobe/Lamp Enabled: No (USB2+H05261)
Correct for Detector Non-linearity: No (USB2+H05261)
Correct for Stray Light: No (USB2+H05261)
Number of Pixels in Processed Spectrum: 2048
>>>>>Begin Processed Spectral Data<<<<<
365.73	4.68
365.92	4.68
366.12	4.68
366.32	0.00
366.52	0.00
366.72	35.11
366.91	0.00
367.11	0.00
367.31	0.00
367.51	0.00
367.70	0.00
367.90	0.00
368.10	0.00
368.30	0.00
368.49	0.00
368.69	0.00
368.89	0.00
369.09	0.00
369.28	0.00
369.48	0.00
369.68	0.00
369.87	0.00
370.07	30.43
370.27	0.00
370.47	93.62
370.66	79.58
370.86	49.15
371.06	16.38
371.25	60.85
371.45	9.36
371.65	95.96
371.84	81.92
372.04	32.77
372.24	58.51
372.44	128.73
372.63	84.26
372.83	110.01
373.03	93.62
373.22	95.96
373.42	46.81
373.62	135.75
373.81	105.32
374.01	142.77
374.21	98.30
374.40	100.64
374.60	184.90
374.79	100.64
374.99	70.22
375.19	117.03
375.38	88.94
375.58	81.92
375.78	84.26
375.97	166.18
376.17	145.11
376.37	128.73
376.56	180.22
376.76	56.17
376.95	91.28
377.15	91.28
377.35	145.11
377.54	117.03
377.74	49.15
377.93	28.09
378.13	121.71
378.33	128.73
378.52	95.96
378.72	149.79
378.91	100.64
379.11	159.16
379.31	77.24
379.50	131.07
379.70	191.92
379.89	105.32
380.09	135.75
380.28	86.60
380.48	84.26
380.68	133.41
380.87	131.07
381.07	51.49
381.26	135.75
381.46	91.28
381.65	70.22
381.85	56.17
382.04	93.62
382.24	154.48
382.43	32.77
382.63	107.66
382.83	95.96
383.02	107.66
383.22	126.39
383.41	88.94
383.61	49.15
383.80	77.24
384.00	114.69
384.19	63.19
384.39	128.73
384.58	86.60
384.78	142.77
384.97	110.01
385.17	114.69
385.36	102.98
385.56	100.64
385.75	37.45
385.95	51.49
386.14	131.07
386.34	44.47
386.53	184.90
386.72	117.03
386.92	77.24
387.11	110.01
387.31	135.75
387.50	107.66
387.70	170.86
387.89	105.32
388.09	84.26
388.28	107.66
388.48	154.48
388.67	110.01
388.86	102.98
389.06	117.03
389.25	177.88
389.45	84.26
389.64	105.32
389.84	142.77
390.03	133.41
390.22	117.03
390.42	51.49
390.61	42.13
390.81	126.39
391.00	86.60
391.19	159.16
391.39	91.28
391.58	131.07
391.78	121.71
391.97	117.03
392.16	107.66
392.36	182.56
392.55	159.16
392.75	93.62
392.94	79.58
393.13	191.92
393.33	58.51
393.52	142.77
393.71	88.94
393.91	72.56
394.10	131.07
394.29	67.88
394.49	81.92
394.68	166.18
394.88	156.82
395.07	138.09
395.26	102.98
395.46	86.60
395.65	100.64
395.84	74.90
396.04	196.60
396.23	67.88
396.42	128.73
396.62	112.35
396.81	163.84
397.00	95.96
397.19	163.84
397.39	79.58
397.58	135.75
397.77	105.32
397.97	49.15
398.16	117.03
398.35	149.79
398.55	189.58
398.74	39.79
398.93	142.77
399.12	135.75
399.32	93.62
399.51	58.51
399.70	65.54
399.90	84.26
400.09	102.98
400.28	128.73
400.47	105.32
400.67	107.66
400.86	102.98
401.05	180.22
401.24	131.07
401.44	105.32
401.63	163.84
401.82	121.71
402.01	42.13
402.21	107.66
402.40	138.09
402.59	74.90
402.78	105.32
402.97	105.32
403.17	56.17
403.36	107.66
403.55	168.52
403.74	140.43
403.93	135.75
404.13	217.67
404.32	182.56
404.51	194.26
404.70	182.56
404.89	112.35
405.09	152.13
405.28	140.43
405.47	77.24
405.66	119.37
405.85	189.58
406.05	107.66
406.24	119.37
406.43	187.24
406.62	138.09
406.81	84.26
407.00	194.26
407.20	135.75
407.39	159.16
407.58	205.97
407.77	166.18
407.96	70.22
408.15	95.96
408.34	140.43
408.54	220.01
408.73	60.85
408.92	173.20
409.11	67.88
409.30	107.66
409.49	35.11
409.68	98.30
409.87	79.58
410.07	159.16
410.26	184.90
410.45	117.03
410.64	100.64
410.83	91.28
411.02	161.50
411.21	88.94
411.40	140.43
411.59	138.09
411.78	161.50
411.98	105.32
412.17	114.69
412.36	131.07
412.55	126.39
412.74	135.75
412.93	154.48
413.12	198.95
413.31	184.90
413.50	198.95
413.69	145.11
413.88	163.84
414.07	93.62
414.26	156.82
414.45	46.81
414.64	152.13
414.83	135.75
415.02	147.45
415.22	110.01
415.41	86.60
415.60	77.24
415.79	142.77
415.98	168.52
416.17	156.82
416.36	175.54
416.55	93.62
416.74	177.88
416.93	170.86
417.12	102.98
417.31	124.05
417.50	117.03
417.69	210.65
417.88	86.60
418.07	114.69
418.26	177.88
418.45	114.69
418.64	196.60
418.83	156.82
419.02	173.20
419.21	56.17
419.39	222.35
419.58	133.41
419.77	170.86
419.96	145.11
420.15	180.22
420.34	107.66
420.53	142.77
420.72	161.50
420.91	128.73
421.10	152.13
421.29	88.94
421.48	163.84
421.67	126.39
421.86	95.96
422.05	145.11
422.24	138.09
422.43	67.88
422.61	170.86
422.80	166.18
422.99	117.03
423.18	49.15
423.37	156.82
423.56	173.20
423.75	182.56
423.94	135.75
424.13	114.69
424.32	124.05
424.50	163.84
424.69	168.52
424.88	191.92
425.07	98.30
425.26	119.37
425.45	189.58
425.64	124.05
425.83	131.07
426.01	124.05
426.20	180.22
426.39	46.81
426.58	194.26
426.77	149.79
426.96	175.54
427.15	110.01
427.33	112.35
427.52	133.41
427.71	110.01
427.90	114.69
428.09	121.71
428.28	58.51
428.46	201.29
428.65	91.28
428.84	105.32
429.03	138.09
429.22	77.24
429.40	145.11
429.59	222.35
429.78	159.16
429.97	154.48
430.16	156.82
430.34	147.45
430.53	86.60
430.72	161.50
430.91	145.11
431.10	152.13
431.28	102.98
431.47	105.32
431.66	126.39
431.85	121.71
432.03	133.41
432.22	161.50
432.41	147.45
432.60	163.84
432.79	173.20
432.97	159.16
433.16	161.50
433.35	91.28
433.54	117.03
433.72	168.52
433.91	180.22
434.10	133.41
434.28	201.29
434.47	196.60
434.66	126.39
434.85	203.63
435.03	255.12
435.22	512.58
435.41	1006.43
435.59	922.17
435.78	720.88
435.97	414.27
436.16	264.48
436.34	182.56
436.53	128.73
436.72	210.65
436.90	175.54
437.09	142.77
437.28	184.90
437.46	152.13
437.65	77.24
437.84	131.07
438.02	175.54
438.21	147.45
438.40	105.32
438.58	119.37
438.77	159.16
438.96	152.13
439.14	182.56
439.33	217.67
439.52	93.62
439.70	170.86
439.89	163.84
440.08	175.54
440.26	112.35
440.45	201.29
440.63	149.79
440.82	161.50
441.01	91.28
441.19	184.90
441.38	182.56
441.57	170.86
441.75	299.59
441.94	159.16
442.12	231.71
442.31	147.45
442.50	201.29
442.68	135.75
442.87	224.69
443.05	100.64
443.24	135.75
443.43	191.92
443.61	215.33
443.80	128.73
443.98	81.92
444.17	182.56
444.35	154.48
444.54	133.41
444.73	133.41
444.91	173.20
445.10	189.58
445.28	117.03
445.47	93.62
445.65	114.69
445.84	126.39
446.02	107.66
446.21	201.29
446.39	112.35
446.58	152.13
446.77	119.37
446.95	163.84
447.14	149.79
447.32	182.56
447.51	119.37
447.69	119.37
447.88	119.37
448.06	224.69
448.25	182.56
448.43	138.09
448.62	114.69
448.80	182.56
448.99	215.33
449.17	191.92
449.36	156.82
449.54	210.65
449.73	168.52
449.91	182.56
450.10	145.11
450.28	210.65
450.46	220.01
450.65	187.24
450.83	145.11
451.02	112.35
451.20	161.50
451.39	168.52
451.57	205.97
451.76	175.54
451.94	124.05
452.13	203.63
452.31	215.33
452.49	212.99
452.68	194.26
452.86	168.52
453.05	224.69
453.23	152.13
453.42	119.37
453.60	241.08
453.78	142.77
453.97	187.24
454.15	224.69
454.34	175.54
454.52	224.69
454.70	231.71
454.89	154.48
455.07	102.98
455.26	180.22
455.44	182.56
455.62	175.54
455.81	142.77
455.99	180.22
456.17	208.31
456.36	110.01
456.54	159.16
456.73	168.52
456.91	203.63
457.09	88.94
457.28	156.82
457.46	259.80
457.64	152.13
457.83	128.73
458.01	269.16
458.19	196.60
458.38	145.11
458.56	152.13
458.74	135.75
458.93	163.84
459.11	138.09
459.29	124.05
459.48	222.35
459.66	175.54
459.84	201.29
460.03	241.08
460.21	217.67
460.39	180.22
460.57	257.46
460.76	212.99
460.94	154.48
461.12	285.55
461.31	222.35
461.49	142.77
461.67	196.60
461.85	131.07
462.04	105.32
462.22	334.70
462.40	224.69
462.59	201.29
462.77	205.97
462.95	159.16
463.13	114.69
463.32	161.50
463.50	182.56
463.68	182.56
463.86	191.92
464.05	198.95
464.23	208.31
464.41	196.60
464.59	121.71
464.78	175.54
464.96	124.05
465.14	170.86
465.32	100.64
465.50	184.90
465.69	175.54
465.87	201.29
466.05	224.69
466.23	140.43
466.41	166.18
466.60	175.54
466.78	175.54
466.96	205.97
467.14	191.92
467.32	238.73
467.51	102.98
467.69	208.31
467.87	224.69
468.05	189.58
468.23	203.63
468.41	273.84
468.60	93.62
468.78	191.92
468.96	238.73
469.14	182.56
469.32	117.03
469.50	156.82
469.69	163.84
469.87	154.48
470.05	198.95
470.23	142.77
470.41	110.01
470.59	154.48
470.77	180.22
470.95	161.50
471.14	168.52
471.32	175.54
471.50	145.11
471.68	145.11
471.86	175.54
472.04	149.79
472.22	234.05
472.40	124.05
472.58	175.54
472.77	138.09
472.95	112.35
473.13	234.05
473.31	182.56
473.49	161.50
473.67	133.41
473.85	126.39
474.03	163.84
474.21	173.20
474.39	250.44
474.57	248.10
474.75	257.46
474.93	222.35
475.12	231.71
475.30	205.97
475.48	177.88
475.66	166.18
475.84	161.50
476.02	107.66
476.20	245.76
476.38	175.54
476.56	245.76
476.74	168.52
476.92	119.37
477.10	241.08
477.28	198.95
477.46	166.18
477.64	191.92
477.82	117.03
478.00	201.29
478.18	173.20
478.36	140.43
478.54	170.86
478.72	145.11
478.90	191.92
479.08	166.18
479.26	191.92
479.44	177.88
479.62	177.88
479.80	212.99
479.98	170.86
480.16	114.69
480.34	152.13
480.52	245.76
480.70	170.86
480.88	241.08
481.06	220.01
481.24	292.57
481.41	217.67
481.59	292.57
481.77	210.65
481.95	138.09
482.13	294.91
482.31	222.35
482.49	276.18
482.67	292.57
482.85	210.65
483.03	208.31
483.21	243.42
483.39	250.44
483.57	205.97
483.74	273.84
483.92	222.35
484.10	255.12
484.28	271.50
484.46	248.10
484.64	266.82
484.82	210.65
485.00	271.50
485.18	304.27
485.35	315.97
485.53	262.14
485.71	311.29
485.89	201.29
486.07	322.99
486.25	355.76
486.43	262.14
486.61	276.18
486.78	301.93
486.96	278.52
487.14	264.48
487.32	264.48
487.50	304.27
487.68	358.10
487.85	290.23
488.03	283.20
488.21	313.63
488.39	271.50
488.57	334.70
488.75	241.08
488.92	540.66
489.10	278.52
489.28	344.06
489.46	304.27
489.64	276.18
489.81	245.76
489.99	285.55
490.17	301.93
490.35	292.57
490.53	294.91
490.70	248.10
490.88	430.66
491.06	262.14
491.24	322.99
491.41	315.97
491.59	311.29
491.77	212.99
491.95	248.10
492.13	351.08
492.30	241.08
492.48	264.48
492.66	234.05
492.84	322.99
493.01	402.57
493.19	238.73
493.37	273.84
493.54	271.50
493.72	257.46
493.90	257.46
494.08	262.14
494.25	245.76
494.43	252.78
494.61	280.86
494.79	257.46
494.96	173.20
495.14	311.29
495.32	238.73
495.49	227.03
495.67	208.31
495.85	262.14
496.02	210.65
496.20	201.29
496.38	285.55
496.55	315.97
496.73	264.48
496.91	278.52
497.09	241.08
497.26	212.99
497.44	257.46
497.62	227.03
497.79	201.29
497.97	264.48
498.14	203.63
498.32	154.48
498.50	294.91
498.67	210.65
498.85	250.44
499.03	287.89
499.20	280.86
499.38	250.44
499.56	276.18
499.73	308.95
499.91	234.05
500.08	236.39
500.26	222.35
500.44	191.92
500.61	238.73
500.79	184.90
500.97	297.25
501.14	280.86
501.32	285.55
501.49	234.05
501.67	173.20
501.84	259.80
502.02	203.63
502.20	283.20
502.37	241.08
502.55	269.16
502.72	210.65
502.90	205.97
503.07	245.76
503.25	318.31
503.43	285.55
503.60	220.01
503.78	280.86
503.95	259.80
504.13	210.65
504.30	238.73
504.48	196.60
504.65	344.06
504.83	224.69
505.01	245.76
505.18	266.82
505.36	229.37
505.53	255.12
505.71	304.27
505.88	318.31
506.06	266.82
506.23	208.31
506.41	266.82
506.58	222.35
506.76	168.52
506.93	264.48
507.11	283.20
507.28	234.05
507.46	227.03
507.63	245.76
507.81	250.44
507.98	243.42
508.16	191.92
508.33	205.97
508.50	182.56
508.68	243.42
508.85	203.63
509.03	252.78
509.20	215.33
509.38	241.08
509.55	220.01
509.73	180.22
509.90	264.48
510.08	241.08
510.25	292.57
510.42	210.65
510.60	175.54
510.77	290.23
510.95	252.78
511.12	292.57
511.30	301.93
511.47	271.50
511.64	306.61
511.82	196.60
511.99	257.46
512.17	227.03
512.34	203.63
512.51	250.44
512.69	212.99
512.86	311.29
513.04	205.97
513.21	304.27
513.38	224.69
513.56	266.82
513.73	154.48
513.90	187.24
514.08	187.24
514.25	196.60
514.43	271.50
514.60	196.60
514.77	294.91
514.95	294.91
515.12	283.20
515.29	271.50
515.47	203.63
515.64	203.63
515.81	243.42
515.99	280.86
516.16	236.39
516.33	210.65
516.51	236.39
516.68	147.45
516.85	208.31
517.03	205.97
517.20	278.52
517.37	205.97
517.54	243.42
517.72	311.29
517.89	210.65
518.06	248.10
518.24	241.08
518.41	222.35
518.58	203.63
518.75	201.29
518.93	156.82
519.10	189.58
519.27	250.44
519.45	280.86
519.62	238.73
519.79	280.86
519.96	231.71
520.14	262.14
520.31	234.05
520.48	234.05
520.65	229.37
520.83	252.78
521.00	259.80
521.17	170.86
521.34	201.29
521.52	273.84
521.69	222.35
521.86	245.76
522.03	259.80
522.20	344.06
522.38	278.52
522.55	220.01
522.72	210.65
522.89	257.46
523.07	318.31
523.24	243.42
523.41	238.73
523.58	234.05
523.75	285.55
523.92	266.82
524.10	248.10
524.27	278.52
524.44	278.52
524.61	287.89
524.78	283.20
524.96	278.52
525.13	278.52
525.30	271.50
525.47	222.35
525.64	262.14
525.81	234.05
525.98	287.89
526.16	299.59
526.33	245.76
526.50	250.44
526.67	250.44
526.84	236.39
527.01	205.97
527.18	266.82
527.36	234.05
527.53	252.78
527.70	278.52
527.87	264.48
528.04	325.33
528.21	224.69
528.38	264.48
528.55	238.73
528.72	292.57
528.89	266.82
529.07	212.99
529.24	236.39
529.41	287.89
529.58	229.37
529.75	269.16
529.92	255.12
530.09	248.10
530.26	222.35
530.43	330.02
530.60	257.46
530.77	269.16
530.94	292.57
531.11	337.04
531.28	236.39
531.46	266.82
531.63	292.57
531.80	304.27
531.97	269.16
532.14	187.24
532.31	241.08
532.48	243.42
532.65	269.16
532.82	276.18
532.99	243.42
533.16	262.14
533.33	283.20
533.50	313.63
533.67	259.80
533.84	266.82
534.01	257.46
534.18	297.25
534.35	273.84
534.52	229.37
534.69	351.08
534.86	294.91
535.03	365.12
535.20	278.52
535.37	337.04
535.54	304.27
535.71	236.39
535.88	332.36
536.05	330.02
536.22	280.86
536.38	292.57
536.55	353.42
536.72	386.19
536.89	238.73
537.06	315.97
537.23	292.57
537.40	297.25
537.57	365.12
537.74	374.49
537.91	306.61
538.08	379.17
538.25	395.55
538.42	376.83
538.59	512.58
538.75	383.85
538.92	500.87
539.09	454.06
539.26	498.53
539.43	430.66
539.60	437.68
539.77	634.29
539.94	589.82
540.11	615.56
540.28	641.31
540.44	634.29
540.61	777.06
540.78	688.12
540.95	835.57
541.12	1022.81
541.29	1088.35
541.46	1165.59
541.62	1210.06
541.79	1048.56
541.96	1214.74
542.13	1043.88
542.30	1163.25
542.47	1076.65
542.63	1048.56
542.80	961.96
542.97	1034.52
543.14	1053.24
543.31	987.71
543.48	994.73
543.64	1111.75
543.81	1083.67
543.98	1055.58
544.15	964.30
544.32	997.07
544.48	1071.97
544.65	1053.24
544.82	971.32
544.99	954.94
545.16	1011.11
545.32	1006.43
545.49	1495.60
545.66	2237.55
545.83	2839.07
546.00	2361.60
546.16	1692.21
546.33	1310.70
546.50	1123.46
546.67	791.10
546.83	755.99
547.00	791.10
547.17	716.20
547.34	669.39
547.50	685.78
547.67	667.05
547.84	636.63
548.00	713.86
548.17	603.86
548.34	634.29
548.51	655.35
548.67	671.73
548.84	645.99
549.01	587.47
549.18	615.56
549.34	545.34
549.51	594.50
549.68	528.96
549.84	538.32
550.01	505.56
550.18	594.50
550.34	538.32
550.51	454.06
550.68	580.45
550.84	386.19
551.01	451.72
551.18	458.74
551.34	379.17
551.51	409.59
551.68	461.09
551.84	463.43
552.01	449.38
552.18	435.34
552.34	458.74
552.51	425.98
552.68	425.98
552.84	444.70
553.01	362.78
553.18	409.59
553.34	306.61
553.51	348.74
553.67	395.55
553.84	418.96
554.01	271.50
554.17	332.36
554.34	175.54
554.51	334.70
554.67	353.42
554.84	308.95
555.00	330.02
555.17	332.36
555.33	304.27
555.50	255.12
555.67	322.99
555.83	292.57
556.00	273.84
556.16	444.70
556.33	290.23
556.50	285.55
556.66	196.60
556.83	220.01
556.99	330.02
557.16	325.33
557.32	203.63
557.49	332.36
557.65	287.89
557.82	140.43
557.98	266.82
558.15	248.10
558.32	283.20
558.48	184.90
558.65	243.42
558.81	313.63
558.98	175.54
559.14	290.23
559.31	212.99
559.47	299.59
559.64	304.27
559.80	231.71
559.97	280.86
560.13	241.08
560.30	315.97
560.46	292.57
560.63	191.92
560.79	208.31
560.96	259.80
561.12	238.73
561.29	285.55
561.45	212.99
561.61	315.97
561.78	337.04
561.94	269.16
562.11	280.86
562.27	234.05
562.44	271.50
562.60	287.89
562.77	238.73
562.93	358.10
563.10	252.78
563.26	290.23
563.42	264.48
563.59	166.18
563.75	196.60
563.92	287.89
564.08	210.65
564.24	196.60
564.41	236.39
564.57	234.05
564.74	168.52
564.90	245.76
565.07	280.86
565.23	299.59
565.39	255.12
565.56	175.54
565.72	220.01
565.88	320.65
566.05	227.03
566.21	262.14
566.38	231.71
566.54	276.18
566.70	224.69
566.87	182.56
567.03	182.56
567.19	294.91
567.36	220.01
567.52	313.63
567.68	262.14
567.85	215.33
568.01	217.67
568.17	243.42
568.34	238.73
568.50	215.33
568.66	224.69
568.83	297.25
568.99	229.37
569.15	248.10
569.32	330.02
569.48	238.73
569.64	217.67
569.81	259.80
569.97	220.01
570.13	222.35
570.30	224.69
570.46	257.46
570.62	191.92
570.78	205.97
570.95	248.10
571.11	273.84
571.27	243.42
571.43	257.46
571.60	280.86
571.76	264.48
571.92	196.60
572.09	154.48
572.25	241.08
572.41	217.67
572.57	252.78
572.74	337.04
572.90	269.16
573.06	273.84
573.22	259.80
573.38	306.61
573.55	264.48
573.71	243.42
573.87	414.27
574.03	203.63
574.20	330.02
574.36	222.35
574.52	210.65
574.68	250.44
574.84	203.63
575.01	224.69
575.17	245.76
575.33	227.03
575.49	266.82
575.65	189.58
575.82	184.90
575.98	402.57
576.14	264.48
576.30	341.72
576.46	425.98
576.62	624.92
576.79	676.41
576.95	545.34
577.11	416.62
577.27	358.10
577.43	313.63
577.59	271.50
577.75	332.36
577.92	273.84
578.08	238.73
578.24	241.08
578.40	287.89
578.56	514.92
578.72	669.39
578.88	643.65
579.04	533.64
579.21	479.81
579.37	416.62
579.53	271.50
579.69	400.23
579.85	360.44
580.01	454.06
580.17	379.17
580.33	379.17
580.49	355.76
580.65	355.76
580.82	367.46
580.98	374.49
581.14	294.91
581.30	330.02
581.46	332.36
581.62	376.83
581.78	313.63
581.94	383.85
582.10	367.46
582.26	428.32
582.42	402.57
582.58	367.46
582.74	365.12
582.90	386.19
583.06	423.64
583.22	421.30
583.38	402.57
583.54	358.10
583.70	404.91
583.86	449.38
584.02	393.21
584.18	346.40
584.34	383.85
584.50	423.64
584.66	367.46
584.82	365.12
584.98	407.25
585.14	365.12
585.30	390.87
585.46	423.64
585.62	372.15
585.78	353.42
585.94	451.72
586.10	315.97
586.26	433.00
586.42	465.77
586.58	428.32
586.74	491.51
586.90	561.73
587.06	599.18
587.22	564.07
587.38	493.85
587.54	465.77
587.70	521.94
587.86	332.36
588.02	397.89
588.18	381.51
588.34	376.83
588.49	334.70
588.65	276.18
588.81	322.99
588.97	353.42
589.13	290.23
589.29	311.29
589.45	348.74
589.61	360.44
589.77	402.57
589.93	320.65
590.08	313.63
590.24	367.46
590.40	318.31
590.56	325.33
590.72	332.36
590.88	351.08
591.04	299.59
591.20	344.06
591.35	369.80
591.51	355.76
591.67	325.33
591.83	311.29
591.99	400.23
592.15	404.91
592.31	402.57
592.46	351.08
592.62	390.87
592.78	334.70
592.94	451.72
593.10	414.27
593.26	449.38
593.41	447.04
593.57	339.38
593.73	322.99
593.89	365.12
594.05	353.42
594.20	304.27
594.36	353.42
594.52	248.10
594.68	259.80
594.84	346.40
594.99	360.44
595.15	278.52
595.31	311.29
595.47	278.52
595.62	297.25
595.78	271.50
595.94	360.44
596.10	337.04
596.25	358.10
596.41	313.63
596.57	234.05
596.73	210.65
596.88	266.82
597.04	264.48
597.20	280.86
597.36	332.36
597.51	299.59
597.67	320.65
597.83	259.80
597.99	381.51
598.14	346.40
598.30	369.80
598.46	315.97
598.61	465.77
598.77	388.53
598.93	341.72
599.09	379.17
599.24	318.31
599.40	346.40
599.56	297.25
599.71	360.44
599.87	344.06
600.03	320.65
600.18	306.61
600.34	290.23
600.50	266.82
600.65	266.82
600.81	276.18
600.97	287.89
601.12	346.40
601.28	365.12
601.44	201.29
601.59	325.33
601.75	252.78
601.91	292.57
602.06	330.02
602.22	355.76
602.37	170.86
602.53	259.80
602.69	318.31
602.84	234.05
603.00	294.91
603.16	241.08
603.31	264.48
603.47	262.14
603.62	245.76
603.78	287.89
603.94	264.48
604.09	304.27
604.25	229.37
604.40	308.95
604.56	222.35
604.71	208.31
604.87	234.05
605.03	322.99
605.18	327.68
605.34	308.95
605.49	238.73
605.65	243.42
605.80	220.01
605.96	304.27
606.12	355.76
606.27	318.31
606.43	330.02
606.58	344.06
606.74	315.97
606.89	245.76
607.05	315.97
607.20	418.96
607.36	327.68
607.51	299.59
607.67	360.44
607.82	388.53
607.98	425.98
608.13	299.59
608.29	362.78
608.44	400.23
608.60	421.30
608.75	402.57
608.91	458.74
609.06	411.93
609.22	414.27
609.37	566.41
609.53	557.05
609.68	645.99
609.84	695.14
609.99	748.97
610.15	870.68
610.30	1088.35
610.46	1310.70
610.61	1629.01
610.76	1900.52
610.92	2225.85
611.07	2497.35
611.23	2534.80
611.38	2429.48
611.54	2047.97
611.69	1952.01
611.84	1647.74
612.00	1329.42
612.15	1107.07
612.31	1020.47
612.46	903.45
612.62	809.83
612.77	851.96
612.92	833.23
613.08	880.04
613.23	802.80
613.39	671.73
613.54	723.23
613.69	730.25
613.85	723.23
614.00	702.16
614.15	737.27
614.31	704.50
614.46	755.99
614.62	634.29
614.77	699.82
614.92	559.39
615.08	681.10
615.23	596.84
615.38	554.71
615.54	552.37
615.69	482.15
615.84	395.55
616.00	430.66
616.15	440.02
616.30	428.32
616.46	433.00
616.61	400.23
616.76	437.68
616.92	428.32
617.07	346.40
617.22	379.17
617.37	346.40
617.53	374.49
617.68	306.61
617.83	334.70
617.99	362.78
618.14	315.97
618.29	358.10
618.45	393.21
618.60	297.25
618.75	308.95
618.90	313.63
619.06	283.20
619.21	344.06
619.36	344.06
619.51	320.65
619.67	418.96
619.82	306.61
619.97	358.10
620.12	327.68
620.28	358.10
620.43	355.76
620.58	365.12
620.73	287.89
620.89	301.93
621.04	353.42
621.19	360.44
621.34	320.65
621.49	276.18
621.65	418.96
621.80	346.40
621.95	337.04
622.10	358.10
622.25	322.99
622.41	332.36
622.56	332.36
622.71	325.33
622.86	278.52
623.01	299.59
623.16	362.78
623.32	374.49
623.47	369.80
623.62	437.68
623.77	376.83
623.92	353.42
624.07	252.78
624.23	262.14
624.38	301.93
624.53	327.68
624.68	369.80
624.83	353.42
624.98	301.93
625.13	301.93
625.29	283.20
625.44	353.42
625.59	442.36
625.74	374.49
625.89	362.78
626.04	224.69
626.19	222.35
626.34	259.80
626.49	304.27
626.65	271.50
626.80	280.86
626.95	248.10
627.10	299.59
627.25	365.12
627.40	322.99
627.55	292.57
627.70	280.86
627.85	344.06
628.00	304.27
628.15	222.35
628.30	278.52
628.45	276.18
628.60	212.99
628.76	280.86
628.91	255.12
629.06	301.93
629.21	212.99
629.36	351.08
629.51	339.38
629.66	334.70
629.81	308.95
629.96	320.65
630.11	383.85
630.26	416.62
630.41	430.66
630.56	383.85
630.71	468.11
630.86	390.87
631.01	418.96
631.16	386.19
631.31	435.34
631.46	386.19
631.61	404.91
631.76	400.23
631.91	287.89
632.06	365.12
632.21	290.23
632.36	292.57
632.51	194.26
632.66	229.37
632.81	290.23
632.96	236.39
633.10	231.71
633.25	301.93
633.40	234.05
633.55	224.69
633.70	236.39
633.85	194.26
634.00	203.63
634.15	212.99
634.30	306.61
634.45	273.84
634.60	222.35
634.75	257.46
634.90	238.73
635.05	189.58
635.19	180.22
635.34	154.48
635.49	203.63
635.64	147.45
635.79	201.29
635.94	191.92
636.09	271.50
636.24	259.80
636.39	210.65
636.53	208.31
636.68	220.01
636.83	217.67
636.98	154.48
637.13	215.33
637.28	203.63
637.43	156.82
637.57	166.18
637.72	224.69
637.87	180.22
638.02	217.67
638.17	191.92
638.32	205.97
638.46	215.33
638.61	266.82
638.76	184.90
638.91	166.18
639.06	138.09
639.20	203.63
639.35	170.86
639.50	177.88
639.65	269.16
639.80	196.60
639.94	152.13
640.09	234.05
640.24	271.50
640.39	189.58
640.54	231.71
640.68	152.13
640.83	243.42
640.98	140.43
641.13	212.99
641.27	278.52
641.42	177.88
641.57	287.89
641.72	250.44
641.86	154.48
642.01	201.29
642.16	187.24
642.31	163.84
642.45	231.71
642.60	248.10
642.75	229.37
642.90	229.37
643.04	156.82
643.19	126.39
643.34	184.90
643.48	159.16
643.63	175.54
643.78	203.63
643.93	231.71
644.07	208.31
644.22	177.88
644.37	231.71
644.51	194.26
644.66	220.01
644.81	238.73
644.95	205.97
645.10	105.32
645.25	170.86
645.39	210.65
645.54	203.63
645.69	210.65
645.83	184.90
645.98	301.93
646.13	128.73
646.27	196.60
646.42	212.99
646.57	215.33
646.71	208.31
646.86	236.39
647.00	238.73
647.15	175.54
647.30	273.84
647.44	142.77
647.59	135.75
647.74	161.50
647.88	180.22
648.03	173.20
648.17	119.37
648.32	128.73
648.47	95.96
648.61	156.82
648.76	156.82
648.90	212.99
649.05	191.92
649.20	117.03
649.34	161.50
649.49	152.13
649.63	156.82
649.78	215.33
649.92	149.79
650.07	241.08
650.21	191.92
650.36	245.76
650.51	212.99
650.65	224.69
650.80	166.18
650.94	194.26
651.09	243.42
651.23	208.31
651.38	180.22
651.52	203.63
651.67	124.05
651.81	201.29
651.96	170.86
652.10	248.10
652.25	229.37
652.39	231.71
652.54	191.92
652.68	208.31
652.83	196.60
652.97	203.63
653.12	128.73
653.26	166.18
653.41	198.95
653.55	187.24
653.70	128.73
653.84	189.58
653.99	161.50
654.13	100.64
654.27	212.99
654.42	198.95
654.56	142.77
654.71	159.16
654.85	212.99
655.00	152.13
655.14	191.92
655.29	133.41
655.43	203.63
655.57	203.63
655.72	201.29
655.86	159.16
656.01	140.43
656.15	180.22
656.30	173.20
656.44	177.88
656.58	163.84
656.73	290.23
656.87	145.11
657.01	154.48
657.16	173.20
657.30	227.03
657.45	241.08
657.59	241.08
657.73	304.27
657.88	149.79
658.02	243.42
658.16	227.03
658.31	166.18
658.45	173.20
658.60	56.17
658.74	187.24
658.88	205.97
659.03	145.11
659.17	154.48
659.31	173.20
659.46	163.84
659.60	149.79
659.74	208.31
659.89	170.86
660.03	131.07
660.17	227.03
660.32	189.58
660.46	215.33
660.60	184.90
660.74	205.97
660.89	173.20
661.03	140.43
661.17	84.26
661.32	191.92
661.46	182.56
661.60	135.75
661.74	163.84
661.89	196.60
662.03	231.71
662.17	205.97
662.31	262.14
662.46	161.50
662.60	194.26
662.74	208.31
662.88	238.73
663.03	170.86
663.17	121.71
663.31	189.58
663.45	152.13
663.60	205.97
663.74	114.69
663.88	215.33
664.02	166.18
664.17	166.18
664.31	234.05
664.45	189.58
664.59	224.69
664.73	182.56
664.88	149.79
665.02	154.48
665.16	180.22
665.30	222.35
665.44	198.95
665.59	180.22
665.73	163.84
665.87	156.82
666.01	163.84
666.15	184.90
666.29	205.97
666.44	210.65
666.58	184.90
666.72	154.48
666.86	149.79
667.00	198.95
667.14	191.92
667.28	142.77
667.43	203.63
667.57	201.29
667.71	124.05
667.85	166.18
667.99	147.45
668.13	112.35
668.27	217.67
668.41	175.54
668.56	189.58
668.70	203.63
668.84	180.22
668.98	154.48
669.12	168.52
669.26	147.45
669.40	196.60
669.54	93.62
669.68	105.32
669.82	117.03
669.96	124.05
670.10	131.07
670.25	196.60
670.39	135.75
670.53	168.52
670.67	168.52
670.81	184.90
670.95	159.16
671.09	194.26
671.23	187.24
671.37	177.88
671.51	142.77
671.65	149.79
671.79	98.30
671.93	156.82
672.07	257.46
672.21	142.77
672.35	100.64
672.49	126.39
672.63	168.52
672.77	140.43
672.91	189.58
673.05	194.26
673.19	175.54
673.33	147.45
673.47	224.69
673.61	205.97
673.75	161.50
673.89	194.26
674.03	175.54
674.17	161.50
674.31	198.95
674.45	140.43
674.59	177.88
674.73	74.90
674.87	182.56
675.01	187.24
675.15	198.95
675.29	212.99
675.43	163.84
675.56	203.63
675.70	189.58
675.84	191.92
675.98	173.20
676.12	91.28
676.26	177.88
676.40	180.22
676.54	198.95
676.68	23.41
676.82	149.79
676.96	212.99
677.10	105.32
677.23	107.66
677.37	161.50
677.51	84.26
677.65	140.43
677.79	145.11
677.93	114.69
678.07	180.22
678.21	138.09
678.34	81.92
678.48	119.37
678.62	271.50
678.76	145.11
678.90	177.88
679.04	126.39
679.18	189.58
679.31	126.39
679.45	121.71
679.59	210.65
679.73	170.86
679.87	166.18
680.00	142.77
680.14	229.37
680.28	227.03
680.42	159.16
680.56	170.86
680.70	138.09
680.83	180.22
680.97	133.41
681.11	212.99
681.25	177.88
681.39	142.77
681.52	220.01
681.66	191.92
681.80	168.52
681.94	133.41
682.07	124.05
682.21	135.75
682.35	166.18
682.49	81.92
682.62	145.11
682.76	98.30
682.90	145.11
683.04	142.77
683.17	138.09
683.31	79.58
683.45	203.63
683.59	203.63
683.72	170.86
683.86	32.77
684.00	107.66
684.13	224.69
684.27	145.11
684.41	140.43
684.55	156.82
684.68	187.24
684.82	102.98
684.96	124.05
685.09	159.16
685.23	128.73
685.37	182.56
685.50	182.56
685.64	170.86
685.78	117.03
685.91	208.31
686.05	201.29
686.19	154.48
686.32	161.50
686.46	131.07
686.60	110.01
686.73	259.80
686.87	128.73
687.01	65.54
687.14	133.41
687.28	170.86
687.42	196.60
687.55	175.54
687.69	217.67
687.82	145.11
687.96	79.58
688.10	177.88
688.23	203.63
688.37	198.95
688.50	156.82
688.64	191.92
688.78	74.90
688.91	93.62
689.05	70.22
689.18	95.96
689.32	93.62
689.46	98.30
689.59	191.92
689.73	201.29
689.86	131.07
690.00	121.71
690.13	142.77
690.27	156.82
690.41	215.33
690.54	138.09
690.68	107.66
690.81	126.39
690.95	147.45
691.08	107.66
691.22	147.45
691.35	159.16
691.49	112.35
691.62	119.37
691.76	63.19
691.89	107.66
692.03	131.07
692.16	128.73
692.30	152.13
692.43	180.22
692.57	177.88
692.70	128.73
692.84	168.52
692.97	39.79
693.11	86.60
693.24	133.41
693.38	100.64
693.51	161.50
693.65	177.88
693.78	201.29
693.92	114.69
694.05	135.75
694.19	166.18
694.32	142.77
694.45	72.56
694.59	152.13
694.72	166.18
694.86	154.48
694.99	145.11
695.13	102.98
695.26	128.73
695.39	88.94
695.53	110.01
695.66	110.01
695.80	161.50
695.93	67.88
696.07	161.50
696.20	177.88
696.33	74.90
696.47	84.26
696.60	159.16
696.73	84.26
696.87	140.43
697.00	114.69
697.14	212.99
697.27	117.03
697.40	205.97
697.54	110.01
697.67	173.20
697.80	72.56
697.94	212.99
698.07	70.22
698.21	119.37
698.34	212.99
698.47	114.69
698.61	126.39
698.74	39.79
698.87	133.41
699.01	142.77
699.14	175.54
699.27	131.07
699.40	238.73
699.54	95.96
699.67	189.58
699.80	88.94
699.94	140.43
700.07	112.35
700.20	128.73
700.34	166.18
700.47	133.41
700.60	138.09
700.73	63.19
700.87	107.66
701.00	126.39
701.13	173.20
701.26	58.51
701.40	126.39
701.53	159.16
701.66	105.32
701.79	159.16
701.93	110.01
702.06	107.66
702.19	105.32
702.32	107.66
702.46	180.22
702.59	112.35
702.72	131.07
702.85	121.71
702.99	117.03
703.12	135.75
703.25	77.24
703.38	142.77
703.51	135.75
703.65	46.81
703.78	77.24
703.91	121.71
704.04	154.48
704.17	140.43
704.31	140.43
704.44	102.98
704.57	100.64
704.70	145.11
704.83	95.96
704.96	112.35
705.10	168.52
705.23	121.71
>>>>>End Processed Spectral Data<<<<<
