SpectraSuite Data File
++++++++++++++++++++++++++++++++++++
Date: Fri Oct 04 11:44:18 GMT-05:00 2013
User: price-jones
Dark Spectrum Present: No
Reference Spectrum Present: No
Number of Sampled Component Spectra: 1
Spectrometers: USB2+H05261
Integration Time (usec): 100000 (USB2+H05261)
Spectra Averaged: 1 (USB2+H05261)
Boxcar Smoothing: 0 (USB2+H05261)
Correct for Electrical Dark: No (USB2+H05261)
Strobe/Lamp Enabled: No (USB2+H05261)
Correct for Detector Non-linearity: No (USB2+H05261)
Correct for Stray Light: No (USB2+H05261)
Number of Pixels in Processed Spectrum: 2048
>>>>>Begin Processed Spectral Data<<<<<
365.73	0.00
365.92	0.00
366.12	0.00
366.32	0.00
366.52	0.00
366.72	0.00
366.91	0.00
367.11	0.00
367.31	0.00
367.51	0.00
367.70	0.00
367.90	0.00
368.10	0.00
368.30	0.00
368.49	0.00
368.69	0.00
368.89	0.00
369.09	0.00
369.28	0.00
369.48	0.00
369.68	0.00
369.87	0.00
370.07	105.32
370.27	72.56
370.47	102.98
370.66	425.98
370.86	531.30
371.06	533.64
371.25	601.52
371.45	533.64
371.65	533.64
371.84	437.68
372.04	477.47
372.24	547.69
372.44	561.73
372.63	624.92
372.83	627.26
373.03	491.51
373.22	449.38
373.42	510.24
373.62	540.66
373.81	617.90
374.01	592.16
374.21	587.47
374.40	430.66
374.60	533.64
374.79	601.52
374.99	688.12
375.19	599.18
375.38	662.37
375.58	624.92
375.78	681.10
375.97	636.63
376.17	676.41
376.37	624.92
376.56	695.14
376.76	744.29
376.95	720.88
377.15	676.41
377.35	770.04
377.54	781.74
377.74	779.40
377.93	861.32
378.13	767.70
378.33	802.80
378.52	697.48
378.72	634.29
378.91	678.76
379.11	681.10
379.31	603.86
379.50	517.26
379.70	730.25
379.89	765.36
380.09	770.04
380.28	763.01
380.48	814.51
380.68	793.44
380.87	660.03
381.07	629.60
381.26	688.12
381.46	671.73
381.65	608.54
381.85	566.41
382.04	547.69
382.24	477.47
382.43	568.75
382.63	538.32
382.83	407.25
383.02	564.07
383.22	599.18
383.41	561.73
383.61	543.00
383.80	629.60
384.00	711.52
384.19	777.06
384.39	774.72
384.58	751.31
384.78	791.10
384.97	751.31
385.17	709.18
385.36	617.90
385.56	727.91
385.75	641.31
385.95	802.80
386.14	770.04
386.34	765.36
386.53	779.40
386.72	746.63
386.92	807.48
387.11	753.65
387.31	732.59
387.50	784.08
387.70	671.73
387.89	779.40
388.09	807.48
388.28	777.06
388.48	763.01
388.67	870.68
388.86	947.92
389.06	1001.75
389.25	1025.15
389.45	1015.79
389.64	964.30
389.84	983.02
390.03	903.45
390.22	940.90
390.42	1011.11
390.61	1069.62
390.81	1142.18
391.00	1200.69
391.19	1196.01
391.39	1046.22
391.58	990.05
391.78	863.66
391.97	887.06
392.16	809.83
392.36	929.19
392.55	695.14
392.75	580.45
392.94	531.30
393.13	615.56
393.33	587.47
393.52	711.52
393.71	805.14
393.91	856.64
394.10	945.58
394.29	957.28
394.49	1048.56
394.68	1097.71
394.88	1167.93
395.07	1090.69
395.26	1191.33
395.46	1071.97
395.65	990.05
395.84	933.87
396.04	905.79
396.23	650.67
396.42	568.75
396.62	624.92
396.81	641.31
397.00	905.79
397.19	978.34
397.39	1226.44
397.58	1275.59
397.77	1294.32
397.97	1404.32
398.16	1390.28
398.35	1439.43
398.55	1523.69
398.74	1535.39
398.93	1444.11
399.12	1448.79
399.32	1542.41
399.51	1563.48
399.70	1582.20
399.90	1610.29
400.09	1598.59
400.28	1643.06
400.47	1469.86
400.67	1668.80
400.86	1612.63
401.05	1675.82
401.24	1685.19
401.44	1692.21
401.63	1657.10
401.82	1797.53
402.01	1710.93
402.21	1699.23
402.40	1785.83
402.59	1673.48
402.78	1579.86
402.97	1582.20
403.17	1612.63
403.36	1673.48
403.55	1696.89
403.74	1895.83
403.93	1708.59
404.13	1909.88
404.32	1909.88
404.51	1830.30
404.70	1973.07
404.89	1778.81
405.09	1750.72
405.28	1636.03
405.47	1544.75
405.66	1610.29
405.85	1727.32
406.05	1652.42
406.24	1596.25
406.43	1753.06
406.62	1764.76
406.81	1806.89
407.00	1717.95
407.20	1596.25
407.39	1741.36
407.58	1783.49
407.77	1778.81
407.96	1811.57
408.15	1863.07
408.34	1860.73
408.54	1944.99
408.73	1956.69
408.92	1884.13
409.11	1919.24
409.30	1746.04
409.49	1729.66
409.68	1701.57
409.87	1596.25
410.07	1629.01
410.26	1724.97
410.45	1736.68
410.64	1888.81
410.83	1947.33
411.02	1984.77
411.21	2029.24
411.40	2080.74
411.59	2106.48
411.78	2024.56
411.98	2054.99
412.17	2066.69
412.36	2001.16
412.55	2052.65
412.74	1881.79
412.93	2003.50
413.12	2045.63
413.31	2155.63
413.50	2204.78
413.69	2176.70
413.88	2104.14
414.07	2062.01
414.26	1970.73
414.45	2146.27
414.64	2078.40
414.83	2106.48
415.02	1994.14
415.22	2064.35
415.41	2104.14
415.60	2162.66
415.79	2256.28
415.98	2305.43
416.17	2279.68
416.36	2228.19
416.55	2190.74
416.74	2146.27
416.93	2043.29
417.12	2031.58
417.31	2207.13
417.50	2087.76
417.69	2258.62
417.88	2216.49
418.07	2129.89
418.26	2148.61
418.45	2111.16
418.64	2284.36
418.83	2300.75
419.02	2382.67
419.21	2293.72
419.39	2275.00
419.58	2174.36
419.77	2214.15
419.96	2169.68
420.15	2169.68
420.34	2296.07
420.53	2363.94
420.72	2509.05
420.91	2427.14
421.10	2303.09
421.29	2502.03
421.48	2352.24
421.67	2392.03
421.86	2284.36
422.05	2174.36
422.24	2047.97
422.43	2024.56
422.61	2155.63
422.80	2342.88
422.99	2286.70
423.18	2237.55
423.37	2204.78
423.56	2139.25
423.75	2235.21
423.94	2310.11
424.13	2225.85
424.32	2069.03
424.50	2277.34
424.69	2223.51
424.88	2228.19
425.07	2263.30
425.26	2174.36
425.45	2186.06
425.64	2001.16
425.83	2195.42
426.01	2328.83
426.20	2279.68
426.39	2186.06
426.58	2073.71
426.77	2050.31
426.96	1820.94
427.15	1905.20
427.33	2087.76
427.52	2101.80
427.71	2183.72
427.90	2141.59
428.09	2125.21
428.28	2073.71
428.46	2022.22
428.65	2092.44
428.84	2188.40
429.03	2174.36
429.22	1977.75
429.40	1813.92
429.59	1799.87
429.78	1619.65
429.97	1577.52
430.16	1633.69
430.34	1589.22
430.53	1509.65
430.72	1671.14
430.91	1891.15
431.10	2033.93
431.28	2356.92
431.47	2605.02
431.66	2544.16
431.85	2366.28
432.03	2225.85
432.22	2172.02
432.41	2153.29
432.60	2399.05
432.79	2410.75
432.97	2516.08
433.16	2544.16
433.35	2277.34
433.54	2143.93
433.72	2092.44
433.91	2012.86
434.10	2200.10
434.28	2303.09
434.47	2462.24
434.66	2462.24
434.85	2399.05
435.03	2579.27
435.22	3243.98
435.41	3983.59
435.59	4210.62
435.78	3562.30
435.97	3180.79
436.16	2775.88
436.34	2607.36
436.53	2654.17
436.72	2656.51
436.90	2478.63
437.09	2335.85
437.28	2450.54
437.46	2518.42
437.65	2539.48
437.84	2401.39
438.02	2258.62
438.21	2200.10
438.40	2291.38
438.58	2431.82
438.77	2492.67
438.96	2513.74
439.14	2544.16
439.33	2614.38
439.52	2764.17
439.70	2705.66
439.89	2612.04
440.08	2602.68
440.26	2525.44
440.45	2710.34
440.63	2878.86
440.82	2897.58
441.01	2743.11
441.19	2836.73
441.38	2899.92
441.57	3000.57
441.75	2944.39
441.94	3075.46
442.12	2862.48
442.31	2928.01
442.50	3038.02
442.68	2876.52
442.87	2782.90
443.05	2916.31
443.24	2925.67
443.43	2913.97
443.61	3073.12
443.80	2974.82
443.98	2942.05
444.17	2932.69
444.35	3038.02
444.54	2972.48
444.73	3075.46
444.91	3047.38
445.10	2874.18
445.28	2806.30
445.47	2693.96
445.65	2710.34
445.84	2827.37
446.02	2876.52
446.21	2890.56
446.39	2808.64
446.58	2949.08
446.77	3094.19
446.95	3002.91
447.14	3222.92
447.32	3272.07
447.51	3066.10
447.69	3084.83
447.88	2949.08
448.06	3052.06
448.25	3068.44
448.43	3075.46
448.62	3035.67
448.80	3047.38
448.99	3126.96
449.17	3061.42
449.36	3047.38
449.54	3070.78
449.73	3276.75
449.91	3208.87
450.10	3300.16
450.28	3358.67
450.46	3332.92
450.65	3290.79
450.83	3251.00
451.02	3159.72
451.20	3194.83
451.39	3138.66
451.57	3096.53
451.76	3136.32
451.94	3176.11
452.13	3103.55
452.31	2925.67
452.49	2827.37
452.68	2946.73
452.86	2860.13
453.05	2881.20
453.23	3108.23
453.42	3056.74
453.60	3098.87
453.78	3061.42
453.97	3108.23
454.15	3009.93
454.34	3047.38
454.52	3056.74
454.70	3066.10
454.89	2984.18
455.07	3075.46
455.26	3089.51
455.44	3178.45
455.62	3248.66
455.81	3346.97
455.99	3246.32
456.17	3258.03
456.36	3349.31
456.54	3372.71
456.73	3199.51
456.91	3325.90
457.09	3487.40
457.28	3480.38
457.46	3276.75
457.64	3290.79
457.83	3281.43
458.01	3162.06
458.19	3262.71
458.38	3272.07
458.56	3260.37
458.74	3361.01
458.93	3274.41
459.11	3300.16
459.29	3185.47
459.48	3136.32
459.66	3155.04
459.84	3248.66
460.03	3435.91
460.21	3431.23
460.39	3421.86
460.57	3487.40
460.76	3353.99
460.94	3485.06
461.12	3496.76
461.31	3344.63
461.49	3431.23
461.67	3353.99
461.85	3393.78
462.04	3578.68
462.22	3943.80
462.40	3552.93
462.59	3398.46
462.77	3414.84
462.95	3377.39
463.13	3349.31
463.32	3424.20
463.50	3309.52
463.68	3346.97
463.86	3393.78
464.05	3213.56
464.23	3220.58
464.41	3274.41
464.59	3290.79
464.78	3377.39
464.96	3370.37
465.14	3288.45
465.32	3400.80
465.50	3412.50
465.69	3377.39
465.87	3258.03
466.05	3353.99
466.23	3155.04
466.41	3166.74
466.60	3185.47
466.78	3239.30
466.96	3183.13
467.14	3398.46
467.32	3400.80
467.51	3332.92
467.69	3304.84
467.87	3269.73
468.05	3407.82
468.23	3318.88
468.41	3234.62
468.60	3337.60
468.78	3382.07
468.96	3243.98
469.14	3267.39
469.32	3377.39
469.50	3173.77
469.69	3293.13
469.87	3251.00
470.05	3222.92
470.23	3185.47
470.41	3171.43
470.59	3314.20
470.77	3449.95
470.95	3438.25
471.14	3405.48
471.32	3485.06
471.50	3620.81
471.68	3550.59
471.86	3487.40
472.04	3492.08
472.22	3581.02
472.40	3440.59
472.58	3370.37
472.77	3302.50
472.95	3400.80
473.13	3576.34
473.31	3353.99
473.49	3454.63
473.67	3730.81
473.85	3583.36
474.03	3445.27
474.21	3531.87
474.39	3751.88
474.57	3688.68
474.75	3630.17
474.93	3714.43
475.12	3602.08
475.30	3611.45
475.48	3550.59
475.66	3602.08
475.84	3632.51
476.02	3653.58
476.20	3468.67
476.38	3499.10
476.56	3749.54
476.74	3777.62
476.92	3868.91
477.10	3854.86
477.28	3925.08
477.46	3911.04
477.64	3957.85
477.82	3939.12
478.00	3859.54
478.18	3899.33
478.36	3772.94
478.54	3904.01
478.72	4058.49
478.90	4042.11
479.08	4105.30
479.26	4250.41
479.44	4037.42
479.62	4138.07
479.80	4245.73
479.98	4105.30
480.16	4262.12
480.34	4037.42
480.52	4252.75
480.70	4468.08
480.88	4238.71
481.06	4166.15
481.24	4156.79
481.41	4397.87
481.59	4493.83
481.77	4374.46
481.95	4381.48
482.13	4329.99
482.31	4447.02
482.49	4552.34
482.67	4486.81
482.85	4416.59
483.03	4674.05
483.21	4606.17
483.39	4578.09
483.57	4681.07
483.74	4484.47
483.92	4585.11
484.10	4512.55
484.28	4786.40
484.46	4858.95
484.64	4760.65
484.82	4589.79
485.00	4657.67
485.18	4777.03
485.35	4414.25
485.53	4011.68
485.71	3911.04
485.89	3847.84
486.07	3985.93
486.25	4269.14
486.43	4351.06
486.61	4568.73
486.78	4627.24
486.96	4573.41
487.14	4718.52
487.32	4802.78
487.50	4990.02
487.68	5095.35
487.85	5078.96
488.03	5235.78
488.21	5137.48
488.39	4870.65
488.57	4905.76
488.75	4835.55
488.92	5291.95
489.10	5392.59
489.28	5476.85
489.46	5605.58
489.64	5523.66
489.81	5795.17
489.99	5533.03
490.17	5556.43
490.35	5701.54
490.53	5565.79
490.70	5579.84
490.88	5439.40
491.06	5696.86
491.24	5619.63
491.41	5481.53
491.59	5263.86
491.77	5083.64
491.95	5310.68
492.13	5303.65
492.30	5631.33
492.48	5785.80
492.66	5865.38
492.84	5919.21
493.01	5717.93
493.19	5692.18
493.37	5746.02
493.54	5621.97
493.72	5816.23
493.90	5790.49
494.08	5959.00
494.25	6256.25
494.43	6174.33
494.61	6207.10
494.79	6134.54
494.96	6232.85
495.14	6108.80
495.32	5900.49
495.49	5837.30
495.67	6026.88
495.85	6094.76
496.02	6335.83
496.20	6181.35
496.38	6125.18
496.55	6146.25
496.73	6174.33
496.91	6410.73
497.09	6335.83
497.26	6399.02
497.44	6164.97
497.62	6237.53
497.79	6054.97
497.97	5729.63
498.14	5757.72
498.32	6141.57
498.50	6303.06
498.67	6342.85
498.85	6272.64
499.03	6375.62
499.20	6345.19
499.38	6319.45
499.56	6406.05
499.73	6258.59
499.91	6249.23
500.08	6176.67
500.26	5898.15
500.44	6160.29
500.61	6087.73
500.79	6015.18
500.97	5987.09
501.14	6066.67
501.32	5895.81
501.49	5872.40
501.67	5891.13
501.84	6031.56
502.02	6059.65
502.20	6113.48
502.37	6204.76
502.55	6073.69
502.72	6338.17
502.90	6209.44
503.07	6160.29
503.25	5968.37
503.43	5921.56
503.60	5678.14
503.78	5509.62
503.95	5605.58
504.13	5886.45
504.30	6169.65
504.48	6366.26
504.65	6193.06
504.83	6188.38
505.01	6424.77
505.18	6340.51
505.36	6497.33
505.53	6537.12
505.71	6682.23
505.88	6745.42
506.06	6469.24
506.23	6389.66
506.41	6216.46
506.58	6403.71
506.76	6347.53
506.93	6305.40
507.11	6125.18
507.28	6239.87
507.46	5994.11
507.63	6188.38
507.81	6059.65
507.98	6026.88
508.16	6272.64
508.33	6473.92
508.50	6485.62
508.68	6794.58
508.85	6794.58
509.03	6780.53
509.20	6698.61
509.38	6497.33
509.55	6338.17
509.73	6242.21
509.90	6480.94
510.08	6649.46
510.25	6583.93
510.42	6555.84
510.60	6429.45
510.77	6497.33
510.95	6834.36
511.12	6593.29
511.30	6794.58
511.47	6906.92
511.64	7066.08
511.82	6726.70
511.99	6527.75
512.17	6452.86
512.34	6534.78
512.51	6363.92
512.69	6506.69
512.86	6436.47
513.04	6679.89
513.21	6525.41
513.38	6534.78
513.56	6492.65
513.73	6377.96
513.90	6291.36
514.08	6314.77
514.25	6298.38
514.43	6527.75
514.60	6455.20
514.77	6586.27
514.95	6654.14
515.12	6628.40
515.29	6609.67
515.47	6731.38
515.64	7012.24
515.81	6609.67
515.99	6509.03
516.16	6043.26
516.33	5940.28
516.51	5556.43
516.68	5509.62
516.85	5343.44
517.03	5448.77
517.20	5769.42
517.37	6366.26
517.54	6392.00
517.72	6579.25
517.89	5987.09
518.06	5479.19
518.24	5720.27
518.41	6118.16
518.58	6225.82
518.75	6300.72
518.93	6312.42
519.10	6265.61
519.27	6473.92
519.45	6445.84
519.62	6532.44
519.79	6766.49
519.96	6663.51
520.14	6562.86
520.31	6408.39
520.48	6359.24
520.65	6349.87
520.83	6684.57
521.00	6782.87
521.17	6539.46
521.34	6684.57
521.52	6616.69
521.69	6871.81
521.86	6927.99
522.03	6965.43
522.20	6579.25
522.38	6284.34
522.55	6326.47
522.72	6436.47
522.89	6516.05
523.07	6445.84
523.24	6700.95
523.41	6672.87
523.58	6904.58
523.75	6841.39
523.92	6857.77
524.10	6979.48
524.27	7077.78
524.44	6759.47
524.61	6799.26
524.78	6712.66
524.96	6839.05
525.13	6843.73
525.30	6967.77
525.47	6832.02
525.64	6808.62
525.81	6855.43
525.98	6628.40
526.16	6001.13
526.33	5942.62
526.50	5909.85
526.67	5757.72
526.84	6052.63
527.01	6094.76
527.18	6431.79
527.36	6483.28
527.53	6534.78
527.70	6897.56
527.87	6586.27
528.04	6616.69
528.21	6661.16
528.38	6895.22
528.55	7087.14
528.72	7173.74
528.89	7073.10
529.07	6927.99
529.24	6909.26
529.41	6686.91
529.58	6541.80
529.75	6670.53
529.92	6614.35
530.09	6724.36
530.26	7075.44
530.43	7070.76
530.60	7021.61
530.77	7117.57
530.94	7183.10
531.11	6974.80
531.28	6904.58
531.46	6960.75
531.63	6803.94
531.80	6916.28
531.97	6803.94
532.14	6562.86
532.31	6363.92
532.48	6164.97
532.65	6122.84
532.82	6389.66
532.99	6595.63
533.16	6677.55
533.33	6963.09
533.50	6892.88
533.67	6867.13
533.84	6509.03
534.01	6747.76
534.18	6581.59
534.35	6724.36
534.52	6572.22
534.69	6862.45
534.86	6768.83
535.03	6904.58
535.20	6853.09
535.37	7136.29
535.54	7063.74
535.71	7047.35
535.88	6946.71
536.05	6717.34
536.22	6747.76
536.38	6710.32
536.55	6663.51
536.72	6658.82
536.89	6480.94
537.06	6647.12
537.23	6829.68
537.40	7080.12
537.57	7019.27
537.74	6923.30
537.91	7014.59
538.08	6883.52
538.25	6733.72
538.42	6899.90
538.59	6960.75
538.75	6628.40
538.92	6883.52
539.09	6878.83
539.26	6799.26
539.43	6885.86
539.60	6799.26
539.77	6696.27
539.94	6991.18
540.11	6822.66
540.28	6787.55
540.44	6827.34
540.61	6892.88
540.78	7063.74
540.95	7431.20
541.12	7592.70
541.29	7777.60
541.46	7913.35
541.62	7817.39
541.79	7826.75
541.96	7620.78
542.13	7651.21
542.30	7585.68
542.47	7590.36
542.63	7634.83
542.80	7492.05
542.97	7424.18
543.14	7419.50
543.31	7337.58
543.48	7487.37
543.64	7590.36
543.81	7726.11
543.98	7583.34
544.15	7508.44
544.32	7389.07
544.48	7485.03
544.65	7534.18
544.82	7555.25
544.99	7651.21
545.16	7501.42
545.32	7506.10
545.49	8477.42
545.66	9816.21
545.83	10785.19
546.00	9928.55
546.16	8603.81
546.33	7955.48
546.50	7515.46
546.67	7688.66
546.83	7398.43
547.00	7398.43
547.17	7077.78
547.34	6937.35
547.50	7028.63
547.67	7155.02
547.84	6974.80
548.00	7143.32
548.17	7126.93
548.34	7066.08
548.51	7110.55
548.67	6998.20
548.84	7016.93
549.01	7021.61
549.18	6895.22
549.34	6991.18
549.51	6927.99
549.68	6984.16
549.84	6747.76
550.01	6782.87
550.18	6785.21
550.34	6785.21
550.51	6698.61
550.68	6796.92
550.84	6686.91
551.01	6607.33
551.18	6478.60
551.34	6619.04
551.51	6705.63
551.68	6787.55
551.84	6740.74
552.01	6731.38
552.18	6583.93
552.34	6689.25
552.51	6223.48
552.68	6455.20
552.84	6551.16
553.01	6490.31
553.18	6504.35
553.34	6429.45
553.51	6623.72
553.67	6661.16
553.84	6471.58
554.01	6452.86
554.17	6356.90
554.34	6494.99
554.51	6457.54
554.67	6633.08
554.84	6443.49
555.00	6560.52
555.17	6408.39
555.33	6260.93
555.50	6296.04
555.67	6328.81
555.83	6377.96
556.00	6469.24
556.16	6396.68
556.33	6092.41
556.50	6045.60
556.66	6298.38
556.83	6033.90
556.99	6160.29
557.16	6420.09
557.32	6167.31
557.49	6310.08
557.65	6136.88
557.82	6202.42
557.98	6087.73
558.15	6064.33
558.32	5991.77
558.48	5771.76
558.65	5872.40
558.81	5902.83
558.98	5942.62
559.14	5884.11
559.31	6036.24
559.47	6113.48
559.64	6012.84
559.80	5902.83
559.97	5891.13
560.13	5900.49
560.30	6064.33
560.46	6237.53
560.63	6211.78
560.79	6293.70
560.96	6232.85
561.12	5881.77
561.29	5970.71
561.45	5886.45
561.61	6064.33
561.78	5994.11
561.94	5940.28
562.11	5832.62
562.27	5860.70
562.44	6012.84
562.60	5940.28
562.77	5891.13
562.93	6045.60
563.10	6190.72
563.26	6083.05
563.42	5907.51
563.59	5877.09
563.75	5930.92
563.92	5954.32
564.08	6043.26
564.24	5905.17
564.41	5886.45
564.57	5991.77
564.74	6008.16
564.90	5851.34
565.07	5949.64
565.23	5767.08
565.39	5680.48
565.56	5746.02
565.72	5554.09
565.88	5603.24
566.05	5617.29
566.21	5636.01
566.38	5865.38
566.54	5792.83
566.70	5888.79
566.87	5729.63
567.03	5675.80
567.19	5769.42
567.36	5593.88
567.52	5797.51
567.68	5612.60
567.85	5593.88
568.01	5451.11
568.17	5444.09
568.34	5291.95
568.50	5256.84
568.66	5308.34
568.83	5495.58
568.99	5413.66
569.15	5411.32
569.32	5526.00
569.48	5408.98
569.64	5455.79
569.81	5203.01
569.97	5270.89
570.13	5336.42
570.30	5303.65
570.46	5280.25
570.62	5308.34
570.78	5294.29
570.95	5219.39
571.11	5305.99
571.27	5469.83
571.43	5277.91
571.60	5366.85
571.76	5228.76
571.92	5554.09
572.09	5577.50
572.25	5497.92
572.41	5294.29
572.57	5462.81
572.74	5474.51
572.90	5420.68
573.06	5617.29
573.22	5399.62
573.38	5549.41
573.55	5427.70
573.71	5411.32
573.87	5338.76
574.03	5380.89
574.20	5231.10
574.36	5273.23
574.52	5296.63
574.68	5191.31
574.84	5088.32
575.01	5177.26
575.17	5165.56
575.33	5109.39
575.49	5116.41
575.65	5142.16
575.82	5268.55
575.98	5191.31
576.14	5254.50
576.30	5280.25
576.46	5568.13
576.62	5888.79
576.79	5935.60
576.95	5727.29
577.11	5418.34
577.27	5420.68
577.43	5469.83
577.59	5280.25
577.75	5046.20
577.92	4966.62
578.08	5083.64
578.24	4950.23
578.40	5191.31
578.56	5493.24
578.72	5870.06
578.88	5753.04
579.04	5640.69
579.21	5549.41
579.37	5439.40
579.53	5418.34
579.69	5516.64
579.85	5380.89
580.01	5528.35
580.17	5511.96
580.33	5425.36
580.49	5336.42
580.65	5507.28
580.82	5308.34
580.98	5294.29
581.14	5458.13
581.30	5394.93
581.46	5193.65
581.62	5329.40
581.78	5406.64
581.94	5575.16
582.10	5643.03
582.26	5430.04
582.42	5453.45
582.58	5565.79
582.74	5437.06
582.90	5526.00
583.06	5474.51
583.22	5558.77
583.38	5289.61
583.54	5467.49
583.70	5401.96
583.86	5699.20
584.02	5453.45
584.18	5598.56
584.34	5394.93
584.50	5430.04
584.66	5294.29
584.82	5284.93
584.98	5214.71
585.14	5289.61
585.30	5352.81
585.46	5149.18
585.62	5093.01
585.78	5093.01
585.94	5043.85
586.10	5217.05
586.26	5217.05
586.42	5205.35
586.58	5296.63
586.74	5373.87
586.90	5289.61
587.06	5336.42
587.22	5282.59
587.38	5071.94
587.54	5046.20
587.70	4929.17
587.86	4669.37
588.02	4594.47
588.18	4425.95
588.34	4280.84
588.49	3997.64
588.65	3768.26
588.81	3770.60
588.97	3751.88
589.13	3747.20
589.29	3721.45
589.45	3648.90
589.61	3691.02
589.77	3978.91
589.93	4058.49
590.08	4166.15
590.24	4353.40
590.40	4313.61
590.56	4304.25
590.72	4224.67
590.88	4311.27
591.04	4297.22
591.20	4402.55
591.35	4250.41
591.51	4205.94
591.67	4107.64
591.83	4152.11
591.99	4229.35
592.15	4175.52
592.31	4547.66
592.46	4456.38
592.62	4557.02
592.78	4650.64
592.94	4711.50
593.10	4650.64
593.26	4730.22
593.41	4734.90
593.57	4557.02
593.73	4533.62
593.89	4138.07
594.05	4222.33
594.20	4014.02
594.36	4032.74
594.52	3812.73
594.68	3925.08
594.84	4262.12
594.99	4133.39
595.15	4411.91
595.31	4318.29
595.47	4306.59
595.62	4397.87
595.78	4409.57
595.94	4550.00
596.10	4498.51
596.25	4334.67
596.41	4379.14
596.57	4177.86
596.73	4517.23
596.88	4306.59
597.04	4540.64
597.20	4388.50
597.36	4191.90
597.51	4369.78
597.67	4327.65
597.83	4276.16
597.99	4496.17
598.14	4339.35
598.30	4432.97
598.46	4484.47
598.61	4449.36
598.77	4418.93
598.93	4461.06
599.09	4617.88
599.24	4566.39
599.40	4622.56
599.56	4573.41
599.71	4615.54
599.87	4629.58
600.03	4489.15
600.18	4395.53
600.34	4587.45
600.50	4531.28
600.65	4458.72
600.81	4552.34
600.97	4472.76
601.12	4465.74
601.28	4470.42
601.44	4458.72
601.59	4493.83
601.75	4393.19
601.91	4407.23
602.06	4432.97
602.22	4386.16
602.37	4454.04
602.53	4461.06
602.69	4573.41
602.84	4610.86
603.00	4650.64
603.16	4608.51
603.31	4517.23
603.47	4737.24
603.62	4407.23
603.78	4564.04
603.94	4545.32
604.09	4498.51
604.25	4526.60
604.40	4386.16
604.56	4528.94
604.71	4554.68
604.87	4617.88
605.03	4578.09
605.18	4601.49
605.34	4702.14
605.49	4468.08
605.65	4322.97
605.80	4397.87
605.96	4493.83
606.12	4491.49
606.27	4496.17
606.43	4362.76
606.58	4681.07
606.74	4498.51
606.89	4608.51
607.05	4571.07
607.20	4669.37
607.36	4554.68
607.51	4381.48
607.67	4447.02
607.82	4379.14
607.98	4493.83
608.13	4561.70
608.29	4402.55
608.44	4718.52
608.60	4594.47
608.75	4622.56
608.91	4514.89
609.06	4645.96
609.22	4643.62
609.37	4669.37
609.53	4779.37
609.68	4847.25
609.84	4926.83
609.99	4926.83
610.15	5114.07
610.30	5614.95
610.46	5916.87
610.61	6282.00
610.76	6782.87
610.92	7468.65
611.07	7871.22
611.23	8030.38
611.38	7585.68
611.54	7218.21
611.69	6658.82
611.84	6366.26
612.00	5930.92
612.15	5462.81
612.31	5341.10
612.46	5357.49
612.62	5142.16
612.77	5174.92
612.92	5083.64
613.08	5088.32
613.23	4826.18
613.39	4851.93
613.54	4734.90
613.69	4697.46
613.85	4674.05
614.00	4678.73
614.15	4779.37
614.31	4648.30
614.46	4772.35
614.62	4851.93
614.77	4770.01
614.92	4716.18
615.08	4540.64
615.23	4568.73
615.38	4322.97
615.54	4301.90
615.69	4255.09
615.84	4009.34
616.00	4058.49
616.15	4156.79
616.30	4184.88
616.46	4051.47
616.61	4046.79
616.76	3992.95
616.92	3918.06
617.07	4046.79
617.22	4135.73
617.37	4053.81
617.53	4124.02
617.68	4142.75
617.83	4053.81
617.99	4236.37
618.14	4049.13
618.29	4112.32
618.45	4154.45
618.60	4028.06
618.75	3978.91
618.90	3941.46
619.06	3831.46
619.21	4042.11
619.36	4046.79
619.51	4077.21
619.67	4032.74
619.82	3918.06
619.97	4018.70
620.12	3988.27
620.28	4004.66
620.43	4018.70
620.58	4077.21
620.73	3962.53
620.89	3981.25
621.04	4037.42
621.19	3866.56
621.34	3915.72
621.49	3709.75
621.65	3803.37
621.80	3887.63
621.95	3899.33
622.10	3801.03
622.25	3971.89
622.41	3646.55
622.56	3735.50
622.71	3854.86
622.86	3721.45
623.01	3861.88
623.16	3936.78
623.32	3772.94
623.47	3786.99
623.62	3751.88
623.77	3789.33
623.92	3737.84
624.07	3815.07
624.23	3672.30
624.38	3749.54
624.53	3611.45
624.68	3684.00
624.83	3843.16
624.98	3658.26
625.13	3548.25
625.29	3674.64
625.44	3442.93
625.59	3454.63
625.74	3623.15
625.89	3674.64
626.04	3646.55
626.19	3543.57
626.34	3515.48
626.49	3473.36
626.65	3758.90
626.80	3531.87
626.95	3597.40
627.10	3541.23
627.25	3389.10
627.40	3204.19
627.55	3218.24
627.70	3169.09
627.85	3173.77
628.00	3133.98
628.15	3363.35
628.30	3375.05
628.45	3323.56
628.60	3272.07
628.76	3318.88
628.91	3363.35
629.06	3391.44
629.21	3363.35
629.36	3300.16
629.51	3361.01
629.66	3222.92
629.81	3218.24
629.96	3456.97
630.11	3522.51
630.26	3454.63
630.41	3508.46
630.56	3522.51
630.71	3749.54
630.86	3571.66
631.01	3496.76
631.16	3520.17
631.31	3337.60
631.46	3279.09
631.61	3274.41
631.76	3197.17
631.91	3122.27
632.06	3194.83
632.21	3283.77
632.36	3337.60
632.51	3194.83
632.66	3267.39
632.81	3178.45
632.96	3332.92
633.10	3087.17
633.25	3215.90
633.40	3225.26
633.55	3098.87
633.70	3141.00
633.85	3122.27
634.00	3023.97
634.15	3180.79
634.30	3124.62
634.45	3286.11
634.60	3215.90
634.75	3232.28
634.90	3052.06
635.05	3183.13
635.19	3274.41
635.34	3143.34
635.49	3087.17
635.64	3206.53
635.79	3040.36
635.94	3070.78
636.09	3009.93
636.24	3136.32
636.39	3016.95
636.53	3000.57
636.68	3164.40
636.83	3141.00
636.98	3080.14
637.13	3330.58
637.28	3239.30
637.43	3314.20
637.57	3311.86
637.72	3047.38
637.87	3089.51
638.02	3040.36
638.17	3012.27
638.32	3030.99
638.46	3253.34
638.61	3124.62
638.76	3098.87
638.91	3049.72
639.06	3070.78
639.20	3084.83
639.35	3136.32
639.50	2972.48
639.65	3129.30
639.80	3023.97
639.94	2869.50
640.09	3052.06
640.24	3038.02
640.39	2827.37
640.54	2953.76
640.68	3028.65
640.83	2939.71
640.98	2951.42
641.13	3068.44
641.27	2967.80
641.42	2897.58
641.57	2949.08
641.72	2904.60
641.86	2920.99
642.01	2871.84
642.16	3162.06
642.31	2909.29
642.45	2974.82
642.60	2972.48
642.75	3002.91
642.90	3033.33
643.04	2935.03
643.19	2913.97
643.34	2895.24
643.48	2925.67
643.63	2881.20
643.78	2846.09
643.93	2944.39
644.07	2904.60
644.22	2995.89
644.37	2913.97
644.51	2897.58
644.66	2782.90
644.81	2813.32
644.95	2822.69
645.10	2773.53
645.25	2670.55
645.39	2803.96
645.54	2677.57
645.69	2696.30
645.83	2602.68
645.98	2551.18
646.13	2452.88
646.27	2597.99
646.42	2574.59
646.57	2530.12
646.71	2553.52
646.86	2490.33
647.00	2523.10
647.15	2434.16
647.30	2363.94
647.44	2356.92
647.59	2321.81
647.74	2310.11
647.88	2401.39
648.03	2382.67
648.17	2366.28
648.32	2422.45
648.47	2462.24
648.61	2462.24
648.76	2485.65
648.90	2464.58
649.05	2303.09
649.20	2345.22
649.34	2417.77
649.49	2321.81
649.63	2349.90
649.78	2567.57
649.92	2565.23
650.07	2785.24
650.21	2644.81
650.36	2761.83
650.51	2773.53
650.65	2789.92
650.80	2588.63
650.94	2605.02
651.09	2637.78
651.23	2303.09
651.38	2202.44
651.52	2127.55
651.67	2317.13
651.81	2272.66
651.96	2389.69
652.10	2499.69
652.25	2537.14
652.39	2567.57
652.54	2567.57
652.68	2614.38
652.83	2581.61
652.97	2469.27
653.12	2532.46
653.26	2520.76
653.41	2497.35
653.55	2558.21
653.70	2487.99
653.84	2408.41
653.99	2471.61
654.13	2443.52
654.27	2485.65
654.42	2377.98
654.56	2256.28
654.71	2417.77
654.85	2312.45
655.00	2307.77
655.14	2389.69
655.29	2181.38
655.43	2202.44
655.57	2165.00
655.72	2139.25
655.86	2200.10
656.01	1858.39
656.15	1898.17
656.30	1877.11
656.44	1961.37
656.58	2008.18
656.73	2111.16
656.87	2202.44
657.01	2256.28
657.16	2270.32
657.30	2218.83
657.45	2333.51
657.59	2487.99
657.73	2356.92
657.88	2389.69
658.02	2572.25
658.16	2270.32
658.31	2298.41
658.45	2380.32
658.60	2359.26
658.74	2363.94
658.88	2424.80
659.03	2410.75
659.17	2401.39
659.31	2265.64
659.46	2340.54
659.60	2328.83
659.74	2443.52
659.89	2455.22
660.03	2317.13
660.17	2392.03
660.32	2389.69
660.46	2399.05
660.60	2312.45
660.74	2389.69
660.89	2352.24
661.03	2445.86
661.17	2413.09
661.32	2487.99
661.46	2422.45
661.60	2523.10
661.74	2462.24
661.89	2576.93
662.03	2499.69
662.17	2483.31
662.31	2415.43
662.46	2469.27
662.60	2263.30
662.74	2455.22
662.88	2431.82
663.03	2270.32
663.17	2434.16
663.31	2251.60
663.45	2232.87
663.60	2324.15
663.74	2317.13
663.88	2286.70
664.02	2284.36
664.17	2253.94
664.31	2263.30
664.45	2310.11
664.59	2377.98
664.73	2368.62
664.88	2258.62
665.02	2216.49
665.16	2232.87
665.30	2221.17
665.44	2328.83
665.59	2408.41
665.73	2253.94
665.87	2186.06
666.01	2314.79
666.15	2235.21
666.29	2125.21
666.44	2258.62
666.58	2249.25
666.72	2370.96
666.86	2289.04
667.00	2202.44
667.14	2186.06
667.28	2265.64
667.43	2237.55
667.57	2174.36
667.71	2249.25
667.85	2232.87
667.99	2260.96
668.13	2174.36
668.27	2202.44
668.41	2216.49
668.56	2223.51
668.70	2160.31
668.84	2139.25
668.98	2277.34
669.12	2258.62
669.26	2153.29
669.40	2291.38
669.54	2118.18
669.68	2134.57
669.82	2211.81
669.96	2132.23
670.10	2214.15
670.25	2183.72
670.39	2104.14
670.53	2043.29
670.67	2083.08
670.81	2062.01
670.95	2146.27
671.09	2087.76
671.23	2204.78
671.37	2090.10
671.51	2183.72
671.65	1968.39
671.79	2031.58
671.93	2083.08
672.07	2026.90
672.21	2101.80
672.35	2026.90
672.49	1982.43
672.63	1895.83
672.77	2059.67
672.91	2045.63
673.05	1891.15
673.19	2010.52
673.33	1968.39
673.47	2101.80
673.61	2092.44
673.75	1942.64
673.89	2012.86
674.03	1966.05
674.17	2012.86
674.31	2059.67
674.45	1923.92
674.59	1900.52
674.73	1980.09
674.87	1856.04
675.01	1959.03
675.15	1921.58
675.29	1935.62
675.43	2047.97
675.56	1884.13
675.70	1973.07
675.84	2043.29
675.98	1977.75
676.12	1837.32
676.26	1839.66
676.40	1799.87
676.54	1975.41
676.68	1849.02
676.82	1900.52
676.96	1816.26
677.10	1879.45
677.23	1806.89
677.37	1834.98
677.51	1806.89
677.65	1816.26
677.79	1856.04
677.93	1809.23
678.07	1771.79
678.21	1781.15
678.34	1809.23
678.48	1741.36
678.62	1706.25
678.76	1799.87
678.90	1776.47
679.04	1736.68
679.18	1762.42
679.31	1708.59
679.45	1682.85
679.59	1706.25
679.73	1781.15
679.87	1732.00
680.00	1748.38
680.14	1778.81
680.28	1650.08
680.42	1753.06
680.56	1659.44
680.70	1640.72
680.83	1596.25
680.97	1617.31
681.11	1619.65
681.25	1657.10
681.39	1664.12
681.52	1750.72
681.66	1724.97
681.80	1589.22
681.94	1542.41
682.07	1687.53
682.21	1629.01
682.35	1584.54
682.49	1633.69
682.62	1661.78
682.76	1565.82
682.90	1526.03
683.04	1586.88
683.17	1575.18
683.31	1600.93
683.45	1626.67
683.59	1516.67
683.72	1521.35
683.86	1537.73
684.00	1542.41
684.13	1568.16
684.27	1540.07
684.41	1526.03
684.55	1507.30
684.68	1483.90
684.82	1474.54
684.96	1554.12
685.09	1448.79
685.23	1451.13
685.37	1509.65
685.50	1439.43
685.64	1526.03
685.78	1338.79
685.91	1434.75
686.05	1490.92
686.19	1507.30
686.32	1369.21
686.46	1261.55
686.60	1116.44
686.73	954.94
686.87	943.24
687.01	809.83
687.14	866.00
687.28	772.38
687.42	919.83
687.55	968.98
687.69	1043.88
687.82	1097.71
687.96	1179.63
688.10	1233.46
688.23	1268.57
688.37	1170.27
688.50	1102.39
688.64	1174.95
688.78	1093.03
688.91	1071.97
689.05	1071.97
689.18	1151.54
689.32	1055.58
689.46	1088.35
689.59	1050.90
689.73	1130.48
689.86	1076.65
690.00	1062.60
690.13	1107.07
690.27	1032.18
690.41	1055.58
690.54	1137.50
690.68	1114.10
690.81	1146.86
690.95	1081.33
691.08	1102.39
691.22	1081.33
691.35	1015.79
691.49	1064.94
691.62	1071.97
691.76	1055.58
691.89	1067.28
692.03	1064.94
692.16	1067.28
692.30	1050.90
692.43	1132.82
692.57	983.02
692.70	990.05
692.84	917.49
692.97	922.17
693.11	983.02
693.24	1025.15
693.38	896.43
693.51	957.28
693.65	961.96
693.78	873.02
693.92	866.00
694.05	887.06
694.19	826.21
694.32	903.45
694.45	952.60
694.59	898.77
694.72	854.30
694.86	929.19
694.99	997.07
695.13	964.30
695.26	966.64
695.39	971.32
695.53	926.85
695.66	877.70
695.80	1015.79
695.93	877.70
696.07	985.37
696.20	919.83
696.33	873.02
696.47	919.83
696.60	1083.67
696.73	1050.90
696.87	908.13
697.00	1095.37
697.14	866.00
697.27	973.66
697.40	980.68
697.54	1004.09
697.67	976.00
697.80	1011.11
697.94	936.21
698.07	889.40
698.21	950.26
698.34	985.37
698.47	950.26
698.61	805.14
698.74	802.80
698.87	828.55
699.01	844.93
699.14	741.95
699.27	737.27
699.40	828.55
699.54	809.83
699.67	798.12
699.80	695.14
699.94	704.50
700.07	713.86
700.20	809.83
700.34	695.14
700.47	774.72
700.60	781.74
700.73	786.42
700.87	858.98
701.00	704.50
701.13	816.85
701.26	685.78
701.40	828.55
701.53	653.01
701.66	739.61
701.79	716.20
701.93	812.17
702.06	760.67
702.19	699.82
702.32	744.29
702.46	655.35
702.59	685.78
702.72	699.82
702.85	739.61
702.99	713.86
703.12	898.77
703.25	854.30
703.38	826.21
703.51	835.57
703.65	723.23
703.78	821.53
703.91	800.46
704.04	812.17
704.17	737.27
704.31	746.63
704.44	784.08
704.57	786.42
704.70	772.38
704.83	746.63
704.96	741.95
705.10	737.27
705.23	690.46
>>>>>End Processed Spectral Data<<<<<
