SpectraSuite Data File
++++++++++++++++++++++++++++++++++++
Date: Fri Oct 04 11:44:22 GMT-05:00 2013
User: price-jones
Dark Spectrum Present: No
Reference Spectrum Present: No
Number of Sampled Component Spectra: 1
Spectrometers: USB2+H05261
Integration Time (usec): 100000 (USB2+H05261)
Spectra Averaged: 1 (USB2+H05261)
Boxcar Smoothing: 0 (USB2+H05261)
Correct for Electrical Dark: No (USB2+H05261)
Strobe/Lamp Enabled: No (USB2+H05261)
Correct for Detector Non-linearity: No (USB2+H05261)
Correct for Stray Light: No (USB2+H05261)
Number of Pixels in Processed Spectrum: 2048
>>>>>Begin Processed Spectral Data<<<<<
365.73	77.24
365.92	77.24
366.12	77.24
366.32	0.00
366.52	0.00
366.72	0.00
366.91	0.00
367.11	0.00
367.31	0.00
367.51	0.00
367.70	0.00
367.90	0.00
368.10	0.00
368.30	0.00
368.49	0.00
368.69	0.00
368.89	0.00
369.09	0.00
369.28	0.00
369.48	0.00
369.68	35.11
369.87	0.00
370.07	0.00
370.27	0.00
370.47	175.54
370.66	416.62
370.86	528.96
371.06	634.29
371.25	585.13
371.45	521.94
371.65	514.92
371.84	526.62
372.04	524.28
372.24	617.90
372.44	550.03
372.63	580.45
372.83	521.94
373.03	559.39
373.22	554.71
373.42	489.17
373.62	650.67
373.81	648.33
374.01	589.82
374.21	521.94
374.40	493.85
374.60	594.50
374.79	690.46
374.99	671.73
375.19	784.08
375.38	692.80
375.58	678.76
375.78	683.44
375.97	669.39
376.17	767.70
376.37	720.88
376.56	629.60
376.76	727.91
376.95	809.83
377.15	844.93
377.35	912.81
377.54	901.11
377.74	889.40
377.93	877.70
378.13	830.89
378.33	812.17
378.52	725.57
378.72	795.78
378.91	655.35
379.11	725.57
379.31	702.16
379.50	706.84
379.70	863.66
379.89	844.93
380.09	830.89
380.28	901.11
380.48	826.21
380.68	884.72
380.87	788.76
381.07	791.10
381.26	835.57
381.46	711.52
381.65	739.61
381.85	622.58
382.04	748.97
382.24	662.37
382.43	575.77
382.63	479.81
382.83	573.43
383.02	622.58
383.22	650.67
383.41	545.34
383.61	519.60
383.80	627.26
384.00	699.82
384.19	819.19
384.39	844.93
384.58	777.06
384.78	891.74
384.97	861.32
385.17	734.93
385.36	739.61
385.56	856.64
385.75	678.76
385.95	814.51
386.14	870.68
386.34	887.06
386.53	744.29
386.72	861.32
386.92	819.19
387.11	826.21
387.31	908.13
387.50	896.43
387.70	901.11
387.89	774.72
388.09	821.53
388.28	842.59
388.48	781.74
388.67	884.72
388.86	966.64
389.06	1046.22
389.25	1050.90
389.45	1076.65
389.64	1116.44
389.84	1167.93
390.03	1170.27
390.22	1060.26
390.42	1046.22
390.61	1228.78
390.81	1203.04
391.00	1238.14
391.19	1132.82
391.39	1128.14
391.58	1071.97
391.78	1109.41
391.97	1053.24
392.16	908.13
392.36	966.64
392.55	770.04
392.75	613.22
392.94	596.84
393.13	521.94
393.33	667.05
393.52	744.29
393.71	840.25
393.91	983.02
394.10	947.92
394.29	1167.93
394.49	1224.10
394.68	1245.16
394.88	1291.98
395.07	1317.72
395.26	1310.70
395.46	1196.01
395.65	1203.04
395.84	1109.41
396.04	1034.52
396.23	786.42
396.42	645.99
396.62	695.14
396.81	692.80
397.00	954.94
397.19	1132.82
397.39	1268.57
397.58	1425.39
397.77	1516.67
397.97	1516.67
398.16	1526.03
398.35	1600.93
398.55	1664.12
398.74	1692.21
398.93	1724.97
399.12	1753.06
399.32	1668.80
399.51	1661.78
399.70	1666.46
399.90	1673.48
400.09	1778.81
400.28	1839.66
400.47	1802.21
400.67	1886.47
400.86	1865.41
401.05	1856.04
401.24	1959.03
401.44	1944.99
401.63	1914.56
401.82	1928.60
402.01	1966.05
402.21	1928.60
402.40	1973.07
402.59	1825.62
402.78	1893.49
402.97	1664.12
403.17	1799.87
403.36	1947.33
403.55	1959.03
403.74	1935.62
403.93	1975.41
404.13	1954.35
404.32	1893.49
404.51	1891.15
404.70	1998.82
404.89	1912.22
405.09	2038.61
405.28	1839.66
405.47	1795.19
405.66	1902.86
405.85	1872.43
406.05	1795.19
406.24	1809.23
406.43	1867.75
406.62	1956.69
406.81	2008.18
407.00	1827.96
407.20	1935.62
407.39	1907.54
407.58	1982.43
407.77	1996.48
407.96	2148.61
408.15	2197.76
408.34	2172.02
408.54	2209.47
408.73	2148.61
408.92	2167.34
409.11	2193.08
409.30	2090.10
409.49	1879.45
409.68	1809.23
409.87	1699.23
410.07	1837.32
410.26	2033.93
410.45	2076.06
410.64	2087.76
410.83	2232.87
411.02	2232.87
411.21	2312.45
411.40	2303.09
411.59	2420.11
411.78	2293.72
411.98	2202.44
412.17	2251.60
412.36	2289.04
412.55	2260.96
412.74	2207.13
412.93	2195.42
413.12	2289.04
413.31	2375.64
413.50	2303.09
413.69	2502.03
413.88	2438.84
414.07	2282.02
414.26	2275.00
414.45	2427.14
414.64	2487.99
414.83	2485.65
415.02	2424.80
415.22	2455.22
415.41	2359.26
415.60	2462.24
415.79	2630.76
415.98	2738.43
416.17	2565.23
416.36	2588.63
416.55	2513.74
416.74	2459.90
416.93	2361.60
417.12	2406.07
417.31	2410.75
417.50	2480.97
417.69	2534.80
417.88	2539.48
418.07	2499.69
418.26	2483.31
418.45	2427.14
418.64	2616.72
418.83	2593.31
419.02	2614.38
419.21	2576.93
419.39	2436.50
419.58	2410.75
419.77	2319.47
419.96	2544.16
420.15	2576.93
420.34	2682.25
420.53	2796.94
420.72	2771.19
420.91	2801.62
421.10	2696.30
421.29	2780.56
421.48	2562.89
421.67	2806.30
421.86	2754.81
422.05	2457.56
422.24	2361.60
422.43	2298.41
422.61	2532.46
422.80	2710.34
422.99	2686.94
423.18	2586.29
423.37	2595.65
423.56	2504.37
423.75	2626.08
423.94	2576.93
424.13	2495.01
424.32	2541.82
424.50	2532.46
424.69	2513.74
424.88	2576.93
425.07	2590.97
425.26	2511.39
425.45	2548.84
425.64	2399.05
425.83	2403.73
426.01	2649.49
426.20	2619.06
426.39	2539.48
426.58	2370.96
426.77	2321.81
426.96	2267.98
427.15	2263.30
427.33	2518.42
427.52	2495.01
427.71	2466.92
427.90	2471.61
428.09	2370.96
428.28	2445.86
428.46	2277.34
428.65	2216.49
428.84	2270.32
429.03	2403.73
429.22	2265.64
429.40	2223.51
429.59	2043.29
429.78	1783.49
429.97	1732.00
430.16	1839.66
430.34	1823.28
430.53	1769.44
430.72	1795.19
430.91	2008.18
431.10	2314.79
431.28	2583.95
431.47	2944.39
431.66	2930.35
431.85	2747.79
432.03	2595.65
432.22	2504.37
432.41	2471.61
432.60	2649.49
432.79	2773.53
432.97	2928.01
433.16	2796.94
433.35	2661.19
433.54	2413.09
433.72	2256.28
433.91	2279.68
434.10	2565.23
434.28	2693.96
434.47	2752.47
434.66	2834.39
434.85	2736.09
435.03	2757.15
435.22	2981.84
435.41	3262.71
435.59	3323.56
435.78	3124.62
435.97	3073.12
436.16	3103.55
436.34	2951.42
436.53	2960.78
436.72	3056.74
436.90	2675.23
437.09	2832.05
437.28	2785.24
437.46	2918.65
437.65	2916.31
437.84	2710.34
438.02	2579.27
438.21	2375.64
438.40	2555.86
438.58	2642.46
438.77	2899.92
438.96	2768.85
439.14	3112.91
439.33	3117.59
439.52	2986.52
439.70	3096.53
439.89	3019.29
440.08	2787.58
440.26	2918.65
440.45	3145.68
440.63	3007.59
440.82	3215.90
441.01	3246.32
441.19	3206.53
441.38	3194.83
441.57	3407.82
441.75	3475.70
441.94	3520.17
442.12	3398.46
442.31	3463.99
442.50	3452.29
442.68	3426.54
442.87	3372.71
443.05	3351.65
443.24	3318.88
443.43	3459.31
443.61	3489.74
443.80	3599.74
443.98	3321.22
444.17	3251.00
444.35	3522.51
444.54	3627.83
444.73	3513.14
444.91	3421.86
445.10	3253.34
445.28	3138.66
445.47	3180.79
445.65	3183.13
445.84	3258.03
446.02	3269.73
446.21	3421.86
446.39	3337.60
446.58	3414.84
446.77	3499.10
446.95	3407.82
447.14	3674.64
447.32	3679.32
447.51	3552.93
447.69	3433.57
447.88	3393.78
448.06	3440.59
448.25	3480.38
448.43	3536.55
448.62	3361.01
448.80	3386.76
448.99	3473.36
449.17	3552.93
449.36	3566.98
449.54	3808.05
449.73	3632.51
449.91	3723.79
450.10	3817.41
450.28	3843.16
450.46	3864.22
450.65	3824.44
450.83	3840.82
451.02	3894.65
451.20	3768.26
451.39	3726.13
451.57	3571.66
451.76	3625.49
451.94	3597.40
452.13	3714.43
452.31	3365.69
452.49	3403.14
452.68	3335.26
452.86	3253.34
453.05	3321.22
453.23	3501.44
453.42	3520.17
453.60	3583.36
453.78	3599.74
453.97	3562.30
454.15	3658.26
454.34	3597.40
454.52	3597.40
454.70	3562.30
454.89	3676.98
455.07	3641.87
455.26	3655.92
455.44	3850.18
455.62	3838.48
455.81	3904.01
455.99	3833.80
456.17	3852.52
456.36	3779.97
456.54	3782.31
456.73	3904.01
456.91	3913.38
457.09	4060.83
457.28	3971.89
457.46	3833.80
457.64	3875.93
457.83	3707.41
458.01	3604.42
458.19	3744.86
458.38	3808.05
458.56	4035.08
458.74	3779.97
458.93	3864.22
459.11	3747.20
459.29	3822.09
459.48	3838.48
459.66	3852.52
459.84	3716.77
460.03	4025.72
460.21	3728.47
460.39	3939.12
460.57	4037.42
460.76	3885.29
460.94	3880.61
461.12	3939.12
461.31	3950.82
461.49	3967.21
461.67	3920.40
461.85	4016.36
462.04	3967.21
462.22	4465.74
462.40	4079.55
462.59	3990.61
462.77	4044.45
462.95	4093.60
463.13	3964.87
463.32	3999.98
463.50	3967.21
463.68	3904.01
463.86	3892.31
464.05	3927.42
464.23	3831.46
464.41	3808.05
464.59	3744.86
464.78	3920.40
464.96	3758.90
465.14	3819.75
465.32	3948.48
465.50	4002.32
465.69	3999.98
465.87	4091.26
466.05	3875.93
466.23	3660.60
466.41	3646.55
466.60	3730.81
466.78	3878.27
466.96	3709.75
467.14	3922.74
467.32	3967.21
467.51	3915.72
467.69	3681.66
467.87	3688.68
468.05	3908.69
468.23	3819.75
468.41	3960.19
468.60	3880.61
468.78	3817.41
468.96	3840.82
469.14	3859.54
469.32	3861.88
469.50	3817.41
469.69	3798.69
469.87	3770.60
470.05	3847.84
470.23	3822.09
470.41	3674.64
470.59	3723.79
470.77	3894.65
470.95	3873.59
471.14	4016.36
471.32	3880.61
471.50	4227.01
471.68	4107.64
471.86	4145.09
472.04	4236.37
472.22	4325.31
472.40	4016.36
472.58	4011.68
472.77	3819.75
472.95	4091.26
473.13	4187.22
473.31	4004.66
473.49	3971.89
473.67	4011.68
473.85	4060.83
474.03	4166.15
474.21	4219.99
474.39	4332.33
474.57	4348.72
474.75	4304.25
474.93	4241.05
475.12	4072.53
475.30	4170.83
475.48	4236.37
475.66	4315.95
475.84	4255.09
476.02	4262.12
476.20	4002.32
476.38	4208.28
476.56	4372.12
476.74	4362.76
476.92	4404.89
477.10	4353.40
477.28	4498.51
477.46	4554.68
477.64	4542.98
477.82	4704.48
478.00	4533.62
478.18	4479.79
478.36	4615.54
478.54	4552.34
478.72	4657.67
478.90	4709.16
479.08	4814.48
479.26	4781.71
479.44	4786.40
479.62	4697.46
479.80	4882.36
479.98	4898.74
480.16	4840.23
480.34	4903.42
480.52	4950.23
480.70	4933.85
480.88	4809.80
481.06	5163.22
481.24	5111.73
481.41	5210.03
481.59	5423.02
481.77	5273.23
481.95	5081.30
482.13	5111.73
482.31	5186.63
482.49	5011.09
482.67	5280.25
482.85	5224.08
483.03	5369.19
483.21	5385.57
483.39	5441.75
483.57	5203.01
483.74	5291.95
483.92	5301.31
484.10	5247.48
484.28	5551.75
484.46	5561.11
484.64	5500.26
484.82	5303.65
485.00	5458.13
485.18	5331.74
485.35	5193.65
485.53	4842.57
485.71	4440.00
485.89	4257.43
486.07	4498.51
486.25	4856.61
486.43	5200.67
486.61	5210.03
486.78	5327.06
486.96	5158.54
487.14	5406.64
487.32	5682.82
487.50	5764.74
487.68	5785.80
487.85	5975.39
488.03	6008.16
488.21	5940.28
488.39	5785.80
488.57	5769.42
488.75	5607.92
488.92	6038.58
489.10	6125.18
489.28	6216.46
489.46	6527.75
489.64	6464.56
489.81	6457.54
489.99	6380.30
490.17	6527.75
490.35	6504.35
490.53	6436.47
490.70	6333.49
490.88	6438.81
491.06	6445.84
491.24	6586.27
491.41	6469.24
491.59	6085.39
491.77	5928.58
491.95	6092.41
492.13	6375.62
492.30	6574.56
492.48	6640.10
492.66	6848.41
492.84	6794.58
493.01	6642.44
493.19	6595.63
493.37	6691.59
493.54	6420.09
493.72	6759.47
493.90	6813.30
494.08	6984.16
494.25	7225.23
494.43	7220.55
494.61	7492.05
494.79	7248.64
494.96	7133.95
495.14	7143.32
495.32	6986.50
495.49	6724.36
495.67	6956.07
495.85	7204.17
496.02	7356.30
496.20	7501.42
496.38	7335.24
496.55	7386.73
496.73	7307.15
496.91	7358.64
497.09	7473.33
497.26	7651.21
497.44	7398.43
497.62	7363.33
497.79	7398.43
497.97	7082.46
498.14	7002.88
498.32	7314.17
498.50	7274.38
498.67	7447.58
498.85	7435.88
499.03	7562.27
499.20	7620.78
499.38	7543.55
499.56	7403.11
499.73	7461.63
499.91	7433.54
500.08	7239.28
500.26	7119.91
500.44	7070.76
500.61	7204.17
500.79	7377.37
500.97	7035.65
501.14	7068.42
501.32	6965.43
501.49	7098.84
501.67	7178.42
501.84	7302.47
502.02	7215.87
502.20	7372.69
502.37	7302.47
502.55	7272.04
502.72	7414.82
502.90	7667.60
503.07	7461.63
503.25	7243.96
503.43	6958.41
503.60	6722.02
503.78	6616.69
503.95	6635.42
504.13	7056.72
504.30	7433.54
504.48	7480.35
504.65	7293.11
504.83	7712.07
505.01	7428.86
505.18	7765.90
505.36	7616.10
505.53	7662.91
505.71	7747.17
505.88	7911.01
506.06	7747.17
506.23	7733.13
506.41	7564.61
506.58	7473.33
506.76	7660.57
506.93	7391.41
507.11	7438.22
507.28	7576.31
507.46	7445.24
507.63	7349.28
507.81	7178.42
507.98	7424.18
508.16	7599.72
508.33	7597.38
508.50	7777.60
508.68	7880.58
508.85	7915.69
509.03	8067.83
509.20	8030.38
509.38	7885.26
509.55	7667.60
509.73	7541.21
509.90	7812.71
510.08	7946.12
510.25	7915.69
510.42	7686.32
510.60	7925.05
510.77	7793.98
510.95	8201.24
511.12	8053.78
511.30	8084.21
511.47	8121.66
511.64	8379.12
511.82	8161.45
511.99	7901.65
512.17	7756.54
512.34	7850.16
512.51	7798.66
512.69	7903.99
512.86	7791.64
513.04	7915.69
513.21	8112.30
513.38	7864.20
513.56	7803.35
513.73	7550.57
513.90	7520.14
514.08	7683.98
514.25	7728.45
514.43	7793.98
514.60	7756.54
514.77	7997.61
514.95	7934.42
515.12	7817.39
515.29	7936.76
515.47	8056.12
515.64	8243.37
515.81	7997.61
515.99	7878.24
516.16	7641.85
516.33	7269.70
516.51	6504.35
516.68	6487.96
516.85	6291.36
517.03	6380.30
517.20	7000.54
517.37	7531.84
517.54	7768.24
517.72	7761.22
517.89	7349.28
518.06	6511.37
518.24	6656.48
518.41	7035.65
518.58	7461.63
518.75	7559.93
518.93	7634.83
519.10	7569.29
519.27	7911.01
519.45	7756.54
519.62	8093.57
519.79	8212.94
519.96	7932.08
520.14	7953.14
520.31	7758.88
520.48	7655.89
520.65	7838.45
520.83	8025.70
521.00	8131.02
521.17	7974.21
521.34	7803.35
521.52	8011.65
521.69	8243.37
521.86	8243.37
522.03	8154.43
522.20	7983.57
522.38	7438.22
522.55	7676.96
522.72	7602.06
522.89	7595.04
523.07	7950.80
523.24	7861.86
523.41	8023.36
523.58	8376.78
523.75	8369.76
523.92	8175.49
524.10	8381.46
524.27	8472.74
524.44	8093.57
524.61	8308.90
524.78	8238.69
524.96	8184.85
525.13	8084.21
525.30	8135.70
525.47	8383.80
525.64	8315.92
525.81	8198.90
525.98	7688.66
526.16	7681.64
526.33	7358.64
526.50	7262.68
526.67	7042.67
526.84	6895.22
527.01	7304.81
527.18	7470.99
527.36	7871.22
527.53	7957.82
527.70	8376.78
527.87	7955.48
528.04	7964.84
528.21	7995.27
528.38	8250.39
528.55	8425.93
528.72	8681.05
528.89	8521.89
529.07	8674.03
529.24	8360.39
529.41	8182.51
529.58	7978.89
529.75	7941.44
529.92	8152.09
530.09	8236.35
530.26	8358.05
530.43	8512.53
530.60	8545.30
530.77	8489.12
530.94	8514.87
531.11	8437.63
531.28	8362.73
531.46	8423.59
531.63	8512.53
531.80	8407.20
531.97	8229.32
532.14	7903.99
532.31	7581.00
532.48	7625.47
532.65	7365.67
532.82	7581.00
532.99	8035.06
533.16	8145.06
533.33	8320.60
533.50	8313.58
533.67	8102.93
533.84	7817.39
534.01	8095.91
534.18	8367.42
534.35	8355.71
534.52	8009.31
534.69	8374.44
534.86	8252.73
535.03	8280.82
535.20	8454.02
535.37	8437.63
535.54	8758.28
535.71	8484.44
535.88	8336.99
536.05	8109.96
536.22	8184.85
536.38	8156.77
536.55	7871.22
536.72	7953.14
536.89	7590.36
537.06	7913.35
537.23	8290.18
537.40	8219.96
537.57	8278.47
537.74	8198.90
537.91	8390.82
538.08	8238.69
538.25	8292.52
538.42	8238.69
538.59	8252.73
538.75	8266.77
538.92	8191.88
539.09	8208.26
539.26	8004.63
539.43	8018.68
539.60	7864.20
539.77	7840.79
539.94	7995.27
540.11	7712.07
540.28	7581.00
540.44	7782.28
540.61	7604.40
540.78	7712.07
540.95	7850.16
541.12	8060.80
541.29	8006.97
541.46	8070.17
541.62	8376.78
541.79	8091.23
541.96	8030.38
542.13	7950.80
542.30	8016.33
542.47	8360.39
542.63	8126.34
542.80	8147.40
542.97	8196.56
543.14	8077.19
543.31	8105.28
543.48	8138.04
543.64	8259.75
543.81	8444.65
543.98	8566.36
544.15	8322.94
544.32	8116.98
544.48	7983.57
544.65	8142.72
544.82	8353.37
544.99	8252.73
545.16	8198.90
545.32	8112.30
545.49	8528.91
545.66	8758.28
545.83	8674.03
546.00	8617.85
546.16	8219.96
546.33	8128.68
546.50	8037.40
546.67	8135.70
546.83	8081.87
547.00	8091.23
547.17	7873.56
547.34	7913.35
547.50	7786.96
547.67	7866.54
547.84	7852.50
548.00	7836.11
548.17	8238.69
548.34	8212.94
548.51	8135.70
548.67	8072.51
548.84	7974.21
549.01	8189.53
549.18	8145.06
549.34	7864.20
549.51	8091.23
549.68	7908.67
549.84	8028.04
550.01	7892.29
550.18	8025.70
550.34	8025.70
550.51	7747.17
550.68	8018.68
550.84	7861.86
551.01	7868.88
551.18	7845.48
551.34	7676.96
551.51	8241.03
551.68	8025.70
551.84	8161.45
552.01	8098.25
552.18	8105.28
552.34	7934.42
552.51	7583.34
552.68	7407.80
552.84	7763.56
553.01	7812.71
553.18	7817.39
553.34	7861.86
553.51	7826.75
553.67	8006.97
553.84	8065.49
554.01	7981.23
554.17	7747.17
554.34	7796.32
554.51	7613.76
554.67	8102.93
554.84	8039.74
555.00	8021.02
555.17	7889.95
555.33	7885.26
555.50	7721.43
555.67	7698.02
555.83	7726.11
556.00	7564.61
556.16	7850.16
556.33	7396.09
556.50	7564.61
556.66	7573.97
556.83	7517.80
556.99	7527.16
557.16	7602.06
557.32	7456.95
557.49	7714.41
557.65	7667.60
557.82	7524.82
557.98	7796.32
558.15	7616.10
558.32	7503.76
558.48	7138.63
558.65	7070.76
558.81	7255.66
558.98	7199.49
559.14	7241.62
559.31	7145.66
559.47	7321.20
559.64	7365.67
559.80	7220.55
559.97	7171.40
560.13	7412.48
560.30	7517.80
560.46	7597.38
560.63	7705.04
560.79	7672.28
560.96	7536.52
561.12	7475.67
561.29	7269.70
561.45	7192.47
561.61	7222.89
561.78	7461.63
561.94	7454.61
562.11	7276.73
562.27	7302.47
562.44	7356.30
562.60	7435.88
562.77	7461.63
562.93	7588.02
563.10	7482.69
563.26	7335.24
563.42	7433.54
563.59	7344.60
563.75	7162.04
563.92	7372.69
564.08	7342.26
564.24	7356.30
564.41	7435.88
564.57	7412.48
564.74	7421.84
564.90	7321.20
565.07	7290.77
565.23	7133.95
565.39	7054.37
565.56	6944.37
565.72	6832.02
565.88	6977.14
566.05	6923.30
566.21	6883.52
566.38	7037.99
566.54	7019.27
566.70	7162.04
566.87	7353.96
567.03	7431.20
567.19	7258.00
567.36	7162.04
567.52	7030.97
567.68	7016.93
567.85	6923.30
568.01	6766.49
568.17	6595.63
568.34	6572.22
568.50	6640.10
568.66	6518.39
568.83	6757.13
568.99	6654.14
569.15	6668.19
569.32	6752.45
569.48	6656.48
569.64	6516.05
569.81	6633.08
569.97	6644.78
570.13	6597.97
570.30	6682.23
570.46	6616.69
570.62	6471.58
570.78	6483.28
570.95	6462.22
571.11	6530.09
571.27	6476.26
571.43	6649.46
571.60	6682.23
571.76	6670.53
571.92	6602.65
572.09	6789.89
572.25	6633.08
572.41	6609.67
572.57	6719.68
572.74	6736.06
572.90	6693.93
573.06	6686.91
573.22	6612.01
573.38	6677.55
573.55	6574.56
573.71	6806.28
573.87	6548.82
574.03	6483.28
574.20	6565.20
574.36	6548.82
574.52	6406.05
574.68	6506.69
574.84	6431.79
575.01	6277.32
575.17	6384.98
575.33	6373.28
575.49	6609.67
575.65	6396.68
575.82	6335.83
575.98	6223.48
576.14	6377.96
576.30	6274.98
576.46	6544.14
576.62	6565.20
576.79	6782.87
576.95	6490.31
577.11	6403.71
577.27	6469.24
577.43	6384.98
577.59	6296.04
577.75	6363.92
577.92	6141.57
578.08	6218.80
578.24	6193.06
578.40	6392.00
578.56	6370.94
578.72	6406.05
578.88	6595.63
579.04	6485.62
579.21	6427.11
579.37	6286.68
579.53	6644.78
579.69	6534.78
579.85	6497.33
580.01	6471.58
580.17	6525.41
580.33	6581.59
580.49	6373.28
580.65	6466.90
580.82	6445.84
580.98	6462.22
581.14	6424.77
581.30	6576.91
581.46	6480.94
581.62	6516.05
581.78	6539.46
581.94	6604.99
582.10	6558.18
582.26	6738.40
582.42	6511.37
582.58	6546.48
582.74	6691.59
582.90	6586.27
583.06	6663.51
583.22	6544.14
583.38	6469.24
583.54	6403.71
583.70	6389.66
583.86	6736.06
584.02	6513.71
584.18	6696.27
584.34	6525.41
584.50	6609.67
584.66	6431.79
584.82	6399.02
584.98	6232.85
585.14	6279.66
585.30	6136.88
585.46	6176.67
585.62	5994.11
585.78	6174.33
585.94	6181.35
586.10	5951.98
586.26	6017.52
586.42	6263.27
586.58	6284.34
586.74	6146.25
586.90	6279.66
587.06	6267.95
587.22	5975.39
587.38	5823.25
587.54	5961.34
587.70	5757.72
587.86	5451.11
588.02	5362.17
588.18	5350.46
588.34	5172.58
588.49	4819.16
588.65	4486.81
588.81	4407.23
588.97	4418.93
589.13	4369.78
589.29	4428.29
589.45	4561.70
589.61	4395.53
589.77	4601.49
589.93	4868.31
590.08	5018.11
590.24	5015.77
590.40	5263.86
590.56	5270.89
590.72	5327.06
590.88	5025.13
591.04	5200.67
591.20	5256.84
591.35	5088.32
591.51	5039.17
591.67	4959.60
591.83	4882.36
591.99	4765.33
592.15	5036.83
592.31	5156.20
592.46	5313.02
592.62	5301.31
592.78	5385.57
592.94	5338.76
593.10	5439.40
593.26	5488.56
593.41	5624.31
593.57	5544.73
593.73	5308.34
593.89	5114.07
594.05	5015.77
594.20	4748.95
594.36	4662.35
594.52	4592.13
594.68	4777.03
594.84	4978.32
594.99	5195.99
595.15	5247.48
595.31	5217.05
595.47	5280.25
595.62	5336.42
595.78	5338.76
595.94	5310.68
596.10	5612.60
596.25	5472.17
596.41	5055.56
596.57	5078.96
596.73	5172.58
596.88	5240.46
597.04	5404.30
597.20	5291.95
597.36	5205.35
597.51	5130.45
597.67	5291.95
597.83	5320.04
597.99	5324.72
598.14	5261.52
598.30	5277.91
598.46	5451.11
598.61	5392.59
598.77	5315.36
598.93	5322.38
599.09	5334.08
599.24	5631.33
599.40	5619.63
599.56	5507.28
599.71	5533.03
599.87	5586.86
600.03	5467.49
600.18	5413.66
600.34	5582.18
600.50	5355.15
600.65	5479.19
600.81	5537.71
600.97	5420.68
601.12	5631.33
601.28	5575.16
601.44	5439.40
601.59	5369.19
601.75	5418.34
601.91	5497.92
602.06	5579.84
602.22	5526.00
602.37	5465.15
602.53	5495.58
602.69	5664.10
602.84	5504.94
603.00	5736.65
603.16	5607.92
603.31	5628.99
603.47	5682.82
603.62	5720.27
603.78	5631.33
603.94	5607.92
604.09	5607.92
604.25	5586.86
604.40	5500.26
604.56	5734.31
604.71	5696.86
604.87	5633.67
605.03	5626.65
605.18	5556.43
605.34	5495.58
605.49	5645.37
605.65	5640.69
605.80	5497.92
605.96	5563.45
606.12	5497.92
606.27	5521.32
606.43	5399.62
606.58	5453.45
606.74	5380.89
606.89	5528.35
607.05	5657.07
607.20	5563.45
607.36	5493.24
607.51	5441.75
607.67	5392.59
607.82	5343.44
607.98	5416.00
608.13	5259.18
608.29	5320.04
608.44	5364.51
608.60	5235.78
608.75	5296.63
608.91	5486.22
609.06	5359.83
609.22	5238.12
609.37	5411.32
609.53	5500.26
609.68	5284.93
609.84	5385.57
609.99	5301.31
610.15	5334.08
610.30	5481.53
610.46	5579.84
610.61	5685.16
610.76	6073.69
610.92	6125.18
611.07	6214.12
611.23	6136.88
611.38	5982.41
611.54	5909.85
611.69	5778.78
611.84	5731.97
612.00	5437.06
612.15	5188.97
612.31	5350.46
612.46	5408.98
612.62	5357.49
612.77	5359.83
612.92	5509.62
613.08	5434.72
613.23	5256.84
613.39	5219.39
613.54	4952.57
613.69	5039.17
613.85	5104.71
614.00	5041.51
614.15	5125.77
614.31	5121.09
614.46	5121.09
614.62	5158.54
614.77	5324.72
614.92	5263.86
615.08	5153.86
615.23	5046.20
615.38	4933.85
615.54	4985.34
615.69	4851.93
615.84	4674.05
616.00	4587.45
616.15	4711.50
616.30	4664.69
616.46	4704.48
616.61	4795.76
616.76	4924.49
616.92	4842.57
617.07	4924.49
617.22	4805.12
617.37	4891.72
617.53	4940.87
617.68	4821.50
617.83	4727.88
617.99	5022.79
618.14	4856.61
618.29	5004.07
618.45	4908.10
618.60	4854.27
618.75	4854.27
618.90	4702.14
619.06	4746.61
619.21	4697.46
619.36	4793.42
619.51	4924.49
619.67	4681.07
619.82	4676.39
619.97	4788.74
620.12	4748.95
620.28	4809.80
620.43	4807.46
620.58	4877.68
620.73	4966.62
620.89	4926.83
621.04	4816.82
621.19	4772.35
621.34	4643.62
621.49	4734.90
621.65	4676.39
621.80	4622.56
621.95	4734.90
622.10	4580.43
622.25	4524.26
622.41	4613.20
622.56	4521.92
622.71	4428.29
622.86	4409.57
623.01	4526.60
623.16	4634.26
623.32	4582.77
623.47	4557.02
623.62	4559.36
623.77	4526.60
623.92	4620.22
624.07	4444.68
624.23	4355.74
624.38	4437.66
624.53	4409.57
624.68	4629.58
624.83	4461.06
624.98	4308.93
625.13	4369.78
625.29	4362.76
625.44	4241.05
625.59	4201.26
625.74	4217.65
625.89	4269.14
626.04	4311.27
626.19	4287.86
626.34	4161.47
626.49	4369.78
626.65	4236.37
626.80	4243.39
626.95	4145.09
627.10	4245.73
627.25	4081.89
627.40	3901.67
627.55	3779.97
627.70	3681.66
627.85	3824.44
628.00	3796.35
628.15	3882.95
628.30	3868.91
628.45	4086.58
628.60	4044.45
628.76	4091.26
628.91	3962.53
629.06	4037.42
629.21	4014.02
629.36	3911.04
629.51	3843.16
629.66	3960.19
629.81	3852.52
629.96	3922.74
630.11	4018.70
630.26	4023.38
630.41	4224.67
630.56	4109.98
630.71	4063.17
630.86	4093.60
631.01	4175.52
631.16	4035.08
631.31	3976.57
631.46	3815.07
631.61	3878.27
631.76	3969.55
631.91	3875.93
632.06	3840.82
632.21	3859.54
632.36	3946.14
632.51	4131.05
632.66	3974.23
632.81	3887.63
632.96	3927.42
633.10	3906.35
633.25	3981.25
633.40	3805.71
633.55	3819.75
633.70	3920.40
633.85	3911.04
634.00	3740.18
634.15	3955.51
634.30	3925.08
634.45	3978.91
634.60	4032.74
634.75	3845.50
634.90	3962.53
635.05	4042.11
635.19	4058.49
635.34	3990.61
635.49	3906.35
635.64	3857.20
635.79	3740.18
635.94	3847.84
636.09	3948.48
636.24	3845.50
636.39	4021.04
636.53	3840.82
636.68	3854.86
636.83	3880.61
636.98	3929.76
637.13	3976.57
637.28	4039.76
637.43	3997.64
637.57	3843.16
637.72	3922.74
637.87	3875.93
638.02	3911.04
638.17	3983.59
638.32	3920.40
638.46	3878.27
638.61	3861.88
638.76	3831.46
638.91	3765.92
639.06	3702.73
639.20	3864.22
639.35	3885.29
639.50	3871.25
639.65	3751.88
639.80	3707.41
639.94	3665.28
640.09	3826.78
640.24	3686.34
640.39	3772.94
640.54	3684.00
640.68	3700.39
640.83	3592.72
640.98	3709.75
641.13	3623.15
641.27	3653.58
641.42	3623.15
641.57	3552.93
641.72	3723.79
641.86	3681.66
642.01	3529.53
642.16	3676.98
642.31	3700.39
642.45	3815.07
642.60	3672.30
642.75	3620.81
642.90	3583.36
643.04	3510.80
643.19	3501.44
643.34	3527.19
643.48	3737.84
643.63	3555.27
643.78	3552.93
643.93	3611.45
644.07	3597.40
644.22	3597.40
644.37	3564.64
644.51	3576.34
644.66	3634.85
644.81	3417.18
644.95	3475.70
645.10	3463.99
645.25	3372.71
645.39	3501.44
645.54	3337.60
645.69	3353.99
645.83	3201.85
645.98	3321.22
646.13	3187.81
646.27	3124.62
646.42	3126.96
646.57	3038.02
646.71	3169.09
646.86	3148.02
647.00	3129.30
647.15	3045.04
647.30	2867.16
647.44	2787.58
647.59	2839.07
647.74	2853.11
647.88	3019.29
648.03	2925.67
648.17	3047.38
648.32	2967.80
648.47	2993.55
648.61	2995.89
648.76	3007.59
648.90	2967.80
649.05	2944.39
649.20	2850.77
649.34	2813.32
649.49	2764.17
649.63	3035.67
649.78	3045.04
649.92	3185.47
650.07	3157.38
650.21	3229.94
650.36	3229.94
650.51	3279.09
650.65	3332.92
650.80	3253.34
650.94	3248.66
651.09	3141.00
651.23	3042.70
651.38	2935.03
651.52	2607.36
651.67	2731.41
651.81	2689.28
651.96	2892.90
652.10	3089.51
652.25	2974.82
652.39	3059.08
652.54	3141.00
652.68	3169.09
652.83	3279.09
652.97	3187.81
653.12	3068.44
653.26	3075.46
653.41	3178.45
653.55	3239.30
653.70	3030.99
653.84	3169.09
653.99	3080.14
654.13	2965.46
654.27	2998.23
654.42	2977.16
654.56	2920.99
654.71	2949.08
654.85	2928.01
655.00	2810.98
655.14	2825.03
655.29	2794.60
655.43	2679.91
655.57	2871.84
655.72	2630.76
655.86	2541.82
656.01	2331.17
656.15	2237.55
656.30	2272.66
656.44	2352.24
656.58	2511.39
656.73	2551.18
656.87	2743.11
657.01	2738.43
657.16	2876.52
657.30	2789.92
657.45	2993.55
657.59	3000.57
657.73	3014.61
657.88	3052.06
658.02	3009.93
658.16	3035.67
658.31	2916.31
658.45	2799.28
658.60	2782.90
658.74	3061.42
658.88	2904.60
659.03	2888.22
659.17	2951.42
659.31	2967.80
659.46	2846.09
659.60	3112.91
659.74	2867.16
659.89	2981.84
660.03	3019.29
660.17	3035.67
660.32	3000.57
660.46	2972.48
660.60	2942.05
660.74	3030.99
660.89	3061.42
661.03	2878.86
661.17	3068.44
661.32	3070.78
661.46	2979.50
661.60	3112.91
661.74	3112.91
661.89	3049.72
662.03	3103.55
662.17	3033.33
662.31	3042.70
662.46	3049.72
662.60	2920.99
662.74	2923.33
662.88	3005.25
663.03	2911.63
663.17	2878.86
663.31	2888.22
663.45	2963.12
663.60	2867.16
663.74	2813.32
663.88	3000.57
664.02	2965.46
664.17	2918.65
664.31	2925.67
664.45	2818.00
664.59	2958.44
664.73	2883.54
664.88	2970.14
665.02	2843.75
665.16	2825.03
665.30	2918.65
665.44	2862.48
665.59	2853.11
665.73	2684.59
665.87	2888.22
666.01	2729.06
666.15	2801.62
666.29	2803.96
666.44	2818.00
666.58	2796.94
666.72	2785.24
666.86	2792.26
667.00	2808.64
667.14	2829.71
667.28	2689.28
667.43	2712.68
667.57	2731.41
667.71	2729.06
667.85	2801.62
667.99	2871.84
668.13	2672.89
668.27	2810.98
668.41	2729.06
668.56	2799.28
668.70	2768.85
668.84	2640.12
668.98	2876.52
669.12	2808.64
669.26	2818.00
669.40	2803.96
669.54	2745.45
669.68	2682.25
669.82	2696.30
669.96	2555.86
670.10	2663.53
670.25	2654.17
670.39	2642.46
670.53	2600.34
670.67	2560.55
670.81	2637.78
670.95	2630.76
671.09	2616.72
671.23	2614.38
671.37	2593.31
671.51	2513.74
671.65	2590.97
671.79	2518.42
671.93	2539.48
672.07	2572.25
672.21	2626.08
672.35	2588.63
672.49	2513.74
672.63	2588.63
672.77	2534.80
672.91	2574.59
673.05	2469.27
673.19	2509.05
673.33	2600.34
673.47	2684.59
673.61	2520.76
673.75	2431.82
673.89	2492.67
674.03	2469.27
674.17	2492.67
674.31	2427.14
674.45	2427.14
674.59	2462.24
674.73	2434.16
674.87	2373.30
675.01	2420.11
675.15	2487.99
675.29	2293.72
675.43	2408.41
675.56	2511.39
675.70	2504.37
675.84	2349.90
675.98	2356.92
676.12	2335.85
676.26	2434.16
676.40	2406.07
676.54	2396.71
676.68	2307.77
676.82	2298.41
676.96	2321.81
677.10	2356.92
677.23	2349.90
677.37	2235.21
677.51	2321.81
677.65	2380.32
677.79	2303.09
677.93	2324.15
678.07	2228.19
678.21	2214.15
678.34	2326.49
678.48	2251.60
678.62	2225.85
678.76	2183.72
678.90	2195.42
679.04	2228.19
679.18	2181.38
679.31	2214.15
679.45	2157.97
679.59	2218.83
679.73	2239.89
679.87	2139.25
680.00	2193.08
680.14	2157.97
680.28	2129.89
680.42	2033.93
680.56	2146.27
680.70	2136.91
680.83	2146.27
680.97	2094.78
681.11	2115.84
681.25	2059.67
681.39	2097.12
681.52	2228.19
681.66	2115.84
681.80	2155.63
681.94	2113.50
682.07	1961.37
682.21	2150.95
682.35	1987.11
682.49	1952.01
682.62	2104.14
682.76	2036.27
682.90	2026.90
683.04	2031.58
683.17	1940.30
683.31	1935.62
683.45	2078.40
683.59	1944.99
683.72	1921.58
683.86	2001.16
684.00	1919.24
684.13	1947.33
684.27	1902.86
684.41	1898.17
684.55	1949.67
684.68	1813.92
684.82	1900.52
684.96	1916.90
685.09	1921.58
685.23	1856.04
685.37	1842.00
685.50	1846.68
685.64	1813.92
685.78	1853.70
685.91	1762.42
686.05	1860.73
686.19	1785.83
686.32	1797.53
686.46	1685.19
686.60	1334.11
686.73	1240.48
686.87	1086.01
687.01	1060.26
687.14	1069.62
687.28	1121.12
687.42	1181.97
687.55	1093.03
687.69	1242.82
687.82	1217.08
687.96	1460.49
688.10	1554.12
688.23	1565.82
688.37	1535.39
688.50	1469.86
688.64	1437.09
688.78	1299.00
688.91	1310.70
689.05	1287.29
689.18	1291.98
689.32	1336.45
689.46	1355.17
689.59	1366.87
689.73	1409.00
689.86	1322.40
690.00	1387.94
690.13	1345.81
690.27	1369.21
690.41	1420.71
690.54	1425.39
690.68	1437.09
690.81	1364.53
690.95	1399.64
691.08	1359.85
691.22	1380.92
691.35	1444.11
691.49	1329.42
691.62	1306.02
691.76	1371.55
691.89	1338.79
692.03	1369.21
692.16	1273.25
692.30	1320.06
692.43	1306.02
692.57	1231.12
692.70	1287.29
692.84	1233.46
692.97	1179.63
693.11	1158.57
693.24	1179.63
693.38	1153.88
693.51	1219.42
693.65	1160.91
693.78	1130.48
693.92	1128.14
694.05	1100.05
694.19	1053.24
694.32	1116.44
694.45	1067.28
694.59	1226.44
694.72	1130.48
694.86	1203.04
694.99	1111.75
695.13	1198.35
695.26	1109.41
695.39	1083.67
695.53	1156.22
695.66	1149.20
695.80	1111.75
695.93	1050.90
696.07	1217.08
696.20	1191.33
696.33	1254.53
696.47	1254.53
696.60	1254.53
696.73	1348.15
696.87	1299.00
697.00	1315.38
697.14	1364.53
697.27	1277.93
697.40	1270.91
697.54	1160.91
697.67	1238.14
697.80	1191.33
697.94	1277.93
698.07	1263.89
698.21	1245.16
698.34	1097.71
698.47	1090.69
698.61	933.87
698.74	1025.15
698.87	945.58
699.01	1022.81
699.14	994.73
699.27	1090.69
699.40	1160.91
699.54	1076.65
699.67	980.68
699.80	957.28
699.94	1006.43
700.07	1001.75
700.20	943.24
700.34	905.79
700.47	926.85
700.60	933.87
700.73	999.41
700.87	994.73
701.00	997.07
701.13	905.79
701.26	954.94
701.40	968.98
701.53	919.83
701.66	987.71
701.79	968.98
701.93	884.72
702.06	1004.09
702.19	940.90
702.32	917.49
702.46	882.38
702.59	880.04
702.72	901.11
702.85	936.21
702.99	919.83
703.12	1018.13
703.25	1093.03
703.38	1053.24
703.51	1086.01
703.65	994.73
703.78	943.24
703.91	884.72
704.04	933.87
704.17	912.81
704.31	882.38
704.44	1039.20
704.57	1057.92
704.70	940.90
704.83	964.30
704.96	924.51
705.10	873.02
705.23	889.40
>>>>>End Processed Spectral Data<<<<<
