SpectraSuite Data File
++++++++++++++++++++++++++++++++++++
Date: Fri Oct 04 11:47:19 GMT-05:00 2013
User: price-jones
Dark Spectrum Present: No
Reference Spectrum Present: No
Number of Sampled Component Spectra: 1
Spectrometers: USB2+H05261
Integration Time (usec): 100000 (USB2+H05261)
Spectra Averaged: 1 (USB2+H05261)
Boxcar Smoothing: 0 (USB2+H05261)
Correct for Electrical Dark: No (USB2+H05261)
Strobe/Lamp Enabled: No (USB2+H05261)
Correct for Detector Non-linearity: No (USB2+H05261)
Correct for Stray Light: No (USB2+H05261)
Number of Pixels in Processed Spectrum: 2048
>>>>>Begin Processed Spectral Data<<<<<
365.73	44.47
365.92	44.47
366.12	44.47
366.32	0.00
366.52	0.00
366.72	0.00
366.91	0.00
367.11	0.00
367.31	0.00
367.51	0.00
367.70	0.00
367.90	0.00
368.10	0.00
368.30	0.00
368.49	0.00
368.69	0.00
368.89	0.00
369.09	0.00
369.28	0.00
369.48	0.00
369.68	0.00
369.87	0.00
370.07	25.75
370.27	18.72
370.47	23.41
370.66	2.34
370.86	77.24
371.06	16.38
371.25	95.96
371.45	9.36
371.65	77.24
371.84	37.45
372.04	0.00
372.24	32.77
372.44	65.54
372.63	53.83
372.83	163.84
373.03	67.88
373.22	51.49
373.42	35.11
373.62	100.64
373.81	72.56
374.01	128.73
374.21	74.90
374.40	131.07
374.60	112.35
374.79	60.85
374.99	93.62
375.19	114.69
375.38	105.32
375.58	166.18
375.78	166.18
375.97	79.58
376.17	51.49
376.37	102.98
376.56	93.62
376.76	102.98
376.95	91.28
377.15	142.77
377.35	81.92
377.54	95.96
377.74	81.92
377.93	70.22
378.13	81.92
378.33	51.49
378.52	124.05
378.72	119.37
378.91	142.77
379.11	46.81
379.31	79.58
379.50	117.03
379.70	105.32
379.89	65.54
380.09	51.49
380.28	142.77
380.48	49.15
380.68	49.15
380.87	70.22
381.07	35.11
381.26	124.05
381.46	117.03
381.65	117.03
381.85	63.19
382.04	74.90
382.24	35.11
382.43	117.03
382.63	42.13
382.83	53.83
383.02	67.88
383.22	51.49
383.41	84.26
383.61	39.79
383.80	126.39
384.00	119.37
384.19	7.02
384.39	4.68
384.58	81.92
384.78	74.90
384.97	163.84
385.17	77.24
385.36	126.39
385.56	56.17
385.75	44.47
385.95	93.62
386.14	95.96
386.34	128.73
386.53	91.28
386.72	110.01
386.92	60.85
387.11	37.45
387.31	70.22
387.50	102.98
387.70	110.01
387.89	84.26
388.09	107.66
388.28	79.58
388.48	70.22
388.67	140.43
388.86	46.81
389.06	100.64
389.25	77.24
389.45	107.66
389.64	79.58
389.84	86.60
390.03	112.35
390.22	166.18
390.42	81.92
390.61	79.58
390.81	46.81
391.00	16.38
391.19	152.13
391.39	93.62
391.58	126.39
391.78	112.35
391.97	161.50
392.16	163.84
392.36	182.56
392.55	110.01
392.75	84.26
392.94	39.79
393.13	131.07
393.33	128.73
393.52	110.01
393.71	105.32
393.91	102.98
394.10	60.85
394.29	114.69
394.49	145.11
394.68	128.73
394.88	156.82
395.07	124.05
395.26	72.56
395.46	95.96
395.65	196.60
395.84	142.77
396.04	224.69
396.23	156.82
396.42	51.49
396.62	114.69
396.81	140.43
397.00	25.75
397.19	91.28
397.39	119.37
397.58	112.35
397.77	117.03
397.97	133.41
398.16	110.01
398.35	175.54
398.55	44.47
398.74	159.16
398.93	25.75
399.12	107.66
399.32	135.75
399.51	112.35
399.70	107.66
399.90	100.64
400.09	142.77
400.28	67.88
400.47	58.51
400.67	84.26
400.86	145.11
401.05	145.11
401.24	166.18
401.44	121.71
401.63	135.75
401.82	95.96
402.01	72.56
402.21	93.62
402.40	128.73
402.59	86.60
402.78	100.64
402.97	63.19
403.17	102.98
403.36	77.24
403.55	105.32
403.74	102.98
403.93	124.05
404.13	128.73
404.32	159.16
404.51	119.37
404.70	140.43
404.89	37.45
405.09	177.88
405.28	98.30
405.47	84.26
405.66	79.58
405.85	74.90
406.05	124.05
406.24	117.03
406.43	84.26
406.62	126.39
406.81	79.58
407.00	63.19
407.20	105.32
407.39	131.07
407.58	126.39
407.77	198.95
407.96	168.52
408.15	133.41
408.34	63.19
408.54	72.56
408.73	159.16
408.92	84.26
409.11	110.01
409.30	114.69
409.49	119.37
409.68	74.90
409.87	74.90
410.07	72.56
410.26	124.05
410.45	126.39
410.64	88.94
410.83	135.75
411.02	156.82
411.21	117.03
411.40	170.86
411.59	72.56
411.78	105.32
411.98	121.71
412.17	86.60
412.36	65.54
412.55	60.85
412.74	168.52
412.93	154.48
413.12	56.17
413.31	138.09
413.50	88.94
413.69	93.62
413.88	121.71
414.07	184.90
414.26	117.03
414.45	107.66
414.64	121.71
414.83	117.03
415.02	44.47
415.22	128.73
415.41	154.48
415.60	126.39
415.79	177.88
415.98	119.37
416.17	112.35
416.36	128.73
416.55	42.13
416.74	187.24
416.93	98.30
417.12	163.84
417.31	135.75
417.50	170.86
417.69	222.35
417.88	243.42
418.07	56.17
418.26	135.75
418.45	212.99
418.64	217.67
418.83	142.77
419.02	198.95
419.21	147.45
419.39	170.86
419.58	194.26
419.77	159.16
419.96	227.03
420.15	168.52
420.34	147.45
420.53	163.84
420.72	152.13
420.91	14.04
421.10	102.98
421.29	95.96
421.48	154.48
421.67	98.30
421.86	81.92
422.05	114.69
422.24	149.79
422.43	166.18
422.61	86.60
422.80	93.62
422.99	135.75
423.18	142.77
423.37	126.39
423.56	145.11
423.75	42.13
423.94	86.60
424.13	95.96
424.32	135.75
424.50	121.71
424.69	142.77
424.88	184.90
425.07	77.24
425.26	100.64
425.45	205.97
425.64	283.20
425.83	222.35
426.01	201.29
426.20	79.58
426.39	65.54
426.58	77.24
426.77	156.82
426.96	191.92
427.15	121.71
427.33	91.28
427.52	93.62
427.71	194.26
427.90	145.11
428.09	110.01
428.28	74.90
428.46	126.39
428.65	168.52
428.84	86.60
429.03	159.16
429.22	65.54
429.40	91.28
429.59	147.45
429.78	159.16
429.97	107.66
430.16	107.66
430.34	42.13
430.53	142.77
430.72	128.73
430.91	156.82
431.10	117.03
431.28	74.90
431.47	119.37
431.66	208.31
431.85	154.48
432.03	131.07
432.22	177.88
432.41	114.69
432.60	198.95
432.79	170.86
432.97	191.92
433.16	236.39
433.35	198.95
433.54	140.43
433.72	138.09
433.91	100.64
434.10	128.73
434.28	112.35
434.47	95.96
434.66	149.79
434.85	74.90
435.03	128.73
435.22	154.48
435.41	205.97
435.59	56.17
435.78	91.28
435.97	95.96
436.16	126.39
436.34	84.26
436.53	210.65
436.72	88.94
436.90	93.62
437.09	133.41
437.28	126.39
437.46	145.11
437.65	191.92
437.84	119.37
438.02	170.86
438.21	140.43
438.40	124.05
438.58	124.05
438.77	84.26
438.96	86.60
439.14	91.28
439.33	187.24
439.52	107.66
439.70	95.96
439.89	145.11
440.08	135.75
440.26	95.96
440.45	138.09
440.63	107.66
440.82	133.41
441.01	93.62
441.19	86.60
441.38	67.88
441.57	194.26
441.75	154.48
441.94	212.99
442.12	140.43
442.31	88.94
442.50	84.26
442.68	131.07
442.87	126.39
443.05	140.43
443.24	191.92
443.43	91.28
443.61	201.29
443.80	117.03
443.98	110.01
444.17	110.01
444.35	205.97
444.54	58.51
444.73	131.07
444.91	163.84
445.10	21.06
445.28	84.26
445.47	37.45
445.65	67.88
445.84	135.75
446.02	177.88
446.21	208.31
446.39	156.82
446.58	177.88
446.77	168.52
446.95	105.32
447.14	98.30
447.32	182.56
447.51	126.39
447.69	187.24
447.88	35.11
448.06	79.58
448.25	112.35
448.43	98.30
448.62	161.50
448.80	86.60
448.99	163.84
449.17	124.05
449.36	149.79
449.54	149.79
449.73	112.35
449.91	114.69
450.10	124.05
450.28	210.65
450.46	245.76
450.65	168.52
450.83	110.01
451.02	154.48
451.20	163.84
451.39	107.66
451.57	142.77
451.76	156.82
451.94	149.79
452.13	184.90
452.31	60.85
452.49	110.01
452.68	175.54
452.86	124.05
453.05	140.43
453.23	86.60
453.42	93.62
453.60	140.43
453.78	74.90
453.97	95.96
454.15	114.69
454.34	65.54
454.52	133.41
454.70	163.84
454.89	112.35
455.07	95.96
455.26	184.90
455.44	198.95
455.62	133.41
455.81	91.28
455.99	91.28
456.17	135.75
456.36	98.30
456.54	60.85
456.73	147.45
456.91	65.54
457.09	152.13
457.28	124.05
457.46	159.16
457.64	152.13
457.83	95.96
458.01	161.50
458.19	194.26
458.38	168.52
458.56	121.71
458.74	128.73
458.93	126.39
459.11	168.52
459.29	140.43
459.48	208.31
459.66	224.69
459.84	53.83
460.03	173.20
460.21	180.22
460.39	126.39
460.57	128.73
460.76	124.05
460.94	124.05
461.12	203.63
461.31	145.11
461.49	110.01
461.67	112.35
461.85	91.28
462.04	140.43
462.22	585.13
462.40	126.39
462.59	138.09
462.77	126.39
462.95	198.95
463.13	107.66
463.32	124.05
463.50	248.10
463.68	156.82
463.86	112.35
464.05	88.94
464.23	105.32
464.41	159.16
464.59	138.09
464.78	124.05
464.96	84.26
465.14	138.09
465.32	42.13
465.50	124.05
465.69	138.09
465.87	168.52
466.05	198.95
466.23	65.54
466.41	147.45
466.60	114.69
466.78	177.88
466.96	124.05
467.14	147.45
467.32	107.66
467.51	142.77
467.69	201.29
467.87	154.48
468.05	119.37
468.23	187.24
468.41	168.52
468.60	138.09
468.78	168.52
468.96	187.24
469.14	191.92
469.32	81.92
469.50	84.26
469.69	198.95
469.87	159.16
470.05	135.75
470.23	117.03
470.41	135.75
470.59	135.75
470.77	102.98
470.95	84.26
471.14	180.22
471.32	156.82
471.50	175.54
471.68	135.75
471.86	229.37
472.04	131.07
472.22	124.05
472.40	119.37
472.58	187.24
472.77	212.99
472.95	74.90
473.13	203.63
473.31	149.79
473.49	98.30
473.67	114.69
473.85	238.73
474.03	191.92
474.21	135.75
474.39	166.18
474.57	234.05
474.75	161.50
474.93	65.54
475.12	168.52
475.30	145.11
475.48	114.69
475.66	177.88
475.84	182.56
476.02	173.20
476.20	196.60
476.38	161.50
476.56	205.97
476.74	102.98
476.92	149.79
477.10	102.98
477.28	149.79
477.46	60.85
477.64	166.18
477.82	175.54
478.00	140.43
478.18	126.39
478.36	105.32
478.54	81.92
478.72	147.45
478.90	126.39
479.08	107.66
479.26	121.71
479.44	135.75
479.62	70.22
479.80	91.28
479.98	257.46
480.16	215.33
480.34	175.54
480.52	147.45
480.70	149.79
480.88	145.11
481.06	163.84
481.24	133.41
481.41	182.56
481.59	156.82
481.77	114.69
481.95	149.79
482.13	210.65
482.31	248.10
482.49	180.22
482.67	215.33
482.85	191.92
483.03	182.56
483.21	126.39
483.39	140.43
483.57	168.52
483.74	250.44
483.92	173.20
484.10	140.43
484.28	231.71
484.46	238.73
484.64	201.29
484.82	86.60
485.00	222.35
485.18	140.43
485.35	72.56
485.53	95.96
485.71	231.71
485.89	208.31
486.07	128.73
486.25	140.43
486.43	208.31
486.61	177.88
486.78	159.16
486.96	145.11
487.14	189.58
487.32	187.24
487.50	147.45
487.68	135.75
487.85	58.51
488.03	187.24
488.21	205.97
488.39	180.22
488.57	152.13
488.75	201.29
488.92	433.00
489.10	189.58
489.28	154.48
489.46	159.16
489.64	194.26
489.81	124.05
489.99	156.82
490.17	168.52
490.35	187.24
490.53	189.58
490.70	191.92
490.88	177.88
491.06	173.20
491.24	236.39
491.41	166.18
491.59	121.71
491.77	107.66
491.95	138.09
492.13	177.88
492.30	215.33
492.48	110.01
492.66	198.95
492.84	170.86
493.01	161.50
493.19	168.52
493.37	250.44
493.54	177.88
493.72	152.13
493.90	205.97
494.08	170.86
494.25	161.50
494.43	156.82
494.61	208.31
494.79	159.16
494.96	196.60
495.14	166.18
495.32	180.22
495.49	175.54
495.67	156.82
495.85	102.98
496.02	208.31
496.20	250.44
496.38	257.46
496.55	170.86
496.73	210.65
496.91	124.05
497.09	215.33
497.26	224.69
497.44	278.52
497.62	126.39
497.79	168.52
497.97	212.99
498.14	201.29
498.32	149.79
498.50	208.31
498.67	107.66
498.85	234.05
499.03	201.29
499.20	191.92
499.38	224.69
499.56	142.77
499.73	170.86
499.91	215.33
500.08	224.69
500.26	182.56
500.44	175.54
500.61	215.33
500.79	154.48
500.97	147.45
501.14	208.31
501.32	191.92
501.49	208.31
501.67	91.28
501.84	208.31
502.02	168.52
502.20	154.48
502.37	184.90
502.55	131.07
502.72	273.84
502.90	238.73
503.07	152.13
503.25	248.10
503.43	135.75
503.60	177.88
503.78	210.65
503.95	128.73
504.13	198.95
504.30	217.67
504.48	210.65
504.65	283.20
504.83	180.22
505.01	196.60
505.18	229.37
505.36	184.90
505.53	231.71
505.71	142.77
505.88	198.95
506.06	180.22
506.23	203.63
506.41	126.39
506.58	175.54
506.76	191.92
506.93	287.89
507.11	255.12
507.28	156.82
507.46	177.88
507.63	243.42
507.81	166.18
507.98	196.60
508.16	159.16
508.33	217.67
508.50	222.35
508.68	149.79
508.85	215.33
509.03	140.43
509.20	168.52
509.38	255.12
509.55	262.14
509.73	227.03
509.90	191.92
510.08	201.29
510.25	191.92
510.42	154.48
510.60	119.37
510.77	198.95
510.95	252.78
511.12	156.82
511.30	248.10
511.47	285.55
511.64	299.59
511.82	236.39
511.99	236.39
512.17	238.73
512.34	182.56
512.51	175.54
512.69	229.37
512.86	227.03
513.04	170.86
513.21	126.39
513.38	173.20
513.56	168.52
513.73	215.33
513.90	138.09
514.08	166.18
514.25	205.97
514.43	241.08
514.60	203.63
514.77	173.20
514.95	231.71
515.12	229.37
515.29	156.82
515.47	201.29
515.64	222.35
515.81	208.31
515.99	287.89
516.16	248.10
516.33	264.48
516.51	152.13
516.68	234.05
516.85	154.48
517.03	241.08
517.20	194.26
517.37	187.24
517.54	201.29
517.72	250.44
517.89	201.29
518.06	168.52
518.24	264.48
518.41	238.73
518.58	255.12
518.75	191.92
518.93	208.31
519.10	189.58
519.27	271.50
519.45	152.13
519.62	163.84
519.79	257.46
519.96	184.90
520.14	280.86
520.31	173.20
520.48	191.92
520.65	196.60
520.83	266.82
521.00	210.65
521.17	266.82
521.34	117.03
521.52	234.05
521.69	191.92
521.86	262.14
522.03	229.37
522.20	238.73
522.38	196.60
522.55	220.01
522.72	166.18
522.89	212.99
523.07	250.44
523.24	243.42
523.41	236.39
523.58	222.35
523.75	215.33
523.92	182.56
524.10	224.69
524.27	154.48
524.44	187.24
524.61	236.39
524.78	152.13
524.96	217.67
525.13	248.10
525.30	262.14
525.47	252.78
525.64	177.88
525.81	189.58
525.98	245.76
526.16	208.31
526.33	250.44
526.50	205.97
526.67	175.54
526.84	173.20
527.01	201.29
527.18	283.20
527.36	278.52
527.53	191.92
527.70	255.12
527.87	140.43
528.04	297.25
528.21	292.57
528.38	145.11
528.55	194.26
528.72	196.60
528.89	285.55
529.07	194.26
529.24	166.18
529.41	250.44
529.58	252.78
529.75	252.78
529.92	182.56
530.09	191.92
530.26	191.92
530.43	241.08
530.60	168.52
530.77	182.56
530.94	194.26
531.11	184.90
531.28	194.26
531.46	166.18
531.63	210.65
531.80	166.18
531.97	255.12
532.14	175.54
532.31	238.73
532.48	215.33
532.65	283.20
532.82	393.21
532.99	433.00
533.16	304.27
533.33	313.63
533.50	250.44
533.67	344.06
533.84	334.70
534.01	341.72
534.18	322.99
534.35	308.95
534.52	236.39
534.69	313.63
534.86	278.52
535.03	201.29
535.20	217.67
535.37	278.52
535.54	280.86
535.71	245.76
535.88	266.82
536.05	255.12
536.22	156.82
536.38	212.99
536.55	189.58
536.72	184.90
536.89	117.03
537.06	220.01
537.23	180.22
537.40	217.67
537.57	245.76
537.74	215.33
537.91	234.05
538.08	245.76
538.25	241.08
538.42	205.97
538.59	198.95
538.75	175.54
538.92	128.73
539.09	285.55
539.26	215.33
539.43	407.25
539.60	1090.69
539.77	1633.69
539.94	1706.25
540.11	992.39
540.28	657.69
540.44	437.68
540.61	294.91
540.78	252.78
540.95	257.46
541.12	306.61
541.29	156.82
541.46	154.48
541.62	210.65
541.79	212.99
541.96	227.03
542.13	187.24
542.30	250.44
542.47	198.95
542.63	208.31
542.80	196.60
542.97	212.99
543.14	273.84
543.31	243.42
543.48	173.20
543.64	255.12
543.81	236.39
543.98	203.63
544.15	121.71
544.32	98.30
544.48	252.78
544.65	177.88
544.82	203.63
544.99	236.39
545.16	220.01
545.32	194.26
545.49	236.39
545.66	203.63
545.83	220.01
546.00	205.97
546.16	220.01
546.33	182.56
546.50	205.97
546.67	222.35
546.83	210.65
547.00	154.48
547.17	196.60
547.34	290.23
547.50	259.80
547.67	184.90
547.84	161.50
548.00	224.69
548.17	175.54
548.34	241.08
548.51	187.24
548.67	276.18
548.84	187.24
549.01	175.54
549.18	217.67
549.34	215.33
549.51	266.82
549.68	234.05
549.84	276.18
550.01	196.60
550.18	315.97
550.34	257.46
550.51	175.54
550.68	290.23
550.84	184.90
551.01	285.55
551.18	231.71
551.34	194.26
551.51	191.92
551.68	173.20
551.84	175.54
552.01	220.01
552.18	142.77
552.34	238.73
552.51	180.22
552.68	276.18
552.84	255.12
553.01	241.08
553.18	184.90
553.34	184.90
553.51	229.37
553.67	224.69
553.84	285.55
554.01	201.29
554.17	257.46
554.34	175.54
554.51	238.73
554.67	252.78
554.84	163.84
555.00	156.82
555.17	138.09
555.33	203.63
555.50	224.69
555.67	241.08
555.83	196.60
556.00	224.69
556.16	381.51
556.33	238.73
556.50	231.71
556.66	269.16
556.83	196.60
556.99	196.60
557.16	198.95
557.32	189.58
557.49	166.18
557.65	198.95
557.82	184.90
557.98	152.13
558.15	173.20
558.32	215.33
558.48	149.79
558.65	243.42
558.81	147.45
558.98	168.52
559.14	229.37
559.31	262.14
559.47	280.86
559.64	138.09
559.80	170.86
559.97	161.50
560.13	166.18
560.30	210.65
560.46	201.29
560.63	227.03
560.79	156.82
560.96	191.92
561.12	161.50
561.29	285.55
561.45	210.65
561.61	184.90
561.78	234.05
561.94	189.58
562.11	198.95
562.27	210.65
562.44	191.92
562.60	220.01
562.77	196.60
562.93	212.99
563.10	196.60
563.26	222.35
563.42	201.29
563.59	205.97
563.75	194.26
563.92	245.76
564.08	210.65
564.24	231.71
564.41	208.31
564.57	205.97
564.74	189.58
564.90	182.56
565.07	280.86
565.23	290.23
565.39	170.86
565.56	264.48
565.72	243.42
565.88	346.40
566.05	215.33
566.21	198.95
566.38	173.20
566.54	145.11
566.70	147.45
566.87	217.67
567.03	196.60
567.19	229.37
567.36	170.86
567.52	175.54
567.68	224.69
567.85	264.48
568.01	182.56
568.17	205.97
568.34	140.43
568.50	231.71
568.66	170.86
568.83	304.27
568.99	252.78
569.15	262.14
569.32	212.99
569.48	177.88
569.64	112.35
569.81	154.48
569.97	154.48
570.13	149.79
570.30	243.42
570.46	168.52
570.62	250.44
570.78	173.20
570.95	229.37
571.11	208.31
571.27	250.44
571.43	177.88
571.60	149.79
571.76	210.65
571.92	222.35
572.09	154.48
572.25	238.73
572.41	210.65
572.57	215.33
572.74	201.29
572.90	266.82
573.06	236.39
573.22	285.55
573.38	234.05
573.55	191.92
573.71	250.44
573.87	271.50
574.03	170.86
574.20	238.73
574.36	299.59
574.52	266.82
574.68	292.57
574.84	264.48
575.01	259.80
575.17	287.89
575.33	198.95
575.49	210.65
575.65	280.86
575.82	325.33
575.98	648.33
576.14	669.39
576.30	704.50
576.46	505.56
576.62	423.64
576.79	330.02
576.95	348.74
577.11	147.45
577.27	184.90
577.43	262.14
577.59	304.27
577.75	210.65
577.92	271.50
578.08	198.95
578.24	201.29
578.40	255.12
578.56	248.10
578.72	304.27
578.88	236.39
579.04	280.86
579.21	241.08
579.37	245.76
579.53	145.11
579.69	320.65
579.85	266.82
580.01	341.72
580.17	311.29
580.33	341.72
580.49	437.68
580.65	325.33
580.82	306.61
580.98	278.52
581.14	280.86
581.30	337.04
581.46	381.51
581.62	533.64
581.78	592.16
581.94	561.73
582.10	526.62
582.26	451.72
582.42	400.23
582.58	393.21
582.74	341.72
582.90	423.64
583.06	493.85
583.22	433.00
583.38	418.96
583.54	535.98
583.70	617.90
583.86	664.71
584.02	760.67
584.18	936.21
584.34	1231.12
584.50	3162.06
584.66	23452.17
584.82	57041.20
584.98	65535.00
585.14	65535.00
585.30	52687.80
585.46	32034.91
585.62	19971.79
585.78	9167.88
585.94	3412.50
586.10	1694.55
586.26	1088.35
586.42	842.59
586.58	657.69
586.74	535.98
586.90	547.69
587.06	493.85
587.22	498.53
587.38	430.66
587.54	1235.80
587.70	3442.93
587.86	6143.91
588.02	7372.69
588.18	5032.15
588.34	3148.02
588.49	2040.95
588.65	1193.67
588.81	608.54
588.97	425.98
589.13	381.51
589.29	358.10
589.45	341.72
589.61	318.31
589.77	362.78
589.93	477.47
590.08	440.02
590.24	442.36
590.40	418.96
590.56	416.62
590.72	339.38
590.88	276.18
591.04	374.49
591.20	311.29
591.35	308.95
591.51	264.48
591.67	269.16
591.83	304.27
591.99	250.44
592.15	313.63
592.31	285.55
592.46	285.55
592.62	236.39
592.78	308.95
592.94	217.67
593.10	266.82
593.26	322.99
593.41	297.25
593.57	334.70
593.73	547.69
593.89	2794.60
594.05	7634.83
594.20	12248.02
594.36	11585.65
594.52	7473.33
594.68	4688.09
594.84	3030.99
594.99	1605.61
595.15	695.14
595.31	447.04
595.47	444.70
595.62	248.10
595.78	255.12
595.94	290.23
596.10	362.78
596.25	318.31
596.41	416.62
596.57	330.02
596.73	273.84
596.88	535.98
597.04	1488.58
597.20	2483.31
597.36	3000.57
597.51	2284.36
597.67	1479.22
597.83	980.68
597.99	713.86
598.14	447.04
598.30	318.31
598.46	262.14
598.61	280.86
598.77	297.25
598.93	271.50
599.09	250.44
599.24	290.23
599.40	259.80
599.56	229.37
599.71	250.44
599.87	208.31
600.03	271.50
600.18	210.65
600.34	245.76
600.50	264.48
600.65	187.24
600.81	222.35
600.97	170.86
601.12	156.82
601.28	182.56
601.44	187.24
601.59	210.65
601.75	264.48
601.91	231.71
602.06	231.71
602.22	358.10
602.37	732.59
602.53	1809.23
602.69	2881.20
602.84	3372.71
603.00	2202.44
603.16	1523.69
603.31	1114.10
603.47	674.07
603.62	421.30
603.78	358.10
603.94	315.97
604.09	362.78
604.25	234.05
604.40	308.95
604.56	187.24
604.71	180.22
604.87	229.37
605.03	278.52
605.18	252.78
605.34	285.55
605.49	292.57
605.65	344.06
605.80	297.25
605.96	238.73
606.12	276.18
606.27	299.59
606.43	334.70
606.58	414.27
606.74	814.51
606.89	3527.19
607.05	7372.69
607.20	10368.57
607.36	8865.95
607.51	5757.72
607.67	3819.75
607.82	2499.69
607.98	1336.45
608.13	674.07
608.29	519.60
608.44	519.60
608.60	437.68
608.75	475.13
608.91	1081.33
609.06	5420.68
609.22	12292.49
609.37	18082.98
609.53	15775.21
609.68	10452.83
609.84	6562.86
609.99	4308.93
610.15	2263.30
610.30	1011.11
610.46	547.69
610.61	449.38
610.76	390.87
610.92	397.89
611.07	337.04
611.23	416.62
611.38	325.33
611.54	161.50
611.69	330.02
611.84	337.04
612.00	231.71
612.15	301.93
612.31	388.53
612.46	538.32
612.62	720.88
612.77	706.84
612.92	653.01
613.08	503.22
613.23	589.82
613.39	510.24
613.54	833.23
613.69	4849.59
613.85	15161.99
614.00	26396.56
614.15	29111.58
614.31	20271.38
614.46	12786.35
614.62	8594.45
614.77	5022.79
614.92	2303.09
615.08	1081.33
615.23	620.24
615.38	554.71
615.54	454.06
615.69	863.66
615.84	2860.13
616.00	5504.94
616.15	7283.75
616.30	5949.64
616.46	4081.89
616.61	2612.04
616.76	1802.21
616.92	931.53
617.07	559.39
617.22	285.55
617.37	224.69
617.53	292.57
617.68	308.95
617.83	346.40
617.99	290.23
618.14	264.48
618.29	304.27
618.45	301.93
618.60	210.65
618.75	255.12
618.90	166.18
619.06	217.67
619.21	327.68
619.36	217.67
619.51	138.09
619.67	208.31
619.82	140.43
619.97	255.12
620.12	257.46
620.28	210.65
620.43	201.29
620.58	264.48
620.73	313.63
620.89	236.39
621.04	477.47
621.19	1556.46
621.34	3091.85
621.49	4449.36
621.65	3845.50
621.80	2710.34
621.95	1879.45
622.10	1238.14
622.25	739.61
622.41	416.62
622.56	339.38
622.71	257.46
622.86	283.20
623.01	161.50
623.16	238.73
623.32	299.59
623.47	271.50
623.62	278.52
623.77	191.92
623.92	189.58
624.07	208.31
624.23	208.31
624.38	234.05
624.53	231.71
624.68	255.12
624.83	248.10
624.98	217.67
625.13	166.18
625.29	315.97
625.44	245.76
625.59	292.57
625.74	386.19
625.89	559.39
626.04	2338.20
626.19	7438.22
626.34	13193.60
626.49	15122.20
626.65	11009.88
626.80	7433.54
626.95	4779.37
627.10	3087.17
627.25	1495.60
627.40	596.84
627.55	470.45
627.70	320.65
627.85	276.18
628.00	278.52
628.15	285.55
628.30	140.43
628.45	220.01
628.60	182.56
628.76	198.95
628.91	212.99
629.06	203.63
629.21	262.14
629.36	264.48
629.51	271.50
629.66	201.29
629.81	428.32
629.96	1320.06
630.11	2548.84
630.26	3730.81
630.41	3295.47
630.56	2455.22
630.71	1666.46
630.86	1153.88
631.01	702.16
631.16	433.00
631.31	337.04
631.46	257.46
631.61	184.90
631.76	212.99
631.91	252.78
632.06	243.42
632.21	198.95
632.36	330.02
632.51	362.78
632.66	461.09
632.81	1193.67
632.96	4154.45
633.10	7824.41
633.25	10331.12
633.40	8276.13
633.55	5671.12
633.70	3681.66
633.85	2558.21
634.00	1303.68
634.15	660.03
634.30	421.30
634.45	341.72
634.60	290.23
634.75	250.44
634.90	292.57
635.05	269.16
635.19	234.05
635.34	215.33
635.49	224.69
635.64	259.80
635.79	241.08
635.94	208.31
636.09	262.14
636.24	252.78
636.39	215.33
636.53	308.95
636.68	252.78
636.83	299.59
636.98	322.99
637.13	262.14
637.28	393.21
637.43	437.68
637.57	725.57
637.72	3286.11
637.87	9626.62
638.02	16601.42
638.17	19887.53
638.32	14317.06
638.46	9476.83
638.61	6253.91
638.76	3875.93
638.91	1970.73
639.06	938.55
639.20	653.01
639.35	568.75
639.50	961.96
639.65	4961.94
639.80	15248.59
639.94	26094.63
640.09	29886.30
640.24	21905.07
640.39	14136.84
640.54	9614.92
640.68	5694.52
640.83	2757.15
640.98	1184.31
641.13	650.67
641.27	521.94
641.42	367.46
641.57	358.10
641.72	299.59
641.86	301.93
642.01	280.86
642.16	236.39
642.31	238.73
642.45	294.91
642.60	229.37
642.75	215.33
642.90	266.82
643.04	227.03
643.19	149.79
643.34	177.88
643.48	166.18
643.63	210.65
643.78	241.08
643.93	196.60
644.07	159.16
644.22	248.10
644.37	187.24
644.51	189.58
644.66	224.69
644.81	102.98
644.95	198.95
645.10	241.08
645.25	203.63
645.39	292.57
645.54	227.03
645.69	201.29
645.83	145.11
645.98	269.16
646.13	196.60
646.27	212.99
646.42	175.54
646.57	124.05
646.71	245.76
646.86	234.05
647.00	210.65
647.15	203.63
647.30	198.95
647.44	224.69
647.59	159.16
647.74	220.01
647.88	189.58
648.03	72.56
648.17	236.39
648.32	234.05
648.47	227.03
648.61	173.20
648.76	222.35
648.90	161.50
649.05	208.31
649.20	152.13
649.34	224.69
649.49	243.42
649.63	257.46
649.78	259.80
649.92	388.53
650.07	1930.94
650.21	6534.78
650.36	11925.03
650.51	15194.76
650.65	12470.37
650.80	8936.17
650.94	5748.36
651.09	3597.40
651.23	1933.28
651.38	922.17
651.52	397.89
651.67	308.95
651.81	337.04
651.96	294.91
652.10	315.97
652.25	297.25
652.39	276.18
652.54	276.18
652.68	615.56
652.83	1975.41
652.97	3901.67
653.12	5130.45
653.26	4788.74
653.41	3267.39
653.55	2410.75
653.70	1554.12
653.84	791.10
653.99	465.77
654.13	269.16
654.27	292.57
654.42	217.67
654.56	203.63
654.71	166.18
654.85	168.52
655.00	194.26
655.14	156.82
655.29	159.16
655.43	145.11
655.57	131.07
655.72	152.13
655.86	196.60
656.01	145.11
656.15	119.37
656.30	205.97
656.44	194.26
656.58	154.48
656.73	166.18
656.87	88.94
657.01	189.58
657.16	243.42
657.30	191.92
657.45	131.07
657.59	180.22
657.73	231.71
657.88	166.18
658.02	175.54
658.16	229.37
658.31	152.13
658.45	173.20
658.60	180.22
658.74	95.96
658.88	149.79
659.03	224.69
659.17	322.99
659.31	800.46
659.46	2818.00
659.60	5493.24
659.74	7339.92
659.89	6635.42
660.03	4889.38
660.17	3187.81
660.32	1895.83
660.46	1191.33
660.60	631.94
660.74	421.30
660.89	283.20
661.03	147.45
661.17	56.17
661.32	205.97
661.46	161.50
661.60	119.37
661.74	117.03
661.89	173.20
662.03	159.16
662.17	163.84
662.31	229.37
662.46	140.43
662.60	191.92
662.74	196.60
662.88	156.82
663.03	133.41
663.17	154.48
663.31	210.65
663.45	159.16
663.60	154.48
663.74	140.43
663.88	56.17
664.02	105.32
664.17	191.92
664.31	65.54
664.45	159.16
664.59	159.16
664.73	198.95
664.88	154.48
665.02	161.50
665.16	208.31
665.30	264.48
665.44	142.77
665.59	243.42
665.73	182.56
665.87	212.99
666.01	170.86
666.15	241.08
666.29	210.65
666.44	283.20
666.58	222.35
666.72	215.33
666.86	205.97
667.00	294.91
667.14	517.26
667.28	1654.76
667.43	5385.57
667.57	10019.83
667.71	12903.37
667.85	11206.48
667.99	8224.64
668.13	5266.21
668.27	2951.42
668.41	1666.46
668.56	985.37
668.70	585.13
668.84	355.76
668.98	330.02
669.12	238.73
669.26	257.46
669.40	306.61
669.54	259.80
669.68	175.54
669.82	175.54
669.96	201.29
670.10	201.29
670.25	182.56
670.39	205.97
670.53	163.84
670.67	163.84
670.81	210.65
670.95	149.79
671.09	526.62
671.23	2031.58
671.37	4477.44
671.51	7150.34
671.65	8086.55
671.79	6246.89
671.93	4301.90
672.07	2544.16
672.21	1497.94
672.35	812.17
672.49	475.13
672.63	395.55
672.77	210.65
672.91	248.10
673.05	131.07
673.19	238.73
673.33	74.90
673.47	152.13
673.61	175.54
673.75	173.20
673.89	210.65
674.03	138.09
674.17	173.20
674.31	182.56
674.45	175.54
674.59	196.60
674.73	234.05
674.87	149.79
675.01	175.54
675.15	276.18
675.29	271.50
675.43	243.42
675.56	264.48
675.70	180.22
675.84	166.18
675.98	138.09
676.12	121.71
676.26	154.48
676.40	152.13
676.54	114.69
676.68	105.32
676.82	145.11
676.96	107.66
677.10	152.13
677.23	105.32
677.37	112.35
677.51	110.01
677.65	229.37
677.79	149.79
677.93	110.01
678.07	154.48
678.21	138.09
678.34	173.20
678.48	166.18
678.62	173.20
678.76	105.32
678.90	203.63
679.04	166.18
679.18	231.71
679.31	156.82
679.45	170.86
679.59	191.92
679.73	177.88
679.87	67.88
680.00	140.43
680.14	117.03
680.28	133.41
680.42	84.26
680.56	191.92
680.70	159.16
680.83	145.11
680.97	133.41
681.11	100.64
681.25	140.43
681.39	191.92
681.52	100.64
681.66	142.77
681.80	126.39
681.94	119.37
682.07	194.26
682.21	126.39
682.35	107.66
682.49	121.71
682.62	133.41
682.76	161.50
682.90	149.79
683.04	119.37
683.17	142.77
683.31	198.95
683.45	173.20
683.59	177.88
683.72	72.56
683.86	159.16
684.00	93.62
684.13	135.75
684.27	107.66
684.41	100.64
684.55	156.82
684.68	114.69
684.82	126.39
684.96	133.41
685.09	140.43
685.23	119.37
685.37	91.28
685.50	177.88
685.64	72.56
685.78	163.84
685.91	205.97
686.05	201.29
686.19	119.37
686.32	205.97
686.46	145.11
686.60	142.77
686.73	222.35
686.87	177.88
687.01	194.26
687.14	220.01
687.28	88.94
687.42	208.31
687.55	140.43
687.69	79.58
687.82	135.75
687.96	135.75
688.10	102.98
688.23	152.13
688.37	159.16
688.50	168.52
688.64	102.98
688.78	74.90
688.91	124.05
689.05	159.16
689.18	77.24
689.32	84.26
689.46	112.35
689.59	110.01
689.73	168.52
689.86	102.98
690.00	142.77
690.13	67.88
690.27	4.68
690.41	84.26
690.54	156.82
690.68	86.60
690.81	131.07
690.95	107.66
691.08	117.03
691.22	112.35
691.35	135.75
691.49	112.35
691.62	65.54
691.76	88.94
691.89	152.13
692.03	189.58
692.16	16.38
692.30	212.99
692.43	559.39
692.57	2221.17
692.70	4217.65
692.84	5537.71
692.97	5210.03
693.11	3861.88
693.24	2715.02
693.38	1916.90
693.51	1221.76
693.65	884.72
693.78	564.07
693.92	414.27
694.05	250.44
694.19	189.58
694.32	208.31
694.45	154.48
694.59	166.18
694.72	212.99
694.86	58.51
694.99	98.30
695.13	95.96
695.26	133.41
695.39	119.37
695.53	224.69
695.66	72.56
695.80	117.03
695.93	163.84
696.07	159.16
696.20	236.39
696.33	372.15
696.47	484.49
696.60	444.70
696.73	301.93
696.87	283.20
697.00	285.55
697.14	194.26
697.27	182.56
697.40	243.42
697.54	215.33
697.67	105.32
697.80	147.45
697.94	70.22
698.07	128.73
698.21	110.01
698.34	121.71
698.47	133.41
698.61	121.71
698.74	159.16
698.87	159.16
699.01	140.43
699.14	74.90
699.27	208.31
699.40	215.33
699.54	67.88
699.67	100.64
699.80	86.60
699.94	32.77
700.07	180.22
700.20	107.66
700.34	156.82
700.47	65.54
700.60	131.07
700.73	147.45
700.87	170.86
701.00	170.86
701.13	49.15
701.26	95.96
701.40	154.48
701.53	117.03
701.66	93.62
701.79	203.63
701.93	133.41
702.06	191.92
702.19	299.59
702.32	486.83
702.46	428.32
702.59	496.19
702.72	940.90
702.85	2913.97
702.99	6417.75
703.12	9958.98
703.25	11241.59
703.38	9577.47
703.51	7798.66
703.65	5921.56
703.78	4121.68
703.91	2670.55
704.04	1724.97
704.17	1057.92
704.31	655.35
704.44	409.59
704.57	273.84
704.70	243.42
704.83	271.50
704.96	170.86
705.10	159.16
705.23	145.11
>>>>>End Processed Spectral Data<<<<<
