SpectraSuite Data File
++++++++++++++++++++++++++++++++++++
Date: Fri Oct 04 11:47:08 GMT-05:00 2013
User: price-jones
Dark Spectrum Present: No
Reference Spectrum Present: No
Number of Sampled Component Spectra: 1
Spectrometers: USB2+H05261
Integration Time (usec): 100000 (USB2+H05261)
Spectra Averaged: 1 (USB2+H05261)
Boxcar Smoothing: 0 (USB2+H05261)
Correct for Electrical Dark: No (USB2+H05261)
Strobe/Lamp Enabled: No (USB2+H05261)
Correct for Detector Non-linearity: No (USB2+H05261)
Correct for Stray Light: No (USB2+H05261)
Number of Pixels in Processed Spectrum: 2048
>>>>>Begin Processed Spectral Data<<<<<
365.73	53.83
365.92	53.83
366.12	53.83
366.32	0.00
366.52	0.00
366.72	0.00
366.91	0.00
367.11	0.00
367.31	0.00
367.51	0.00
367.70	0.00
367.90	0.00
368.10	0.00
368.30	0.00
368.49	0.00
368.69	0.00
368.89	0.00
369.09	0.00
369.28	0.00
369.48	0.00
369.68	0.00
369.87	0.00
370.07	0.00
370.27	2.34
370.47	0.00
370.66	0.00
370.86	98.30
371.06	18.72
371.25	102.98
371.45	39.79
371.65	105.32
371.84	23.41
372.04	46.81
372.24	126.39
372.44	0.00
372.63	128.73
372.83	170.86
373.03	93.62
373.22	56.17
373.42	110.01
373.62	126.39
373.81	65.54
374.01	138.09
374.21	126.39
374.40	74.90
374.60	114.69
374.79	63.19
374.99	93.62
375.19	196.60
375.38	131.07
375.58	126.39
375.78	107.66
375.97	131.07
376.17	145.11
376.37	65.54
376.56	117.03
376.76	32.77
376.95	95.96
377.15	147.45
377.35	35.11
377.54	189.58
377.74	74.90
377.93	102.98
378.13	49.15
378.33	131.07
378.52	124.05
378.72	95.96
378.91	168.52
379.11	95.96
379.31	93.62
379.50	117.03
379.70	149.79
379.89	98.30
380.09	46.81
380.28	56.17
380.48	140.43
380.68	126.39
380.87	42.13
381.07	84.26
381.26	173.20
381.46	145.11
381.65	119.37
381.85	105.32
382.04	32.77
382.24	112.35
382.43	86.60
382.63	25.75
382.83	133.41
383.02	107.66
383.22	91.28
383.41	140.43
383.61	112.35
383.80	98.30
384.00	46.81
384.19	81.92
384.39	93.62
384.58	117.03
384.78	152.13
384.97	86.60
385.17	110.01
385.36	112.35
385.56	154.48
385.75	112.35
385.95	133.41
386.14	58.51
386.34	112.35
386.53	173.20
386.72	102.98
386.92	91.28
387.11	44.47
387.31	44.47
387.50	60.85
387.70	67.88
387.89	110.01
388.09	117.03
388.28	39.79
388.48	131.07
388.67	51.49
388.86	135.75
389.06	58.51
389.25	138.09
389.45	107.66
389.64	138.09
389.84	110.01
390.03	121.71
390.22	159.16
390.42	133.41
390.61	95.96
390.81	95.96
391.00	117.03
391.19	154.48
391.39	72.56
391.58	60.85
391.78	72.56
391.97	63.19
392.16	65.54
392.36	107.66
392.55	128.73
392.75	88.94
392.94	93.62
393.13	128.73
393.33	42.13
393.52	51.49
393.71	112.35
393.91	67.88
394.10	135.75
394.29	107.66
394.49	95.96
394.68	72.56
394.88	95.96
395.07	133.41
395.26	140.43
395.46	58.51
395.65	112.35
395.84	56.17
396.04	142.77
396.23	117.03
396.42	42.13
396.62	133.41
396.81	16.38
397.00	121.71
397.19	95.96
397.39	112.35
397.58	88.94
397.77	131.07
397.97	44.47
398.16	98.30
398.35	220.01
398.55	110.01
398.74	67.88
398.93	114.69
399.12	81.92
399.32	243.42
399.51	102.98
399.70	161.50
399.90	161.50
400.09	65.54
400.28	126.39
400.47	51.49
400.67	56.17
400.86	114.69
401.05	102.98
401.24	49.15
401.44	168.52
401.63	77.24
401.82	84.26
402.01	9.36
402.21	105.32
402.40	65.54
402.59	119.37
402.78	152.13
402.97	86.60
403.17	163.84
403.36	67.88
403.55	65.54
403.74	110.01
403.93	133.41
404.13	198.95
404.32	84.26
404.51	46.81
404.70	124.05
404.89	49.15
405.09	154.48
405.28	173.20
405.47	98.30
405.66	37.45
405.85	88.94
406.05	51.49
406.24	126.39
406.43	112.35
406.62	147.45
406.81	142.77
407.00	114.69
407.20	84.26
407.39	154.48
407.58	79.58
407.77	117.03
407.96	70.22
408.15	156.82
408.34	163.84
408.54	105.32
408.73	65.54
408.92	149.79
409.11	9.36
409.30	126.39
409.49	72.56
409.68	44.47
409.87	168.52
410.07	86.60
410.26	81.92
410.45	119.37
410.64	161.50
410.83	154.48
411.02	67.88
411.21	105.32
411.40	131.07
411.59	74.90
411.78	72.56
411.98	86.60
412.17	124.05
412.36	117.03
412.55	37.45
412.74	63.19
412.93	105.32
413.12	145.11
413.31	121.71
413.50	119.37
413.69	140.43
413.88	154.48
414.07	88.94
414.26	124.05
414.45	121.71
414.64	189.58
414.83	119.37
415.02	142.77
415.22	128.73
415.41	147.45
415.60	126.39
415.79	110.01
415.98	105.32
416.17	105.32
416.36	79.58
416.55	173.20
416.74	152.13
416.93	53.83
417.12	81.92
417.31	107.66
417.50	77.24
417.69	210.65
417.88	212.99
418.07	100.64
418.26	152.13
418.45	175.54
418.64	182.56
418.83	133.41
419.02	147.45
419.21	156.82
419.39	142.77
419.58	107.66
419.77	149.79
419.96	180.22
420.15	210.65
420.34	138.09
420.53	147.45
420.72	124.05
420.91	131.07
421.10	149.79
421.29	86.60
421.48	88.94
421.67	142.77
421.86	152.13
422.05	74.90
422.24	77.24
422.43	152.13
422.61	131.07
422.80	65.54
422.99	100.64
423.18	117.03
423.37	135.75
423.56	77.24
423.75	149.79
423.94	98.30
424.13	79.58
424.32	93.62
424.50	119.37
424.69	84.26
424.88	161.50
425.07	98.30
425.26	175.54
425.45	205.97
425.64	177.88
425.83	212.99
426.01	175.54
426.20	159.16
426.39	100.64
426.58	105.32
426.77	159.16
426.96	170.86
427.15	140.43
427.33	121.71
427.52	161.50
427.71	98.30
427.90	105.32
428.09	138.09
428.28	81.92
428.46	65.54
428.65	131.07
428.84	152.13
429.03	81.92
429.22	67.88
429.40	102.98
429.59	105.32
429.78	140.43
429.97	70.22
430.16	128.73
430.34	117.03
430.53	110.01
430.72	60.85
430.91	142.77
431.10	86.60
431.28	110.01
431.47	145.11
431.66	138.09
431.85	145.11
432.03	124.05
432.22	217.67
432.41	135.75
432.60	121.71
432.79	189.58
432.97	222.35
433.16	196.60
433.35	255.12
433.54	163.84
433.72	105.32
433.91	161.50
434.10	175.54
434.28	208.31
434.47	201.29
434.66	168.52
434.85	112.35
435.03	135.75
435.22	170.86
435.41	119.37
435.59	128.73
435.78	142.77
435.97	77.24
436.16	149.79
436.34	105.32
436.53	133.41
436.72	126.39
436.90	159.16
437.09	58.51
437.28	135.75
437.46	182.56
437.65	124.05
437.84	133.41
438.02	189.58
438.21	79.58
438.40	142.77
438.58	156.82
438.77	112.35
438.96	98.30
439.14	79.58
439.33	152.13
439.52	14.04
439.70	140.43
439.89	215.33
440.08	105.32
440.26	208.31
440.45	196.60
440.63	91.28
440.82	128.73
441.01	149.79
441.19	84.26
441.38	51.49
441.57	77.24
441.75	133.41
441.94	91.28
442.12	131.07
442.31	140.43
442.50	135.75
442.68	128.73
442.87	145.11
443.05	91.28
443.24	147.45
443.43	126.39
443.61	133.41
443.80	135.75
443.98	98.30
444.17	100.64
444.35	84.26
444.54	210.65
444.73	184.90
444.91	119.37
445.10	93.62
445.28	98.30
445.47	138.09
445.65	117.03
445.84	126.39
446.02	110.01
446.21	138.09
446.39	152.13
446.58	100.64
446.77	102.98
446.95	135.75
447.14	166.18
447.32	173.20
447.51	145.11
447.69	177.88
447.88	161.50
448.06	166.18
448.25	145.11
448.43	163.84
448.62	126.39
448.80	119.37
448.99	77.24
449.17	126.39
449.36	91.28
449.54	128.73
449.73	110.01
449.91	170.86
450.10	152.13
450.28	173.20
450.46	161.50
450.65	203.63
450.83	124.05
451.02	189.58
451.20	184.90
451.39	84.26
451.57	91.28
451.76	53.83
451.94	187.24
452.13	154.48
452.31	180.22
452.49	126.39
452.68	131.07
452.86	156.82
453.05	131.07
453.23	147.45
453.42	126.39
453.60	77.24
453.78	140.43
453.97	51.49
454.15	133.41
454.34	177.88
454.52	177.88
454.70	168.52
454.89	177.88
455.07	133.41
455.26	107.66
455.44	145.11
455.62	131.07
455.81	121.71
455.99	156.82
456.17	175.54
456.36	93.62
456.54	175.54
456.73	140.43
456.91	107.66
457.09	159.16
457.28	133.41
457.46	161.50
457.64	170.86
457.83	154.48
458.01	117.03
458.19	145.11
458.38	107.66
458.56	86.60
458.74	105.32
458.93	182.56
459.11	95.96
459.29	135.75
459.48	93.62
459.66	173.20
459.84	126.39
460.03	180.22
460.21	184.90
460.39	126.39
460.57	147.45
460.76	182.56
460.94	131.07
461.12	154.48
461.31	156.82
461.49	140.43
461.67	140.43
461.85	121.71
462.04	102.98
462.22	582.79
462.40	159.16
462.59	145.11
462.77	163.84
462.95	117.03
463.13	198.95
463.32	180.22
463.50	156.82
463.68	156.82
463.86	182.56
464.05	156.82
464.23	86.60
464.41	180.22
464.59	138.09
464.78	210.65
464.96	77.24
465.14	147.45
465.32	124.05
465.50	201.29
465.69	196.60
465.87	170.86
466.05	77.24
466.23	159.16
466.41	114.69
466.60	133.41
466.78	119.37
466.96	152.13
467.14	166.18
467.32	133.41
467.51	135.75
467.69	147.45
467.87	166.18
468.05	154.48
468.23	173.20
468.41	154.48
468.60	93.62
468.78	107.66
468.96	147.45
469.14	95.96
469.32	21.06
469.50	114.69
469.69	184.90
469.87	156.82
470.05	145.11
470.23	105.32
470.41	77.24
470.59	86.60
470.77	170.86
470.95	112.35
471.14	189.58
471.32	173.20
471.50	215.33
471.68	177.88
471.86	255.12
472.04	175.54
472.22	168.52
472.40	51.49
472.58	107.66
472.77	138.09
472.95	168.52
473.13	196.60
473.31	231.71
473.49	121.71
473.67	145.11
473.85	95.96
474.03	168.52
474.21	152.13
474.39	201.29
474.57	152.13
474.75	163.84
474.93	110.01
475.12	156.82
475.30	79.58
475.48	124.05
475.66	161.50
475.84	147.45
476.02	170.86
476.20	110.01
476.38	168.52
476.56	175.54
476.74	81.92
476.92	131.07
477.10	147.45
477.28	177.88
477.46	264.48
477.64	198.95
477.82	168.52
478.00	166.18
478.18	147.45
478.36	154.48
478.54	142.77
478.72	224.69
478.90	110.01
479.08	63.19
479.26	93.62
479.44	173.20
479.62	119.37
479.80	133.41
479.98	105.32
480.16	194.26
480.34	121.71
480.52	198.95
480.70	170.86
480.88	173.20
481.06	173.20
481.24	170.86
481.41	189.58
481.59	161.50
481.77	102.98
481.95	156.82
482.13	131.07
482.31	198.95
482.49	142.77
482.67	102.98
482.85	180.22
483.03	201.29
483.21	198.95
483.39	184.90
483.57	145.11
483.74	208.31
483.92	142.77
484.10	142.77
484.28	114.69
484.46	304.27
484.64	224.69
484.82	138.09
485.00	196.60
485.18	142.77
485.35	212.99
485.53	147.45
485.71	201.29
485.89	161.50
486.07	124.05
486.25	215.33
486.43	154.48
486.61	191.92
486.78	177.88
486.96	124.05
487.14	154.48
487.32	187.24
487.50	196.60
487.68	156.82
487.85	133.41
488.03	84.26
488.21	231.71
488.39	140.43
488.57	273.84
488.75	210.65
488.92	470.45
489.10	191.92
489.28	152.13
489.46	201.29
489.64	154.48
489.81	220.01
489.99	149.79
490.17	234.05
490.35	203.63
490.53	135.75
490.70	126.39
490.88	182.56
491.06	177.88
491.24	182.56
491.41	252.78
491.59	184.90
491.77	173.20
491.95	149.79
492.13	203.63
492.30	182.56
492.48	189.58
492.66	133.41
492.84	191.92
493.01	189.58
493.19	163.84
493.37	180.22
493.54	147.45
493.72	224.69
493.90	133.41
494.08	149.79
494.25	191.92
494.43	196.60
494.61	159.16
494.79	149.79
494.96	180.22
495.14	220.01
495.32	161.50
495.49	191.92
495.67	238.73
495.85	227.03
496.02	119.37
496.20	212.99
496.38	133.41
496.55	203.63
496.73	112.35
496.91	194.26
497.09	177.88
497.26	198.95
497.44	217.67
497.62	182.56
497.79	170.86
497.97	152.13
498.14	159.16
498.32	170.86
498.50	152.13
498.67	259.80
498.85	168.52
499.03	264.48
499.20	203.63
499.38	133.41
499.56	196.60
499.73	252.78
499.91	212.99
500.08	201.29
500.26	180.22
500.44	236.39
500.61	210.65
500.79	154.48
500.97	217.67
501.14	203.63
501.32	102.98
501.49	224.69
501.67	131.07
501.84	126.39
502.02	196.60
502.20	203.63
502.37	266.82
502.55	154.48
502.72	180.22
502.90	273.84
503.07	149.79
503.25	159.16
503.43	238.73
503.60	170.86
503.78	220.01
503.95	212.99
504.13	201.29
504.30	205.97
504.48	191.92
504.65	245.76
504.83	189.58
505.01	147.45
505.18	182.56
505.36	194.26
505.53	175.54
505.71	159.16
505.88	241.08
506.06	149.79
506.23	259.80
506.41	210.65
506.58	133.41
506.76	210.65
506.93	184.90
507.11	184.90
507.28	201.29
507.46	234.05
507.63	234.05
507.81	189.58
507.98	170.86
508.16	166.18
508.33	217.67
508.50	198.95
508.68	231.71
508.85	201.29
509.03	208.31
509.20	210.65
509.38	140.43
509.55	180.22
509.73	245.76
509.90	184.90
510.08	229.37
510.25	220.01
510.42	149.79
510.60	149.79
510.77	126.39
510.95	133.41
511.12	227.03
511.30	248.10
511.47	173.20
511.64	330.02
511.82	140.43
511.99	227.03
512.17	133.41
512.34	238.73
512.51	163.84
512.69	262.14
512.86	285.55
513.04	184.90
513.21	208.31
513.38	182.56
513.56	189.58
513.73	241.08
513.90	166.18
514.08	163.84
514.25	191.92
514.43	252.78
514.60	156.82
514.77	196.60
514.95	243.42
515.12	182.56
515.29	205.97
515.47	138.09
515.64	166.18
515.81	180.22
515.99	201.29
516.16	208.31
516.33	215.33
516.51	184.90
516.68	110.01
516.85	119.37
517.03	156.82
517.20	278.52
517.37	154.48
517.54	205.97
517.72	182.56
517.89	114.69
518.06	184.90
518.24	241.08
518.41	212.99
518.58	280.86
518.75	168.52
518.93	175.54
519.10	259.80
519.27	236.39
519.45	217.67
519.62	180.22
519.79	175.54
519.96	142.77
520.14	283.20
520.31	163.84
520.48	248.10
520.65	220.01
520.83	154.48
521.00	166.18
521.17	259.80
521.34	187.24
521.52	203.63
521.69	201.29
521.86	224.69
522.03	276.18
522.20	229.37
522.38	208.31
522.55	159.16
522.72	149.79
522.89	222.35
523.07	248.10
523.24	138.09
523.41	175.54
523.58	217.67
523.75	198.95
523.92	189.58
524.10	262.14
524.27	236.39
524.44	201.29
524.61	220.01
524.78	152.13
524.96	187.24
525.13	238.73
525.30	250.44
525.47	196.60
525.64	140.43
525.81	180.22
525.98	208.31
526.16	163.84
526.33	173.20
526.50	215.33
526.67	227.03
526.84	159.16
527.01	161.50
527.18	283.20
527.36	238.73
527.53	86.60
527.70	210.65
527.87	168.52
528.04	196.60
528.21	215.33
528.38	210.65
528.55	201.29
528.72	229.37
528.89	262.14
529.07	224.69
529.24	280.86
529.41	208.31
529.58	241.08
529.75	217.67
529.92	262.14
530.09	203.63
530.26	234.05
530.43	163.84
530.60	227.03
530.77	299.59
530.94	229.37
531.11	198.95
531.28	201.29
531.46	175.54
531.63	215.33
531.80	189.58
531.97	280.86
532.14	201.29
532.31	187.24
532.48	259.80
532.65	313.63
532.82	351.08
532.99	248.10
533.16	299.59
533.33	205.97
533.50	280.86
533.67	292.57
533.84	297.25
534.01	348.74
534.18	269.16
534.35	259.80
534.52	271.50
534.69	283.20
534.86	154.48
535.03	168.52
535.20	210.65
535.37	255.12
535.54	259.80
535.71	229.37
535.88	189.58
536.05	220.01
536.22	280.86
536.38	222.35
536.55	234.05
536.72	217.67
536.89	194.26
537.06	205.97
537.23	187.24
537.40	189.58
537.57	217.67
537.74	182.56
537.91	224.69
538.08	196.60
538.25	264.48
538.42	191.92
538.59	238.73
538.75	175.54
538.92	166.18
539.09	255.12
539.26	215.33
539.43	505.56
539.60	910.47
539.77	1193.67
539.94	1137.50
540.11	737.27
540.28	608.54
540.44	397.89
540.61	266.82
540.78	222.35
540.95	187.24
541.12	250.44
541.29	201.29
541.46	238.73
541.62	210.65
541.79	170.86
541.96	212.99
542.13	159.16
542.30	217.67
542.47	273.84
542.63	119.37
542.80	217.67
542.97	273.84
543.14	184.90
543.31	203.63
543.48	243.42
543.64	283.20
543.81	234.05
543.98	248.10
544.15	140.43
544.32	191.92
544.48	156.82
544.65	182.56
544.82	163.84
544.99	208.31
545.16	243.42
545.32	131.07
545.49	229.37
545.66	180.22
545.83	180.22
546.00	128.73
546.16	142.77
546.33	201.29
546.50	159.16
546.67	184.90
546.83	234.05
547.00	212.99
547.17	224.69
547.34	196.60
547.50	210.65
547.67	187.24
547.84	222.35
548.00	163.84
548.17	191.92
548.34	257.46
548.51	294.91
548.67	189.58
548.84	217.67
549.01	177.88
549.18	224.69
549.34	285.55
549.51	243.42
549.68	215.33
549.84	159.16
550.01	187.24
550.18	325.33
550.34	224.69
550.51	205.97
550.68	257.46
550.84	205.97
551.01	243.42
551.18	140.43
551.34	149.79
551.51	248.10
551.68	203.63
551.84	287.89
552.01	257.46
552.18	145.11
552.34	222.35
552.51	210.65
552.68	152.13
552.84	236.39
553.01	205.97
553.18	121.71
553.34	201.29
553.51	215.33
553.67	156.82
553.84	299.59
554.01	231.71
554.17	187.24
554.34	208.31
554.51	180.22
554.67	248.10
554.84	259.80
555.00	250.44
555.17	227.03
555.33	250.44
555.50	182.56
555.67	203.63
555.83	149.79
556.00	231.71
556.16	372.15
556.33	117.03
556.50	222.35
556.66	187.24
556.83	147.45
556.99	234.05
557.16	170.86
557.32	194.26
557.49	241.08
557.65	205.97
557.82	196.60
557.98	189.58
558.15	187.24
558.32	182.56
558.48	236.39
558.65	234.05
558.81	168.52
558.98	184.90
559.14	194.26
559.31	241.08
559.47	168.52
559.64	124.05
559.80	191.92
559.97	220.01
560.13	245.76
560.30	180.22
560.46	163.84
560.63	163.84
560.79	173.20
560.96	194.26
561.12	182.56
561.29	234.05
561.45	182.56
561.61	191.92
561.78	241.08
561.94	168.52
562.11	198.95
562.27	173.20
562.44	74.90
562.60	126.39
562.77	133.41
562.93	220.01
563.10	203.63
563.26	173.20
563.42	264.48
563.59	198.95
563.75	196.60
563.92	241.08
564.08	245.76
564.24	299.59
564.41	238.73
564.57	243.42
564.74	203.63
564.90	205.97
565.07	229.37
565.23	259.80
565.39	241.08
565.56	208.31
565.72	252.78
565.88	159.16
566.05	133.41
566.21	262.14
566.38	278.52
566.54	208.31
566.70	222.35
566.87	212.99
567.03	147.45
567.19	208.31
567.36	212.99
567.52	191.92
567.68	266.82
567.85	217.67
568.01	252.78
568.17	147.45
568.34	184.90
568.50	259.80
568.66	201.29
568.83	341.72
568.99	189.58
569.15	280.86
569.32	166.18
569.48	184.90
569.64	222.35
569.81	154.48
569.97	285.55
570.13	257.46
570.30	133.41
570.46	145.11
570.62	205.97
570.78	180.22
570.95	154.48
571.11	269.16
571.27	222.35
571.43	212.99
571.60	255.12
571.76	250.44
571.92	203.63
572.09	212.99
572.25	271.50
572.41	189.58
572.57	149.79
572.74	257.46
572.90	152.13
573.06	210.65
573.22	236.39
573.38	156.82
573.55	215.33
573.71	318.31
573.87	161.50
574.03	208.31
574.20	156.82
574.36	290.23
574.52	248.10
574.68	212.99
574.84	248.10
575.01	257.46
575.17	241.08
575.33	189.58
575.49	255.12
575.65	205.97
575.82	283.20
575.98	463.43
576.14	585.13
576.30	617.90
576.46	505.56
576.62	330.02
576.79	421.30
576.95	299.59
577.11	170.86
577.27	184.90
577.43	292.57
577.59	212.99
577.75	273.84
577.92	245.76
578.08	210.65
578.24	184.90
578.40	308.95
578.56	236.39
578.72	262.14
578.88	290.23
579.04	255.12
579.21	236.39
579.37	182.56
579.53	135.75
579.69	255.12
579.85	269.16
580.01	337.04
580.17	348.74
580.33	196.60
580.49	306.61
580.65	271.50
580.82	390.87
580.98	372.15
581.14	205.97
581.30	297.25
581.46	379.17
581.62	411.93
581.78	484.49
581.94	507.90
582.10	358.10
582.26	395.55
582.42	365.12
582.58	339.38
582.74	369.80
582.90	400.23
583.06	411.93
583.22	418.96
583.38	306.61
583.54	442.36
583.70	538.32
583.86	585.13
584.02	603.86
584.18	650.67
584.34	889.40
584.50	2672.89
584.66	20762.89
584.82	49111.46
584.98	58061.67
585.14	53616.99
585.30	35655.72
585.46	21458.03
585.62	13221.69
585.78	6003.47
585.94	2452.88
586.10	1224.10
586.26	812.17
586.42	678.76
586.58	554.71
586.74	444.70
586.90	561.73
587.06	463.43
587.22	414.27
587.38	386.19
587.54	954.94
587.70	2857.79
587.86	4386.16
588.02	4655.33
588.18	3356.33
588.34	2282.02
588.49	1423.05
588.65	887.06
588.81	606.20
588.97	341.72
589.13	224.69
589.29	236.39
589.45	297.25
589.61	238.73
589.77	311.29
589.93	358.10
590.08	334.70
590.24	365.12
590.40	346.40
590.56	327.68
590.72	271.50
590.88	234.05
591.04	299.59
591.20	278.52
591.35	332.36
591.51	227.03
591.67	248.10
591.83	299.59
591.99	294.91
592.15	255.12
592.31	224.69
592.46	198.95
592.62	245.76
592.78	241.08
592.94	152.13
593.10	262.14
593.26	259.80
593.41	245.76
593.57	269.16
593.73	383.85
593.89	2509.05
594.05	5980.07
594.20	7995.27
594.36	7389.07
594.52	5088.32
594.68	3103.55
594.84	2150.95
594.99	1224.10
595.15	533.64
595.31	390.87
595.47	264.48
595.62	250.44
595.78	280.86
595.94	269.16
596.10	294.91
596.25	301.93
596.41	301.93
596.57	236.39
596.73	299.59
596.88	442.36
597.04	1146.86
597.20	1888.81
597.36	1963.71
597.51	1500.28
597.67	1132.82
597.83	755.99
597.99	550.03
598.14	332.36
598.30	280.86
598.46	330.02
598.61	269.16
598.77	322.99
598.93	287.89
599.09	264.48
599.24	269.16
599.40	238.73
599.56	264.48
599.71	112.35
599.87	184.90
600.03	220.01
600.18	168.52
600.34	173.20
600.50	177.88
600.65	224.69
600.81	173.20
600.97	180.22
601.12	184.90
601.28	252.78
601.44	231.71
601.59	177.88
601.75	264.48
601.91	205.97
602.06	245.76
602.22	299.59
602.37	664.71
602.53	1357.51
602.69	2052.65
602.84	2146.27
603.00	1563.48
603.16	1039.20
603.31	784.08
603.47	519.60
603.62	341.72
603.78	292.57
603.94	231.71
604.09	229.37
604.25	294.91
604.40	170.86
604.56	259.80
604.71	194.26
604.87	140.43
605.03	203.63
605.18	229.37
605.34	243.42
605.49	210.65
605.65	271.50
605.80	187.24
605.96	287.89
606.12	339.38
606.27	276.18
606.43	229.37
606.58	322.99
606.74	751.31
606.89	3033.33
607.05	5420.68
607.20	6736.06
607.36	5657.07
607.51	3803.37
607.67	2410.75
607.82	1692.21
607.98	877.70
608.13	571.09
608.29	330.02
608.44	337.04
608.60	301.93
608.75	428.32
608.91	1071.97
609.06	4704.48
609.22	9317.67
609.37	12114.61
609.53	10129.84
609.68	7007.56
609.84	4517.23
609.99	3082.49
610.15	1631.35
610.30	760.67
610.46	496.19
610.61	325.33
610.76	297.25
610.92	271.50
611.07	217.67
611.23	301.93
611.38	248.10
611.54	170.86
611.69	269.16
611.84	257.46
612.00	271.50
612.15	327.68
612.31	374.49
612.46	507.90
612.62	620.24
612.77	580.45
612.92	463.43
613.08	449.38
613.23	477.47
613.39	411.93
613.54	821.53
613.69	4496.17
613.85	11934.39
614.00	18410.65
614.15	19075.37
614.31	13462.76
614.46	8730.20
614.62	5816.23
614.77	3463.99
614.92	1603.27
615.08	748.97
615.23	477.47
615.38	482.15
615.54	381.51
615.69	877.70
615.84	2417.77
616.00	4051.47
616.15	4985.34
616.30	3999.98
616.46	2682.25
616.61	1877.11
616.76	1284.95
616.92	678.76
617.07	402.57
617.22	304.27
617.37	299.59
617.53	283.20
617.68	220.01
617.83	241.08
617.99	327.68
618.14	290.23
618.29	243.42
618.45	245.76
618.60	194.26
618.75	224.69
618.90	231.71
619.06	184.90
619.21	255.12
619.36	222.35
619.51	250.44
619.67	180.22
619.82	184.90
619.97	271.50
620.12	196.60
620.28	215.33
620.43	234.05
620.58	248.10
620.73	266.82
620.89	234.05
621.04	381.51
621.19	1397.30
621.34	2300.75
621.49	2930.35
621.65	2588.63
621.80	1774.13
621.95	1193.67
622.10	1004.09
622.25	484.49
622.41	269.16
622.56	269.16
622.71	196.60
622.86	264.48
623.01	264.48
623.16	184.90
623.32	259.80
623.47	159.16
623.62	283.20
623.77	220.01
623.92	163.84
624.07	161.50
624.23	133.41
624.38	203.63
624.53	276.18
624.68	243.42
624.83	238.73
624.98	220.01
625.13	252.78
625.29	173.20
625.44	241.08
625.59	271.50
625.74	334.70
625.89	456.40
626.04	2183.72
626.19	5935.60
626.34	9296.61
626.49	9689.82
626.65	7199.49
626.80	4842.57
626.95	3314.20
627.10	1970.73
627.25	1029.84
627.40	559.39
627.55	332.36
627.70	250.44
627.85	283.20
628.00	271.50
628.15	187.24
628.30	161.50
628.45	210.65
628.60	198.95
628.76	196.60
628.91	175.54
629.06	224.69
629.21	208.31
629.36	212.99
629.51	222.35
629.66	264.48
629.81	421.30
629.96	1174.95
630.11	2069.03
630.26	2502.03
630.41	2204.78
630.56	1554.12
630.71	1074.31
630.86	798.12
631.01	489.17
631.16	327.68
631.31	304.27
631.46	292.57
631.61	262.14
631.76	241.08
631.91	252.78
632.06	266.82
632.21	220.01
632.36	301.93
632.51	271.50
632.66	433.00
632.81	1032.18
632.96	3421.86
633.10	5598.56
633.25	6738.40
633.40	5336.42
633.55	3721.45
633.70	2576.93
633.85	1699.23
634.00	807.48
634.15	428.32
634.30	360.44
634.45	205.97
634.60	220.01
634.75	189.58
634.90	168.52
635.05	248.10
635.19	248.10
635.34	215.33
635.49	224.69
635.64	131.07
635.79	196.60
635.94	301.93
636.09	205.97
636.24	243.42
636.39	257.46
636.53	191.92
636.68	203.63
636.83	243.42
636.98	259.80
637.13	285.55
637.28	248.10
637.43	327.68
637.57	538.32
637.72	2892.90
637.87	7705.04
638.02	11831.41
638.17	12191.85
638.32	9207.67
638.46	6188.38
638.61	4159.13
638.76	2518.42
638.91	1291.98
639.06	671.73
639.20	538.32
639.35	486.83
639.50	807.48
639.65	4713.84
639.80	12219.94
639.94	18459.81
640.09	19407.72
640.24	14328.76
640.39	9881.74
640.54	6576.91
640.68	3939.12
640.83	1891.15
640.98	875.36
641.13	578.11
641.27	351.08
641.42	308.95
641.57	255.12
641.72	362.78
641.86	234.05
642.01	266.82
642.16	231.71
642.31	245.76
642.45	299.59
642.60	271.50
642.75	243.42
642.90	152.13
643.04	203.63
643.19	187.24
643.34	170.86
643.48	290.23
643.63	126.39
643.78	222.35
643.93	198.95
644.07	189.58
644.22	196.60
644.37	252.78
644.51	194.26
644.66	170.86
644.81	117.03
644.95	255.12
645.10	152.13
645.25	170.86
645.39	245.76
645.54	191.92
645.69	224.69
645.83	182.56
645.98	304.27
646.13	208.31
646.27	154.48
646.42	119.37
646.57	236.39
646.71	196.60
646.86	231.71
647.00	140.43
647.15	238.73
647.30	133.41
647.44	135.75
647.59	182.56
647.74	131.07
647.88	224.69
648.03	180.22
648.17	142.77
648.32	177.88
648.47	173.20
648.61	203.63
648.76	180.22
648.90	159.16
649.05	198.95
649.20	166.18
649.34	135.75
649.49	149.79
649.63	238.73
649.78	231.71
649.92	339.38
650.07	1753.06
650.21	5397.28
650.36	8809.78
650.51	10008.13
650.65	8212.94
650.80	5741.33
650.94	3765.92
651.09	2373.30
651.23	1165.59
651.38	533.64
651.52	393.21
651.67	241.08
651.81	287.89
651.96	241.08
652.10	217.67
652.25	180.22
652.39	285.55
652.54	210.65
652.68	531.30
652.83	1762.42
652.97	2808.64
653.12	3368.03
653.26	2972.48
653.41	2335.85
653.55	1554.12
653.70	1036.86
653.84	631.94
653.99	418.96
654.13	245.76
654.27	229.37
654.42	173.20
654.56	145.11
654.71	238.73
654.85	182.56
655.00	194.26
655.14	205.97
655.29	98.30
655.43	278.52
655.57	173.20
655.72	121.71
655.86	112.35
656.01	168.52
656.15	128.73
656.30	191.92
656.44	156.82
656.58	119.37
656.73	147.45
656.87	88.94
657.01	166.18
657.16	194.26
657.30	124.05
657.45	142.77
657.59	128.73
657.73	128.73
657.88	191.92
658.02	250.44
658.16	154.48
658.31	110.01
658.45	138.09
658.60	107.66
658.74	140.43
658.88	198.95
659.03	224.69
659.17	147.45
659.31	725.57
659.46	2420.11
659.60	4049.13
659.74	4847.25
659.89	4322.97
660.03	3180.79
660.17	2193.08
660.32	1453.47
660.46	819.19
660.60	463.43
660.74	297.25
660.89	250.44
661.03	168.52
661.17	217.67
661.32	170.86
661.46	212.99
661.60	133.41
661.74	128.73
661.89	177.88
662.03	236.39
662.17	147.45
662.31	142.77
662.46	112.35
662.60	191.92
662.74	140.43
662.88	159.16
663.03	121.71
663.17	227.03
663.31	105.32
663.45	189.58
663.60	152.13
663.74	124.05
663.88	138.09
664.02	149.79
664.17	180.22
664.31	196.60
664.45	133.41
664.59	203.63
664.73	170.86
664.88	234.05
665.02	163.84
665.16	177.88
665.30	231.71
665.44	212.99
665.59	212.99
665.73	154.48
665.87	175.54
666.01	149.79
666.15	175.54
666.29	135.75
666.44	227.03
666.58	276.18
666.72	227.03
666.86	252.78
667.00	283.20
667.14	390.87
667.28	1500.28
667.43	4468.08
667.57	7105.87
667.71	8505.51
667.85	7204.17
667.99	5341.10
668.13	3396.12
668.27	1928.60
668.41	1184.31
668.56	622.58
668.70	514.92
668.84	327.68
668.98	252.78
669.12	163.84
669.26	161.50
669.40	257.46
669.54	182.56
669.68	187.24
669.82	77.24
669.96	175.54
670.10	187.24
670.25	222.35
670.39	177.88
670.53	152.13
670.67	180.22
670.81	168.52
670.95	257.46
671.09	386.19
671.23	1717.95
671.37	3758.90
671.51	5151.52
671.65	5413.66
671.79	4051.47
671.93	2827.37
672.07	1797.53
672.21	1076.65
672.35	528.96
672.49	411.93
672.63	262.14
672.77	187.24
672.91	252.78
673.05	203.63
673.19	138.09
673.33	168.52
673.47	175.54
673.61	117.03
673.75	102.98
673.89	133.41
674.03	152.13
674.17	110.01
674.31	142.77
674.45	170.86
674.59	168.52
674.73	121.71
674.87	194.26
675.01	189.58
675.15	252.78
675.29	245.76
675.43	241.08
675.56	264.48
675.70	86.60
675.84	114.69
675.98	168.52
676.12	184.90
676.26	107.66
676.40	182.56
676.54	203.63
676.68	154.48
676.82	175.54
676.96	65.54
677.10	187.24
677.23	102.98
677.37	74.90
677.51	140.43
677.65	149.79
677.79	95.96
677.93	161.50
678.07	168.52
678.21	77.24
678.34	100.64
678.48	189.58
678.62	170.86
678.76	142.77
678.90	159.16
679.04	126.39
679.18	154.48
679.31	194.26
679.45	88.94
679.59	159.16
679.73	191.92
679.87	161.50
680.00	124.05
680.14	147.45
680.28	173.20
680.42	184.90
680.56	147.45
680.70	168.52
680.83	81.92
680.97	208.31
681.11	128.73
681.25	145.11
681.39	133.41
681.52	91.28
681.66	166.18
681.80	159.16
681.94	135.75
682.07	112.35
682.21	74.90
682.35	184.90
682.49	58.51
682.62	163.84
682.76	128.73
682.90	147.45
683.04	191.92
683.17	102.98
683.31	121.71
683.45	163.84
683.59	170.86
683.72	156.82
683.86	107.66
684.00	149.79
684.13	163.84
684.27	173.20
684.41	126.39
684.55	56.17
684.68	208.31
684.82	107.66
684.96	112.35
685.09	117.03
685.23	95.96
685.37	93.62
685.50	110.01
685.64	117.03
685.78	126.39
685.91	110.01
686.05	236.39
686.19	135.75
686.32	86.60
686.46	72.56
686.60	65.54
686.73	117.03
686.87	205.97
687.01	187.24
687.14	105.32
687.28	208.31
687.42	163.84
687.55	70.22
687.69	245.76
687.82	121.71
687.96	126.39
688.10	175.54
688.23	114.69
688.37	114.69
688.50	67.88
688.64	161.50
688.78	105.32
688.91	110.01
689.05	56.17
689.18	65.54
689.32	140.43
689.46	138.09
689.59	119.37
689.73	208.31
689.86	152.13
690.00	119.37
690.13	95.96
690.27	124.05
690.41	156.82
690.54	182.56
690.68	154.48
690.81	135.75
690.95	95.96
691.08	236.39
691.22	140.43
691.35	98.30
691.49	91.28
691.62	84.26
691.76	107.66
691.89	79.58
692.03	142.77
692.16	126.39
692.30	201.29
692.43	617.90
692.57	1891.15
692.70	3082.49
692.84	3613.79
692.97	3382.07
693.11	2401.39
693.24	1853.70
693.38	1170.27
693.51	767.70
693.65	587.47
693.78	311.29
693.92	210.65
694.05	224.69
694.19	128.73
694.32	67.88
694.45	156.82
694.59	84.26
694.72	117.03
694.86	91.28
694.99	163.84
695.13	86.60
695.26	86.60
695.39	138.09
695.53	79.58
695.66	201.29
695.80	145.11
695.93	191.92
696.07	140.43
696.20	257.46
696.33	299.59
696.47	287.89
696.60	311.29
696.73	278.52
696.87	184.90
697.00	252.78
697.14	93.62
697.27	124.05
697.40	215.33
697.54	112.35
697.67	187.24
697.80	117.03
697.94	119.37
698.07	138.09
698.21	91.28
698.34	124.05
698.47	126.39
698.61	142.77
698.74	173.20
698.87	152.13
699.01	191.92
699.14	114.69
699.27	126.39
699.40	205.97
699.54	112.35
699.67	131.07
699.80	140.43
699.94	117.03
700.07	135.75
700.20	105.32
700.34	112.35
700.47	60.85
700.60	88.94
700.73	72.56
700.87	100.64
701.00	98.30
701.13	121.71
701.26	166.18
701.40	126.39
701.53	166.18
701.66	168.52
701.79	163.84
701.93	119.37
702.06	353.42
702.19	278.52
702.32	458.74
702.46	294.91
702.59	381.51
702.72	744.29
702.85	2476.29
702.99	5046.20
703.12	6951.39
703.25	7358.64
703.38	6235.19
703.51	4924.49
703.65	3789.33
703.78	2567.57
703.91	1750.72
704.04	1118.78
704.17	645.99
704.31	491.51
704.44	318.31
704.57	245.76
704.70	191.92
704.83	147.45
704.96	234.05
705.10	208.31
705.23	63.19
>>>>>End Processed Spectral Data<<<<<
