SpectraSuite Data File
++++++++++++++++++++++++++++++++++++
Date: Fri Oct 04 11:47:23 GMT-05:00 2013
User: price-jones
Dark Spectrum Present: No
Reference Spectrum Present: No
Number of Sampled Component Spectra: 1
Spectrometers: USB2+H05261
Integration Time (usec): 100000 (USB2+H05261)
Spectra Averaged: 1 (USB2+H05261)
Boxcar Smoothing: 0 (USB2+H05261)
Correct for Electrical Dark: No (USB2+H05261)
Strobe/Lamp Enabled: No (USB2+H05261)
Correct for Detector Non-linearity: No (USB2+H05261)
Correct for Stray Light: No (USB2+H05261)
Number of Pixels in Processed Spectrum: 2048
>>>>>Begin Processed Spectral Data<<<<<
365.73	11.70
365.92	11.70
366.12	11.70
366.32	0.00
366.52	0.00
366.72	0.00
366.91	0.00
367.11	0.00
367.31	0.00
367.51	0.00
367.70	0.00
367.90	0.00
368.10	0.00
368.30	0.00
368.49	0.00
368.69	0.00
368.89	0.00
369.09	0.00
369.28	0.00
369.48	0.00
369.68	0.00
369.87	0.00
370.07	42.13
370.27	0.00
370.47	28.09
370.66	0.00
370.86	7.02
371.06	44.47
371.25	46.81
371.45	79.58
371.65	84.26
371.84	124.05
372.04	77.24
372.24	67.88
372.44	60.85
372.63	117.03
372.83	220.01
373.03	51.49
373.22	88.94
373.42	126.39
373.62	133.41
373.81	67.88
374.01	60.85
374.21	133.41
374.40	93.62
374.60	131.07
374.79	128.73
374.99	102.98
375.19	79.58
375.38	65.54
375.58	133.41
375.78	110.01
375.97	91.28
376.17	161.50
376.37	110.01
376.56	131.07
376.76	119.37
376.95	112.35
377.15	98.30
377.35	84.26
377.54	133.41
377.74	84.26
377.93	124.05
378.13	149.79
378.33	46.81
378.52	112.35
378.72	126.39
378.91	88.94
379.11	37.45
379.31	72.56
379.50	131.07
379.70	86.60
379.89	140.43
380.09	114.69
380.28	44.47
380.48	124.05
380.68	79.58
380.87	88.94
381.07	138.09
381.26	154.48
381.46	135.75
381.65	114.69
381.85	21.06
382.04	93.62
382.24	142.77
382.43	110.01
382.63	145.11
382.83	159.16
383.02	145.11
383.22	154.48
383.41	110.01
383.61	58.51
383.80	95.96
384.00	37.45
384.19	67.88
384.39	110.01
384.58	124.05
384.78	107.66
384.97	138.09
385.17	63.19
385.36	93.62
385.56	28.09
385.75	46.81
385.95	72.56
386.14	147.45
386.34	84.26
386.53	161.50
386.72	58.51
386.92	117.03
387.11	124.05
387.31	91.28
387.50	119.37
387.70	88.94
387.89	86.60
388.09	37.45
388.28	49.15
388.48	53.83
388.67	142.77
388.86	74.90
389.06	105.32
389.25	79.58
389.45	79.58
389.64	131.07
389.84	149.79
390.03	95.96
390.22	142.77
390.42	70.22
390.61	81.92
390.81	105.32
391.00	79.58
391.19	145.11
391.39	77.24
391.58	100.64
391.78	142.77
391.97	140.43
392.16	105.32
392.36	93.62
392.55	152.13
392.75	72.56
392.94	112.35
393.13	114.69
393.33	49.15
393.52	84.26
393.71	131.07
393.91	79.58
394.10	93.62
394.29	102.98
394.49	49.15
394.68	217.67
394.88	117.03
395.07	215.33
395.26	133.41
395.46	163.84
395.65	180.22
395.84	133.41
396.04	175.54
396.23	112.35
396.42	126.39
396.62	98.30
396.81	53.83
397.00	135.75
397.19	98.30
397.39	105.32
397.58	72.56
397.77	145.11
397.97	72.56
398.16	88.94
398.35	142.77
398.55	51.49
398.74	91.28
398.93	149.79
399.12	159.16
399.32	126.39
399.51	128.73
399.70	121.71
399.90	147.45
400.09	212.99
400.28	102.98
400.47	177.88
400.67	145.11
400.86	145.11
401.05	107.66
401.24	229.37
401.44	100.64
401.63	135.75
401.82	154.48
402.01	133.41
402.21	86.60
402.40	166.18
402.59	105.32
402.78	86.60
402.97	126.39
403.17	91.28
403.36	112.35
403.55	140.43
403.74	198.95
403.93	142.77
404.13	161.50
404.32	117.03
404.51	131.07
404.70	142.77
404.89	86.60
405.09	133.41
405.28	124.05
405.47	100.64
405.66	67.88
405.85	161.50
406.05	145.11
406.24	98.30
406.43	177.88
406.62	154.48
406.81	145.11
407.00	117.03
407.20	131.07
407.39	107.66
407.58	117.03
407.77	168.52
407.96	152.13
408.15	124.05
408.34	133.41
408.54	177.88
408.73	107.66
408.92	79.58
409.11	177.88
409.30	128.73
409.49	65.54
409.68	173.20
409.87	138.09
410.07	63.19
410.26	112.35
410.45	126.39
410.64	119.37
410.83	102.98
411.02	145.11
411.21	156.82
411.40	215.33
411.59	147.45
411.78	156.82
411.98	70.22
412.17	147.45
412.36	229.37
412.55	166.18
412.74	203.63
412.93	170.86
413.12	140.43
413.31	189.58
413.50	161.50
413.69	159.16
413.88	168.52
414.07	145.11
414.26	149.79
414.45	102.98
414.64	198.95
414.83	184.90
415.02	184.90
415.22	205.97
415.41	166.18
415.60	128.73
415.79	182.56
415.98	208.31
416.17	128.73
416.36	135.75
416.55	203.63
416.74	163.84
416.93	173.20
417.12	131.07
417.31	217.67
417.50	184.90
417.69	191.92
417.88	152.13
418.07	98.30
418.26	124.05
418.45	191.92
418.64	177.88
418.83	124.05
419.02	142.77
419.21	142.77
419.39	184.90
419.58	135.75
419.77	138.09
419.96	140.43
420.15	224.69
420.34	187.24
420.53	131.07
420.72	205.97
420.91	217.67
421.10	234.05
421.29	145.11
421.48	142.77
421.67	81.92
421.86	154.48
422.05	121.71
422.24	152.13
422.43	107.66
422.61	138.09
422.80	117.03
422.99	170.86
423.18	222.35
423.37	182.56
423.56	184.90
423.75	142.77
423.94	149.79
424.13	135.75
424.32	107.66
424.50	187.24
424.69	121.71
424.88	117.03
425.07	140.43
425.26	177.88
425.45	224.69
425.64	180.22
425.83	170.86
426.01	201.29
426.20	215.33
426.39	210.65
426.58	163.84
426.77	161.50
426.96	243.42
427.15	196.60
427.33	159.16
427.52	142.77
427.71	74.90
427.90	135.75
428.09	114.69
428.28	88.94
428.46	173.20
428.65	196.60
428.84	133.41
429.03	131.07
429.22	220.01
429.40	159.16
429.59	105.32
429.78	98.30
429.97	170.86
430.16	154.48
430.34	110.01
430.53	131.07
430.72	142.77
430.91	203.63
431.10	105.32
431.28	208.31
431.47	238.73
431.66	98.30
431.85	220.01
432.03	168.52
432.22	135.75
432.41	222.35
432.60	257.46
432.79	187.24
432.97	140.43
433.16	119.37
433.35	212.99
433.54	222.35
433.72	147.45
433.91	166.18
434.10	142.77
434.28	142.77
434.47	46.81
434.66	205.97
434.85	128.73
435.03	222.35
435.22	182.56
435.41	189.58
435.59	154.48
435.78	145.11
435.97	142.77
436.16	205.97
436.34	110.01
436.53	154.48
436.72	215.33
436.90	262.14
437.09	194.26
437.28	173.20
437.46	161.50
437.65	131.07
437.84	140.43
438.02	166.18
438.21	191.92
438.40	163.84
438.58	180.22
438.77	180.22
438.96	133.41
439.14	135.75
439.33	156.82
439.52	121.71
439.70	121.71
439.89	198.95
440.08	220.01
440.26	131.07
440.45	234.05
440.63	189.58
440.82	177.88
441.01	159.16
441.19	126.39
441.38	229.37
441.57	196.60
441.75	182.56
441.94	166.18
442.12	189.58
442.31	189.58
442.50	177.88
442.68	203.63
442.87	210.65
443.05	187.24
443.24	145.11
443.43	198.95
443.61	245.76
443.80	250.44
443.98	163.84
444.17	168.52
444.35	217.67
444.54	208.31
444.73	212.99
444.91	241.08
445.10	180.22
445.28	191.92
445.47	170.86
445.65	163.84
445.84	131.07
446.02	208.31
446.21	189.58
446.39	191.92
446.58	229.37
446.77	217.67
446.95	231.71
447.14	205.97
447.32	191.92
447.51	182.56
447.69	187.24
447.88	208.31
448.06	163.84
448.25	269.16
448.43	255.12
448.62	177.88
448.80	173.20
448.99	205.97
449.17	222.35
449.36	170.86
449.54	154.48
449.73	255.12
449.91	278.52
450.10	189.58
450.28	255.12
450.46	184.90
450.65	220.01
450.83	184.90
451.02	241.08
451.20	208.31
451.39	170.86
451.57	241.08
451.76	152.13
451.94	236.39
452.13	173.20
452.31	276.18
452.49	227.03
452.68	210.65
452.86	332.36
453.05	238.73
453.23	212.99
453.42	231.71
453.60	177.88
453.78	191.92
453.97	187.24
454.15	124.05
454.34	236.39
454.52	189.58
454.70	238.73
454.89	222.35
455.07	131.07
455.26	234.05
455.44	177.88
455.62	234.05
455.81	271.50
455.99	184.90
456.17	229.37
456.36	194.26
456.54	114.69
456.73	170.86
456.91	208.31
457.09	198.95
457.28	234.05
457.46	217.67
457.64	229.37
457.83	168.52
458.01	161.50
458.19	222.35
458.38	187.24
458.56	222.35
458.74	180.22
458.93	248.10
459.11	210.65
459.29	212.99
459.48	210.65
459.66	283.20
459.84	243.42
460.03	311.29
460.21	248.10
460.39	196.60
460.57	210.65
460.76	231.71
460.94	215.33
461.12	231.71
461.31	184.90
461.49	285.55
461.67	163.84
461.85	208.31
462.04	241.08
462.22	592.16
462.40	248.10
462.59	273.84
462.77	210.65
462.95	252.78
463.13	227.03
463.32	308.95
463.50	177.88
463.68	210.65
463.86	175.54
464.05	215.33
464.23	196.60
464.41	215.33
464.59	238.73
464.78	175.54
464.96	142.77
465.14	234.05
465.32	220.01
465.50	243.42
465.69	208.31
465.87	180.22
466.05	208.31
466.23	238.73
466.41	180.22
466.60	149.79
466.78	147.45
466.96	257.46
467.14	203.63
467.32	238.73
467.51	255.12
467.69	306.61
467.87	159.16
468.05	208.31
468.23	156.82
468.41	210.65
468.60	259.80
468.78	147.45
468.96	187.24
469.14	198.95
469.32	205.97
469.50	168.52
469.69	205.97
469.87	259.80
470.05	166.18
470.23	184.90
470.41	210.65
470.59	234.05
470.77	217.67
470.95	248.10
471.14	203.63
471.32	121.71
471.50	297.25
471.68	236.39
471.86	257.46
472.04	166.18
472.22	262.14
472.40	250.44
472.58	245.76
472.77	149.79
472.95	238.73
473.13	259.80
473.31	201.29
473.49	198.95
473.67	243.42
473.85	255.12
474.03	290.23
474.21	231.71
474.39	236.39
474.57	248.10
474.75	241.08
474.93	236.39
475.12	177.88
475.30	222.35
475.48	245.76
475.66	203.63
475.84	262.14
476.02	201.29
476.20	220.01
476.38	224.69
476.56	283.20
476.74	215.33
476.92	147.45
477.10	177.88
477.28	294.91
477.46	313.63
477.64	271.50
477.82	224.69
478.00	250.44
478.18	205.97
478.36	255.12
478.54	252.78
478.72	292.57
478.90	269.16
479.08	245.76
479.26	273.84
479.44	262.14
479.62	220.01
479.80	283.20
479.98	269.16
480.16	227.03
480.34	360.44
480.52	257.46
480.70	294.91
480.88	243.42
481.06	196.60
481.24	159.16
481.41	117.03
481.59	252.78
481.77	229.37
481.95	229.37
482.13	250.44
482.31	245.76
482.49	264.48
482.67	304.27
482.85	262.14
483.03	229.37
483.21	250.44
483.39	243.42
483.57	212.99
483.74	283.20
483.92	250.44
484.10	203.63
484.28	224.69
484.46	294.91
484.64	271.50
484.82	301.93
485.00	299.59
485.18	308.95
485.35	290.23
485.53	201.29
485.71	262.14
485.89	159.16
486.07	255.12
486.25	294.91
486.43	224.69
486.61	283.20
486.78	217.67
486.96	208.31
487.14	266.82
487.32	353.42
487.50	266.82
487.68	325.33
487.85	313.63
488.03	308.95
488.21	299.59
488.39	339.38
488.57	322.99
488.75	278.52
488.92	526.62
489.10	334.70
489.28	360.44
489.46	210.65
489.64	306.61
489.81	330.02
489.99	320.65
490.17	255.12
490.35	362.78
490.53	271.50
490.70	234.05
490.88	290.23
491.06	285.55
491.24	325.33
491.41	306.61
491.59	257.46
491.77	177.88
491.95	294.91
492.13	280.86
492.30	278.52
492.48	280.86
492.66	330.02
492.84	280.86
493.01	308.95
493.19	318.31
493.37	322.99
493.54	271.50
493.72	276.18
493.90	241.08
494.08	243.42
494.25	269.16
494.43	311.29
494.61	320.65
494.79	269.16
494.96	243.42
495.14	294.91
495.32	194.26
495.49	327.68
495.67	332.36
495.85	243.42
496.02	271.50
496.20	266.82
496.38	360.44
496.55	355.76
496.73	353.42
496.91	325.33
497.09	353.42
497.26	264.48
497.44	322.99
497.62	306.61
497.79	325.33
497.97	346.40
498.14	353.42
498.32	334.70
498.50	318.31
498.67	276.18
498.85	283.20
499.03	315.97
499.20	285.55
499.38	334.70
499.56	330.02
499.73	421.30
499.91	421.30
500.08	353.42
500.26	241.08
500.44	271.50
500.61	315.97
500.79	294.91
500.97	322.99
501.14	381.51
501.32	269.16
501.49	332.36
501.67	346.40
501.84	294.91
502.02	259.80
502.20	351.08
502.37	360.44
502.55	318.31
502.72	322.99
502.90	346.40
503.07	337.04
503.25	341.72
503.43	299.59
503.60	269.16
503.78	308.95
503.95	358.10
504.13	400.23
504.30	299.59
504.48	341.72
504.65	388.53
504.83	346.40
505.01	416.62
505.18	348.74
505.36	369.80
505.53	322.99
505.71	280.86
505.88	369.80
506.06	353.42
506.23	341.72
506.41	299.59
506.58	376.83
506.76	353.42
506.93	337.04
507.11	339.38
507.28	212.99
507.46	334.70
507.63	332.36
507.81	308.95
507.98	327.68
508.16	341.72
508.33	348.74
508.50	390.87
508.68	358.10
508.85	341.72
509.03	297.25
509.20	313.63
509.38	395.55
509.55	344.06
509.73	330.02
509.90	313.63
510.08	334.70
510.25	372.15
510.42	362.78
510.60	397.89
510.77	390.87
510.95	379.17
511.12	355.76
511.30	339.38
511.47	386.19
511.64	440.02
511.82	365.12
511.99	365.12
512.17	337.04
512.34	367.46
512.51	322.99
512.69	334.70
512.86	346.40
513.04	402.57
513.21	341.72
513.38	346.40
513.56	306.61
513.73	369.80
513.90	458.74
514.08	353.42
514.25	414.27
514.43	344.06
514.60	400.23
514.77	341.72
514.95	374.49
515.12	337.04
515.29	346.40
515.47	386.19
515.64	400.23
515.81	369.80
515.99	337.04
516.16	257.46
516.33	334.70
516.51	299.59
516.68	362.78
516.85	292.57
517.03	306.61
517.20	280.86
517.37	322.99
517.54	339.38
517.72	346.40
517.89	290.23
518.06	212.99
518.24	402.57
518.41	372.15
518.58	341.72
518.75	315.97
518.93	337.04
519.10	367.46
519.27	374.49
519.45	337.04
519.62	388.53
519.79	463.43
519.96	367.46
520.14	358.10
520.31	423.64
520.48	332.36
520.65	322.99
520.83	374.49
521.00	397.89
521.17	414.27
521.34	374.49
521.52	344.06
521.69	416.62
521.86	477.47
522.03	421.30
522.20	383.85
522.38	327.68
522.55	301.93
522.72	322.99
522.89	423.64
523.07	390.87
523.24	313.63
523.41	437.68
523.58	435.34
523.75	404.91
523.92	386.19
524.10	386.19
524.27	409.59
524.44	425.98
524.61	418.96
524.78	292.57
524.96	358.10
525.13	425.98
525.30	479.81
525.47	423.64
525.64	416.62
525.81	400.23
525.98	421.30
526.16	334.70
526.33	444.70
526.50	304.27
526.67	243.42
526.84	332.36
527.01	320.65
527.18	360.44
527.36	362.78
527.53	362.78
527.70	428.32
527.87	367.46
528.04	332.36
528.21	266.82
528.38	477.47
528.55	456.40
528.72	369.80
528.89	379.17
529.07	379.17
529.24	395.55
529.41	451.72
529.58	365.12
529.75	360.44
529.92	428.32
530.09	374.49
530.26	372.15
530.43	449.38
530.60	355.76
530.77	306.61
530.94	423.64
531.11	346.40
531.28	435.34
531.46	395.55
531.63	428.32
531.80	428.32
531.97	379.17
532.14	390.87
532.31	418.96
532.48	376.83
532.65	367.46
532.82	407.25
532.99	402.57
533.16	390.87
533.33	346.40
533.50	367.46
533.67	379.17
533.84	330.02
534.01	388.53
534.18	330.02
534.35	358.10
534.52	351.08
534.69	409.59
534.86	409.59
535.03	292.57
535.20	393.21
535.37	479.81
535.54	376.83
535.71	397.89
535.88	379.17
536.05	360.44
536.22	351.08
536.38	372.15
536.55	407.25
536.72	397.89
536.89	353.42
537.06	320.65
537.23	372.15
537.40	339.38
537.57	374.49
537.74	418.96
537.91	437.68
538.08	463.43
538.25	414.27
538.42	402.57
538.59	355.76
538.75	400.23
538.92	372.15
539.09	400.23
539.26	402.57
539.43	381.51
539.60	320.65
539.77	404.91
539.94	355.76
540.11	367.46
540.28	372.15
540.44	407.25
540.61	456.40
540.78	311.29
540.95	376.83
541.12	383.85
541.29	386.19
541.46	379.17
541.62	409.59
541.79	402.57
541.96	376.83
542.13	339.38
542.30	358.10
542.47	372.15
542.63	330.02
542.80	301.93
542.97	404.91
543.14	327.68
543.31	383.85
543.48	421.30
543.64	444.70
543.81	315.97
543.98	393.21
544.15	423.64
544.32	365.12
544.48	339.38
544.65	353.42
544.82	374.49
544.99	414.27
545.16	395.55
545.32	360.44
545.49	358.10
545.66	381.51
545.83	447.04
546.00	332.36
546.16	297.25
546.33	397.89
546.50	360.44
546.67	451.72
546.83	397.89
547.00	372.15
547.17	348.74
547.34	372.15
547.50	337.04
547.67	418.96
547.84	423.64
548.00	425.98
548.17	437.68
548.34	425.98
548.51	430.66
548.67	451.72
548.84	325.33
549.01	365.12
549.18	386.19
549.34	402.57
549.51	301.93
549.68	374.49
549.84	402.57
550.01	397.89
550.18	479.81
550.34	458.74
550.51	325.33
550.68	414.27
550.84	322.99
551.01	447.04
551.18	416.62
551.34	425.98
551.51	327.68
551.68	390.87
551.84	407.25
552.01	393.21
552.18	346.40
552.34	339.38
552.51	404.91
552.68	404.91
552.84	365.12
553.01	344.06
553.18	404.91
553.34	376.83
553.51	318.31
553.67	315.97
553.84	447.04
554.01	383.85
554.17	304.27
554.34	341.72
554.51	407.25
554.67	358.10
554.84	393.21
555.00	393.21
555.17	416.62
555.33	447.04
555.50	365.12
555.67	341.72
555.83	367.46
556.00	411.93
556.16	493.85
556.33	322.99
556.50	348.74
556.66	381.51
556.83	393.21
556.99	374.49
557.16	346.40
557.32	411.93
557.49	332.36
557.65	318.31
557.82	400.23
557.98	409.59
558.15	252.78
558.32	276.18
558.48	278.52
558.65	344.06
558.81	421.30
558.98	379.17
559.14	334.70
559.31	330.02
559.47	393.21
559.64	369.80
559.80	400.23
559.97	320.65
560.13	355.76
560.30	311.29
560.46	318.31
560.63	346.40
560.79	311.29
560.96	435.34
561.12	318.31
561.29	362.78
561.45	365.12
561.61	402.57
561.78	461.09
561.94	409.59
562.11	299.59
562.27	332.36
562.44	339.38
562.60	402.57
562.77	383.85
562.93	428.32
563.10	393.21
563.26	404.91
563.42	397.89
563.59	341.72
563.75	346.40
563.92	360.44
564.08	332.36
564.24	337.04
564.41	358.10
564.57	372.15
564.74	369.80
564.90	346.40
565.07	248.10
565.23	393.21
565.39	332.36
565.56	320.65
565.72	332.36
565.88	318.31
566.05	344.06
566.21	332.36
566.38	393.21
566.54	423.64
566.70	344.06
566.87	318.31
567.03	365.12
567.19	248.10
567.36	355.76
567.52	372.15
567.68	381.51
567.85	388.53
568.01	276.18
568.17	353.42
568.34	348.74
568.50	299.59
568.66	304.27
568.83	416.62
568.99	234.05
569.15	351.08
569.32	292.57
569.48	318.31
569.64	306.61
569.81	327.68
569.97	318.31
570.13	409.59
570.30	355.76
570.46	308.95
570.62	320.65
570.78	271.50
570.95	264.48
571.11	414.27
571.27	411.93
571.43	355.76
571.60	386.19
571.76	313.63
571.92	294.91
572.09	266.82
572.25	334.70
572.41	304.27
572.57	245.76
572.74	404.91
572.90	362.78
573.06	360.44
573.22	341.72
573.38	388.53
573.55	330.02
573.71	330.02
573.87	325.33
574.03	325.33
574.20	322.99
574.36	355.76
574.52	344.06
574.68	402.57
574.84	393.21
575.01	294.91
575.17	348.74
575.33	269.16
575.49	330.02
575.65	339.38
575.82	334.70
575.98	374.49
576.14	320.65
576.30	299.59
576.46	355.76
576.62	400.23
576.79	358.10
576.95	372.15
577.11	348.74
577.27	320.65
577.43	360.44
577.59	358.10
577.75	383.85
577.92	346.40
578.08	325.33
578.24	318.31
578.40	304.27
578.56	381.51
578.72	444.70
578.88	498.53
579.04	311.29
579.21	390.87
579.37	447.04
579.53	334.70
579.69	339.38
579.85	322.99
580.01	318.31
580.17	278.52
580.33	311.29
580.49	322.99
580.65	285.55
580.82	390.87
580.98	379.17
581.14	248.10
581.30	379.17
581.46	397.89
581.62	423.64
581.78	383.85
581.94	330.02
582.10	355.76
582.26	358.10
582.42	280.86
582.58	360.44
582.74	407.25
582.90	367.46
583.06	395.55
583.22	278.52
583.38	337.04
583.54	353.42
583.70	372.15
583.86	313.63
584.02	367.46
584.18	311.29
584.34	383.85
584.50	362.78
584.66	299.59
584.82	320.65
584.98	411.93
585.14	393.21
585.30	428.32
585.46	367.46
585.62	292.57
585.78	294.91
585.94	365.12
586.10	372.15
586.26	341.72
586.42	346.40
586.58	358.10
586.74	297.25
586.90	280.86
587.06	311.29
587.22	320.65
587.38	234.05
587.54	341.72
587.70	294.91
587.86	297.25
588.02	273.84
588.18	276.18
588.34	341.72
588.49	245.76
588.65	255.12
588.81	311.29
588.97	166.18
589.13	290.23
589.29	339.38
589.45	297.25
589.61	217.67
589.77	276.18
589.93	248.10
590.08	320.65
590.24	330.02
590.40	297.25
590.56	315.97
590.72	271.50
590.88	306.61
591.04	297.25
591.20	313.63
591.35	360.44
591.51	222.35
591.67	299.59
591.83	248.10
591.99	278.52
592.15	266.82
592.31	365.12
592.46	257.46
592.62	299.59
592.78	285.55
592.94	308.95
593.10	166.18
593.26	280.86
593.41	245.76
593.57	308.95
593.73	299.59
593.89	346.40
594.05	257.46
594.20	262.14
594.36	320.65
594.52	248.10
594.68	278.52
594.84	290.23
594.99	353.42
595.15	301.93
595.31	255.12
595.47	308.95
595.62	297.25
595.78	283.20
595.94	318.31
596.10	351.08
596.25	320.65
596.41	327.68
596.57	330.02
596.73	334.70
596.88	304.27
597.04	325.33
597.20	229.37
597.36	383.85
597.51	374.49
597.67	360.44
597.83	255.12
597.99	304.27
598.14	346.40
598.30	276.18
598.46	266.82
598.61	255.12
598.77	285.55
598.93	304.27
599.09	344.06
599.24	283.20
599.40	400.23
599.56	390.87
599.71	358.10
599.87	264.48
600.03	297.25
600.18	308.95
600.34	414.27
600.50	299.59
600.65	325.33
600.81	229.37
600.97	248.10
601.12	341.72
601.28	348.74
601.44	381.51
601.59	308.95
601.75	290.23
601.91	248.10
602.06	304.27
602.22	437.68
602.37	367.46
602.53	313.63
602.69	304.27
602.84	269.16
603.00	341.72
603.16	290.23
603.31	367.46
603.47	402.57
603.62	264.48
603.78	360.44
603.94	388.53
604.09	322.99
604.25	388.53
604.40	344.06
604.56	285.55
604.71	353.42
604.87	217.67
605.03	248.10
605.18	322.99
605.34	313.63
605.49	262.14
605.65	262.14
605.80	318.31
605.96	301.93
606.12	374.49
606.27	337.04
606.43	276.18
606.58	341.72
606.74	325.33
606.89	290.23
607.05	330.02
607.20	304.27
607.36	325.33
607.51	257.46
607.67	327.68
607.82	297.25
607.98	358.10
608.13	339.38
608.29	355.76
608.44	297.25
608.60	341.72
608.75	273.84
608.91	355.76
609.06	365.12
609.22	308.95
609.37	280.86
609.53	250.44
609.68	292.57
609.84	320.65
609.99	299.59
610.15	367.46
610.30	320.65
610.46	320.65
610.61	290.23
610.76	332.36
610.92	287.89
611.07	294.91
611.23	369.80
611.38	334.70
611.54	285.55
611.69	299.59
611.84	339.38
612.00	276.18
612.15	346.40
612.31	276.18
612.46	212.99
612.62	365.12
612.77	245.76
612.92	287.89
613.08	327.68
613.23	269.16
613.39	285.55
613.54	290.23
613.69	341.72
613.85	276.18
614.00	308.95
614.15	351.08
614.31	308.95
614.46	372.15
614.62	292.57
614.77	243.42
614.92	297.25
615.08	243.42
615.23	360.44
615.38	285.55
615.54	227.03
615.69	243.42
615.84	320.65
616.00	276.18
616.15	255.12
616.30	252.78
616.46	297.25
616.61	278.52
616.76	241.08
616.92	292.57
617.07	290.23
617.22	273.84
617.37	236.39
617.53	271.50
617.68	292.57
617.83	304.27
617.99	294.91
618.14	325.33
618.29	297.25
618.45	322.99
618.60	187.24
618.75	271.50
618.90	205.97
619.06	227.03
619.21	320.65
619.36	299.59
619.51	212.99
619.67	278.52
619.82	215.33
619.97	287.89
620.12	292.57
620.28	327.68
620.43	322.99
620.58	259.80
620.73	313.63
620.89	301.93
621.04	297.25
621.19	257.46
621.34	292.57
621.49	259.80
621.65	313.63
621.80	271.50
621.95	280.86
622.10	353.42
622.25	245.76
622.41	236.39
622.56	255.12
622.71	224.69
622.86	234.05
623.01	248.10
623.16	315.97
623.32	278.52
623.47	290.23
623.62	248.10
623.77	184.90
623.92	234.05
624.07	266.82
624.23	241.08
624.38	269.16
624.53	271.50
624.68	269.16
624.83	245.76
624.98	315.97
625.13	220.01
625.29	236.39
625.44	241.08
625.59	278.52
625.74	299.59
625.89	313.63
626.04	290.23
626.19	250.44
626.34	257.46
626.49	276.18
626.65	297.25
626.80	285.55
626.95	271.50
627.10	292.57
627.25	208.31
627.40	236.39
627.55	241.08
627.70	231.71
627.85	294.91
628.00	266.82
628.15	191.92
628.30	227.03
628.45	255.12
628.60	229.37
628.76	262.14
628.91	156.82
629.06	250.44
629.21	217.67
629.36	269.16
629.51	238.73
629.66	255.12
629.81	220.01
629.96	315.97
630.11	194.26
630.26	276.18
630.41	229.37
630.56	301.93
630.71	205.97
630.86	234.05
631.01	170.86
631.16	184.90
631.31	259.80
631.46	280.86
631.61	205.97
631.76	301.93
631.91	203.63
632.06	220.01
632.21	264.48
632.36	220.01
632.51	210.65
632.66	297.25
632.81	210.65
632.96	163.84
633.10	227.03
633.25	287.89
633.40	231.71
633.55	194.26
633.70	198.95
633.85	238.73
634.00	234.05
634.15	250.44
634.30	236.39
634.45	304.27
634.60	163.84
634.75	222.35
634.90	210.65
635.05	278.52
635.19	278.52
635.34	224.69
635.49	255.12
635.64	330.02
635.79	255.12
635.94	308.95
636.09	301.93
636.24	304.27
636.39	191.92
636.53	248.10
636.68	358.10
636.83	283.20
636.98	248.10
637.13	248.10
637.28	245.76
637.43	217.67
637.57	238.73
637.72	285.55
637.87	264.48
638.02	234.05
638.17	259.80
638.32	215.33
638.46	360.44
638.61	257.46
638.76	257.46
638.91	276.18
639.06	262.14
639.20	294.91
639.35	311.29
639.50	229.37
639.65	311.29
639.80	245.76
639.94	203.63
640.09	264.48
640.24	182.56
640.39	266.82
640.54	163.84
640.68	227.03
640.83	294.91
640.98	255.12
641.13	243.42
641.27	248.10
641.42	238.73
641.57	280.86
641.72	287.89
641.86	245.76
642.01	259.80
642.16	322.99
642.31	285.55
642.45	229.37
642.60	252.78
642.75	257.46
642.90	212.99
643.04	222.35
643.19	220.01
643.34	262.14
643.48	177.88
643.63	255.12
643.78	257.46
643.93	330.02
644.07	262.14
644.22	264.48
644.37	248.10
644.51	191.92
644.66	264.48
644.81	217.67
644.95	208.31
645.10	182.56
645.25	259.80
645.39	208.31
645.54	241.08
645.69	205.97
645.83	217.67
645.98	351.08
646.13	201.29
646.27	292.57
646.42	124.05
646.57	187.24
646.71	224.69
646.86	191.92
647.00	203.63
647.15	177.88
647.30	264.48
647.44	231.71
647.59	149.79
647.74	187.24
647.88	177.88
648.03	163.84
648.17	262.14
648.32	152.13
648.47	217.67
648.61	210.65
648.76	189.58
648.90	250.44
649.05	196.60
649.20	124.05
649.34	234.05
649.49	229.37
649.63	269.16
649.78	191.92
649.92	161.50
650.07	276.18
650.21	187.24
650.36	287.89
650.51	273.84
650.65	330.02
650.80	252.78
650.94	210.65
651.09	170.86
651.23	229.37
651.38	238.73
651.52	234.05
651.67	166.18
651.81	266.82
651.96	280.86
652.10	229.37
652.25	177.88
652.39	168.52
652.54	273.84
652.68	250.44
652.83	278.52
652.97	259.80
653.12	245.76
653.26	163.84
653.41	245.76
653.55	217.67
653.70	241.08
653.84	177.88
653.99	250.44
654.13	175.54
654.27	210.65
654.42	154.48
654.56	212.99
654.71	264.48
654.85	297.25
655.00	271.50
655.14	224.69
655.29	196.60
655.43	203.63
655.57	243.42
655.72	201.29
655.86	156.82
656.01	140.43
656.15	140.43
656.30	257.46
656.44	182.56
656.58	175.54
656.73	264.48
656.87	166.18
657.01	159.16
657.16	276.18
657.30	177.88
657.45	229.37
657.59	231.71
657.73	203.63
657.88	140.43
658.02	283.20
658.16	227.03
658.31	205.97
658.45	215.33
658.60	133.41
658.74	234.05
658.88	168.52
659.03	255.12
659.17	212.99
659.31	252.78
659.46	145.11
659.60	189.58
659.74	126.39
659.89	163.84
660.03	229.37
660.17	245.76
660.32	297.25
660.46	220.01
660.60	294.91
660.74	234.05
660.89	224.69
661.03	222.35
661.17	248.10
661.32	187.24
661.46	191.92
661.60	191.92
661.74	152.13
661.89	210.65
662.03	203.63
662.17	224.69
662.31	313.63
662.46	227.03
662.60	227.03
662.74	100.64
662.88	229.37
663.03	224.69
663.17	241.08
663.31	210.65
663.45	203.63
663.60	241.08
663.74	227.03
663.88	147.45
664.02	252.78
664.17	191.92
664.31	259.80
664.45	292.57
664.59	189.58
664.73	189.58
664.88	229.37
665.02	236.39
665.16	142.77
665.30	220.01
665.44	224.69
665.59	290.23
665.73	229.37
665.87	227.03
666.01	210.65
666.15	154.48
666.29	135.75
666.44	252.78
666.58	269.16
666.72	177.88
666.86	234.05
667.00	210.65
667.14	142.77
667.28	243.42
667.43	245.76
667.57	215.33
667.71	243.42
667.85	156.82
667.99	229.37
668.13	222.35
668.27	220.01
668.41	203.63
668.56	269.16
668.70	262.14
668.84	273.84
668.98	238.73
669.12	187.24
669.26	201.29
669.40	229.37
669.54	154.48
669.68	191.92
669.82	142.77
669.96	227.03
670.10	159.16
670.25	212.99
670.39	229.37
670.53	126.39
670.67	276.18
670.81	210.65
670.95	177.88
671.09	170.86
671.23	215.33
671.37	140.43
671.51	231.71
671.65	224.69
671.79	156.82
671.93	161.50
672.07	191.92
672.21	231.71
672.35	187.24
672.49	135.75
672.63	198.95
672.77	191.92
672.91	170.86
673.05	259.80
673.19	189.58
673.33	161.50
673.47	175.54
673.61	217.67
673.75	156.82
673.89	208.31
674.03	196.60
674.17	147.45
674.31	194.26
674.45	217.67
674.59	201.29
674.73	243.42
674.87	271.50
675.01	180.22
675.15	133.41
675.29	191.92
675.43	189.58
675.56	236.39
675.70	220.01
675.84	208.31
675.98	220.01
676.12	205.97
676.26	196.60
676.40	112.35
676.54	234.05
676.68	173.20
676.82	205.97
676.96	152.13
677.10	196.60
677.23	163.84
677.37	114.69
677.51	194.26
677.65	292.57
677.79	177.88
677.93	222.35
678.07	156.82
678.21	191.92
678.34	142.77
678.48	142.77
678.62	177.88
678.76	191.92
678.90	177.88
679.04	231.71
679.18	191.92
679.31	156.82
679.45	102.98
679.59	177.88
679.73	159.16
679.87	107.66
680.00	187.24
680.14	175.54
680.28	194.26
680.42	124.05
680.56	170.86
680.70	212.99
680.83	133.41
680.97	182.56
681.11	245.76
681.25	208.31
681.39	98.30
681.52	133.41
681.66	191.92
681.80	163.84
681.94	154.48
682.07	196.60
682.21	243.42
682.35	238.73
682.49	117.03
682.62	255.12
682.76	203.63
682.90	159.16
683.04	163.84
683.17	95.96
683.31	128.73
683.45	156.82
683.59	269.16
683.72	175.54
683.86	224.69
684.00	227.03
684.13	184.90
684.27	203.63
684.41	133.41
684.55	173.20
684.68	229.37
684.82	126.39
684.96	182.56
685.09	224.69
685.23	154.48
685.37	175.54
685.50	182.56
685.64	210.65
685.78	182.56
685.91	236.39
686.05	191.92
686.19	98.30
686.32	138.09
686.46	102.98
686.60	147.45
686.73	264.48
686.87	102.98
687.01	51.49
687.14	135.75
687.28	110.01
687.42	142.77
687.55	107.66
687.69	133.41
687.82	102.98
687.96	74.90
688.10	175.54
688.23	81.92
688.37	259.80
688.50	163.84
688.64	156.82
688.78	149.79
688.91	149.79
689.05	88.94
689.18	175.54
689.32	205.97
689.46	93.62
689.59	212.99
689.73	166.18
689.86	138.09
690.00	184.90
690.13	102.98
690.27	140.43
690.41	131.07
690.54	196.60
690.68	138.09
690.81	25.75
690.95	196.60
691.08	149.79
691.22	196.60
691.35	88.94
691.49	135.75
691.62	107.66
691.76	149.79
691.89	98.30
692.03	180.22
692.16	100.64
692.30	93.62
692.43	126.39
692.57	140.43
692.70	105.32
692.84	154.48
692.97	152.13
693.11	140.43
693.24	173.20
693.38	145.11
693.51	102.98
693.65	194.26
693.78	140.43
693.92	93.62
694.05	177.88
694.19	184.90
694.32	170.86
694.45	102.98
694.59	189.58
694.72	72.56
694.86	170.86
694.99	170.86
695.13	205.97
695.26	133.41
695.39	105.32
695.53	252.78
695.66	187.24
695.80	180.22
695.93	93.62
696.07	173.20
696.20	184.90
696.33	121.71
696.47	124.05
696.60	114.69
696.73	133.41
696.87	126.39
697.00	119.37
697.14	149.79
697.27	194.26
697.40	210.65
697.54	180.22
697.67	98.30
697.80	70.22
697.94	86.60
698.07	154.48
698.21	114.69
698.34	154.48
698.47	149.79
698.61	100.64
698.74	142.77
698.87	128.73
699.01	191.92
699.14	112.35
699.27	145.11
699.40	201.29
699.54	124.05
699.67	234.05
699.80	191.92
699.94	135.75
700.07	159.16
700.20	51.49
700.34	166.18
700.47	74.90
700.60	124.05
700.73	98.30
700.87	119.37
701.00	166.18
701.13	63.19
701.26	166.18
701.40	145.11
701.53	147.45
701.66	117.03
701.79	39.79
701.93	163.84
702.06	117.03
702.19	140.43
702.32	131.07
702.46	124.05
702.59	119.37
702.72	135.75
702.85	212.99
702.99	198.95
703.12	224.69
703.25	152.13
703.38	180.22
703.51	107.66
703.65	86.60
703.78	114.69
703.91	154.48
704.04	154.48
704.17	107.66
704.31	93.62
704.44	126.39
704.57	149.79
704.70	124.05
704.83	131.07
704.96	163.84
705.10	105.32
705.23	156.82
>>>>>End Processed Spectral Data<<<<<
