SpectraSuite Data File
++++++++++++++++++++++++++++++++++++
Date: Fri Oct 04 11:47:10 GMT-05:00 2013
User: price-jones
Dark Spectrum Present: No
Reference Spectrum Present: No
Number of Sampled Component Spectra: 1
Spectrometers: USB2+H05261
Integration Time (usec): 100000 (USB2+H05261)
Spectra Averaged: 1 (USB2+H05261)
Boxcar Smoothing: 0 (USB2+H05261)
Correct for Electrical Dark: No (USB2+H05261)
Strobe/Lamp Enabled: No (USB2+H05261)
Correct for Detector Non-linearity: No (USB2+H05261)
Correct for Stray Light: No (USB2+H05261)
Number of Pixels in Processed Spectrum: 2048
>>>>>Begin Processed Spectral Data<<<<<
365.73	49.15
365.92	49.15
366.12	49.15
366.32	0.00
366.52	0.00
366.72	0.00
366.91	0.00
367.11	0.00
367.31	0.00
367.51	0.00
367.70	0.00
367.90	0.00
368.10	0.00
368.30	0.00
368.49	0.00
368.69	0.00
368.89	0.00
369.09	0.00
369.28	0.00
369.48	0.00
369.68	0.00
369.87	0.00
370.07	0.00
370.27	30.43
370.47	0.00
370.66	9.36
370.86	77.24
371.06	32.77
371.25	44.47
371.45	21.06
371.65	53.83
371.84	46.81
372.04	67.88
372.24	100.64
372.44	42.13
372.63	21.06
372.83	86.60
373.03	65.54
373.22	124.05
373.42	119.37
373.62	79.58
373.81	81.92
374.01	182.56
374.21	177.88
374.40	72.56
374.60	131.07
374.79	131.07
374.99	44.47
375.19	131.07
375.38	154.48
375.58	72.56
375.78	37.45
375.97	119.37
376.17	168.52
376.37	133.41
376.56	117.03
376.76	147.45
376.95	142.77
377.15	9.36
377.35	93.62
377.54	117.03
377.74	105.32
377.93	65.54
378.13	93.62
378.33	135.75
378.52	67.88
378.72	72.56
378.91	91.28
379.11	72.56
379.31	100.64
379.50	42.13
379.70	84.26
379.89	131.07
380.09	63.19
380.28	56.17
380.48	107.66
380.68	42.13
380.87	46.81
381.07	102.98
381.26	105.32
381.46	81.92
381.65	77.24
381.85	105.32
382.04	121.71
382.24	46.81
382.43	70.22
382.63	81.92
382.83	39.79
383.02	215.33
383.22	189.58
383.41	60.85
383.61	138.09
383.80	0.00
384.00	46.81
384.19	23.41
384.39	121.71
384.58	88.94
384.78	81.92
384.97	102.98
385.17	18.72
385.36	88.94
385.56	44.47
385.75	44.47
385.95	121.71
386.14	14.04
386.34	107.66
386.53	119.37
386.72	173.20
386.92	86.60
387.11	112.35
387.31	133.41
387.50	53.83
387.70	93.62
387.89	93.62
388.09	77.24
388.28	133.41
388.48	86.60
388.67	110.01
388.86	49.15
389.06	84.26
389.25	138.09
389.45	105.32
389.64	81.92
389.84	114.69
390.03	105.32
390.22	110.01
390.42	93.62
390.61	74.90
390.81	51.49
391.00	86.60
391.19	105.32
391.39	28.09
391.58	126.39
391.78	133.41
391.97	91.28
392.16	112.35
392.36	86.60
392.55	138.09
392.75	110.01
392.94	114.69
393.13	201.29
393.33	119.37
393.52	138.09
393.71	110.01
393.91	114.69
394.10	60.85
394.29	91.28
394.49	81.92
394.68	51.49
394.88	131.07
395.07	88.94
395.26	114.69
395.46	159.16
395.65	102.98
395.84	102.98
396.04	187.24
396.23	110.01
396.42	74.90
396.62	93.62
396.81	124.05
397.00	63.19
397.19	133.41
397.39	91.28
397.58	203.63
397.77	102.98
397.97	107.66
398.16	110.01
398.35	107.66
398.55	105.32
398.74	124.05
398.93	39.79
399.12	175.54
399.32	142.77
399.51	49.15
399.70	145.11
399.90	100.64
400.09	102.98
400.28	100.64
400.47	105.32
400.67	114.69
400.86	138.09
401.05	154.48
401.24	210.65
401.44	131.07
401.63	124.05
401.82	124.05
402.01	77.24
402.21	138.09
402.40	23.41
402.59	93.62
402.78	53.83
402.97	114.69
403.17	168.52
403.36	95.96
403.55	84.26
403.74	46.81
403.93	0.00
404.13	86.60
404.32	53.83
404.51	65.54
404.70	147.45
404.89	53.83
405.09	159.16
405.28	161.50
405.47	39.79
405.66	49.15
405.85	95.96
406.05	117.03
406.24	79.58
406.43	107.66
406.62	42.13
406.81	198.95
407.00	72.56
407.20	98.30
407.39	37.45
407.58	14.04
407.77	86.60
407.96	170.86
408.15	126.39
408.34	79.58
408.54	86.60
408.73	170.86
408.92	72.56
409.11	95.96
409.30	163.84
409.49	95.96
409.68	114.69
409.87	133.41
410.07	105.32
410.26	107.66
410.45	93.62
410.64	79.58
410.83	58.51
411.02	177.88
411.21	107.66
411.40	170.86
411.59	25.75
411.78	114.69
411.98	140.43
412.17	100.64
412.36	60.85
412.55	86.60
412.74	175.54
412.93	154.48
413.12	88.94
413.31	74.90
413.50	140.43
413.69	44.47
413.88	163.84
414.07	135.75
414.26	175.54
414.45	168.52
414.64	70.22
414.83	152.13
415.02	128.73
415.22	168.52
415.41	131.07
415.60	74.90
415.79	124.05
415.98	128.73
416.17	203.63
416.36	152.13
416.55	60.85
416.74	81.92
416.93	152.13
417.12	70.22
417.31	93.62
417.50	119.37
417.69	105.32
417.88	86.60
418.07	180.22
418.26	117.03
418.45	124.05
418.64	140.43
418.83	119.37
419.02	91.28
419.21	210.65
419.39	173.20
419.58	11.70
419.77	114.69
419.96	140.43
420.15	67.88
420.34	177.88
420.53	159.16
420.72	98.30
420.91	107.66
421.10	117.03
421.29	147.45
421.48	114.69
421.67	93.62
421.86	105.32
422.05	133.41
422.24	67.88
422.43	72.56
422.61	102.98
422.80	100.64
422.99	140.43
423.18	170.86
423.37	138.09
423.56	100.64
423.75	121.71
423.94	98.30
424.13	147.45
424.32	65.54
424.50	105.32
424.69	154.48
424.88	138.09
425.07	159.16
425.26	79.58
425.45	140.43
425.64	93.62
425.83	70.22
426.01	91.28
426.20	138.09
426.39	16.38
426.58	152.13
426.77	133.41
426.96	180.22
427.15	124.05
427.33	135.75
427.52	156.82
427.71	105.32
427.90	98.30
428.09	117.03
428.28	56.17
428.46	152.13
428.65	117.03
428.84	107.66
429.03	112.35
429.22	81.92
429.40	72.56
429.59	98.30
429.78	140.43
429.97	105.32
430.16	46.81
430.34	95.96
430.53	98.30
430.72	147.45
430.91	79.58
431.10	154.48
431.28	84.26
431.47	168.52
431.66	121.71
431.85	81.92
432.03	140.43
432.22	170.86
432.41	91.28
432.60	159.16
432.79	105.32
432.97	79.58
433.16	147.45
433.35	114.69
433.54	110.01
433.72	121.71
433.91	105.32
434.10	135.75
434.28	131.07
434.47	107.66
434.66	147.45
434.85	156.82
435.03	65.54
435.22	154.48
435.41	163.84
435.59	135.75
435.78	72.56
435.97	198.95
436.16	121.71
436.34	128.73
436.53	154.48
436.72	175.54
436.90	133.41
437.09	84.26
437.28	189.58
437.46	189.58
437.65	142.77
437.84	121.71
438.02	98.30
438.21	79.58
438.40	81.92
438.58	135.75
438.77	128.73
438.96	126.39
439.14	67.88
439.33	140.43
439.52	91.28
439.70	140.43
439.89	112.35
440.08	74.90
440.26	124.05
440.45	105.32
440.63	117.03
440.82	117.03
441.01	180.22
441.19	170.86
441.38	102.98
441.57	110.01
441.75	147.45
441.94	98.30
442.12	147.45
442.31	88.94
442.50	138.09
442.68	147.45
442.87	131.07
443.05	142.77
443.24	198.95
443.43	180.22
443.61	182.56
443.80	138.09
443.98	100.64
444.17	135.75
444.35	210.65
444.54	107.66
444.73	156.82
444.91	182.56
445.10	145.11
445.28	79.58
445.47	133.41
445.65	163.84
445.84	58.51
446.02	119.37
446.21	86.60
446.39	77.24
446.58	154.48
446.77	16.38
446.95	161.50
447.14	177.88
447.32	175.54
447.51	74.90
447.69	133.41
447.88	121.71
448.06	124.05
448.25	18.72
448.43	170.86
448.62	72.56
448.80	152.13
448.99	133.41
449.17	121.71
449.36	70.22
449.54	93.62
449.73	166.18
449.91	79.58
450.10	161.50
450.28	156.82
450.46	173.20
450.65	212.99
450.83	114.69
451.02	147.45
451.20	98.30
451.39	140.43
451.57	37.45
451.76	126.39
451.94	107.66
452.13	131.07
452.31	126.39
452.49	163.84
452.68	121.71
452.86	91.28
453.05	131.07
453.23	135.75
453.42	124.05
453.60	124.05
453.78	145.11
453.97	84.26
454.15	91.28
454.34	56.17
454.52	142.77
454.70	142.77
454.89	168.52
455.07	98.30
455.26	161.50
455.44	161.50
455.62	91.28
455.81	180.22
455.99	152.13
456.17	133.41
456.36	119.37
456.54	175.54
456.73	142.77
456.91	140.43
457.09	84.26
457.28	161.50
457.46	98.30
457.64	140.43
457.83	161.50
458.01	114.69
458.19	140.43
458.38	105.32
458.56	93.62
458.74	140.43
458.93	119.37
459.11	149.79
459.29	100.64
459.48	170.86
459.66	180.22
459.84	117.03
460.03	124.05
460.21	229.37
460.39	191.92
460.57	100.64
460.76	93.62
460.94	88.94
461.12	210.65
461.31	224.69
461.49	124.05
461.67	166.18
461.85	156.82
462.04	168.52
462.22	667.05
462.40	191.92
462.59	163.84
462.77	93.62
462.95	135.75
463.13	149.79
463.32	168.52
463.50	105.32
463.68	112.35
463.86	133.41
464.05	133.41
464.23	117.03
464.41	163.84
464.59	128.73
464.78	79.58
464.96	16.38
465.14	152.13
465.32	152.13
465.50	117.03
465.69	184.90
465.87	140.43
466.05	98.30
466.23	95.96
466.41	117.03
466.60	152.13
466.78	107.66
466.96	175.54
467.14	182.56
467.32	180.22
467.51	203.63
467.69	168.52
467.87	168.52
468.05	142.77
468.23	194.26
468.41	163.84
468.60	110.01
468.78	147.45
468.96	189.58
469.14	138.09
469.32	128.73
469.50	170.86
469.69	133.41
469.87	161.50
470.05	131.07
470.23	102.98
470.41	77.24
470.59	98.30
470.77	149.79
470.95	177.88
471.14	198.95
471.32	152.13
471.50	191.92
471.68	163.84
471.86	170.86
472.04	100.64
472.22	110.01
472.40	133.41
472.58	58.51
472.77	135.75
472.95	220.01
473.13	163.84
473.31	159.16
473.49	145.11
473.67	93.62
473.85	163.84
474.03	133.41
474.21	114.69
474.39	210.65
474.57	208.31
474.75	131.07
474.93	117.03
475.12	74.90
475.30	124.05
475.48	180.22
475.66	135.75
475.84	124.05
476.02	166.18
476.20	114.69
476.38	147.45
476.56	196.60
476.74	149.79
476.92	135.75
477.10	133.41
477.28	194.26
477.46	114.69
477.64	145.11
477.82	63.19
478.00	117.03
478.18	191.92
478.36	135.75
478.54	63.19
478.72	77.24
478.90	124.05
479.08	189.58
479.26	124.05
479.44	138.09
479.62	166.18
479.80	107.66
479.98	161.50
480.16	138.09
480.34	152.13
480.52	114.69
480.70	86.60
480.88	102.98
481.06	117.03
481.24	81.92
481.41	126.39
481.59	95.96
481.77	159.16
481.95	180.22
482.13	147.45
482.31	124.05
482.49	133.41
482.67	189.58
482.85	119.37
483.03	236.39
483.21	140.43
483.39	161.50
483.57	140.43
483.74	168.52
483.92	149.79
484.10	147.45
484.28	133.41
484.46	212.99
484.64	184.90
484.82	156.82
485.00	128.73
485.18	117.03
485.35	152.13
485.53	114.69
485.71	187.24
485.89	128.73
486.07	110.01
486.25	217.67
486.43	159.16
486.61	196.60
486.78	95.96
486.96	182.56
487.14	163.84
487.32	124.05
487.50	152.13
487.68	159.16
487.85	128.73
488.03	140.43
488.21	182.56
488.39	194.26
488.57	159.16
488.75	84.26
488.92	437.68
489.10	156.82
489.28	191.92
489.46	74.90
489.64	173.20
489.81	201.29
489.99	208.31
490.17	241.08
490.35	220.01
490.53	220.01
490.70	201.29
490.88	196.60
491.06	91.28
491.24	168.52
491.41	159.16
491.59	121.71
491.77	149.79
491.95	131.07
492.13	177.88
492.30	163.84
492.48	196.60
492.66	191.92
492.84	198.95
493.01	154.48
493.19	88.94
493.37	224.69
493.54	138.09
493.72	180.22
493.90	168.52
494.08	222.35
494.25	163.84
494.43	191.92
494.61	135.75
494.79	205.97
494.96	138.09
495.14	140.43
495.32	194.26
495.49	203.63
495.67	114.69
495.85	121.71
496.02	65.54
496.20	170.86
496.38	222.35
496.55	156.82
496.73	163.84
496.91	205.97
497.09	196.60
497.26	149.79
497.44	180.22
497.62	184.90
497.79	159.16
497.97	168.52
498.14	173.20
498.32	191.92
498.50	124.05
498.67	168.52
498.85	224.69
499.03	227.03
499.20	229.37
499.38	166.18
499.56	79.58
499.73	266.82
499.91	201.29
500.08	290.23
500.26	180.22
500.44	191.92
500.61	299.59
500.79	182.56
500.97	177.88
501.14	189.58
501.32	175.54
501.49	133.41
501.67	166.18
501.84	117.03
502.02	100.64
502.20	245.76
502.37	170.86
502.55	208.31
502.72	147.45
502.90	119.37
503.07	110.01
503.25	224.69
503.43	173.20
503.60	229.37
503.78	196.60
503.95	184.90
504.13	224.69
504.30	161.50
504.48	198.95
504.65	222.35
504.83	285.55
505.01	166.18
505.18	234.05
505.36	224.69
505.53	212.99
505.71	210.65
505.88	182.56
506.06	163.84
506.23	175.54
506.41	149.79
506.58	229.37
506.76	163.84
506.93	161.50
507.11	287.89
507.28	112.35
507.46	147.45
507.63	196.60
507.81	210.65
507.98	203.63
508.16	205.97
508.33	194.26
508.50	208.31
508.68	248.10
508.85	166.18
509.03	203.63
509.20	198.95
509.38	105.32
509.55	138.09
509.73	196.60
509.90	203.63
510.08	147.45
510.25	227.03
510.42	154.48
510.60	107.66
510.77	236.39
510.95	262.14
511.12	170.86
511.30	262.14
511.47	278.52
511.64	234.05
511.82	187.24
511.99	220.01
512.17	208.31
512.34	224.69
512.51	131.07
512.69	224.69
512.86	184.90
513.04	184.90
513.21	107.66
513.38	220.01
513.56	196.60
513.73	182.56
513.90	177.88
514.08	147.45
514.25	205.97
514.43	147.45
514.60	210.65
514.77	203.63
514.95	184.90
515.12	180.22
515.29	196.60
515.47	152.13
515.64	177.88
515.81	208.31
515.99	128.73
516.16	208.31
516.33	236.39
516.51	166.18
516.68	145.11
516.85	161.50
517.03	194.26
517.20	180.22
517.37	217.67
517.54	224.69
517.72	182.56
517.89	142.77
518.06	91.28
518.24	222.35
518.41	198.95
518.58	245.76
518.75	175.54
518.93	166.18
519.10	222.35
519.27	210.65
519.45	177.88
519.62	173.20
519.79	215.33
519.96	203.63
520.14	95.96
520.31	243.42
520.48	168.52
520.65	184.90
520.83	112.35
521.00	166.18
521.17	194.26
521.34	262.14
521.52	156.82
521.69	198.95
521.86	191.92
522.03	301.93
522.20	243.42
522.38	112.35
522.55	220.01
522.72	147.45
522.89	166.18
523.07	273.84
523.24	140.43
523.41	189.58
523.58	166.18
523.75	145.11
523.92	194.26
524.10	194.26
524.27	173.20
524.44	187.24
524.61	222.35
524.78	201.29
524.96	184.90
525.13	252.78
525.30	220.01
525.47	126.39
525.64	173.20
525.81	189.58
525.98	198.95
526.16	145.11
526.33	173.20
526.50	161.50
526.67	112.35
526.84	93.62
527.01	231.71
527.18	140.43
527.36	110.01
527.53	135.75
527.70	124.05
527.87	189.58
528.04	217.67
528.21	121.71
528.38	184.90
528.55	205.97
528.72	257.46
528.89	194.26
529.07	189.58
529.24	210.65
529.41	222.35
529.58	227.03
529.75	184.90
529.92	255.12
530.09	163.84
530.26	243.42
530.43	168.52
530.60	161.50
530.77	166.18
530.94	231.71
531.11	187.24
531.28	145.11
531.46	220.01
531.63	189.58
531.80	194.26
531.97	222.35
532.14	224.69
532.31	196.60
532.48	189.58
532.65	229.37
532.82	154.48
532.99	166.18
533.16	138.09
533.33	220.01
533.50	215.33
533.67	126.39
533.84	264.48
534.01	196.60
534.18	243.42
534.35	182.56
534.52	166.18
534.69	227.03
534.86	283.20
535.03	168.52
535.20	184.90
535.37	248.10
535.54	224.69
535.71	147.45
535.88	161.50
536.05	152.13
536.22	159.16
536.38	177.88
536.55	269.16
536.72	189.58
536.89	175.54
537.06	198.95
537.23	191.92
537.40	229.37
537.57	210.65
537.74	245.76
537.91	241.08
538.08	182.56
538.25	271.50
538.42	161.50
538.59	255.12
538.75	182.56
538.92	196.60
539.09	212.99
539.26	161.50
539.43	257.46
539.60	149.79
539.77	198.95
539.94	107.66
540.11	210.65
540.28	243.42
540.44	259.80
540.61	259.80
540.78	259.80
540.95	163.84
541.12	198.95
541.29	107.66
541.46	128.73
541.62	124.05
541.79	243.42
541.96	154.48
542.13	259.80
542.30	163.84
542.47	215.33
542.63	184.90
542.80	196.60
542.97	191.92
543.14	245.76
543.31	220.01
543.48	180.22
543.64	191.92
543.81	131.07
543.98	138.09
544.15	198.95
544.32	114.69
544.48	187.24
544.65	236.39
544.82	229.37
544.99	191.92
545.16	215.33
545.32	163.84
545.49	184.90
545.66	175.54
545.83	154.48
546.00	147.45
546.16	248.10
546.33	194.26
546.50	191.92
546.67	189.58
546.83	102.98
547.00	191.92
547.17	252.78
547.34	114.69
547.50	156.82
547.67	189.58
547.84	161.50
548.00	161.50
548.17	220.01
548.34	231.71
548.51	262.14
548.67	227.03
548.84	217.67
549.01	210.65
549.18	168.52
549.34	121.71
549.51	229.37
549.68	205.97
549.84	154.48
550.01	205.97
550.18	285.55
550.34	271.50
550.51	196.60
550.68	250.44
550.84	203.63
551.01	203.63
551.18	124.05
551.34	131.07
551.51	222.35
551.68	220.01
551.84	252.78
552.01	187.24
552.18	245.76
552.34	187.24
552.51	187.24
552.68	196.60
552.84	159.16
553.01	196.60
553.18	243.42
553.34	243.42
553.51	131.07
553.67	205.97
553.84	320.65
554.01	182.56
554.17	187.24
554.34	194.26
554.51	217.67
554.67	243.42
554.84	205.97
555.00	145.11
555.17	175.54
555.33	182.56
555.50	210.65
555.67	250.44
555.83	250.44
556.00	220.01
556.16	365.12
556.33	215.33
556.50	224.69
556.66	224.69
556.83	252.78
556.99	234.05
557.16	224.69
557.32	149.79
557.49	156.82
557.65	161.50
557.82	184.90
557.98	194.26
558.15	224.69
558.32	126.39
558.48	184.90
558.65	184.90
558.81	173.20
558.98	205.97
559.14	154.48
559.31	243.42
559.47	283.20
559.64	198.95
559.80	224.69
559.97	194.26
560.13	173.20
560.30	187.24
560.46	98.30
560.63	224.69
560.79	159.16
560.96	208.31
561.12	156.82
561.29	231.71
561.45	191.92
561.61	224.69
561.78	297.25
561.94	184.90
562.11	168.52
562.27	168.52
562.44	229.37
562.60	142.77
562.77	149.79
562.93	259.80
563.10	182.56
563.26	182.56
563.42	161.50
563.59	217.67
563.75	203.63
563.92	196.60
564.08	203.63
564.24	215.33
564.41	252.78
564.57	203.63
564.74	154.48
564.90	203.63
565.07	255.12
565.23	252.78
565.39	149.79
565.56	173.20
565.72	131.07
565.88	187.24
566.05	173.20
566.21	264.48
566.38	166.18
566.54	210.65
566.70	152.13
566.87	198.95
567.03	173.20
567.19	177.88
567.36	257.46
567.52	299.59
567.68	189.58
567.85	229.37
568.01	175.54
568.17	166.18
568.34	161.50
568.50	215.33
568.66	224.69
568.83	212.99
568.99	128.73
569.15	175.54
569.32	145.11
569.48	135.75
569.64	203.63
569.81	250.44
569.97	159.16
570.13	187.24
570.30	241.08
570.46	187.24
570.62	173.20
570.78	156.82
570.95	81.92
571.11	271.50
571.27	196.60
571.43	163.84
571.60	163.84
571.76	133.41
571.92	215.33
572.09	140.43
572.25	198.95
572.41	168.52
572.57	140.43
572.74	217.67
572.90	159.16
573.06	166.18
573.22	215.33
573.38	177.88
573.55	201.29
573.71	210.65
573.87	210.65
574.03	154.48
574.20	152.13
574.36	189.58
574.52	222.35
574.68	222.35
574.84	234.05
575.01	140.43
575.17	215.33
575.33	170.86
575.49	236.39
575.65	248.10
575.82	231.71
575.98	201.29
576.14	222.35
576.30	152.13
576.46	175.54
576.62	159.16
576.79	161.50
576.95	320.65
577.11	198.95
577.27	177.88
577.43	140.43
577.59	250.44
577.75	245.76
577.92	175.54
578.08	198.95
578.24	142.77
578.40	208.31
578.56	227.03
578.72	152.13
578.88	194.26
579.04	187.24
579.21	126.39
579.37	124.05
579.53	191.92
579.69	227.03
579.85	198.95
580.01	248.10
580.17	135.75
580.33	156.82
580.49	210.65
580.65	227.03
580.82	147.45
580.98	121.71
581.14	147.45
581.30	187.24
581.46	212.99
581.62	257.46
581.78	222.35
581.94	201.29
582.10	166.18
582.26	149.79
582.42	177.88
582.58	203.63
582.74	191.92
582.90	182.56
583.06	198.95
583.22	168.52
583.38	175.54
583.54	119.37
583.70	245.76
583.86	138.09
584.02	149.79
584.18	248.10
584.34	168.52
584.50	184.90
584.66	224.69
584.82	220.01
584.98	163.84
585.14	205.97
585.30	191.92
585.46	138.09
585.62	224.69
585.78	210.65
585.94	189.58
586.10	177.88
586.26	163.84
586.42	175.54
586.58	110.01
586.74	170.86
586.90	184.90
587.06	152.13
587.22	238.73
587.38	170.86
587.54	189.58
587.70	215.33
587.86	210.65
588.02	205.97
588.18	180.22
588.34	128.73
588.49	147.45
588.65	187.24
588.81	149.79
588.97	149.79
589.13	95.96
589.29	147.45
589.45	161.50
589.61	124.05
589.77	177.88
589.93	182.56
590.08	177.88
590.24	152.13
590.40	161.50
590.56	201.29
590.72	212.99
590.88	201.29
591.04	203.63
591.20	161.50
591.35	191.92
591.51	168.52
591.67	196.60
591.83	145.11
591.99	166.18
592.15	203.63
592.31	140.43
592.46	152.13
592.62	210.65
592.78	170.86
592.94	227.03
593.10	173.20
593.26	198.95
593.41	259.80
593.57	217.67
593.73	229.37
593.89	117.03
594.05	152.13
594.20	138.09
594.36	159.16
594.52	131.07
594.68	110.01
594.84	208.31
594.99	177.88
595.15	149.79
595.31	138.09
595.47	248.10
595.62	147.45
595.78	184.90
595.94	152.13
596.10	276.18
596.25	180.22
596.41	189.58
596.57	138.09
596.73	91.28
596.88	149.79
597.04	159.16
597.20	135.75
597.36	154.48
597.51	128.73
597.67	93.62
597.83	112.35
597.99	266.82
598.14	149.79
598.30	112.35
598.46	159.16
598.61	205.97
598.77	220.01
598.93	170.86
599.09	180.22
599.24	159.16
599.40	224.69
599.56	227.03
599.71	119.37
599.87	198.95
600.03	138.09
600.18	156.82
600.34	273.84
600.50	163.84
600.65	154.48
600.81	182.56
600.97	177.88
601.12	205.97
601.28	241.08
601.44	88.94
601.59	196.60
601.75	191.92
601.91	149.79
602.06	166.18
602.22	201.29
602.37	205.97
602.53	215.33
602.69	201.29
602.84	241.08
603.00	168.52
603.16	210.65
603.31	201.29
603.47	203.63
603.62	126.39
603.78	184.90
603.94	180.22
604.09	131.07
604.25	194.26
604.40	182.56
604.56	175.54
604.71	184.90
604.87	147.45
605.03	161.50
605.18	177.88
605.34	152.13
605.49	154.48
605.65	152.13
605.80	163.84
605.96	149.79
606.12	198.95
606.27	112.35
606.43	114.69
606.58	210.65
606.74	154.48
606.89	161.50
607.05	124.05
607.20	220.01
607.36	149.79
607.51	98.30
607.67	175.54
607.82	182.56
607.98	203.63
608.13	147.45
608.29	105.32
608.44	168.52
608.60	196.60
608.75	231.71
608.91	217.67
609.06	140.43
609.22	189.58
609.37	224.69
609.53	121.71
609.68	149.79
609.84	196.60
609.99	210.65
610.15	196.60
610.30	126.39
610.46	175.54
610.61	220.01
610.76	208.31
610.92	238.73
611.07	170.86
611.23	285.55
611.38	189.58
611.54	170.86
611.69	152.13
611.84	135.75
612.00	154.48
612.15	196.60
612.31	224.69
612.46	187.24
612.62	119.37
612.77	203.63
612.92	187.24
613.08	222.35
613.23	180.22
613.39	154.48
613.54	170.86
613.69	121.71
613.85	86.60
614.00	142.77
614.15	163.84
614.31	180.22
614.46	248.10
614.62	182.56
614.77	194.26
614.92	124.05
615.08	236.39
615.23	177.88
615.38	154.48
615.54	74.90
615.69	173.20
615.84	140.43
616.00	128.73
616.15	138.09
616.30	152.13
616.46	145.11
616.61	126.39
616.76	168.52
616.92	182.56
617.07	166.18
617.22	198.95
617.37	191.92
617.53	152.13
617.68	135.75
617.83	140.43
617.99	278.52
618.14	217.67
618.29	77.24
618.45	170.86
618.60	170.86
618.75	177.88
618.90	102.98
619.06	147.45
619.21	175.54
619.36	147.45
619.51	74.90
619.67	175.54
619.82	149.79
619.97	140.43
620.12	189.58
620.28	194.26
620.43	156.82
620.58	156.82
620.73	161.50
620.89	210.65
621.04	224.69
621.19	203.63
621.34	196.60
621.49	168.52
621.65	135.75
621.80	159.16
621.95	175.54
622.10	124.05
622.25	147.45
622.41	180.22
622.56	208.31
622.71	180.22
622.86	191.92
623.01	135.75
623.16	149.79
623.32	145.11
623.47	149.79
623.62	182.56
623.77	191.92
623.92	140.43
624.07	175.54
624.23	131.07
624.38	114.69
624.53	142.77
624.68	166.18
624.83	135.75
624.98	133.41
625.13	102.98
625.29	114.69
625.44	114.69
625.59	175.54
625.74	224.69
625.89	198.95
626.04	112.35
626.19	147.45
626.34	168.52
626.49	98.30
626.65	126.39
626.80	159.16
626.95	161.50
627.10	196.60
627.25	79.58
627.40	194.26
627.55	159.16
627.70	156.82
627.85	168.52
628.00	128.73
628.15	189.58
628.30	184.90
628.45	142.77
628.60	147.45
628.76	227.03
628.91	117.03
629.06	196.60
629.21	163.84
629.36	198.95
629.51	205.97
629.66	173.20
629.81	152.13
629.96	145.11
630.11	248.10
630.26	154.48
630.41	124.05
630.56	138.09
630.71	95.96
630.86	156.82
631.01	138.09
631.16	128.73
631.31	175.54
631.46	131.07
631.61	138.09
631.76	145.11
631.91	81.92
632.06	163.84
632.21	208.31
632.36	156.82
632.51	112.35
632.66	177.88
632.81	147.45
632.96	163.84
633.10	161.50
633.25	175.54
633.40	138.09
633.55	112.35
633.70	114.69
633.85	72.56
634.00	138.09
634.15	121.71
634.30	131.07
634.45	194.26
634.60	84.26
634.75	100.64
634.90	152.13
635.05	107.66
635.19	121.71
635.34	121.71
635.49	145.11
635.64	156.82
635.79	114.69
635.94	191.92
636.09	159.16
636.24	159.16
636.39	173.20
636.53	152.13
636.68	102.98
636.83	56.17
636.98	227.03
637.13	149.79
637.28	168.52
637.43	236.39
637.57	128.73
637.72	208.31
637.87	177.88
638.02	100.64
638.17	124.05
638.32	124.05
638.46	119.37
638.61	191.92
638.76	147.45
638.91	161.50
639.06	114.69
639.20	135.75
639.35	79.58
639.50	138.09
639.65	177.88
639.80	163.84
639.94	133.41
640.09	182.56
640.24	201.29
640.39	145.11
640.54	135.75
640.68	159.16
640.83	168.52
640.98	168.52
641.13	88.94
641.27	119.37
641.42	77.24
641.57	149.79
641.72	175.54
641.86	201.29
642.01	168.52
642.16	175.54
642.31	159.16
642.45	238.73
642.60	208.31
642.75	173.20
642.90	212.99
643.04	175.54
643.19	77.24
643.34	191.92
643.48	135.75
643.63	189.58
643.78	159.16
643.93	227.03
644.07	133.41
644.22	189.58
644.37	126.39
644.51	142.77
644.66	140.43
644.81	135.75
644.95	149.79
645.10	91.28
645.25	142.77
645.39	147.45
645.54	168.52
645.69	140.43
645.83	100.64
645.98	245.76
646.13	70.22
646.27	156.82
646.42	35.11
646.57	159.16
646.71	182.56
646.86	114.69
647.00	133.41
647.15	205.97
647.30	138.09
647.44	182.56
647.59	95.96
647.74	140.43
647.88	112.35
648.03	72.56
648.17	135.75
648.32	159.16
648.47	208.31
648.61	147.45
648.76	102.98
648.90	105.32
649.05	166.18
649.20	126.39
649.34	117.03
649.49	117.03
649.63	156.82
649.78	161.50
649.92	93.62
650.07	212.99
650.21	154.48
650.36	180.22
650.51	147.45
650.65	180.22
650.80	170.86
650.94	189.58
651.09	100.64
651.23	128.73
651.38	51.49
651.52	65.54
651.67	128.73
651.81	152.13
651.96	170.86
652.10	175.54
652.25	168.52
652.39	124.05
652.54	156.82
652.68	168.52
652.83	145.11
652.97	102.98
653.12	191.92
653.26	154.48
653.41	166.18
653.55	203.63
653.70	145.11
653.84	142.77
653.99	154.48
654.13	114.69
654.27	255.12
654.42	72.56
654.56	161.50
654.71	168.52
654.85	84.26
655.00	128.73
655.14	112.35
655.29	112.35
655.43	117.03
655.57	107.66
655.72	102.98
655.86	105.32
656.01	102.98
656.15	58.51
656.30	117.03
656.44	93.62
656.58	124.05
656.73	142.77
656.87	161.50
657.01	142.77
657.16	131.07
657.30	180.22
657.45	161.50
657.59	121.71
657.73	156.82
657.88	112.35
658.02	208.31
658.16	84.26
658.31	63.19
658.45	100.64
658.60	135.75
658.74	182.56
658.88	72.56
659.03	124.05
659.17	175.54
659.31	126.39
659.46	175.54
659.60	119.37
659.74	147.45
659.89	124.05
660.03	156.82
660.17	140.43
660.32	138.09
660.46	98.30
660.60	154.48
660.74	194.26
660.89	100.64
661.03	114.69
661.17	147.45
661.32	131.07
661.46	117.03
661.60	142.77
661.74	156.82
661.89	166.18
662.03	163.84
662.17	60.85
662.31	140.43
662.46	88.94
662.60	95.96
662.74	131.07
662.88	208.31
663.03	147.45
663.17	84.26
663.31	231.71
663.45	114.69
663.60	173.20
663.74	154.48
663.88	91.28
664.02	100.64
664.17	140.43
664.31	152.13
664.45	173.20
664.59	156.82
664.73	100.64
664.88	168.52
665.02	28.09
665.16	142.77
665.30	133.41
665.44	107.66
665.59	203.63
665.73	142.77
665.87	159.16
666.01	126.39
666.15	159.16
666.29	35.11
666.44	135.75
666.58	212.99
666.72	152.13
666.86	110.01
667.00	189.58
667.14	124.05
667.28	84.26
667.43	86.60
667.57	154.48
667.71	105.32
667.85	152.13
667.99	91.28
668.13	126.39
668.27	65.54
668.41	201.29
668.56	107.66
668.70	180.22
668.84	140.43
668.98	135.75
669.12	84.26
669.26	154.48
669.40	290.23
669.54	173.20
669.68	168.52
669.82	140.43
669.96	133.41
670.10	124.05
670.25	114.69
670.39	173.20
670.53	56.17
670.67	168.52
670.81	84.26
670.95	182.56
671.09	70.22
671.23	198.95
671.37	65.54
671.51	30.43
671.65	110.01
671.79	60.85
671.93	147.45
672.07	194.26
672.21	135.75
672.35	98.30
672.49	163.84
672.63	121.71
672.77	175.54
672.91	28.09
673.05	189.58
673.19	124.05
673.33	39.79
673.47	243.42
673.61	107.66
673.75	145.11
673.89	131.07
674.03	128.73
674.17	142.77
674.31	112.35
674.45	126.39
674.59	184.90
674.73	140.43
674.87	159.16
675.01	175.54
675.15	107.66
675.29	67.88
675.43	177.88
675.56	194.26
675.70	175.54
675.84	95.96
675.98	49.15
676.12	44.47
676.26	159.16
676.40	79.58
676.54	220.01
676.68	98.30
676.82	168.52
676.96	159.16
677.10	74.90
677.23	81.92
677.37	147.45
677.51	135.75
677.65	224.69
677.79	140.43
677.93	84.26
678.07	154.48
678.21	119.37
678.34	95.96
678.48	86.60
678.62	91.28
678.76	121.71
678.90	173.20
679.04	110.01
679.18	149.79
679.31	128.73
679.45	30.43
679.59	126.39
679.73	88.94
679.87	70.22
680.00	105.32
680.14	32.77
680.28	170.86
680.42	84.26
680.56	126.39
680.70	107.66
680.83	128.73
680.97	170.86
681.11	114.69
681.25	79.58
681.39	53.83
681.52	98.30
681.66	70.22
681.80	107.66
681.94	79.58
682.07	95.96
682.21	100.64
682.35	84.26
682.49	142.77
682.62	194.26
682.76	114.69
682.90	154.48
683.04	133.41
683.17	156.82
683.31	67.88
683.45	177.88
683.59	159.16
683.72	140.43
683.86	124.05
684.00	140.43
684.13	133.41
684.27	159.16
684.41	72.56
684.55	152.13
684.68	138.09
684.82	58.51
684.96	191.92
685.09	81.92
685.23	77.24
685.37	49.15
685.50	140.43
685.64	114.69
685.78	58.51
685.91	110.01
686.05	163.84
686.19	98.30
686.32	56.17
686.46	149.79
686.60	88.94
686.73	156.82
686.87	168.52
687.01	65.54
687.14	14.04
687.28	88.94
687.42	100.64
687.55	152.13
687.69	173.20
687.82	81.92
687.96	161.50
688.10	168.52
688.23	145.11
688.37	156.82
688.50	121.71
688.64	49.15
688.78	128.73
688.91	128.73
689.05	56.17
689.18	110.01
689.32	100.64
689.46	133.41
689.59	107.66
689.73	194.26
689.86	138.09
690.00	163.84
690.13	117.03
690.27	117.03
690.41	175.54
690.54	86.60
690.68	67.88
690.81	119.37
690.95	84.26
691.08	102.98
691.22	100.64
691.35	81.92
691.49	0.00
691.62	77.24
691.76	88.94
691.89	142.77
692.03	63.19
692.16	105.32
692.30	114.69
692.43	98.30
692.57	88.94
692.70	79.58
692.84	98.30
692.97	81.92
693.11	77.24
693.24	121.71
693.38	161.50
693.51	74.90
693.65	149.79
693.78	102.98
693.92	126.39
694.05	126.39
694.19	63.19
694.32	131.07
694.45	212.99
694.59	91.28
694.72	88.94
694.86	93.62
694.99	173.20
695.13	44.47
695.26	159.16
695.39	37.45
695.53	112.35
695.66	105.32
695.80	133.41
695.93	135.75
696.07	67.88
696.20	37.45
696.33	79.58
696.47	86.60
696.60	159.16
696.73	100.64
696.87	70.22
697.00	117.03
697.14	119.37
697.27	77.24
697.40	227.03
697.54	79.58
697.67	23.41
697.80	102.98
697.94	114.69
698.07	173.20
698.21	107.66
698.34	124.05
698.47	65.54
698.61	124.05
698.74	177.88
698.87	152.13
699.01	138.09
699.14	142.77
699.27	121.71
699.40	163.84
699.54	112.35
699.67	119.37
699.80	173.20
699.94	145.11
700.07	88.94
700.20	53.83
700.34	163.84
700.47	74.90
700.60	70.22
700.73	131.07
700.87	147.45
701.00	81.92
701.13	58.51
701.26	159.16
701.40	84.26
701.53	133.41
701.66	100.64
701.79	84.26
701.93	124.05
702.06	168.52
702.19	84.26
702.32	100.64
702.46	161.50
702.59	53.83
702.72	77.24
702.85	142.77
702.99	14.04
703.12	110.01
703.25	79.58
703.38	149.79
703.51	93.62
703.65	105.32
703.78	140.43
703.91	93.62
704.04	124.05
704.17	72.56
704.31	72.56
704.44	72.56
704.57	70.22
704.70	102.98
704.83	117.03
704.96	88.94
705.10	74.90
705.23	81.92
>>>>>End Processed Spectral Data<<<<<
