SpectraSuite Data File
++++++++++++++++++++++++++++++++++++
Date: Fri Oct 04 11:47:06 GMT-05:00 2013
User: price-jones
Dark Spectrum Present: No
Reference Spectrum Present: No
Number of Sampled Component Spectra: 1
Spectrometers: USB2+H05261
Integration Time (usec): 100000 (USB2+H05261)
Spectra Averaged: 1 (USB2+H05261)
Boxcar Smoothing: 0 (USB2+H05261)
Correct for Electrical Dark: No (USB2+H05261)
Strobe/Lamp Enabled: No (USB2+H05261)
Correct for Detector Non-linearity: No (USB2+H05261)
Correct for Stray Light: No (USB2+H05261)
Number of Pixels in Processed Spectrum: 2048
>>>>>Begin Processed Spectral Data<<<<<
365.73	88.94
365.92	88.94
366.12	88.94
366.32	0.00
366.52	0.00
366.72	0.00
366.91	0.00
367.11	0.00
367.31	0.00
367.51	0.00
367.70	0.00
367.90	0.00
368.10	0.00
368.30	0.00
368.49	0.00
368.69	0.00
368.89	0.00
369.09	0.00
369.28	0.00
369.48	14.04
369.68	0.00
369.87	0.00
370.07	0.00
370.27	58.51
370.47	2.34
370.66	0.00
370.86	9.36
371.06	53.83
371.25	77.24
371.45	67.88
371.65	4.68
371.84	81.92
372.04	46.81
372.24	126.39
372.44	81.92
372.63	70.22
372.83	114.69
373.03	0.00
373.22	163.84
373.42	93.62
373.62	98.30
373.81	159.16
374.01	154.48
374.21	140.43
374.40	74.90
374.60	95.96
374.79	63.19
374.99	60.85
375.19	142.77
375.38	117.03
375.58	63.19
375.78	131.07
375.97	95.96
376.17	149.79
376.37	18.72
376.56	74.90
376.76	72.56
376.95	88.94
377.15	145.11
377.35	124.05
377.54	147.45
377.74	119.37
377.93	79.58
378.13	88.94
378.33	147.45
378.52	79.58
378.72	102.98
378.91	140.43
379.11	63.19
379.31	32.77
379.50	98.30
379.70	100.64
379.89	81.92
380.09	107.66
380.28	58.51
380.48	88.94
380.68	44.47
380.87	72.56
381.07	74.90
381.26	140.43
381.46	121.71
381.65	147.45
381.85	93.62
382.04	63.19
382.24	121.71
382.43	98.30
382.63	67.88
382.83	173.20
383.02	154.48
383.22	100.64
383.41	110.01
383.61	32.77
383.80	100.64
384.00	77.24
384.19	91.28
384.39	88.94
384.58	39.79
384.78	117.03
384.97	37.45
385.17	105.32
385.36	60.85
385.56	145.11
385.75	107.66
385.95	147.45
386.14	98.30
386.34	72.56
386.53	119.37
386.72	2.34
386.92	205.97
387.11	102.98
387.31	91.28
387.50	100.64
387.70	98.30
387.89	70.22
388.09	58.51
388.28	58.51
388.48	133.41
388.67	124.05
388.86	102.98
389.06	35.11
389.25	79.58
389.45	58.51
389.64	124.05
389.84	102.98
390.03	154.48
390.22	81.92
390.42	46.81
390.61	14.04
390.81	53.83
391.00	95.96
391.19	159.16
391.39	95.96
391.58	84.26
391.78	114.69
391.97	84.26
392.16	102.98
392.36	124.05
392.55	145.11
392.75	11.70
392.94	46.81
393.13	84.26
393.33	65.54
393.52	56.17
393.71	126.39
393.91	79.58
394.10	77.24
394.29	112.35
394.49	74.90
394.68	86.60
394.88	149.79
395.07	93.62
395.26	70.22
395.46	133.41
395.65	112.35
395.84	145.11
396.04	142.77
396.23	110.01
396.42	7.02
396.62	70.22
396.81	128.73
397.00	100.64
397.19	95.96
397.39	98.30
397.58	81.92
397.77	100.64
397.97	11.70
398.16	81.92
398.35	98.30
398.55	124.05
398.74	49.15
398.93	105.32
399.12	53.83
399.32	124.05
399.51	44.47
399.70	173.20
399.90	91.28
400.09	77.24
400.28	131.07
400.47	93.62
400.67	95.96
400.86	145.11
401.05	175.54
401.24	74.90
401.44	93.62
401.63	28.09
401.82	81.92
402.01	100.64
402.21	131.07
402.40	86.60
402.59	60.85
402.78	56.17
402.97	72.56
403.17	44.47
403.36	117.03
403.55	91.28
403.74	88.94
403.93	133.41
404.13	114.69
404.32	149.79
404.51	74.90
404.70	51.49
404.89	100.64
405.09	105.32
405.28	23.41
405.47	95.96
405.66	152.13
405.85	70.22
406.05	119.37
406.24	100.64
406.43	114.69
406.62	53.83
406.81	147.45
407.00	149.79
407.20	107.66
407.39	147.45
407.58	152.13
407.77	142.77
407.96	105.32
408.15	161.50
408.34	32.77
408.54	25.75
408.73	63.19
408.92	39.79
409.11	65.54
409.30	30.43
409.49	79.58
409.68	95.96
409.87	156.82
410.07	67.88
410.26	95.96
410.45	119.37
410.64	121.71
410.83	95.96
411.02	138.09
411.21	166.18
411.40	119.37
411.59	74.90
411.78	112.35
411.98	77.24
412.17	117.03
412.36	102.98
412.55	77.24
412.74	102.98
412.93	180.22
413.12	133.41
413.31	79.58
413.50	35.11
413.69	79.58
413.88	121.71
414.07	173.20
414.26	72.56
414.45	100.64
414.64	65.54
414.83	117.03
415.02	128.73
415.22	114.69
415.41	196.60
415.60	32.77
415.79	79.58
415.98	138.09
416.17	70.22
416.36	65.54
416.55	77.24
416.74	81.92
416.93	170.86
417.12	142.77
417.31	72.56
417.50	168.52
417.69	170.86
417.88	210.65
418.07	81.92
418.26	98.30
418.45	107.66
418.64	182.56
418.83	245.76
419.02	135.75
419.21	72.56
419.39	121.71
419.58	142.77
419.77	147.45
419.96	154.48
420.15	170.86
420.34	128.73
420.53	46.81
420.72	154.48
420.91	63.19
421.10	119.37
421.29	74.90
421.48	110.01
421.67	88.94
421.86	91.28
422.05	74.90
422.24	79.58
422.43	37.45
422.61	70.22
422.80	138.09
422.99	135.75
423.18	124.05
423.37	175.54
423.56	194.26
423.75	170.86
423.94	114.69
424.13	163.84
424.32	98.30
424.50	95.96
424.69	133.41
424.88	91.28
425.07	107.66
425.26	196.60
425.45	191.92
425.64	166.18
425.83	184.90
426.01	212.99
426.20	95.96
426.39	166.18
426.58	128.73
426.77	135.75
426.96	84.26
427.15	149.79
427.33	110.01
427.52	53.83
427.71	182.56
427.90	119.37
428.09	140.43
428.28	121.71
428.46	91.28
428.65	86.60
428.84	102.98
429.03	175.54
429.22	142.77
429.40	91.28
429.59	60.85
429.78	170.86
429.97	173.20
430.16	138.09
430.34	105.32
430.53	81.92
430.72	138.09
430.91	88.94
431.10	119.37
431.28	170.86
431.47	121.71
431.66	149.79
431.85	88.94
432.03	105.32
432.22	212.99
432.41	77.24
432.60	121.71
432.79	114.69
432.97	191.92
433.16	170.86
433.35	138.09
433.54	105.32
433.72	145.11
433.91	154.48
434.10	128.73
434.28	147.45
434.47	168.52
434.66	81.92
434.85	152.13
435.03	131.07
435.22	166.18
435.41	145.11
435.59	154.48
435.78	163.84
435.97	74.90
436.16	81.92
436.34	182.56
436.53	149.79
436.72	187.24
436.90	149.79
437.09	177.88
437.28	65.54
437.46	72.56
437.65	79.58
437.84	170.86
438.02	100.64
438.21	79.58
438.40	124.05
438.58	138.09
438.77	102.98
438.96	114.69
439.14	117.03
439.33	93.62
439.52	187.24
439.70	74.90
439.89	147.45
440.08	145.11
440.26	112.35
440.45	138.09
440.63	142.77
440.82	128.73
441.01	121.71
441.19	140.43
441.38	131.07
441.57	117.03
441.75	102.98
441.94	107.66
442.12	168.52
442.31	114.69
442.50	131.07
442.68	149.79
442.87	198.95
443.05	51.49
443.24	140.43
443.43	168.52
443.61	276.18
443.80	117.03
443.98	140.43
444.17	145.11
444.35	168.52
444.54	124.05
444.73	79.58
444.91	149.79
445.10	93.62
445.28	177.88
445.47	135.75
445.65	128.73
445.84	81.92
446.02	105.32
446.21	161.50
446.39	121.71
446.58	168.52
446.77	81.92
446.95	170.86
447.14	133.41
447.32	196.60
447.51	147.45
447.69	117.03
447.88	145.11
448.06	154.48
448.25	180.22
448.43	180.22
448.62	114.69
448.80	39.79
448.99	135.75
449.17	124.05
449.36	170.86
449.54	140.43
449.73	124.05
449.91	124.05
450.10	138.09
450.28	184.90
450.46	124.05
450.65	175.54
450.83	168.52
451.02	152.13
451.20	154.48
451.39	117.03
451.57	100.64
451.76	149.79
451.94	117.03
452.13	138.09
452.31	117.03
452.49	119.37
452.68	121.71
452.86	173.20
453.05	187.24
453.23	65.54
453.42	191.92
453.60	234.05
453.78	117.03
453.97	102.98
454.15	110.01
454.34	166.18
454.52	77.24
454.70	201.29
454.89	191.92
455.07	156.82
455.26	201.29
455.44	138.09
455.62	145.11
455.81	170.86
455.99	72.56
456.17	140.43
456.36	119.37
456.54	126.39
456.73	114.69
456.91	138.09
457.09	117.03
457.28	198.95
457.46	135.75
457.64	124.05
457.83	51.49
458.01	182.56
458.19	131.07
458.38	152.13
458.56	189.58
458.74	159.16
458.93	142.77
459.11	147.45
459.29	81.92
459.48	154.48
459.66	187.24
459.84	184.90
460.03	224.69
460.21	180.22
460.39	121.71
460.57	234.05
460.76	98.30
460.94	124.05
461.12	198.95
461.31	250.44
461.49	131.07
461.67	135.75
461.85	110.01
462.04	142.77
462.22	662.37
462.40	149.79
462.59	194.26
462.77	65.54
462.95	161.50
463.13	210.65
463.32	168.52
463.50	77.24
463.68	163.84
463.86	149.79
464.05	110.01
464.23	114.69
464.41	156.82
464.59	145.11
464.78	58.51
464.96	117.03
465.14	196.60
465.32	128.73
465.50	72.56
465.69	121.71
465.87	145.11
466.05	175.54
466.23	60.85
466.41	107.66
466.60	140.43
466.78	159.16
466.96	215.33
467.14	159.16
467.32	212.99
467.51	142.77
467.69	135.75
467.87	140.43
468.05	163.84
468.23	187.24
468.41	156.82
468.60	98.30
468.78	128.73
468.96	142.77
469.14	245.76
469.32	70.22
469.50	177.88
469.69	168.52
469.87	149.79
470.05	166.18
470.23	114.69
470.41	159.16
470.59	112.35
470.77	147.45
470.95	175.54
471.14	124.05
471.32	187.24
471.50	203.63
471.68	191.92
471.86	196.60
472.04	170.86
472.22	147.45
472.40	168.52
472.58	131.07
472.77	135.75
472.95	98.30
473.13	217.67
473.31	196.60
473.49	114.69
473.67	147.45
473.85	191.92
474.03	187.24
474.21	198.95
474.39	201.29
474.57	170.86
474.75	168.52
474.93	222.35
475.12	128.73
475.30	196.60
475.48	114.69
475.66	133.41
475.84	184.90
476.02	140.43
476.20	170.86
476.38	177.88
476.56	149.79
476.74	262.14
476.92	133.41
477.10	138.09
477.28	98.30
477.46	112.35
477.64	191.92
477.82	145.11
478.00	126.39
478.18	102.98
478.36	191.92
478.54	154.48
478.72	124.05
478.90	93.62
479.08	173.20
479.26	98.30
479.44	175.54
479.62	114.69
479.80	145.11
479.98	180.22
480.16	163.84
480.34	138.09
480.52	156.82
480.70	177.88
480.88	88.94
481.06	91.28
481.24	142.77
481.41	126.39
481.59	163.84
481.77	163.84
481.95	88.94
482.13	177.88
482.31	124.05
482.49	205.97
482.67	182.56
482.85	159.16
483.03	201.29
483.21	159.16
483.39	133.41
483.57	88.94
483.74	201.29
483.92	84.26
484.10	107.66
484.28	182.56
484.46	243.42
484.64	217.67
484.82	208.31
485.00	222.35
485.18	138.09
485.35	180.22
485.53	124.05
485.71	191.92
485.89	95.96
486.07	93.62
486.25	222.35
486.43	156.82
486.61	276.18
486.78	154.48
486.96	93.62
487.14	173.20
487.32	126.39
487.50	187.24
487.68	191.92
487.85	145.11
488.03	210.65
488.21	210.65
488.39	60.85
488.57	170.86
488.75	170.86
488.92	444.70
489.10	142.77
489.28	163.84
489.46	156.82
489.64	215.33
489.81	175.54
489.99	238.73
490.17	142.77
490.35	271.50
490.53	180.22
490.70	224.69
490.88	163.84
491.06	191.92
491.24	182.56
491.41	152.13
491.59	163.84
491.77	121.71
491.95	220.01
492.13	152.13
492.30	191.92
492.48	126.39
492.66	187.24
492.84	140.43
493.01	217.67
493.19	156.82
493.37	156.82
493.54	198.95
493.72	236.39
493.90	112.35
494.08	152.13
494.25	222.35
494.43	229.37
494.61	198.95
494.79	131.07
494.96	135.75
495.14	194.26
495.32	234.05
495.49	168.52
495.67	166.18
495.85	227.03
496.02	142.77
496.20	175.54
496.38	191.92
496.55	163.84
496.73	205.97
496.91	166.18
497.09	238.73
497.26	215.33
497.44	203.63
497.62	210.65
497.79	184.90
497.97	142.77
498.14	170.86
498.32	191.92
498.50	163.84
498.67	170.86
498.85	124.05
499.03	117.03
499.20	182.56
499.38	98.30
499.56	196.60
499.73	210.65
499.91	234.05
500.08	248.10
500.26	145.11
500.44	187.24
500.61	126.39
500.79	124.05
500.97	255.12
501.14	257.46
501.32	196.60
501.49	152.13
501.67	191.92
501.84	135.75
502.02	145.11
502.20	229.37
502.37	175.54
502.55	189.58
502.72	124.05
502.90	163.84
503.07	168.52
503.25	138.09
503.43	241.08
503.60	168.52
503.78	215.33
503.95	147.45
504.13	229.37
504.30	177.88
504.48	222.35
504.65	177.88
504.83	236.39
505.01	168.52
505.18	182.56
505.36	170.86
505.53	173.20
505.71	133.41
505.88	269.16
506.06	180.22
506.23	234.05
506.41	161.50
506.58	201.29
506.76	191.92
506.93	166.18
507.11	205.97
507.28	262.14
507.46	175.54
507.63	215.33
507.81	196.60
507.98	248.10
508.16	182.56
508.33	145.11
508.50	147.45
508.68	107.66
508.85	196.60
509.03	138.09
509.20	215.33
509.38	205.97
509.55	198.95
509.73	177.88
509.90	140.43
510.08	208.31
510.25	203.63
510.42	149.79
510.60	124.05
510.77	198.95
510.95	191.92
511.12	201.29
511.30	245.76
511.47	194.26
511.64	257.46
511.82	147.45
511.99	191.92
512.17	248.10
512.34	177.88
512.51	175.54
512.69	245.76
512.86	210.65
513.04	156.82
513.21	231.71
513.38	159.16
513.56	105.32
513.73	107.66
513.90	227.03
514.08	201.29
514.25	215.33
514.43	194.26
514.60	212.99
514.77	175.54
514.95	189.58
515.12	147.45
515.29	201.29
515.47	201.29
515.64	227.03
515.81	245.76
515.99	187.24
516.16	126.39
516.33	243.42
516.51	210.65
516.68	175.54
516.85	234.05
517.03	201.29
517.20	220.01
517.37	243.42
517.54	220.01
517.72	175.54
517.89	117.03
518.06	191.92
518.24	255.12
518.41	315.97
518.58	243.42
518.75	194.26
518.93	257.46
519.10	231.71
519.27	208.31
519.45	177.88
519.62	140.43
519.79	205.97
519.96	191.92
520.14	262.14
520.31	245.76
520.48	170.86
520.65	238.73
520.83	252.78
521.00	271.50
521.17	182.56
521.34	180.22
521.52	154.48
521.69	191.92
521.86	255.12
522.03	203.63
522.20	243.42
522.38	145.11
522.55	217.67
522.72	168.52
522.89	196.60
523.07	259.80
523.24	220.01
523.41	182.56
523.58	191.92
523.75	187.24
523.92	133.41
524.10	95.96
524.27	205.97
524.44	227.03
524.61	248.10
524.78	278.52
524.96	262.14
525.13	222.35
525.30	248.10
525.47	259.80
525.64	231.71
525.81	229.37
525.98	187.24
526.16	147.45
526.33	220.01
526.50	138.09
526.67	124.05
526.84	203.63
527.01	119.37
527.18	159.16
527.36	205.97
527.53	184.90
527.70	224.69
527.87	180.22
528.04	177.88
528.21	189.58
528.38	191.92
528.55	191.92
528.72	255.12
528.89	210.65
529.07	187.24
529.24	194.26
529.41	227.03
529.58	273.84
529.75	231.71
529.92	294.91
530.09	189.58
530.26	227.03
530.43	194.26
530.60	231.71
530.77	243.42
530.94	245.76
531.11	308.95
531.28	187.24
531.46	217.67
531.63	161.50
531.80	184.90
531.97	224.69
532.14	236.39
532.31	191.92
532.48	304.27
532.65	344.06
532.82	276.18
532.99	297.25
533.16	264.48
533.33	222.35
533.50	292.57
533.67	269.16
533.84	271.50
534.01	283.20
534.18	255.12
534.35	362.78
534.52	245.76
534.69	238.73
534.86	205.97
535.03	208.31
535.20	196.60
535.37	222.35
535.54	194.26
535.71	294.91
535.88	243.42
536.05	173.20
536.22	112.35
536.38	194.26
536.55	156.82
536.72	224.69
536.89	173.20
537.06	196.60
537.23	147.45
537.40	194.26
537.57	173.20
537.74	142.77
537.91	205.97
538.08	301.93
538.25	166.18
538.42	201.29
538.59	210.65
538.75	271.50
538.92	201.29
539.09	292.57
539.26	175.54
539.43	332.36
539.60	809.83
539.77	1252.19
539.94	1130.48
540.11	732.59
540.28	608.54
540.44	407.25
540.61	318.31
540.78	257.46
540.95	259.80
541.12	236.39
541.29	198.95
541.46	236.39
541.62	245.76
541.79	238.73
541.96	231.71
542.13	170.86
542.30	189.58
542.47	161.50
542.63	191.92
542.80	191.92
542.97	208.31
543.14	201.29
543.31	234.05
543.48	175.54
543.64	203.63
543.81	238.73
543.98	203.63
544.15	220.01
544.32	198.95
544.48	222.35
544.65	159.16
544.82	241.08
544.99	217.67
545.16	212.99
545.32	168.52
545.49	212.99
545.66	201.29
545.83	175.54
546.00	255.12
546.16	105.32
546.33	184.90
546.50	105.32
546.67	217.67
546.83	224.69
547.00	236.39
547.17	168.52
547.34	79.58
547.50	227.03
547.67	217.67
547.84	196.60
548.00	210.65
548.17	184.90
548.34	250.44
548.51	264.48
548.67	259.80
548.84	191.92
549.01	241.08
549.18	187.24
549.34	180.22
549.51	238.73
549.68	175.54
549.84	220.01
550.01	175.54
550.18	320.65
550.34	276.18
550.51	161.50
550.68	231.71
550.84	241.08
551.01	215.33
551.18	180.22
551.34	241.08
551.51	196.60
551.68	182.56
551.84	257.46
552.01	241.08
552.18	191.92
552.34	196.60
552.51	184.90
552.68	208.31
552.84	262.14
553.01	205.97
553.18	255.12
553.34	175.54
553.51	201.29
553.67	220.01
553.84	222.35
554.01	208.31
554.17	259.80
554.34	133.41
554.51	269.16
554.67	238.73
554.84	159.16
555.00	175.54
555.17	224.69
555.33	231.71
555.50	205.97
555.67	217.67
555.83	184.90
556.00	306.61
556.16	379.17
556.33	285.55
556.50	168.52
556.66	215.33
556.83	210.65
556.99	250.44
557.16	114.69
557.32	243.42
557.49	220.01
557.65	161.50
557.82	168.52
557.98	175.54
558.15	194.26
558.32	142.77
558.48	241.08
558.65	180.22
558.81	217.67
558.98	208.31
559.14	210.65
559.31	241.08
559.47	224.69
559.64	166.18
559.80	262.14
559.97	236.39
560.13	152.13
560.30	173.20
560.46	198.95
560.63	175.54
560.79	180.22
560.96	189.58
561.12	210.65
561.29	234.05
561.45	147.45
561.61	128.73
561.78	322.99
561.94	229.37
562.11	140.43
562.27	138.09
562.44	142.77
562.60	154.48
562.77	212.99
562.93	248.10
563.10	163.84
563.26	231.71
563.42	241.08
563.59	217.67
563.75	210.65
563.92	241.08
564.08	170.86
564.24	217.67
564.41	245.76
564.57	131.07
564.74	205.97
564.90	220.01
565.07	252.78
565.23	238.73
565.39	241.08
565.56	238.73
565.72	182.56
565.88	241.08
566.05	231.71
566.21	212.99
566.38	166.18
566.54	152.13
566.70	203.63
566.87	250.44
567.03	212.99
567.19	140.43
567.36	187.24
567.52	191.92
567.68	182.56
567.85	201.29
568.01	170.86
568.17	98.30
568.34	205.97
568.50	215.33
568.66	194.26
568.83	304.27
568.99	236.39
569.15	201.29
569.32	191.92
569.48	217.67
569.64	175.54
569.81	222.35
569.97	215.33
570.13	180.22
570.30	205.97
570.46	138.09
570.62	236.39
570.78	198.95
570.95	168.52
571.11	248.10
571.27	191.92
571.43	205.97
571.60	210.65
571.76	154.48
571.92	170.86
572.09	161.50
572.25	220.01
572.41	212.99
572.57	238.73
572.74	313.63
572.90	145.11
573.06	278.52
573.22	259.80
573.38	205.97
573.55	250.44
573.71	154.48
573.87	236.39
574.03	191.92
574.20	168.52
574.36	252.78
574.52	259.80
574.68	259.80
574.84	259.80
575.01	252.78
575.17	194.26
575.33	212.99
575.49	91.28
575.65	152.13
575.82	264.48
575.98	381.51
576.14	477.47
576.30	524.28
576.46	447.04
576.62	341.72
576.79	330.02
576.95	344.06
577.11	182.56
577.27	196.60
577.43	337.04
577.59	168.52
577.75	205.97
577.92	231.71
578.08	180.22
578.24	208.31
578.40	241.08
578.56	283.20
578.72	334.70
578.88	217.67
579.04	227.03
579.21	283.20
579.37	215.33
579.53	205.97
579.69	273.84
579.85	234.05
580.01	330.02
580.17	360.44
580.33	241.08
580.49	220.01
580.65	355.76
580.82	257.46
580.98	294.91
581.14	290.23
581.30	266.82
581.46	395.55
581.62	463.43
581.78	414.27
581.94	395.55
582.10	442.36
582.26	374.49
582.42	285.55
582.58	348.74
582.74	360.44
582.90	313.63
583.06	365.12
583.22	308.95
583.38	280.86
583.54	367.46
583.70	491.51
583.86	461.09
584.02	547.69
584.18	709.18
584.34	943.24
584.50	2541.82
584.66	18548.75
584.82	45965.78
584.98	56631.60
585.14	52149.48
585.30	34132.03
585.46	20444.58
585.62	12617.83
585.78	5584.52
585.94	2335.85
586.10	1139.84
586.26	788.76
586.42	641.31
586.58	484.49
586.74	500.87
586.90	517.26
587.06	458.74
587.22	397.89
587.38	409.59
587.54	1001.75
587.70	2686.94
587.86	4086.58
588.02	4461.06
588.18	3171.43
588.34	2090.10
588.49	1406.66
588.65	840.25
588.81	496.19
588.97	257.46
589.13	241.08
589.29	304.27
589.45	238.73
589.61	325.33
589.77	337.04
589.93	393.21
590.08	353.42
590.24	351.08
590.40	285.55
590.56	313.63
590.72	259.80
590.88	273.84
591.04	210.65
591.20	304.27
591.35	325.33
591.51	182.56
591.67	294.91
591.83	215.33
591.99	252.78
592.15	196.60
592.31	203.63
592.46	355.76
592.62	248.10
592.78	180.22
592.94	271.50
593.10	201.29
593.26	250.44
593.41	330.02
593.57	337.04
593.73	500.87
593.89	2305.43
594.05	5490.90
594.20	7698.02
594.36	7145.66
594.52	4767.67
594.68	3061.42
594.84	1893.49
594.99	1153.88
595.15	634.29
595.31	304.27
595.47	351.08
595.62	294.91
595.78	278.52
595.94	201.29
596.10	297.25
596.25	301.93
596.41	330.02
596.57	227.03
596.73	271.50
596.88	435.34
597.04	973.66
597.20	1633.69
597.36	1912.22
597.51	1355.17
597.67	922.17
597.83	699.82
597.99	528.96
598.14	407.25
598.30	301.93
598.46	301.93
598.61	299.59
598.77	313.63
598.93	222.35
599.09	236.39
599.24	231.71
599.40	311.29
599.56	177.88
599.71	241.08
599.87	222.35
600.03	227.03
600.18	220.01
600.34	271.50
600.50	227.03
600.65	147.45
600.81	208.31
600.97	227.03
601.12	182.56
601.28	205.97
601.44	182.56
601.59	149.79
601.75	238.73
601.91	149.79
602.06	210.65
602.22	325.33
602.37	531.30
602.53	1329.42
602.69	1907.54
602.84	2005.84
603.00	1446.45
603.16	968.98
603.31	704.50
603.47	514.92
603.62	301.93
603.78	257.46
603.94	170.86
604.09	198.95
604.25	348.74
604.40	283.20
604.56	255.12
604.71	177.88
604.87	152.13
605.03	217.67
605.18	191.92
605.34	273.84
605.49	236.39
605.65	224.69
605.80	243.42
605.96	245.76
606.12	308.95
606.27	259.80
606.43	234.05
606.58	379.17
606.74	760.67
606.89	2708.00
607.05	5252.16
607.20	6478.60
607.36	5362.17
607.51	3562.30
607.67	2359.26
607.82	1589.22
607.98	896.43
608.13	444.70
608.29	273.84
608.44	346.40
608.60	365.12
608.75	353.42
608.91	954.94
609.06	4191.90
609.22	8692.75
609.37	11143.29
609.53	9486.19
609.68	6368.60
609.84	4231.69
609.99	2773.53
610.15	1500.28
610.30	791.10
610.46	423.64
610.61	294.91
610.76	320.65
610.92	212.99
611.07	255.12
611.23	292.57
611.38	269.16
611.54	173.20
611.69	194.26
611.84	245.76
612.00	245.76
612.15	245.76
612.31	301.93
612.46	510.24
612.62	538.32
612.77	524.28
612.92	423.64
613.08	404.91
613.23	334.70
613.39	421.30
613.54	737.27
613.69	4009.34
613.85	11206.48
614.00	17497.84
614.15	17547.00
614.31	12255.04
614.46	8210.60
614.62	5413.66
614.77	3239.30
614.92	1481.56
615.08	657.69
615.23	456.40
615.38	355.76
615.54	451.72
615.69	732.59
615.84	2193.08
616.00	3824.44
616.15	4711.50
616.30	3733.15
616.46	2607.36
616.61	1827.96
616.76	1294.32
616.92	741.95
617.07	393.21
617.22	346.40
617.37	222.35
617.53	220.01
617.68	304.27
617.83	294.91
617.99	308.95
618.14	273.84
618.29	241.08
618.45	266.82
618.60	182.56
618.75	283.20
618.90	194.26
619.06	257.46
619.21	241.08
619.36	229.37
619.51	142.77
619.67	236.39
619.82	227.03
619.97	248.10
620.12	229.37
620.28	203.63
620.43	220.01
620.58	196.60
620.73	280.86
620.89	161.50
621.04	447.04
621.19	1226.44
621.34	2169.68
621.49	2820.35
621.65	2539.48
621.80	1750.72
621.95	1198.35
622.10	767.70
622.25	475.13
622.41	285.55
622.56	280.86
622.71	252.78
622.86	196.60
623.01	212.99
623.16	238.73
623.32	166.18
623.47	168.52
623.62	180.22
623.77	184.90
623.92	140.43
624.07	266.82
624.23	220.01
624.38	215.33
624.53	220.01
624.68	287.89
624.83	243.42
624.98	292.57
625.13	269.16
625.29	212.99
625.44	259.80
625.59	231.71
625.74	322.99
625.89	351.08
626.04	1987.11
626.19	5502.60
626.34	8564.02
626.49	9085.96
626.65	6778.19
626.80	4753.63
626.95	3295.47
627.10	1884.13
627.25	978.34
627.40	521.94
627.55	376.83
627.70	283.20
627.85	217.67
628.00	203.63
628.15	278.52
628.30	241.08
628.45	189.58
628.60	191.92
628.76	180.22
628.91	201.29
629.06	222.35
629.21	196.60
629.36	248.10
629.51	238.73
629.66	217.67
629.81	334.70
629.96	1041.54
630.11	1863.07
630.26	2326.49
630.41	2062.01
630.56	1540.07
630.71	1048.56
630.86	823.87
631.01	484.49
631.16	409.59
631.31	212.99
631.46	180.22
631.61	212.99
631.76	212.99
631.91	227.03
632.06	234.05
632.21	224.69
632.36	170.86
632.51	241.08
632.66	304.27
632.81	891.74
632.96	3286.11
633.10	5270.89
633.25	6333.49
633.40	5263.86
633.55	3658.26
633.70	2452.88
633.85	1659.44
634.00	851.96
634.15	482.15
634.30	390.87
634.45	255.12
634.60	208.31
634.75	238.73
634.90	229.37
635.05	257.46
635.19	238.73
635.34	198.95
635.49	229.37
635.64	252.78
635.79	180.22
635.94	243.42
636.09	191.92
636.24	287.89
636.39	184.90
636.53	238.73
636.68	238.73
636.83	285.55
636.98	252.78
637.13	220.01
637.28	299.59
637.43	273.84
637.57	533.64
637.72	2689.28
637.87	7318.86
638.02	11122.23
638.17	11693.32
638.32	8552.32
638.46	5947.30
638.61	4053.81
638.76	2502.03
638.91	1322.40
639.06	610.88
639.20	442.36
639.35	482.15
639.50	688.12
639.65	4154.45
639.80	11360.96
639.94	17268.47
640.09	18656.41
640.24	13731.92
640.39	9238.09
640.54	6143.91
640.68	3590.38
640.83	1827.96
640.98	903.45
641.13	519.60
641.27	379.17
641.42	346.40
641.57	325.33
641.72	306.61
641.86	182.56
642.01	191.92
642.16	245.76
642.31	255.12
642.45	222.35
642.60	238.73
642.75	250.44
642.90	208.31
643.04	196.60
643.19	142.77
643.34	121.71
643.48	184.90
643.63	182.56
643.78	191.92
643.93	187.24
644.07	215.33
644.22	131.07
644.37	201.29
644.51	168.52
644.66	121.71
644.81	196.60
644.95	180.22
645.10	163.84
645.25	217.67
645.39	145.11
645.54	210.65
645.69	191.92
645.83	142.77
645.98	229.37
646.13	140.43
646.27	114.69
646.42	72.56
646.57	110.01
646.71	98.30
646.86	147.45
647.00	154.48
647.15	177.88
647.30	140.43
647.44	124.05
647.59	112.35
647.74	84.26
647.88	250.44
648.03	182.56
648.17	177.88
648.32	250.44
648.47	133.41
648.61	147.45
648.76	79.58
648.90	198.95
649.05	203.63
649.20	138.09
649.34	156.82
649.49	182.56
649.63	287.89
649.78	187.24
649.92	372.15
650.07	1633.69
650.21	4889.38
650.36	8098.25
650.51	9357.46
650.65	7775.26
650.80	5460.47
650.94	3737.84
651.09	2270.32
651.23	1139.84
651.38	643.65
651.52	339.38
651.67	337.04
651.81	210.65
651.96	327.68
652.10	205.97
652.25	292.57
652.39	168.52
652.54	212.99
652.68	561.73
652.83	1570.50
652.97	2663.53
653.12	3466.33
653.26	2918.65
653.41	2204.78
653.55	1521.35
653.70	978.34
653.84	585.13
653.99	390.87
654.13	322.99
654.27	330.02
654.42	180.22
654.56	194.26
654.71	170.86
654.85	208.31
655.00	100.64
655.14	194.26
655.29	163.84
655.43	217.67
655.57	182.56
655.72	154.48
655.86	138.09
656.01	198.95
656.15	168.52
656.30	187.24
656.44	72.56
656.58	161.50
656.73	126.39
656.87	131.07
657.01	184.90
657.16	269.16
657.30	121.71
657.45	224.69
657.59	205.97
657.73	117.03
657.88	201.29
658.02	257.46
658.16	124.05
658.31	161.50
658.45	191.92
658.60	131.07
658.74	142.77
658.88	67.88
659.03	175.54
659.17	269.16
659.31	706.84
659.46	2230.53
659.60	3880.61
659.74	4669.37
659.89	4119.34
660.03	2991.20
660.17	2179.04
660.32	1401.98
660.46	777.06
660.60	425.98
660.74	294.91
660.89	315.97
661.03	173.20
661.17	88.94
661.32	215.33
661.46	215.33
661.60	182.56
661.74	142.77
661.89	276.18
662.03	198.95
662.17	227.03
662.31	189.58
662.46	114.69
662.60	147.45
662.74	182.56
662.88	142.77
663.03	119.37
663.17	114.69
663.31	208.31
663.45	126.39
663.60	140.43
663.74	149.79
663.88	84.26
664.02	166.18
664.17	142.77
664.31	107.66
664.45	145.11
664.59	210.65
664.73	184.90
664.88	161.50
665.02	231.71
665.16	210.65
665.30	269.16
665.44	168.52
665.59	198.95
665.73	224.69
665.87	166.18
666.01	266.82
666.15	86.60
666.29	142.77
666.44	210.65
666.58	257.46
666.72	170.86
666.86	168.52
667.00	248.10
667.14	372.15
667.28	1416.02
667.43	4229.35
667.57	6738.40
667.71	8081.87
667.85	6913.94
667.99	5116.41
668.13	3190.15
668.27	1844.34
668.41	1067.28
668.56	599.18
668.70	451.72
668.84	266.82
668.98	238.73
669.12	159.16
669.26	128.73
669.40	208.31
669.54	154.48
669.68	170.86
669.82	142.77
669.96	121.71
670.10	147.45
670.25	180.22
670.39	201.29
670.53	88.94
670.67	142.77
670.81	156.82
670.95	222.35
671.09	444.70
671.23	1659.44
671.37	3440.59
671.51	4730.22
671.65	5050.88
671.79	4002.32
671.93	2670.55
672.07	1621.99
672.21	952.60
672.35	512.58
672.49	365.12
672.63	175.54
672.77	245.76
672.91	215.33
673.05	147.45
673.19	243.42
673.33	124.05
673.47	177.88
673.61	142.77
673.75	112.35
673.89	81.92
674.03	128.73
674.17	126.39
674.31	159.16
674.45	124.05
674.59	156.82
674.73	124.05
674.87	189.58
675.01	191.92
675.15	159.16
675.29	208.31
675.43	222.35
675.56	236.39
675.70	250.44
675.84	121.71
675.98	182.56
676.12	21.06
676.26	60.85
676.40	131.07
676.54	168.52
676.68	142.77
676.82	191.92
676.96	70.22
677.10	210.65
677.23	107.66
677.37	140.43
677.51	175.54
677.65	152.13
677.79	112.35
677.93	91.28
678.07	154.48
678.21	133.41
678.34	105.32
678.48	88.94
678.62	166.18
678.76	67.88
678.90	114.69
679.04	124.05
679.18	81.92
679.31	102.98
679.45	88.94
679.59	100.64
679.73	194.26
679.87	58.51
680.00	205.97
680.14	121.71
680.28	67.88
680.42	100.64
680.56	119.37
680.70	121.71
680.83	100.64
680.97	70.22
681.11	142.77
681.25	119.37
681.39	140.43
681.52	147.45
681.66	117.03
681.80	175.54
681.94	121.71
682.07	217.67
682.21	147.45
682.35	42.13
682.49	159.16
682.62	117.03
682.76	138.09
682.90	138.09
683.04	102.98
683.17	156.82
683.31	131.07
683.45	145.11
683.59	161.50
683.72	217.67
683.86	208.31
684.00	84.26
684.13	49.15
684.27	135.75
684.41	166.18
684.55	74.90
684.68	147.45
684.82	81.92
684.96	128.73
685.09	105.32
685.23	159.16
685.37	67.88
685.50	107.66
685.64	147.45
685.78	74.90
685.91	133.41
686.05	124.05
686.19	124.05
686.32	91.28
686.46	119.37
686.60	121.71
686.73	175.54
686.87	215.33
687.01	173.20
687.14	180.22
687.28	98.30
687.42	147.45
687.55	145.11
687.69	173.20
687.82	135.75
687.96	121.71
688.10	98.30
688.23	126.39
688.37	175.54
688.50	227.03
688.64	86.60
688.78	138.09
688.91	133.41
689.05	88.94
689.18	124.05
689.32	128.73
689.46	58.51
689.59	138.09
689.73	91.28
689.86	138.09
690.00	100.64
690.13	28.09
690.27	49.15
690.41	102.98
690.54	102.98
690.68	114.69
690.81	79.58
690.95	175.54
691.08	163.84
691.22	81.92
691.35	63.19
691.49	72.56
691.62	77.24
691.76	135.75
691.89	100.64
692.03	152.13
692.16	227.03
692.30	248.10
692.43	528.96
692.57	1729.66
692.70	2869.50
692.84	3515.48
692.97	3300.16
693.11	2335.85
693.24	1863.07
693.38	1128.14
693.51	704.50
693.65	486.83
693.78	374.49
693.92	266.82
694.05	210.65
694.19	156.82
694.32	163.84
694.45	161.50
694.59	145.11
694.72	39.79
694.86	42.13
694.99	173.20
695.13	100.64
695.26	65.54
695.39	93.62
695.53	201.29
695.66	173.20
695.80	86.60
695.93	135.75
696.07	156.82
696.20	255.12
696.33	285.55
696.47	287.89
696.60	322.99
696.73	238.73
696.87	266.82
697.00	224.69
697.14	154.48
697.27	168.52
697.40	175.54
697.54	72.56
697.67	93.62
697.80	77.24
697.94	170.86
698.07	124.05
698.21	112.35
698.34	105.32
698.47	93.62
698.61	77.24
698.74	135.75
698.87	184.90
699.01	98.30
699.14	142.77
699.27	191.92
699.40	215.33
699.54	168.52
699.67	145.11
699.80	117.03
699.94	126.39
700.07	102.98
700.20	140.43
700.34	124.05
700.47	93.62
700.60	135.75
700.73	81.92
700.87	131.07
701.00	79.58
701.13	135.75
701.26	105.32
701.40	161.50
701.53	126.39
701.66	170.86
701.79	187.24
701.93	100.64
702.06	250.44
702.19	271.50
702.32	299.59
702.46	337.04
702.59	290.23
702.72	608.54
702.85	2272.66
702.99	4732.56
703.12	6431.79
703.25	7066.08
703.38	5912.19
703.51	4755.97
703.65	3714.43
703.78	2464.58
703.91	1607.95
704.04	1090.69
704.17	711.52
704.31	386.19
704.44	250.44
704.57	198.95
704.70	147.45
704.83	161.50
704.96	166.18
705.10	154.48
705.23	180.22
>>>>>End Processed Spectral Data<<<<<
