SpectraSuite Data File
++++++++++++++++++++++++++++++++++++
Date: Fri Oct 04 11:47:07 GMT-05:00 2013
User: price-jones
Dark Spectrum Present: No
Reference Spectrum Present: No
Number of Sampled Component Spectra: 1
Spectrometers: USB2+H05261
Integration Time (usec): 100000 (USB2+H05261)
Spectra Averaged: 1 (USB2+H05261)
Boxcar Smoothing: 0 (USB2+H05261)
Correct for Electrical Dark: No (USB2+H05261)
Strobe/Lamp Enabled: No (USB2+H05261)
Correct for Detector Non-linearity: No (USB2+H05261)
Correct for Stray Light: No (USB2+H05261)
Number of Pixels in Processed Spectrum: 2048
>>>>>Begin Processed Spectral Data<<<<<
365.73	0.00
365.92	0.00
366.12	0.00
366.32	0.00
366.52	0.00
366.72	0.00
366.91	0.00
367.11	0.00
367.31	0.00
367.51	0.00
367.70	0.00
367.90	0.00
368.10	0.00
368.30	0.00
368.49	0.00
368.69	0.00
368.89	0.00
369.09	0.00
369.28	0.00
369.48	0.00
369.68	0.00
369.87	0.00
370.07	0.00
370.27	0.00
370.47	46.81
370.66	0.00
370.86	35.11
371.06	25.75
371.25	56.17
371.45	0.00
371.65	105.32
371.84	133.41
372.04	28.09
372.24	46.81
372.44	67.88
372.63	74.90
372.83	131.07
373.03	60.85
373.22	37.45
373.42	16.38
373.62	79.58
373.81	60.85
374.01	149.79
374.21	88.94
374.40	56.17
374.60	177.88
374.79	128.73
374.99	128.73
375.19	102.98
375.38	124.05
375.58	128.73
375.78	152.13
375.97	121.71
376.17	128.73
376.37	156.82
376.56	88.94
376.76	126.39
376.95	65.54
377.15	100.64
377.35	100.64
377.54	77.24
377.74	39.79
377.93	124.05
378.13	100.64
378.33	102.98
378.52	114.69
378.72	100.64
378.91	107.66
379.11	44.47
379.31	39.79
379.50	93.62
379.70	93.62
379.89	140.43
380.09	128.73
380.28	114.69
380.48	147.45
380.68	105.32
380.87	81.92
381.07	98.30
381.26	156.82
381.46	102.98
381.65	74.90
381.85	105.32
382.04	84.26
382.24	86.60
382.43	42.13
382.63	0.00
382.83	25.75
383.02	117.03
383.22	124.05
383.41	95.96
383.61	88.94
383.80	102.98
384.00	152.13
384.19	84.26
384.39	39.79
384.58	93.62
384.78	77.24
384.97	67.88
385.17	84.26
385.36	51.49
385.56	91.28
385.75	86.60
385.95	65.54
386.14	86.60
386.34	86.60
386.53	53.83
386.72	67.88
386.92	114.69
387.11	110.01
387.31	81.92
387.50	51.49
387.70	60.85
387.89	100.64
388.09	28.09
388.28	98.30
388.48	88.94
388.67	131.07
388.86	58.51
389.06	128.73
389.25	91.28
389.45	114.69
389.64	65.54
389.84	70.22
390.03	79.58
390.22	135.75
390.42	149.79
390.61	0.00
390.81	88.94
391.00	91.28
391.19	166.18
391.39	0.00
391.58	88.94
391.78	53.83
391.97	119.37
392.16	102.98
392.36	142.77
392.55	110.01
392.75	93.62
392.94	72.56
393.13	121.71
393.33	117.03
393.52	110.01
393.71	142.77
393.91	72.56
394.10	65.54
394.29	81.92
394.49	159.16
394.68	105.32
394.88	110.01
395.07	131.07
395.26	60.85
395.46	98.30
395.65	159.16
395.84	84.26
396.04	191.92
396.23	133.41
396.42	91.28
396.62	149.79
396.81	138.09
397.00	175.54
397.19	124.05
397.39	63.19
397.58	53.83
397.77	159.16
397.97	135.75
398.16	0.00
398.35	105.32
398.55	95.96
398.74	159.16
398.93	187.24
399.12	121.71
399.32	133.41
399.51	79.58
399.70	93.62
399.90	81.92
400.09	39.79
400.28	152.13
400.47	84.26
400.67	126.39
400.86	119.37
401.05	98.30
401.24	107.66
401.44	30.43
401.63	98.30
401.82	177.88
402.01	102.98
402.21	93.62
402.40	18.72
402.59	124.05
402.78	65.54
402.97	100.64
403.17	112.35
403.36	131.07
403.55	14.04
403.74	173.20
403.93	102.98
404.13	175.54
404.32	187.24
404.51	107.66
404.70	147.45
404.89	93.62
405.09	126.39
405.28	107.66
405.47	86.60
405.66	112.35
405.85	180.22
406.05	70.22
406.24	67.88
406.43	105.32
406.62	128.73
406.81	124.05
407.00	135.75
407.20	14.04
407.39	58.51
407.58	88.94
407.77	93.62
407.96	110.01
408.15	74.90
408.34	84.26
408.54	102.98
408.73	180.22
408.92	177.88
409.11	131.07
409.30	72.56
409.49	81.92
409.68	102.98
409.87	147.45
410.07	142.77
410.26	74.90
410.45	72.56
410.64	119.37
410.83	107.66
411.02	79.58
411.21	102.98
411.40	126.39
411.59	112.35
411.78	58.51
411.98	98.30
412.17	126.39
412.36	91.28
412.55	35.11
412.74	126.39
412.93	91.28
413.12	51.49
413.31	98.30
413.50	91.28
413.69	93.62
413.88	95.96
414.07	114.69
414.26	58.51
414.45	152.13
414.64	128.73
414.83	88.94
415.02	124.05
415.22	135.75
415.41	166.18
415.60	159.16
415.79	121.71
415.98	145.11
416.17	168.52
416.36	124.05
416.55	166.18
416.74	126.39
416.93	60.85
417.12	182.56
417.31	145.11
417.50	131.07
417.69	231.71
417.88	175.54
418.07	145.11
418.26	166.18
418.45	203.63
418.64	191.92
418.83	184.90
419.02	168.52
419.21	145.11
419.39	175.54
419.58	51.49
419.77	110.01
419.96	210.65
420.15	140.43
420.34	102.98
420.53	23.41
420.72	149.79
420.91	98.30
421.10	114.69
421.29	147.45
421.48	168.52
421.67	142.77
421.86	145.11
422.05	102.98
422.24	91.28
422.43	74.90
422.61	56.17
422.80	152.13
422.99	93.62
423.18	98.30
423.37	184.90
423.56	91.28
423.75	102.98
423.94	56.17
424.13	98.30
424.32	28.09
424.50	105.32
424.69	166.18
424.88	168.52
425.07	140.43
425.26	175.54
425.45	170.86
425.64	168.52
425.83	198.95
426.01	159.16
426.20	126.39
426.39	170.86
426.58	84.26
426.77	93.62
426.96	182.56
427.15	147.45
427.33	124.05
427.52	93.62
427.71	145.11
427.90	100.64
428.09	121.71
428.28	70.22
428.46	135.75
428.65	149.79
428.84	121.71
429.03	60.85
429.22	117.03
429.40	100.64
429.59	79.58
429.78	201.29
429.97	110.01
430.16	154.48
430.34	138.09
430.53	30.43
430.72	149.79
430.91	196.60
431.10	152.13
431.28	128.73
431.47	119.37
431.66	140.43
431.85	121.71
432.03	81.92
432.22	177.88
432.41	67.88
432.60	220.01
432.79	117.03
432.97	322.99
433.16	191.92
433.35	131.07
433.54	163.84
433.72	119.37
433.91	163.84
434.10	191.92
434.28	156.82
434.47	168.52
434.66	140.43
434.85	79.58
435.03	102.98
435.22	77.24
435.41	131.07
435.59	175.54
435.78	93.62
435.97	147.45
436.16	231.71
436.34	147.45
436.53	135.75
436.72	114.69
436.90	74.90
437.09	173.20
437.28	117.03
437.46	124.05
437.65	93.62
437.84	163.84
438.02	145.11
438.21	114.69
438.40	138.09
438.58	112.35
438.77	152.13
438.96	51.49
439.14	117.03
439.33	142.77
439.52	131.07
439.70	110.01
439.89	119.37
440.08	114.69
440.26	173.20
440.45	119.37
440.63	81.92
440.82	117.03
441.01	215.33
441.19	140.43
441.38	93.62
441.57	117.03
441.75	182.56
441.94	154.48
442.12	147.45
442.31	53.83
442.50	126.39
442.68	63.19
442.87	112.35
443.05	46.81
443.24	145.11
443.43	79.58
443.61	175.54
443.80	177.88
443.98	84.26
444.17	170.86
444.35	135.75
444.54	107.66
444.73	58.51
444.91	161.50
445.10	152.13
445.28	100.64
445.47	121.71
445.65	86.60
445.84	135.75
446.02	142.77
446.21	124.05
446.39	117.03
446.58	173.20
446.77	91.28
446.95	44.47
447.14	110.01
447.32	14.04
447.51	67.88
447.69	156.82
447.88	126.39
448.06	131.07
448.25	67.88
448.43	91.28
448.62	67.88
448.80	93.62
448.99	163.84
449.17	133.41
449.36	152.13
449.54	215.33
449.73	191.92
449.91	203.63
450.10	121.71
450.28	133.41
450.46	238.73
450.65	100.64
450.83	119.37
451.02	131.07
451.20	49.15
451.39	152.13
451.57	168.52
451.76	159.16
451.94	177.88
452.13	196.60
452.31	98.30
452.49	126.39
452.68	100.64
452.86	84.26
453.05	187.24
453.23	88.94
453.42	135.75
453.60	135.75
453.78	128.73
453.97	105.32
454.15	102.98
454.34	159.16
454.52	149.79
454.70	205.97
454.89	67.88
455.07	163.84
455.26	142.77
455.44	170.86
455.62	191.92
455.81	114.69
455.99	161.50
456.17	189.58
456.36	147.45
456.54	135.75
456.73	72.56
456.91	135.75
457.09	142.77
457.28	145.11
457.46	154.48
457.64	198.95
457.83	81.92
458.01	107.66
458.19	128.73
458.38	105.32
458.56	95.96
458.74	159.16
458.93	166.18
459.11	142.77
459.29	147.45
459.48	105.32
459.66	215.33
459.84	161.50
460.03	187.24
460.21	161.50
460.39	117.03
460.57	212.99
460.76	138.09
460.94	102.98
461.12	205.97
461.31	187.24
461.49	133.41
461.67	117.03
461.85	102.98
462.04	166.18
462.22	606.20
462.40	205.97
462.59	154.48
462.77	161.50
462.95	107.66
463.13	117.03
463.32	166.18
463.50	145.11
463.68	126.39
463.86	210.65
464.05	161.50
464.23	147.45
464.41	117.03
464.59	166.18
464.78	81.92
464.96	110.01
465.14	161.50
465.32	121.71
465.50	107.66
465.69	159.16
465.87	194.26
466.05	166.18
466.23	126.39
466.41	88.94
466.60	124.05
466.78	175.54
466.96	205.97
467.14	98.30
467.32	173.20
467.51	121.71
467.69	135.75
467.87	152.13
468.05	112.35
468.23	170.86
468.41	138.09
468.60	124.05
468.78	86.60
468.96	147.45
469.14	191.92
469.32	163.84
469.50	135.75
469.69	138.09
469.87	117.03
470.05	191.92
470.23	100.64
470.41	98.30
470.59	131.07
470.77	149.79
470.95	159.16
471.14	161.50
471.32	159.16
471.50	114.69
471.68	161.50
471.86	170.86
472.04	117.03
472.22	142.77
472.40	191.92
472.58	100.64
472.77	110.01
472.95	131.07
473.13	163.84
473.31	250.44
473.49	187.24
473.67	138.09
473.85	138.09
474.03	198.95
474.21	133.41
474.39	145.11
474.57	124.05
474.75	119.37
474.93	147.45
475.12	180.22
475.30	124.05
475.48	124.05
475.66	128.73
475.84	145.11
476.02	142.77
476.20	88.94
476.38	133.41
476.56	257.46
476.74	189.58
476.92	182.56
477.10	133.41
477.28	93.62
477.46	88.94
477.64	133.41
477.82	180.22
478.00	175.54
478.18	58.51
478.36	166.18
478.54	149.79
478.72	133.41
478.90	100.64
479.08	110.01
479.26	149.79
479.44	117.03
479.62	163.84
479.80	91.28
479.98	203.63
480.16	119.37
480.34	163.84
480.52	189.58
480.70	196.60
480.88	124.05
481.06	84.26
481.24	187.24
481.41	168.52
481.59	168.52
481.77	170.86
481.95	166.18
482.13	124.05
482.31	135.75
482.49	163.84
482.67	91.28
482.85	163.84
483.03	184.90
483.21	166.18
483.39	124.05
483.57	131.07
483.74	180.22
483.92	189.58
484.10	145.11
484.28	140.43
484.46	215.33
484.64	156.82
484.82	86.60
485.00	119.37
485.18	222.35
485.35	138.09
485.53	28.09
485.71	189.58
485.89	121.71
486.07	149.79
486.25	217.67
486.43	205.97
486.61	161.50
486.78	166.18
486.96	72.56
487.14	152.13
487.32	205.97
487.50	126.39
487.68	168.52
487.85	147.45
488.03	210.65
488.21	168.52
488.39	161.50
488.57	163.84
488.75	194.26
488.92	423.64
489.10	182.56
489.28	149.79
489.46	184.90
489.64	173.20
489.81	173.20
489.99	198.95
490.17	205.97
490.35	201.29
490.53	196.60
490.70	131.07
490.88	161.50
491.06	194.26
491.24	182.56
491.41	224.69
491.59	107.66
491.77	212.99
491.95	205.97
492.13	161.50
492.30	198.95
492.48	156.82
492.66	208.31
492.84	133.41
493.01	128.73
493.19	161.50
493.37	229.37
493.54	156.82
493.72	117.03
493.90	166.18
494.08	175.54
494.25	205.97
494.43	201.29
494.61	133.41
494.79	217.67
494.96	117.03
495.14	231.71
495.32	234.05
495.49	205.97
495.67	102.98
495.85	135.75
496.02	173.20
496.20	163.84
496.38	126.39
496.55	175.54
496.73	182.56
496.91	114.69
497.09	133.41
497.26	166.18
497.44	210.65
497.62	173.20
497.79	236.39
497.97	236.39
498.14	212.99
498.32	257.46
498.50	93.62
498.67	152.13
498.85	222.35
499.03	201.29
499.20	147.45
499.38	217.67
499.56	140.43
499.73	271.50
499.91	198.95
500.08	201.29
500.26	234.05
500.44	135.75
500.61	198.95
500.79	154.48
500.97	191.92
501.14	182.56
501.32	224.69
501.49	201.29
501.67	156.82
501.84	177.88
502.02	220.01
502.20	191.92
502.37	215.33
502.55	236.39
502.72	173.20
502.90	175.54
503.07	107.66
503.25	184.90
503.43	177.88
503.60	250.44
503.78	201.29
503.95	140.43
504.13	191.92
504.30	212.99
504.48	159.16
504.65	154.48
504.83	208.31
505.01	198.95
505.18	170.86
505.36	173.20
505.53	196.60
505.71	173.20
505.88	177.88
506.06	156.82
506.23	222.35
506.41	187.24
506.58	154.48
506.76	140.43
506.93	215.33
507.11	243.42
507.28	159.16
507.46	236.39
507.63	212.99
507.81	191.92
507.98	154.48
508.16	210.65
508.33	180.22
508.50	138.09
508.68	152.13
508.85	227.03
509.03	241.08
509.20	191.92
509.38	205.97
509.55	187.24
509.73	276.18
509.90	255.12
510.08	124.05
510.25	205.97
510.42	222.35
510.60	205.97
510.77	250.44
510.95	208.31
511.12	203.63
511.30	294.91
511.47	222.35
511.64	220.01
511.82	215.33
511.99	149.79
512.17	161.50
512.34	154.48
512.51	203.63
512.69	163.84
512.86	241.08
513.04	173.20
513.21	220.01
513.38	168.52
513.56	163.84
513.73	208.31
513.90	163.84
514.08	140.43
514.25	131.07
514.43	187.24
514.60	191.92
514.77	175.54
514.95	203.63
515.12	191.92
515.29	161.50
515.47	259.80
515.64	243.42
515.81	222.35
515.99	271.50
516.16	156.82
516.33	182.56
516.51	163.84
516.68	112.35
516.85	180.22
517.03	194.26
517.20	196.60
517.37	215.33
517.54	133.41
517.72	198.95
517.89	182.56
518.06	170.86
518.24	264.48
518.41	236.39
518.58	180.22
518.75	252.78
518.93	234.05
519.10	210.65
519.27	205.97
519.45	220.01
519.62	217.67
519.79	229.37
519.96	191.92
520.14	159.16
520.31	264.48
520.48	208.31
520.65	234.05
520.83	245.76
521.00	248.10
521.17	252.78
521.34	149.79
521.52	248.10
521.69	238.73
521.86	126.39
522.03	184.90
522.20	224.69
522.38	210.65
522.55	175.54
522.72	194.26
522.89	194.26
523.07	285.55
523.24	175.54
523.41	114.69
523.58	175.54
523.75	203.63
523.92	173.20
524.10	175.54
524.27	243.42
524.44	198.95
524.61	201.29
524.78	182.56
524.96	222.35
525.13	187.24
525.30	215.33
525.47	243.42
525.64	203.63
525.81	248.10
525.98	229.37
526.16	175.54
526.33	210.65
526.50	184.90
526.67	234.05
526.84	142.77
527.01	140.43
527.18	93.62
527.36	194.26
527.53	114.69
527.70	259.80
527.87	238.73
528.04	217.67
528.21	173.20
528.38	205.97
528.55	243.42
528.72	222.35
528.89	175.54
529.07	215.33
529.24	243.42
529.41	142.77
529.58	217.67
529.75	154.48
529.92	250.44
530.09	189.58
530.26	231.71
530.43	147.45
530.60	159.16
530.77	196.60
530.94	224.69
531.11	208.31
531.28	234.05
531.46	180.22
531.63	212.99
531.80	201.29
531.97	243.42
532.14	262.14
532.31	217.67
532.48	262.14
532.65	215.33
532.82	346.40
532.99	346.40
533.16	189.58
533.33	231.71
533.50	285.55
533.67	374.49
533.84	292.57
534.01	379.17
534.18	381.51
534.35	315.97
534.52	243.42
534.69	266.82
534.86	250.44
535.03	189.58
535.20	177.88
535.37	255.12
535.54	210.65
535.71	196.60
535.88	273.84
536.05	257.46
536.22	276.18
536.38	194.26
536.55	170.86
536.72	201.29
536.89	217.67
537.06	166.18
537.23	269.16
537.40	124.05
537.57	212.99
537.74	234.05
537.91	175.54
538.08	229.37
538.25	231.71
538.42	173.20
538.59	217.67
538.75	229.37
538.92	217.67
539.09	220.01
539.26	215.33
539.43	442.36
539.60	880.04
539.77	1460.49
539.94	1521.35
540.11	976.00
540.28	620.24
540.44	308.95
540.61	311.29
540.78	227.03
540.95	177.88
541.12	262.14
541.29	217.67
541.46	177.88
541.62	177.88
541.79	189.58
541.96	280.86
542.13	234.05
542.30	215.33
542.47	212.99
542.63	182.56
542.80	163.84
542.97	201.29
543.14	156.82
543.31	224.69
543.48	294.91
543.64	283.20
543.81	217.67
543.98	212.99
544.15	222.35
544.32	147.45
544.48	180.22
544.65	180.22
544.82	170.86
544.99	245.76
545.16	278.52
545.32	124.05
545.49	170.86
545.66	220.01
545.83	229.37
546.00	152.13
546.16	187.24
546.33	201.29
546.50	234.05
546.67	201.29
546.83	187.24
547.00	285.55
547.17	257.46
547.34	227.03
547.50	189.58
547.67	145.11
547.84	212.99
548.00	152.13
548.17	198.95
548.34	175.54
548.51	220.01
548.67	280.86
548.84	278.52
549.01	196.60
549.18	220.01
549.34	231.71
549.51	135.75
549.68	194.26
549.84	182.56
550.01	217.67
550.18	248.10
550.34	198.95
550.51	198.95
550.68	161.50
550.84	154.48
551.01	292.57
551.18	245.76
551.34	187.24
551.51	215.33
551.68	215.33
551.84	203.63
552.01	187.24
552.18	166.18
552.34	156.82
552.51	215.33
552.68	142.77
552.84	252.78
553.01	255.12
553.18	208.31
553.34	248.10
553.51	224.69
553.67	212.99
553.84	208.31
554.01	243.42
554.17	196.60
554.34	138.09
554.51	229.37
554.67	205.97
554.84	285.55
555.00	205.97
555.17	238.73
555.33	180.22
555.50	234.05
555.67	252.78
555.83	140.43
556.00	259.80
556.16	369.80
556.33	212.99
556.50	201.29
556.66	236.39
556.83	227.03
556.99	210.65
557.16	138.09
557.32	220.01
557.49	145.11
557.65	194.26
557.82	248.10
557.98	234.05
558.15	243.42
558.32	229.37
558.48	196.60
558.65	203.63
558.81	222.35
558.98	210.65
559.14	224.69
559.31	262.14
559.47	210.65
559.64	138.09
559.80	215.33
559.97	184.90
560.13	189.58
560.30	224.69
560.46	184.90
560.63	189.58
560.79	191.92
560.96	220.01
561.12	262.14
561.29	222.35
561.45	182.56
561.61	131.07
561.78	241.08
561.94	168.52
562.11	182.56
562.27	184.90
562.44	217.67
562.60	224.69
562.77	191.92
562.93	313.63
563.10	212.99
563.26	180.22
563.42	308.95
563.59	231.71
563.75	262.14
563.92	341.72
564.08	236.39
564.24	217.67
564.41	266.82
564.57	159.16
564.74	168.52
564.90	271.50
565.07	243.42
565.23	259.80
565.39	243.42
565.56	297.25
565.72	198.95
565.88	234.05
566.05	140.43
566.21	248.10
566.38	194.26
566.54	234.05
566.70	238.73
566.87	189.58
567.03	227.03
567.19	255.12
567.36	234.05
567.52	210.65
567.68	177.88
567.85	182.56
568.01	210.65
568.17	180.22
568.34	241.08
568.50	166.18
568.66	220.01
568.83	285.55
568.99	154.48
569.15	184.90
569.32	184.90
569.48	140.43
569.64	175.54
569.81	161.50
569.97	177.88
570.13	180.22
570.30	250.44
570.46	168.52
570.62	180.22
570.78	229.37
570.95	215.33
571.11	224.69
571.27	243.42
571.43	194.26
571.60	252.78
571.76	161.50
571.92	208.31
572.09	234.05
572.25	278.52
572.41	245.76
572.57	212.99
572.74	283.20
572.90	208.31
573.06	208.31
573.22	252.78
573.38	229.37
573.55	201.29
573.71	215.33
573.87	231.71
574.03	145.11
574.20	229.37
574.36	257.46
574.52	203.63
574.68	332.36
574.84	285.55
575.01	273.84
575.17	271.50
575.33	208.31
575.49	229.37
575.65	227.03
575.82	297.25
575.98	552.37
576.14	720.88
576.30	702.16
576.46	510.24
576.62	472.79
576.79	322.99
576.95	294.91
577.11	215.33
577.27	229.37
577.43	257.46
577.59	241.08
577.75	273.84
577.92	194.26
578.08	308.95
578.24	205.97
578.40	243.42
578.56	201.29
578.72	271.50
578.88	257.46
579.04	252.78
579.21	215.33
579.37	222.35
579.53	297.25
579.69	292.57
579.85	325.33
580.01	318.31
580.17	418.96
580.33	372.15
580.49	320.65
580.65	238.73
580.82	301.93
580.98	290.23
581.14	212.99
581.30	325.33
581.46	334.70
581.62	554.71
581.78	571.09
581.94	589.82
582.10	407.25
582.26	376.83
582.42	379.17
582.58	388.53
582.74	386.19
582.90	379.17
583.06	521.94
583.22	369.80
583.38	470.45
583.54	472.79
583.70	617.90
583.86	683.44
584.02	774.72
584.18	957.28
584.34	1179.63
584.50	3309.52
584.66	24968.84
584.82	56259.46
584.98	65453.08
585.14	62185.69
585.30	47973.96
585.46	29149.03
585.62	17825.52
585.78	8182.51
585.94	3309.52
586.10	1549.43
586.26	1025.15
586.42	765.36
586.58	681.10
586.74	571.09
586.90	559.39
587.06	582.79
587.22	528.96
587.38	496.19
587.54	1240.48
587.70	3564.64
587.86	5692.18
588.02	6370.94
588.18	4498.51
588.34	2850.77
588.49	1818.60
588.65	1116.44
588.81	528.96
588.97	346.40
589.13	301.93
589.29	269.16
589.45	301.93
589.61	297.25
589.77	304.27
589.93	456.40
590.08	430.66
590.24	435.34
590.40	402.57
590.56	318.31
590.72	337.04
590.88	236.39
591.04	327.68
591.20	351.08
591.35	334.70
591.51	337.04
591.67	250.44
591.83	308.95
591.99	315.97
592.15	198.95
592.31	215.33
592.46	257.46
592.62	264.48
592.78	299.59
592.94	241.08
593.10	198.95
593.26	227.03
593.41	395.55
593.57	353.42
593.73	531.30
593.89	2904.60
594.05	7360.98
594.20	10759.44
594.36	10296.02
594.52	6764.15
594.68	4189.56
594.84	2853.11
594.99	1540.07
595.15	667.05
595.31	458.74
595.47	320.65
595.62	330.02
595.78	313.63
595.94	297.25
596.10	351.08
596.25	234.05
596.41	315.97
596.57	187.24
596.73	311.29
596.88	505.56
597.04	1453.47
597.20	2331.17
597.36	2630.76
597.51	1947.33
597.67	1301.34
597.83	873.02
597.99	704.50
598.14	383.85
598.30	294.91
598.46	285.55
598.61	236.39
598.77	271.50
598.93	231.71
599.09	208.31
599.24	205.97
599.40	243.42
599.56	257.46
599.71	166.18
599.87	229.37
600.03	194.26
600.18	177.88
600.34	248.10
600.50	241.08
600.65	173.20
600.81	166.18
600.97	163.84
601.12	224.69
601.28	156.82
601.44	236.39
601.59	210.65
601.75	201.29
601.91	308.95
602.06	166.18
602.22	348.74
602.37	723.23
602.53	1771.79
602.69	2684.59
602.84	2675.23
603.00	2071.37
603.16	1497.94
603.31	1001.75
603.47	678.76
603.62	341.72
603.78	287.89
603.94	212.99
604.09	231.71
604.25	250.44
604.40	257.46
604.56	222.35
604.71	243.42
604.87	173.20
605.03	271.50
605.18	250.44
605.34	337.04
605.49	231.71
605.65	264.48
605.80	269.16
605.96	257.46
606.12	292.57
606.27	344.06
606.43	264.48
606.58	273.84
606.74	849.61
606.89	3707.41
607.05	7124.59
607.20	9261.50
607.36	7658.23
607.51	5097.69
607.67	3274.41
607.82	2181.38
607.98	1188.99
608.13	688.12
608.29	379.17
608.44	379.17
608.60	386.19
608.75	472.79
608.91	1158.57
609.06	5692.18
609.22	11833.75
609.37	16067.78
609.53	13862.99
609.68	9228.73
609.84	6050.28
609.99	3904.01
610.15	2054.99
610.30	952.60
610.46	507.90
610.61	344.06
610.76	344.06
610.92	285.55
611.07	243.42
611.23	372.15
611.38	306.61
611.54	229.37
611.69	224.69
611.84	248.10
612.00	276.18
612.15	362.78
612.31	472.79
612.46	552.37
612.62	629.60
612.77	608.54
612.92	528.96
613.08	505.56
613.23	526.62
613.39	433.00
613.54	861.32
613.69	5320.04
613.85	14771.12
614.00	24072.41
614.15	25675.68
614.31	17951.91
614.46	11587.99
614.62	7801.01
614.77	4545.32
614.92	2085.42
615.08	950.26
615.23	554.71
615.38	451.72
615.54	437.68
615.69	926.85
615.84	2993.55
616.00	5394.93
616.15	6476.26
616.30	5348.12
616.46	3669.96
616.61	2359.26
616.76	1591.56
616.92	868.34
617.07	500.87
617.22	341.72
617.37	313.63
617.53	231.71
617.68	341.72
617.83	266.82
617.99	358.10
618.14	294.91
618.29	259.80
618.45	231.71
618.60	215.33
618.75	191.92
618.90	255.12
619.06	196.60
619.21	280.86
619.36	222.35
619.51	236.39
619.67	229.37
619.82	198.95
619.97	180.22
620.12	273.84
620.28	257.46
620.43	252.78
620.58	215.33
620.73	217.67
620.89	212.99
621.04	524.28
621.19	1497.94
621.34	3000.57
621.49	3838.48
621.65	3384.41
621.80	2448.20
621.95	1537.73
622.10	1205.38
622.25	631.94
622.41	374.49
622.56	365.12
622.71	273.84
622.86	259.80
623.01	229.37
623.16	210.65
623.32	173.20
623.47	210.65
623.62	196.60
623.77	217.67
623.92	194.26
624.07	156.82
624.23	241.08
624.38	182.56
624.53	243.42
624.68	208.31
624.83	280.86
624.98	170.86
625.13	215.33
625.29	245.76
625.44	344.06
625.59	266.82
625.74	327.68
625.89	540.66
626.04	2672.89
626.19	7447.58
626.34	12070.14
626.49	13362.12
626.65	9671.09
626.80	6541.80
626.95	4339.35
627.10	2670.55
627.25	1306.02
627.40	678.76
627.55	304.27
627.70	229.37
627.85	203.63
628.00	119.37
628.15	217.67
628.30	154.48
628.45	126.39
628.60	217.67
628.76	227.03
628.91	220.01
629.06	220.01
629.21	205.97
629.36	304.27
629.51	250.44
629.66	243.42
629.81	447.04
629.96	1324.74
630.11	2574.59
630.26	3332.92
630.41	2953.76
630.56	2071.37
630.71	1409.00
630.86	999.41
631.01	613.22
631.16	402.57
631.31	344.06
631.46	334.70
631.61	287.89
631.76	222.35
631.91	273.84
632.06	283.20
632.21	290.23
632.36	308.95
632.51	332.36
632.66	348.74
632.81	1249.85
632.96	4053.81
633.10	7566.95
633.25	9114.05
633.40	7363.33
633.55	5057.90
633.70	3442.93
633.85	2183.72
634.00	1203.04
634.15	669.39
634.30	344.06
634.45	248.10
634.60	287.89
634.75	217.67
634.90	215.33
635.05	269.16
635.19	276.18
635.34	257.46
635.49	210.65
635.64	280.86
635.79	212.99
635.94	224.69
636.09	227.03
636.24	231.71
636.39	229.37
636.53	250.44
636.68	180.22
636.83	227.03
636.98	184.90
637.13	315.97
637.28	341.72
637.43	425.98
637.57	674.07
637.72	3527.19
637.87	9823.23
638.02	15272.00
638.17	16870.58
638.32	12138.02
638.46	8248.05
638.61	5689.84
638.76	3372.71
638.91	1797.53
639.06	877.70
639.20	653.01
639.35	620.24
639.50	964.30
639.65	5453.45
639.80	15239.23
639.94	24425.83
640.09	27138.51
640.24	19950.73
640.39	12978.27
640.54	8711.47
640.68	5193.65
640.83	2511.39
640.98	1167.93
641.13	641.31
641.27	482.15
641.42	409.59
641.57	320.65
641.72	292.57
641.86	287.89
642.01	285.55
642.16	238.73
642.31	297.25
642.45	325.33
642.60	325.33
642.75	180.22
642.90	245.76
643.04	217.67
643.19	170.86
643.34	126.39
643.48	177.88
643.63	159.16
643.78	250.44
643.93	262.14
644.07	243.42
644.22	182.56
644.37	205.97
644.51	252.78
644.66	276.18
644.81	273.84
644.95	252.78
645.10	124.05
645.25	182.56
645.39	227.03
645.54	184.90
645.69	252.78
645.83	180.22
645.98	285.55
646.13	168.52
646.27	210.65
646.42	191.92
646.57	135.75
646.71	102.98
646.86	168.52
647.00	128.73
647.15	152.13
647.30	236.39
647.44	201.29
647.59	149.79
647.74	128.73
647.88	124.05
648.03	131.07
648.17	280.86
648.32	159.16
648.47	138.09
648.61	159.16
648.76	210.65
648.90	161.50
649.05	163.84
649.20	180.22
649.34	170.86
649.49	252.78
649.63	262.14
649.78	245.76
649.92	421.30
650.07	1987.11
650.21	6537.12
650.36	11353.94
650.51	13654.69
650.65	11098.82
650.80	7735.47
650.94	5158.54
651.09	3112.91
651.23	1629.01
651.38	812.17
651.52	369.80
651.67	273.84
651.81	250.44
651.96	264.48
652.10	259.80
652.25	229.37
652.39	250.44
652.54	287.89
652.68	641.31
652.83	1937.96
652.97	3639.53
653.12	4697.46
653.26	4119.34
653.41	3075.46
653.55	2012.86
653.70	1320.06
653.84	781.74
653.99	468.11
654.13	318.31
654.27	262.14
654.42	156.82
654.56	208.31
654.71	182.56
654.85	173.20
655.00	110.01
655.14	117.03
655.29	117.03
655.43	110.01
655.57	175.54
655.72	105.32
655.86	147.45
656.01	189.58
656.15	70.22
656.30	234.05
656.44	210.65
656.58	135.75
656.73	166.18
656.87	220.01
657.01	191.92
657.16	220.01
657.30	163.84
657.45	208.31
657.59	145.11
657.73	117.03
657.88	208.31
658.02	262.14
658.16	166.18
658.31	177.88
658.45	119.37
658.60	159.16
658.74	154.48
658.88	131.07
659.03	262.14
659.17	315.97
659.31	931.53
659.46	2897.58
659.60	5219.39
659.74	6675.21
659.89	5879.43
660.03	4269.14
660.17	2988.86
660.32	1928.60
660.46	1008.77
660.60	589.82
660.74	374.49
660.89	266.82
661.03	201.29
661.17	217.67
661.32	217.67
661.46	159.16
661.60	117.03
661.74	170.86
661.89	60.85
662.03	170.86
662.17	121.71
662.31	196.60
662.46	182.56
662.60	131.07
662.74	198.95
662.88	224.69
663.03	145.11
663.17	166.18
663.31	198.95
663.45	212.99
663.60	168.52
663.74	156.82
663.88	124.05
664.02	124.05
664.17	154.48
664.31	98.30
664.45	98.30
664.59	184.90
664.73	203.63
664.88	241.08
665.02	147.45
665.16	107.66
665.30	222.35
665.44	147.45
665.59	227.03
665.73	210.65
665.87	201.29
666.01	194.26
666.15	168.52
666.29	140.43
666.44	224.69
666.58	217.67
666.72	231.71
666.86	180.22
667.00	320.65
667.14	421.30
667.28	1870.09
667.43	5444.09
667.57	9275.54
667.71	11382.03
667.85	9928.55
667.99	7061.40
668.13	4674.05
668.27	2745.45
668.41	1540.07
668.56	849.61
668.70	592.16
668.84	325.33
668.98	257.46
669.12	198.95
669.26	262.14
669.40	292.57
669.54	128.73
669.68	194.26
669.82	119.37
669.96	138.09
670.10	208.31
670.25	201.29
670.39	182.56
670.53	149.79
670.67	194.26
670.81	201.29
670.95	262.14
671.09	465.77
671.23	2113.50
671.37	4498.51
671.51	6565.20
671.65	7274.38
671.79	5584.52
671.93	3761.24
672.07	2265.64
672.21	1228.78
672.35	711.52
672.49	421.30
672.63	273.84
672.77	196.60
672.91	285.55
673.05	231.71
673.19	243.42
673.33	198.95
673.47	180.22
673.61	119.37
673.75	210.65
673.89	145.11
674.03	191.92
674.17	177.88
674.31	152.13
674.45	177.88
674.59	177.88
674.73	220.01
674.87	140.43
675.01	159.16
675.15	212.99
675.29	255.12
675.43	234.05
675.56	154.48
675.70	250.44
675.84	177.88
675.98	180.22
676.12	161.50
676.26	138.09
676.40	88.94
676.54	159.16
676.68	166.18
676.82	159.16
676.96	205.97
677.10	205.97
677.23	102.98
677.37	131.07
677.51	138.09
677.65	175.54
677.79	91.28
677.93	110.01
678.07	131.07
678.21	110.01
678.34	51.49
678.48	110.01
678.62	140.43
678.76	177.88
678.90	201.29
679.04	133.41
679.18	63.19
679.31	147.45
679.45	107.66
679.59	128.73
679.73	112.35
679.87	105.32
680.00	135.75
680.14	81.92
680.28	133.41
680.42	145.11
680.56	152.13
680.70	135.75
680.83	159.16
680.97	128.73
681.11	189.58
681.25	81.92
681.39	133.41
681.52	234.05
681.66	163.84
681.80	84.26
681.94	56.17
682.07	124.05
682.21	163.84
682.35	95.96
682.49	95.96
682.62	140.43
682.76	163.84
682.90	173.20
683.04	147.45
683.17	93.62
683.31	117.03
683.45	224.69
683.59	156.82
683.72	168.52
683.86	140.43
684.00	198.95
684.13	121.71
684.27	198.95
684.41	163.84
684.55	63.19
684.68	152.13
684.82	105.32
684.96	84.26
685.09	114.69
685.23	131.07
685.37	81.92
685.50	227.03
685.64	149.79
685.78	112.35
685.91	121.71
686.05	128.73
686.19	187.24
686.32	135.75
686.46	138.09
686.60	56.17
686.73	250.44
686.87	191.92
687.01	145.11
687.14	180.22
687.28	156.82
687.42	88.94
687.55	112.35
687.69	170.86
687.82	128.73
687.96	133.41
688.10	133.41
688.23	119.37
688.37	168.52
688.50	140.43
688.64	135.75
688.78	147.45
688.91	147.45
689.05	117.03
689.18	110.01
689.32	98.30
689.46	138.09
689.59	138.09
689.73	133.41
689.86	170.86
690.00	133.41
690.13	119.37
690.27	140.43
690.41	126.39
690.54	145.11
690.68	126.39
690.81	91.28
690.95	39.79
691.08	140.43
691.22	124.05
691.35	79.58
691.49	88.94
691.62	173.20
691.76	135.75
691.89	205.97
692.03	110.01
692.16	170.86
692.30	154.48
692.43	645.99
692.57	2258.62
692.70	3880.61
692.84	5069.60
692.97	4585.11
693.11	3475.70
693.24	2434.16
693.38	1563.48
693.51	1102.39
693.65	695.14
693.78	440.02
693.92	327.68
694.05	212.99
694.19	187.24
694.32	182.56
694.45	182.56
694.59	102.98
694.72	119.37
694.86	121.71
694.99	126.39
695.13	0.00
695.26	170.86
695.39	175.54
695.53	170.86
695.66	77.24
695.80	126.39
695.93	58.51
696.07	135.75
696.20	252.78
696.33	334.70
696.47	444.70
696.60	505.56
696.73	306.61
696.87	231.71
697.00	220.01
697.14	142.77
697.27	159.16
697.40	194.26
697.54	191.92
697.67	182.56
697.80	114.69
697.94	133.41
698.07	170.86
698.21	131.07
698.34	161.50
698.47	156.82
698.61	128.73
698.74	145.11
698.87	93.62
699.01	65.54
699.14	117.03
699.27	152.13
699.40	210.65
699.54	100.64
699.67	152.13
699.80	93.62
699.94	95.96
700.07	124.05
700.20	126.39
700.34	86.60
700.47	67.88
700.60	173.20
700.73	114.69
700.87	128.73
701.00	100.64
701.13	102.98
701.26	180.22
701.40	152.13
701.53	42.13
701.66	168.52
701.79	135.75
701.93	234.05
702.06	290.23
702.19	423.64
702.32	531.30
702.46	414.27
702.59	402.57
702.72	863.66
702.85	2993.55
702.99	6263.27
703.12	9310.65
703.25	10162.61
703.38	8610.83
703.51	6733.72
703.65	5027.47
703.78	3644.21
703.91	2345.22
704.04	1570.50
704.17	898.77
704.31	606.20
704.44	322.99
704.57	287.89
704.70	255.12
704.83	231.71
704.96	224.69
705.10	173.20
705.23	145.11
>>>>>End Processed Spectral Data<<<<<
