SpectraSuite Data File
++++++++++++++++++++++++++++++++++++
Date: Fri Oct 04 11:47:18 GMT-05:00 2013
User: price-jones
Dark Spectrum Present: No
Reference Spectrum Present: No
Number of Sampled Component Spectra: 1
Spectrometers: USB2+H05261
Integration Time (usec): 100000 (USB2+H05261)
Spectra Averaged: 1 (USB2+H05261)
Boxcar Smoothing: 0 (USB2+H05261)
Correct for Electrical Dark: No (USB2+H05261)
Strobe/Lamp Enabled: No (USB2+H05261)
Correct for Detector Non-linearity: No (USB2+H05261)
Correct for Stray Light: No (USB2+H05261)
Number of Pixels in Processed Spectrum: 2048
>>>>>Begin Processed Spectral Data<<<<<
365.73	11.70
365.92	11.70
366.12	11.70
366.32	0.00
366.52	0.00
366.72	0.00
366.91	0.00
367.11	0.00
367.31	0.00
367.51	0.00
367.70	0.00
367.90	0.00
368.10	0.00
368.30	0.00
368.49	0.00
368.69	0.00
368.89	0.00
369.09	0.00
369.28	0.00
369.48	0.00
369.68	0.00
369.87	0.00
370.07	11.70
370.27	0.00
370.47	70.22
370.66	0.00
370.86	23.41
371.06	91.28
371.25	42.13
371.45	0.00
371.65	56.17
371.84	25.75
372.04	46.81
372.24	70.22
372.44	58.51
372.63	105.32
372.83	86.60
373.03	98.30
373.22	72.56
373.42	95.96
373.62	100.64
373.81	51.49
374.01	119.37
374.21	107.66
374.40	67.88
374.60	163.84
374.79	95.96
374.99	112.35
375.19	145.11
375.38	84.26
375.58	119.37
375.78	105.32
375.97	168.52
376.17	135.75
376.37	114.69
376.56	88.94
376.76	135.75
376.95	121.71
377.15	79.58
377.35	88.94
377.54	88.94
377.74	154.48
377.93	32.77
378.13	100.64
378.33	133.41
378.52	154.48
378.72	124.05
378.91	100.64
379.11	77.24
379.31	93.62
379.50	49.15
379.70	166.18
379.89	124.05
380.09	37.45
380.28	110.01
380.48	133.41
380.68	44.47
380.87	42.13
381.07	124.05
381.26	79.58
381.46	100.64
381.65	65.54
381.85	74.90
382.04	114.69
382.24	114.69
382.43	84.26
382.63	81.92
382.83	81.92
383.02	86.60
383.22	95.96
383.41	81.92
383.61	159.16
383.80	117.03
384.00	93.62
384.19	91.28
384.39	70.22
384.58	46.81
384.78	121.71
384.97	67.88
385.17	25.75
385.36	0.00
385.56	98.30
385.75	74.90
385.95	112.35
386.14	91.28
386.34	60.85
386.53	44.47
386.72	135.75
386.92	201.29
387.11	70.22
387.31	91.28
387.50	93.62
387.70	98.30
387.89	72.56
388.09	135.75
388.28	58.51
388.48	58.51
388.67	81.92
388.86	74.90
389.06	119.37
389.25	133.41
389.45	98.30
389.64	70.22
389.84	35.11
390.03	91.28
390.22	72.56
390.42	56.17
390.61	147.45
390.81	25.75
391.00	84.26
391.19	100.64
391.39	63.19
391.58	72.56
391.78	81.92
391.97	140.43
392.16	28.09
392.36	126.39
392.55	79.58
392.75	84.26
392.94	77.24
393.13	107.66
393.33	77.24
393.52	84.26
393.71	184.90
393.91	112.35
394.10	110.01
394.29	114.69
394.49	93.62
394.68	74.90
394.88	100.64
395.07	131.07
395.26	145.11
395.46	135.75
395.65	135.75
395.84	88.94
396.04	170.86
396.23	147.45
396.42	117.03
396.62	175.54
396.81	95.96
397.00	119.37
397.19	86.60
397.39	187.24
397.58	222.35
397.77	46.81
397.97	145.11
398.16	65.54
398.35	133.41
398.55	65.54
398.74	110.01
398.93	119.37
399.12	110.01
399.32	128.73
399.51	191.92
399.70	91.28
399.90	72.56
400.09	70.22
400.28	102.98
400.47	86.60
400.67	91.28
400.86	117.03
401.05	126.39
401.24	124.05
401.44	105.32
401.63	93.62
401.82	110.01
402.01	102.98
402.21	102.98
402.40	93.62
402.59	0.00
402.78	88.94
402.97	119.37
403.17	126.39
403.36	88.94
403.55	79.58
403.74	100.64
403.93	152.13
404.13	196.60
404.32	114.69
404.51	86.60
404.70	163.84
404.89	121.71
405.09	245.76
405.28	95.96
405.47	72.56
405.66	88.94
405.85	72.56
406.05	117.03
406.24	110.01
406.43	133.41
406.62	105.32
406.81	112.35
407.00	135.75
407.20	117.03
407.39	53.83
407.58	126.39
407.77	135.75
407.96	163.84
408.15	86.60
408.34	177.88
408.54	79.58
408.73	72.56
408.92	102.98
409.11	138.09
409.30	100.64
409.49	79.58
409.68	93.62
409.87	154.48
410.07	35.11
410.26	84.26
410.45	105.32
410.64	74.90
410.83	112.35
411.02	93.62
411.21	140.43
411.40	145.11
411.59	81.92
411.78	105.32
411.98	77.24
412.17	32.77
412.36	142.77
412.55	95.96
412.74	114.69
412.93	145.11
413.12	88.94
413.31	131.07
413.50	128.73
413.69	170.86
413.88	133.41
414.07	110.01
414.26	84.26
414.45	88.94
414.64	149.79
414.83	60.85
415.02	117.03
415.22	152.13
415.41	159.16
415.60	81.92
415.79	51.49
415.98	194.26
416.17	173.20
416.36	166.18
416.55	56.17
416.74	102.98
416.93	79.58
417.12	124.05
417.31	159.16
417.50	145.11
417.69	222.35
417.88	161.50
418.07	168.52
418.26	124.05
418.45	170.86
418.64	264.48
418.83	222.35
419.02	175.54
419.21	110.01
419.39	117.03
419.58	117.03
419.77	107.66
419.96	156.82
420.15	198.95
420.34	149.79
420.53	142.77
420.72	196.60
420.91	138.09
421.10	114.69
421.29	173.20
421.48	121.71
421.67	121.71
421.86	114.69
422.05	180.22
422.24	133.41
422.43	67.88
422.61	102.98
422.80	60.85
422.99	133.41
423.18	60.85
423.37	212.99
423.56	128.73
423.75	70.22
423.94	72.56
424.13	117.03
424.32	88.94
424.50	152.13
424.69	112.35
424.88	154.48
425.07	131.07
425.26	170.86
425.45	170.86
425.64	208.31
425.83	163.84
426.01	149.79
426.20	145.11
426.39	147.45
426.58	112.35
426.77	112.35
426.96	142.77
427.15	93.62
427.33	159.16
427.52	201.29
427.71	114.69
427.90	65.54
428.09	135.75
428.28	166.18
428.46	126.39
428.65	105.32
428.84	149.79
429.03	135.75
429.22	149.79
429.40	107.66
429.59	28.09
429.78	175.54
429.97	102.98
430.16	88.94
430.34	154.48
430.53	93.62
430.72	88.94
430.91	135.75
431.10	170.86
431.28	98.30
431.47	142.77
431.66	138.09
431.85	128.73
432.03	93.62
432.22	173.20
432.41	121.71
432.60	182.56
432.79	154.48
432.97	177.88
433.16	166.18
433.35	180.22
433.54	124.05
433.72	128.73
433.91	147.45
434.10	126.39
434.28	128.73
434.47	156.82
434.66	154.48
434.85	196.60
435.03	142.77
435.22	227.03
435.41	149.79
435.59	145.11
435.78	128.73
435.97	227.03
436.16	166.18
436.34	79.58
436.53	149.79
436.72	138.09
436.90	107.66
437.09	175.54
437.28	140.43
437.46	117.03
437.65	56.17
437.84	138.09
438.02	110.01
438.21	114.69
438.40	112.35
438.58	100.64
438.77	100.64
438.96	114.69
439.14	112.35
439.33	159.16
439.52	93.62
439.70	112.35
439.89	168.52
440.08	117.03
440.26	112.35
440.45	154.48
440.63	119.37
440.82	187.24
441.01	152.13
441.19	140.43
441.38	140.43
441.57	154.48
441.75	138.09
441.94	131.07
442.12	138.09
442.31	117.03
442.50	86.60
442.68	107.66
442.87	133.41
443.05	149.79
443.24	107.66
443.43	145.11
443.61	156.82
443.80	149.79
443.98	173.20
444.17	58.51
444.35	102.98
444.54	124.05
444.73	110.01
444.91	105.32
445.10	138.09
445.28	145.11
445.47	140.43
445.65	128.73
445.84	145.11
446.02	119.37
446.21	95.96
446.39	124.05
446.58	84.26
446.77	159.16
446.95	84.26
447.14	142.77
447.32	208.31
447.51	184.90
447.69	154.48
447.88	250.44
448.06	124.05
448.25	163.84
448.43	114.69
448.62	112.35
448.80	126.39
448.99	133.41
449.17	159.16
449.36	117.03
449.54	133.41
449.73	138.09
449.91	140.43
450.10	105.32
450.28	166.18
450.46	234.05
450.65	147.45
450.83	110.01
451.02	98.30
451.20	145.11
451.39	191.92
451.57	198.95
451.76	133.41
451.94	161.50
452.13	194.26
452.31	107.66
452.49	107.66
452.68	142.77
452.86	93.62
453.05	177.88
453.23	100.64
453.42	145.11
453.60	100.64
453.78	145.11
453.97	86.60
454.15	128.73
454.34	105.32
454.52	168.52
454.70	152.13
454.89	121.71
455.07	124.05
455.26	166.18
455.44	152.13
455.62	145.11
455.81	112.35
455.99	135.75
456.17	145.11
456.36	159.16
456.54	117.03
456.73	133.41
456.91	131.07
457.09	81.92
457.28	135.75
457.46	147.45
457.64	107.66
457.83	81.92
458.01	147.45
458.19	114.69
458.38	133.41
458.56	182.56
458.74	161.50
458.93	100.64
459.11	124.05
459.29	189.58
459.48	140.43
459.66	110.01
459.84	161.50
460.03	294.91
460.21	170.86
460.39	168.52
460.57	238.73
460.76	156.82
460.94	128.73
461.12	187.24
461.31	133.41
461.49	121.71
461.67	105.32
461.85	119.37
462.04	161.50
462.22	603.86
462.40	163.84
462.59	222.35
462.77	257.46
462.95	163.84
463.13	126.39
463.32	133.41
463.50	58.51
463.68	114.69
463.86	145.11
464.05	63.19
464.23	184.90
464.41	168.52
464.59	149.79
464.78	138.09
464.96	95.96
465.14	102.98
465.32	110.01
465.50	117.03
465.69	119.37
465.87	149.79
466.05	100.64
466.23	126.39
466.41	156.82
466.60	112.35
466.78	166.18
466.96	168.52
467.14	205.97
467.32	152.13
467.51	163.84
467.69	133.41
467.87	159.16
468.05	95.96
468.23	177.88
468.41	105.32
468.60	100.64
468.78	180.22
468.96	175.54
469.14	203.63
469.32	39.79
469.50	58.51
469.69	114.69
469.87	72.56
470.05	63.19
470.23	182.56
470.41	91.28
470.59	112.35
470.77	220.01
470.95	81.92
471.14	147.45
471.32	227.03
471.50	229.37
471.68	177.88
471.86	126.39
472.04	156.82
472.22	152.13
472.40	135.75
472.58	177.88
472.77	112.35
472.95	201.29
473.13	149.79
473.31	168.52
473.49	147.45
473.67	161.50
473.85	210.65
474.03	147.45
474.21	168.52
474.39	119.37
474.57	215.33
474.75	168.52
474.93	91.28
475.12	154.48
475.30	180.22
475.48	182.56
475.66	105.32
475.84	147.45
476.02	156.82
476.20	102.98
476.38	170.86
476.56	159.16
476.74	152.13
476.92	112.35
477.10	182.56
477.28	142.77
477.46	163.84
477.64	196.60
477.82	205.97
478.00	102.98
478.18	126.39
478.36	159.16
478.54	163.84
478.72	117.03
478.90	112.35
479.08	156.82
479.26	126.39
479.44	140.43
479.62	128.73
479.80	114.69
479.98	124.05
480.16	133.41
480.34	177.88
480.52	105.32
480.70	173.20
480.88	126.39
481.06	170.86
481.24	138.09
481.41	77.24
481.59	128.73
481.77	152.13
481.95	161.50
482.13	205.97
482.31	191.92
482.49	152.13
482.67	184.90
482.85	147.45
483.03	210.65
483.21	173.20
483.39	208.31
483.57	126.39
483.74	173.20
483.92	98.30
484.10	182.56
484.28	196.60
484.46	231.71
484.64	124.05
484.82	166.18
485.00	182.56
485.18	128.73
485.35	149.79
485.53	138.09
485.71	163.84
485.89	170.86
486.07	201.29
486.25	262.14
486.43	182.56
486.61	168.52
486.78	182.56
486.96	107.66
487.14	182.56
487.32	175.54
487.50	145.11
487.68	161.50
487.85	147.45
488.03	191.92
488.21	161.50
488.39	229.37
488.57	173.20
488.75	166.18
488.92	397.89
489.10	138.09
489.28	243.42
489.46	187.24
489.64	177.88
489.81	147.45
489.99	208.31
490.17	135.75
490.35	156.82
490.53	166.18
490.70	154.48
490.88	180.22
491.06	135.75
491.24	166.18
491.41	180.22
491.59	191.92
491.77	229.37
491.95	154.48
492.13	117.03
492.30	126.39
492.48	98.30
492.66	117.03
492.84	215.33
493.01	210.65
493.19	142.77
493.37	227.03
493.54	215.33
493.72	196.60
493.90	79.58
494.08	154.48
494.25	227.03
494.43	117.03
494.61	161.50
494.79	121.71
494.96	119.37
495.14	114.69
495.32	180.22
495.49	95.96
495.67	119.37
495.85	180.22
496.02	217.67
496.20	180.22
496.38	234.05
496.55	184.90
496.73	149.79
496.91	187.24
497.09	255.12
497.26	191.92
497.44	180.22
497.62	271.50
497.79	166.18
497.97	198.95
498.14	250.44
498.32	210.65
498.50	203.63
498.67	203.63
498.85	224.69
499.03	133.41
499.20	177.88
499.38	140.43
499.56	168.52
499.73	241.08
499.91	184.90
500.08	205.97
500.26	250.44
500.44	205.97
500.61	145.11
500.79	156.82
500.97	215.33
501.14	229.37
501.32	255.12
501.49	156.82
501.67	184.90
501.84	145.11
502.02	189.58
502.20	166.18
502.37	194.26
502.55	170.86
502.72	238.73
502.90	243.42
503.07	252.78
503.25	234.05
503.43	220.01
503.60	198.95
503.78	220.01
503.95	156.82
504.13	154.48
504.30	229.37
504.48	159.16
504.65	149.79
504.83	140.43
505.01	138.09
505.18	140.43
505.36	117.03
505.53	220.01
505.71	208.31
505.88	234.05
506.06	194.26
506.23	173.20
506.41	175.54
506.58	191.92
506.76	208.31
506.93	166.18
507.11	220.01
507.28	187.24
507.46	252.78
507.63	196.60
507.81	191.92
507.98	238.73
508.16	189.58
508.33	215.33
508.50	152.13
508.68	205.97
508.85	154.48
509.03	152.13
509.20	140.43
509.38	196.60
509.55	212.99
509.73	177.88
509.90	215.33
510.08	140.43
510.25	217.67
510.42	198.95
510.60	208.31
510.77	250.44
510.95	170.86
511.12	187.24
511.30	238.73
511.47	276.18
511.64	177.88
511.82	140.43
511.99	105.32
512.17	135.75
512.34	159.16
512.51	149.79
512.69	220.01
512.86	222.35
513.04	212.99
513.21	194.26
513.38	175.54
513.56	180.22
513.73	161.50
513.90	163.84
514.08	72.56
514.25	194.26
514.43	217.67
514.60	234.05
514.77	133.41
514.95	168.52
515.12	273.84
515.29	215.33
515.47	161.50
515.64	170.86
515.81	175.54
515.99	184.90
516.16	201.29
516.33	252.78
516.51	138.09
516.68	147.45
516.85	180.22
517.03	201.29
517.20	250.44
517.37	238.73
517.54	231.71
517.72	205.97
517.89	102.98
518.06	140.43
518.24	245.76
518.41	222.35
518.58	234.05
518.75	173.20
518.93	227.03
519.10	215.33
519.27	161.50
519.45	259.80
519.62	163.84
519.79	173.20
519.96	189.58
520.14	201.29
520.31	222.35
520.48	257.46
520.65	126.39
520.83	248.10
521.00	145.11
521.17	191.92
521.34	250.44
521.52	168.52
521.69	156.82
521.86	210.65
522.03	248.10
522.20	252.78
522.38	175.54
522.55	250.44
522.72	255.12
522.89	182.56
523.07	215.33
523.24	224.69
523.41	131.07
523.58	163.84
523.75	133.41
523.92	198.95
524.10	276.18
524.27	245.76
524.44	191.92
524.61	215.33
524.78	173.20
524.96	222.35
525.13	142.77
525.30	294.91
525.47	241.08
525.64	248.10
525.81	191.92
525.98	191.92
526.16	238.73
526.33	128.73
526.50	191.92
526.67	154.48
526.84	124.05
527.01	182.56
527.18	222.35
527.36	170.86
527.53	250.44
527.70	255.12
527.87	212.99
528.04	154.48
528.21	184.90
528.38	250.44
528.55	243.42
528.72	273.84
528.89	205.97
529.07	180.22
529.24	280.86
529.41	224.69
529.58	231.71
529.75	257.46
529.92	278.52
530.09	205.97
530.26	208.31
530.43	222.35
530.60	184.90
530.77	205.97
530.94	229.37
531.11	163.84
531.28	208.31
531.46	191.92
531.63	217.67
531.80	297.25
531.97	184.90
532.14	227.03
532.31	182.56
532.48	238.73
532.65	266.82
532.82	301.93
532.99	285.55
533.16	297.25
533.33	201.29
533.50	205.97
533.67	292.57
533.84	348.74
534.01	278.52
534.18	243.42
534.35	210.65
534.52	222.35
534.69	313.63
534.86	238.73
535.03	227.03
535.20	170.86
535.37	234.05
535.54	264.48
535.71	245.76
535.88	180.22
536.05	168.52
536.22	205.97
536.38	182.56
536.55	124.05
536.72	271.50
536.89	210.65
537.06	210.65
537.23	215.33
537.40	210.65
537.57	149.79
537.74	205.97
537.91	208.31
538.08	182.56
538.25	278.52
538.42	191.92
538.59	175.54
538.75	194.26
538.92	128.73
539.09	159.16
539.26	220.01
539.43	397.89
539.60	746.63
539.77	1214.74
539.94	1095.37
540.11	795.78
540.28	571.09
540.44	458.74
540.61	250.44
540.78	243.42
540.95	198.95
541.12	262.14
541.29	175.54
541.46	248.10
541.62	210.65
541.79	255.12
541.96	198.95
542.13	159.16
542.30	149.79
542.47	234.05
542.63	217.67
542.80	215.33
542.97	294.91
543.14	245.76
543.31	159.16
543.48	248.10
543.64	198.95
543.81	194.26
543.98	196.60
544.15	128.73
544.32	205.97
544.48	187.24
544.65	220.01
544.82	217.67
544.99	276.18
545.16	215.33
545.32	229.37
545.49	208.31
545.66	257.46
545.83	124.05
546.00	229.37
546.16	77.24
546.33	180.22
546.50	177.88
546.67	220.01
546.83	154.48
547.00	198.95
547.17	231.71
547.34	238.73
547.50	203.63
547.67	156.82
547.84	201.29
548.00	212.99
548.17	191.92
548.34	163.84
548.51	227.03
548.67	212.99
548.84	231.71
549.01	191.92
549.18	257.46
549.34	191.92
549.51	182.56
549.68	91.28
549.84	234.05
550.01	191.92
550.18	255.12
550.34	201.29
550.51	177.88
550.68	147.45
550.84	142.77
551.01	168.52
551.18	255.12
551.34	198.95
551.51	203.63
551.68	250.44
551.84	112.35
552.01	210.65
552.18	266.82
552.34	194.26
552.51	245.76
552.68	194.26
552.84	215.33
553.01	203.63
553.18	210.65
553.34	152.13
553.51	205.97
553.67	283.20
553.84	271.50
554.01	191.92
554.17	117.03
554.34	194.26
554.51	222.35
554.67	182.56
554.84	131.07
555.00	194.26
555.17	161.50
555.33	245.76
555.50	212.99
555.67	175.54
555.83	224.69
556.00	234.05
556.16	402.57
556.33	215.33
556.50	161.50
556.66	126.39
556.83	210.65
556.99	201.29
557.16	220.01
557.32	212.99
557.49	177.88
557.65	238.73
557.82	194.26
557.98	184.90
558.15	194.26
558.32	98.30
558.48	231.71
558.65	234.05
558.81	229.37
558.98	175.54
559.14	175.54
559.31	154.48
559.47	191.92
559.64	145.11
559.80	168.52
559.97	145.11
560.13	198.95
560.30	217.67
560.46	191.92
560.63	217.67
560.79	170.86
560.96	245.76
561.12	189.58
561.29	98.30
561.45	112.35
561.61	177.88
561.78	355.76
561.94	220.01
562.11	175.54
562.27	180.22
562.44	203.63
562.60	224.69
562.77	257.46
562.93	252.78
563.10	215.33
563.26	220.01
563.42	224.69
563.59	224.69
563.75	159.16
563.92	203.63
564.08	154.48
564.24	201.29
564.41	205.97
564.57	170.86
564.74	220.01
564.90	203.63
565.07	177.88
565.23	250.44
565.39	184.90
565.56	191.92
565.72	175.54
565.88	168.52
566.05	203.63
566.21	241.08
566.38	250.44
566.54	236.39
566.70	163.84
566.87	205.97
567.03	208.31
567.19	175.54
567.36	182.56
567.52	184.90
567.68	227.03
567.85	266.82
568.01	224.69
568.17	126.39
568.34	191.92
568.50	220.01
568.66	191.92
568.83	227.03
568.99	238.73
569.15	266.82
569.32	166.18
569.48	220.01
569.64	175.54
569.81	166.18
569.97	194.26
570.13	182.56
570.30	154.48
570.46	194.26
570.62	203.63
570.78	159.16
570.95	126.39
571.11	297.25
571.27	306.61
571.43	215.33
571.60	212.99
571.76	159.16
571.92	227.03
572.09	203.63
572.25	257.46
572.41	217.67
572.57	131.07
572.74	271.50
572.90	212.99
573.06	208.31
573.22	161.50
573.38	168.52
573.55	175.54
573.71	194.26
573.87	173.20
574.03	168.52
574.20	154.48
574.36	224.69
574.52	248.10
574.68	238.73
574.84	222.35
575.01	259.80
575.17	203.63
575.33	224.69
575.49	215.33
575.65	215.33
575.82	262.14
575.98	435.34
576.14	526.62
576.30	554.71
576.46	425.98
576.62	355.76
576.79	290.23
576.95	222.35
577.11	189.58
577.27	187.24
577.43	198.95
577.59	292.57
577.75	220.01
577.92	234.05
578.08	208.31
578.24	271.50
578.40	287.89
578.56	262.14
578.72	264.48
578.88	201.29
579.04	250.44
579.21	283.20
579.37	217.67
579.53	205.97
579.69	355.76
579.85	222.35
580.01	325.33
580.17	304.27
580.33	341.72
580.49	337.04
580.65	287.89
580.82	306.61
580.98	236.39
581.14	306.61
581.30	313.63
581.46	362.78
581.62	414.27
581.78	512.58
581.94	472.79
582.10	351.08
582.26	320.65
582.42	308.95
582.58	383.85
582.74	287.89
582.90	381.51
583.06	355.76
583.22	351.08
583.38	367.46
583.54	390.87
583.70	468.11
583.86	634.29
584.02	641.31
584.18	620.24
584.34	954.94
584.50	2272.66
584.66	16879.94
584.82	44318.04
584.98	57862.72
585.14	54319.15
585.30	36175.32
585.46	21184.19
585.62	13013.38
585.78	6228.17
585.94	2396.71
586.10	1111.75
586.26	837.91
586.42	608.54
586.58	535.98
586.74	418.96
586.90	517.26
587.06	547.69
587.22	498.53
587.38	472.79
587.54	877.70
587.70	2541.82
587.86	4329.99
588.02	4828.53
588.18	3382.07
588.34	2134.57
588.49	1357.51
588.65	903.45
588.81	428.32
588.97	252.78
589.13	362.78
589.29	320.65
589.45	243.42
589.61	280.86
589.77	400.23
589.93	280.86
590.08	353.42
590.24	292.57
590.40	348.74
590.56	287.89
590.72	257.46
590.88	313.63
591.04	241.08
591.20	248.10
591.35	252.78
591.51	252.78
591.67	170.86
591.83	182.56
591.99	205.97
592.15	252.78
592.31	166.18
592.46	194.26
592.62	278.52
592.78	294.91
592.94	245.76
593.10	133.41
593.26	346.40
593.41	250.44
593.57	297.25
593.73	430.66
593.89	2022.22
594.05	5167.90
594.20	8170.81
594.36	7669.94
594.52	5013.43
594.68	3199.51
594.84	2167.34
594.99	1217.08
595.15	545.34
595.31	341.72
595.47	374.49
595.62	205.97
595.78	208.31
595.94	241.08
596.10	304.27
596.25	311.29
596.41	231.71
596.57	264.48
596.73	210.65
596.88	423.64
597.04	1050.90
597.20	1717.95
597.36	2022.22
597.51	1647.74
597.67	1027.50
597.83	744.29
597.99	496.19
598.14	325.33
598.30	266.82
598.46	222.35
598.61	264.48
598.77	231.71
598.93	252.78
599.09	196.60
599.24	222.35
599.40	215.33
599.56	180.22
599.71	203.63
599.87	203.63
600.03	280.86
600.18	203.63
600.34	304.27
600.50	273.84
600.65	168.52
600.81	198.95
600.97	198.95
601.12	156.82
601.28	245.76
601.44	283.20
601.59	203.63
601.75	196.60
601.91	175.54
602.06	273.84
602.22	339.38
602.37	503.22
602.53	1308.36
602.69	1998.82
602.84	2172.02
603.00	1530.71
603.16	1139.84
603.31	758.33
603.47	496.19
603.62	374.49
603.78	301.93
603.94	234.05
604.09	222.35
604.25	236.39
604.40	255.12
604.56	175.54
604.71	175.54
604.87	128.73
605.03	212.99
605.18	252.78
605.34	252.78
605.49	266.82
605.65	173.20
605.80	243.42
605.96	276.18
606.12	304.27
606.27	250.44
606.43	205.97
606.58	280.86
606.74	606.20
606.89	2441.18
607.05	4947.89
607.20	6853.09
607.36	5783.46
607.51	3934.44
607.67	2548.84
607.82	1675.82
607.98	936.21
608.13	500.87
608.29	393.21
608.44	381.51
608.60	374.49
608.75	430.66
608.91	926.85
609.06	3988.27
609.22	8557.00
609.37	11714.38
609.53	10181.33
609.68	6904.58
609.84	4421.27
609.99	2911.63
610.15	1605.61
610.30	716.20
610.46	379.17
610.61	290.23
610.76	369.80
610.92	241.08
611.07	287.89
611.23	369.80
611.38	271.50
611.54	161.50
611.69	266.82
611.84	308.95
612.00	255.12
612.15	220.01
612.31	362.78
612.46	484.49
612.62	559.39
612.77	573.43
612.92	535.98
613.08	437.68
613.23	440.02
613.39	428.32
613.54	648.33
613.69	3569.32
613.85	10504.32
614.00	17312.94
614.15	19255.59
614.31	13579.79
614.46	8589.77
614.62	5692.18
614.77	3630.17
614.92	1514.33
615.08	753.65
615.23	484.49
615.38	393.21
615.54	334.70
615.69	732.59
615.84	2097.12
616.00	3749.54
616.15	5013.43
616.30	4088.92
616.46	2717.36
616.61	1806.89
616.76	1226.44
616.92	753.65
617.07	416.62
617.22	327.68
617.37	210.65
617.53	287.89
617.68	250.44
617.83	215.33
617.99	311.29
618.14	287.89
618.29	264.48
618.45	243.42
618.60	255.12
618.75	170.86
618.90	220.01
619.06	187.24
619.21	220.01
619.36	184.90
619.51	203.63
619.67	182.56
619.82	161.50
619.97	187.24
620.12	220.01
620.28	184.90
620.43	273.84
620.58	262.14
620.73	224.69
620.89	285.55
621.04	341.72
621.19	1228.78
621.34	2143.93
621.49	2801.62
621.65	2595.65
621.80	1909.88
621.95	1263.89
622.10	889.40
622.25	547.69
622.41	269.16
622.56	191.92
622.71	203.63
622.86	177.88
623.01	252.78
623.16	212.99
623.32	175.54
623.47	201.29
623.62	196.60
623.77	163.84
623.92	138.09
624.07	112.35
624.23	161.50
624.38	201.29
624.53	189.58
624.68	245.76
624.83	234.05
624.98	304.27
625.13	243.42
625.29	248.10
625.44	266.82
625.59	236.39
625.74	292.57
625.89	404.91
626.04	1788.17
626.19	5095.35
626.34	8531.25
626.49	9827.91
626.65	7148.00
626.80	4816.82
626.95	3246.32
627.10	2038.61
627.25	1078.99
627.40	524.28
627.55	322.99
627.70	234.05
627.85	205.97
628.00	182.56
628.15	182.56
628.30	231.71
628.45	208.31
628.60	191.92
628.76	189.58
628.91	245.76
629.06	215.33
629.21	191.92
629.36	243.42
629.51	222.35
629.66	203.63
629.81	400.23
629.96	976.00
630.11	1942.64
630.26	2574.59
630.41	2228.19
630.56	1671.14
630.71	1128.14
630.86	791.10
631.01	463.43
631.16	327.68
631.31	264.48
631.46	241.08
631.61	177.88
631.76	156.82
631.91	198.95
632.06	208.31
632.21	308.95
632.36	208.31
632.51	234.05
632.66	301.93
632.81	901.11
632.96	2890.56
633.10	5137.48
633.25	6609.67
633.40	5570.48
633.55	3803.37
633.70	2644.81
633.85	1755.40
634.00	903.45
634.15	458.74
634.30	348.74
634.45	297.25
634.60	238.73
634.75	224.69
634.90	234.05
635.05	250.44
635.19	184.90
635.34	212.99
635.49	180.22
635.64	245.76
635.79	187.24
635.94	182.56
636.09	229.37
636.24	287.89
636.39	245.76
636.53	241.08
636.68	184.90
636.83	252.78
636.98	285.55
637.13	269.16
637.28	271.50
637.43	355.76
637.57	491.51
637.72	2420.11
637.87	6782.87
638.02	10806.25
638.17	12606.13
638.32	9521.30
638.46	6279.66
638.61	4159.13
638.76	2640.12
638.91	1231.12
639.06	709.18
639.20	557.05
639.35	477.47
639.50	709.18
639.65	3613.79
639.80	10469.22
639.94	17144.42
640.09	19571.56
640.24	14183.65
640.39	9563.43
640.54	6377.96
640.68	3953.16
640.83	1907.54
640.98	844.93
641.13	514.92
641.27	348.74
641.42	301.93
641.57	290.23
641.72	306.61
641.86	203.63
642.01	215.33
642.16	205.97
642.31	170.86
642.45	287.89
642.60	217.67
642.75	182.56
642.90	320.65
643.04	191.92
643.19	201.29
643.34	147.45
643.48	184.90
643.63	180.22
643.78	163.84
643.93	248.10
644.07	196.60
644.22	191.92
644.37	182.56
644.51	187.24
644.66	201.29
644.81	222.35
644.95	191.92
645.10	138.09
645.25	175.54
645.39	252.78
645.54	133.41
645.69	201.29
645.83	128.73
645.98	301.93
646.13	217.67
646.27	175.54
646.42	217.67
646.57	180.22
646.71	173.20
646.86	126.39
647.00	196.60
647.15	180.22
647.30	159.16
647.44	210.65
647.59	203.63
647.74	222.35
647.88	168.52
648.03	149.79
648.17	131.07
648.32	163.84
648.47	191.92
648.61	156.82
648.76	222.35
648.90	191.92
649.05	196.60
649.20	173.20
649.34	147.45
649.49	170.86
649.63	215.33
649.78	163.84
649.92	470.45
650.07	1371.55
650.21	4505.53
650.36	8032.72
650.51	9888.76
650.65	8168.47
650.80	5799.85
650.94	3817.41
651.09	2490.33
651.23	1245.16
651.38	601.52
651.52	374.49
651.67	255.12
651.81	299.59
651.96	208.31
652.10	285.55
652.25	259.80
652.39	264.48
652.54	208.31
652.68	458.74
652.83	1460.49
652.97	2642.46
653.12	3557.61
653.26	3105.89
653.41	2258.62
653.55	1586.88
653.70	947.92
653.84	641.31
653.99	348.74
654.13	224.69
654.27	166.18
654.42	177.88
654.56	236.39
654.71	152.13
654.85	131.07
655.00	114.69
655.14	163.84
655.29	182.56
655.43	145.11
655.57	142.77
655.72	124.05
655.86	161.50
656.01	112.35
656.15	166.18
656.30	238.73
656.44	107.66
656.58	124.05
656.73	159.16
656.87	161.50
657.01	138.09
657.16	243.42
657.30	215.33
657.45	175.54
657.59	205.97
657.73	95.96
657.88	222.35
658.02	203.63
658.16	196.60
658.31	224.69
658.45	184.90
658.60	180.22
658.74	182.56
658.88	208.31
659.03	117.03
659.17	262.14
659.31	634.29
659.46	2085.42
659.60	3700.39
659.74	4915.12
659.89	4348.72
660.03	3159.72
660.17	2200.10
660.32	1401.98
660.46	844.93
660.60	475.13
660.74	311.29
660.89	238.73
661.03	184.90
661.17	175.54
661.32	210.65
661.46	184.90
661.60	93.62
661.74	173.20
661.89	191.92
662.03	212.99
662.17	147.45
662.31	245.76
662.46	161.50
662.60	152.13
662.74	91.28
662.88	152.13
663.03	119.37
663.17	156.82
663.31	166.18
663.45	161.50
663.60	173.20
663.74	98.30
663.88	163.84
664.02	131.07
664.17	121.71
664.31	140.43
664.45	238.73
664.59	175.54
664.73	142.77
664.88	234.05
665.02	196.60
665.16	184.90
665.30	201.29
665.44	140.43
665.59	161.50
665.73	163.84
665.87	196.60
666.01	152.13
666.15	180.22
666.29	119.37
666.44	168.52
666.58	93.62
666.72	140.43
666.86	140.43
667.00	234.05
667.14	393.21
667.28	1350.49
667.43	3686.34
667.57	6581.59
667.71	8627.21
667.85	7386.73
667.99	5399.62
668.13	3318.88
668.27	1994.14
668.41	1100.05
668.56	690.46
668.70	533.64
668.84	285.55
668.98	245.76
669.12	93.62
669.26	131.07
669.40	236.39
669.54	198.95
669.68	180.22
669.82	88.94
669.96	187.24
670.10	168.52
670.25	149.79
670.39	243.42
670.53	191.92
670.67	161.50
670.81	196.60
670.95	205.97
671.09	369.80
671.23	1451.13
671.37	3159.72
671.51	4894.06
671.65	5509.62
671.79	4166.15
671.93	2937.37
672.07	1703.91
672.21	1020.47
672.35	629.60
672.49	423.64
672.63	344.06
672.77	161.50
672.91	250.44
673.05	220.01
673.19	208.31
673.33	131.07
673.47	201.29
673.61	140.43
673.75	124.05
673.89	180.22
674.03	210.65
674.17	131.07
674.31	191.92
674.45	128.73
674.59	182.56
674.73	196.60
674.87	154.48
675.01	245.76
675.15	182.56
675.29	252.78
675.43	229.37
675.56	236.39
675.70	248.10
675.84	175.54
675.98	163.84
676.12	163.84
676.26	166.18
676.40	91.28
676.54	70.22
676.68	152.13
676.82	147.45
676.96	152.13
677.10	175.54
677.23	163.84
677.37	117.03
677.51	198.95
677.65	149.79
677.79	112.35
677.93	126.39
678.07	154.48
678.21	133.41
678.34	152.13
678.48	170.86
678.62	154.48
678.76	72.56
678.90	147.45
679.04	145.11
679.18	145.11
679.31	140.43
679.45	126.39
679.59	210.65
679.73	105.32
679.87	102.98
680.00	182.56
680.14	133.41
680.28	147.45
680.42	166.18
680.56	133.41
680.70	81.92
680.83	180.22
680.97	107.66
681.11	112.35
681.25	145.11
681.39	133.41
681.52	128.73
681.66	63.19
681.80	173.20
681.94	77.24
682.07	95.96
682.21	149.79
682.35	98.30
682.49	159.16
682.62	154.48
682.76	149.79
682.90	149.79
683.04	114.69
683.17	168.52
683.31	110.01
683.45	91.28
683.59	156.82
683.72	180.22
683.86	124.05
684.00	114.69
684.13	159.16
684.27	98.30
684.41	156.82
684.55	100.64
684.68	105.32
684.82	147.45
684.96	88.94
685.09	124.05
685.23	91.28
685.37	110.01
685.50	114.69
685.64	110.01
685.78	88.94
685.91	168.52
686.05	117.03
686.19	180.22
686.32	161.50
686.46	145.11
686.60	105.32
686.73	208.31
686.87	194.26
687.01	128.73
687.14	88.94
687.28	145.11
687.42	177.88
687.55	100.64
687.69	124.05
687.82	112.35
687.96	105.32
688.10	149.79
688.23	14.04
688.37	147.45
688.50	140.43
688.64	128.73
688.78	117.03
688.91	56.17
689.05	180.22
689.18	112.35
689.32	110.01
689.46	133.41
689.59	175.54
689.73	142.77
689.86	163.84
690.00	173.20
690.13	102.98
690.27	105.32
690.41	28.09
690.54	159.16
690.68	98.30
690.81	128.73
690.95	79.58
691.08	173.20
691.22	107.66
691.35	72.56
691.49	105.32
691.62	112.35
691.76	156.82
691.89	133.41
692.03	46.81
692.16	170.86
692.30	187.24
692.43	566.41
692.57	1579.86
692.70	2857.79
692.84	3761.24
692.97	3440.59
693.11	2511.39
693.24	1884.13
693.38	1287.29
693.51	781.74
693.65	613.22
693.78	386.19
693.92	283.20
694.05	212.99
694.19	140.43
694.32	126.39
694.45	159.16
694.59	152.13
694.72	128.73
694.86	131.07
694.99	147.45
695.13	166.18
695.26	58.51
695.39	110.01
695.53	234.05
695.66	159.16
695.80	234.05
695.93	49.15
696.07	161.50
696.20	236.39
696.33	294.91
696.47	301.93
696.60	308.95
696.73	306.61
696.87	217.67
697.00	283.20
697.14	173.20
697.27	135.75
697.40	170.86
697.54	142.77
697.67	154.48
697.80	126.39
697.94	84.26
698.07	121.71
698.21	60.85
698.34	112.35
698.47	98.30
698.61	72.56
698.74	112.35
698.87	56.17
699.01	135.75
699.14	177.88
699.27	184.90
699.40	273.84
699.54	163.84
699.67	133.41
699.80	119.37
699.94	81.92
700.07	79.58
700.20	37.45
700.34	145.11
700.47	147.45
700.60	121.71
700.73	128.73
700.87	142.77
701.00	138.09
701.13	187.24
701.26	81.92
701.40	79.58
701.53	170.86
701.66	133.41
701.79	180.22
701.93	117.03
702.06	203.63
702.19	259.80
702.32	327.68
702.46	304.27
702.59	386.19
702.72	683.44
702.85	2050.31
702.99	4290.20
703.12	6417.75
703.25	7246.30
703.38	6141.57
703.51	4945.55
703.65	3889.97
703.78	2771.19
703.91	1830.30
704.04	1172.61
704.17	725.57
704.31	489.17
704.44	287.89
704.57	175.54
704.70	149.79
704.83	163.84
704.96	191.92
705.10	102.98
705.23	159.16
>>>>>End Processed Spectral Data<<<<<
