SpectraSuite Data File
++++++++++++++++++++++++++++++++++++
Date: Fri Oct 04 11:47:17 GMT-05:00 2013
User: price-jones
Dark Spectrum Present: No
Reference Spectrum Present: No
Number of Sampled Component Spectra: 1
Spectrometers: USB2+H05261
Integration Time (usec): 100000 (USB2+H05261)
Spectra Averaged: 1 (USB2+H05261)
Boxcar Smoothing: 0 (USB2+H05261)
Correct for Electrical Dark: No (USB2+H05261)
Strobe/Lamp Enabled: No (USB2+H05261)
Correct for Detector Non-linearity: No (USB2+H05261)
Correct for Stray Light: No (USB2+H05261)
Number of Pixels in Processed Spectrum: 2048
>>>>>Begin Processed Spectral Data<<<<<
365.73	0.00
365.92	0.00
366.12	0.00
366.32	0.00
366.52	0.00
366.72	0.00
366.91	0.00
367.11	0.00
367.31	0.00
367.51	0.00
367.70	0.00
367.90	0.00
368.10	0.00
368.30	0.00
368.49	0.00
368.69	0.00
368.89	0.00
369.09	0.00
369.28	0.00
369.48	0.00
369.68	11.70
369.87	0.00
370.07	0.00
370.27	28.09
370.47	23.41
370.66	0.00
370.86	86.60
371.06	53.83
371.25	124.05
371.45	95.96
371.65	14.04
371.84	46.81
372.04	21.06
372.24	35.11
372.44	37.45
372.63	42.13
372.83	18.72
373.03	147.45
373.22	98.30
373.42	74.90
373.62	126.39
373.81	133.41
374.01	100.64
374.21	124.05
374.40	56.17
374.60	147.45
374.79	91.28
374.99	35.11
375.19	88.94
375.38	86.60
375.58	124.05
375.78	84.26
375.97	121.71
376.17	126.39
376.37	0.00
376.56	114.69
376.76	100.64
376.95	147.45
377.15	81.92
377.35	114.69
377.54	30.43
377.74	128.73
377.93	177.88
378.13	91.28
378.33	98.30
378.52	63.19
378.72	53.83
378.91	58.51
379.11	77.24
379.31	126.39
379.50	63.19
379.70	166.18
379.89	161.50
380.09	84.26
380.28	63.19
380.48	81.92
380.68	79.58
380.87	84.26
381.07	46.81
381.26	70.22
381.46	91.28
381.65	117.03
381.85	63.19
382.04	152.13
382.24	56.17
382.43	138.09
382.63	44.47
382.83	51.49
383.02	91.28
383.22	42.13
383.41	63.19
383.61	84.26
383.80	53.83
384.00	102.98
384.19	86.60
384.39	126.39
384.58	88.94
384.78	102.98
384.97	133.41
385.17	124.05
385.36	86.60
385.56	84.26
385.75	37.45
385.95	102.98
386.14	46.81
386.34	84.26
386.53	152.13
386.72	84.26
386.92	107.66
387.11	95.96
387.31	100.64
387.50	128.73
387.70	93.62
387.89	93.62
388.09	39.79
388.28	46.81
388.48	140.43
388.67	149.79
388.86	81.92
389.06	102.98
389.25	86.60
389.45	21.06
389.64	88.94
389.84	95.96
390.03	91.28
390.22	102.98
390.42	4.68
390.61	107.66
390.81	53.83
391.00	138.09
391.19	102.98
391.39	170.86
391.58	100.64
391.78	88.94
391.97	102.98
392.16	102.98
392.36	138.09
392.55	175.54
392.75	93.62
392.94	79.58
393.13	49.15
393.33	4.68
393.52	98.30
393.71	107.66
393.91	126.39
394.10	37.45
394.29	44.47
394.49	119.37
394.68	128.73
394.88	138.09
395.07	135.75
395.26	67.88
395.46	133.41
395.65	147.45
395.84	159.16
396.04	135.75
396.23	114.69
396.42	74.90
396.62	107.66
396.81	65.54
397.00	102.98
397.19	51.49
397.39	112.35
397.58	163.84
397.77	84.26
397.97	86.60
398.16	39.79
398.35	168.52
398.55	60.85
398.74	79.58
398.93	142.77
399.12	177.88
399.32	159.16
399.51	81.92
399.70	23.41
399.90	72.56
400.09	131.07
400.28	58.51
400.47	72.56
400.67	42.13
400.86	7.02
401.05	79.58
401.24	93.62
401.44	9.36
401.63	131.07
401.82	145.11
402.01	117.03
402.21	88.94
402.40	112.35
402.59	91.28
402.78	128.73
402.97	112.35
403.17	175.54
403.36	42.13
403.55	119.37
403.74	114.69
403.93	117.03
404.13	180.22
404.32	177.88
404.51	107.66
404.70	119.37
404.89	112.35
405.09	147.45
405.28	110.01
405.47	156.82
405.66	168.52
405.85	135.75
406.05	81.92
406.24	112.35
406.43	173.20
406.62	152.13
406.81	114.69
407.00	121.71
407.20	140.43
407.39	98.30
407.58	95.96
407.77	72.56
407.96	93.62
408.15	147.45
408.34	156.82
408.54	79.58
408.73	128.73
408.92	95.96
409.11	117.03
409.30	198.95
409.49	95.96
409.68	70.22
409.87	74.90
410.07	95.96
410.26	95.96
410.45	175.54
410.64	58.51
410.83	212.99
411.02	208.31
411.21	152.13
411.40	93.62
411.59	86.60
411.78	102.98
411.98	72.56
412.17	91.28
412.36	198.95
412.55	117.03
412.74	72.56
412.93	126.39
413.12	81.92
413.31	126.39
413.50	91.28
413.69	74.90
413.88	84.26
414.07	102.98
414.26	100.64
414.45	142.77
414.64	67.88
414.83	65.54
415.02	147.45
415.22	112.35
415.41	168.52
415.60	152.13
415.79	126.39
415.98	49.15
416.17	147.45
416.36	138.09
416.55	126.39
416.74	93.62
416.93	147.45
417.12	117.03
417.31	138.09
417.50	128.73
417.69	243.42
417.88	142.77
418.07	135.75
418.26	147.45
418.45	154.48
418.64	259.80
418.83	210.65
419.02	194.26
419.21	191.92
419.39	170.86
419.58	236.39
419.77	168.52
419.96	161.50
420.15	180.22
420.34	142.77
420.53	88.94
420.72	156.82
420.91	49.15
421.10	142.77
421.29	140.43
421.48	119.37
421.67	196.60
421.86	135.75
422.05	119.37
422.24	105.32
422.43	102.98
422.61	154.48
422.80	112.35
422.99	65.54
423.18	95.96
423.37	198.95
423.56	159.16
423.75	149.79
423.94	112.35
424.13	156.82
424.32	51.49
424.50	98.30
424.69	112.35
424.88	182.56
425.07	128.73
425.26	198.95
425.45	196.60
425.64	180.22
425.83	212.99
426.01	229.37
426.20	112.35
426.39	93.62
426.58	93.62
426.77	131.07
426.96	229.37
427.15	112.35
427.33	133.41
427.52	60.85
427.71	105.32
427.90	93.62
428.09	126.39
428.28	42.13
428.46	133.41
428.65	168.52
428.84	124.05
429.03	133.41
429.22	161.50
429.40	53.83
429.59	86.60
429.78	203.63
429.97	121.71
430.16	147.45
430.34	133.41
430.53	203.63
430.72	74.90
430.91	133.41
431.10	105.32
431.28	124.05
431.47	95.96
431.66	161.50
431.85	105.32
432.03	189.58
432.22	203.63
432.41	95.96
432.60	126.39
432.79	161.50
432.97	138.09
433.16	231.71
433.35	220.01
433.54	135.75
433.72	189.58
433.91	163.84
434.10	180.22
434.28	145.11
434.47	135.75
434.66	149.79
434.85	67.88
435.03	198.95
435.22	177.88
435.41	177.88
435.59	161.50
435.78	147.45
435.97	93.62
436.16	154.48
436.34	105.32
436.53	119.37
436.72	189.58
436.90	173.20
437.09	189.58
437.28	112.35
437.46	77.24
437.65	93.62
437.84	105.32
438.02	140.43
438.21	84.26
438.40	124.05
438.58	117.03
438.77	133.41
438.96	110.01
439.14	46.81
439.33	84.26
439.52	81.92
439.70	173.20
439.89	138.09
440.08	42.13
440.26	112.35
440.45	142.77
440.63	126.39
440.82	39.79
441.01	93.62
441.19	128.73
441.38	98.30
441.57	51.49
441.75	154.48
441.94	156.82
442.12	128.73
442.31	112.35
442.50	138.09
442.68	156.82
442.87	133.41
443.05	84.26
443.24	133.41
443.43	117.03
443.61	182.56
443.80	138.09
443.98	37.45
444.17	128.73
444.35	107.66
444.54	93.62
444.73	170.86
444.91	252.78
445.10	152.13
445.28	105.32
445.47	154.48
445.65	119.37
445.84	173.20
446.02	140.43
446.21	128.73
446.39	79.58
446.58	121.71
446.77	180.22
446.95	163.84
447.14	124.05
447.32	119.37
447.51	84.26
447.69	203.63
447.88	110.01
448.06	231.71
448.25	161.50
448.43	72.56
448.62	100.64
448.80	201.29
448.99	191.92
449.17	93.62
449.36	152.13
449.54	159.16
449.73	124.05
449.91	205.97
450.10	117.03
450.28	161.50
450.46	156.82
450.65	124.05
450.83	208.31
451.02	131.07
451.20	121.71
451.39	149.79
451.57	138.09
451.76	170.86
451.94	102.98
452.13	142.77
452.31	168.52
452.49	182.56
452.68	175.54
452.86	112.35
453.05	126.39
453.23	180.22
453.42	79.58
453.60	60.85
453.78	84.26
453.97	91.28
454.15	154.48
454.34	133.41
454.52	102.98
454.70	198.95
454.89	166.18
455.07	65.54
455.26	168.52
455.44	177.88
455.62	135.75
455.81	191.92
455.99	159.16
456.17	168.52
456.36	126.39
456.54	154.48
456.73	201.29
456.91	131.07
457.09	170.86
457.28	203.63
457.46	177.88
457.64	128.73
457.83	135.75
458.01	170.86
458.19	105.32
458.38	163.84
458.56	152.13
458.74	117.03
458.93	177.88
459.11	56.17
459.29	107.66
459.48	128.73
459.66	161.50
459.84	142.77
460.03	271.50
460.21	119.37
460.39	170.86
460.57	217.67
460.76	161.50
460.94	114.69
461.12	145.11
461.31	168.52
461.49	180.22
461.67	114.69
461.85	198.95
462.04	180.22
462.22	568.75
462.40	119.37
462.59	220.01
462.77	191.92
462.95	110.01
463.13	133.41
463.32	114.69
463.50	201.29
463.68	142.77
463.86	93.62
464.05	163.84
464.23	154.48
464.41	170.86
464.59	170.86
464.78	138.09
464.96	154.48
465.14	154.48
465.32	210.65
465.50	184.90
465.69	198.95
465.87	189.58
466.05	140.43
466.23	121.71
466.41	145.11
466.60	51.49
466.78	159.16
466.96	229.37
467.14	177.88
467.32	166.18
467.51	159.16
467.69	159.16
467.87	140.43
468.05	145.11
468.23	210.65
468.41	128.73
468.60	105.32
468.78	138.09
468.96	222.35
469.14	152.13
469.32	107.66
469.50	119.37
469.69	138.09
469.87	114.69
470.05	156.82
470.23	168.52
470.41	77.24
470.59	86.60
470.77	124.05
470.95	124.05
471.14	215.33
471.32	142.77
471.50	205.97
471.68	191.92
471.86	105.32
472.04	98.30
472.22	154.48
472.40	131.07
472.58	166.18
472.77	149.79
472.95	77.24
473.13	194.26
473.31	189.58
473.49	163.84
473.67	128.73
473.85	187.24
474.03	149.79
474.21	121.71
474.39	119.37
474.57	81.92
474.75	95.96
474.93	110.01
475.12	168.52
475.30	138.09
475.48	98.30
475.66	152.13
475.84	135.75
476.02	112.35
476.20	191.92
476.38	98.30
476.56	248.10
476.74	177.88
476.92	154.48
477.10	175.54
477.28	121.71
477.46	112.35
477.64	189.58
477.82	161.50
478.00	110.01
478.18	110.01
478.36	121.71
478.54	201.29
478.72	173.20
478.90	121.71
479.08	149.79
479.26	128.73
479.44	112.35
479.62	131.07
479.80	93.62
479.98	170.86
480.16	135.75
480.34	227.03
480.52	107.66
480.70	175.54
480.88	135.75
481.06	147.45
481.24	119.37
481.41	159.16
481.59	175.54
481.77	149.79
481.95	100.64
482.13	114.69
482.31	180.22
482.49	163.84
482.67	145.11
482.85	156.82
483.03	191.92
483.21	234.05
483.39	117.03
483.57	198.95
483.74	191.92
483.92	156.82
484.10	140.43
484.28	191.92
484.46	182.56
484.64	114.69
484.82	166.18
485.00	156.82
485.18	231.71
485.35	152.13
485.53	49.15
485.71	119.37
485.89	126.39
486.07	135.75
486.25	224.69
486.43	215.33
486.61	102.98
486.78	119.37
486.96	191.92
487.14	189.58
487.32	152.13
487.50	117.03
487.68	248.10
487.85	126.39
488.03	117.03
488.21	149.79
488.39	224.69
488.57	259.80
488.75	182.56
488.92	425.98
489.10	180.22
489.28	243.42
489.46	145.11
489.64	173.20
489.81	210.65
489.99	175.54
490.17	215.33
490.35	227.03
490.53	177.88
490.70	117.03
490.88	175.54
491.06	142.77
491.24	229.37
491.41	252.78
491.59	205.97
491.77	140.43
491.95	210.65
492.13	196.60
492.30	135.75
492.48	156.82
492.66	173.20
492.84	138.09
493.01	159.16
493.19	105.32
493.37	227.03
493.54	217.67
493.72	170.86
493.90	140.43
494.08	149.79
494.25	222.35
494.43	149.79
494.61	222.35
494.79	149.79
494.96	138.09
495.14	245.76
495.32	156.82
495.49	189.58
495.67	210.65
495.85	88.94
496.02	170.86
496.20	159.16
496.38	142.77
496.55	215.33
496.73	283.20
496.91	107.66
497.09	241.08
497.26	212.99
497.44	140.43
497.62	212.99
497.79	112.35
497.97	196.60
498.14	217.67
498.32	154.48
498.50	142.77
498.67	180.22
498.85	210.65
499.03	184.90
499.20	147.45
499.38	114.69
499.56	161.50
499.73	252.78
499.91	196.60
500.08	273.84
500.26	138.09
500.44	133.41
500.61	170.86
500.79	184.90
500.97	159.16
501.14	133.41
501.32	126.39
501.49	215.33
501.67	182.56
501.84	196.60
502.02	149.79
502.20	248.10
502.37	234.05
502.55	163.84
502.72	138.09
502.90	133.41
503.07	234.05
503.25	166.18
503.43	212.99
503.60	301.93
503.78	114.69
503.95	180.22
504.13	212.99
504.30	177.88
504.48	287.89
504.65	280.86
504.83	250.44
505.01	187.24
505.18	212.99
505.36	156.82
505.53	182.56
505.71	184.90
505.88	248.10
506.06	154.48
506.23	175.54
506.41	124.05
506.58	220.01
506.76	236.39
506.93	159.16
507.11	212.99
507.28	175.54
507.46	147.45
507.63	322.99
507.81	119.37
507.98	243.42
508.16	196.60
508.33	112.35
508.50	255.12
508.68	196.60
508.85	236.39
509.03	203.63
509.20	145.11
509.38	138.09
509.55	250.44
509.73	173.20
509.90	166.18
510.08	180.22
510.25	269.16
510.42	238.73
510.60	222.35
510.77	212.99
510.95	231.71
511.12	224.69
511.30	177.88
511.47	287.89
511.64	255.12
511.82	262.14
511.99	194.26
512.17	229.37
512.34	175.54
512.51	175.54
512.69	166.18
512.86	238.73
513.04	187.24
513.21	243.42
513.38	187.24
513.56	217.67
513.73	224.69
513.90	112.35
514.08	208.31
514.25	255.12
514.43	222.35
514.60	138.09
514.77	184.90
514.95	241.08
515.12	217.67
515.29	220.01
515.47	189.58
515.64	145.11
515.81	163.84
515.99	180.22
516.16	180.22
516.33	245.76
516.51	184.90
516.68	156.82
516.85	135.75
517.03	184.90
517.20	297.25
517.37	201.29
517.54	208.31
517.72	140.43
517.89	93.62
518.06	159.16
518.24	278.52
518.41	241.08
518.58	285.55
518.75	220.01
518.93	252.78
519.10	168.52
519.27	177.88
519.45	161.50
519.62	180.22
519.79	175.54
519.96	257.46
520.14	198.95
520.31	224.69
520.48	191.92
520.65	208.31
520.83	283.20
521.00	313.63
521.17	229.37
521.34	149.79
521.52	161.50
521.69	205.97
521.86	231.71
522.03	227.03
522.20	322.99
522.38	201.29
522.55	198.95
522.72	149.79
522.89	236.39
523.07	292.57
523.24	222.35
523.41	241.08
523.58	173.20
523.75	234.05
523.92	156.82
524.10	201.29
524.27	198.95
524.44	170.86
524.61	217.67
524.78	147.45
524.96	152.13
525.13	128.73
525.30	194.26
525.47	142.77
525.64	205.97
525.81	252.78
525.98	140.43
526.16	154.48
526.33	98.30
526.50	243.42
526.67	152.13
526.84	187.24
527.01	131.07
527.18	163.84
527.36	149.79
527.53	184.90
527.70	203.63
527.87	159.16
528.04	234.05
528.21	217.67
528.38	205.97
528.55	241.08
528.72	241.08
528.89	245.76
529.07	217.67
529.24	128.73
529.41	287.89
529.58	212.99
529.75	212.99
529.92	163.84
530.09	238.73
530.26	147.45
530.43	227.03
530.60	229.37
530.77	234.05
530.94	166.18
531.11	266.82
531.28	248.10
531.46	203.63
531.63	117.03
531.80	175.54
531.97	259.80
532.14	264.48
532.31	222.35
532.48	250.44
532.65	297.25
532.82	269.16
532.99	393.21
533.16	299.59
533.33	201.29
533.50	234.05
533.67	313.63
533.84	383.85
534.01	376.83
534.18	311.29
534.35	273.84
534.52	191.92
534.69	285.55
534.86	184.90
535.03	184.90
535.20	163.84
535.37	231.71
535.54	187.24
535.71	220.01
535.88	285.55
536.05	156.82
536.22	222.35
536.38	170.86
536.55	180.22
536.72	234.05
536.89	154.48
537.06	271.50
537.23	294.91
537.40	182.56
537.57	217.67
537.74	184.90
537.91	271.50
538.08	285.55
538.25	222.35
538.42	224.69
538.59	257.46
538.75	241.08
538.92	194.26
539.09	203.63
539.26	184.90
539.43	477.47
539.60	950.26
539.77	1469.86
539.94	1579.86
540.11	978.34
540.28	685.78
540.44	491.51
540.61	325.33
540.78	266.82
540.95	212.99
541.12	255.12
541.29	161.50
541.46	212.99
541.62	149.79
541.79	175.54
541.96	175.54
542.13	121.71
542.30	170.86
542.47	227.03
542.63	168.52
542.80	222.35
542.97	234.05
543.14	203.63
543.31	245.76
543.48	184.90
543.64	236.39
543.81	156.82
543.98	227.03
544.15	250.44
544.32	201.29
544.48	224.69
544.65	283.20
544.82	191.92
544.99	205.97
545.16	292.57
545.32	152.13
545.49	175.54
545.66	173.20
545.83	191.92
546.00	145.11
546.16	159.16
546.33	175.54
546.50	212.99
546.67	243.42
546.83	348.74
547.00	196.60
547.17	210.65
547.34	191.92
547.50	163.84
547.67	287.89
547.84	208.31
548.00	222.35
548.17	180.22
548.34	243.42
548.51	212.99
548.67	229.37
548.84	217.67
549.01	161.50
549.18	205.97
549.34	180.22
549.51	210.65
549.68	231.71
549.84	166.18
550.01	215.33
550.18	278.52
550.34	266.82
550.51	194.26
550.68	264.48
550.84	234.05
551.01	306.61
551.18	264.48
551.34	198.95
551.51	168.52
551.68	196.60
551.84	212.99
552.01	138.09
552.18	262.14
552.34	257.46
552.51	245.76
552.68	236.39
552.84	93.62
553.01	287.89
553.18	184.90
553.34	205.97
553.51	149.79
553.67	203.63
553.84	222.35
554.01	201.29
554.17	191.92
554.34	191.92
554.51	234.05
554.67	210.65
554.84	180.22
555.00	191.92
555.17	198.95
555.33	231.71
555.50	250.44
555.67	264.48
555.83	262.14
556.00	177.88
556.16	348.74
556.33	290.23
556.50	262.14
556.66	156.82
556.83	203.63
556.99	173.20
557.16	290.23
557.32	220.01
557.49	184.90
557.65	166.18
557.82	145.11
557.98	227.03
558.15	231.71
558.32	149.79
558.48	212.99
558.65	142.77
558.81	187.24
558.98	222.35
559.14	266.82
559.31	138.09
559.47	194.26
559.64	149.79
559.80	238.73
559.97	243.42
560.13	290.23
560.30	147.45
560.46	220.01
560.63	191.92
560.79	198.95
560.96	196.60
561.12	187.24
561.29	182.56
561.45	227.03
561.61	149.79
561.78	330.02
561.94	159.16
562.11	222.35
562.27	259.80
562.44	220.01
562.60	166.18
562.77	166.18
562.93	248.10
563.10	238.73
563.26	168.52
563.42	175.54
563.59	121.71
563.75	194.26
563.92	201.29
564.08	184.90
564.24	245.76
564.41	280.86
564.57	177.88
564.74	208.31
564.90	273.84
565.07	308.95
565.23	259.80
565.39	168.52
565.56	299.59
565.72	215.33
565.88	222.35
566.05	203.63
566.21	126.39
566.38	259.80
566.54	201.29
566.70	189.58
566.87	161.50
567.03	88.94
567.19	220.01
567.36	243.42
567.52	203.63
567.68	252.78
567.85	187.24
568.01	252.78
568.17	217.67
568.34	180.22
568.50	201.29
568.66	180.22
568.83	273.84
568.99	241.08
569.15	161.50
569.32	196.60
569.48	191.92
569.64	163.84
569.81	187.24
569.97	191.92
570.13	222.35
570.30	224.69
570.46	208.31
570.62	173.20
570.78	238.73
570.95	224.69
571.11	227.03
571.27	245.76
571.43	119.37
571.60	248.10
571.76	198.95
571.92	311.29
572.09	175.54
572.25	196.60
572.41	154.48
572.57	215.33
572.74	224.69
572.90	224.69
573.06	250.44
573.22	184.90
573.38	318.31
573.55	212.99
573.71	292.57
573.87	215.33
574.03	220.01
574.20	163.84
574.36	297.25
574.52	283.20
574.68	229.37
574.84	243.42
575.01	325.33
575.17	269.16
575.33	215.33
575.49	332.36
575.65	222.35
575.82	332.36
575.98	514.92
576.14	592.16
576.30	716.20
576.46	519.60
576.62	425.98
576.79	320.65
576.95	334.70
577.11	264.48
577.27	280.86
577.43	229.37
577.59	262.14
577.75	250.44
577.92	203.63
578.08	285.55
578.24	208.31
578.40	243.42
578.56	266.82
578.72	255.12
578.88	262.14
579.04	285.55
579.21	259.80
579.37	236.39
579.53	236.39
579.69	236.39
579.85	266.82
580.01	339.38
580.17	397.89
580.33	318.31
580.49	376.83
580.65	285.55
580.82	348.74
580.98	292.57
581.14	304.27
581.30	362.78
581.46	390.87
581.62	423.64
581.78	535.98
581.94	498.53
582.10	421.30
582.26	383.85
582.42	433.00
582.58	369.80
582.74	402.57
582.90	348.74
583.06	414.27
583.22	461.09
583.38	407.25
583.54	421.30
583.70	517.26
583.86	660.03
584.02	791.10
584.18	926.85
584.34	1090.69
584.50	2911.63
584.66	21671.02
584.82	54712.36
584.98	65535.00
585.14	63650.87
585.30	49668.51
585.46	29296.49
585.62	18082.98
585.78	8278.47
585.94	3162.06
586.10	1554.12
586.26	994.73
586.42	744.29
586.58	568.75
586.74	582.79
586.90	629.60
587.06	489.17
587.22	540.66
587.38	475.13
587.54	1062.60
587.70	3222.92
587.86	5743.67
588.02	6698.61
588.18	4643.62
588.34	2906.95
588.49	1816.26
588.65	1153.88
588.81	589.82
588.97	348.74
589.13	304.27
589.29	362.78
589.45	315.97
589.61	330.02
589.77	402.57
589.93	421.30
590.08	428.32
590.24	402.57
590.40	390.87
590.56	348.74
590.72	287.89
590.88	344.06
591.04	374.49
591.20	294.91
591.35	269.16
591.51	259.80
591.67	304.27
591.83	285.55
591.99	241.08
592.15	245.76
592.31	271.50
592.46	245.76
592.62	222.35
592.78	180.22
592.94	227.03
593.10	301.93
593.26	276.18
593.41	220.01
593.57	337.04
593.73	524.28
593.89	2792.26
594.05	7049.69
594.20	11019.24
594.36	10775.83
594.52	7122.25
594.68	4313.61
594.84	2862.48
594.99	1514.33
595.15	704.50
595.31	418.96
595.47	430.66
595.62	379.17
595.78	325.33
595.94	287.89
596.10	355.76
596.25	280.86
596.41	367.46
596.57	290.23
596.73	191.92
596.88	458.74
597.04	1226.44
597.20	2242.23
597.36	2661.19
597.51	2036.27
597.67	1397.30
597.83	840.25
597.99	636.63
598.14	379.17
598.30	332.36
598.46	315.97
598.61	330.02
598.77	280.86
598.93	262.14
599.09	227.03
599.24	318.31
599.40	241.08
599.56	210.65
599.71	212.99
599.87	234.05
600.03	220.01
600.18	257.46
600.34	262.14
600.50	231.71
600.65	149.79
600.81	220.01
600.97	180.22
601.12	203.63
601.28	243.42
601.44	138.09
601.59	224.69
601.75	280.86
601.91	215.33
602.06	231.71
602.22	383.85
602.37	671.73
602.53	1666.46
602.69	2654.17
602.84	2967.80
603.00	2054.99
603.16	1432.41
603.31	1022.81
603.47	741.95
603.62	379.17
603.78	271.50
603.94	344.06
604.09	290.23
604.25	212.99
604.40	184.90
604.56	285.55
604.71	234.05
604.87	208.31
605.03	191.92
605.18	257.46
605.34	241.08
605.49	220.01
605.65	290.23
605.80	243.42
605.96	266.82
606.12	306.61
606.27	322.99
606.43	292.57
606.58	306.61
606.74	770.04
606.89	3173.77
607.05	6766.49
607.20	9668.75
607.36	7801.01
607.51	5233.44
607.67	3225.26
607.82	2321.81
607.98	1275.59
608.13	603.86
608.29	414.27
608.44	421.30
608.60	372.15
608.75	472.79
608.91	1050.90
609.06	5128.11
609.22	11360.96
609.37	16648.23
609.53	14504.30
609.68	9551.73
609.84	6050.28
609.99	3981.25
610.15	2136.91
610.30	966.64
610.46	543.00
610.61	538.32
610.76	381.51
610.92	306.61
611.07	278.52
611.23	362.78
611.38	362.78
611.54	205.97
611.69	243.42
611.84	250.44
612.00	315.97
612.15	245.76
612.31	381.51
612.46	561.73
612.62	671.73
612.77	669.39
612.92	638.97
613.08	568.75
613.23	580.45
613.39	461.09
613.54	849.61
613.69	4608.51
613.85	14314.72
614.00	23690.90
614.15	27115.11
614.31	18946.64
614.46	11910.99
614.62	7880.58
614.77	4676.39
614.92	2183.72
615.08	1036.86
615.23	599.18
615.38	484.49
615.54	451.72
615.69	835.57
615.84	2778.22
616.00	5048.54
616.15	6719.68
616.30	5486.22
616.46	3749.54
616.61	2438.84
616.76	1717.95
616.92	847.27
617.07	489.17
617.22	325.33
617.37	332.36
617.53	344.06
617.68	299.59
617.83	259.80
617.99	308.95
618.14	308.95
618.29	229.37
618.45	243.42
618.60	248.10
618.75	224.69
618.90	231.71
619.06	252.78
619.21	250.44
619.36	222.35
619.51	159.16
619.67	182.56
619.82	196.60
619.97	243.42
620.12	252.78
620.28	255.12
620.43	271.50
620.58	304.27
620.73	198.95
620.89	332.36
621.04	512.58
621.19	1495.60
621.34	2890.56
621.49	3915.72
621.65	3686.34
621.80	2464.58
621.95	1643.06
622.10	1205.38
622.25	706.84
622.41	404.91
622.56	355.76
622.71	280.86
622.86	248.10
623.01	191.92
623.16	208.31
623.32	177.88
623.47	222.35
623.62	201.29
623.77	198.95
623.92	215.33
624.07	133.41
624.23	248.10
624.38	198.95
624.53	210.65
624.68	280.86
624.83	306.61
624.98	184.90
625.13	205.97
625.29	236.39
625.44	208.31
625.59	238.73
625.74	318.31
625.89	468.11
626.04	2282.02
626.19	6918.62
626.34	11822.05
626.49	13907.46
626.65	10139.20
626.80	6644.78
626.95	4346.37
627.10	2771.19
627.25	1334.11
627.40	606.20
627.55	472.79
627.70	334.70
627.85	308.95
628.00	229.37
628.15	147.45
628.30	262.14
628.45	170.86
628.60	248.10
628.76	161.50
628.91	194.26
629.06	255.12
629.21	161.50
629.36	210.65
629.51	229.37
629.66	304.27
629.81	351.08
629.96	1280.27
630.11	2478.63
630.26	3391.44
630.41	3133.98
630.56	2232.87
630.71	1451.13
630.86	1032.18
631.01	613.22
631.16	315.97
631.31	236.39
631.46	313.63
631.61	262.14
631.76	271.50
631.91	198.95
632.06	269.16
632.21	301.93
632.36	306.61
632.51	313.63
632.66	430.66
632.81	1088.35
632.96	3791.67
633.10	6967.77
633.25	9434.70
633.40	7637.17
633.55	5308.34
633.70	3459.31
633.85	2382.67
634.00	1210.06
634.15	608.54
634.30	351.08
634.45	344.06
634.60	269.16
634.75	301.93
634.90	196.60
635.05	276.18
635.19	224.69
635.34	203.63
635.49	287.89
635.64	205.97
635.79	212.99
635.94	259.80
636.09	210.65
636.24	285.55
636.39	327.68
636.53	248.10
636.68	208.31
636.83	212.99
636.98	285.55
637.13	322.99
637.28	315.97
637.43	402.57
637.57	566.41
637.72	3087.17
637.87	8823.82
638.02	15253.27
638.17	17893.40
638.32	12922.10
638.46	8638.92
638.61	5570.48
638.76	3534.21
638.91	1830.30
639.06	929.19
639.20	610.88
639.35	613.22
639.50	866.00
639.65	4580.43
639.80	14132.15
639.94	24151.99
640.09	28002.17
640.24	20688.00
640.39	13399.57
640.54	8835.52
640.68	5242.80
640.83	2499.69
640.98	1093.03
641.13	681.10
641.27	447.04
641.42	339.38
641.57	379.17
641.72	304.27
641.86	257.46
642.01	290.23
642.16	266.82
642.31	250.44
642.45	210.65
642.60	248.10
642.75	236.39
642.90	180.22
643.04	67.88
643.19	163.84
643.34	234.05
643.48	264.48
643.63	166.18
643.78	203.63
643.93	220.01
644.07	152.13
644.22	229.37
644.37	93.62
644.51	149.79
644.66	205.97
644.81	212.99
644.95	236.39
645.10	184.90
645.25	133.41
645.39	266.82
645.54	147.45
645.69	184.90
645.83	182.56
645.98	285.55
646.13	135.75
646.27	215.33
646.42	138.09
646.57	203.63
646.71	161.50
646.86	154.48
647.00	224.69
647.15	262.14
647.30	175.54
647.44	163.84
647.59	212.99
647.74	138.09
647.88	154.48
648.03	220.01
648.17	131.07
648.32	138.09
648.47	203.63
648.61	145.11
648.76	142.77
648.90	203.63
649.05	215.33
649.20	154.48
649.34	201.29
649.49	198.95
649.63	224.69
649.78	297.25
649.92	463.43
650.07	1788.17
650.21	6031.56
650.36	10693.91
650.51	13710.86
650.65	11396.07
650.80	8112.30
650.94	5336.42
651.09	3351.65
651.23	1668.80
651.38	788.76
651.52	400.23
651.67	337.04
651.81	294.91
651.96	273.84
652.10	182.56
652.25	217.67
652.39	264.48
652.54	245.76
652.68	620.24
652.83	1788.17
652.97	3499.10
653.12	4894.06
653.26	4538.30
653.41	3276.75
653.55	2211.81
653.70	1397.30
653.84	755.99
653.99	491.51
654.13	294.91
654.27	262.14
654.42	222.35
654.56	180.22
654.71	252.78
654.85	145.11
655.00	231.71
655.14	119.37
655.29	81.92
655.43	224.69
655.57	117.03
655.72	217.67
655.86	161.50
656.01	238.73
656.15	166.18
656.30	217.67
656.44	259.80
656.58	205.97
656.73	205.97
656.87	210.65
657.01	142.77
657.16	110.01
657.30	138.09
657.45	245.76
657.59	203.63
657.73	180.22
657.88	128.73
658.02	273.84
658.16	163.84
658.31	187.24
658.45	241.08
658.60	196.60
658.74	117.03
658.88	194.26
659.03	217.67
659.17	252.78
659.31	784.08
659.46	2583.95
659.60	5036.83
659.74	6771.17
659.89	6256.25
660.03	4322.97
660.17	2913.97
660.32	1844.34
660.46	990.05
660.60	580.45
660.74	353.42
660.89	241.08
661.03	222.35
661.17	210.65
661.32	91.28
661.46	163.84
661.60	166.18
661.74	121.71
661.89	170.86
662.03	212.99
662.17	196.60
662.31	191.92
662.46	220.01
662.60	229.37
662.74	152.13
662.88	210.65
663.03	114.69
663.17	187.24
663.31	107.66
663.45	84.26
663.60	135.75
663.74	227.03
663.88	119.37
664.02	229.37
664.17	152.13
664.31	175.54
664.45	119.37
664.59	93.62
664.73	217.67
664.88	229.37
665.02	245.76
665.16	133.41
665.30	234.05
665.44	201.29
665.59	264.48
665.73	205.97
665.87	196.60
666.01	180.22
666.15	161.50
666.29	170.86
666.44	273.84
666.58	262.14
666.72	224.69
666.86	262.14
667.00	348.74
667.14	430.66
667.28	1645.40
667.43	5107.05
667.57	9067.24
667.71	12032.69
667.85	10319.42
667.99	7262.68
668.13	4699.80
668.27	2813.32
668.41	1542.41
668.56	905.79
668.70	554.71
668.84	435.34
668.98	301.93
669.12	231.71
669.26	154.48
669.40	266.82
669.54	212.99
669.68	224.69
669.82	248.10
669.96	203.63
670.10	217.67
670.25	128.73
670.39	147.45
670.53	135.75
670.67	271.50
670.81	159.16
670.95	236.39
671.09	425.98
671.23	1844.34
671.37	4227.01
671.51	6736.06
671.65	7426.52
671.79	5834.96
671.93	3995.29
672.07	2429.48
672.21	1362.19
672.35	786.42
672.49	507.90
672.63	360.44
672.77	175.54
672.91	245.76
673.05	187.24
673.19	173.20
673.33	91.28
673.47	184.90
673.61	149.79
673.75	170.86
673.89	163.84
674.03	205.97
674.17	187.24
674.31	170.86
674.45	154.48
674.59	98.30
674.73	215.33
674.87	264.48
675.01	182.56
675.15	175.54
675.29	220.01
675.43	210.65
675.56	163.84
675.70	159.16
675.84	124.05
675.98	140.43
676.12	138.09
676.26	173.20
676.40	152.13
676.54	184.90
676.68	173.20
676.82	131.07
676.96	30.43
677.10	220.01
677.23	180.22
677.37	91.28
677.51	128.73
677.65	156.82
677.79	107.66
677.93	93.62
678.07	128.73
678.21	105.32
678.34	154.48
678.48	180.22
678.62	161.50
678.76	102.98
678.90	110.01
679.04	112.35
679.18	135.75
679.31	189.58
679.45	201.29
679.59	161.50
679.73	102.98
679.87	138.09
680.00	128.73
680.14	117.03
680.28	149.79
680.42	168.52
680.56	110.01
680.70	182.56
680.83	135.75
680.97	124.05
681.11	159.16
681.25	189.58
681.39	119.37
681.52	170.86
681.66	147.45
681.80	84.26
681.94	121.71
682.07	112.35
682.21	140.43
682.35	98.30
682.49	126.39
682.62	173.20
682.76	105.32
682.90	133.41
683.04	145.11
683.17	88.94
683.31	156.82
683.45	145.11
683.59	154.48
683.72	220.01
683.86	175.54
684.00	194.26
684.13	131.07
684.27	138.09
684.41	145.11
684.55	88.94
684.68	145.11
684.82	124.05
684.96	88.94
685.09	142.77
685.23	138.09
685.37	77.24
685.50	156.82
685.64	227.03
685.78	175.54
685.91	135.75
686.05	88.94
686.19	152.13
686.32	175.54
686.46	220.01
686.60	70.22
686.73	224.69
686.87	182.56
687.01	208.31
687.14	231.71
687.28	159.16
687.42	135.75
687.55	100.64
687.69	142.77
687.82	145.11
687.96	189.58
688.10	105.32
688.23	91.28
688.37	138.09
688.50	74.90
688.64	133.41
688.78	170.86
688.91	126.39
689.05	149.79
689.18	95.96
689.32	145.11
689.46	126.39
689.59	131.07
689.73	112.35
689.86	49.15
690.00	124.05
690.13	42.13
690.27	161.50
690.41	154.48
690.54	191.92
690.68	152.13
690.81	110.01
690.95	198.95
691.08	102.98
691.22	138.09
691.35	105.32
691.49	198.95
691.62	110.01
691.76	81.92
691.89	154.48
692.03	180.22
692.16	156.82
692.30	205.97
692.43	688.12
692.57	2090.10
692.70	3911.04
692.84	5240.46
692.97	4973.64
693.11	3541.23
693.24	2595.65
693.38	1839.66
693.51	1118.78
693.65	786.42
693.78	559.39
693.92	304.27
694.05	262.14
694.19	222.35
694.32	220.01
694.45	142.77
694.59	138.09
694.72	229.37
694.86	156.82
694.99	72.56
695.13	88.94
695.26	60.85
695.39	114.69
695.53	208.31
695.66	224.69
695.80	154.48
695.93	74.90
696.07	234.05
696.20	210.65
696.33	374.49
696.47	454.06
696.60	425.98
696.73	388.53
696.87	229.37
697.00	238.73
697.14	177.88
697.27	168.52
697.40	205.97
697.54	119.37
697.67	152.13
697.80	112.35
697.94	112.35
698.07	166.18
698.21	196.60
698.34	121.71
698.47	110.01
698.61	135.75
698.74	159.16
698.87	124.05
699.01	119.37
699.14	51.49
699.27	203.63
699.40	252.78
699.54	117.03
699.67	86.60
699.80	114.69
699.94	86.60
700.07	142.77
700.20	112.35
700.34	149.79
700.47	98.30
700.60	121.71
700.73	114.69
700.87	149.79
701.00	138.09
701.13	91.28
701.26	140.43
701.40	88.94
701.53	166.18
701.66	86.60
701.79	131.07
701.93	205.97
702.06	355.76
702.19	369.80
702.32	383.85
702.46	421.30
702.59	409.59
702.72	732.59
702.85	2672.89
702.99	6001.13
703.12	8987.66
703.25	10106.43
703.38	8648.28
703.51	7096.50
703.65	5369.19
703.78	3756.56
703.91	2555.86
704.04	1472.20
704.17	919.83
704.31	603.86
704.44	290.23
704.57	292.57
704.70	278.52
704.83	224.69
704.96	184.90
705.10	110.01
705.23	238.73
>>>>>End Processed Spectral Data<<<<<
