SpectraSuite Data File
++++++++++++++++++++++++++++++++++++
Date: Fri Oct 04 11:47:23 GMT-05:00 2013
User: price-jones
Dark Spectrum Present: No
Reference Spectrum Present: No
Number of Sampled Component Spectra: 1
Spectrometers: USB2+H05261
Integration Time (usec): 100000 (USB2+H05261)
Spectra Averaged: 1 (USB2+H05261)
Boxcar Smoothing: 0 (USB2+H05261)
Correct for Electrical Dark: No (USB2+H05261)
Strobe/Lamp Enabled: No (USB2+H05261)
Correct for Detector Non-linearity: No (USB2+H05261)
Correct for Stray Light: No (USB2+H05261)
Number of Pixels in Processed Spectrum: 2048
>>>>>Begin Processed Spectral Data<<<<<
365.73	51.49
365.92	51.49
366.12	51.49
366.32	0.00
366.52	0.00
366.72	0.00
366.91	0.00
367.11	0.00
367.31	0.00
367.51	0.00
367.70	0.00
367.90	0.00
368.10	0.00
368.30	0.00
368.49	0.00
368.69	0.00
368.89	0.00
369.09	0.00
369.28	0.00
369.48	0.00
369.68	0.00
369.87	0.00
370.07	0.00
370.27	0.00
370.47	0.00
370.66	44.47
370.86	23.41
371.06	56.17
371.25	102.98
371.45	28.09
371.65	37.45
371.84	0.00
372.04	81.92
372.24	79.58
372.44	93.62
372.63	105.32
372.83	114.69
373.03	74.90
373.22	67.88
373.42	46.81
373.62	67.88
373.81	44.47
374.01	86.60
374.21	117.03
374.40	53.83
374.60	107.66
374.79	159.16
374.99	114.69
375.19	112.35
375.38	102.98
375.58	140.43
375.78	119.37
375.97	112.35
376.17	173.20
376.37	102.98
376.56	110.01
376.76	124.05
376.95	79.58
377.15	117.03
377.35	117.03
377.54	145.11
377.74	161.50
377.93	102.98
378.13	102.98
378.33	105.32
378.52	170.86
378.72	175.54
378.91	91.28
379.11	156.82
379.31	37.45
379.50	70.22
379.70	145.11
379.89	119.37
380.09	138.09
380.28	170.86
380.48	81.92
380.68	112.35
380.87	131.07
381.07	86.60
381.26	93.62
381.46	152.13
381.65	84.26
381.85	100.64
382.04	72.56
382.24	74.90
382.43	91.28
382.63	117.03
382.83	65.54
383.02	198.95
383.22	88.94
383.41	81.92
383.61	107.66
383.80	67.88
384.00	86.60
384.19	112.35
384.39	112.35
384.58	149.79
384.78	91.28
384.97	100.64
385.17	149.79
385.36	149.79
385.56	60.85
385.75	30.43
385.95	91.28
386.14	107.66
386.34	149.79
386.53	117.03
386.72	102.98
386.92	135.75
387.11	124.05
387.31	114.69
387.50	84.26
387.70	100.64
387.89	67.88
388.09	100.64
388.28	77.24
388.48	100.64
388.67	163.84
388.86	58.51
389.06	77.24
389.25	91.28
389.45	205.97
389.64	42.13
389.84	95.96
390.03	175.54
390.22	79.58
390.42	114.69
390.61	49.15
390.81	114.69
391.00	100.64
391.19	124.05
391.39	142.77
391.58	154.48
391.78	77.24
391.97	74.90
392.16	84.26
392.36	217.67
392.55	149.79
392.75	60.85
392.94	46.81
393.13	133.41
393.33	124.05
393.52	124.05
393.71	154.48
393.91	98.30
394.10	163.84
394.29	131.07
394.49	93.62
394.68	147.45
394.88	105.32
395.07	56.17
395.26	170.86
395.46	63.19
395.65	88.94
395.84	215.33
396.04	138.09
396.23	152.13
396.42	114.69
396.62	53.83
396.81	114.69
397.00	102.98
397.19	133.41
397.39	128.73
397.58	119.37
397.77	168.52
397.97	142.77
398.16	79.58
398.35	133.41
398.55	138.09
398.74	107.66
398.93	121.71
399.12	58.51
399.32	145.11
399.51	117.03
399.70	147.45
399.90	105.32
400.09	81.92
400.28	110.01
400.47	138.09
400.67	154.48
400.86	119.37
401.05	128.73
401.24	198.95
401.44	121.71
401.63	173.20
401.82	112.35
402.01	163.84
402.21	107.66
402.40	119.37
402.59	74.90
402.78	154.48
402.97	56.17
403.17	119.37
403.36	107.66
403.55	201.29
403.74	140.43
403.93	81.92
404.13	156.82
404.32	140.43
404.51	79.58
404.70	168.52
404.89	173.20
405.09	154.48
405.28	86.60
405.47	58.51
405.66	110.01
405.85	182.56
406.05	67.88
406.24	191.92
406.43	128.73
406.62	156.82
406.81	241.08
407.00	184.90
407.20	168.52
407.39	175.54
407.58	102.98
407.77	170.86
407.96	156.82
408.15	203.63
408.34	121.71
408.54	131.07
408.73	86.60
408.92	182.56
409.11	145.11
409.30	140.43
409.49	128.73
409.68	105.32
409.87	135.75
410.07	149.79
410.26	154.48
410.45	72.56
410.64	177.88
410.83	182.56
411.02	140.43
411.21	131.07
411.40	135.75
411.59	166.18
411.78	112.35
411.98	154.48
412.17	105.32
412.36	126.39
412.55	152.13
412.74	217.67
412.93	224.69
413.12	114.69
413.31	131.07
413.50	58.51
413.69	126.39
413.88	212.99
414.07	177.88
414.26	79.58
414.45	156.82
414.64	154.48
414.83	180.22
415.02	161.50
415.22	194.26
415.41	180.22
415.60	191.92
415.79	187.24
415.98	250.44
416.17	156.82
416.36	212.99
416.55	53.83
416.74	224.69
416.93	212.99
417.12	156.82
417.31	163.84
417.50	135.75
417.69	184.90
417.88	133.41
418.07	212.99
418.26	215.33
418.45	276.18
418.64	182.56
418.83	217.67
419.02	149.79
419.21	163.84
419.39	238.73
419.58	159.16
419.77	102.98
419.96	208.31
420.15	201.29
420.34	166.18
420.53	191.92
420.72	182.56
420.91	149.79
421.10	124.05
421.29	175.54
421.48	124.05
421.67	175.54
421.86	128.73
422.05	121.71
422.24	140.43
422.43	119.37
422.61	227.03
422.80	222.35
422.99	124.05
423.18	142.77
423.37	189.58
423.56	126.39
423.75	170.86
423.94	147.45
424.13	145.11
424.32	173.20
424.50	187.24
424.69	201.29
424.88	145.11
425.07	168.52
425.26	201.29
425.45	255.12
425.64	145.11
425.83	170.86
426.01	255.12
426.20	189.58
426.39	159.16
426.58	128.73
426.77	196.60
426.96	149.79
427.15	110.01
427.33	124.05
427.52	177.88
427.71	131.07
427.90	163.84
428.09	182.56
428.28	147.45
428.46	152.13
428.65	159.16
428.84	147.45
429.03	175.54
429.22	145.11
429.40	107.66
429.59	180.22
429.78	180.22
429.97	142.77
430.16	110.01
430.34	224.69
430.53	215.33
430.72	189.58
430.91	105.32
431.10	107.66
431.28	159.16
431.47	248.10
431.66	175.54
431.85	77.24
432.03	168.52
432.22	182.56
432.41	161.50
432.60	203.63
432.79	182.56
432.97	182.56
433.16	166.18
433.35	126.39
433.54	177.88
433.72	159.16
433.91	163.84
434.10	79.58
434.28	170.86
434.47	231.71
434.66	140.43
434.85	154.48
435.03	159.16
435.22	201.29
435.41	163.84
435.59	126.39
435.78	257.46
435.97	131.07
436.16	140.43
436.34	241.08
436.53	170.86
436.72	177.88
436.90	131.07
437.09	142.77
437.28	196.60
437.46	133.41
437.65	168.52
437.84	231.71
438.02	170.86
438.21	112.35
438.40	215.33
438.58	159.16
438.77	203.63
438.96	131.07
439.14	191.92
439.33	177.88
439.52	184.90
439.70	124.05
439.89	156.82
440.08	212.99
440.26	163.84
440.45	224.69
440.63	280.86
440.82	128.73
441.01	217.67
441.19	182.56
441.38	262.14
441.57	147.45
441.75	126.39
441.94	201.29
442.12	227.03
442.31	234.05
442.50	236.39
442.68	234.05
442.87	189.58
443.05	142.77
443.24	124.05
443.43	243.42
443.61	189.58
443.80	152.13
443.98	201.29
444.17	210.65
444.35	243.42
444.54	203.63
444.73	187.24
444.91	215.33
445.10	215.33
445.28	208.31
445.47	231.71
445.65	234.05
445.84	182.56
446.02	175.54
446.21	198.95
446.39	184.90
446.58	187.24
446.77	203.63
446.95	93.62
447.14	189.58
447.32	229.37
447.51	187.24
447.69	212.99
447.88	175.54
448.06	339.38
448.25	138.09
448.43	208.31
448.62	159.16
448.80	243.42
448.99	224.69
449.17	161.50
449.36	168.52
449.54	215.33
449.73	187.24
449.91	217.67
450.10	283.20
450.28	241.08
450.46	287.89
450.65	285.55
450.83	205.97
451.02	177.88
451.20	217.67
451.39	215.33
451.57	241.08
451.76	170.86
451.94	234.05
452.13	184.90
452.31	208.31
452.49	147.45
452.68	245.76
452.86	138.09
453.05	227.03
453.23	154.48
453.42	201.29
453.60	229.37
453.78	241.08
453.97	138.09
454.15	194.26
454.34	271.50
454.52	147.45
454.70	269.16
454.89	224.69
455.07	67.88
455.26	227.03
455.44	220.01
455.62	152.13
455.81	250.44
455.99	138.09
456.17	271.50
456.36	208.31
456.54	133.41
456.73	203.63
456.91	224.69
457.09	180.22
457.28	234.05
457.46	168.52
457.64	231.71
457.83	194.26
458.01	175.54
458.19	145.11
458.38	168.52
458.56	269.16
458.74	145.11
458.93	166.18
459.11	222.35
459.29	93.62
459.48	273.84
459.66	203.63
459.84	252.78
460.03	308.95
460.21	285.55
460.39	187.24
460.57	217.67
460.76	173.20
460.94	161.50
461.12	294.91
461.31	234.05
461.49	215.33
461.67	166.18
461.85	227.03
462.04	212.99
462.22	667.05
462.40	191.92
462.59	220.01
462.77	100.64
462.95	229.37
463.13	180.22
463.32	259.80
463.50	243.42
463.68	156.82
463.86	102.98
464.05	287.89
464.23	283.20
464.41	196.60
464.59	198.95
464.78	154.48
464.96	100.64
465.14	198.95
465.32	149.79
465.50	173.20
465.69	248.10
465.87	220.01
466.05	224.69
466.23	168.52
466.41	173.20
466.60	205.97
466.78	147.45
466.96	229.37
467.14	257.46
467.32	236.39
467.51	182.56
467.69	248.10
467.87	290.23
468.05	241.08
468.23	241.08
468.41	210.65
468.60	224.69
468.78	255.12
468.96	236.39
469.14	271.50
469.32	243.42
469.50	224.69
469.69	259.80
469.87	187.24
470.05	184.90
470.23	215.33
470.41	140.43
470.59	140.43
470.77	259.80
470.95	184.90
471.14	266.82
471.32	163.84
471.50	208.31
471.68	229.37
471.86	290.23
472.04	255.12
472.22	152.13
472.40	217.67
472.58	189.58
472.77	198.95
472.95	180.22
473.13	276.18
473.31	224.69
473.49	203.63
473.67	220.01
473.85	245.76
474.03	241.08
474.21	276.18
474.39	276.18
474.57	241.08
474.75	173.20
474.93	133.41
475.12	248.10
475.30	248.10
475.48	238.73
475.66	224.69
475.84	262.14
476.02	220.01
476.20	189.58
476.38	194.26
476.56	315.97
476.74	231.71
476.92	243.42
477.10	227.03
477.28	236.39
477.46	245.76
477.64	241.08
477.82	191.92
478.00	217.67
478.18	234.05
478.36	205.97
478.54	205.97
478.72	220.01
478.90	248.10
479.08	231.71
479.26	290.23
479.44	198.95
479.62	203.63
479.80	205.97
479.98	301.93
480.16	229.37
480.34	203.63
480.52	212.99
480.70	210.65
480.88	243.42
481.06	238.73
481.24	177.88
481.41	273.84
481.59	194.26
481.77	276.18
481.95	257.46
482.13	311.29
482.31	266.82
482.49	231.71
482.67	332.36
482.85	224.69
483.03	259.80
483.21	212.99
483.39	175.54
483.57	212.99
483.74	311.29
483.92	222.35
484.10	236.39
484.28	243.42
484.46	311.29
484.64	292.57
484.82	229.37
485.00	182.56
485.18	248.10
485.35	245.76
485.53	166.18
485.71	327.68
485.89	173.20
486.07	285.55
486.25	290.23
486.43	198.95
486.61	175.54
486.78	304.27
486.96	266.82
487.14	262.14
487.32	278.52
487.50	250.44
487.68	308.95
487.85	229.37
488.03	346.40
488.21	266.82
488.39	257.46
488.57	320.65
488.75	299.59
488.92	592.16
489.10	315.97
489.28	404.91
489.46	355.76
489.64	297.25
489.81	290.23
489.99	292.57
490.17	353.42
490.35	339.38
490.53	332.36
490.70	294.91
490.88	248.10
491.06	269.16
491.24	276.18
491.41	290.23
491.59	273.84
491.77	236.39
491.95	294.91
492.13	255.12
492.30	271.50
492.48	269.16
492.66	276.18
492.84	313.63
493.01	278.52
493.19	269.16
493.37	255.12
493.54	341.72
493.72	360.44
493.90	290.23
494.08	234.05
494.25	280.86
494.43	334.70
494.61	322.99
494.79	313.63
494.96	381.51
495.14	332.36
495.32	299.59
495.49	322.99
495.67	318.31
495.85	327.68
496.02	315.97
496.20	402.57
496.38	341.72
496.55	369.80
496.73	325.33
496.91	369.80
497.09	313.63
497.26	411.93
497.44	299.59
497.62	276.18
497.79	271.50
497.97	318.31
498.14	292.57
498.32	330.02
498.50	337.04
498.67	374.49
498.85	273.84
499.03	353.42
499.20	367.46
499.38	337.04
499.56	360.44
499.73	383.85
499.91	402.57
500.08	271.50
500.26	362.78
500.44	301.93
500.61	358.10
500.79	334.70
500.97	360.44
501.14	346.40
501.32	339.38
501.49	381.51
501.67	339.38
501.84	386.19
502.02	341.72
502.20	334.70
502.37	418.96
502.55	358.10
502.72	360.44
502.90	325.33
503.07	353.42
503.25	325.33
503.43	257.46
503.60	327.68
503.78	322.99
503.95	224.69
504.13	344.06
504.30	299.59
504.48	346.40
504.65	388.53
504.83	411.93
505.01	362.78
505.18	353.42
505.36	348.74
505.53	365.12
505.71	346.40
505.88	374.49
506.06	332.36
506.23	360.44
506.41	395.55
506.58	346.40
506.76	339.38
506.93	299.59
507.11	337.04
507.28	297.25
507.46	404.91
507.63	348.74
507.81	386.19
507.98	344.06
508.16	304.27
508.33	290.23
508.50	327.68
508.68	301.93
508.85	376.83
509.03	383.85
509.20	341.72
509.38	346.40
509.55	430.66
509.73	355.76
509.90	379.17
510.08	339.38
510.25	402.57
510.42	362.78
510.60	344.06
510.77	402.57
510.95	393.21
511.12	390.87
511.30	397.89
511.47	376.83
511.64	390.87
511.82	351.08
511.99	315.97
512.17	348.74
512.34	330.02
512.51	318.31
512.69	379.17
512.86	372.15
513.04	285.55
513.21	292.57
513.38	320.65
513.56	381.51
513.73	449.38
513.90	322.99
514.08	362.78
514.25	348.74
514.43	404.91
514.60	311.29
514.77	355.76
514.95	311.29
515.12	400.23
515.29	372.15
515.47	280.86
515.64	393.21
515.81	330.02
515.99	367.46
516.16	299.59
516.33	285.55
516.51	353.42
516.68	365.12
516.85	358.10
517.03	325.33
517.20	374.49
517.37	393.21
517.54	367.46
517.72	341.72
517.89	262.14
518.06	346.40
518.24	437.68
518.41	320.65
518.58	344.06
518.75	339.38
518.93	379.17
519.10	346.40
519.27	344.06
519.45	369.80
519.62	435.34
519.79	430.66
519.96	348.74
520.14	376.83
520.31	428.32
520.48	318.31
520.65	369.80
520.83	369.80
521.00	409.59
521.17	355.76
521.34	344.06
521.52	423.64
521.69	409.59
521.86	395.55
522.03	365.12
522.20	461.09
522.38	327.68
522.55	353.42
522.72	376.83
522.89	421.30
523.07	383.85
523.24	425.98
523.41	402.57
523.58	433.00
523.75	425.98
523.92	451.72
524.10	442.36
524.27	372.15
524.44	400.23
524.61	437.68
524.78	395.55
524.96	428.32
525.13	346.40
525.30	358.10
525.47	418.96
525.64	416.62
525.81	447.04
525.98	362.78
526.16	435.34
526.33	386.19
526.50	238.73
526.67	360.44
526.84	304.27
527.01	437.68
527.18	365.12
527.36	372.15
527.53	414.27
527.70	348.74
527.87	397.89
528.04	390.87
528.21	332.36
528.38	414.27
528.55	421.30
528.72	351.08
528.89	442.36
529.07	376.83
529.24	393.21
529.41	358.10
529.58	381.51
529.75	318.31
529.92	344.06
530.09	407.25
530.26	456.40
530.43	444.70
530.60	416.62
530.77	341.72
530.94	449.38
531.11	414.27
531.28	374.49
531.46	390.87
531.63	482.15
531.80	409.59
531.97	397.89
532.14	418.96
532.31	304.27
532.48	348.74
532.65	374.49
532.82	346.40
532.99	444.70
533.16	447.04
533.33	414.27
533.50	472.79
533.67	437.68
533.84	383.85
534.01	332.36
534.18	390.87
534.35	393.21
534.52	463.43
534.69	407.25
534.86	365.12
535.03	416.62
535.20	376.83
535.37	388.53
535.54	444.70
535.71	493.85
535.88	444.70
536.05	341.72
536.22	369.80
536.38	362.78
536.55	362.78
536.72	454.06
536.89	372.15
537.06	402.57
537.23	381.51
537.40	339.38
537.57	372.15
537.74	400.23
537.91	414.27
538.08	339.38
538.25	425.98
538.42	322.99
538.59	393.21
538.75	383.85
538.92	388.53
539.09	369.80
539.26	404.91
539.43	393.21
539.60	358.10
539.77	442.36
539.94	442.36
540.11	418.96
540.28	388.53
540.44	423.64
540.61	369.80
540.78	297.25
540.95	318.31
541.12	360.44
541.29	301.93
541.46	369.80
541.62	393.21
541.79	360.44
541.96	341.72
542.13	393.21
542.30	381.51
542.47	440.02
542.63	393.21
542.80	332.36
542.97	447.04
543.14	341.72
543.31	428.32
543.48	393.21
543.64	390.87
543.81	418.96
543.98	388.53
544.15	381.51
544.32	313.63
544.48	402.57
544.65	423.64
544.82	351.08
544.99	369.80
545.16	435.34
545.32	381.51
545.49	414.27
545.66	369.80
545.83	308.95
546.00	341.72
546.16	397.89
546.33	397.89
546.50	411.93
546.67	435.34
546.83	397.89
547.00	369.80
547.17	393.21
547.34	388.53
547.50	433.00
547.67	437.68
547.84	411.93
548.00	425.98
548.17	339.38
548.34	374.49
548.51	458.74
548.67	447.04
548.84	376.83
549.01	416.62
549.18	365.12
549.34	423.64
549.51	428.32
549.68	386.19
549.84	418.96
550.01	402.57
550.18	528.96
550.34	477.47
550.51	463.43
550.68	433.00
550.84	402.57
551.01	379.17
551.18	407.25
551.34	330.02
551.51	351.08
551.68	393.21
551.84	383.85
552.01	315.97
552.18	362.78
552.34	334.70
552.51	362.78
552.68	404.91
552.84	365.12
553.01	346.40
553.18	376.83
553.34	353.42
553.51	386.19
553.67	376.83
553.84	465.77
554.01	407.25
554.17	409.59
554.34	353.42
554.51	383.85
554.67	442.36
554.84	318.31
555.00	454.06
555.17	369.80
555.33	411.93
555.50	376.83
555.67	390.87
555.83	381.51
556.00	379.17
556.16	475.13
556.33	397.89
556.50	344.06
556.66	393.21
556.83	421.30
556.99	337.04
557.16	327.68
557.32	369.80
557.49	325.33
557.65	353.42
557.82	334.70
557.98	301.93
558.15	376.83
558.32	435.34
558.48	304.27
558.65	330.02
558.81	414.27
558.98	379.17
559.14	379.17
559.31	332.36
559.47	386.19
559.64	332.36
559.80	306.61
559.97	346.40
560.13	379.17
560.30	383.85
560.46	360.44
560.63	425.98
560.79	435.34
560.96	386.19
561.12	449.38
561.29	390.87
561.45	407.25
561.61	313.63
561.78	358.10
561.94	390.87
562.11	297.25
562.27	425.98
562.44	374.49
562.60	339.38
562.77	266.82
562.93	461.09
563.10	306.61
563.26	376.83
563.42	362.78
563.59	390.87
563.75	435.34
563.92	402.57
564.08	355.76
564.24	404.91
564.41	482.15
564.57	346.40
564.74	332.36
564.90	299.59
565.07	348.74
565.23	442.36
565.39	351.08
565.56	334.70
565.72	339.38
565.88	341.72
566.05	376.83
566.21	383.85
566.38	411.93
566.54	332.36
566.70	276.18
566.87	395.55
567.03	308.95
567.19	425.98
567.36	421.30
567.52	346.40
567.68	395.55
567.85	372.15
568.01	341.72
568.17	322.99
568.34	278.52
568.50	458.74
568.66	297.25
568.83	456.40
568.99	341.72
569.15	433.00
569.32	395.55
569.48	341.72
569.64	313.63
569.81	351.08
569.97	325.33
570.13	318.31
570.30	313.63
570.46	311.29
570.62	334.70
570.78	351.08
570.95	315.97
571.11	320.65
571.27	372.15
571.43	280.86
571.60	320.65
571.76	348.74
571.92	322.99
572.09	325.33
572.25	383.85
572.41	285.55
572.57	315.97
572.74	376.83
572.90	437.68
573.06	393.21
573.22	341.72
573.38	355.76
573.55	386.19
573.71	369.80
573.87	386.19
574.03	411.93
574.20	362.78
574.36	264.48
574.52	269.16
574.68	337.04
574.84	290.23
575.01	332.36
575.17	381.51
575.33	285.55
575.49	390.87
575.65	362.78
575.82	320.65
575.98	414.27
576.14	365.12
576.30	374.49
576.46	315.97
576.62	332.36
576.79	397.89
576.95	388.53
577.11	308.95
577.27	266.82
577.43	322.99
577.59	360.44
577.75	379.17
577.92	386.19
578.08	318.31
578.24	344.06
578.40	416.62
578.56	400.23
578.72	395.55
578.88	299.59
579.04	344.06
579.21	388.53
579.37	365.12
579.53	308.95
579.69	346.40
579.85	304.27
580.01	334.70
580.17	339.38
580.33	395.55
580.49	430.66
580.65	341.72
580.82	383.85
580.98	320.65
581.14	255.12
581.30	372.15
581.46	374.49
581.62	360.44
581.78	327.68
581.94	379.17
582.10	433.00
582.26	327.68
582.42	311.29
582.58	393.21
582.74	367.46
582.90	325.33
583.06	369.80
583.22	280.86
583.38	362.78
583.54	369.80
583.70	383.85
583.86	353.42
584.02	360.44
584.18	372.15
584.34	362.78
584.50	285.55
584.66	341.72
584.82	339.38
584.98	318.31
585.14	287.89
585.30	355.76
585.46	248.10
585.62	322.99
585.78	372.15
585.94	362.78
586.10	425.98
586.26	292.57
586.42	425.98
586.58	337.04
586.74	334.70
586.90	440.02
587.06	337.04
587.22	299.59
587.38	299.59
587.54	301.93
587.70	369.80
587.86	362.78
588.02	313.63
588.18	313.63
588.34	276.18
588.49	266.82
588.65	238.73
588.81	285.55
588.97	372.15
589.13	311.29
589.29	266.82
589.45	334.70
589.61	285.55
589.77	250.44
589.93	306.61
590.08	287.89
590.24	191.92
590.40	273.84
590.56	238.73
590.72	327.68
590.88	308.95
591.04	330.02
591.20	259.80
591.35	322.99
591.51	308.95
591.67	266.82
591.83	292.57
591.99	322.99
592.15	280.86
592.31	292.57
592.46	337.04
592.62	297.25
592.78	231.71
592.94	360.44
593.10	306.61
593.26	187.24
593.41	337.04
593.57	395.55
593.73	362.78
593.89	236.39
594.05	381.51
594.20	259.80
594.36	262.14
594.52	266.82
594.68	280.86
594.84	332.36
594.99	341.72
595.15	337.04
595.31	304.27
595.47	299.59
595.62	344.06
595.78	273.84
595.94	365.12
596.10	334.70
596.25	278.52
596.41	355.76
596.57	262.14
596.73	292.57
596.88	330.02
597.04	294.91
597.20	318.31
597.36	278.52
597.51	290.23
597.67	299.59
597.83	372.15
597.99	299.59
598.14	252.78
598.30	414.27
598.46	301.93
598.61	337.04
598.77	273.84
598.93	285.55
599.09	458.74
599.24	301.93
599.40	322.99
599.56	266.82
599.71	238.73
599.87	339.38
600.03	355.76
600.18	320.65
600.34	320.65
600.50	360.44
600.65	365.12
600.81	334.70
600.97	334.70
601.12	322.99
601.28	283.20
601.44	283.20
601.59	383.85
601.75	297.25
601.91	367.46
602.06	308.95
602.22	322.99
602.37	344.06
602.53	262.14
602.69	348.74
602.84	264.48
603.00	234.05
603.16	372.15
603.31	301.93
603.47	297.25
603.62	330.02
603.78	337.04
603.94	337.04
604.09	308.95
604.25	337.04
604.40	400.23
604.56	348.74
604.71	259.80
604.87	248.10
605.03	341.72
605.18	313.63
605.34	362.78
605.49	346.40
605.65	376.83
605.80	255.12
605.96	318.31
606.12	327.68
606.27	348.74
606.43	330.02
606.58	402.57
606.74	369.80
606.89	259.80
607.05	402.57
607.20	285.55
607.36	287.89
607.51	262.14
607.67	297.25
607.82	362.78
607.98	334.70
608.13	344.06
608.29	346.40
608.44	360.44
608.60	367.46
608.75	283.20
608.91	334.70
609.06	311.29
609.22	332.36
609.37	255.12
609.53	308.95
609.68	290.23
609.84	313.63
609.99	306.61
610.15	325.33
610.30	308.95
610.46	376.83
610.61	292.57
610.76	339.38
610.92	332.36
611.07	327.68
611.23	348.74
611.38	315.97
611.54	348.74
611.69	315.97
611.84	315.97
612.00	250.44
612.15	276.18
612.31	311.29
612.46	292.57
612.62	362.78
612.77	351.08
612.92	315.97
613.08	351.08
613.23	351.08
613.39	301.93
613.54	294.91
613.69	283.20
613.85	215.33
614.00	266.82
614.15	276.18
614.31	330.02
614.46	325.33
614.62	285.55
614.77	332.36
614.92	250.44
615.08	360.44
615.23	308.95
615.38	327.68
615.54	287.89
615.69	330.02
615.84	315.97
616.00	257.46
616.15	234.05
616.30	290.23
616.46	320.65
616.61	238.73
616.76	409.59
616.92	285.55
617.07	308.95
617.22	304.27
617.37	301.93
617.53	287.89
617.68	313.63
617.83	358.10
617.99	320.65
618.14	283.20
618.29	280.86
618.45	301.93
618.60	269.16
618.75	280.86
618.90	271.50
619.06	222.35
619.21	334.70
619.36	264.48
619.51	283.20
619.67	227.03
619.82	308.95
619.97	304.27
620.12	355.76
620.28	243.42
620.43	252.78
620.58	369.80
620.73	210.65
620.89	292.57
621.04	341.72
621.19	376.83
621.34	299.59
621.49	222.35
621.65	276.18
621.80	313.63
621.95	229.37
622.10	322.99
622.25	273.84
622.41	290.23
622.56	339.38
622.71	287.89
622.86	308.95
623.01	280.86
623.16	320.65
623.32	308.95
623.47	290.23
623.62	299.59
623.77	259.80
623.92	306.61
624.07	231.71
624.23	337.04
624.38	276.18
624.53	339.38
624.68	318.31
624.83	325.33
624.98	259.80
625.13	229.37
625.29	245.76
625.44	301.93
625.59	255.12
625.74	205.97
625.89	259.80
626.04	334.70
626.19	236.39
626.34	243.42
626.49	287.89
626.65	269.16
626.80	231.71
626.95	238.73
627.10	250.44
627.25	236.39
627.40	236.39
627.55	311.29
627.70	250.44
627.85	229.37
628.00	301.93
628.15	248.10
628.30	250.44
628.45	227.03
628.60	257.46
628.76	278.52
628.91	278.52
629.06	320.65
629.21	264.48
629.36	290.23
629.51	269.16
629.66	306.61
629.81	234.05
629.96	276.18
630.11	285.55
630.26	220.01
630.41	250.44
630.56	189.58
630.71	187.24
630.86	306.61
631.01	184.90
631.16	257.46
631.31	325.33
631.46	273.84
631.61	224.69
631.76	252.78
631.91	290.23
632.06	278.52
632.21	262.14
632.36	236.39
632.51	297.25
632.66	229.37
632.81	238.73
632.96	248.10
633.10	255.12
633.25	283.20
633.40	236.39
633.55	243.42
633.70	191.92
633.85	248.10
634.00	248.10
634.15	236.39
634.30	229.37
634.45	414.27
634.60	294.91
634.75	250.44
634.90	259.80
635.05	229.37
635.19	297.25
635.34	220.01
635.49	187.24
635.64	241.08
635.79	234.05
635.94	224.69
636.09	259.80
636.24	266.82
636.39	245.76
636.53	358.10
636.68	236.39
636.83	257.46
636.98	245.76
637.13	259.80
637.28	220.01
637.43	327.68
637.57	290.23
637.72	259.80
637.87	234.05
638.02	201.29
638.17	224.69
638.32	266.82
638.46	257.46
638.61	271.50
638.76	229.37
638.91	191.92
639.06	241.08
639.20	245.76
639.35	252.78
639.50	264.48
639.65	250.44
639.80	283.20
639.94	191.92
640.09	285.55
640.24	318.31
640.39	278.52
640.54	292.57
640.68	234.05
640.83	212.99
640.98	191.92
641.13	257.46
641.27	231.71
641.42	287.89
641.57	273.84
641.72	266.82
641.86	205.97
642.01	217.67
642.16	248.10
642.31	262.14
642.45	339.38
642.60	315.97
642.75	198.95
642.90	238.73
643.04	212.99
643.19	194.26
643.34	241.08
643.48	280.86
643.63	229.37
643.78	252.78
643.93	287.89
644.07	205.97
644.22	231.71
644.37	175.54
644.51	294.91
644.66	189.58
644.81	264.48
644.95	259.80
645.10	262.14
645.25	212.99
645.39	220.01
645.54	248.10
645.69	229.37
645.83	201.29
645.98	311.29
646.13	262.14
646.27	222.35
646.42	255.12
646.57	205.97
646.71	175.54
646.86	175.54
647.00	320.65
647.15	283.20
647.30	205.97
647.44	196.60
647.59	173.20
647.74	194.26
647.88	250.44
648.03	189.58
648.17	285.55
648.32	173.20
648.47	198.95
648.61	177.88
648.76	257.46
648.90	231.71
649.05	231.71
649.20	215.33
649.34	252.78
649.49	250.44
649.63	215.33
649.78	229.37
649.92	159.16
650.07	212.99
650.21	184.90
650.36	250.44
650.51	210.65
650.65	257.46
650.80	241.08
650.94	283.20
651.09	180.22
651.23	205.97
651.38	161.50
651.52	128.73
651.67	241.08
651.81	322.99
651.96	332.36
652.10	278.52
652.25	262.14
652.39	236.39
652.54	231.71
652.68	276.18
652.83	156.82
652.97	191.92
653.12	161.50
653.26	227.03
653.41	259.80
653.55	299.59
653.70	173.20
653.84	262.14
653.99	227.03
654.13	147.45
654.27	187.24
654.42	229.37
654.56	198.95
654.71	231.71
654.85	257.46
655.00	198.95
655.14	184.90
655.29	184.90
655.43	175.54
655.57	227.03
655.72	182.56
655.86	187.24
656.01	238.73
656.15	212.99
656.30	224.69
656.44	175.54
656.58	203.63
656.73	220.01
656.87	198.95
657.01	236.39
657.16	231.71
657.30	241.08
657.45	229.37
657.59	217.67
657.73	217.67
657.88	203.63
658.02	271.50
658.16	175.54
658.31	269.16
658.45	131.07
658.60	227.03
658.74	194.26
658.88	187.24
659.03	276.18
659.17	252.78
659.31	163.84
659.46	217.67
659.60	173.20
659.74	170.86
659.89	187.24
660.03	170.86
660.17	287.89
660.32	180.22
660.46	217.67
660.60	227.03
660.74	203.63
660.89	273.84
661.03	227.03
661.17	191.92
661.32	180.22
661.46	248.10
661.60	245.76
661.74	156.82
661.89	180.22
662.03	135.75
662.17	257.46
662.31	220.01
662.46	166.18
662.60	198.95
662.74	257.46
662.88	262.14
663.03	205.97
663.17	210.65
663.31	205.97
663.45	201.29
663.60	196.60
663.74	191.92
663.88	250.44
664.02	210.65
664.17	187.24
664.31	175.54
664.45	222.35
664.59	215.33
664.73	203.63
664.88	297.25
665.02	105.32
665.16	187.24
665.30	191.92
665.44	224.69
665.59	215.33
665.73	234.05
665.87	229.37
666.01	245.76
666.15	177.88
666.29	152.13
666.44	252.78
666.58	294.91
666.72	215.33
666.86	210.65
667.00	210.65
667.14	175.54
667.28	142.77
667.43	203.63
667.57	142.77
667.71	163.84
667.85	180.22
667.99	224.69
668.13	220.01
668.27	243.42
668.41	224.69
668.56	131.07
668.70	227.03
668.84	217.67
668.98	217.67
669.12	217.67
669.26	234.05
669.40	259.80
669.54	196.60
669.68	241.08
669.82	184.90
669.96	250.44
670.10	208.31
670.25	177.88
670.39	252.78
670.53	189.58
670.67	280.86
670.81	205.97
670.95	161.50
671.09	189.58
671.23	276.18
671.37	201.29
671.51	203.63
671.65	168.52
671.79	175.54
671.93	212.99
672.07	180.22
672.21	173.20
672.35	191.92
672.49	255.12
672.63	191.92
672.77	243.42
672.91	257.46
673.05	203.63
673.19	180.22
673.33	201.29
673.47	315.97
673.61	142.77
673.75	198.95
673.89	210.65
674.03	159.16
674.17	175.54
674.31	217.67
674.45	224.69
674.59	124.05
674.73	205.97
674.87	184.90
675.01	177.88
675.15	149.79
675.29	173.20
675.43	236.39
675.56	241.08
675.70	217.67
675.84	173.20
675.98	215.33
676.12	173.20
676.26	196.60
676.40	241.08
676.54	212.99
676.68	135.75
676.82	203.63
676.96	149.79
677.10	156.82
677.23	133.41
677.37	238.73
677.51	229.37
677.65	196.60
677.79	182.56
677.93	173.20
678.07	229.37
678.21	220.01
678.34	173.20
678.48	140.43
678.62	173.20
678.76	175.54
678.90	198.95
679.04	95.96
679.18	236.39
679.31	102.98
679.45	168.52
679.59	170.86
679.73	156.82
679.87	236.39
680.00	177.88
680.14	173.20
680.28	208.31
680.42	124.05
680.56	182.56
680.70	147.45
680.83	280.86
680.97	234.05
681.11	180.22
681.25	271.50
681.39	187.24
681.52	208.31
681.66	201.29
681.80	196.60
681.94	182.56
682.07	140.43
682.21	252.78
682.35	140.43
682.49	149.79
682.62	255.12
682.76	208.31
682.90	166.18
683.04	203.63
683.17	166.18
683.31	124.05
683.45	201.29
683.59	170.86
683.72	166.18
683.86	227.03
684.00	161.50
684.13	177.88
684.27	194.26
684.41	201.29
684.55	81.92
684.68	201.29
684.82	145.11
684.96	168.52
685.09	100.64
685.23	170.86
685.37	227.03
685.50	163.84
685.64	285.55
685.78	229.37
685.91	135.75
686.05	234.05
686.19	182.56
686.32	147.45
686.46	173.20
686.60	163.84
686.73	175.54
686.87	182.56
687.01	163.84
687.14	182.56
687.28	184.90
687.42	142.77
687.55	93.62
687.69	210.65
687.82	91.28
687.96	81.92
688.10	238.73
688.23	133.41
688.37	245.76
688.50	135.75
688.64	161.50
688.78	154.48
688.91	131.07
689.05	156.82
689.18	23.41
689.32	102.98
689.46	44.47
689.59	187.24
689.73	184.90
689.86	198.95
690.00	152.13
690.13	100.64
690.27	149.79
690.41	198.95
690.54	161.50
690.68	117.03
690.81	187.24
690.95	135.75
691.08	166.18
691.22	112.35
691.35	114.69
691.49	98.30
691.62	196.60
691.76	138.09
691.89	110.01
692.03	70.22
692.16	133.41
692.30	198.95
692.43	149.79
692.57	86.60
692.70	133.41
692.84	175.54
692.97	131.07
693.11	133.41
693.24	56.17
693.38	135.75
693.51	149.79
693.65	131.07
693.78	107.66
693.92	107.66
694.05	56.17
694.19	133.41
694.32	102.98
694.45	161.50
694.59	119.37
694.72	131.07
694.86	187.24
694.99	161.50
695.13	114.69
695.26	102.98
695.39	107.66
695.53	205.97
695.66	119.37
695.80	140.43
695.93	170.86
696.07	189.58
696.20	67.88
696.33	175.54
696.47	149.79
696.60	128.73
696.73	210.65
696.87	142.77
697.00	222.35
697.14	220.01
697.27	114.69
697.40	191.92
697.54	121.71
697.67	102.98
697.80	222.35
697.94	135.75
698.07	121.71
698.21	119.37
698.34	131.07
698.47	131.07
698.61	112.35
698.74	170.86
698.87	135.75
699.01	124.05
699.14	46.81
699.27	140.43
699.40	212.99
699.54	135.75
699.67	194.26
699.80	140.43
699.94	145.11
700.07	196.60
700.20	91.28
700.34	159.16
700.47	91.28
700.60	159.16
700.73	210.65
700.87	229.37
701.00	159.16
701.13	28.09
701.26	102.98
701.40	149.79
701.53	133.41
701.66	77.24
701.79	152.13
701.93	98.30
702.06	149.79
702.19	117.03
702.32	191.92
702.46	117.03
702.59	110.01
702.72	126.39
702.85	126.39
702.99	163.84
703.12	142.77
703.25	145.11
703.38	156.82
703.51	142.77
703.65	88.94
703.78	227.03
703.91	65.54
704.04	212.99
704.17	110.01
704.31	131.07
704.44	63.19
704.57	77.24
704.70	37.45
704.83	77.24
704.96	65.54
705.10	117.03
705.23	112.35
>>>>>End Processed Spectral Data<<<<<
