SpectraSuite Data File
++++++++++++++++++++++++++++++++++++
Date: Fri Oct 04 11:47:13 GMT-05:00 2013
User: price-jones
Dark Spectrum Present: No
Reference Spectrum Present: No
Number of Sampled Component Spectra: 1
Spectrometers: USB2+H05261
Integration Time (usec): 100000 (USB2+H05261)
Spectra Averaged: 1 (USB2+H05261)
Boxcar Smoothing: 0 (USB2+H05261)
Correct for Electrical Dark: No (USB2+H05261)
Strobe/Lamp Enabled: No (USB2+H05261)
Correct for Detector Non-linearity: No (USB2+H05261)
Correct for Stray Light: No (USB2+H05261)
Number of Pixels in Processed Spectrum: 2048
>>>>>Begin Processed Spectral Data<<<<<
365.73	0.00
365.92	0.00
366.12	0.00
366.32	9.36
366.52	0.00
366.72	14.04
366.91	0.00
367.11	0.00
367.31	0.00
367.51	0.00
367.70	0.00
367.90	0.00
368.10	0.00
368.30	0.00
368.49	0.00
368.69	0.00
368.89	0.00
369.09	0.00
369.28	0.00
369.48	0.00
369.68	0.00
369.87	0.00
370.07	0.00
370.27	23.41
370.47	14.04
370.66	0.00
370.86	32.77
371.06	70.22
371.25	119.37
371.45	93.62
371.65	74.90
371.84	25.75
372.04	23.41
372.24	32.77
372.44	81.92
372.63	86.60
372.83	140.43
373.03	102.98
373.22	77.24
373.42	0.00
373.62	126.39
373.81	126.39
374.01	86.60
374.21	119.37
374.40	145.11
374.60	121.71
374.79	135.75
374.99	98.30
375.19	56.17
375.38	145.11
375.58	84.26
375.78	18.72
375.97	163.84
376.17	166.18
376.37	72.56
376.56	128.73
376.76	88.94
376.95	81.92
377.15	182.56
377.35	93.62
377.54	114.69
377.74	135.75
377.93	53.83
378.13	86.60
378.33	112.35
378.52	63.19
378.72	95.96
378.91	88.94
379.11	107.66
379.31	98.30
379.50	74.90
379.70	149.79
379.89	98.30
380.09	79.58
380.28	9.36
380.48	131.07
380.68	91.28
380.87	70.22
381.07	86.60
381.26	81.92
381.46	126.39
381.65	133.41
381.85	53.83
382.04	117.03
382.24	128.73
382.43	74.90
382.63	77.24
382.83	46.81
383.02	93.62
383.22	142.77
383.41	35.11
383.61	88.94
383.80	147.45
384.00	81.92
384.19	35.11
384.39	51.49
384.58	131.07
384.78	74.90
384.97	86.60
385.17	32.77
385.36	72.56
385.56	65.54
385.75	37.45
385.95	102.98
386.14	121.71
386.34	84.26
386.53	44.47
386.72	58.51
386.92	131.07
387.11	156.82
387.31	159.16
387.50	110.01
387.70	53.83
387.89	131.07
388.09	65.54
388.28	56.17
388.48	11.70
388.67	88.94
388.86	56.17
389.06	23.41
389.25	98.30
389.45	93.62
389.64	84.26
389.84	112.35
390.03	4.68
390.22	88.94
390.42	138.09
390.61	30.43
390.81	49.15
391.00	65.54
391.19	95.96
391.39	72.56
391.58	88.94
391.78	95.96
391.97	93.62
392.16	84.26
392.36	149.79
392.55	121.71
392.75	133.41
392.94	119.37
393.13	119.37
393.33	114.69
393.52	117.03
393.71	91.28
393.91	51.49
394.10	21.06
394.29	56.17
394.49	65.54
394.68	159.16
394.88	135.75
395.07	180.22
395.26	112.35
395.46	135.75
395.65	126.39
395.84	147.45
396.04	203.63
396.23	100.64
396.42	100.64
396.62	138.09
396.81	65.54
397.00	30.43
397.19	93.62
397.39	102.98
397.58	114.69
397.77	58.51
397.97	77.24
398.16	44.47
398.35	91.28
398.55	58.51
398.74	145.11
398.93	166.18
399.12	117.03
399.32	110.01
399.51	46.81
399.70	100.64
399.90	102.98
400.09	191.92
400.28	77.24
400.47	110.01
400.67	140.43
400.86	102.98
401.05	77.24
401.24	138.09
401.44	98.30
401.63	161.50
401.82	121.71
402.01	44.47
402.21	74.90
402.40	135.75
402.59	98.30
402.78	100.64
402.97	105.32
403.17	107.66
403.36	142.77
403.55	131.07
403.74	131.07
403.93	110.01
404.13	156.82
404.32	44.47
404.51	107.66
404.70	124.05
404.89	63.19
405.09	161.50
405.28	114.69
405.47	39.79
405.66	98.30
405.85	84.26
406.05	77.24
406.24	175.54
406.43	161.50
406.62	67.88
406.81	95.96
407.00	124.05
407.20	65.54
407.39	110.01
407.58	110.01
407.77	112.35
407.96	138.09
408.15	145.11
408.34	107.66
408.54	42.13
408.73	110.01
408.92	102.98
409.11	44.47
409.30	198.95
409.49	21.06
409.68	63.19
409.87	81.92
410.07	74.90
410.26	91.28
410.45	119.37
410.64	102.98
410.83	77.24
411.02	131.07
411.21	205.97
411.40	117.03
411.59	102.98
411.78	67.88
411.98	86.60
412.17	95.96
412.36	102.98
412.55	107.66
412.74	133.41
412.93	107.66
413.12	100.64
413.31	60.85
413.50	84.26
413.69	124.05
413.88	166.18
414.07	168.52
414.26	145.11
414.45	51.49
414.64	149.79
414.83	128.73
415.02	72.56
415.22	105.32
415.41	198.95
415.60	138.09
415.79	81.92
415.98	184.90
416.17	60.85
416.36	79.58
416.55	98.30
416.74	98.30
416.93	170.86
417.12	79.58
417.31	86.60
417.50	126.39
417.69	131.07
417.88	124.05
418.07	119.37
418.26	102.98
418.45	140.43
418.64	156.82
418.83	112.35
419.02	124.05
419.21	98.30
419.39	117.03
419.58	147.45
419.77	126.39
419.96	145.11
420.15	210.65
420.34	138.09
420.53	142.77
420.72	95.96
420.91	91.28
421.10	175.54
421.29	131.07
421.48	93.62
421.67	140.43
421.86	187.24
422.05	135.75
422.24	149.79
422.43	147.45
422.61	37.45
422.80	100.64
422.99	91.28
423.18	107.66
423.37	201.29
423.56	79.58
423.75	194.26
423.94	156.82
424.13	107.66
424.32	100.64
424.50	124.05
424.69	163.84
424.88	133.41
425.07	112.35
425.26	131.07
425.45	201.29
425.64	133.41
425.83	117.03
426.01	105.32
426.20	79.58
426.39	128.73
426.58	175.54
426.77	88.94
426.96	161.50
427.15	210.65
427.33	91.28
427.52	91.28
427.71	147.45
427.90	149.79
428.09	88.94
428.28	124.05
428.46	119.37
428.65	147.45
428.84	44.47
429.03	191.92
429.22	128.73
429.40	70.22
429.59	147.45
429.78	201.29
429.97	51.49
430.16	131.07
430.34	58.51
430.53	37.45
430.72	138.09
430.91	88.94
431.10	128.73
431.28	67.88
431.47	149.79
431.66	81.92
431.85	159.16
432.03	98.30
432.22	159.16
432.41	131.07
432.60	182.56
432.79	112.35
432.97	133.41
433.16	166.18
433.35	117.03
433.54	121.71
433.72	154.48
433.91	91.28
434.10	128.73
434.28	124.05
434.47	215.33
434.66	131.07
434.85	142.77
435.03	93.62
435.22	152.13
435.41	170.86
435.59	140.43
435.78	184.90
435.97	70.22
436.16	163.84
436.34	84.26
436.53	102.98
436.72	180.22
436.90	161.50
437.09	84.26
437.28	159.16
437.46	98.30
437.65	107.66
437.84	105.32
438.02	133.41
438.21	117.03
438.40	67.88
438.58	140.43
438.77	102.98
438.96	84.26
439.14	133.41
439.33	201.29
439.52	102.98
439.70	110.01
439.89	121.71
440.08	128.73
440.26	88.94
440.45	159.16
440.63	81.92
440.82	102.98
441.01	159.16
441.19	135.75
441.38	119.37
441.57	102.98
441.75	168.52
441.94	131.07
442.12	93.62
442.31	126.39
442.50	154.48
442.68	159.16
442.87	95.96
443.05	121.71
443.24	142.77
443.43	182.56
443.61	149.79
443.80	114.69
443.98	126.39
444.17	74.90
444.35	84.26
444.54	126.39
444.73	138.09
444.91	121.71
445.10	161.50
445.28	119.37
445.47	119.37
445.65	98.30
445.84	145.11
446.02	124.05
446.21	135.75
446.39	177.88
446.58	121.71
446.77	128.73
446.95	175.54
447.14	152.13
447.32	161.50
447.51	203.63
447.69	138.09
447.88	131.07
448.06	98.30
448.25	191.92
448.43	128.73
448.62	177.88
448.80	173.20
448.99	152.13
449.17	131.07
449.36	102.98
449.54	175.54
449.73	142.77
449.91	170.86
450.10	39.79
450.28	154.48
450.46	187.24
450.65	252.78
450.83	177.88
451.02	182.56
451.20	105.32
451.39	147.45
451.57	114.69
451.76	182.56
451.94	173.20
452.13	86.60
452.31	124.05
452.49	173.20
452.68	135.75
452.86	203.63
453.05	180.22
453.23	163.84
453.42	95.96
453.60	163.84
453.78	166.18
453.97	154.48
454.15	149.79
454.34	121.71
454.52	156.82
454.70	74.90
454.89	133.41
455.07	93.62
455.26	156.82
455.44	166.18
455.62	138.09
455.81	98.30
455.99	133.41
456.17	124.05
456.36	67.88
456.54	105.32
456.73	102.98
456.91	124.05
457.09	220.01
457.28	159.16
457.46	119.37
457.64	217.67
457.83	152.13
458.01	79.58
458.19	184.90
458.38	100.64
458.56	88.94
458.74	126.39
458.93	110.01
459.11	159.16
459.29	180.22
459.48	154.48
459.66	177.88
459.84	100.64
460.03	245.76
460.21	168.52
460.39	74.90
460.57	114.69
460.76	117.03
460.94	145.11
461.12	180.22
461.31	203.63
461.49	133.41
461.67	177.88
461.85	131.07
462.04	112.35
462.22	594.50
462.40	159.16
462.59	86.60
462.77	63.19
462.95	112.35
463.13	152.13
463.32	156.82
463.50	102.98
463.68	107.66
463.86	95.96
464.05	128.73
464.23	131.07
464.41	140.43
464.59	147.45
464.78	191.92
464.96	140.43
465.14	152.13
465.32	147.45
465.50	159.16
465.69	138.09
465.87	147.45
466.05	114.69
466.23	95.96
466.41	156.82
466.60	93.62
466.78	126.39
466.96	205.97
467.14	133.41
467.32	170.86
467.51	156.82
467.69	126.39
467.87	140.43
468.05	156.82
468.23	152.13
468.41	147.45
468.60	107.66
468.78	133.41
468.96	145.11
469.14	128.73
469.32	117.03
469.50	100.64
469.69	93.62
469.87	138.09
470.05	147.45
470.23	138.09
470.41	177.88
470.59	88.94
470.77	168.52
470.95	112.35
471.14	170.86
471.32	159.16
471.50	138.09
471.68	110.01
471.86	166.18
472.04	138.09
472.22	124.05
472.40	154.48
472.58	117.03
472.77	110.01
472.95	131.07
473.13	194.26
473.31	142.77
473.49	84.26
473.67	86.60
473.85	156.82
474.03	166.18
474.21	58.51
474.39	114.69
474.57	140.43
474.75	126.39
474.93	194.26
475.12	93.62
475.30	149.79
475.48	215.33
475.66	88.94
475.84	107.66
476.02	114.69
476.20	168.52
476.38	98.30
476.56	187.24
476.74	119.37
476.92	145.11
477.10	102.98
477.28	205.97
477.46	145.11
477.64	248.10
477.82	149.79
478.00	147.45
478.18	173.20
478.36	140.43
478.54	142.77
478.72	121.71
478.90	149.79
479.08	100.64
479.26	93.62
479.44	112.35
479.62	191.92
479.80	102.98
479.98	161.50
480.16	184.90
480.34	107.66
480.52	205.97
480.70	194.26
480.88	98.30
481.06	184.90
481.24	154.48
481.41	170.86
481.59	205.97
481.77	142.77
481.95	177.88
482.13	210.65
482.31	142.77
482.49	154.48
482.67	161.50
482.85	168.52
483.03	107.66
483.21	152.13
483.39	234.05
483.57	191.92
483.74	184.90
483.92	145.11
484.10	166.18
484.28	184.90
484.46	205.97
484.64	180.22
484.82	124.05
485.00	154.48
485.18	205.97
485.35	236.39
485.53	138.09
485.71	126.39
485.89	93.62
486.07	100.64
486.25	212.99
486.43	131.07
486.61	147.45
486.78	255.12
486.96	196.60
487.14	159.16
487.32	168.52
487.50	215.33
487.68	133.41
487.85	126.39
488.03	147.45
488.21	175.54
488.39	161.50
488.57	177.88
488.75	224.69
488.92	423.64
489.10	128.73
489.28	191.92
489.46	147.45
489.64	173.20
489.81	184.90
489.99	138.09
490.17	133.41
490.35	177.88
490.53	154.48
490.70	110.01
490.88	203.63
491.06	154.48
491.24	161.50
491.41	248.10
491.59	168.52
491.77	234.05
491.95	140.43
492.13	161.50
492.30	180.22
492.48	170.86
492.66	191.92
492.84	170.86
493.01	234.05
493.19	117.03
493.37	231.71
493.54	166.18
493.72	222.35
493.90	201.29
494.08	156.82
494.25	187.24
494.43	198.95
494.61	147.45
494.79	149.79
494.96	156.82
495.14	194.26
495.32	114.69
495.49	182.56
495.67	119.37
495.85	156.82
496.02	72.56
496.20	191.92
496.38	255.12
496.55	184.90
496.73	201.29
496.91	248.10
497.09	168.52
497.26	220.01
497.44	140.43
497.62	177.88
497.79	138.09
497.97	159.16
498.14	182.56
498.32	222.35
498.50	191.92
498.67	177.88
498.85	196.60
499.03	124.05
499.20	210.65
499.38	126.39
499.56	173.20
499.73	255.12
499.91	149.79
500.08	128.73
500.26	227.03
500.44	168.52
500.61	241.08
500.79	154.48
500.97	133.41
501.14	210.65
501.32	203.63
501.49	201.29
501.67	175.54
501.84	198.95
502.02	161.50
502.20	222.35
502.37	170.86
502.55	173.20
502.72	227.03
502.90	210.65
503.07	154.48
503.25	124.05
503.43	145.11
503.60	128.73
503.78	198.95
503.95	170.86
504.13	238.73
504.30	201.29
504.48	203.63
504.65	191.92
504.83	196.60
505.01	245.76
505.18	184.90
505.36	259.80
505.53	208.31
505.71	170.86
505.88	196.60
506.06	159.16
506.23	208.31
506.41	224.69
506.58	238.73
506.76	227.03
506.93	201.29
507.11	147.45
507.28	241.08
507.46	220.01
507.63	198.95
507.81	156.82
507.98	191.92
508.16	175.54
508.33	212.99
508.50	243.42
508.68	234.05
508.85	196.60
509.03	161.50
509.20	131.07
509.38	238.73
509.55	208.31
509.73	182.56
509.90	135.75
510.08	166.18
510.25	191.92
510.42	168.52
510.60	166.18
510.77	189.58
510.95	255.12
511.12	222.35
511.30	212.99
511.47	203.63
511.64	205.97
511.82	273.84
511.99	180.22
512.17	159.16
512.34	93.62
512.51	163.84
512.69	161.50
512.86	208.31
513.04	175.54
513.21	203.63
513.38	215.33
513.56	168.52
513.73	184.90
513.90	208.31
514.08	126.39
514.25	145.11
514.43	215.33
514.60	149.79
514.77	184.90
514.95	220.01
515.12	168.52
515.29	243.42
515.47	189.58
515.64	203.63
515.81	231.71
515.99	187.24
516.16	231.71
516.33	220.01
516.51	217.67
516.68	184.90
516.85	149.79
517.03	205.97
517.20	217.67
517.37	112.35
517.54	215.33
517.72	175.54
517.89	154.48
518.06	79.58
518.24	220.01
518.41	163.84
518.58	205.97
518.75	77.24
518.93	117.03
519.10	217.67
519.27	234.05
519.45	227.03
519.62	173.20
519.79	133.41
519.96	194.26
520.14	203.63
520.31	238.73
520.48	236.39
520.65	311.29
520.83	191.92
521.00	250.44
521.17	191.92
521.34	112.35
521.52	196.60
521.69	161.50
521.86	210.65
522.03	203.63
522.20	313.63
522.38	161.50
522.55	201.29
522.72	161.50
522.89	177.88
523.07	255.12
523.24	147.45
523.41	168.52
523.58	159.16
523.75	215.33
523.92	175.54
524.10	166.18
524.27	276.18
524.44	170.86
524.61	208.31
524.78	154.48
524.96	194.26
525.13	262.14
525.30	210.65
525.47	227.03
525.64	252.78
525.81	250.44
525.98	271.50
526.16	215.33
526.33	156.82
526.50	152.13
526.67	166.18
526.84	203.63
527.01	161.50
527.18	252.78
527.36	191.92
527.53	210.65
527.70	168.52
527.87	241.08
528.04	231.71
528.21	250.44
528.38	161.50
528.55	231.71
528.72	175.54
528.89	238.73
529.07	168.52
529.24	229.37
529.41	210.65
529.58	212.99
529.75	175.54
529.92	252.78
530.09	252.78
530.26	248.10
530.43	191.92
530.60	166.18
530.77	205.97
530.94	227.03
531.11	196.60
531.28	191.92
531.46	198.95
531.63	205.97
531.80	210.65
531.97	217.67
532.14	170.86
532.31	238.73
532.48	231.71
532.65	161.50
532.82	224.69
532.99	147.45
533.16	142.77
533.33	117.03
533.50	245.76
533.67	227.03
533.84	224.69
534.01	259.80
534.18	166.18
534.35	194.26
534.52	217.67
534.69	306.61
534.86	231.71
535.03	187.24
535.20	168.52
535.37	250.44
535.54	180.22
535.71	184.90
535.88	266.82
536.05	187.24
536.22	224.69
536.38	161.50
536.55	187.24
536.72	229.37
536.89	140.43
537.06	208.31
537.23	163.84
537.40	203.63
537.57	203.63
537.74	250.44
537.91	266.82
538.08	191.92
538.25	161.50
538.42	245.76
538.59	224.69
538.75	252.78
538.92	147.45
539.09	224.69
539.26	168.52
539.43	280.86
539.60	365.12
539.77	404.91
539.94	430.66
540.11	351.08
540.28	290.23
540.44	292.57
540.61	173.20
540.78	177.88
540.95	187.24
541.12	217.67
541.29	217.67
541.46	217.67
541.62	241.08
541.79	131.07
541.96	152.13
542.13	191.92
542.30	177.88
542.47	203.63
542.63	175.54
542.80	189.58
542.97	166.18
543.14	140.43
543.31	173.20
543.48	152.13
543.64	189.58
543.81	196.60
543.98	212.99
544.15	215.33
544.32	182.56
544.48	287.89
544.65	212.99
544.82	147.45
544.99	114.69
545.16	201.29
545.32	194.26
545.49	187.24
545.66	177.88
545.83	180.22
546.00	168.52
546.16	255.12
546.33	166.18
546.50	259.80
546.67	194.26
546.83	222.35
547.00	168.52
547.17	145.11
547.34	194.26
547.50	215.33
547.67	182.56
547.84	182.56
548.00	201.29
548.17	238.73
548.34	182.56
548.51	276.18
548.67	159.16
548.84	196.60
549.01	208.31
549.18	227.03
549.34	154.48
549.51	194.26
549.68	201.29
549.84	159.16
550.01	124.05
550.18	231.71
550.34	294.91
550.51	177.88
550.68	262.14
550.84	177.88
551.01	163.84
551.18	187.24
551.34	205.97
551.51	156.82
551.68	152.13
551.84	231.71
552.01	187.24
552.18	175.54
552.34	212.99
552.51	196.60
552.68	212.99
552.84	236.39
553.01	189.58
553.18	271.50
553.34	285.55
553.51	163.84
553.67	210.65
553.84	238.73
554.01	234.05
554.17	177.88
554.34	128.73
554.51	229.37
554.67	173.20
554.84	236.39
555.00	161.50
555.17	187.24
555.33	234.05
555.50	245.76
555.67	238.73
555.83	198.95
556.00	208.31
556.16	369.80
556.33	198.95
556.50	182.56
556.66	175.54
556.83	229.37
556.99	182.56
557.16	196.60
557.32	147.45
557.49	222.35
557.65	294.91
557.82	231.71
557.98	147.45
558.15	159.16
558.32	252.78
558.48	175.54
558.65	140.43
558.81	236.39
558.98	159.16
559.14	241.08
559.31	194.26
559.47	212.99
559.64	187.24
559.80	182.56
559.97	177.88
560.13	227.03
560.30	227.03
560.46	161.50
560.63	212.99
560.79	196.60
560.96	194.26
561.12	205.97
561.29	175.54
561.45	208.31
561.61	245.76
561.78	283.20
561.94	287.89
562.11	208.31
562.27	189.58
562.44	222.35
562.60	138.09
562.77	177.88
562.93	306.61
563.10	182.56
563.26	163.84
563.42	290.23
563.59	194.26
563.75	114.69
563.92	208.31
564.08	161.50
564.24	152.13
564.41	152.13
564.57	124.05
564.74	217.67
564.90	248.10
565.07	257.46
565.23	257.46
565.39	152.13
565.56	156.82
565.72	126.39
565.88	224.69
566.05	154.48
566.21	114.69
566.38	191.92
566.54	163.84
566.70	224.69
566.87	205.97
567.03	201.29
567.19	182.56
567.36	196.60
567.52	220.01
567.68	243.42
567.85	187.24
568.01	168.52
568.17	198.95
568.34	166.18
568.50	212.99
568.66	187.24
568.83	278.52
568.99	196.60
569.15	189.58
569.32	215.33
569.48	198.95
569.64	128.73
569.81	236.39
569.97	177.88
570.13	201.29
570.30	203.63
570.46	229.37
570.62	212.99
570.78	152.13
570.95	149.79
571.11	198.95
571.27	271.50
571.43	191.92
571.60	259.80
571.76	166.18
571.92	187.24
572.09	222.35
572.25	184.90
572.41	182.56
572.57	224.69
572.74	248.10
572.90	248.10
573.06	198.95
573.22	177.88
573.38	231.71
573.55	166.18
573.71	266.82
573.87	264.48
574.03	229.37
574.20	161.50
574.36	184.90
574.52	159.16
574.68	205.97
574.84	250.44
575.01	191.92
575.17	140.43
575.33	187.24
575.49	175.54
575.65	222.35
575.82	180.22
575.98	320.65
576.14	220.01
576.30	259.80
576.46	243.42
576.62	257.46
576.79	131.07
576.95	238.73
577.11	187.24
577.27	74.90
577.43	229.37
577.59	194.26
577.75	257.46
577.92	229.37
578.08	161.50
578.24	273.84
578.40	245.76
578.56	182.56
578.72	220.01
578.88	187.24
579.04	98.30
579.21	180.22
579.37	112.35
579.53	196.60
579.69	280.86
579.85	168.52
580.01	189.58
580.17	236.39
580.33	262.14
580.49	191.92
580.65	177.88
580.82	147.45
580.98	257.46
581.14	147.45
581.30	168.52
581.46	159.16
581.62	311.29
581.78	236.39
581.94	322.99
582.10	210.65
582.26	215.33
582.42	210.65
582.58	168.52
582.74	208.31
582.90	234.05
583.06	166.18
583.22	182.56
583.38	198.95
583.54	212.99
583.70	266.82
583.86	262.14
584.02	234.05
584.18	339.38
584.34	362.78
584.50	671.73
584.66	4278.50
584.82	10413.04
584.98	14700.90
585.14	12943.16
585.30	8381.46
585.46	5071.94
585.62	3164.40
585.78	1528.37
585.94	751.31
586.10	449.38
586.26	327.68
586.42	308.95
586.58	262.14
586.74	231.71
586.90	271.50
587.06	266.82
587.22	229.37
587.38	212.99
587.54	379.17
587.70	849.61
587.86	1256.87
588.02	1184.31
588.18	945.58
588.34	690.46
588.49	447.04
588.65	344.06
588.81	287.89
588.97	208.31
589.13	220.01
589.29	159.16
589.45	222.35
589.61	215.33
589.77	243.42
589.93	248.10
590.08	229.37
590.24	173.20
590.40	278.52
590.56	273.84
590.72	189.58
590.88	135.75
591.04	177.88
591.20	187.24
591.35	231.71
591.51	149.79
591.67	166.18
591.83	163.84
591.99	168.52
592.15	208.31
592.31	189.58
592.46	201.29
592.62	250.44
592.78	205.97
592.94	147.45
593.10	170.86
593.26	161.50
593.41	229.37
593.57	280.86
593.73	259.80
593.89	734.93
594.05	1432.41
594.20	1963.71
594.36	1926.26
594.52	1226.44
594.68	821.53
594.84	657.69
594.99	470.45
595.15	297.25
595.31	241.08
595.47	269.16
595.62	271.50
595.78	201.29
595.94	184.90
596.10	243.42
596.25	243.42
596.41	236.39
596.57	208.31
596.73	145.11
596.88	191.92
597.04	388.53
597.20	498.53
597.36	550.03
597.51	479.81
597.67	388.53
597.83	269.16
597.99	285.55
598.14	220.01
598.30	187.24
598.46	177.88
598.61	215.33
598.77	215.33
598.93	166.18
599.09	238.73
599.24	271.50
599.40	124.05
599.56	212.99
599.71	236.39
599.87	84.26
600.03	187.24
600.18	184.90
600.34	198.95
600.50	264.48
600.65	168.52
600.81	224.69
600.97	189.58
601.12	105.32
601.28	170.86
601.44	180.22
601.59	201.29
601.75	175.54
601.91	121.71
602.06	198.95
602.22	217.67
602.37	243.42
602.53	449.38
602.69	566.41
602.84	676.41
603.00	507.90
603.16	449.38
603.31	395.55
603.47	238.73
603.62	126.39
603.78	215.33
603.94	121.71
604.09	236.39
604.25	269.16
604.40	224.69
604.56	220.01
604.71	147.45
604.87	121.71
605.03	93.62
605.18	201.29
605.34	229.37
605.49	149.79
605.65	208.31
605.80	196.60
605.96	208.31
606.12	236.39
606.27	196.60
606.43	170.86
606.58	173.20
606.74	276.18
606.89	779.40
607.05	1439.43
607.20	1619.65
607.36	1486.24
607.51	1046.22
607.67	734.93
607.82	507.90
607.98	355.76
608.13	259.80
608.29	245.76
608.44	257.46
608.60	212.99
608.75	252.78
608.91	344.06
609.06	1142.18
609.22	2298.41
609.37	2897.58
609.53	2551.18
609.68	1771.79
609.84	1142.18
609.99	741.95
610.15	571.09
610.30	437.68
610.46	248.10
610.61	205.97
610.76	304.27
610.92	241.08
611.07	245.76
611.23	229.37
611.38	222.35
611.54	110.01
611.69	124.05
611.84	285.55
612.00	215.33
612.15	105.32
612.31	205.97
612.46	215.33
612.62	238.73
612.77	276.18
612.92	220.01
613.08	264.48
613.23	259.80
613.39	227.03
613.54	330.02
613.69	1086.01
613.85	2778.22
614.00	4189.56
614.15	4468.08
614.31	3253.34
614.46	2221.17
614.62	1509.65
614.77	994.73
614.92	491.51
615.08	322.99
615.23	285.55
615.38	294.91
615.54	238.73
615.69	266.82
615.84	767.70
616.00	1060.26
616.15	1207.72
616.30	1034.52
616.46	734.93
616.61	493.85
616.76	454.06
616.92	304.27
617.07	177.88
617.22	180.22
617.37	175.54
617.53	215.33
617.68	194.26
617.83	152.13
617.99	264.48
618.14	198.95
618.29	201.29
618.45	180.22
618.60	173.20
618.75	180.22
618.90	140.43
619.06	187.24
619.21	266.82
619.36	224.69
619.51	189.58
619.67	159.16
619.82	152.13
619.97	231.71
620.12	138.09
620.28	145.11
620.43	142.77
620.58	205.97
620.73	196.60
620.89	159.16
621.04	210.65
621.19	493.85
621.34	669.39
621.49	718.54
621.65	788.76
621.80	561.73
621.95	484.49
622.10	283.20
622.25	212.99
622.41	168.52
622.56	189.58
622.71	124.05
622.86	224.69
623.01	220.01
623.16	215.33
623.32	177.88
623.47	189.58
623.62	117.03
623.77	156.82
623.92	173.20
624.07	187.24
624.23	114.69
624.38	205.97
624.53	184.90
624.68	154.48
624.83	198.95
624.98	170.86
625.13	149.79
625.29	154.48
625.44	252.78
625.59	154.48
625.74	187.24
625.89	250.44
626.04	596.84
626.19	1437.09
626.34	2167.34
626.49	2429.48
626.65	1818.60
626.80	1146.86
626.95	880.04
627.10	552.37
627.25	320.65
627.40	238.73
627.55	250.44
627.70	145.11
627.85	194.26
628.00	168.52
628.15	163.84
628.30	182.56
628.45	205.97
628.60	198.95
628.76	184.90
628.91	156.82
629.06	175.54
629.21	227.03
629.36	191.92
629.51	149.79
629.66	236.39
629.81	187.24
629.96	365.12
630.11	554.71
630.26	716.20
630.41	662.37
630.56	510.24
630.71	327.68
630.86	248.10
631.01	196.60
631.16	196.60
631.31	152.13
631.46	234.05
631.61	142.77
631.76	173.20
631.91	170.86
632.06	86.60
632.21	182.56
632.36	131.07
632.51	168.52
632.66	259.80
632.81	290.23
632.96	856.64
633.10	1441.77
633.25	1598.59
633.40	1507.30
633.55	1055.58
633.70	662.37
633.85	435.34
634.00	318.31
634.15	224.69
634.30	220.01
634.45	203.63
634.60	236.39
634.75	154.48
634.90	159.16
635.05	191.92
635.19	163.84
635.34	86.60
635.49	161.50
635.64	156.82
635.79	187.24
635.94	194.26
636.09	208.31
636.24	107.66
636.39	175.54
636.53	198.95
636.68	124.05
636.83	182.56
636.98	215.33
637.13	198.95
637.28	180.22
637.43	215.33
637.57	259.80
637.72	802.80
637.87	2005.84
638.02	2708.00
638.17	2993.55
638.32	2190.74
638.46	1483.90
638.61	1151.54
638.76	692.80
638.91	411.93
639.06	220.01
639.20	248.10
639.35	241.08
639.50	322.99
639.65	1093.03
639.80	2771.19
639.94	4318.29
640.09	4655.33
640.24	3478.04
640.39	2363.94
640.54	1589.22
640.68	1025.15
640.83	573.43
640.98	285.55
641.13	208.31
641.27	147.45
641.42	152.13
641.57	241.08
641.72	220.01
641.86	201.29
642.01	142.77
642.16	243.42
642.31	140.43
642.45	170.86
642.60	166.18
642.75	154.48
642.90	196.60
643.04	107.66
643.19	166.18
643.34	128.73
643.48	205.97
643.63	107.66
643.78	205.97
643.93	131.07
644.07	163.84
644.22	175.54
644.37	184.90
644.51	194.26
644.66	161.50
644.81	173.20
644.95	196.60
645.10	173.20
645.25	77.24
645.39	124.05
645.54	114.69
645.69	234.05
645.83	175.54
645.98	177.88
646.13	145.11
646.27	154.48
646.42	168.52
646.57	184.90
646.71	203.63
646.86	145.11
647.00	198.95
647.15	266.82
647.30	128.73
647.44	117.03
647.59	154.48
647.74	189.58
647.88	121.71
648.03	110.01
648.17	154.48
648.32	138.09
648.47	74.90
648.61	196.60
648.76	142.77
648.90	147.45
649.05	170.86
649.20	98.30
649.34	131.07
649.49	79.58
649.63	203.63
649.78	175.54
649.92	238.73
650.07	517.26
650.21	1352.83
650.36	2202.44
650.51	2438.84
650.65	2043.29
650.80	1460.49
650.94	1018.13
651.09	578.11
651.23	404.91
651.38	301.93
651.52	203.63
651.67	161.50
651.81	224.69
651.96	194.26
652.10	156.82
652.25	126.39
652.39	184.90
652.54	231.71
652.68	248.10
652.83	517.26
652.97	809.83
653.12	985.37
653.26	788.76
653.41	692.80
653.55	547.69
653.70	334.70
653.84	271.50
653.99	191.92
654.13	152.13
654.27	117.03
654.42	198.95
654.56	152.13
654.71	114.69
654.85	105.32
655.00	175.54
655.14	161.50
655.29	131.07
655.43	245.76
655.57	166.18
655.72	88.94
655.86	124.05
656.01	147.45
656.15	112.35
656.30	110.01
656.44	110.01
656.58	124.05
656.73	110.01
656.87	107.66
657.01	131.07
657.16	198.95
657.30	170.86
657.45	187.24
657.59	128.73
657.73	198.95
657.88	224.69
658.02	224.69
658.16	159.16
658.31	65.54
658.45	126.39
658.60	124.05
658.74	135.75
658.88	161.50
659.03	133.41
659.17	131.07
659.31	231.71
659.46	617.90
659.60	1001.75
659.74	1291.98
659.89	1116.44
660.03	959.62
660.17	564.07
660.32	437.68
660.46	266.82
660.60	159.16
660.74	222.35
660.89	138.09
661.03	159.16
661.17	175.54
661.32	159.16
661.46	93.62
661.60	140.43
661.74	222.35
661.89	182.56
662.03	67.88
662.17	173.20
662.31	168.52
662.46	210.65
662.60	138.09
662.74	77.24
662.88	236.39
663.03	77.24
663.17	203.63
663.31	210.65
663.45	124.05
663.60	133.41
663.74	161.50
663.88	102.98
664.02	102.98
664.17	152.13
664.31	175.54
664.45	156.82
664.59	88.94
664.73	56.17
664.88	95.96
665.02	152.13
665.16	112.35
665.30	149.79
665.44	156.82
665.59	163.84
665.73	243.42
665.87	147.45
666.01	46.81
666.15	112.35
666.29	133.41
666.44	238.73
666.58	259.80
666.72	161.50
666.86	154.48
667.00	180.22
667.14	220.01
667.28	500.87
667.43	1149.20
667.57	1809.23
667.71	2097.12
667.85	1790.51
667.99	1387.94
668.13	929.19
668.27	636.63
668.41	440.02
668.56	283.20
668.70	266.82
668.84	166.18
668.98	215.33
669.12	135.75
669.26	100.64
669.40	187.24
669.54	138.09
669.68	177.88
669.82	161.50
669.96	135.75
670.10	124.05
670.25	93.62
670.39	156.82
670.53	180.22
670.67	208.31
670.81	142.77
670.95	173.20
671.09	215.33
671.23	458.74
671.37	898.77
671.51	1315.38
671.65	1444.11
671.79	1111.75
671.93	809.83
672.07	622.58
672.21	376.83
672.35	224.69
672.49	114.69
672.63	128.73
672.77	145.11
672.91	180.22
673.05	184.90
673.19	161.50
673.33	133.41
673.47	184.90
673.61	177.88
673.75	88.94
673.89	112.35
674.03	126.39
674.17	138.09
674.31	81.92
674.45	187.24
674.59	154.48
674.73	156.82
674.87	177.88
675.01	117.03
675.15	102.98
675.29	177.88
675.43	222.35
675.56	191.92
675.70	217.67
675.84	149.79
675.98	231.71
676.12	77.24
676.26	180.22
676.40	121.71
676.54	135.75
676.68	67.88
676.82	77.24
676.96	91.28
677.10	177.88
677.23	131.07
677.37	105.32
677.51	142.77
677.65	133.41
677.79	65.54
677.93	166.18
678.07	81.92
678.21	114.69
678.34	124.05
678.48	159.16
678.62	107.66
678.76	110.01
678.90	88.94
679.04	191.92
679.18	112.35
679.31	191.92
679.45	161.50
679.59	70.22
679.73	124.05
679.87	58.51
680.00	98.30
680.14	81.92
680.28	182.56
680.42	105.32
680.56	198.95
680.70	102.98
680.83	205.97
680.97	42.13
681.11	128.73
681.25	95.96
681.39	119.37
681.52	166.18
681.66	215.33
681.80	175.54
681.94	168.52
682.07	140.43
682.21	189.58
682.35	91.28
682.49	152.13
682.62	102.98
682.76	170.86
682.90	102.98
683.04	131.07
683.17	63.19
683.31	114.69
683.45	149.79
683.59	163.84
683.72	159.16
683.86	140.43
684.00	107.66
684.13	159.16
684.27	79.58
684.41	93.62
684.55	98.30
684.68	142.77
684.82	86.60
684.96	117.03
685.09	112.35
685.23	119.37
685.37	145.11
685.50	119.37
685.64	187.24
685.78	77.24
685.91	100.64
686.05	117.03
686.19	102.98
686.32	196.60
686.46	102.98
686.60	112.35
686.73	135.75
686.87	198.95
687.01	131.07
687.14	53.83
687.28	117.03
687.42	138.09
687.55	112.35
687.69	163.84
687.82	95.96
687.96	44.47
688.10	147.45
688.23	102.98
688.37	149.79
688.50	147.45
688.64	177.88
688.78	173.20
688.91	173.20
689.05	70.22
689.18	86.60
689.32	117.03
689.46	105.32
689.59	133.41
689.73	124.05
689.86	88.94
690.00	84.26
690.13	74.90
690.27	121.71
690.41	131.07
690.54	152.13
690.68	117.03
690.81	63.19
690.95	95.96
691.08	112.35
691.22	133.41
691.35	100.64
691.49	140.43
691.62	88.94
691.76	126.39
691.89	102.98
692.03	112.35
692.16	30.43
692.30	105.32
692.43	194.26
692.57	528.96
692.70	809.83
692.84	1022.81
692.97	842.59
693.11	613.22
693.24	564.07
693.38	397.89
693.51	236.39
693.65	243.42
693.78	154.48
693.92	154.48
694.05	117.03
694.19	159.16
694.32	180.22
694.45	168.52
694.59	110.01
694.72	102.98
694.86	105.32
694.99	203.63
695.13	140.43
695.26	112.35
695.39	163.84
695.53	93.62
695.66	93.62
695.80	182.56
695.93	102.98
696.07	142.77
696.20	119.37
696.33	191.92
696.47	156.82
696.60	182.56
696.73	119.37
696.87	95.96
697.00	184.90
697.14	131.07
697.27	60.85
697.40	147.45
697.54	51.49
697.67	168.52
697.80	105.32
697.94	95.96
698.07	84.26
698.21	44.47
698.34	175.54
698.47	138.09
698.61	156.82
698.74	98.30
698.87	86.60
699.01	102.98
699.14	154.48
699.27	67.88
699.40	241.08
699.54	145.11
699.67	117.03
699.80	91.28
699.94	98.30
700.07	42.13
700.20	88.94
700.34	128.73
700.47	149.79
700.60	67.88
700.73	133.41
700.87	93.62
701.00	102.98
701.13	147.45
701.26	88.94
701.40	77.24
701.53	56.17
701.66	138.09
701.79	117.03
701.93	124.05
702.06	189.58
702.19	159.16
702.32	252.78
702.46	177.88
702.59	208.31
702.72	292.57
702.85	631.94
702.99	1179.63
703.12	1781.15
703.25	1820.94
703.38	1584.54
703.51	1310.70
703.65	1006.43
703.78	688.12
703.91	535.98
704.04	390.87
704.17	287.89
704.31	142.77
704.44	166.18
704.57	191.92
704.70	128.73
704.83	145.11
704.96	81.92
705.10	126.39
705.23	72.56
>>>>>End Processed Spectral Data<<<<<
