SpectraSuite Data File
++++++++++++++++++++++++++++++++++++
Date: Fri Oct 04 11:33:52 GMT-05:00 2013
User: price-jones
Dark Spectrum Present: No
Reference Spectrum Present: No
Number of Sampled Component Spectra: 1
Spectrometers: USB2+H05261
Integration Time (usec): 100000 (USB2+H05261)
Spectra Averaged: 1 (USB2+H05261)
Boxcar Smoothing: 0 (USB2+H05261)
Correct for Electrical Dark: No (USB2+H05261)
Strobe/Lamp Enabled: No (USB2+H05261)
Correct for Detector Non-linearity: No (USB2+H05261)
Correct for Stray Light: No (USB2+H05261)
Number of Pixels in Processed Spectrum: 2048
>>>>>Begin Processed Spectral Data<<<<<
365.73	98.30
365.92	98.30
366.12	98.30
366.32	21.06
366.52	0.00
366.72	46.81
366.91	0.00
367.11	23.41
367.31	0.00
367.51	0.00
367.70	0.00
367.90	28.09
368.10	0.00
368.30	0.00
368.49	0.00
368.69	25.75
368.89	0.00
369.09	0.00
369.28	0.00
369.48	0.00
369.68	0.00
369.87	0.00
370.07	56.17
370.27	60.85
370.47	110.01
370.66	56.17
370.86	77.24
371.06	173.20
371.25	84.26
371.45	37.45
371.65	88.94
371.84	28.09
372.04	51.49
372.24	117.03
372.44	117.03
372.63	105.32
372.83	198.95
373.03	135.75
373.22	81.92
373.42	98.30
373.62	86.60
373.81	131.07
374.01	205.97
374.21	198.95
374.40	126.39
374.60	168.52
374.79	175.54
374.99	114.69
375.19	149.79
375.38	168.52
375.58	107.66
375.78	124.05
375.97	191.92
376.17	215.33
376.37	166.18
376.56	166.18
376.76	86.60
376.95	124.05
377.15	128.73
377.35	276.18
377.54	117.03
377.74	138.09
377.93	74.90
378.13	163.84
378.33	175.54
378.52	128.73
378.72	187.24
378.91	173.20
379.11	126.39
379.31	142.77
379.50	100.64
379.70	145.11
379.89	163.84
380.09	100.64
380.28	138.09
380.48	105.32
380.68	145.11
380.87	149.79
381.07	56.17
381.26	128.73
381.46	79.58
381.65	142.77
381.85	93.62
382.04	154.48
382.24	140.43
382.43	147.45
382.63	154.48
382.83	241.08
383.02	168.52
383.22	227.03
383.41	133.41
383.61	105.32
383.80	70.22
384.00	161.50
384.19	102.98
384.39	105.32
384.58	112.35
384.78	187.24
384.97	159.16
385.17	166.18
385.36	152.13
385.56	217.67
385.75	175.54
385.95	205.97
386.14	88.94
386.34	14.04
386.53	91.28
386.72	70.22
386.92	133.41
387.11	121.71
387.31	131.07
387.50	86.60
387.70	74.90
387.89	170.86
388.09	114.69
388.28	93.62
388.48	159.16
388.67	131.07
388.86	67.88
389.06	243.42
389.25	273.84
389.45	112.35
389.64	159.16
389.84	180.22
390.03	156.82
390.22	175.54
390.42	173.20
390.61	107.66
390.81	79.58
391.00	88.94
391.19	145.11
391.39	107.66
391.58	175.54
391.78	215.33
391.97	161.50
392.16	102.98
392.36	201.29
392.55	161.50
392.75	70.22
392.94	58.51
393.13	196.60
393.33	79.58
393.52	25.75
393.71	147.45
393.91	145.11
394.10	98.30
394.29	128.73
394.49	131.07
394.68	102.98
394.88	198.95
395.07	145.11
395.26	114.69
395.46	166.18
395.65	117.03
395.84	161.50
396.04	189.58
396.23	72.56
396.42	95.96
396.62	124.05
396.81	140.43
397.00	173.20
397.19	95.96
397.39	142.77
397.58	210.65
397.77	131.07
397.97	161.50
398.16	128.73
398.35	128.73
398.55	93.62
398.74	154.48
398.93	163.84
399.12	203.63
399.32	131.07
399.51	119.37
399.70	135.75
399.90	229.37
400.09	147.45
400.28	147.45
400.47	140.43
400.67	110.01
400.86	102.98
401.05	173.20
401.24	128.73
401.44	110.01
401.63	212.99
401.82	224.69
402.01	138.09
402.21	177.88
402.40	128.73
402.59	156.82
402.78	147.45
402.97	212.99
403.17	236.39
403.36	194.26
403.55	163.84
403.74	51.49
403.93	133.41
404.13	189.58
404.32	241.08
404.51	124.05
404.70	194.26
404.89	95.96
405.09	180.22
405.28	100.64
405.47	74.90
405.66	201.29
405.85	140.43
406.05	126.39
406.24	177.88
406.43	117.03
406.62	142.77
406.81	205.97
407.00	147.45
407.20	149.79
407.39	156.82
407.58	182.56
407.77	93.62
407.96	138.09
408.15	168.52
408.34	224.69
408.54	156.82
408.73	142.77
408.92	102.98
409.11	88.94
409.30	102.98
409.49	91.28
409.68	133.41
409.87	231.71
410.07	119.37
410.26	138.09
410.45	161.50
410.64	131.07
410.83	152.13
411.02	147.45
411.21	208.31
411.40	266.82
411.59	124.05
411.78	166.18
411.98	161.50
412.17	121.71
412.36	110.01
412.55	173.20
412.74	170.86
412.93	184.90
413.12	145.11
413.31	187.24
413.50	217.67
413.69	156.82
413.88	168.52
414.07	147.45
414.26	173.20
414.45	175.54
414.64	133.41
414.83	220.01
415.02	138.09
415.22	128.73
415.41	173.20
415.60	119.37
415.79	159.16
415.98	217.67
416.17	128.73
416.36	159.16
416.55	117.03
416.74	161.50
416.93	245.76
417.12	166.18
417.31	189.58
417.50	191.92
417.69	245.76
417.88	154.48
418.07	180.22
418.26	142.77
418.45	135.75
418.64	201.29
418.83	173.20
419.02	124.05
419.21	273.84
419.39	154.48
419.58	229.37
419.77	208.31
419.96	163.84
420.15	201.29
420.34	135.75
420.53	114.69
420.72	117.03
420.91	182.56
421.10	128.73
421.29	189.58
421.48	152.13
421.67	173.20
421.86	257.46
422.05	147.45
422.24	166.18
422.43	135.75
422.61	117.03
422.80	145.11
422.99	234.05
423.18	241.08
423.37	248.10
423.56	220.01
423.75	156.82
423.94	243.42
424.13	131.07
424.32	147.45
424.50	154.48
424.69	196.60
424.88	170.86
425.07	182.56
425.26	161.50
425.45	128.73
425.64	203.63
425.83	212.99
426.01	128.73
426.20	135.75
426.39	229.37
426.58	217.67
426.77	107.66
426.96	236.39
427.15	163.84
427.33	187.24
427.52	135.75
427.71	140.43
427.90	121.71
428.09	203.63
428.28	168.52
428.46	138.09
428.65	149.79
428.84	131.07
429.03	149.79
429.22	163.84
429.40	86.60
429.59	128.73
429.78	224.69
429.97	220.01
430.16	131.07
430.34	147.45
430.53	114.69
430.72	149.79
430.91	166.18
431.10	152.13
431.28	138.09
431.47	243.42
431.66	191.92
431.85	142.77
432.03	152.13
432.22	241.08
432.41	154.48
432.60	245.76
432.79	227.03
432.97	142.77
433.16	210.65
433.35	168.52
433.54	110.01
433.72	117.03
433.91	191.92
434.10	156.82
434.28	198.95
434.47	154.48
434.66	156.82
434.85	128.73
435.03	168.52
435.22	315.97
435.41	374.49
435.59	388.53
435.78	222.35
435.97	191.92
436.16	182.56
436.34	163.84
436.53	168.52
436.72	220.01
436.90	196.60
437.09	187.24
437.28	152.13
437.46	142.77
437.65	227.03
437.84	166.18
438.02	119.37
438.21	93.62
438.40	154.48
438.58	131.07
438.77	166.18
438.96	287.89
439.14	138.09
439.33	220.01
439.52	128.73
439.70	140.43
439.89	241.08
440.08	212.99
440.26	145.11
440.45	198.95
440.63	196.60
440.82	159.16
441.01	180.22
441.19	229.37
441.38	215.33
441.57	161.50
441.75	152.13
441.94	196.60
442.12	175.54
442.31	177.88
442.50	184.90
442.68	234.05
442.87	231.71
443.05	187.24
443.24	170.86
443.43	217.67
443.61	205.97
443.80	147.45
443.98	187.24
444.17	170.86
444.35	159.16
444.54	175.54
444.73	154.48
444.91	264.48
445.10	81.92
445.28	201.29
445.47	177.88
445.65	243.42
445.84	257.46
446.02	224.69
446.21	212.99
446.39	119.37
446.58	173.20
446.77	187.24
446.95	140.43
447.14	156.82
447.32	149.79
447.51	215.33
447.69	156.82
447.88	220.01
448.06	224.69
448.25	191.92
448.43	168.52
448.62	212.99
448.80	112.35
448.99	196.60
449.17	166.18
449.36	201.29
449.54	187.24
449.73	191.92
449.91	191.92
450.10	173.20
450.28	208.31
450.46	276.18
450.65	229.37
450.83	257.46
451.02	149.79
451.20	205.97
451.39	152.13
451.57	168.52
451.76	222.35
451.94	161.50
452.13	262.14
452.31	170.86
452.49	133.41
452.68	154.48
452.86	231.71
453.05	187.24
453.23	210.65
453.42	166.18
453.60	168.52
453.78	191.92
453.97	177.88
454.15	149.79
454.34	177.88
454.52	222.35
454.70	170.86
454.89	236.39
455.07	159.16
455.26	161.50
455.44	210.65
455.62	152.13
455.81	156.82
455.99	201.29
456.17	156.82
456.36	166.18
456.54	208.31
456.73	161.50
456.91	198.95
457.09	229.37
457.28	285.55
457.46	212.99
457.64	205.97
457.83	156.82
458.01	234.05
458.19	210.65
458.38	245.76
458.56	210.65
458.74	145.11
458.93	259.80
459.11	208.31
459.29	262.14
459.48	201.29
459.66	255.12
459.84	187.24
460.03	280.86
460.21	205.97
460.39	180.22
460.57	243.42
460.76	248.10
460.94	196.60
461.12	250.44
461.31	196.60
461.49	175.54
461.67	180.22
461.85	149.79
462.04	191.92
462.22	622.58
462.40	170.86
462.59	257.46
462.77	229.37
462.95	212.99
463.13	152.13
463.32	194.26
463.50	187.24
463.68	189.58
463.86	194.26
464.05	191.92
464.23	215.33
464.41	208.31
464.59	236.39
464.78	201.29
464.96	217.67
465.14	196.60
465.32	128.73
465.50	205.97
465.69	156.82
465.87	149.79
466.05	184.90
466.23	180.22
466.41	191.92
466.60	142.77
466.78	210.65
466.96	217.67
467.14	205.97
467.32	180.22
467.51	189.58
467.69	224.69
467.87	124.05
468.05	215.33
468.23	234.05
468.41	210.65
468.60	182.56
468.78	208.31
468.96	177.88
469.14	203.63
469.32	168.52
469.50	198.95
469.69	170.86
469.87	266.82
470.05	149.79
470.23	152.13
470.41	168.52
470.59	208.31
470.77	208.31
470.95	145.11
471.14	201.29
471.32	215.33
471.50	234.05
471.68	161.50
471.86	161.50
472.04	107.66
472.22	149.79
472.40	227.03
472.58	168.52
472.77	243.42
472.95	252.78
473.13	229.37
473.31	194.26
473.49	217.67
473.67	142.77
473.85	252.78
474.03	262.14
474.21	161.50
474.39	241.08
474.57	285.55
474.75	259.80
474.93	156.82
475.12	208.31
475.30	234.05
475.48	243.42
475.66	245.76
475.84	252.78
476.02	177.88
476.20	173.20
476.38	189.58
476.56	283.20
476.74	212.99
476.92	215.33
477.10	236.39
477.28	187.24
477.46	121.71
477.64	194.26
477.82	212.99
478.00	191.92
478.18	187.24
478.36	243.42
478.54	142.77
478.72	140.43
478.90	159.16
479.08	236.39
479.26	196.60
479.44	264.48
479.62	173.20
479.80	161.50
479.98	159.16
480.16	191.92
480.34	212.99
480.52	191.92
480.70	215.33
480.88	217.67
481.06	180.22
481.24	105.32
481.41	255.12
481.59	234.05
481.77	177.88
481.95	208.31
482.13	255.12
482.31	187.24
482.49	205.97
482.67	177.88
482.85	177.88
483.03	224.69
483.21	269.16
483.39	248.10
483.57	187.24
483.74	191.92
483.92	196.60
484.10	217.67
484.28	198.95
484.46	241.08
484.64	168.52
484.82	212.99
485.00	191.92
485.18	231.71
485.35	220.01
485.53	259.80
485.71	294.91
485.89	154.48
486.07	222.35
486.25	276.18
486.43	264.48
486.61	182.56
486.78	224.69
486.96	154.48
487.14	198.95
487.32	236.39
487.50	201.29
487.68	217.67
487.85	236.39
488.03	205.97
488.21	259.80
488.39	306.61
488.57	287.89
488.75	241.08
488.92	528.96
489.10	304.27
489.28	301.93
489.46	304.27
489.64	285.55
489.81	191.92
489.99	285.55
490.17	266.82
490.35	376.83
490.53	231.71
490.70	269.16
490.88	245.76
491.06	138.09
491.24	189.58
491.41	250.44
491.59	227.03
491.77	245.76
491.95	196.60
492.13	163.84
492.30	182.56
492.48	231.71
492.66	227.03
492.84	266.82
493.01	227.03
493.19	175.54
493.37	252.78
493.54	220.01
493.72	259.80
493.90	187.24
494.08	173.20
494.25	220.01
494.43	252.78
494.61	208.31
494.79	182.56
494.96	234.05
495.14	210.65
495.32	212.99
495.49	220.01
495.67	306.61
495.85	173.20
496.02	203.63
496.20	175.54
496.38	156.82
496.55	301.93
496.73	325.33
496.91	191.92
497.09	203.63
497.26	262.14
497.44	264.48
497.62	236.39
497.79	248.10
497.97	187.24
498.14	227.03
498.32	280.86
498.50	294.91
498.67	238.73
498.85	290.23
499.03	208.31
499.20	283.20
499.38	229.37
499.56	297.25
499.73	290.23
499.91	187.24
500.08	180.22
500.26	257.46
500.44	177.88
500.61	241.08
500.79	259.80
500.97	250.44
501.14	283.20
501.32	224.69
501.49	196.60
501.67	210.65
501.84	262.14
502.02	264.48
502.20	273.84
502.37	229.37
502.55	212.99
502.72	184.90
502.90	266.82
503.07	220.01
503.25	227.03
503.43	248.10
503.60	166.18
503.78	266.82
503.95	191.92
504.13	271.50
504.30	266.82
504.48	283.20
504.65	196.60
504.83	294.91
505.01	234.05
505.18	229.37
505.36	241.08
505.53	203.63
505.71	245.76
505.88	234.05
506.06	210.65
506.23	243.42
506.41	159.16
506.58	198.95
506.76	252.78
506.93	196.60
507.11	283.20
507.28	147.45
507.46	215.33
507.63	184.90
507.81	227.03
507.98	212.99
508.16	252.78
508.33	257.46
508.50	280.86
508.68	297.25
508.85	262.14
509.03	196.60
509.20	241.08
509.38	280.86
509.55	248.10
509.73	212.99
509.90	259.80
510.08	252.78
510.25	229.37
510.42	273.84
510.60	217.67
510.77	236.39
510.95	311.29
511.12	212.99
511.30	224.69
511.47	236.39
511.64	271.50
511.82	217.67
511.99	273.84
512.17	212.99
512.34	131.07
512.51	266.82
512.69	220.01
512.86	287.89
513.04	159.16
513.21	198.95
513.38	278.52
513.56	198.95
513.73	266.82
513.90	290.23
514.08	224.69
514.25	201.29
514.43	276.18
514.60	320.65
514.77	215.33
514.95	266.82
515.12	301.93
515.29	227.03
515.47	245.76
515.64	257.46
515.81	215.33
515.99	215.33
516.16	201.29
516.33	255.12
516.51	229.37
516.68	276.18
516.85	227.03
517.03	212.99
517.20	236.39
517.37	180.22
517.54	208.31
517.72	259.80
517.89	220.01
518.06	180.22
518.24	220.01
518.41	294.91
518.58	229.37
518.75	119.37
518.93	236.39
519.10	266.82
519.27	222.35
519.45	252.78
519.62	140.43
519.79	276.18
519.96	175.54
520.14	222.35
520.31	229.37
520.48	290.23
520.65	250.44
520.83	308.95
521.00	182.56
521.17	294.91
521.34	243.42
521.52	236.39
521.69	266.82
521.86	210.65
522.03	245.76
522.20	229.37
522.38	241.08
522.55	215.33
522.72	231.71
522.89	227.03
523.07	344.06
523.24	184.90
523.41	241.08
523.58	168.52
523.75	217.67
523.92	166.18
524.10	255.12
524.27	231.71
524.44	236.39
524.61	203.63
524.78	175.54
524.96	241.08
525.13	266.82
525.30	313.63
525.47	250.44
525.64	257.46
525.81	222.35
525.98	241.08
526.16	215.33
526.33	236.39
526.50	292.57
526.67	177.88
526.84	198.95
527.01	259.80
527.18	257.46
527.36	271.50
527.53	262.14
527.70	255.12
527.87	236.39
528.04	322.99
528.21	250.44
528.38	273.84
528.55	287.89
528.72	287.89
528.89	304.27
529.07	287.89
529.24	205.97
529.41	264.48
529.58	311.29
529.75	124.05
529.92	222.35
530.09	250.44
530.26	292.57
530.43	297.25
530.60	255.12
530.77	262.14
530.94	243.42
531.11	238.73
531.28	264.48
531.46	201.29
531.63	252.78
531.80	175.54
531.97	290.23
532.14	236.39
532.31	220.01
532.48	222.35
532.65	187.24
532.82	248.10
532.99	283.20
533.16	325.33
533.33	276.18
533.50	231.71
533.67	250.44
533.84	262.14
534.01	252.78
534.18	315.97
534.35	259.80
534.52	264.48
534.69	269.16
534.86	161.50
535.03	236.39
535.20	212.99
535.37	259.80
535.54	299.59
535.71	301.93
535.88	287.89
536.05	238.73
536.22	280.86
536.38	238.73
536.55	243.42
536.72	203.63
536.89	208.31
537.06	194.26
537.23	318.31
537.40	273.84
537.57	292.57
537.74	248.10
537.91	273.84
538.08	285.55
538.25	341.72
538.42	294.91
538.59	266.82
538.75	369.80
538.92	315.97
539.09	250.44
539.26	411.93
539.43	400.23
539.60	299.59
539.77	257.46
539.94	287.89
540.11	276.18
540.28	334.70
540.44	341.72
540.61	301.93
540.78	416.62
540.95	365.12
541.12	449.38
541.29	430.66
541.46	491.51
541.62	437.68
541.79	407.25
541.96	376.83
542.13	449.38
542.30	393.21
542.47	475.13
542.63	400.23
542.80	358.10
542.97	465.77
543.14	393.21
543.31	393.21
543.48	468.11
543.64	456.40
543.81	393.21
543.98	358.10
544.15	372.15
544.32	372.15
544.48	447.04
544.65	397.89
544.82	297.25
544.99	390.87
545.16	388.53
545.32	463.43
545.49	641.31
545.66	746.63
545.83	681.10
546.00	662.37
546.16	479.81
546.33	362.78
546.50	421.30
546.67	390.87
546.83	388.53
547.00	372.15
547.17	243.42
547.34	315.97
547.50	379.17
547.67	360.44
547.84	208.31
548.00	330.02
548.17	285.55
548.34	351.08
548.51	374.49
548.67	315.97
548.84	315.97
549.01	241.08
549.18	287.89
549.34	264.48
549.51	287.89
549.68	325.33
549.84	346.40
550.01	283.20
550.18	411.93
550.34	334.70
550.51	344.06
550.68	369.80
550.84	334.70
551.01	231.71
551.18	311.29
551.34	276.18
551.51	210.65
551.68	234.05
551.84	227.03
552.01	201.29
552.18	311.29
552.34	269.16
552.51	241.08
552.68	322.99
552.84	243.42
553.01	327.68
553.18	236.39
553.34	273.84
553.51	224.69
553.67	243.42
553.84	224.69
554.01	276.18
554.17	290.23
554.34	280.86
554.51	369.80
554.67	330.02
554.84	299.59
555.00	381.51
555.17	243.42
555.33	229.37
555.50	346.40
555.67	264.48
555.83	273.84
556.00	241.08
556.16	360.44
556.33	250.44
556.50	308.95
556.66	248.10
556.83	234.05
556.99	248.10
557.16	250.44
557.32	252.78
557.49	234.05
557.65	189.58
557.82	252.78
557.98	292.57
558.15	280.86
558.32	259.80
558.48	180.22
558.65	212.99
558.81	287.89
558.98	257.46
559.14	315.97
559.31	224.69
559.47	212.99
559.64	215.33
559.80	250.44
559.97	262.14
560.13	248.10
560.30	283.20
560.46	245.76
560.63	299.59
560.79	229.37
560.96	271.50
561.12	271.50
561.29	238.73
561.45	201.29
561.61	234.05
561.78	381.51
561.94	287.89
562.11	196.60
562.27	264.48
562.44	208.31
562.60	184.90
562.77	278.52
562.93	280.86
563.10	236.39
563.26	283.20
563.42	252.78
563.59	215.33
563.75	257.46
563.92	287.89
564.08	227.03
564.24	297.25
564.41	304.27
564.57	255.12
564.74	184.90
564.90	238.73
565.07	283.20
565.23	248.10
565.39	236.39
565.56	285.55
565.72	231.71
565.88	285.55
566.05	187.24
566.21	222.35
566.38	238.73
566.54	229.37
566.70	220.01
566.87	220.01
567.03	248.10
567.19	205.97
567.36	301.93
567.52	177.88
567.68	252.78
567.85	229.37
568.01	170.86
568.17	285.55
568.34	262.14
568.50	308.95
568.66	198.95
568.83	341.72
568.99	205.97
569.15	292.57
569.32	238.73
569.48	259.80
569.64	210.65
569.81	217.67
569.97	187.24
570.13	234.05
570.30	234.05
570.46	236.39
570.62	198.95
570.78	217.67
570.95	187.24
571.11	278.52
571.27	325.33
571.43	215.33
571.60	203.63
571.76	220.01
571.92	278.52
572.09	224.69
572.25	205.97
572.41	250.44
572.57	262.14
572.74	203.63
572.90	159.16
573.06	248.10
573.22	224.69
573.38	227.03
573.55	280.86
573.71	283.20
573.87	236.39
574.03	238.73
574.20	248.10
574.36	320.65
574.52	177.88
574.68	304.27
574.84	173.20
575.01	255.12
575.17	234.05
575.33	236.39
575.49	252.78
575.65	234.05
575.82	292.57
575.98	320.65
576.14	191.92
576.30	259.80
576.46	285.55
576.62	339.38
576.79	344.06
576.95	353.42
577.11	229.37
577.27	220.01
577.43	252.78
577.59	301.93
577.75	255.12
577.92	241.08
578.08	201.29
578.24	266.82
578.40	337.04
578.56	360.44
578.72	386.19
578.88	315.97
579.04	241.08
579.21	318.31
579.37	245.76
579.53	299.59
579.69	259.80
579.85	278.52
580.01	250.44
580.17	271.50
580.33	227.03
580.49	285.55
580.65	236.39
580.82	278.52
580.98	255.12
581.14	217.67
581.30	252.78
581.46	224.69
581.62	278.52
581.78	189.58
581.94	308.95
582.10	283.20
582.26	262.14
582.42	220.01
582.58	259.80
582.74	264.48
582.90	259.80
583.06	311.29
583.22	320.65
583.38	271.50
583.54	299.59
583.70	273.84
583.86	292.57
584.02	276.18
584.18	255.12
584.34	285.55
584.50	308.95
584.66	456.40
584.82	690.46
584.98	842.59
585.14	903.45
585.30	641.31
585.46	496.19
585.62	442.36
585.78	283.20
585.94	285.55
586.10	173.20
586.26	196.60
586.42	320.65
586.58	271.50
586.74	322.99
586.90	308.95
587.06	362.78
587.22	313.63
587.38	315.97
587.54	332.36
587.70	325.33
587.86	325.33
588.02	339.38
588.18	301.93
588.34	285.55
588.49	229.37
588.65	234.05
588.81	294.91
588.97	222.35
589.13	271.50
589.29	266.82
589.45	262.14
589.61	222.35
589.77	269.16
589.93	229.37
590.08	248.10
590.24	189.58
590.40	238.73
590.56	250.44
590.72	203.63
590.88	182.56
591.04	266.82
591.20	220.01
591.35	322.99
591.51	290.23
591.67	273.84
591.83	227.03
591.99	229.37
592.15	187.24
592.31	290.23
592.46	229.37
592.62	311.29
592.78	297.25
592.94	224.69
593.10	276.18
593.26	236.39
593.41	308.95
593.57	264.48
593.73	262.14
593.89	348.74
594.05	348.74
594.20	290.23
594.36	383.85
594.52	245.76
594.68	311.29
594.84	248.10
594.99	220.01
595.15	285.55
595.31	262.14
595.47	292.57
595.62	236.39
595.78	220.01
595.94	217.67
596.10	280.86
596.25	222.35
596.41	215.33
596.57	248.10
596.73	191.92
596.88	175.54
597.04	180.22
597.20	212.99
597.36	259.80
597.51	266.82
597.67	259.80
597.83	290.23
597.99	280.86
598.14	243.42
598.30	285.55
598.46	180.22
598.61	227.03
598.77	248.10
598.93	215.33
599.09	255.12
599.24	229.37
599.40	337.04
599.56	255.12
599.71	205.97
599.87	220.01
600.03	299.59
600.18	250.44
600.34	266.82
600.50	297.25
600.65	285.55
600.81	334.70
600.97	217.67
601.12	241.08
601.28	269.16
601.44	220.01
601.59	184.90
601.75	248.10
601.91	292.57
602.06	269.16
602.22	301.93
602.37	273.84
602.53	273.84
602.69	330.02
602.84	308.95
603.00	227.03
603.16	243.42
603.31	227.03
603.47	301.93
603.62	173.20
603.78	245.76
603.94	257.46
604.09	224.69
604.25	236.39
604.40	262.14
604.56	187.24
604.71	177.88
604.87	227.03
605.03	210.65
605.18	241.08
605.34	283.20
605.49	215.33
605.65	285.55
605.80	241.08
605.96	191.92
606.12	234.05
606.27	182.56
606.43	252.78
606.58	222.35
606.74	220.01
606.89	259.80
607.05	311.29
607.20	358.10
607.36	315.97
607.51	259.80
607.67	313.63
607.82	332.36
607.98	397.89
608.13	238.73
608.29	208.31
608.44	320.65
608.60	304.27
608.75	276.18
608.91	212.99
609.06	334.70
609.22	390.87
609.37	355.76
609.53	440.02
609.68	388.53
609.84	376.83
609.99	395.55
610.15	379.17
610.30	454.06
610.46	545.34
610.61	589.82
610.76	636.63
610.92	723.23
611.07	748.97
611.23	807.48
611.38	748.97
611.54	620.24
611.69	540.66
611.84	505.56
612.00	449.38
612.15	383.85
612.31	400.23
612.46	320.65
612.62	402.57
612.77	433.00
612.92	334.70
613.08	395.55
613.23	351.08
613.39	414.27
613.54	306.61
613.69	393.21
613.85	433.00
614.00	451.72
614.15	512.58
614.31	400.23
614.46	418.96
614.62	393.21
614.77	435.34
614.92	367.46
615.08	287.89
615.23	290.23
615.38	299.59
615.54	297.25
615.69	304.27
615.84	266.82
616.00	280.86
616.15	259.80
616.30	245.76
616.46	334.70
616.61	198.95
616.76	227.03
616.92	280.86
617.07	231.71
617.22	215.33
617.37	248.10
617.53	224.69
617.68	217.67
617.83	220.01
617.99	243.42
618.14	201.29
618.29	297.25
618.45	217.67
618.60	290.23
618.75	203.63
618.90	191.92
619.06	266.82
619.21	229.37
619.36	180.22
619.51	217.67
619.67	217.67
619.82	184.90
619.97	262.14
620.12	248.10
620.28	184.90
620.43	250.44
620.58	180.22
620.73	320.65
620.89	283.20
621.04	250.44
621.19	325.33
621.34	196.60
621.49	283.20
621.65	294.91
621.80	241.08
621.95	301.93
622.10	241.08
622.25	273.84
622.41	227.03
622.56	205.97
622.71	220.01
622.86	217.67
623.01	320.65
623.16	201.29
623.32	170.86
623.47	168.52
623.62	201.29
623.77	252.78
623.92	196.60
624.07	220.01
624.23	198.95
624.38	255.12
624.53	273.84
624.68	290.23
624.83	369.80
624.98	212.99
625.13	236.39
625.29	215.33
625.44	210.65
625.59	259.80
625.74	299.59
625.89	264.48
626.04	248.10
626.19	292.57
626.34	297.25
626.49	339.38
626.65	330.02
626.80	220.01
626.95	280.86
627.10	212.99
627.25	327.68
627.40	273.84
627.55	234.05
627.70	297.25
627.85	236.39
628.00	215.33
628.15	252.78
628.30	236.39
628.45	187.24
628.60	311.29
628.76	175.54
628.91	126.39
629.06	252.78
629.21	229.37
629.36	332.36
629.51	241.08
629.66	217.67
629.81	215.33
629.96	283.20
630.11	264.48
630.26	266.82
630.41	299.59
630.56	308.95
630.71	262.14
630.86	248.10
631.01	203.63
631.16	198.95
631.31	306.61
631.46	362.78
631.61	159.16
631.76	224.69
631.91	212.99
632.06	184.90
632.21	212.99
632.36	234.05
632.51	215.33
632.66	222.35
632.81	224.69
632.96	262.14
633.10	341.72
633.25	299.59
633.40	266.82
633.55	248.10
633.70	234.05
633.85	175.54
634.00	201.29
634.15	208.31
634.30	210.65
634.45	224.69
634.60	203.63
634.75	128.73
634.90	117.03
635.05	208.31
635.19	234.05
635.34	262.14
635.49	175.54
635.64	205.97
635.79	252.78
635.94	245.76
636.09	264.48
636.24	255.12
636.39	184.90
636.53	252.78
636.68	243.42
636.83	210.65
636.98	248.10
637.13	159.16
637.28	257.46
637.43	210.65
637.57	196.60
637.72	266.82
637.87	311.29
638.02	390.87
638.17	318.31
638.32	290.23
638.46	262.14
638.61	304.27
638.76	236.39
638.91	212.99
639.06	177.88
639.20	266.82
639.35	241.08
639.50	203.63
639.65	236.39
639.80	313.63
639.94	395.55
640.09	475.13
640.24	341.72
640.39	353.42
640.54	308.95
640.68	266.82
640.83	224.69
640.98	189.58
641.13	222.35
641.27	189.58
641.42	201.29
641.57	154.48
641.72	210.65
641.86	238.73
642.01	245.76
642.16	189.58
642.31	255.12
642.45	255.12
642.60	243.42
642.75	196.60
642.90	227.03
643.04	175.54
643.19	208.31
643.34	210.65
643.48	271.50
643.63	212.99
643.78	229.37
643.93	252.78
644.07	194.26
644.22	152.13
644.37	191.92
644.51	238.73
644.66	250.44
644.81	173.20
644.95	215.33
645.10	234.05
645.25	262.14
645.39	201.29
645.54	152.13
645.69	250.44
645.83	243.42
645.98	215.33
646.13	212.99
646.27	105.32
646.42	152.13
646.57	107.66
646.71	234.05
646.86	189.58
647.00	147.45
647.15	241.08
647.30	163.84
647.44	161.50
647.59	166.18
647.74	131.07
647.88	210.65
648.03	168.52
648.17	229.37
648.32	196.60
648.47	205.97
648.61	184.90
648.76	201.29
648.90	161.50
649.05	191.92
649.20	203.63
649.34	163.84
649.49	205.97
649.63	205.97
649.78	205.97
649.92	215.33
650.07	140.43
650.21	208.31
650.36	294.91
650.51	250.44
650.65	334.70
650.80	325.33
650.94	180.22
651.09	250.44
651.23	152.13
651.38	173.20
651.52	161.50
651.67	147.45
651.81	212.99
651.96	210.65
652.10	201.29
652.25	149.79
652.39	203.63
652.54	234.05
652.68	257.46
652.83	215.33
652.97	196.60
653.12	264.48
653.26	205.97
653.41	241.08
653.55	227.03
653.70	217.67
653.84	142.77
653.99	173.20
654.13	154.48
654.27	234.05
654.42	187.24
654.56	189.58
654.71	250.44
654.85	163.84
655.00	194.26
655.14	177.88
655.29	124.05
655.43	257.46
655.57	159.16
655.72	140.43
655.86	145.11
656.01	166.18
656.15	182.56
656.30	248.10
656.44	175.54
656.58	196.60
656.73	152.13
656.87	217.67
657.01	152.13
657.16	131.07
657.30	187.24
657.45	227.03
657.59	152.13
657.73	212.99
657.88	217.67
658.02	287.89
658.16	196.60
658.31	161.50
658.45	182.56
658.60	105.32
658.74	161.50
658.88	100.64
659.03	227.03
659.17	128.73
659.31	133.41
659.46	166.18
659.60	154.48
659.74	208.31
659.89	271.50
660.03	248.10
660.17	250.44
660.32	191.92
660.46	170.86
660.60	234.05
660.74	198.95
660.89	163.84
661.03	194.26
661.17	210.65
661.32	163.84
661.46	173.20
661.60	229.37
661.74	147.45
661.89	245.76
662.03	205.97
662.17	203.63
662.31	196.60
662.46	182.56
662.60	159.16
662.74	175.54
662.88	170.86
663.03	168.52
663.17	135.75
663.31	191.92
663.45	238.73
663.60	152.13
663.74	177.88
663.88	131.07
664.02	140.43
664.17	191.92
664.31	191.92
664.45	220.01
664.59	142.77
664.73	205.97
664.88	205.97
665.02	180.22
665.16	177.88
665.30	194.26
665.44	135.75
665.59	187.24
665.73	241.08
665.87	234.05
666.01	201.29
666.15	196.60
666.29	177.88
666.44	287.89
666.58	280.86
666.72	236.39
666.86	210.65
667.00	257.46
667.14	252.78
667.28	203.63
667.43	180.22
667.57	236.39
667.71	241.08
667.85	304.27
667.99	269.16
668.13	196.60
668.27	238.73
668.41	252.78
668.56	177.88
668.70	241.08
668.84	238.73
668.98	210.65
669.12	42.13
669.26	222.35
669.40	205.97
669.54	81.92
669.68	205.97
669.82	212.99
669.96	210.65
670.10	128.73
670.25	269.16
670.39	198.95
670.53	133.41
670.67	159.16
670.81	152.13
670.95	210.65
671.09	131.07
671.23	220.01
671.37	191.92
671.51	236.39
671.65	287.89
671.79	229.37
671.93	205.97
672.07	210.65
672.21	184.90
672.35	259.80
672.49	191.92
672.63	283.20
672.77	259.80
672.91	191.92
673.05	215.33
673.19	154.48
673.33	145.11
673.47	187.24
673.61	175.54
673.75	224.69
673.89	208.31
674.03	126.39
674.17	220.01
674.31	170.86
674.45	177.88
674.59	196.60
674.73	84.26
674.87	201.29
675.01	262.14
675.15	187.24
675.29	110.01
675.43	210.65
675.56	231.71
675.70	231.71
675.84	173.20
675.98	152.13
676.12	210.65
676.26	201.29
676.40	180.22
676.54	217.67
676.68	133.41
676.82	194.26
676.96	133.41
677.10	248.10
677.23	156.82
677.37	163.84
677.51	210.65
677.65	198.95
677.79	194.26
677.93	156.82
678.07	208.31
678.21	145.11
678.34	182.56
678.48	177.88
678.62	187.24
678.76	135.75
678.90	102.98
679.04	229.37
679.18	140.43
679.31	191.92
679.45	184.90
679.59	187.24
679.73	196.60
679.87	126.39
680.00	177.88
680.14	229.37
680.28	196.60
680.42	102.98
680.56	180.22
680.70	175.54
680.83	175.54
680.97	212.99
681.11	196.60
681.25	283.20
681.39	117.03
681.52	212.99
681.66	234.05
681.80	236.39
681.94	173.20
682.07	191.92
682.21	100.64
682.35	72.56
682.49	84.26
682.62	220.01
682.76	147.45
682.90	191.92
683.04	128.73
683.17	212.99
683.31	194.26
683.45	166.18
683.59	205.97
683.72	196.60
683.86	194.26
684.00	180.22
684.13	248.10
684.27	194.26
684.41	168.52
684.55	180.22
684.68	128.73
684.82	135.75
684.96	187.24
685.09	126.39
685.23	201.29
685.37	154.48
685.50	196.60
685.64	222.35
685.78	114.69
685.91	257.46
686.05	154.48
686.19	191.92
686.32	149.79
686.46	250.44
686.60	135.75
686.73	252.78
686.87	166.18
687.01	182.56
687.14	159.16
687.28	126.39
687.42	140.43
687.55	163.84
687.69	194.26
687.82	138.09
687.96	175.54
688.10	229.37
688.23	168.52
688.37	135.75
688.50	175.54
688.64	184.90
688.78	147.45
688.91	149.79
689.05	170.86
689.18	131.07
689.32	117.03
689.46	156.82
689.59	184.90
689.73	187.24
689.86	149.79
690.00	159.16
690.13	91.28
690.27	81.92
690.41	182.56
690.54	203.63
690.68	166.18
690.81	196.60
690.95	149.79
691.08	182.56
691.22	119.37
691.35	173.20
691.49	138.09
691.62	131.07
691.76	98.30
691.89	187.24
692.03	135.75
692.16	126.39
692.30	147.45
692.43	152.13
692.57	215.33
692.70	163.84
692.84	212.99
692.97	187.24
693.11	168.52
693.24	138.09
693.38	152.13
693.51	159.16
693.65	163.84
693.78	182.56
693.92	72.56
694.05	154.48
694.19	173.20
694.32	133.41
694.45	95.96
694.59	105.32
694.72	84.26
694.86	180.22
694.99	182.56
695.13	159.16
695.26	152.13
695.39	194.26
695.53	198.95
695.66	163.84
695.80	269.16
695.93	149.79
696.07	166.18
696.20	81.92
696.33	154.48
696.47	152.13
696.60	124.05
696.73	182.56
696.87	149.79
697.00	184.90
697.14	194.26
697.27	177.88
697.40	227.03
697.54	175.54
697.67	114.69
697.80	145.11
697.94	107.66
698.07	212.99
698.21	140.43
698.34	147.45
698.47	124.05
698.61	194.26
698.74	161.50
698.87	189.58
699.01	140.43
699.14	121.71
699.27	119.37
699.40	255.12
699.54	163.84
699.67	79.58
699.80	142.77
699.94	147.45
700.07	187.24
700.20	126.39
700.34	170.86
700.47	95.96
700.60	117.03
700.73	135.75
700.87	194.26
701.00	128.73
701.13	196.60
701.26	102.98
701.40	198.95
701.53	198.95
701.66	107.66
701.79	133.41
701.93	117.03
702.06	145.11
702.19	175.54
702.32	194.26
702.46	58.51
702.59	154.48
702.72	114.69
702.85	154.48
702.99	220.01
703.12	264.48
703.25	201.29
703.38	203.63
703.51	245.76
703.65	163.84
703.78	142.77
703.91	163.84
704.04	170.86
704.17	140.43
704.31	147.45
704.44	161.50
704.57	184.90
704.70	100.64
704.83	166.18
704.96	110.01
705.10	201.29
705.23	145.11
>>>>>End Processed Spectral Data<<<<<
