SpectraSuite Data File
++++++++++++++++++++++++++++++++++++
Date: Fri Oct 04 12:13:41 GMT-05:00 2013
User: price-jones
Dark Spectrum Present: No
Reference Spectrum Present: No
Number of Sampled Component Spectra: 1
Spectrometers: USB2+H05261
Integration Time (usec): 10000 (USB2+H05261)
Spectra Averaged: 1 (USB2+H05261)
Boxcar Smoothing: 0 (USB2+H05261)
Correct for Electrical Dark: No (USB2+H05261)
Strobe/Lamp Enabled: No (USB2+H05261)
Correct for Detector Non-linearity: No (USB2+H05261)
Correct for Stray Light: No (USB2+H05261)
Number of Pixels in Processed Spectrum: 2048
>>>>>Begin Processed Spectral Data<<<<<
365.73	0.00
365.92	0.00
366.12	0.00
366.32	0.00
366.52	0.00
366.72	0.00
366.91	0.00
367.11	0.00
367.31	0.00
367.51	0.00
367.70	0.00
367.90	0.00
368.10	0.00
368.30	0.00
368.49	0.00
368.69	0.00
368.89	0.00
369.09	0.00
369.28	0.00
369.48	0.00
369.68	0.00
369.87	0.00
370.07	0.00
370.27	0.00
370.47	0.00
370.66	0.00
370.86	0.00
371.06	0.00
371.25	0.00
371.45	4.68
371.65	70.22
371.84	0.00
372.04	0.00
372.24	0.00
372.44	0.00
372.63	42.13
372.83	0.00
373.03	28.09
373.22	0.00
373.42	0.00
373.62	0.00
373.81	30.43
374.01	21.06
374.21	0.00
374.40	37.45
374.60	11.70
374.79	35.11
374.99	9.36
375.19	35.11
375.38	37.45
375.58	0.00
375.78	14.04
375.97	9.36
376.17	51.49
376.37	35.11
376.56	28.09
376.76	56.17
376.95	7.02
377.15	112.35
377.35	0.00
377.54	0.00
377.74	16.38
377.93	51.49
378.13	11.70
378.33	39.79
378.52	0.00
378.72	21.06
378.91	51.49
379.11	86.60
379.31	84.26
379.50	18.72
379.70	51.49
379.89	0.00
380.09	0.00
380.28	0.00
380.48	58.51
380.68	2.34
380.87	16.38
381.07	11.70
381.26	56.17
381.46	58.51
381.65	53.83
381.85	16.38
382.04	0.00
382.24	35.11
382.43	0.00
382.63	67.88
382.83	4.68
383.02	0.00
383.22	0.00
383.41	7.02
383.61	70.22
383.80	0.00
384.00	0.00
384.19	0.00
384.39	0.00
384.58	49.15
384.78	72.56
384.97	39.79
385.17	44.47
385.36	30.43
385.56	23.41
385.75	32.77
385.95	21.06
386.14	65.54
386.34	11.70
386.53	77.24
386.72	0.00
386.92	35.11
387.11	58.51
387.31	0.00
387.50	0.00
387.70	56.17
387.89	70.22
388.09	0.00
388.28	0.00
388.48	11.70
388.67	67.88
388.86	9.36
389.06	60.85
389.25	7.02
389.45	9.36
389.64	51.49
389.84	0.00
390.03	84.26
390.22	86.60
390.42	44.47
390.61	0.00
390.81	86.60
391.00	21.06
391.19	14.04
391.39	51.49
391.58	7.02
391.78	9.36
391.97	0.00
392.16	18.72
392.36	37.45
392.55	21.06
392.75	0.00
392.94	65.54
393.13	51.49
393.33	0.00
393.52	37.45
393.71	46.81
393.91	0.00
394.10	56.17
394.29	30.43
394.49	0.00
394.68	39.79
394.88	2.34
395.07	0.00
395.26	37.45
395.46	18.72
395.65	35.11
395.84	42.13
396.04	63.19
396.23	53.83
396.42	25.75
396.62	30.43
396.81	16.38
397.00	0.00
397.19	7.02
397.39	53.83
397.58	28.09
397.77	39.79
397.97	0.00
398.16	39.79
398.35	4.68
398.55	0.00
398.74	14.04
398.93	0.00
399.12	58.51
399.32	95.96
399.51	30.43
399.70	35.11
399.90	74.90
400.09	0.00
400.28	30.43
400.47	16.38
400.67	2.34
400.86	67.88
401.05	9.36
401.24	65.54
401.44	100.64
401.63	30.43
401.82	30.43
402.01	37.45
402.21	0.00
402.40	7.02
402.59	4.68
402.78	51.49
402.97	23.41
403.17	35.11
403.36	46.81
403.55	25.75
403.74	35.11
403.93	42.13
404.13	0.00
404.32	0.00
404.51	42.13
404.70	51.49
404.89	42.13
405.09	0.00
405.28	30.43
405.47	30.43
405.66	67.88
405.85	46.81
406.05	105.32
406.24	51.49
406.43	9.36
406.62	72.56
406.81	28.09
407.00	60.85
407.20	102.98
407.39	23.41
407.58	37.45
407.77	0.00
407.96	42.13
408.15	65.54
408.34	42.13
408.54	65.54
408.73	0.00
408.92	98.30
409.11	67.88
409.30	35.11
409.49	21.06
409.68	28.09
409.87	28.09
410.07	44.47
410.26	28.09
410.45	0.00
410.64	0.00
410.83	0.00
411.02	53.83
411.21	0.00
411.40	4.68
411.59	49.15
411.78	56.17
411.98	53.83
412.17	91.28
412.36	79.58
412.55	0.00
412.74	131.07
412.93	74.90
413.12	51.49
413.31	0.00
413.50	16.38
413.69	42.13
413.88	65.54
414.07	37.45
414.26	37.45
414.45	35.11
414.64	2.34
414.83	46.81
415.02	42.13
415.22	0.00
415.41	37.45
415.60	65.54
415.79	79.58
415.98	0.00
416.17	0.00
416.36	21.06
416.55	72.56
416.74	42.13
416.93	32.77
417.12	58.51
417.31	135.75
417.50	35.11
417.69	58.51
417.88	49.15
418.07	32.77
418.26	77.24
418.45	42.13
418.64	60.85
418.83	79.58
419.02	35.11
419.21	84.26
419.39	91.28
419.58	74.90
419.77	44.47
419.96	65.54
420.15	21.06
420.34	70.22
420.53	60.85
420.72	0.00
420.91	9.36
421.10	51.49
421.29	28.09
421.48	95.96
421.67	9.36
421.86	11.70
422.05	74.90
422.24	56.17
422.43	18.72
422.61	9.36
422.80	84.26
422.99	21.06
423.18	65.54
423.37	60.85
423.56	95.96
423.75	39.79
423.94	32.77
424.13	14.04
424.32	0.00
424.50	0.00
424.69	9.36
424.88	56.17
425.07	49.15
425.26	28.09
425.45	63.19
425.64	91.28
425.83	44.47
426.01	23.41
426.20	74.90
426.39	72.56
426.58	49.15
426.77	117.03
426.96	37.45
427.15	0.00
427.33	44.47
427.52	98.30
427.71	65.54
427.90	30.43
428.09	91.28
428.28	98.30
428.46	14.04
428.65	25.75
428.84	37.45
429.03	46.81
429.22	16.38
429.40	84.26
429.59	49.15
429.78	0.00
429.97	53.83
430.16	7.02
430.34	88.94
430.53	42.13
430.72	23.41
430.91	51.49
431.10	84.26
431.28	39.79
431.47	14.04
431.66	7.02
431.85	77.24
432.03	46.81
432.22	77.24
432.41	30.43
432.60	77.24
432.79	0.00
432.97	16.38
433.16	16.38
433.35	32.77
433.54	100.64
433.72	91.28
433.91	0.00
434.10	51.49
434.28	79.58
434.47	0.00
434.66	63.19
434.85	30.43
435.03	25.75
435.22	32.77
435.41	93.62
435.59	28.09
435.78	44.47
435.97	93.62
436.16	42.13
436.34	63.19
436.53	32.77
436.72	74.90
436.90	7.02
437.09	100.64
437.28	44.47
437.46	39.79
437.65	21.06
437.84	49.15
438.02	42.13
438.21	112.35
438.40	23.41
438.58	63.19
438.77	88.94
438.96	84.26
439.14	67.88
439.33	0.00
439.52	0.00
439.70	30.43
439.89	32.77
440.08	114.69
440.26	77.24
440.45	35.11
440.63	23.41
440.82	131.07
441.01	35.11
441.19	79.58
441.38	39.79
441.57	28.09
441.75	65.54
441.94	23.41
442.12	16.38
442.31	102.98
442.50	14.04
442.68	2.34
442.87	7.02
443.05	25.75
443.24	39.79
443.43	86.60
443.61	16.38
443.80	28.09
443.98	21.06
444.17	23.41
444.35	39.79
444.54	60.85
444.73	74.90
444.91	77.24
445.10	56.17
445.28	91.28
445.47	67.88
445.65	79.58
445.84	53.83
446.02	74.90
446.21	32.77
446.39	16.38
446.58	63.19
446.77	7.02
446.95	46.81
447.14	11.70
447.32	51.49
447.51	58.51
447.69	86.60
447.88	42.13
448.06	0.00
448.25	117.03
448.43	74.90
448.62	74.90
448.80	32.77
448.99	65.54
449.17	44.47
449.36	2.34
449.54	67.88
449.73	88.94
449.91	42.13
450.10	16.38
450.28	79.58
450.46	105.32
450.65	65.54
450.83	60.85
451.02	0.00
451.20	117.03
451.39	58.51
451.57	2.34
451.76	28.09
451.94	128.73
452.13	0.00
452.31	51.49
452.49	25.75
452.68	0.00
452.86	21.06
453.05	0.00
453.23	74.90
453.42	65.54
453.60	70.22
453.78	63.19
453.97	135.75
454.15	124.05
454.34	42.13
454.52	32.77
454.70	28.09
454.89	70.22
455.07	56.17
455.26	84.26
455.44	63.19
455.62	112.35
455.81	124.05
455.99	121.71
456.17	58.51
456.36	16.38
456.54	67.88
456.73	93.62
456.91	9.36
457.09	39.79
457.28	56.17
457.46	0.00
457.64	51.49
457.83	112.35
458.01	117.03
458.19	63.19
458.38	51.49
458.56	95.96
458.74	65.54
458.93	100.64
459.11	67.88
459.29	16.38
459.48	28.09
459.66	65.54
459.84	67.88
460.03	39.79
460.21	56.17
460.39	0.00
460.57	53.83
460.76	86.60
460.94	11.70
461.12	81.92
461.31	44.47
461.49	32.77
461.67	16.38
461.85	60.85
462.04	70.22
462.22	56.17
462.40	42.13
462.59	42.13
462.77	70.22
462.95	88.94
463.13	65.54
463.32	88.94
463.50	81.92
463.68	100.64
463.86	46.81
464.05	65.54
464.23	32.77
464.41	39.79
464.59	58.51
464.78	35.11
464.96	0.00
465.14	16.38
465.32	60.85
465.50	21.06
465.69	77.24
465.87	56.17
466.05	63.19
466.23	65.54
466.41	39.79
466.60	91.28
466.78	0.00
466.96	72.56
467.14	32.77
467.32	0.00
467.51	70.22
467.69	91.28
467.87	32.77
468.05	23.41
468.23	93.62
468.41	79.58
468.60	102.98
468.78	51.49
468.96	32.77
469.14	77.24
469.32	110.01
469.50	114.69
469.69	0.00
469.87	53.83
470.05	88.94
470.23	79.58
470.41	53.83
470.59	58.51
470.77	117.03
470.95	0.00
471.14	88.94
471.32	16.38
471.50	14.04
471.68	39.79
471.86	70.22
472.04	58.51
472.22	7.02
472.40	81.92
472.58	16.38
472.77	28.09
472.95	51.49
473.13	93.62
473.31	124.05
473.49	154.48
473.67	14.04
473.85	49.15
474.03	37.45
474.21	28.09
474.39	23.41
474.57	46.81
474.75	49.15
474.93	91.28
475.12	81.92
475.30	91.28
475.48	60.85
475.66	11.70
475.84	79.58
476.02	105.32
476.20	21.06
476.38	81.92
476.56	72.56
476.74	7.02
476.92	0.00
477.10	21.06
477.28	39.79
477.46	98.30
477.64	63.19
477.82	65.54
478.00	86.60
478.18	88.94
478.36	35.11
478.54	14.04
478.72	98.30
478.90	72.56
479.08	63.19
479.26	18.72
479.44	126.39
479.62	65.54
479.80	58.51
479.98	39.79
480.16	60.85
480.34	133.41
480.52	56.17
480.70	159.16
480.88	72.56
481.06	77.24
481.24	56.17
481.41	35.11
481.59	42.13
481.77	0.00
481.95	53.83
482.13	140.43
482.31	102.98
482.49	133.41
482.67	53.83
482.85	60.85
483.03	0.00
483.21	35.11
483.39	2.34
483.57	21.06
483.74	58.51
483.92	42.13
484.10	51.49
484.28	107.66
484.46	121.71
484.64	74.90
484.82	39.79
485.00	0.00
485.18	81.92
485.35	133.41
485.53	21.06
485.71	86.60
485.89	9.36
486.07	88.94
486.25	28.09
486.43	49.15
486.61	44.47
486.78	0.00
486.96	98.30
487.14	51.49
487.32	74.90
487.50	2.34
487.68	58.51
487.85	39.79
488.03	16.38
488.21	37.45
488.39	58.51
488.57	60.85
488.75	63.19
488.92	168.52
489.10	114.69
489.28	112.35
489.46	100.64
489.64	110.01
489.81	117.03
489.99	88.94
490.17	51.49
490.35	126.39
490.53	16.38
490.70	37.45
490.88	77.24
491.06	16.38
491.24	70.22
491.41	72.56
491.59	74.90
491.77	119.37
491.95	18.72
492.13	51.49
492.30	72.56
492.48	70.22
492.66	67.88
492.84	114.69
493.01	86.60
493.19	4.68
493.37	142.77
493.54	102.98
493.72	133.41
493.90	51.49
494.08	18.72
494.25	23.41
494.43	0.00
494.61	46.81
494.79	67.88
494.96	74.90
495.14	126.39
495.32	16.38
495.49	65.54
495.67	49.15
495.85	65.54
496.02	7.02
496.20	112.35
496.38	121.71
496.55	53.83
496.73	51.49
496.91	35.11
497.09	51.49
497.26	74.90
497.44	156.82
497.62	110.01
497.79	105.32
497.97	42.13
498.14	72.56
498.32	49.15
498.50	102.98
498.67	114.69
498.85	51.49
499.03	102.98
499.20	74.90
499.38	51.49
499.56	77.24
499.73	67.88
499.91	74.90
500.08	65.54
500.26	86.60
500.44	70.22
500.61	81.92
500.79	63.19
500.97	84.26
501.14	44.47
501.32	93.62
501.49	77.24
501.67	60.85
501.84	39.79
502.02	100.64
502.20	53.83
502.37	86.60
502.55	65.54
502.72	70.22
502.90	42.13
503.07	9.36
503.25	65.54
503.43	84.26
503.60	107.66
503.78	84.26
503.95	112.35
504.13	23.41
504.30	84.26
504.48	32.77
504.65	39.79
504.83	30.43
505.01	58.51
505.18	84.26
505.36	16.38
505.53	110.01
505.71	65.54
505.88	95.96
506.06	39.79
506.23	110.01
506.41	58.51
506.58	95.96
506.76	42.13
506.93	102.98
507.11	0.00
507.28	205.97
507.46	117.03
507.63	39.79
507.81	63.19
507.98	173.20
508.16	124.05
508.33	95.96
508.50	37.45
508.68	74.90
508.85	77.24
509.03	105.32
509.20	114.69
509.38	105.32
509.55	121.71
509.73	86.60
509.90	39.79
510.08	53.83
510.25	39.79
510.42	63.19
510.60	60.85
510.77	81.92
510.95	102.98
511.12	72.56
511.30	60.85
511.47	112.35
511.64	44.47
511.82	81.92
511.99	74.90
512.17	63.19
512.34	67.88
512.51	84.26
512.69	95.96
512.86	39.79
513.04	70.22
513.21	67.88
513.38	32.77
513.56	126.39
513.73	60.85
513.90	121.71
514.08	102.98
514.25	58.51
514.43	65.54
514.60	95.96
514.77	98.30
514.95	107.66
515.12	107.66
515.29	145.11
515.47	93.62
515.64	79.58
515.81	72.56
515.99	102.98
516.16	117.03
516.33	128.73
516.51	0.00
516.68	51.49
516.85	74.90
517.03	79.58
517.20	145.11
517.37	152.13
517.54	107.66
517.72	91.28
517.89	114.69
518.06	95.96
518.24	25.75
518.41	63.19
518.58	46.81
518.75	84.26
518.93	112.35
519.10	60.85
519.27	42.13
519.45	56.17
519.62	72.56
519.79	110.01
519.96	175.54
520.14	166.18
520.31	65.54
520.48	56.17
520.65	110.01
520.83	30.43
521.00	53.83
521.17	58.51
521.34	63.19
521.52	145.11
521.69	131.07
521.86	63.19
522.03	102.98
522.20	70.22
522.38	102.98
522.55	60.85
522.72	119.37
522.89	105.32
523.07	51.49
523.24	88.94
523.41	117.03
523.58	58.51
523.75	112.35
523.92	112.35
524.10	128.73
524.27	117.03
524.44	91.28
524.61	84.26
524.78	114.69
524.96	121.71
525.13	67.88
525.30	102.98
525.47	70.22
525.64	37.45
525.81	51.49
525.98	65.54
526.16	154.48
526.33	107.66
526.50	119.37
526.67	28.09
526.84	60.85
527.01	91.28
527.18	58.51
527.36	93.62
527.53	53.83
527.70	67.88
527.87	67.88
528.04	0.00
528.21	72.56
528.38	114.69
528.55	86.60
528.72	131.07
528.89	86.60
529.07	77.24
529.24	117.03
529.41	126.39
529.58	98.30
529.75	91.28
529.92	70.22
530.09	114.69
530.26	30.43
530.43	161.50
530.60	119.37
530.77	9.36
530.94	117.03
531.11	98.30
531.28	147.45
531.46	65.54
531.63	70.22
531.80	117.03
531.97	44.47
532.14	58.51
532.31	58.51
532.48	105.32
532.65	133.41
532.82	84.26
532.99	42.13
533.16	107.66
533.33	135.75
533.50	16.38
533.67	44.47
533.84	60.85
534.01	140.43
534.18	56.17
534.35	63.19
534.52	133.41
534.69	102.98
534.86	107.66
535.03	154.48
535.20	70.22
535.37	58.51
535.54	128.73
535.71	121.71
535.88	93.62
536.05	133.41
536.22	18.72
536.38	77.24
536.55	88.94
536.72	79.58
536.89	98.30
537.06	25.75
537.23	102.98
537.40	140.43
537.57	86.60
537.74	63.19
537.91	53.83
538.08	88.94
538.25	23.41
538.42	121.71
538.59	46.81
538.75	149.79
538.92	72.56
539.09	93.62
539.26	145.11
539.43	53.83
539.60	114.69
539.77	30.43
539.94	98.30
540.11	37.45
540.28	4.68
540.44	53.83
540.61	79.58
540.78	112.35
540.95	119.37
541.12	81.92
541.29	65.54
541.46	58.51
541.62	16.38
541.79	86.60
541.96	44.47
542.13	72.56
542.30	65.54
542.47	88.94
542.63	124.05
542.80	65.54
542.97	72.56
543.14	49.15
543.31	77.24
543.48	63.19
543.64	170.86
543.81	86.60
543.98	79.58
544.15	42.13
544.32	74.90
544.48	95.96
544.65	72.56
544.82	128.73
544.99	25.75
545.16	72.56
545.32	117.03
545.49	133.41
545.66	67.88
545.83	25.75
546.00	81.92
546.16	49.15
546.33	49.15
546.50	63.19
546.67	65.54
546.83	166.18
547.00	86.60
547.17	112.35
547.34	63.19
547.50	53.83
547.67	21.06
547.84	74.90
548.00	140.43
548.17	60.85
548.34	60.85
548.51	145.11
548.67	67.88
548.84	117.03
549.01	70.22
549.18	42.13
549.34	119.37
549.51	112.35
549.68	18.72
549.84	81.92
550.01	51.49
550.18	119.37
550.34	149.79
550.51	58.51
550.68	119.37
550.84	98.30
551.01	30.43
551.18	4.68
551.34	114.69
551.51	95.96
551.68	44.47
551.84	16.38
552.01	152.13
552.18	42.13
552.34	112.35
552.51	58.51
552.68	156.82
552.84	46.81
553.01	42.13
553.18	88.94
553.34	128.73
553.51	32.77
553.67	46.81
553.84	53.83
554.01	107.66
554.17	49.15
554.34	135.75
554.51	60.85
554.67	112.35
554.84	119.37
555.00	51.49
555.17	7.02
555.33	60.85
555.50	49.15
555.67	184.90
555.83	84.26
556.00	119.37
556.16	42.13
556.33	67.88
556.50	112.35
556.66	100.64
556.83	30.43
556.99	65.54
557.16	84.26
557.32	72.56
557.49	0.00
557.65	84.26
557.82	46.81
557.98	98.30
558.15	88.94
558.32	46.81
558.48	112.35
558.65	102.98
558.81	53.83
558.98	65.54
559.14	107.66
559.31	112.35
559.47	37.45
559.64	46.81
559.80	93.62
559.97	53.83
560.13	88.94
560.30	124.05
560.46	114.69
560.63	107.66
560.79	88.94
560.96	70.22
561.12	102.98
561.29	44.47
561.45	56.17
561.61	100.64
561.78	65.54
561.94	142.77
562.11	46.81
562.27	95.96
562.44	86.60
562.60	67.88
562.77	105.32
562.93	79.58
563.10	51.49
563.26	72.56
563.42	81.92
563.59	105.32
563.75	42.13
563.92	93.62
564.08	100.64
564.24	114.69
564.41	133.41
564.57	126.39
564.74	46.81
564.90	81.92
565.07	0.00
565.23	77.24
565.39	77.24
565.56	102.98
565.72	39.79
565.88	0.00
566.05	142.77
566.21	60.85
566.38	63.19
566.54	117.03
566.70	39.79
566.87	93.62
567.03	65.54
567.19	77.24
567.36	84.26
567.52	142.77
567.68	114.69
567.85	95.96
568.01	58.51
568.17	140.43
568.34	112.35
568.50	14.04
568.66	81.92
568.83	60.85
568.99	42.13
569.15	119.37
569.32	32.77
569.48	131.07
569.64	98.30
569.81	91.28
569.97	7.02
570.13	84.26
570.30	121.71
570.46	49.15
570.62	25.75
570.78	88.94
570.95	105.32
571.11	88.94
571.27	100.64
571.43	100.64
571.60	37.45
571.76	30.43
571.92	112.35
572.09	60.85
572.25	81.92
572.41	46.81
572.57	100.64
572.74	39.79
572.90	53.83
573.06	110.01
573.22	110.01
573.38	110.01
573.55	170.86
573.71	88.94
573.87	107.66
574.03	44.47
574.20	81.92
574.36	21.06
574.52	110.01
574.68	49.15
574.84	74.90
575.01	91.28
575.17	49.15
575.33	110.01
575.49	67.88
575.65	60.85
575.82	74.90
575.98	60.85
576.14	100.64
576.30	30.43
576.46	49.15
576.62	77.24
576.79	102.98
576.95	56.17
577.11	79.58
577.27	102.98
577.43	91.28
577.59	81.92
577.75	77.24
577.92	72.56
578.08	46.81
578.24	0.00
578.40	35.11
578.56	7.02
578.72	110.01
578.88	39.79
579.04	79.58
579.21	145.11
579.37	126.39
579.53	121.71
579.69	65.54
579.85	84.26
580.01	86.60
580.17	51.49
580.33	98.30
580.49	77.24
580.65	58.51
580.82	105.32
580.98	112.35
581.14	131.07
581.30	72.56
581.46	77.24
581.62	70.22
581.78	105.32
581.94	86.60
582.10	0.00
582.26	74.90
582.42	58.51
582.58	131.07
582.74	128.73
582.90	63.19
583.06	58.51
583.22	77.24
583.38	170.86
583.54	37.45
583.70	81.92
583.86	95.96
584.02	84.26
584.18	42.13
584.34	39.79
584.50	102.98
584.66	121.71
584.82	44.47
584.98	44.47
585.14	105.32
585.30	21.06
585.46	21.06
585.62	91.28
585.78	14.04
585.94	70.22
586.10	140.43
586.26	77.24
586.42	138.09
586.58	35.11
586.74	42.13
586.90	9.36
587.06	42.13
587.22	39.79
587.38	65.54
587.54	70.22
587.70	0.00
587.86	42.13
588.02	121.71
588.18	105.32
588.34	93.62
588.49	0.00
588.65	28.09
588.81	152.13
588.97	81.92
589.13	88.94
589.29	44.47
589.45	93.62
589.61	11.70
589.77	67.88
589.93	91.28
590.08	42.13
590.24	2.34
590.40	0.00
590.56	37.45
590.72	30.43
590.88	53.83
591.04	67.88
591.20	0.00
591.35	65.54
591.51	44.47
591.67	56.17
591.83	56.17
591.99	63.19
592.15	79.58
592.31	74.90
592.46	60.85
592.62	58.51
592.78	60.85
592.94	65.54
593.10	88.94
593.26	0.00
593.41	95.96
593.57	67.88
593.73	0.00
593.89	0.00
594.05	53.83
594.20	60.85
594.36	39.79
594.52	53.83
594.68	37.45
594.84	86.60
594.99	86.60
595.15	60.85
595.31	98.30
595.47	51.49
595.62	147.45
595.78	39.79
595.94	128.73
596.10	100.64
596.25	56.17
596.41	63.19
596.57	140.43
596.73	74.90
596.88	117.03
597.04	58.51
597.20	11.70
597.36	86.60
597.51	102.98
597.67	72.56
597.83	128.73
597.99	93.62
598.14	63.19
598.30	30.43
598.46	86.60
598.61	51.49
598.77	88.94
598.93	88.94
599.09	126.39
599.24	100.64
599.40	107.66
599.56	70.22
599.71	28.09
599.87	117.03
600.03	95.96
600.18	77.24
600.34	35.11
600.50	133.41
600.65	105.32
600.81	39.79
600.97	53.83
601.12	117.03
601.28	124.05
601.44	9.36
601.59	67.88
601.75	152.13
601.91	79.58
602.06	42.13
602.22	135.75
602.37	60.85
602.53	107.66
602.69	60.85
602.84	37.45
603.00	37.45
603.16	16.38
603.31	0.00
603.47	23.41
603.62	46.81
603.78	63.19
603.94	0.00
604.09	35.11
604.25	25.75
604.40	72.56
604.56	91.28
604.71	93.62
604.87	72.56
605.03	0.00
605.18	117.03
605.34	147.45
605.49	44.47
605.65	88.94
605.80	98.30
605.96	114.69
606.12	72.56
606.27	93.62
606.43	135.75
606.58	110.01
606.74	18.72
606.89	16.38
607.05	67.88
607.20	58.51
607.36	4.68
607.51	100.64
607.67	88.94
607.82	77.24
607.98	25.75
608.13	35.11
608.29	51.49
608.44	42.13
608.60	91.28
608.75	60.85
608.91	32.77
609.06	98.30
609.22	37.45
609.37	42.13
609.53	53.83
609.68	14.04
609.84	105.32
609.99	91.28
610.15	56.17
610.30	25.75
610.46	114.69
610.61	121.71
610.76	37.45
610.92	53.83
611.07	142.77
611.23	124.05
611.38	91.28
611.54	58.51
611.69	53.83
611.84	51.49
612.00	67.88
612.15	77.24
612.31	105.32
612.46	58.51
612.62	70.22
612.77	93.62
612.92	51.49
613.08	46.81
613.23	65.54
613.39	51.49
613.54	30.43
613.69	32.77
613.85	119.37
614.00	70.22
614.15	56.17
614.31	65.54
614.46	14.04
614.62	63.19
614.77	7.02
614.92	100.64
615.08	81.92
615.23	11.70
615.38	117.03
615.54	49.15
615.69	100.64
615.84	86.60
616.00	32.77
616.15	70.22
616.30	51.49
616.46	28.09
616.61	49.15
616.76	49.15
616.92	60.85
617.07	0.00
617.22	105.32
617.37	88.94
617.53	100.64
617.68	70.22
617.83	114.69
617.99	18.72
618.14	42.13
618.29	95.96
618.45	95.96
618.60	53.83
618.75	107.66
618.90	37.45
619.06	30.43
619.21	117.03
619.36	98.30
619.51	93.62
619.67	93.62
619.82	88.94
619.97	105.32
620.12	51.49
620.28	60.85
620.43	30.43
620.58	32.77
620.73	23.41
620.89	21.06
621.04	51.49
621.19	35.11
621.34	81.92
621.49	65.54
621.65	28.09
621.80	35.11
621.95	37.45
622.10	98.30
622.25	67.88
622.41	72.56
622.56	98.30
622.71	74.90
622.86	70.22
623.01	60.85
623.16	67.88
623.32	23.41
623.47	117.03
623.62	42.13
623.77	28.09
623.92	9.36
624.07	56.17
624.23	0.00
624.38	11.70
624.53	128.73
624.68	53.83
624.83	39.79
624.98	42.13
625.13	60.85
625.29	46.81
625.44	0.00
625.59	93.62
625.74	7.02
625.89	42.13
626.04	138.09
626.19	107.66
626.34	79.58
626.49	91.28
626.65	46.81
626.80	14.04
626.95	88.94
627.10	18.72
627.25	117.03
627.40	44.47
627.55	9.36
627.70	112.35
627.85	35.11
628.00	39.79
628.15	0.00
628.30	14.04
628.45	95.96
628.60	53.83
628.76	107.66
628.91	18.72
629.06	98.30
629.21	79.58
629.36	32.77
629.51	39.79
629.66	124.05
629.81	65.54
629.96	95.96
630.11	49.15
630.26	124.05
630.41	88.94
630.56	105.32
630.71	65.54
630.86	56.17
631.01	63.19
631.16	86.60
631.31	128.73
631.46	32.77
631.61	42.13
631.76	88.94
631.91	70.22
632.06	93.62
632.21	77.24
632.36	49.15
632.51	65.54
632.66	21.06
632.81	44.47
632.96	37.45
633.10	88.94
633.25	42.13
633.40	65.54
633.55	93.62
633.70	67.88
633.85	100.64
634.00	77.24
634.15	124.05
634.30	18.72
634.45	37.45
634.60	67.88
634.75	37.45
634.90	88.94
635.05	98.30
635.19	63.19
635.34	98.30
635.49	124.05
635.64	0.00
635.79	98.30
635.94	77.24
636.09	88.94
636.24	112.35
636.39	0.00
636.53	60.85
636.68	37.45
636.83	51.49
636.98	49.15
637.13	74.90
637.28	114.69
637.43	28.09
637.57	42.13
637.72	56.17
637.87	154.48
638.02	60.85
638.17	77.24
638.32	49.15
638.46	156.82
638.61	86.60
638.76	126.39
638.91	74.90
639.06	32.77
639.20	14.04
639.35	21.06
639.50	21.06
639.65	44.47
639.80	51.49
639.94	49.15
640.09	86.60
640.24	25.75
640.39	86.60
640.54	32.77
640.68	42.13
640.83	117.03
640.98	58.51
641.13	21.06
641.27	81.92
641.42	39.79
641.57	65.54
641.72	67.88
641.86	84.26
642.01	28.09
642.16	25.75
642.31	0.00
642.45	11.70
642.60	63.19
642.75	65.54
642.90	60.85
643.04	37.45
643.19	79.58
643.34	65.54
643.48	77.24
643.63	84.26
643.78	77.24
643.93	88.94
644.07	88.94
644.22	44.47
644.37	44.47
644.51	114.69
644.66	105.32
644.81	93.62
644.95	114.69
645.10	0.00
645.25	88.94
645.39	58.51
645.54	53.83
645.69	0.00
645.83	18.72
645.98	46.81
646.13	67.88
646.27	72.56
646.42	84.26
646.57	35.11
646.71	39.79
646.86	128.73
647.00	0.00
647.15	23.41
647.30	0.00
647.44	23.41
647.59	46.81
647.74	60.85
647.88	42.13
648.03	74.90
648.17	46.81
648.32	84.26
648.47	60.85
648.61	86.60
648.76	98.30
648.90	102.98
649.05	63.19
649.20	0.00
649.34	74.90
649.49	18.72
649.63	51.49
649.78	102.98
649.92	93.62
650.07	21.06
650.21	0.00
650.36	67.88
650.51	74.90
650.65	86.60
650.80	72.56
650.94	35.11
651.09	81.92
651.23	107.66
651.38	51.49
651.52	18.72
651.67	107.66
651.81	23.41
651.96	39.79
652.10	79.58
652.25	30.43
652.39	65.54
652.54	32.77
652.68	74.90
652.83	79.58
652.97	46.81
653.12	9.36
653.26	49.15
653.41	93.62
653.55	37.45
653.70	74.90
653.84	77.24
653.99	21.06
654.13	21.06
654.27	2.34
654.42	28.09
654.56	14.04
654.71	93.62
654.85	65.54
655.00	100.64
655.14	21.06
655.29	25.75
655.43	39.79
655.57	119.37
655.72	60.85
655.86	84.26
656.01	53.83
656.15	28.09
656.30	44.47
656.44	37.45
656.58	32.77
656.73	88.94
656.87	18.72
657.01	72.56
657.16	63.19
657.30	23.41
657.45	0.00
657.59	56.17
657.73	79.58
657.88	44.47
658.02	138.09
658.16	0.00
658.31	2.34
658.45	70.22
658.60	30.43
658.74	58.51
658.88	88.94
659.03	102.98
659.17	72.56
659.31	18.72
659.46	46.81
659.60	65.54
659.74	37.45
659.89	63.19
660.03	18.72
660.17	91.28
660.32	53.83
660.46	11.70
660.60	88.94
660.74	44.47
660.89	91.28
661.03	7.02
661.17	105.32
661.32	32.77
661.46	84.26
661.60	77.24
661.74	2.34
661.89	25.75
662.03	91.28
662.17	117.03
662.31	95.96
662.46	16.38
662.60	51.49
662.74	49.15
662.88	35.11
663.03	91.28
663.17	114.69
663.31	81.92
663.45	72.56
663.60	91.28
663.74	95.96
663.88	0.00
664.02	126.39
664.17	4.68
664.31	65.54
664.45	49.15
664.59	53.83
664.73	4.68
664.88	14.04
665.02	51.49
665.16	77.24
665.30	102.98
665.44	56.17
665.59	23.41
665.73	49.15
665.87	30.43
666.01	98.30
666.15	114.69
666.29	0.00
666.44	121.71
666.58	140.43
666.72	65.54
666.86	77.24
667.00	37.45
667.14	42.13
667.28	14.04
667.43	119.37
667.57	60.85
667.71	86.60
667.85	28.09
667.99	16.38
668.13	2.34
668.27	53.83
668.41	60.85
668.56	39.79
668.70	53.83
668.84	79.58
668.98	42.13
669.12	39.79
669.26	107.66
669.40	21.06
669.54	84.26
669.68	21.06
669.82	39.79
669.96	4.68
670.10	74.90
670.25	16.38
670.39	44.47
670.53	67.88
670.67	25.75
670.81	23.41
670.95	65.54
671.09	30.43
671.23	35.11
671.37	74.90
671.51	16.38
671.65	30.43
671.79	11.70
671.93	11.70
672.07	114.69
672.21	56.17
672.35	51.49
672.49	0.00
672.63	9.36
672.77	11.70
672.91	51.49
673.05	44.47
673.19	35.11
673.33	51.49
673.47	44.47
673.61	88.94
673.75	95.96
673.89	21.06
674.03	79.58
674.17	74.90
674.31	67.88
674.45	21.06
674.59	0.00
674.73	124.05
674.87	79.58
675.01	77.24
675.15	74.90
675.29	51.49
675.43	65.54
675.56	72.56
675.70	107.66
675.84	51.49
675.98	28.09
676.12	42.13
676.26	9.36
676.40	0.00
676.54	81.92
676.68	46.81
676.82	0.00
676.96	23.41
677.10	49.15
677.23	128.73
677.37	95.96
677.51	70.22
677.65	63.19
677.79	18.72
677.93	81.92
678.07	25.75
678.21	4.68
678.34	39.79
678.48	102.98
678.62	0.00
678.76	14.04
678.90	147.45
679.04	84.26
679.18	42.13
679.31	18.72
679.45	86.60
679.59	72.56
679.73	32.77
679.87	56.17
680.00	44.47
680.14	0.00
680.28	72.56
680.42	42.13
680.56	72.56
680.70	56.17
680.83	74.90
680.97	37.45
681.11	63.19
681.25	0.00
681.39	46.81
681.52	46.81
681.66	42.13
681.80	42.13
681.94	0.00
682.07	44.47
682.21	0.00
682.35	100.64
682.49	46.81
682.62	100.64
682.76	44.47
682.90	53.83
683.04	72.56
683.17	32.77
683.31	98.30
683.45	7.02
683.59	77.24
683.72	35.11
683.86	14.04
684.00	0.00
684.13	0.00
684.27	0.00
684.41	65.54
684.55	110.01
684.68	51.49
684.82	32.77
684.96	72.56
685.09	16.38
685.23	23.41
685.37	49.15
685.50	114.69
685.64	88.94
685.78	88.94
685.91	0.00
686.05	35.11
686.19	114.69
686.32	30.43
686.46	60.85
686.60	65.54
686.73	32.77
686.87	74.90
687.01	0.00
687.14	37.45
687.28	42.13
687.42	39.79
687.55	0.00
687.69	65.54
687.82	60.85
687.96	16.38
688.10	42.13
688.23	11.70
688.37	16.38
688.50	16.38
688.64	23.41
688.78	0.00
688.91	42.13
689.05	91.28
689.18	30.43
689.32	2.34
689.46	32.77
689.59	65.54
689.73	67.88
689.86	2.34
690.00	30.43
690.13	7.02
690.27	28.09
690.41	72.56
690.54	25.75
690.68	11.70
690.81	65.54
690.95	18.72
691.08	74.90
691.22	32.77
691.35	133.41
691.49	44.47
691.62	0.00
691.76	18.72
691.89	77.24
692.03	70.22
692.16	70.22
692.30	44.47
692.43	56.17
692.57	23.41
692.70	51.49
692.84	0.00
692.97	35.11
693.11	11.70
693.24	0.00
693.38	98.30
693.51	44.47
693.65	84.26
693.78	72.56
693.92	0.00
694.05	58.51
694.19	100.64
694.32	9.36
694.45	0.00
694.59	9.36
694.72	16.38
694.86	98.30
694.99	0.00
695.13	0.00
695.26	35.11
695.39	23.41
695.53	11.70
695.66	23.41
695.80	77.24
695.93	16.38
696.07	0.00
696.20	7.02
696.33	117.03
696.47	39.79
696.60	21.06
696.73	0.00
696.87	0.00
697.00	35.11
697.14	63.19
697.27	0.00
697.40	93.62
697.54	18.72
697.67	30.43
697.80	7.02
697.94	51.49
698.07	88.94
698.21	65.54
698.34	32.77
698.47	65.54
698.61	39.79
698.74	49.15
698.87	58.51
699.01	86.60
699.14	39.79
699.27	60.85
699.40	72.56
699.54	0.00
699.67	81.92
699.80	0.00
699.94	44.47
700.07	84.26
700.20	14.04
700.34	16.38
700.47	79.58
700.60	77.24
700.73	105.32
700.87	44.47
701.00	46.81
701.13	58.51
701.26	65.54
701.40	0.00
701.53	93.62
701.66	32.77
701.79	9.36
701.93	81.92
702.06	70.22
702.19	9.36
702.32	0.00
702.46	0.00
702.59	0.00
702.72	0.00
702.85	0.00
702.99	58.51
703.12	44.47
703.25	77.24
703.38	74.90
703.51	51.49
703.65	53.83
703.78	0.00
703.91	44.47
704.04	0.00
704.17	110.01
704.31	44.47
704.44	60.85
704.57	0.00
704.70	18.72
704.83	0.00
704.96	0.00
705.10	84.26
705.23	74.90
>>>>>End Processed Spectral Data<<<<<
