SpectraSuite Data File
++++++++++++++++++++++++++++++++++++
Date: Tue Oct 01 18:25:09 GMT-05:00 2013
User: stostad
Dark Spectrum Present: No
Reference Spectrum Present: No
Number of Sampled Component Spectra: 1
Spectrometers: USB2+H05261
Integration Time (usec): 100000 (USB2+H05261)
Spectra Averaged: 1 (USB2+H05261)
Boxcar Smoothing: 0 (USB2+H05261)
Correct for Electrical Dark: No (USB2+H05261)
Strobe/Lamp Enabled: No (USB2+H05261)
Correct for Detector Non-linearity: No (USB2+H05261)
Correct for Stray Light: No (USB2+H05261)
Number of Pixels in Processed Spectrum: 2048
>>>>>Begin Processed Spectral Data<<<<<
365.73	105.32
365.92	105.32
366.12	105.32
366.32	0.00
366.52	0.00
366.72	25.75
366.91	9.36
367.11	65.54
367.31	0.00
367.51	0.00
367.70	0.00
367.90	93.62
368.10	0.00
368.30	0.00
368.49	0.00
368.69	2.34
368.89	0.00
369.09	0.00
369.28	56.17
369.48	39.79
369.68	7.02
369.87	79.58
370.07	37.45
370.27	58.51
370.47	4.68
370.66	37.45
370.86	0.00
371.06	88.94
371.25	102.98
371.45	58.51
371.65	105.32
371.84	107.66
372.04	91.28
372.24	107.66
372.44	58.51
372.63	88.94
372.83	117.03
373.03	93.62
373.22	81.92
373.42	72.56
373.62	177.88
373.81	58.51
374.01	184.90
374.21	180.22
374.40	100.64
374.60	224.69
374.79	198.95
374.99	53.83
375.19	152.13
375.38	196.60
375.58	138.09
375.78	175.54
375.97	138.09
376.17	177.88
376.37	110.01
376.56	159.16
376.76	149.79
376.95	142.77
377.15	182.56
377.35	163.84
377.54	100.64
377.74	112.35
377.93	147.45
378.13	124.05
378.33	220.01
378.52	142.77
378.72	227.03
378.91	107.66
379.11	154.48
379.31	168.52
379.50	100.64
379.70	147.45
379.89	196.60
380.09	93.62
380.28	117.03
380.48	86.60
380.68	145.11
380.87	70.22
381.07	166.18
381.26	196.60
381.46	74.90
381.65	0.00
381.85	51.49
382.04	147.45
382.24	102.98
382.43	138.09
382.63	25.75
382.83	131.07
383.02	142.77
383.22	149.79
383.41	124.05
383.61	110.01
383.80	128.73
384.00	156.82
384.19	110.01
384.39	145.11
384.58	102.98
384.78	70.22
384.97	187.24
385.17	138.09
385.36	131.07
385.56	142.77
385.75	58.51
385.95	142.77
386.14	60.85
386.34	88.94
386.53	126.39
386.72	168.52
386.92	161.50
387.11	100.64
387.31	124.05
387.50	88.94
387.70	105.32
387.89	102.98
388.09	114.69
388.28	133.41
388.48	147.45
388.67	180.22
388.86	114.69
389.06	147.45
389.25	203.63
389.45	128.73
389.64	180.22
389.84	163.84
390.03	114.69
390.22	114.69
390.42	88.94
390.61	147.45
390.81	88.94
391.00	149.79
391.19	215.33
391.39	119.37
391.58	98.30
391.78	93.62
391.97	145.11
392.16	147.45
392.36	149.79
392.55	156.82
392.75	100.64
392.94	184.90
393.13	191.92
393.33	168.52
393.52	128.73
393.71	227.03
393.91	72.56
394.10	93.62
394.29	175.54
394.49	177.88
394.68	110.01
394.88	184.90
395.07	159.16
395.26	124.05
395.46	135.75
395.65	152.13
395.84	42.13
396.04	222.35
396.23	128.73
396.42	201.29
396.62	121.71
396.81	241.08
397.00	166.18
397.19	182.56
397.39	210.65
397.58	196.60
397.77	67.88
397.97	126.39
398.16	114.69
398.35	126.39
398.55	152.13
398.74	112.35
398.93	98.30
399.12	194.26
399.32	58.51
399.51	149.79
399.70	140.43
399.90	187.24
400.09	187.24
400.28	161.50
400.47	91.28
400.67	131.07
400.86	102.98
401.05	133.41
401.24	203.63
401.44	105.32
401.63	138.09
401.82	133.41
402.01	182.56
402.21	131.07
402.40	156.82
402.59	131.07
402.78	142.77
402.97	114.69
403.17	147.45
403.36	110.01
403.55	177.88
403.74	124.05
403.93	210.65
404.13	222.35
404.32	208.31
404.51	86.60
404.70	126.39
404.89	102.98
405.09	177.88
405.28	152.13
405.47	175.54
405.66	154.48
405.85	140.43
406.05	44.47
406.24	112.35
406.43	145.11
406.62	145.11
406.81	128.73
407.00	147.45
407.20	184.90
407.39	60.85
407.58	110.01
407.77	149.79
407.96	131.07
408.15	156.82
408.34	91.28
408.54	126.39
408.73	156.82
408.92	128.73
409.11	121.71
409.30	234.05
409.49	74.90
409.68	88.94
409.87	133.41
410.07	93.62
410.26	117.03
410.45	173.20
410.64	72.56
410.83	145.11
411.02	142.77
411.21	196.60
411.40	241.08
411.59	112.35
411.78	152.13
411.98	112.35
412.17	135.75
412.36	112.35
412.55	126.39
412.74	208.31
412.93	201.29
413.12	63.19
413.31	121.71
413.50	121.71
413.69	203.63
413.88	175.54
414.07	166.18
414.26	81.92
414.45	121.71
414.64	138.09
414.83	156.82
415.02	182.56
415.22	147.45
415.41	173.20
415.60	98.30
415.79	88.94
415.98	191.92
416.17	107.66
416.36	161.50
416.55	142.77
416.74	194.26
416.93	107.66
417.12	105.32
417.31	117.03
417.50	170.86
417.69	189.58
417.88	170.86
418.07	100.64
418.26	124.05
418.45	119.37
418.64	273.84
418.83	276.18
419.02	107.66
419.21	184.90
419.39	180.22
419.58	121.71
419.77	196.60
419.96	196.60
420.15	252.78
420.34	138.09
420.53	170.86
420.72	58.51
420.91	166.18
421.10	102.98
421.29	159.16
421.48	91.28
421.67	175.54
421.86	117.03
422.05	100.64
422.24	110.01
422.43	184.90
422.61	49.15
422.80	140.43
422.99	152.13
423.18	245.76
423.37	175.54
423.56	175.54
423.75	114.69
423.94	102.98
424.13	88.94
424.32	102.98
424.50	142.77
424.69	182.56
424.88	215.33
425.07	177.88
425.26	140.43
425.45	191.92
425.64	201.29
425.83	201.29
426.01	212.99
426.20	138.09
426.39	149.79
426.58	152.13
426.77	114.69
426.96	117.03
427.15	159.16
427.33	138.09
427.52	133.41
427.71	131.07
427.90	168.52
428.09	131.07
428.28	102.98
428.46	77.24
428.65	152.13
428.84	93.62
429.03	212.99
429.22	119.37
429.40	67.88
429.59	63.19
429.78	170.86
429.97	145.11
430.16	149.79
430.34	142.77
430.53	166.18
430.72	124.05
430.91	210.65
431.10	72.56
431.28	128.73
431.47	177.88
431.66	196.60
431.85	128.73
432.03	147.45
432.22	95.96
432.41	175.54
432.60	210.65
432.79	177.88
432.97	194.26
433.16	231.71
433.35	259.80
433.54	234.05
433.72	170.86
433.91	149.79
434.10	145.11
434.28	173.20
434.47	173.20
434.66	236.39
434.85	133.41
435.03	131.07
435.22	184.90
435.41	177.88
435.59	161.50
435.78	133.41
435.97	100.64
436.16	124.05
436.34	149.79
436.53	180.22
436.72	121.71
436.90	84.26
437.09	159.16
437.28	86.60
437.46	117.03
437.65	189.58
437.84	98.30
438.02	131.07
438.21	152.13
438.40	220.01
438.58	138.09
438.77	152.13
438.96	138.09
439.14	53.83
439.33	140.43
439.52	72.56
439.70	126.39
439.89	140.43
440.08	105.32
440.26	187.24
440.45	166.18
440.63	194.26
440.82	102.98
441.01	191.92
441.19	124.05
441.38	180.22
441.57	128.73
441.75	201.29
441.94	163.84
442.12	84.26
442.31	91.28
442.50	124.05
442.68	173.20
442.87	187.24
443.05	138.09
443.24	161.50
443.43	212.99
443.61	140.43
443.80	56.17
443.98	152.13
444.17	152.13
444.35	63.19
444.54	156.82
444.73	154.48
444.91	198.95
445.10	114.69
445.28	81.92
445.47	229.37
445.65	65.54
445.84	175.54
446.02	107.66
446.21	65.54
446.39	70.22
446.58	74.90
446.77	124.05
446.95	152.13
447.14	152.13
447.32	184.90
447.51	135.75
447.69	191.92
447.88	154.48
448.06	175.54
448.25	170.86
448.43	142.77
448.62	203.63
448.80	166.18
448.99	231.71
449.17	77.24
449.36	175.54
449.54	152.13
449.73	124.05
449.91	168.52
450.10	149.79
450.28	184.90
450.46	201.29
450.65	182.56
450.83	166.18
451.02	102.98
451.20	117.03
451.39	110.01
451.57	128.73
451.76	166.18
451.94	212.99
452.13	149.79
452.31	145.11
452.49	81.92
452.68	100.64
452.86	159.16
453.05	208.31
453.23	135.75
453.42	70.22
453.60	135.75
453.78	100.64
453.97	236.39
454.15	154.48
454.34	112.35
454.52	208.31
454.70	140.43
454.89	187.24
455.07	161.50
455.26	142.77
455.44	182.56
455.62	124.05
455.81	100.64
455.99	100.64
456.17	159.16
456.36	114.69
456.54	91.28
456.73	140.43
456.91	121.71
457.09	166.18
457.28	145.11
457.46	135.75
457.64	224.69
457.83	166.18
458.01	133.41
458.19	163.84
458.38	102.98
458.56	154.48
458.74	100.64
458.93	149.79
459.11	95.96
459.29	140.43
459.48	131.07
459.66	161.50
459.84	166.18
460.03	301.93
460.21	147.45
460.39	163.84
460.57	173.20
460.76	168.52
460.94	159.16
461.12	145.11
461.31	182.56
461.49	126.39
461.67	152.13
461.85	117.03
462.04	175.54
462.22	594.50
462.40	210.65
462.59	135.75
462.77	140.43
462.95	175.54
463.13	140.43
463.32	177.88
463.50	95.96
463.68	201.29
463.86	128.73
464.05	180.22
464.23	196.60
464.41	152.13
464.59	184.90
464.78	170.86
464.96	121.71
465.14	138.09
465.32	147.45
465.50	196.60
465.69	175.54
465.87	117.03
466.05	135.75
466.23	100.64
466.41	84.26
466.60	112.35
466.78	121.71
466.96	222.35
467.14	170.86
467.32	124.05
467.51	128.73
467.69	133.41
467.87	191.92
468.05	194.26
468.23	201.29
468.41	182.56
468.60	84.26
468.78	194.26
468.96	128.73
469.14	173.20
469.32	84.26
469.50	161.50
469.69	182.56
469.87	243.42
470.05	105.32
470.23	138.09
470.41	98.30
470.59	145.11
470.77	65.54
470.95	159.16
471.14	168.52
471.32	161.50
471.50	159.16
471.68	163.84
471.86	131.07
472.04	145.11
472.22	156.82
472.40	156.82
472.58	131.07
472.77	149.79
472.95	182.56
473.13	180.22
473.31	105.32
473.49	191.92
473.67	117.03
473.85	184.90
474.03	217.67
474.21	154.48
474.39	133.41
474.57	198.95
474.75	117.03
474.93	126.39
475.12	128.73
475.30	102.98
475.48	135.75
475.66	145.11
475.84	177.88
476.02	98.30
476.20	110.01
476.38	128.73
476.56	231.71
476.74	114.69
476.92	156.82
477.10	84.26
477.28	133.41
477.46	147.45
477.64	173.20
477.82	145.11
478.00	86.60
478.18	135.75
478.36	124.05
478.54	154.48
478.72	168.52
478.90	191.92
479.08	121.71
479.26	154.48
479.44	128.73
479.62	105.32
479.80	140.43
479.98	93.62
480.16	152.13
480.34	224.69
480.52	124.05
480.70	112.35
480.88	81.92
481.06	110.01
481.24	67.88
481.41	173.20
481.59	121.71
481.77	166.18
481.95	138.09
482.13	168.52
482.31	105.32
482.49	180.22
482.67	135.75
482.85	194.26
483.03	105.32
483.21	126.39
483.39	84.26
483.57	79.58
483.74	102.98
483.92	93.62
484.10	152.13
484.28	145.11
484.46	217.67
484.64	175.54
484.82	163.84
485.00	126.39
485.18	145.11
485.35	166.18
485.53	170.86
485.71	182.56
485.89	133.41
486.07	133.41
486.25	117.03
486.43	180.22
486.61	180.22
486.78	135.75
486.96	138.09
487.14	121.71
487.32	77.24
487.50	72.56
487.68	187.24
487.85	102.98
488.03	112.35
488.21	215.33
488.39	124.05
488.57	124.05
488.75	156.82
488.92	250.44
489.10	135.75
489.28	156.82
489.46	95.96
489.64	138.09
489.81	119.37
489.99	163.84
490.17	77.24
490.35	194.26
490.53	91.28
490.70	187.24
490.88	215.33
491.06	100.64
491.24	149.79
491.41	196.60
491.59	175.54
491.77	84.26
491.95	117.03
492.13	117.03
492.30	163.84
492.48	95.96
492.66	126.39
492.84	91.28
493.01	147.45
493.19	100.64
493.37	147.45
493.54	114.69
493.72	156.82
493.90	131.07
494.08	135.75
494.25	140.43
494.43	212.99
494.61	191.92
494.79	145.11
494.96	140.43
495.14	149.79
495.32	102.98
495.49	154.48
495.67	110.01
495.85	60.85
496.02	51.49
496.20	79.58
496.38	189.58
496.55	187.24
496.73	128.73
496.91	152.13
497.09	147.45
497.26	77.24
497.44	163.84
497.62	93.62
497.79	117.03
497.97	135.75
498.14	105.32
498.32	126.39
498.50	149.79
498.67	159.16
498.85	102.98
499.03	152.13
499.20	196.60
499.38	168.52
499.56	191.92
499.73	121.71
499.91	201.29
500.08	175.54
500.26	102.98
500.44	149.79
500.61	140.43
500.79	18.72
500.97	142.77
501.14	114.69
501.32	114.69
501.49	177.88
501.67	163.84
501.84	159.16
502.02	140.43
502.20	170.86
502.37	189.58
502.55	110.01
502.72	149.79
502.90	170.86
503.07	208.31
503.25	168.52
503.43	117.03
503.60	154.48
503.78	124.05
503.95	128.73
504.13	110.01
504.30	100.64
504.48	140.43
504.65	161.50
504.83	156.82
505.01	121.71
505.18	140.43
505.36	56.17
505.53	168.52
505.71	105.32
505.88	133.41
506.06	72.56
506.23	128.73
506.41	131.07
506.58	138.09
506.76	133.41
506.93	145.11
507.11	117.03
507.28	142.77
507.46	121.71
507.63	119.37
507.81	63.19
507.98	105.32
508.16	149.79
508.33	121.71
508.50	159.16
508.68	131.07
508.85	58.51
509.03	121.71
509.20	98.30
509.38	88.94
509.55	170.86
509.73	170.86
509.90	215.33
510.08	156.82
510.25	170.86
510.42	93.62
510.60	84.26
510.77	163.84
510.95	102.98
511.12	145.11
511.30	163.84
511.47	166.18
511.64	208.31
511.82	229.37
511.99	170.86
512.17	138.09
512.34	105.32
512.51	145.11
512.69	135.75
512.86	154.48
513.04	77.24
513.21	133.41
513.38	205.97
513.56	182.56
513.73	177.88
513.90	121.71
514.08	187.24
514.25	156.82
514.43	138.09
514.60	138.09
514.77	163.84
514.95	102.98
515.12	163.84
515.29	133.41
515.47	30.43
515.64	100.64
515.81	166.18
515.99	105.32
516.16	222.35
516.33	180.22
516.51	159.16
516.68	131.07
516.85	126.39
517.03	154.48
517.20	170.86
517.37	161.50
517.54	135.75
517.72	170.86
517.89	140.43
518.06	161.50
518.24	175.54
518.41	266.82
518.58	198.95
518.75	154.48
518.93	124.05
519.10	98.30
519.27	67.88
519.45	222.35
519.62	156.82
519.79	159.16
519.96	180.22
520.14	161.50
520.31	84.26
520.48	140.43
520.65	107.66
520.83	159.16
521.00	208.31
521.17	145.11
521.34	196.60
521.52	147.45
521.69	163.84
521.86	112.35
522.03	102.98
522.20	119.37
522.38	117.03
522.55	156.82
522.72	72.56
522.89	168.52
523.07	194.26
523.24	182.56
523.41	70.22
523.58	128.73
523.75	70.22
523.92	133.41
524.10	102.98
524.27	93.62
524.44	98.30
524.61	133.41
524.78	154.48
524.96	159.16
525.13	147.45
525.30	131.07
525.47	156.82
525.64	166.18
525.81	196.60
525.98	184.90
526.16	117.03
526.33	170.86
526.50	145.11
526.67	163.84
526.84	117.03
527.01	81.92
527.18	128.73
527.36	77.24
527.53	147.45
527.70	182.56
527.87	121.71
528.04	227.03
528.21	72.56
528.38	140.43
528.55	152.13
528.72	184.90
528.89	133.41
529.07	159.16
529.24	98.30
529.41	264.48
529.58	170.86
529.75	114.69
529.92	149.79
530.09	102.98
530.26	142.77
530.43	114.69
530.60	135.75
530.77	156.82
530.94	220.01
531.11	229.37
531.28	177.88
531.46	100.64
531.63	138.09
531.80	212.99
531.97	166.18
532.14	170.86
532.31	159.16
532.48	168.52
532.65	231.71
532.82	170.86
532.99	227.03
533.16	159.16
533.33	154.48
533.50	170.86
533.67	138.09
533.84	210.65
534.01	292.57
534.18	152.13
534.35	114.69
534.52	156.82
534.69	124.05
534.86	166.18
535.03	154.48
535.20	168.52
535.37	126.39
535.54	117.03
535.71	201.29
535.88	229.37
536.05	133.41
536.22	161.50
536.38	156.82
536.55	152.13
536.72	184.90
536.89	140.43
537.06	88.94
537.23	159.16
537.40	187.24
537.57	93.62
537.74	135.75
537.91	163.84
538.08	126.39
538.25	147.45
538.42	133.41
538.59	121.71
538.75	234.05
538.92	119.37
539.09	189.58
539.26	114.69
539.43	351.08
539.60	718.54
539.77	1027.50
539.94	835.57
540.11	414.27
540.28	348.74
540.44	147.45
540.61	145.11
540.78	149.79
540.95	149.79
541.12	194.26
541.29	133.41
541.46	128.73
541.62	168.52
541.79	138.09
541.96	142.77
542.13	112.35
542.30	133.41
542.47	215.33
542.63	159.16
542.80	93.62
542.97	159.16
543.14	135.75
543.31	105.32
543.48	128.73
543.64	180.22
543.81	152.13
543.98	91.28
544.15	93.62
544.32	88.94
544.48	177.88
544.65	135.75
544.82	159.16
544.99	117.03
545.16	180.22
545.32	81.92
545.49	208.31
545.66	124.05
545.83	112.35
546.00	119.37
546.16	119.37
546.33	126.39
546.50	88.94
546.67	119.37
546.83	119.37
547.00	131.07
547.17	119.37
547.34	138.09
547.50	154.48
547.67	77.24
547.84	154.48
548.00	145.11
548.17	147.45
548.34	110.01
548.51	177.88
548.67	145.11
548.84	126.39
549.01	198.95
549.18	114.69
549.34	217.67
549.51	159.16
549.68	126.39
549.84	177.88
550.01	131.07
550.18	142.77
550.34	196.60
550.51	170.86
550.68	236.39
550.84	124.05
551.01	124.05
551.18	198.95
551.34	154.48
551.51	159.16
551.68	93.62
551.84	173.20
552.01	107.66
552.18	51.49
552.34	177.88
552.51	170.86
552.68	227.03
552.84	159.16
553.01	107.66
553.18	131.07
553.34	110.01
553.51	138.09
553.67	161.50
553.84	217.67
554.01	84.26
554.17	114.69
554.34	126.39
554.51	177.88
554.67	98.30
554.84	131.07
555.00	131.07
555.17	168.52
555.33	184.90
555.50	168.52
555.67	166.18
555.83	112.35
556.00	98.30
556.16	311.29
556.33	196.60
556.50	91.28
556.66	168.52
556.83	126.39
556.99	100.64
557.16	67.88
557.32	131.07
557.49	121.71
557.65	135.75
557.82	154.48
557.98	138.09
558.15	138.09
558.32	140.43
558.48	93.62
558.65	142.77
558.81	126.39
558.98	119.37
559.14	189.58
559.31	135.75
559.47	156.82
559.64	201.29
559.80	234.05
559.97	121.71
560.13	166.18
560.30	117.03
560.46	72.56
560.63	177.88
560.79	133.41
560.96	210.65
561.12	182.56
561.29	121.71
561.45	161.50
561.61	173.20
561.78	177.88
561.94	133.41
562.11	107.66
562.27	205.97
562.44	140.43
562.60	126.39
562.77	201.29
562.93	147.45
563.10	203.63
563.26	100.64
563.42	168.52
563.59	121.71
563.75	100.64
563.92	154.48
564.08	142.77
564.24	177.88
564.41	142.77
564.57	93.62
564.74	184.90
564.90	191.92
565.07	217.67
565.23	166.18
565.39	124.05
565.56	210.65
565.72	145.11
565.88	182.56
566.05	135.75
566.21	114.69
566.38	124.05
566.54	187.24
566.70	128.73
566.87	56.17
567.03	117.03
567.19	93.62
567.36	124.05
567.52	156.82
567.68	79.58
567.85	175.54
568.01	140.43
568.17	121.71
568.34	140.43
568.50	227.03
568.66	156.82
568.83	285.55
568.99	131.07
569.15	168.52
569.32	91.28
569.48	114.69
569.64	107.66
569.81	166.18
569.97	49.15
570.13	184.90
570.30	152.13
570.46	79.58
570.62	166.18
570.78	77.24
570.95	187.24
571.11	217.67
571.27	184.90
571.43	245.76
571.60	205.97
571.76	163.84
571.92	161.50
572.09	196.60
572.25	203.63
572.41	152.13
572.57	117.03
572.74	208.31
572.90	126.39
573.06	74.90
573.22	138.09
573.38	248.10
573.55	135.75
573.71	156.82
573.87	126.39
574.03	182.56
574.20	196.60
574.36	203.63
574.52	168.52
574.68	217.67
574.84	156.82
575.01	138.09
575.17	166.18
575.33	152.13
575.49	182.56
575.65	224.69
575.82	297.25
575.98	397.89
576.14	447.04
576.30	376.83
576.46	248.10
576.62	180.22
576.79	166.18
576.95	191.92
577.11	166.18
577.27	191.92
577.43	173.20
577.59	201.29
577.75	107.66
577.92	194.26
578.08	166.18
578.24	187.24
578.40	227.03
578.56	252.78
578.72	135.75
578.88	133.41
579.04	170.86
579.21	166.18
579.37	196.60
579.53	154.48
579.69	189.58
579.85	161.50
580.01	262.14
580.17	215.33
580.33	252.78
580.49	191.92
580.65	194.26
580.82	208.31
580.98	189.58
581.14	262.14
581.30	320.65
581.46	280.86
581.62	409.59
581.78	325.33
581.94	308.95
582.10	203.63
582.26	252.78
582.42	243.42
582.58	278.52
582.74	238.73
582.90	294.91
583.06	280.86
583.22	339.38
583.38	292.57
583.54	280.86
583.70	379.17
583.86	381.51
584.02	440.02
584.18	596.84
584.34	1191.33
584.50	8313.58
584.66	28968.81
584.82	49464.88
584.98	50623.45
585.14	32622.39
585.30	17121.02
585.46	8205.92
585.62	3260.37
585.78	1406.66
585.94	798.12
586.10	571.09
586.26	416.62
586.42	379.17
586.58	409.59
586.74	428.32
586.90	311.29
587.06	280.86
587.22	306.61
587.38	451.72
587.54	1561.14
587.70	3110.57
587.86	4065.51
588.02	2981.84
588.18	1755.40
588.34	1043.88
588.49	587.47
588.65	402.57
588.81	264.48
588.97	173.20
589.13	138.09
589.29	241.08
589.45	255.12
589.61	236.39
589.77	337.04
589.93	320.65
590.08	290.23
590.24	259.80
590.40	276.18
590.56	255.12
590.72	231.71
590.88	196.60
591.04	234.05
591.20	234.05
591.35	255.12
591.51	210.65
591.67	194.26
591.83	168.52
591.99	166.18
592.15	126.39
592.31	203.63
592.46	241.08
592.62	229.37
592.78	227.03
592.94	133.41
593.10	187.24
593.26	236.39
593.41	250.44
593.57	294.91
593.73	1261.55
593.89	3702.73
594.05	6253.91
594.20	6511.37
594.36	4383.82
594.52	2487.99
594.68	1334.11
594.84	669.39
594.99	383.85
595.15	308.95
595.31	278.52
595.47	229.37
595.62	191.92
595.78	243.42
595.94	191.92
596.10	259.80
596.25	238.73
596.41	255.12
596.57	194.26
596.73	301.93
596.88	685.78
597.04	1263.89
597.20	1575.18
597.36	1341.13
597.51	866.00
597.67	505.56
597.83	271.50
597.99	222.35
598.14	224.69
598.30	248.10
598.46	243.42
598.61	156.82
598.77	227.03
598.93	231.71
599.09	264.48
599.24	187.24
599.40	217.67
599.56	168.52
599.71	159.16
599.87	147.45
600.03	220.01
600.18	124.05
600.34	177.88
600.50	147.45
600.65	147.45
600.81	177.88
600.97	194.26
601.12	203.63
601.28	168.52
601.44	177.88
601.59	168.52
601.75	220.01
601.91	189.58
602.06	163.84
602.22	465.77
602.37	961.96
602.53	1533.05
602.69	1720.29
602.84	1210.06
603.00	870.68
603.16	571.09
603.31	318.31
603.47	264.48
603.62	231.71
603.78	159.16
603.94	212.99
604.09	140.43
604.25	175.54
604.40	149.79
604.56	161.50
604.71	168.52
604.87	142.77
605.03	159.16
605.18	173.20
605.34	182.56
605.49	166.18
605.65	147.45
605.80	168.52
605.96	142.77
606.12	166.18
606.27	280.86
606.43	271.50
606.58	550.03
606.74	1959.03
606.89	4102.96
607.05	5315.36
607.20	4432.97
607.36	2949.08
607.51	1874.77
607.67	1235.80
607.82	587.47
607.98	400.23
608.13	276.18
608.29	222.35
608.44	280.86
608.60	290.23
608.75	816.85
608.91	3358.67
609.06	6815.64
609.22	9317.67
609.37	7765.90
609.53	5193.65
609.68	3396.12
609.84	1921.58
609.99	1027.50
610.15	552.37
610.30	376.83
610.46	318.31
610.61	259.80
610.76	238.73
610.92	170.86
611.07	264.48
611.23	353.42
611.38	187.24
611.54	198.95
611.69	203.63
611.84	187.24
612.00	241.08
612.15	245.76
612.31	358.10
612.46	411.93
612.62	435.34
612.77	442.36
612.92	320.65
613.08	313.63
613.23	369.80
613.39	713.86
613.54	3253.34
613.69	8702.11
613.85	13914.48
614.00	14288.97
614.15	10183.67
614.31	6359.24
614.46	3941.46
614.62	2085.42
614.77	1027.50
614.92	561.73
615.08	386.19
615.23	248.10
615.38	252.78
615.54	704.50
615.69	1872.43
615.84	3211.22
616.00	3887.63
616.15	3047.38
616.30	2094.78
616.46	1352.83
616.61	849.61
616.76	566.41
616.92	308.95
617.07	229.37
617.22	212.99
617.37	196.60
617.53	236.39
617.68	114.69
617.83	194.26
617.99	250.44
618.14	187.24
618.29	156.82
618.45	163.84
618.60	142.77
618.75	205.97
618.90	133.41
619.06	250.44
619.21	280.86
619.36	175.54
619.51	177.88
619.67	163.84
619.82	196.60
619.97	220.01
620.12	187.24
620.28	259.80
620.43	189.58
620.58	147.45
620.73	191.92
620.89	407.25
621.04	1041.54
621.19	1877.11
621.34	2342.88
621.49	2017.54
621.65	1296.66
621.80	943.24
621.95	568.75
622.10	407.25
622.25	262.14
622.41	161.50
622.56	145.11
622.71	114.69
622.86	205.97
623.01	198.95
623.16	224.69
623.32	156.82
623.47	133.41
623.62	215.33
623.77	170.86
623.92	161.50
624.07	112.35
624.23	182.56
624.38	140.43
624.53	168.52
624.68	212.99
624.83	140.43
624.98	234.05
625.13	170.86
625.29	128.73
625.44	243.42
625.59	294.91
625.74	451.72
625.89	1973.07
626.04	4542.98
626.19	7204.17
626.34	7243.96
626.49	5369.19
626.65	3581.02
626.80	2345.22
626.95	1282.61
627.10	720.88
627.25	388.53
627.40	220.01
627.55	273.84
627.70	196.60
627.85	215.33
628.00	152.13
628.15	138.09
628.30	189.58
628.45	215.33
628.60	175.54
628.76	184.90
628.91	168.52
629.06	201.29
629.21	156.82
629.36	276.18
629.51	154.48
629.66	393.21
629.81	919.83
629.96	1673.48
630.11	1900.52
630.26	1710.93
630.41	1200.69
630.56	880.04
630.71	557.05
630.86	374.49
631.01	348.74
631.16	217.67
631.31	159.16
631.46	222.35
631.61	156.82
631.76	180.22
631.91	145.11
632.06	191.92
632.21	191.92
632.36	212.99
632.51	273.84
632.66	1081.33
632.81	2722.04
632.96	4475.10
633.10	4933.85
633.25	3791.67
633.40	2544.16
633.55	1696.89
633.70	1137.50
633.85	634.29
634.00	381.51
634.15	252.78
634.30	269.16
634.45	217.67
634.60	222.35
634.75	208.31
634.90	220.01
635.05	133.41
635.19	177.88
635.34	149.79
635.49	220.01
635.64	152.13
635.79	156.82
635.94	159.16
636.09	217.67
636.24	147.45
636.39	177.88
636.53	255.12
636.68	255.12
636.83	229.37
636.98	173.20
637.13	147.45
637.28	311.29
637.43	758.33
637.57	2818.00
637.72	6085.39
637.87	8912.76
638.02	8571.04
638.17	6333.49
638.32	4308.93
638.46	2731.41
638.61	1664.12
638.76	870.68
638.91	526.62
639.06	388.53
639.20	355.76
639.35	1104.73
639.50	4037.42
639.65	8943.19
639.80	13652.34
639.94	12952.52
640.09	9778.76
640.24	6490.31
640.39	4290.20
640.54	2466.92
640.68	1139.84
640.83	669.39
640.98	332.36
641.13	294.91
641.27	189.58
641.42	236.39
641.57	292.57
641.72	194.26
641.86	231.71
642.01	215.33
642.16	257.46
642.31	194.26
642.45	224.69
642.60	107.66
642.75	119.37
642.90	250.44
643.04	105.32
643.19	168.52
643.34	201.29
643.48	236.39
643.63	145.11
643.78	161.50
643.93	100.64
644.07	147.45
644.22	149.79
644.37	124.05
644.51	203.63
644.66	152.13
644.81	138.09
644.95	182.56
645.10	152.13
645.25	138.09
645.39	161.50
645.54	138.09
645.69	156.82
645.83	154.48
645.98	180.22
646.13	149.79
646.27	177.88
646.42	147.45
646.57	100.64
646.71	203.63
646.86	205.97
647.00	224.69
647.15	229.37
647.30	187.24
647.44	177.88
647.59	166.18
647.74	156.82
647.88	156.82
648.03	124.05
648.17	196.60
648.32	128.73
648.47	187.24
648.61	152.13
648.76	177.88
648.90	187.24
649.05	175.54
649.20	159.16
649.34	259.80
649.49	203.63
649.63	166.18
649.78	367.46
649.92	1666.46
650.07	4198.92
650.21	6523.07
650.36	7286.09
650.51	5518.98
650.65	3777.62
650.80	2553.52
650.94	1469.86
651.09	915.15
651.23	468.11
651.38	306.61
651.52	215.33
651.67	227.03
651.81	264.48
651.96	271.50
652.10	236.39
652.25	198.95
652.39	231.71
652.54	575.77
652.68	1397.30
652.83	2314.79
652.97	2708.00
653.12	2186.06
653.26	1633.69
653.41	1088.35
653.55	685.78
653.70	379.17
653.84	280.86
653.99	140.43
654.13	142.77
654.27	152.13
654.42	133.41
654.56	114.69
654.71	231.71
654.85	156.82
655.00	163.84
655.14	168.52
655.29	149.79
655.43	142.77
655.57	95.96
655.72	215.33
655.86	124.05
656.01	205.97
656.15	110.01
656.30	212.99
656.44	175.54
656.58	161.50
656.73	138.09
656.87	149.79
657.01	128.73
657.16	241.08
657.30	201.29
657.45	184.90
657.59	194.26
657.73	187.24
657.88	142.77
658.02	276.18
658.16	166.18
658.31	131.07
658.45	177.88
658.60	133.41
658.74	98.30
658.88	189.58
659.03	259.80
659.17	765.36
659.31	1928.60
659.46	3143.34
659.60	3763.58
659.74	3038.02
659.89	2298.41
660.03	1530.71
660.17	926.85
660.32	573.43
660.46	404.91
660.60	210.65
660.74	86.60
660.89	105.32
661.03	86.60
661.17	224.69
661.32	126.39
661.46	196.60
661.60	208.31
661.74	117.03
661.89	117.03
662.03	145.11
662.17	180.22
662.31	84.26
662.46	149.79
662.60	220.01
662.74	154.48
662.88	184.90
663.03	133.41
663.17	81.92
663.31	74.90
663.45	84.26
663.60	159.16
663.74	110.01
663.88	173.20
664.02	180.22
664.17	88.94
664.31	121.71
664.45	189.58
664.59	177.88
664.73	217.67
664.88	173.20
665.02	133.41
665.16	105.32
665.30	180.22
665.44	114.69
665.59	145.11
665.73	161.50
665.87	119.37
666.01	231.71
666.15	98.30
666.29	173.20
666.44	259.80
666.58	220.01
666.72	88.94
666.86	173.20
667.00	463.43
667.14	1355.17
667.28	3426.54
667.43	5879.43
667.57	6635.42
667.71	5266.21
667.85	3693.37
667.99	2190.74
668.13	1284.95
668.27	863.66
668.41	585.13
668.56	325.33
668.70	236.39
668.84	250.44
668.98	224.69
669.12	124.05
669.26	217.67
669.40	163.84
669.54	166.18
669.68	177.88
669.82	170.86
669.96	156.82
670.10	163.84
670.25	191.92
670.39	180.22
670.53	159.16
670.67	212.99
670.81	173.20
670.95	430.66
671.09	1481.56
671.23	2649.49
671.37	3967.21
671.51	4032.74
671.65	3021.63
671.79	1940.30
671.93	1205.38
672.07	711.52
672.21	440.02
672.35	362.78
672.49	278.52
672.63	198.95
672.77	189.58
672.91	177.88
673.05	175.54
673.19	180.22
673.33	124.05
673.47	205.97
673.61	173.20
673.75	208.31
673.89	142.77
674.03	124.05
674.17	203.63
674.31	149.79
674.45	135.75
674.59	147.45
674.73	191.92
674.87	212.99
675.01	234.05
675.15	217.67
675.29	229.37
675.43	191.92
675.56	191.92
675.70	205.97
675.84	105.32
675.98	121.71
676.12	154.48
676.26	128.73
676.40	112.35
676.54	107.66
676.68	121.71
676.82	152.13
676.96	140.43
677.10	117.03
677.23	126.39
677.37	110.01
677.51	126.39
677.65	189.58
677.79	189.58
677.93	163.84
678.07	112.35
678.21	161.50
678.34	163.84
678.48	88.94
678.62	187.24
678.76	128.73
678.90	117.03
679.04	166.18
679.18	121.71
679.31	126.39
679.45	168.52
679.59	138.09
679.73	161.50
679.87	117.03
680.00	177.88
680.14	133.41
680.28	182.56
680.42	191.92
680.56	107.66
680.70	135.75
680.83	166.18
680.97	51.49
681.11	149.79
681.25	88.94
681.39	81.92
681.52	128.73
681.66	168.52
681.80	126.39
681.94	173.20
682.07	145.11
682.21	184.90
682.35	149.79
682.49	163.84
682.62	187.24
682.76	16.38
682.90	140.43
683.04	198.95
683.17	98.30
683.31	84.26
683.45	180.22
683.59	198.95
683.72	163.84
683.86	117.03
684.00	168.52
684.13	191.92
684.27	145.11
684.41	201.29
684.55	154.48
684.68	128.73
684.82	77.24
684.96	238.73
685.09	196.60
685.23	119.37
685.37	163.84
685.50	154.48
685.64	170.86
685.78	121.71
685.91	121.71
686.05	145.11
686.19	149.79
686.32	175.54
686.46	194.26
686.60	131.07
686.73	217.67
686.87	189.58
687.01	110.01
687.14	170.86
687.28	205.97
687.42	194.26
687.55	140.43
687.69	168.52
687.82	152.13
687.96	180.22
688.10	140.43
688.23	119.37
688.37	133.41
688.50	212.99
688.64	119.37
688.78	77.24
688.91	170.86
689.05	154.48
689.18	53.83
689.32	145.11
689.46	161.50
689.59	191.92
689.73	168.52
689.86	187.24
690.00	117.03
690.13	128.73
690.27	224.69
690.41	95.96
690.54	154.48
690.68	152.13
690.81	147.45
690.95	201.29
691.08	105.32
691.22	166.18
691.35	102.98
691.49	175.54
691.62	154.48
691.76	217.67
691.89	166.18
692.03	126.39
692.16	264.48
692.30	606.20
692.43	1451.13
692.57	2239.89
692.70	2752.47
692.84	2520.76
692.97	1881.79
693.11	1427.73
693.24	966.64
693.38	660.03
693.51	475.13
693.65	379.17
693.78	250.44
693.92	161.50
694.05	234.05
694.19	212.99
694.32	149.79
694.45	117.03
694.59	196.60
694.72	79.58
694.86	166.18
694.99	180.22
695.13	166.18
695.26	184.90
695.39	98.30
695.53	318.31
695.66	161.50
695.80	170.86
695.93	147.45
696.07	229.37
696.20	334.70
696.33	308.95
696.47	315.97
696.60	313.63
696.73	248.10
696.87	191.92
697.00	262.14
697.14	177.88
697.27	156.82
697.40	222.35
697.54	187.24
697.67	95.96
697.80	102.98
697.94	142.77
698.07	184.90
698.21	159.16
698.34	180.22
698.47	140.43
698.61	152.13
698.74	100.64
698.87	152.13
699.01	105.32
699.14	114.69
699.27	187.24
699.40	220.01
699.54	203.63
699.67	100.64
699.80	168.52
699.94	142.77
700.07	119.37
700.20	114.69
700.34	159.16
700.47	91.28
700.60	86.60
700.73	105.32
700.87	166.18
701.00	187.24
701.13	191.92
701.26	135.75
701.40	217.67
701.53	166.18
701.66	124.05
701.79	121.71
701.93	198.95
702.06	297.25
702.19	259.80
702.32	404.91
702.46	379.17
702.59	561.73
702.72	1830.30
702.85	3545.91
702.99	4744.27
703.12	5385.57
703.25	4510.21
703.38	3747.20
703.51	2949.08
703.65	2026.90
703.78	1509.65
703.91	933.87
704.04	669.39
704.17	416.62
704.31	358.10
704.44	248.10
704.57	182.56
704.70	196.60
704.83	154.48
704.96	191.92
705.10	241.08
705.23	234.05
>>>>>End Processed Spectral Data<<<<<
