SpectraSuite Data File
++++++++++++++++++++++++++++++++++++
Date: Tue Oct 01 18:25:12 GMT-05:00 2013
User: stostad
Dark Spectrum Present: No
Reference Spectrum Present: No
Number of Sampled Component Spectra: 1
Spectrometers: USB2+H05261
Integration Time (usec): 100000 (USB2+H05261)
Spectra Averaged: 1 (USB2+H05261)
Boxcar Smoothing: 0 (USB2+H05261)
Correct for Electrical Dark: No (USB2+H05261)
Strobe/Lamp Enabled: No (USB2+H05261)
Correct for Detector Non-linearity: No (USB2+H05261)
Correct for Stray Light: No (USB2+H05261)
Number of Pixels in Processed Spectrum: 2048
>>>>>Begin Processed Spectral Data<<<<<
365.73	110.01
365.92	110.01
366.12	110.01
366.32	30.43
366.52	7.02
366.72	56.17
366.91	0.00
367.11	0.00
367.31	0.00
367.51	0.00
367.70	0.00
367.90	0.00
368.10	0.00
368.30	0.00
368.49	0.00
368.69	0.00
368.89	11.70
369.09	0.00
369.28	37.45
369.48	0.00
369.68	9.36
369.87	0.00
370.07	0.00
370.27	110.01
370.47	23.41
370.66	23.41
370.86	53.83
371.06	159.16
371.25	182.56
371.45	53.83
371.65	95.96
371.84	70.22
372.04	140.43
372.24	53.83
372.44	100.64
372.63	98.30
372.83	131.07
373.03	191.92
373.22	124.05
373.42	194.26
373.62	112.35
373.81	140.43
374.01	133.41
374.21	93.62
374.40	131.07
374.60	152.13
374.79	102.98
374.99	189.58
375.19	182.56
375.38	161.50
375.58	147.45
375.78	205.97
375.97	161.50
376.17	208.31
376.37	145.11
376.56	119.37
376.76	95.96
376.95	114.69
377.15	53.83
377.35	65.54
377.54	91.28
377.74	119.37
377.93	126.39
378.13	203.63
378.33	161.50
378.52	56.17
378.72	173.20
378.91	184.90
379.11	91.28
379.31	138.09
379.50	124.05
379.70	159.16
379.89	154.48
380.09	126.39
380.28	133.41
380.48	114.69
380.68	128.73
380.87	121.71
381.07	147.45
381.26	205.97
381.46	126.39
381.65	154.48
381.85	126.39
382.04	189.58
382.24	184.90
382.43	138.09
382.63	163.84
382.83	74.90
383.02	180.22
383.22	142.77
383.41	220.01
383.61	168.52
383.80	184.90
384.00	72.56
384.19	72.56
384.39	91.28
384.58	135.75
384.78	175.54
384.97	124.05
385.17	154.48
385.36	124.05
385.56	110.01
385.75	131.07
385.95	133.41
386.14	175.54
386.34	198.95
386.53	161.50
386.72	114.69
386.92	117.03
387.11	124.05
387.31	117.03
387.50	100.64
387.70	77.24
387.89	110.01
388.09	194.26
388.28	72.56
388.48	119.37
388.67	81.92
388.86	72.56
389.06	196.60
389.25	161.50
389.45	177.88
389.64	145.11
389.84	119.37
390.03	229.37
390.22	142.77
390.42	138.09
390.61	128.73
390.81	170.86
391.00	126.39
391.19	168.52
391.39	142.77
391.58	126.39
391.78	142.77
391.97	133.41
392.16	110.01
392.36	175.54
392.55	119.37
392.75	126.39
392.94	149.79
393.13	100.64
393.33	98.30
393.52	163.84
393.71	222.35
393.91	161.50
394.10	95.96
394.29	110.01
394.49	245.76
394.68	138.09
394.88	196.60
395.07	91.28
395.26	107.66
395.46	126.39
395.65	161.50
395.84	187.24
396.04	210.65
396.23	42.13
396.42	60.85
396.62	201.29
396.81	110.01
397.00	161.50
397.19	124.05
397.39	191.92
397.58	140.43
397.77	133.41
397.97	138.09
398.16	74.90
398.35	163.84
398.55	117.03
398.74	163.84
398.93	126.39
399.12	126.39
399.32	102.98
399.51	119.37
399.70	145.11
399.90	133.41
400.09	93.62
400.28	184.90
400.47	140.43
400.67	145.11
400.86	88.94
401.05	142.77
401.24	88.94
401.44	149.79
401.63	128.73
401.82	107.66
402.01	117.03
402.21	124.05
402.40	126.39
402.59	114.69
402.78	119.37
402.97	126.39
403.17	142.77
403.36	147.45
403.55	119.37
403.74	163.84
403.93	208.31
404.13	147.45
404.32	128.73
404.51	159.16
404.70	187.24
404.89	149.79
405.09	252.78
405.28	140.43
405.47	145.11
405.66	189.58
405.85	95.96
406.05	119.37
406.24	100.64
406.43	121.71
406.62	145.11
406.81	142.77
407.00	119.37
407.20	124.05
407.39	72.56
407.58	110.01
407.77	138.09
407.96	220.01
408.15	112.35
408.34	138.09
408.54	95.96
408.73	49.15
408.92	100.64
409.11	102.98
409.30	81.92
409.49	112.35
409.68	159.16
409.87	124.05
410.07	131.07
410.26	131.07
410.45	119.37
410.64	170.86
410.83	196.60
411.02	81.92
411.21	147.45
411.40	156.82
411.59	156.82
411.78	131.07
411.98	117.03
412.17	72.56
412.36	121.71
412.55	135.75
412.74	180.22
412.93	175.54
413.12	159.16
413.31	210.65
413.50	135.75
413.69	149.79
413.88	168.52
414.07	154.48
414.26	112.35
414.45	147.45
414.64	180.22
414.83	159.16
415.02	180.22
415.22	163.84
415.41	147.45
415.60	210.65
415.79	93.62
415.98	175.54
416.17	177.88
416.36	126.39
416.55	135.75
416.74	117.03
416.93	177.88
417.12	128.73
417.31	63.19
417.50	32.77
417.69	229.37
417.88	117.03
418.07	124.05
418.26	145.11
418.45	107.66
418.64	208.31
418.83	203.63
419.02	241.08
419.21	191.92
419.39	166.18
419.58	168.52
419.77	231.71
419.96	191.92
420.15	189.58
420.34	126.39
420.53	145.11
420.72	163.84
420.91	100.64
421.10	149.79
421.29	170.86
421.48	149.79
421.67	149.79
421.86	177.88
422.05	133.41
422.24	131.07
422.43	44.47
422.61	107.66
422.80	67.88
422.99	114.69
423.18	72.56
423.37	156.82
423.56	175.54
423.75	187.24
423.94	77.24
424.13	142.77
424.32	145.11
424.50	147.45
424.69	133.41
424.88	241.08
425.07	128.73
425.26	236.39
425.45	241.08
425.64	173.20
425.83	196.60
426.01	196.60
426.20	177.88
426.39	140.43
426.58	161.50
426.77	182.56
426.96	196.60
427.15	72.56
427.33	88.94
427.52	79.58
427.71	98.30
427.90	212.99
428.09	138.09
428.28	77.24
428.46	154.48
428.65	51.49
428.84	105.32
429.03	140.43
429.22	154.48
429.40	114.69
429.59	79.58
429.78	105.32
429.97	126.39
430.16	131.07
430.34	88.94
430.53	138.09
430.72	227.03
430.91	117.03
431.10	100.64
431.28	86.60
431.47	42.13
431.66	124.05
431.85	156.82
432.03	161.50
432.22	215.33
432.41	138.09
432.60	259.80
432.79	236.39
432.97	243.42
433.16	231.71
433.35	180.22
433.54	191.92
433.72	182.56
433.91	128.73
434.10	163.84
434.28	217.67
434.47	173.20
434.66	117.03
434.85	133.41
435.03	161.50
435.22	131.07
435.41	180.22
435.59	135.75
435.78	147.45
435.97	147.45
436.16	149.79
436.34	131.07
436.53	147.45
436.72	182.56
436.90	138.09
437.09	177.88
437.28	170.86
437.46	163.84
437.65	170.86
437.84	91.28
438.02	121.71
438.21	187.24
438.40	145.11
438.58	72.56
438.77	175.54
438.96	177.88
439.14	154.48
439.33	198.95
439.52	163.84
439.70	133.41
439.89	140.43
440.08	91.28
440.26	163.84
440.45	133.41
440.63	147.45
440.82	86.60
441.01	198.95
441.19	79.58
441.38	147.45
441.57	112.35
441.75	161.50
441.94	198.95
442.12	138.09
442.31	53.83
442.50	147.45
442.68	135.75
442.87	156.82
443.05	124.05
443.24	124.05
443.43	191.92
443.61	224.69
443.80	112.35
443.98	107.66
444.17	117.03
444.35	191.92
444.54	60.85
444.73	65.54
444.91	175.54
445.10	166.18
445.28	95.96
445.47	145.11
445.65	117.03
445.84	119.37
446.02	138.09
446.21	187.24
446.39	70.22
446.58	217.67
446.77	175.54
446.95	159.16
447.14	86.60
447.32	135.75
447.51	102.98
447.69	142.77
447.88	88.94
448.06	98.30
448.25	107.66
448.43	147.45
448.62	65.54
448.80	142.77
448.99	124.05
449.17	152.13
449.36	124.05
449.54	98.30
449.73	95.96
449.91	135.75
450.10	177.88
450.28	154.48
450.46	180.22
450.65	198.95
450.83	88.94
451.02	126.39
451.20	117.03
451.39	124.05
451.57	133.41
451.76	205.97
451.94	208.31
452.13	166.18
452.31	95.96
452.49	67.88
452.68	100.64
452.86	175.54
453.05	229.37
453.23	175.54
453.42	77.24
453.60	105.32
453.78	119.37
453.97	77.24
454.15	100.64
454.34	140.43
454.52	107.66
454.70	173.20
454.89	173.20
455.07	154.48
455.26	170.86
455.44	159.16
455.62	128.73
455.81	102.98
455.99	121.71
456.17	133.41
456.36	121.71
456.54	166.18
456.73	173.20
456.91	107.66
457.09	117.03
457.28	184.90
457.46	159.16
457.64	161.50
457.83	124.05
458.01	196.60
458.19	175.54
458.38	175.54
458.56	121.71
458.74	112.35
458.93	114.69
459.11	175.54
459.29	86.60
459.48	166.18
459.66	142.77
459.84	175.54
460.03	189.58
460.21	196.60
460.39	133.41
460.57	177.88
460.76	133.41
460.94	177.88
461.12	145.11
461.31	156.82
461.49	182.56
461.67	189.58
461.85	163.84
462.04	147.45
462.22	638.97
462.40	156.82
462.59	208.31
462.77	86.60
462.95	154.48
463.13	163.84
463.32	201.29
463.50	140.43
463.68	152.13
463.86	107.66
464.05	126.39
464.23	140.43
464.41	119.37
464.59	95.96
464.78	168.52
464.96	84.26
465.14	117.03
465.32	140.43
465.50	131.07
465.69	191.92
465.87	121.71
466.05	105.32
466.23	145.11
466.41	191.92
466.60	149.79
466.78	105.32
466.96	210.65
467.14	149.79
467.32	210.65
467.51	184.90
467.69	194.26
467.87	156.82
468.05	110.01
468.23	124.05
468.41	236.39
468.60	100.64
468.78	173.20
468.96	152.13
469.14	170.86
469.32	128.73
469.50	145.11
469.69	152.13
469.87	184.90
470.05	93.62
470.23	133.41
470.41	114.69
470.59	159.16
470.77	180.22
470.95	152.13
471.14	163.84
471.32	163.84
471.50	217.67
471.68	175.54
471.86	147.45
472.04	67.88
472.22	124.05
472.40	126.39
472.58	163.84
472.77	147.45
472.95	194.26
473.13	224.69
473.31	119.37
473.49	119.37
473.67	121.71
473.85	191.92
474.03	133.41
474.21	67.88
474.39	145.11
474.57	170.86
474.75	161.50
474.93	119.37
475.12	145.11
475.30	154.48
475.48	112.35
475.66	304.27
475.84	131.07
476.02	79.58
476.20	184.90
476.38	238.73
476.56	180.22
476.74	138.09
476.92	145.11
477.10	105.32
477.28	142.77
477.46	159.16
477.64	175.54
477.82	149.79
478.00	145.11
478.18	208.31
478.36	142.77
478.54	121.71
478.72	131.07
478.90	168.52
479.08	138.09
479.26	131.07
479.44	161.50
479.62	114.69
479.80	98.30
479.98	124.05
480.16	135.75
480.34	135.75
480.52	147.45
480.70	163.84
480.88	119.37
481.06	147.45
481.24	93.62
481.41	93.62
481.59	107.66
481.77	79.58
481.95	77.24
482.13	114.69
482.31	121.71
482.49	105.32
482.67	142.77
482.85	110.01
483.03	105.32
483.21	117.03
483.39	98.30
483.57	196.60
483.74	166.18
483.92	161.50
484.10	159.16
484.28	149.79
484.46	252.78
484.64	95.96
484.82	156.82
485.00	133.41
485.18	175.54
485.35	182.56
485.53	114.69
485.71	140.43
485.89	173.20
486.07	227.03
486.25	147.45
486.43	105.32
486.61	145.11
486.78	88.94
486.96	126.39
487.14	191.92
487.32	173.20
487.50	203.63
487.68	124.05
487.85	128.73
488.03	147.45
488.21	177.88
488.39	128.73
488.57	112.35
488.75	121.71
488.92	189.58
489.10	110.01
489.28	133.41
489.46	42.13
489.64	140.43
489.81	152.13
489.99	58.51
490.17	81.92
490.35	255.12
490.53	114.69
490.70	250.44
490.88	152.13
491.06	107.66
491.24	203.63
491.41	128.73
491.59	79.58
491.77	133.41
491.95	124.05
492.13	182.56
492.30	110.01
492.48	149.79
492.66	133.41
492.84	210.65
493.01	187.24
493.19	117.03
493.37	187.24
493.54	161.50
493.72	152.13
493.90	147.45
494.08	100.64
494.25	208.31
494.43	255.12
494.61	217.67
494.79	131.07
494.96	95.96
495.14	114.69
495.32	124.05
495.49	163.84
495.67	166.18
495.85	112.35
496.02	149.79
496.20	154.48
496.38	140.43
496.55	149.79
496.73	173.20
496.91	142.77
497.09	110.01
497.26	149.79
497.44	138.09
497.62	133.41
497.79	182.56
497.97	203.63
498.14	145.11
498.32	156.82
498.50	142.77
498.67	156.82
498.85	184.90
499.03	84.26
499.20	135.75
499.38	119.37
499.56	166.18
499.73	175.54
499.91	191.92
500.08	163.84
500.26	149.79
500.44	168.52
500.61	100.64
500.79	175.54
500.97	114.69
501.14	98.30
501.32	159.16
501.49	201.29
501.67	147.45
501.84	203.63
502.02	175.54
502.20	166.18
502.37	114.69
502.55	149.79
502.72	110.01
502.90	128.73
503.07	63.19
503.25	161.50
503.43	205.97
503.60	133.41
503.78	140.43
503.95	166.18
504.13	128.73
504.30	215.33
504.48	198.95
504.65	184.90
504.83	135.75
505.01	152.13
505.18	124.05
505.36	159.16
505.53	173.20
505.71	28.09
505.88	208.31
506.06	152.13
506.23	128.73
506.41	166.18
506.58	110.01
506.76	152.13
506.93	163.84
507.11	152.13
507.28	126.39
507.46	133.41
507.63	152.13
507.81	110.01
507.98	138.09
508.16	88.94
508.33	95.96
508.50	142.77
508.68	152.13
508.85	126.39
509.03	142.77
509.20	72.56
509.38	149.79
509.55	196.60
509.73	187.24
509.90	131.07
510.08	166.18
510.25	117.03
510.42	128.73
510.60	98.30
510.77	189.58
510.95	126.39
511.12	145.11
511.30	142.77
511.47	234.05
511.64	189.58
511.82	105.32
511.99	177.88
512.17	170.86
512.34	135.75
512.51	88.94
512.69	81.92
512.86	220.01
513.04	163.84
513.21	86.60
513.38	138.09
513.56	119.37
513.73	140.43
513.90	117.03
514.08	121.71
514.25	168.52
514.43	152.13
514.60	145.11
514.77	131.07
514.95	91.28
515.12	152.13
515.29	156.82
515.47	184.90
515.64	191.92
515.81	166.18
515.99	234.05
516.16	166.18
516.33	126.39
516.51	161.50
516.68	149.79
516.85	187.24
517.03	205.97
517.20	168.52
517.37	121.71
517.54	117.03
517.72	184.90
517.89	121.71
518.06	133.41
518.24	140.43
518.41	196.60
518.58	210.65
518.75	126.39
518.93	133.41
519.10	149.79
519.27	112.35
519.45	133.41
519.62	168.52
519.79	98.30
519.96	112.35
520.14	93.62
520.31	203.63
520.48	105.32
520.65	107.66
520.83	140.43
521.00	149.79
521.17	198.95
521.34	107.66
521.52	128.73
521.69	147.45
521.86	126.39
522.03	189.58
522.20	252.78
522.38	138.09
522.55	88.94
522.72	124.05
522.89	140.43
523.07	198.95
523.24	236.39
523.41	88.94
523.58	117.03
523.75	149.79
523.92	135.75
524.10	88.94
524.27	105.32
524.44	119.37
524.61	175.54
524.78	175.54
524.96	175.54
525.13	86.60
525.30	142.77
525.47	95.96
525.64	156.82
525.81	159.16
525.98	131.07
526.16	124.05
526.33	168.52
526.50	112.35
526.67	63.19
526.84	91.28
527.01	72.56
527.18	149.79
527.36	147.45
527.53	117.03
527.70	133.41
527.87	110.01
528.04	187.24
528.21	53.83
528.38	124.05
528.55	112.35
528.72	175.54
528.89	142.77
529.07	117.03
529.24	191.92
529.41	110.01
529.58	149.79
529.75	154.48
529.92	159.16
530.09	145.11
530.26	203.63
530.43	58.51
530.60	138.09
530.77	124.05
530.94	198.95
531.11	124.05
531.28	88.94
531.46	140.43
531.63	173.20
531.80	184.90
531.97	114.69
532.14	170.86
532.31	191.92
532.48	210.65
532.65	201.29
532.82	248.10
532.99	163.84
533.16	114.69
533.33	133.41
533.50	231.71
533.67	175.54
533.84	248.10
534.01	330.02
534.18	138.09
534.35	196.60
534.52	156.82
534.69	205.97
534.86	152.13
535.03	100.64
535.20	168.52
535.37	131.07
535.54	140.43
535.71	159.16
535.88	187.24
536.05	74.90
536.22	152.13
536.38	67.88
536.55	189.58
536.72	220.01
536.89	102.98
537.06	152.13
537.23	159.16
537.40	198.95
537.57	128.73
537.74	156.82
537.91	95.96
538.08	138.09
538.25	189.58
538.42	98.30
538.59	124.05
538.75	194.26
538.92	149.79
539.09	138.09
539.26	191.92
539.43	362.78
539.60	807.48
539.77	990.05
539.94	891.74
540.11	458.74
540.28	348.74
540.44	198.95
540.61	191.92
540.78	131.07
540.95	100.64
541.12	189.58
541.29	147.45
541.46	124.05
541.62	98.30
541.79	93.62
541.96	175.54
542.13	173.20
542.30	86.60
542.47	117.03
542.63	117.03
542.80	135.75
542.97	231.71
543.14	149.79
543.31	110.01
543.48	112.35
543.64	163.84
543.81	180.22
543.98	133.41
544.15	86.60
544.32	98.30
544.48	152.13
544.65	117.03
544.82	149.79
544.99	91.28
545.16	152.13
545.32	110.01
545.49	121.71
545.66	131.07
545.83	93.62
546.00	60.85
546.16	93.62
546.33	168.52
546.50	203.63
546.67	210.65
546.83	135.75
547.00	159.16
547.17	79.58
547.34	84.26
547.50	191.92
547.67	149.79
547.84	110.01
548.00	175.54
548.17	142.77
548.34	173.20
548.51	133.41
548.67	135.75
548.84	128.73
549.01	74.90
549.18	105.32
549.34	189.58
549.51	145.11
549.68	145.11
549.84	126.39
550.01	60.85
550.18	220.01
550.34	145.11
550.51	180.22
550.68	238.73
550.84	212.99
551.01	51.49
551.18	168.52
551.34	215.33
551.51	119.37
551.68	74.90
551.84	170.86
552.01	81.92
552.18	107.66
552.34	152.13
552.51	161.50
552.68	215.33
552.84	126.39
553.01	203.63
553.18	142.77
553.34	217.67
553.51	163.84
553.67	191.92
553.84	133.41
554.01	175.54
554.17	124.05
554.34	194.26
554.51	182.56
554.67	187.24
554.84	79.58
555.00	105.32
555.17	140.43
555.33	203.63
555.50	187.24
555.67	191.92
555.83	131.07
556.00	154.48
556.16	266.82
556.33	138.09
556.50	60.85
556.66	152.13
556.83	107.66
556.99	152.13
557.16	56.17
557.32	163.84
557.49	138.09
557.65	84.26
557.82	67.88
557.98	133.41
558.15	152.13
558.32	154.48
558.48	102.98
558.65	67.88
558.81	95.96
558.98	119.37
559.14	198.95
559.31	58.51
559.47	91.28
559.64	53.83
559.80	156.82
559.97	154.48
560.13	145.11
560.30	124.05
560.46	163.84
560.63	67.88
560.79	140.43
560.96	173.20
561.12	131.07
561.29	161.50
561.45	147.45
561.61	173.20
561.78	294.91
561.94	135.75
562.11	112.35
562.27	112.35
562.44	131.07
562.60	95.96
562.77	121.71
562.93	112.35
563.10	121.71
563.26	182.56
563.42	196.60
563.59	175.54
563.75	65.54
563.92	149.79
564.08	156.82
564.24	128.73
564.41	117.03
564.57	112.35
564.74	142.77
564.90	135.75
565.07	138.09
565.23	191.92
565.39	107.66
565.56	170.86
565.72	121.71
565.88	175.54
566.05	117.03
566.21	168.52
566.38	168.52
566.54	187.24
566.70	180.22
566.87	128.73
567.03	84.26
567.19	72.56
567.36	140.43
567.52	138.09
567.68	222.35
567.85	154.48
568.01	121.71
568.17	117.03
568.34	121.71
568.50	201.29
568.66	180.22
568.83	231.71
568.99	142.77
569.15	189.58
569.32	208.31
569.48	182.56
569.64	180.22
569.81	147.45
569.97	194.26
570.13	110.01
570.30	161.50
570.46	128.73
570.62	72.56
570.78	203.63
570.95	166.18
571.11	133.41
571.27	156.82
571.43	191.92
571.60	227.03
571.76	119.37
571.92	210.65
572.09	88.94
572.25	196.60
572.41	194.26
572.57	86.60
572.74	138.09
572.90	166.18
573.06	145.11
573.22	112.35
573.38	147.45
573.55	147.45
573.71	121.71
573.87	145.11
574.03	114.69
574.20	112.35
574.36	250.44
574.52	175.54
574.68	154.48
574.84	220.01
575.01	231.71
575.17	154.48
575.33	182.56
575.49	222.35
575.65	191.92
575.82	280.86
575.98	421.30
576.14	383.85
576.30	369.80
576.46	290.23
576.62	189.58
576.79	229.37
576.95	250.44
577.11	124.05
577.27	112.35
577.43	222.35
577.59	184.90
577.75	245.76
577.92	170.86
578.08	170.86
578.24	170.86
578.40	149.79
578.56	227.03
578.72	215.33
578.88	180.22
579.04	147.45
579.21	140.43
579.37	149.79
579.53	168.52
579.69	182.56
579.85	135.75
580.01	215.33
580.17	156.82
580.33	187.24
580.49	250.44
580.65	308.95
580.82	294.91
580.98	128.73
581.14	283.20
581.30	276.18
581.46	369.80
581.62	435.34
581.78	374.49
581.94	334.70
582.10	250.44
582.26	290.23
582.42	191.92
582.58	285.55
582.74	224.69
582.90	205.97
583.06	264.48
583.22	290.23
583.38	334.70
583.54	358.10
583.70	367.46
583.86	421.30
584.02	470.45
584.18	641.31
584.34	1214.74
584.50	8432.95
584.66	29685.01
584.82	48931.24
584.98	49916.61
585.14	31850.01
585.30	16917.39
585.46	8088.89
585.62	3330.58
585.78	1362.19
585.94	765.36
586.10	547.69
586.26	418.96
586.42	381.51
586.58	372.15
586.74	404.91
586.90	273.84
587.06	313.63
587.22	330.02
587.38	573.43
587.54	1619.65
587.70	3286.11
587.86	3983.59
588.02	2951.42
588.18	1867.75
588.34	1069.62
588.49	507.90
588.65	280.86
588.81	250.44
588.97	208.31
589.13	243.42
589.29	198.95
589.45	229.37
589.61	255.12
589.77	367.46
589.93	280.86
590.08	278.52
590.24	285.55
590.40	299.59
590.56	231.71
590.72	252.78
590.88	212.99
591.04	234.05
591.20	156.82
591.35	285.55
591.51	208.31
591.67	173.20
591.83	145.11
591.99	126.39
592.15	234.05
592.31	241.08
592.46	215.33
592.62	175.54
592.78	161.50
592.94	159.16
593.10	168.52
593.26	145.11
593.41	255.12
593.57	322.99
593.73	1294.32
593.89	3772.94
594.05	6310.08
594.20	6235.19
594.36	4278.50
594.52	2523.10
594.68	1411.34
594.84	732.59
594.99	411.93
595.15	280.86
595.31	208.31
595.47	262.14
595.62	187.24
595.78	187.24
595.94	191.92
596.10	280.86
596.25	156.82
596.41	208.31
596.57	149.79
596.73	299.59
596.88	718.54
597.04	1355.17
597.20	1652.42
597.36	1254.53
597.51	807.48
597.67	557.05
597.83	337.04
597.99	217.67
598.14	177.88
598.30	196.60
598.46	182.56
598.61	229.37
598.77	198.95
598.93	177.88
599.09	156.82
599.24	187.24
599.40	177.88
599.56	156.82
599.71	248.10
599.87	215.33
600.03	182.56
600.18	159.16
600.34	189.58
600.50	163.84
600.65	102.98
600.81	189.58
600.97	191.92
601.12	224.69
601.28	173.20
601.44	166.18
601.59	124.05
601.75	198.95
601.91	170.86
602.06	212.99
602.22	535.98
602.37	938.55
602.53	1612.63
602.69	1645.40
602.84	1268.57
603.00	793.44
603.16	585.13
603.31	442.36
603.47	278.52
603.62	198.95
603.78	105.32
603.94	114.69
604.09	166.18
604.25	163.84
604.40	98.30
604.56	250.44
604.71	189.58
604.87	102.98
605.03	191.92
605.18	210.65
605.34	180.22
605.49	161.50
605.65	145.11
605.80	166.18
605.96	215.33
606.12	180.22
606.27	208.31
606.43	175.54
606.58	561.73
606.74	1959.03
606.89	4028.06
607.05	5184.29
607.20	4393.19
607.36	2932.69
607.51	1907.54
607.67	1081.33
607.82	648.33
607.98	346.40
608.13	273.84
608.29	191.92
608.44	229.37
608.60	297.25
608.75	875.36
608.91	3349.31
609.06	6822.66
609.22	9172.56
609.37	7506.10
609.53	5109.39
609.68	3173.77
609.84	1867.75
609.99	947.92
610.15	418.96
610.30	348.74
610.46	292.57
610.61	238.73
610.76	196.60
610.92	203.63
611.07	210.65
611.23	198.95
611.38	201.29
611.54	182.56
611.69	180.22
611.84	210.65
612.00	196.60
612.15	311.29
612.31	339.38
612.46	414.27
612.62	393.21
612.77	353.42
612.92	367.46
613.08	353.42
613.23	365.12
613.39	753.65
613.54	3325.90
613.69	8922.12
613.85	13860.65
614.00	14040.87
614.15	9954.30
614.31	6373.28
614.46	4112.32
614.62	2057.33
614.77	1022.81
614.92	479.81
615.08	393.21
615.23	285.55
615.38	306.61
615.54	695.14
615.69	1757.74
615.84	3019.29
616.00	3730.81
616.15	3028.65
616.30	2029.24
616.46	1397.30
616.61	720.88
616.76	533.64
616.92	327.68
617.07	182.56
617.22	182.56
617.37	117.03
617.53	238.73
617.68	273.84
617.83	264.48
617.99	215.33
618.14	236.39
618.29	187.24
618.45	152.13
618.60	220.01
618.75	184.90
618.90	149.79
619.06	210.65
619.21	227.03
619.36	259.80
619.51	196.60
619.67	170.86
619.82	217.67
619.97	257.46
620.12	168.52
620.28	156.82
620.43	198.95
620.58	168.52
620.73	198.95
620.89	353.42
621.04	1027.50
621.19	1799.87
621.34	2263.30
621.49	1891.15
621.65	1291.98
621.80	826.21
621.95	601.52
622.10	372.15
622.25	227.03
622.41	198.95
622.56	212.99
622.71	252.78
622.86	201.29
623.01	133.41
623.16	166.18
623.32	112.35
623.47	138.09
623.62	149.79
623.77	184.90
623.92	201.29
624.07	194.26
624.23	212.99
624.38	138.09
624.53	184.90
624.68	184.90
624.83	182.56
624.98	191.92
625.13	191.92
625.29	152.13
625.44	201.29
625.59	241.08
625.74	496.19
625.89	2003.50
626.04	4624.90
626.19	7094.16
626.34	7037.99
626.49	5093.01
626.65	3527.19
626.80	2363.94
626.95	1416.02
627.10	746.63
627.25	325.33
627.40	351.08
627.55	184.90
627.70	222.35
627.85	187.24
628.00	208.31
628.15	234.05
628.30	166.18
628.45	114.69
628.60	175.54
628.76	177.88
628.91	166.18
629.06	205.97
629.21	166.18
629.36	241.08
629.51	217.67
629.66	367.46
629.81	922.17
629.96	1673.48
630.11	2094.78
630.26	1544.75
630.41	1184.31
630.56	828.55
630.71	596.84
630.86	418.96
631.01	283.20
631.16	215.33
631.31	238.73
631.46	198.95
631.61	189.58
631.76	152.13
631.91	128.73
632.06	227.03
632.21	245.76
632.36	257.46
632.51	332.36
632.66	1067.28
632.81	2558.21
632.96	4304.25
633.10	4683.41
633.25	3639.53
633.40	2572.25
633.55	1750.72
633.70	1165.59
633.85	587.47
634.00	332.36
634.15	215.33
634.30	159.16
634.45	215.33
634.60	241.08
634.75	182.56
634.90	194.26
635.05	135.75
635.19	138.09
635.34	173.20
635.49	170.86
635.64	138.09
635.79	177.88
635.94	250.44
636.09	147.45
636.24	259.80
636.39	255.12
636.53	135.75
636.68	114.69
636.83	201.29
636.98	217.67
637.13	205.97
637.28	243.42
637.43	706.84
637.57	2839.07
637.72	5982.41
637.87	8851.91
638.02	8194.22
638.17	6263.27
638.32	4180.20
638.46	2860.13
638.61	1598.59
638.76	851.96
638.91	442.36
639.06	411.93
639.20	416.62
639.35	1102.39
639.50	4044.45
639.65	9172.56
639.80	13736.60
639.94	12964.23
640.09	9713.22
640.24	6553.50
640.39	4252.75
640.54	2422.45
640.68	1158.57
640.83	697.48
640.98	423.64
641.13	229.37
641.27	203.63
641.42	224.69
641.57	227.03
641.72	201.29
641.86	201.29
642.01	133.41
642.16	236.39
642.31	126.39
642.45	191.92
642.60	212.99
642.75	156.82
642.90	210.65
643.04	168.52
643.19	124.05
643.34	177.88
643.48	196.60
643.63	147.45
643.78	191.92
643.93	264.48
644.07	215.33
644.22	189.58
644.37	177.88
644.51	210.65
644.66	231.71
644.81	173.20
644.95	234.05
645.10	142.77
645.25	117.03
645.39	161.50
645.54	51.49
645.69	166.18
645.83	152.13
645.98	273.84
646.13	95.96
646.27	203.63
646.42	88.94
646.57	147.45
646.71	107.66
646.86	147.45
647.00	266.82
647.15	154.48
647.30	102.98
647.44	84.26
647.59	126.39
647.74	86.60
647.88	100.64
648.03	135.75
648.17	161.50
648.32	161.50
648.47	266.82
648.61	201.29
648.76	224.69
648.90	170.86
649.05	173.20
649.20	105.32
649.34	166.18
649.49	243.42
649.63	252.78
649.78	388.53
649.92	1736.68
650.07	4222.33
650.21	6544.14
650.36	7269.70
650.51	5542.39
650.65	3967.21
650.80	2532.46
650.94	1497.94
651.09	889.40
651.23	477.47
651.38	315.97
651.52	220.01
651.67	264.48
651.81	208.31
651.96	255.12
652.10	166.18
652.25	177.88
652.39	175.54
652.54	573.43
652.68	1416.02
652.83	2256.28
652.97	2785.24
653.12	2050.31
653.26	1603.27
653.41	1025.15
653.55	676.41
653.70	437.68
653.84	313.63
653.99	243.42
654.13	149.79
654.27	135.75
654.42	147.45
654.56	177.88
654.71	121.71
654.85	210.65
655.00	161.50
655.14	194.26
655.29	166.18
655.43	135.75
655.57	152.13
655.72	191.92
655.86	215.33
656.01	170.86
656.15	152.13
656.30	191.92
656.44	187.24
656.58	175.54
656.73	154.48
656.87	86.60
657.01	187.24
657.16	170.86
657.30	126.39
657.45	180.22
657.59	163.84
657.73	140.43
657.88	189.58
658.02	205.97
658.16	203.63
658.31	88.94
658.45	215.33
658.60	140.43
658.74	177.88
658.88	147.45
659.03	255.12
659.17	763.01
659.31	1818.60
659.46	3283.77
659.60	3733.15
659.74	3124.62
659.89	2289.04
660.03	1488.58
660.17	947.92
660.32	517.26
660.46	372.15
660.60	276.18
660.74	220.01
660.89	215.33
661.03	110.01
661.17	198.95
661.32	215.33
661.46	196.60
661.60	203.63
661.74	191.92
661.89	159.16
662.03	140.43
662.17	88.94
662.31	180.22
662.46	241.08
662.60	159.16
662.74	159.16
662.88	180.22
663.03	147.45
663.17	98.30
663.31	212.99
663.45	184.90
663.60	212.99
663.74	131.07
663.88	161.50
664.02	180.22
664.17	107.66
664.31	177.88
664.45	248.10
664.59	114.69
664.73	121.71
664.88	175.54
665.02	114.69
665.16	187.24
665.30	264.48
665.44	142.77
665.59	166.18
665.73	138.09
665.87	119.37
666.01	152.13
666.15	175.54
666.29	182.56
666.44	184.90
666.58	222.35
666.72	203.63
666.86	201.29
667.00	386.19
667.14	1458.15
667.28	3478.04
667.43	5591.54
667.57	6314.77
667.71	5259.18
667.85	3723.79
667.99	2157.97
668.13	1385.60
668.27	755.99
668.41	507.90
668.56	297.25
668.70	301.93
668.84	222.35
668.98	149.79
669.12	180.22
669.26	156.82
669.40	250.44
669.54	170.86
669.68	243.42
669.82	168.52
669.96	189.58
670.10	170.86
670.25	238.73
670.39	205.97
670.53	152.13
670.67	203.63
670.81	189.58
670.95	433.00
671.09	1416.02
671.23	2820.35
671.37	4074.87
671.51	3801.03
671.65	2937.37
671.79	1966.05
671.93	1217.08
672.07	699.82
672.21	475.13
672.35	257.46
672.49	266.82
672.63	220.01
672.77	154.48
672.91	196.60
673.05	107.66
673.19	208.31
673.33	72.56
673.47	236.39
673.61	121.71
673.75	128.73
673.89	145.11
674.03	184.90
674.17	131.07
674.31	107.66
674.45	170.86
674.59	203.63
674.73	196.60
674.87	182.56
675.01	259.80
675.15	166.18
675.29	236.39
675.43	91.28
675.56	257.46
675.70	212.99
675.84	91.28
675.98	154.48
676.12	95.96
676.26	84.26
676.40	152.13
676.54	152.13
676.68	161.50
676.82	152.13
676.96	77.24
677.10	147.45
677.23	133.41
677.37	128.73
677.51	182.56
677.65	201.29
677.79	98.30
677.93	110.01
678.07	184.90
678.21	217.67
678.34	112.35
678.48	102.98
678.62	168.52
678.76	156.82
678.90	112.35
679.04	149.79
679.18	168.52
679.31	95.96
679.45	147.45
679.59	152.13
679.73	145.11
679.87	170.86
680.00	159.16
680.14	166.18
680.28	163.84
680.42	147.45
680.56	159.16
680.70	182.56
680.83	124.05
680.97	49.15
681.11	93.62
681.25	177.88
681.39	124.05
681.52	191.92
681.66	119.37
681.80	166.18
681.94	126.39
682.07	140.43
682.21	196.60
682.35	138.09
682.49	149.79
682.62	163.84
682.76	128.73
682.90	170.86
683.04	124.05
683.17	105.32
683.31	131.07
683.45	154.48
683.59	152.13
683.72	161.50
683.86	187.24
684.00	215.33
684.13	175.54
684.27	149.79
684.41	168.52
684.55	196.60
684.68	121.71
684.82	58.51
684.96	161.50
685.09	152.13
685.23	81.92
685.37	100.64
685.50	212.99
685.64	203.63
685.78	138.09
685.91	163.84
686.05	131.07
686.19	142.77
686.32	110.01
686.46	154.48
686.60	126.39
686.73	243.42
686.87	168.52
687.01	224.69
687.14	110.01
687.28	126.39
687.42	220.01
687.55	149.79
687.69	133.41
687.82	102.98
687.96	110.01
688.10	184.90
688.23	142.77
688.37	138.09
688.50	182.56
688.64	98.30
688.78	154.48
688.91	110.01
689.05	168.52
689.18	100.64
689.32	128.73
689.46	112.35
689.59	149.79
689.73	201.29
689.86	145.11
690.00	77.24
690.13	215.33
690.27	84.26
690.41	191.92
690.54	131.07
690.68	93.62
690.81	70.22
690.95	131.07
691.08	140.43
691.22	187.24
691.35	128.73
691.49	93.62
691.62	170.86
691.76	177.88
691.89	194.26
692.03	131.07
692.16	196.60
692.30	573.43
692.43	1411.34
692.57	2310.11
692.70	2895.24
692.84	2356.92
692.97	1839.66
693.11	1439.43
693.24	973.66
693.38	755.99
693.51	475.13
693.65	379.17
693.78	248.10
693.92	241.08
694.05	222.35
694.19	173.20
694.32	180.22
694.45	70.22
694.59	161.50
694.72	163.84
694.86	168.52
694.99	163.84
695.13	124.05
695.26	133.41
695.39	170.86
695.53	194.26
695.66	182.56
695.80	220.01
695.93	180.22
696.07	191.92
696.20	358.10
696.33	334.70
696.47	278.52
696.60	271.50
696.73	266.82
696.87	142.77
697.00	234.05
697.14	177.88
697.27	198.95
697.40	175.54
697.54	145.11
697.67	173.20
697.80	184.90
697.94	121.71
698.07	201.29
698.21	166.18
698.34	173.20
698.47	128.73
698.61	163.84
698.74	112.35
698.87	142.77
699.01	149.79
699.14	79.58
699.27	222.35
699.40	290.23
699.54	128.73
699.67	170.86
699.80	145.11
699.94	86.60
700.07	149.79
700.20	128.73
700.34	147.45
700.47	182.56
700.60	93.62
700.73	93.62
700.87	156.82
701.00	135.75
701.13	112.35
701.26	248.10
701.40	154.48
701.53	142.77
701.66	147.45
701.79	154.48
701.93	315.97
702.06	308.95
702.19	276.18
702.32	297.25
702.46	353.42
702.59	678.76
702.72	1820.94
702.85	3475.70
702.99	4753.63
703.12	5114.07
703.25	4196.58
703.38	3541.23
703.51	2808.64
703.65	1905.20
703.78	1383.26
703.91	861.32
704.04	643.65
704.17	407.25
704.31	238.73
704.44	248.10
704.57	152.13
704.70	180.22
704.83	229.37
704.96	163.84
705.10	117.03
705.23	168.52
>>>>>End Processed Spectral Data<<<<<
