SpectraSuite Data File
++++++++++++++++++++++++++++++++++++
Date: Fri Oct 04 11:33:59 GMT-05:00 2013
User: price-jones
Dark Spectrum Present: No
Reference Spectrum Present: No
Number of Sampled Component Spectra: 1
Spectrometers: USB2+H05261
Integration Time (usec): 100000 (USB2+H05261)
Spectra Averaged: 1 (USB2+H05261)
Boxcar Smoothing: 0 (USB2+H05261)
Correct for Electrical Dark: No (USB2+H05261)
Strobe/Lamp Enabled: No (USB2+H05261)
Correct for Detector Non-linearity: No (USB2+H05261)
Correct for Stray Light: No (USB2+H05261)
Number of Pixels in Processed Spectrum: 2048
>>>>>Begin Processed Spectral Data<<<<<
365.73	154.48
365.92	154.48
366.12	154.48
366.32	0.00
366.52	0.00
366.72	0.00
366.91	0.00
367.11	0.00
367.31	0.00
367.51	0.00
367.70	0.00
367.90	37.45
368.10	0.00
368.30	0.00
368.49	0.00
368.69	46.81
368.89	7.02
369.09	0.00
369.28	0.00
369.48	0.00
369.68	0.00
369.87	49.15
370.07	35.11
370.27	35.11
370.47	9.36
370.66	39.79
370.86	63.19
371.06	142.77
371.25	147.45
371.45	107.66
371.65	79.58
371.84	65.54
372.04	110.01
372.24	35.11
372.44	93.62
372.63	102.98
372.83	119.37
373.03	114.69
373.22	84.26
373.42	114.69
373.62	117.03
373.81	198.95
374.01	187.24
374.21	189.58
374.40	133.41
374.60	238.73
374.79	161.50
374.99	138.09
375.19	163.84
375.38	220.01
375.58	79.58
375.78	135.75
375.97	177.88
376.17	252.78
376.37	131.07
376.56	131.07
376.76	184.90
376.95	145.11
377.15	131.07
377.35	135.75
377.54	135.75
377.74	114.69
377.93	65.54
378.13	98.30
378.33	152.13
378.52	84.26
378.72	140.43
378.91	124.05
379.11	131.07
379.31	63.19
379.50	194.26
379.70	184.90
379.89	77.24
380.09	147.45
380.28	88.94
380.48	102.98
380.68	191.92
380.87	126.39
381.07	163.84
381.26	173.20
381.46	191.92
381.65	168.52
381.85	147.45
382.04	88.94
382.24	110.01
382.43	156.82
382.63	126.39
382.83	138.09
383.02	140.43
383.22	159.16
383.41	114.69
383.61	86.60
383.80	173.20
384.00	170.86
384.19	88.94
384.39	72.56
384.58	74.90
384.78	184.90
384.97	114.69
385.17	170.86
385.36	135.75
385.56	152.13
385.75	88.94
385.95	88.94
386.14	138.09
386.34	156.82
386.53	119.37
386.72	98.30
386.92	166.18
387.11	142.77
387.31	152.13
387.50	107.66
387.70	175.54
387.89	102.98
388.09	56.17
388.28	140.43
388.48	217.67
388.67	217.67
388.86	140.43
389.06	133.41
389.25	84.26
389.45	112.35
389.64	152.13
389.84	170.86
390.03	205.97
390.22	95.96
390.42	128.73
390.61	102.98
390.81	170.86
391.00	102.98
391.19	119.37
391.39	159.16
391.58	145.11
391.78	95.96
391.97	177.88
392.16	72.56
392.36	147.45
392.55	175.54
392.75	159.16
392.94	147.45
393.13	114.69
393.33	180.22
393.52	159.16
393.71	182.56
393.91	102.98
394.10	173.20
394.29	177.88
394.49	220.01
394.68	166.18
394.88	224.69
395.07	91.28
395.26	138.09
395.46	93.62
395.65	145.11
395.84	215.33
396.04	208.31
396.23	114.69
396.42	91.28
396.62	91.28
396.81	145.11
397.00	166.18
397.19	184.90
397.39	163.84
397.58	177.88
397.77	161.50
397.97	161.50
398.16	159.16
398.35	159.16
398.55	177.88
398.74	191.92
398.93	194.26
399.12	95.96
399.32	191.92
399.51	159.16
399.70	154.48
399.90	131.07
400.09	222.35
400.28	177.88
400.47	128.73
400.67	149.79
400.86	173.20
401.05	184.90
401.24	140.43
401.44	168.52
401.63	173.20
401.82	128.73
402.01	112.35
402.21	161.50
402.40	79.58
402.59	65.54
402.78	105.32
402.97	140.43
403.17	238.73
403.36	145.11
403.55	161.50
403.74	168.52
403.93	159.16
404.13	248.10
404.32	152.13
404.51	170.86
404.70	203.63
404.89	53.83
405.09	236.39
405.28	126.39
405.47	126.39
405.66	145.11
405.85	142.77
406.05	159.16
406.24	133.41
406.43	105.32
406.62	149.79
406.81	128.73
407.00	168.52
407.20	189.58
407.39	138.09
407.58	126.39
407.77	229.37
407.96	159.16
408.15	128.73
408.34	152.13
408.54	166.18
408.73	74.90
408.92	187.24
409.11	163.84
409.30	138.09
409.49	175.54
409.68	173.20
409.87	32.77
410.07	177.88
410.26	175.54
410.45	285.55
410.64	142.77
410.83	149.79
411.02	79.58
411.21	105.32
411.40	140.43
411.59	159.16
411.78	201.29
411.98	135.75
412.17	201.29
412.36	196.60
412.55	184.90
412.74	173.20
412.93	229.37
413.12	119.37
413.31	194.26
413.50	140.43
413.69	156.82
413.88	189.58
414.07	100.64
414.26	154.48
414.45	145.11
414.64	170.86
414.83	142.77
415.02	159.16
415.22	222.35
415.41	187.24
415.60	102.98
415.79	145.11
415.98	210.65
416.17	145.11
416.36	145.11
416.55	152.13
416.74	135.75
416.93	163.84
417.12	131.07
417.31	145.11
417.50	245.76
417.69	203.63
417.88	224.69
418.07	145.11
418.26	189.58
418.45	191.92
418.64	222.35
418.83	212.99
419.02	163.84
419.21	168.52
419.39	128.73
419.58	135.75
419.77	110.01
419.96	147.45
420.15	156.82
420.34	88.94
420.53	217.67
420.72	140.43
420.91	177.88
421.10	152.13
421.29	175.54
421.48	168.52
421.67	182.56
421.86	184.90
422.05	196.60
422.24	184.90
422.43	110.01
422.61	161.50
422.80	180.22
422.99	234.05
423.18	175.54
423.37	152.13
423.56	222.35
423.75	187.24
423.94	152.13
424.13	189.58
424.32	121.71
424.50	196.60
424.69	117.03
424.88	194.26
425.07	175.54
425.26	215.33
425.45	243.42
425.64	212.99
425.83	250.44
426.01	215.33
426.20	77.24
426.39	175.54
426.58	124.05
426.77	140.43
426.96	168.52
427.15	198.95
427.33	203.63
427.52	95.96
427.71	149.79
427.90	173.20
428.09	184.90
428.28	149.79
428.46	138.09
428.65	128.73
428.84	163.84
429.03	220.01
429.22	196.60
429.40	161.50
429.59	110.01
429.78	194.26
429.97	124.05
430.16	180.22
430.34	124.05
430.53	114.69
430.72	131.07
430.91	194.26
431.10	119.37
431.28	126.39
431.47	149.79
431.66	262.14
431.85	177.88
432.03	166.18
432.22	234.05
432.41	212.99
432.60	285.55
432.79	168.52
432.97	161.50
433.16	184.90
433.35	126.39
433.54	126.39
433.72	175.54
433.91	161.50
434.10	147.45
434.28	161.50
434.47	124.05
434.66	210.65
434.85	208.31
435.03	283.20
435.22	308.95
435.41	362.78
435.59	313.63
435.78	271.50
435.97	156.82
436.16	191.92
436.34	215.33
436.53	264.48
436.72	124.05
436.90	210.65
437.09	189.58
437.28	215.33
437.46	182.56
437.65	205.97
437.84	168.52
438.02	222.35
438.21	252.78
438.40	159.16
438.58	149.79
438.77	128.73
438.96	180.22
439.14	217.67
439.33	217.67
439.52	138.09
439.70	154.48
439.89	201.29
440.08	159.16
440.26	135.75
440.45	163.84
440.63	234.05
440.82	170.86
441.01	126.39
441.19	156.82
441.38	238.73
441.57	215.33
441.75	210.65
441.94	201.29
442.12	184.90
442.31	201.29
442.50	180.22
442.68	170.86
442.87	152.13
443.05	196.60
443.24	140.43
443.43	175.54
443.61	180.22
443.80	72.56
443.98	119.37
444.17	119.37
444.35	159.16
444.54	177.88
444.73	177.88
444.91	210.65
445.10	194.26
445.28	238.73
445.47	220.01
445.65	191.92
445.84	191.92
446.02	220.01
446.21	166.18
446.39	145.11
446.58	196.60
446.77	107.66
446.95	217.67
447.14	168.52
447.32	198.95
447.51	133.41
447.69	175.54
447.88	168.52
448.06	131.07
448.25	252.78
448.43	184.90
448.62	163.84
448.80	173.20
448.99	182.56
449.17	238.73
449.36	156.82
449.54	159.16
449.73	236.39
449.91	287.89
450.10	135.75
450.28	229.37
450.46	187.24
450.65	161.50
450.83	238.73
451.02	102.98
451.20	196.60
451.39	159.16
451.57	205.97
451.76	175.54
451.94	212.99
452.13	203.63
452.31	245.76
452.49	180.22
452.68	161.50
452.86	201.29
453.05	217.67
453.23	212.99
453.42	203.63
453.60	210.65
453.78	210.65
453.97	163.84
454.15	243.42
454.34	124.05
454.52	245.76
454.70	201.29
454.89	191.92
455.07	152.13
455.26	215.33
455.44	215.33
455.62	149.79
455.81	215.33
455.99	189.58
456.17	248.10
456.36	168.52
456.54	184.90
456.73	187.24
456.91	170.86
457.09	203.63
457.28	224.69
457.46	201.29
457.64	210.65
457.83	140.43
458.01	147.45
458.19	189.58
458.38	154.48
458.56	166.18
458.74	276.18
458.93	224.69
459.11	163.84
459.29	187.24
459.48	166.18
459.66	208.31
459.84	133.41
460.03	224.69
460.21	168.52
460.39	201.29
460.57	180.22
460.76	189.58
460.94	198.95
461.12	220.01
461.31	229.37
461.49	205.97
461.67	145.11
461.85	138.09
462.04	191.92
462.22	711.52
462.40	245.76
462.59	173.20
462.77	175.54
462.95	184.90
463.13	191.92
463.32	177.88
463.50	166.18
463.68	189.58
463.86	175.54
464.05	131.07
464.23	222.35
464.41	234.05
464.59	152.13
464.78	166.18
464.96	100.64
465.14	201.29
465.32	177.88
465.50	248.10
465.69	194.26
465.87	152.13
466.05	140.43
466.23	184.90
466.41	203.63
466.60	194.26
466.78	227.03
466.96	154.48
467.14	241.08
467.32	217.67
467.51	273.84
467.69	180.22
467.87	248.10
468.05	184.90
468.23	198.95
468.41	227.03
468.60	194.26
468.78	100.64
468.96	205.97
469.14	138.09
469.32	105.32
469.50	189.58
469.69	224.69
469.87	238.73
470.05	215.33
470.23	203.63
470.41	119.37
470.59	128.73
470.77	182.56
470.95	154.48
471.14	140.43
471.32	138.09
471.50	156.82
471.68	163.84
471.86	229.37
472.04	163.84
472.22	203.63
472.40	140.43
472.58	227.03
472.77	222.35
472.95	229.37
473.13	224.69
473.31	198.95
473.49	210.65
473.67	184.90
473.85	175.54
474.03	220.01
474.21	166.18
474.39	114.69
474.57	196.60
474.75	149.79
474.93	145.11
475.12	126.39
475.30	161.50
475.48	126.39
475.66	184.90
475.84	234.05
476.02	208.31
476.20	196.60
476.38	161.50
476.56	184.90
476.74	201.29
476.92	159.16
477.10	126.39
477.28	222.35
477.46	175.54
477.64	227.03
477.82	220.01
478.00	145.11
478.18	231.71
478.36	210.65
478.54	205.97
478.72	241.08
478.90	189.58
479.08	224.69
479.26	154.48
479.44	203.63
479.62	205.97
479.80	201.29
479.98	163.84
480.16	222.35
480.34	184.90
480.52	224.69
480.70	159.16
480.88	142.77
481.06	234.05
481.24	283.20
481.41	238.73
481.59	243.42
481.77	201.29
481.95	124.05
482.13	264.48
482.31	229.37
482.49	142.77
482.67	163.84
482.85	245.76
483.03	229.37
483.21	273.84
483.39	229.37
483.57	229.37
483.74	227.03
483.92	271.50
484.10	215.33
484.28	313.63
484.46	259.80
484.64	210.65
484.82	203.63
485.00	241.08
485.18	236.39
485.35	217.67
485.53	280.86
485.71	212.99
485.89	201.29
486.07	285.55
486.25	320.65
486.43	217.67
486.61	220.01
486.78	250.44
486.96	222.35
487.14	255.12
487.32	266.82
487.50	217.67
487.68	390.87
487.85	215.33
488.03	299.59
488.21	257.46
488.39	205.97
488.57	290.23
488.75	166.18
488.92	442.36
489.10	259.80
489.28	315.97
489.46	227.03
489.64	292.57
489.81	234.05
489.99	198.95
490.17	210.65
490.35	311.29
490.53	191.92
490.70	189.58
490.88	332.36
491.06	182.56
491.24	318.31
491.41	266.82
491.59	222.35
491.77	234.05
491.95	238.73
492.13	238.73
492.30	276.18
492.48	280.86
492.66	252.78
492.84	205.97
493.01	252.78
493.19	287.89
493.37	227.03
493.54	189.58
493.72	280.86
493.90	236.39
494.08	156.82
494.25	168.52
494.43	217.67
494.61	264.48
494.79	278.52
494.96	285.55
495.14	217.67
495.32	245.76
495.49	252.78
495.67	271.50
495.85	210.65
496.02	280.86
496.20	262.14
496.38	273.84
496.55	264.48
496.73	229.37
496.91	234.05
497.09	297.25
497.26	187.24
497.44	149.79
497.62	189.58
497.79	255.12
497.97	241.08
498.14	280.86
498.32	201.29
498.50	222.35
498.67	259.80
498.85	229.37
499.03	182.56
499.20	255.12
499.38	290.23
499.56	201.29
499.73	292.57
499.91	325.33
500.08	299.59
500.26	238.73
500.44	266.82
500.61	205.97
500.79	210.65
500.97	245.76
501.14	262.14
501.32	245.76
501.49	210.65
501.67	238.73
501.84	262.14
502.02	325.33
502.20	278.52
502.37	299.59
502.55	138.09
502.72	301.93
502.90	177.88
503.07	229.37
503.25	212.99
503.43	271.50
503.60	334.70
503.78	255.12
503.95	287.89
504.13	224.69
504.30	301.93
504.48	222.35
504.65	308.95
504.83	325.33
505.01	229.37
505.18	220.01
505.36	168.52
505.53	266.82
505.71	264.48
505.88	299.59
506.06	196.60
506.23	269.16
506.41	231.71
506.58	177.88
506.76	212.99
506.93	241.08
507.11	266.82
507.28	131.07
507.46	238.73
507.63	243.42
507.81	255.12
507.98	234.05
508.16	215.33
508.33	234.05
508.50	266.82
508.68	339.38
508.85	224.69
509.03	205.97
509.20	196.60
509.38	196.60
509.55	304.27
509.73	273.84
509.90	292.57
510.08	203.63
510.25	220.01
510.42	205.97
510.60	287.89
510.77	301.93
510.95	264.48
511.12	276.18
511.30	222.35
511.47	273.84
511.64	276.18
511.82	266.82
511.99	224.69
512.17	191.92
512.34	238.73
512.51	205.97
512.69	285.55
512.86	306.61
513.04	271.50
513.21	262.14
513.38	224.69
513.56	241.08
513.73	231.71
513.90	276.18
514.08	266.82
514.25	222.35
514.43	262.14
514.60	203.63
514.77	299.59
514.95	292.57
515.12	306.61
515.29	290.23
515.47	229.37
515.64	262.14
515.81	283.20
515.99	292.57
516.16	215.33
516.33	262.14
516.51	208.31
516.68	131.07
516.85	243.42
517.03	250.44
517.20	273.84
517.37	215.33
517.54	236.39
517.72	191.92
517.89	215.33
518.06	234.05
518.24	266.82
518.41	299.59
518.58	224.69
518.75	252.78
518.93	308.95
519.10	257.46
519.27	215.33
519.45	325.33
519.62	217.67
519.79	248.10
519.96	259.80
520.14	220.01
520.31	243.42
520.48	301.93
520.65	280.86
520.83	205.97
521.00	236.39
521.17	236.39
521.34	231.71
521.52	250.44
521.69	224.69
521.86	311.29
522.03	285.55
522.20	334.70
522.38	285.55
522.55	236.39
522.72	217.67
522.89	212.99
523.07	306.61
523.24	276.18
523.41	290.23
523.58	283.20
523.75	294.91
523.92	236.39
524.10	313.63
524.27	234.05
524.44	266.82
524.61	290.23
524.78	269.16
524.96	348.74
525.13	280.86
525.30	306.61
525.47	311.29
525.64	292.57
525.81	287.89
525.98	227.03
526.16	269.16
526.33	227.03
526.50	236.39
526.67	152.13
526.84	250.44
527.01	191.92
527.18	217.67
527.36	238.73
527.53	215.33
527.70	248.10
527.87	248.10
528.04	278.52
528.21	273.84
528.38	334.70
528.55	177.88
528.72	259.80
528.89	346.40
529.07	205.97
529.24	208.31
529.41	301.93
529.58	280.86
529.75	231.71
529.92	238.73
530.09	255.12
530.26	299.59
530.43	245.76
530.60	203.63
530.77	266.82
530.94	365.12
531.11	301.93
531.28	161.50
531.46	322.99
531.63	273.84
531.80	266.82
531.97	243.42
532.14	297.25
532.31	276.18
532.48	191.92
532.65	341.72
532.82	278.52
532.99	283.20
533.16	308.95
533.33	297.25
533.50	245.76
533.67	280.86
533.84	273.84
534.01	212.99
534.18	280.86
534.35	292.57
534.52	278.52
534.69	322.99
534.86	252.78
535.03	278.52
535.20	327.68
535.37	322.99
535.54	297.25
535.71	297.25
535.88	313.63
536.05	339.38
536.22	327.68
536.38	276.18
536.55	283.20
536.72	337.04
536.89	259.80
537.06	252.78
537.23	194.26
537.40	255.12
537.57	243.42
537.74	266.82
537.91	337.04
538.08	351.08
538.25	278.52
538.42	311.29
538.59	313.63
538.75	318.31
538.92	248.10
539.09	379.17
539.26	252.78
539.43	374.49
539.60	477.47
539.77	484.49
539.94	606.20
540.11	393.21
540.28	447.04
540.44	407.25
540.61	341.72
540.78	407.25
540.95	451.72
541.12	433.00
541.29	496.19
541.46	512.58
541.62	489.17
541.79	456.40
541.96	496.19
542.13	533.64
542.30	447.04
542.47	430.66
542.63	435.34
542.80	472.79
542.97	507.90
543.14	444.70
543.31	440.02
543.48	430.66
543.64	458.74
543.81	369.80
543.98	463.43
544.15	414.27
544.32	339.38
544.48	397.89
544.65	379.17
544.82	472.79
544.99	402.57
545.16	489.17
545.32	472.79
545.49	636.63
545.66	791.10
545.83	812.17
546.00	709.18
546.16	615.56
546.33	505.56
546.50	491.51
546.67	409.59
546.83	416.62
547.00	404.91
547.17	285.55
547.34	379.17
547.50	390.87
547.67	353.42
547.84	367.46
548.00	425.98
548.17	418.96
548.34	386.19
548.51	395.55
548.67	386.19
548.84	320.65
549.01	341.72
549.18	369.80
549.34	397.89
549.51	355.76
549.68	341.72
549.84	308.95
550.01	313.63
550.18	416.62
550.34	311.29
550.51	346.40
550.68	313.63
550.84	266.82
551.01	285.55
551.18	285.55
551.34	322.99
551.51	353.42
551.68	248.10
551.84	332.36
552.01	266.82
552.18	271.50
552.34	276.18
552.51	325.33
552.68	313.63
552.84	252.78
553.01	283.20
553.18	330.02
553.34	299.59
553.51	313.63
553.67	273.84
553.84	327.68
554.01	266.82
554.17	266.82
554.34	220.01
554.51	283.20
554.67	259.80
554.84	236.39
555.00	269.16
555.17	287.89
555.33	245.76
555.50	227.03
555.67	337.04
555.83	271.50
556.00	208.31
556.16	365.12
556.33	292.57
556.50	280.86
556.66	306.61
556.83	217.67
556.99	248.10
557.16	250.44
557.32	243.42
557.49	241.08
557.65	222.35
557.82	187.24
557.98	259.80
558.15	250.44
558.32	315.97
558.48	257.46
558.65	299.59
558.81	262.14
558.98	330.02
559.14	264.48
559.31	262.14
559.47	322.99
559.64	212.99
559.80	264.48
559.97	248.10
560.13	217.67
560.30	173.20
560.46	257.46
560.63	227.03
560.79	320.65
560.96	273.84
561.12	194.26
561.29	308.95
561.45	220.01
561.61	212.99
561.78	269.16
561.94	231.71
562.11	255.12
562.27	241.08
562.44	252.78
562.60	259.80
562.77	262.14
562.93	344.06
563.10	285.55
563.26	208.31
563.42	257.46
563.59	360.44
563.75	280.86
563.92	262.14
564.08	290.23
564.24	262.14
564.41	311.29
564.57	262.14
564.74	210.65
564.90	292.57
565.07	259.80
565.23	241.08
565.39	257.46
565.56	283.20
565.72	271.50
565.88	243.42
566.05	313.63
566.21	273.84
566.38	198.95
566.54	337.04
566.70	245.76
566.87	250.44
567.03	236.39
567.19	285.55
567.36	227.03
567.52	215.33
567.68	252.78
567.85	287.89
568.01	180.22
568.17	234.05
568.34	257.46
568.50	313.63
568.66	278.52
568.83	287.89
568.99	280.86
569.15	280.86
569.32	273.84
569.48	257.46
569.64	220.01
569.81	276.18
569.97	278.52
570.13	212.99
570.30	222.35
570.46	255.12
570.62	252.78
570.78	271.50
570.95	189.58
571.11	224.69
571.27	290.23
571.43	238.73
571.60	252.78
571.76	250.44
571.92	189.58
572.09	227.03
572.25	177.88
572.41	280.86
572.57	257.46
572.74	257.46
572.90	339.38
573.06	236.39
573.22	322.99
573.38	205.97
573.55	250.44
573.71	241.08
573.87	330.02
574.03	234.05
574.20	271.50
574.36	243.42
574.52	238.73
574.68	248.10
574.84	248.10
575.01	264.48
575.17	285.55
575.33	294.91
575.49	341.72
575.65	248.10
575.82	322.99
575.98	346.40
576.14	290.23
576.30	266.82
576.46	416.62
576.62	397.89
576.79	360.44
576.95	444.70
577.11	337.04
577.27	318.31
577.43	266.82
577.59	330.02
577.75	362.78
577.92	276.18
578.08	327.68
578.24	283.20
578.40	325.33
578.56	369.80
578.72	395.55
578.88	383.85
579.04	348.74
579.21	301.93
579.37	264.48
579.53	353.42
579.69	327.68
579.85	264.48
580.01	313.63
580.17	287.89
580.33	337.04
580.49	285.55
580.65	355.76
580.82	229.37
580.98	255.12
581.14	215.33
581.30	243.42
581.46	257.46
581.62	301.93
581.78	271.50
581.94	383.85
582.10	334.70
582.26	285.55
582.42	337.04
582.58	362.78
582.74	304.27
582.90	353.42
583.06	348.74
583.22	353.42
583.38	315.97
583.54	304.27
583.70	332.36
583.86	409.59
584.02	341.72
584.18	472.79
584.34	465.77
584.50	910.47
584.66	4751.29
584.82	10090.05
584.98	13146.79
585.14	11335.21
585.30	7300.13
585.46	4725.54
585.62	2829.71
585.78	1474.54
585.94	734.93
586.10	428.32
586.26	461.09
586.42	440.02
586.58	334.70
586.74	411.93
586.90	322.99
587.06	341.72
587.22	400.23
587.38	299.59
587.54	517.26
587.70	837.91
587.86	1252.19
588.02	1301.34
588.18	905.79
588.34	660.03
588.49	507.90
588.65	447.04
588.81	327.68
588.97	266.82
589.13	280.86
589.29	318.31
589.45	301.93
589.61	238.73
589.77	318.31
589.93	299.59
590.08	348.74
590.24	273.84
590.40	358.10
590.56	304.27
590.72	257.46
590.88	262.14
591.04	255.12
591.20	311.29
591.35	304.27
591.51	236.39
591.67	266.82
591.83	287.89
591.99	383.85
592.15	283.20
592.31	278.52
592.46	266.82
592.62	266.82
592.78	257.46
592.94	280.86
593.10	318.31
593.26	255.12
593.41	313.63
593.57	273.84
593.73	337.04
593.89	758.33
594.05	1373.89
594.20	1865.41
594.36	1764.76
594.52	1165.59
594.68	917.49
594.84	676.41
594.99	454.06
595.15	376.83
595.31	241.08
595.47	299.59
595.62	355.76
595.78	367.46
595.94	224.69
596.10	290.23
596.25	287.89
596.41	294.91
596.57	255.12
596.73	255.12
596.88	297.25
597.04	486.83
597.20	559.39
597.36	592.16
597.51	463.43
597.67	411.93
597.83	379.17
597.99	292.57
598.14	332.36
598.30	280.86
598.46	313.63
598.61	332.36
598.77	372.15
598.93	276.18
599.09	201.29
599.24	283.20
599.40	248.10
599.56	318.31
599.71	308.95
599.87	299.59
600.03	245.76
600.18	276.18
600.34	287.89
600.50	297.25
600.65	248.10
600.81	283.20
600.97	259.80
601.12	264.48
601.28	304.27
601.44	252.78
601.59	234.05
601.75	229.37
601.91	196.60
602.06	273.84
602.22	332.36
602.37	374.49
602.53	559.39
602.69	589.82
602.84	676.41
603.00	521.94
603.16	482.15
603.31	334.70
603.47	348.74
603.62	320.65
603.78	290.23
603.94	229.37
604.09	257.46
604.25	318.31
604.40	245.76
604.56	306.61
604.71	248.10
604.87	304.27
605.03	229.37
605.18	140.43
605.34	273.84
605.49	287.89
605.65	255.12
605.80	252.78
605.96	294.91
606.12	318.31
606.27	245.76
606.43	280.86
606.58	306.61
606.74	425.98
606.89	961.96
607.05	1401.98
607.20	1631.35
607.36	1334.11
607.51	940.90
607.67	741.95
607.82	578.11
607.98	430.66
608.13	351.08
608.29	318.31
608.44	334.70
608.60	346.40
608.75	337.04
608.91	535.98
609.06	1212.40
609.22	2209.47
609.37	2504.37
609.53	2260.96
609.68	1607.95
609.84	1177.29
609.99	924.51
610.15	685.78
610.30	631.94
610.46	662.37
610.61	669.39
610.76	802.80
610.92	774.72
611.07	805.14
611.23	917.49
611.38	837.91
611.54	734.93
611.69	664.71
611.84	592.16
612.00	564.07
612.15	550.03
612.31	547.69
612.46	468.11
612.62	482.15
612.77	493.85
612.92	451.72
613.08	456.40
613.23	491.51
613.39	416.62
613.54	433.00
613.69	1261.55
613.85	2614.38
614.00	3899.33
614.15	3831.46
614.31	2944.39
614.46	1998.82
614.62	1373.89
614.77	924.51
614.92	547.69
615.08	470.45
615.23	376.83
615.38	278.52
615.54	388.53
615.69	393.21
615.84	858.98
616.00	1167.93
616.15	1193.67
616.30	1029.84
616.46	842.59
616.61	664.71
616.76	517.26
616.92	358.10
617.07	287.89
617.22	283.20
617.37	273.84
617.53	259.80
617.68	294.91
617.83	318.31
617.99	325.33
618.14	365.12
618.29	294.91
618.45	180.22
618.60	299.59
618.75	308.95
618.90	287.89
619.06	283.20
619.21	290.23
619.36	299.59
619.51	208.31
619.67	205.97
619.82	276.18
619.97	334.70
620.12	278.52
620.28	330.02
620.43	271.50
620.58	337.04
620.73	243.42
620.89	304.27
621.04	330.02
621.19	500.87
621.34	669.39
621.49	849.61
621.65	699.82
621.80	545.34
621.95	454.06
622.10	367.46
622.25	327.68
622.41	315.97
622.56	330.02
622.71	334.70
622.86	266.82
623.01	332.36
623.16	306.61
623.32	280.86
623.47	262.14
623.62	266.82
623.77	280.86
623.92	280.86
624.07	243.42
624.23	180.22
624.38	280.86
624.53	255.12
624.68	248.10
624.83	252.78
624.98	276.18
625.13	318.31
625.29	238.73
625.44	238.73
625.59	245.76
625.74	299.59
625.89	341.72
626.04	681.10
626.19	1460.49
626.34	1947.33
626.49	2115.84
626.65	1519.01
626.80	1181.97
626.95	905.79
627.10	585.13
627.25	428.32
627.40	287.89
627.55	255.12
627.70	266.82
627.85	212.99
628.00	241.08
628.15	184.90
628.30	285.55
628.45	280.86
628.60	285.55
628.76	224.69
628.91	203.63
629.06	194.26
629.21	292.57
629.36	294.91
629.51	294.91
629.66	234.05
629.81	255.12
629.96	440.02
630.11	636.63
630.26	788.76
630.41	711.52
630.56	519.60
630.71	463.43
630.86	386.19
631.01	294.91
631.16	290.23
631.31	294.91
631.46	330.02
631.61	285.55
631.76	280.86
631.91	217.67
632.06	271.50
632.21	217.67
632.36	269.16
632.51	255.12
632.66	294.91
632.81	425.98
632.96	912.81
633.10	1334.11
633.25	1514.33
633.40	1188.99
633.55	894.08
633.70	667.05
633.85	540.66
634.00	365.12
634.15	217.67
634.30	177.88
634.45	224.69
634.60	308.95
634.75	257.46
634.90	229.37
635.05	234.05
635.19	210.65
635.34	182.56
635.49	259.80
635.64	217.67
635.79	224.69
635.94	266.82
636.09	285.55
636.24	259.80
636.39	154.48
636.53	234.05
636.68	220.01
636.83	241.08
636.98	187.24
637.13	346.40
637.28	262.14
637.43	330.02
637.57	400.23
637.72	833.23
637.87	1785.83
638.02	2387.35
638.17	2555.86
638.32	2003.50
638.46	1427.73
638.61	1076.65
638.76	648.33
638.91	402.57
639.06	306.61
639.20	287.89
639.35	360.44
639.50	416.62
639.65	1153.88
639.80	2619.06
639.94	3609.11
640.09	3557.61
640.24	2808.64
640.39	2179.04
640.54	1486.24
640.68	973.66
640.83	594.50
640.98	313.63
641.13	271.50
641.27	271.50
641.42	255.12
641.57	215.33
641.72	173.20
641.86	205.97
642.01	236.39
642.16	234.05
642.31	252.78
642.45	262.14
642.60	212.99
642.75	184.90
642.90	273.84
643.04	250.44
643.19	191.92
643.34	212.99
643.48	255.12
643.63	250.44
643.78	330.02
643.93	245.76
644.07	259.80
644.22	238.73
644.37	98.30
644.51	234.05
644.66	198.95
644.81	201.29
644.95	217.67
645.10	166.18
645.25	299.59
645.39	248.10
645.54	245.76
645.69	229.37
645.83	184.90
645.98	238.73
646.13	184.90
646.27	259.80
646.42	124.05
646.57	273.84
646.71	224.69
646.86	236.39
647.00	241.08
647.15	205.97
647.30	161.50
647.44	203.63
647.59	180.22
647.74	252.78
647.88	180.22
648.03	173.20
648.17	236.39
648.32	243.42
648.47	222.35
648.61	149.79
648.76	184.90
648.90	166.18
649.05	205.97
649.20	208.31
649.34	177.88
649.49	243.42
649.63	222.35
649.78	262.14
649.92	262.14
650.07	531.30
650.21	1226.44
650.36	1795.19
650.51	2036.27
650.65	1764.76
650.80	1327.08
650.94	931.53
651.09	702.16
651.23	444.70
651.38	276.18
651.52	222.35
651.67	210.65
651.81	194.26
651.96	217.67
652.10	266.82
652.25	236.39
652.39	248.10
652.54	154.48
652.68	322.99
652.83	557.05
652.97	767.70
653.12	868.34
653.26	772.38
653.41	664.71
653.55	512.58
653.70	386.19
653.84	339.38
653.99	248.10
654.13	187.24
654.27	205.97
654.42	208.31
654.56	173.20
654.71	203.63
654.85	149.79
655.00	229.37
655.14	175.54
655.29	322.99
655.43	161.50
655.57	161.50
655.72	184.90
655.86	229.37
656.01	196.60
656.15	196.60
656.30	234.05
656.44	229.37
656.58	152.13
656.73	175.54
656.87	182.56
657.01	184.90
657.16	196.60
657.30	266.82
657.45	215.33
657.59	229.37
657.73	114.69
657.88	215.33
658.02	290.23
658.16	159.16
658.31	257.46
658.45	250.44
658.60	163.84
658.74	245.76
658.88	184.90
659.03	191.92
659.17	227.03
659.31	238.73
659.46	650.67
659.60	1074.31
659.74	1181.97
659.89	1048.56
660.03	765.36
660.17	571.09
660.32	348.74
660.46	351.08
660.60	194.26
660.74	269.16
660.89	131.07
661.03	147.45
661.17	131.07
661.32	215.33
661.46	145.11
661.60	154.48
661.74	215.33
661.89	182.56
662.03	224.69
662.17	224.69
662.31	234.05
662.46	259.80
662.60	224.69
662.74	198.95
662.88	196.60
663.03	117.03
663.17	198.95
663.31	152.13
663.45	182.56
663.60	198.95
663.74	128.73
663.88	262.14
664.02	189.58
664.17	163.84
664.31	177.88
664.45	248.10
664.59	210.65
664.73	212.99
664.88	222.35
665.02	210.65
665.16	191.92
665.30	220.01
665.44	119.37
665.59	227.03
665.73	149.79
665.87	175.54
666.01	175.54
666.15	184.90
666.29	180.22
666.44	287.89
666.58	184.90
666.72	159.16
666.86	243.42
667.00	278.52
667.14	159.16
667.28	566.41
667.43	1097.71
667.57	1497.94
667.71	1846.68
667.85	1577.52
667.99	1116.44
668.13	905.79
668.27	610.88
668.41	404.91
668.56	273.84
668.70	234.05
668.84	210.65
668.98	212.99
669.12	173.20
669.26	170.86
669.40	264.48
669.54	245.76
669.68	271.50
669.82	51.49
669.96	234.05
670.10	175.54
670.25	215.33
670.39	191.92
670.53	238.73
670.67	215.33
670.81	138.09
670.95	269.16
671.09	278.52
671.23	575.77
671.37	821.53
671.51	1050.90
671.65	1181.97
671.79	947.92
671.93	709.18
672.07	557.05
672.21	484.49
672.35	276.18
672.49	222.35
672.63	276.18
672.77	205.97
672.91	210.65
673.05	198.95
673.19	269.16
673.33	154.48
673.47	227.03
673.61	191.92
673.75	168.52
673.89	161.50
674.03	220.01
674.17	198.95
674.31	198.95
674.45	154.48
674.59	210.65
674.73	142.77
674.87	147.45
675.01	250.44
675.15	222.35
675.29	215.33
675.43	257.46
675.56	191.92
675.70	173.20
675.84	170.86
675.98	191.92
676.12	133.41
676.26	203.63
676.40	189.58
676.54	241.08
676.68	210.65
676.82	161.50
676.96	187.24
677.10	217.67
677.23	229.37
677.37	245.76
677.51	152.13
677.65	184.90
677.79	203.63
677.93	156.82
678.07	166.18
678.21	128.73
678.34	135.75
678.48	131.07
678.62	215.33
678.76	196.60
678.90	175.54
679.04	205.97
679.18	152.13
679.31	166.18
679.45	196.60
679.59	119.37
679.73	163.84
679.87	131.07
680.00	154.48
680.14	133.41
680.28	184.90
680.42	248.10
680.56	168.52
680.70	189.58
680.83	159.16
680.97	208.31
681.11	205.97
681.25	168.52
681.39	217.67
681.52	205.97
681.66	156.82
681.80	149.79
681.94	227.03
682.07	222.35
682.21	198.95
682.35	184.90
682.49	201.29
682.62	191.92
682.76	88.94
682.90	156.82
683.04	170.86
683.17	145.11
683.31	231.71
683.45	175.54
683.59	163.84
683.72	147.45
683.86	147.45
684.00	156.82
684.13	189.58
684.27	166.18
684.41	138.09
684.55	154.48
684.68	88.94
684.82	234.05
684.96	177.88
685.09	227.03
685.23	170.86
685.37	189.58
685.50	201.29
685.64	110.01
685.78	131.07
685.91	191.92
686.05	212.99
686.19	187.24
686.32	194.26
686.46	205.97
686.60	224.69
686.73	198.95
686.87	222.35
687.01	128.73
687.14	147.45
687.28	121.71
687.42	140.43
687.55	168.52
687.69	201.29
687.82	215.33
687.96	210.65
688.10	187.24
688.23	119.37
688.37	238.73
688.50	149.79
688.64	212.99
688.78	170.86
688.91	140.43
689.05	140.43
689.18	168.52
689.32	203.63
689.46	138.09
689.59	135.75
689.73	215.33
689.86	145.11
690.00	238.73
690.13	98.30
690.27	208.31
690.41	156.82
690.54	163.84
690.68	154.48
690.81	161.50
690.95	210.65
691.08	166.18
691.22	175.54
691.35	166.18
691.49	126.39
691.62	168.52
691.76	142.77
691.89	138.09
692.03	133.41
692.16	105.32
692.30	227.03
692.43	315.97
692.57	531.30
692.70	692.80
692.84	898.77
692.97	774.72
693.11	547.69
693.24	463.43
693.38	355.76
693.51	388.53
693.65	290.23
693.78	215.33
693.92	205.97
694.05	149.79
694.19	154.48
694.32	243.42
694.45	166.18
694.59	191.92
694.72	184.90
694.86	124.05
694.99	131.07
695.13	255.12
695.26	203.63
695.39	140.43
695.53	245.76
695.66	222.35
695.80	194.26
695.93	133.41
696.07	184.90
696.20	250.44
696.33	170.86
696.47	187.24
696.60	243.42
696.73	248.10
696.87	107.66
697.00	227.03
697.14	212.99
697.27	191.92
697.40	173.20
697.54	110.01
697.67	110.01
697.80	114.69
697.94	170.86
698.07	187.24
698.21	135.75
698.34	133.41
698.47	110.01
698.61	161.50
698.74	187.24
698.87	187.24
699.01	191.92
699.14	205.97
699.27	215.33
699.40	220.01
699.54	156.82
699.67	112.35
699.80	126.39
699.94	135.75
700.07	128.73
700.20	131.07
700.34	175.54
700.47	159.16
700.60	170.86
700.73	112.35
700.87	220.01
701.00	168.52
701.13	217.67
701.26	149.79
701.40	128.73
701.53	138.09
701.66	107.66
701.79	142.77
701.93	194.26
702.06	222.35
702.19	147.45
702.32	257.46
702.46	170.86
702.59	161.50
702.72	234.05
702.85	533.64
702.99	1008.77
703.12	1352.83
703.25	1439.43
703.38	1310.70
703.51	1062.60
703.65	807.48
703.78	667.05
703.91	454.06
704.04	313.63
704.17	250.44
704.31	229.37
704.44	241.08
704.57	149.79
704.70	177.88
704.83	180.22
704.96	194.26
705.10	205.97
705.23	102.98
>>>>>End Processed Spectral Data<<<<<
