SpectraSuite Data File
++++++++++++++++++++++++++++++++++++
Date: Fri Oct 04 11:34:05 GMT-05:00 2013
User: price-jones
Dark Spectrum Present: No
Reference Spectrum Present: No
Number of Sampled Component Spectra: 1
Spectrometers: USB2+H05261
Integration Time (usec): 100000 (USB2+H05261)
Spectra Averaged: 1 (USB2+H05261)
Boxcar Smoothing: 0 (USB2+H05261)
Correct for Electrical Dark: No (USB2+H05261)
Strobe/Lamp Enabled: No (USB2+H05261)
Correct for Detector Non-linearity: No (USB2+H05261)
Correct for Stray Light: No (USB2+H05261)
Number of Pixels in Processed Spectrum: 2048
>>>>>Begin Processed Spectral Data<<<<<
365.73	74.90
365.92	74.90
366.12	74.90
366.32	0.00
366.52	0.00
366.72	0.00
366.91	0.00
367.11	21.06
367.31	0.00
367.51	51.49
367.70	0.00
367.90	16.38
368.10	0.00
368.30	0.00
368.49	16.38
368.69	9.36
368.89	0.00
369.09	0.00
369.28	25.75
369.48	16.38
369.68	0.00
369.87	72.56
370.07	37.45
370.27	25.75
370.47	18.72
370.66	42.13
370.86	121.71
371.06	112.35
371.25	180.22
371.45	105.32
371.65	145.11
371.84	93.62
372.04	39.79
372.24	91.28
372.44	77.24
372.63	70.22
372.83	121.71
373.03	74.90
373.22	51.49
373.42	117.03
373.62	168.52
373.81	187.24
374.01	170.86
374.21	133.41
374.40	154.48
374.60	280.86
374.79	110.01
374.99	168.52
375.19	156.82
375.38	105.32
375.58	100.64
375.78	105.32
375.97	152.13
376.17	250.44
376.37	191.92
376.56	156.82
376.76	119.37
376.95	95.96
377.15	196.60
377.35	177.88
377.54	138.09
377.74	163.84
377.93	44.47
378.13	135.75
378.33	170.86
378.52	138.09
378.72	182.56
378.91	107.66
379.11	161.50
379.31	124.05
379.50	168.52
379.70	166.18
379.89	184.90
380.09	201.29
380.28	175.54
380.48	117.03
380.68	86.60
380.87	98.30
381.07	84.26
381.26	182.56
381.46	142.77
381.65	93.62
381.85	205.97
382.04	117.03
382.24	147.45
382.43	79.58
382.63	124.05
382.83	140.43
383.02	229.37
383.22	149.79
383.41	131.07
383.61	182.56
383.80	196.60
384.00	95.96
384.19	74.90
384.39	156.82
384.58	124.05
384.78	166.18
384.97	86.60
385.17	117.03
385.36	91.28
385.56	133.41
385.75	112.35
385.95	133.41
386.14	142.77
386.34	124.05
386.53	119.37
386.72	126.39
386.92	234.05
387.11	107.66
387.31	159.16
387.50	147.45
387.70	173.20
387.89	170.86
388.09	91.28
388.28	119.37
388.48	98.30
388.67	203.63
388.86	117.03
389.06	128.73
389.25	163.84
389.45	133.41
389.64	114.69
389.84	149.79
390.03	161.50
390.22	124.05
390.42	166.18
390.61	161.50
390.81	95.96
391.00	154.48
391.19	189.58
391.39	126.39
391.58	131.07
391.78	154.48
391.97	95.96
392.16	81.92
392.36	212.99
392.55	184.90
392.75	194.26
392.94	119.37
393.13	156.82
393.33	86.60
393.52	196.60
393.71	170.86
393.91	88.94
394.10	145.11
394.29	86.60
394.49	163.84
394.68	191.92
394.88	180.22
395.07	217.67
395.26	194.26
395.46	147.45
395.65	102.98
395.84	105.32
396.04	227.03
396.23	88.94
396.42	98.30
396.62	88.94
396.81	135.75
397.00	149.79
397.19	95.96
397.39	117.03
397.58	170.86
397.77	133.41
397.97	131.07
398.16	147.45
398.35	168.52
398.55	173.20
398.74	93.62
398.93	147.45
399.12	147.45
399.32	121.71
399.51	154.48
399.70	135.75
399.90	142.77
400.09	168.52
400.28	105.32
400.47	201.29
400.67	210.65
400.86	154.48
401.05	201.29
401.24	98.30
401.44	133.41
401.63	170.86
401.82	194.26
402.01	166.18
402.21	166.18
402.40	133.41
402.59	88.94
402.78	131.07
402.97	128.73
403.17	149.79
403.36	182.56
403.55	180.22
403.74	86.60
403.93	182.56
404.13	205.97
404.32	149.79
404.51	105.32
404.70	161.50
404.89	259.80
405.09	217.67
405.28	86.60
405.47	184.90
405.66	138.09
405.85	297.25
406.05	201.29
406.24	98.30
406.43	102.98
406.62	166.18
406.81	224.69
407.00	194.26
407.20	121.71
407.39	161.50
407.58	138.09
407.77	138.09
407.96	182.56
408.15	180.22
408.34	217.67
408.54	124.05
408.73	98.30
408.92	177.88
409.11	236.39
409.30	152.13
409.49	124.05
409.68	107.66
409.87	187.24
410.07	140.43
410.26	154.48
410.45	152.13
410.64	131.07
410.83	177.88
411.02	84.26
411.21	156.82
411.40	217.67
411.59	201.29
411.78	175.54
411.98	182.56
412.17	135.75
412.36	135.75
412.55	121.71
412.74	154.48
412.93	140.43
413.12	131.07
413.31	126.39
413.50	184.90
413.69	121.71
413.88	142.77
414.07	117.03
414.26	133.41
414.45	119.37
414.64	161.50
414.83	175.54
415.02	212.99
415.22	191.92
415.41	205.97
415.60	102.98
415.79	154.48
415.98	180.22
416.17	173.20
416.36	168.52
416.55	107.66
416.74	184.90
416.93	140.43
417.12	149.79
417.31	102.98
417.50	234.05
417.69	177.88
417.88	191.92
418.07	138.09
418.26	105.32
418.45	138.09
418.64	248.10
418.83	119.37
419.02	180.22
419.21	149.79
419.39	257.46
419.58	145.11
419.77	124.05
419.96	124.05
420.15	163.84
420.34	102.98
420.53	196.60
420.72	187.24
420.91	159.16
421.10	140.43
421.29	180.22
421.48	168.52
421.67	196.60
421.86	224.69
422.05	107.66
422.24	138.09
422.43	238.73
422.61	170.86
422.80	166.18
422.99	168.52
423.18	196.60
423.37	201.29
423.56	180.22
423.75	131.07
423.94	140.43
424.13	227.03
424.32	91.28
424.50	189.58
424.69	203.63
424.88	252.78
425.07	126.39
425.26	191.92
425.45	170.86
425.64	196.60
425.83	124.05
426.01	163.84
426.20	257.46
426.39	156.82
426.58	182.56
426.77	133.41
426.96	210.65
427.15	149.79
427.33	159.16
427.52	147.45
427.71	220.01
427.90	145.11
428.09	131.07
428.28	140.43
428.46	227.03
428.65	140.43
428.84	152.13
429.03	180.22
429.22	161.50
429.40	149.79
429.59	112.35
429.78	119.37
429.97	91.28
430.16	166.18
430.34	156.82
430.53	135.75
430.72	173.20
430.91	147.45
431.10	149.79
431.28	105.32
431.47	196.60
431.66	210.65
431.85	161.50
432.03	95.96
432.22	234.05
432.41	166.18
432.60	140.43
432.79	182.56
432.97	156.82
433.16	138.09
433.35	124.05
433.54	131.07
433.72	166.18
433.91	224.69
434.10	205.97
434.28	133.41
434.47	170.86
434.66	152.13
434.85	198.95
435.03	191.92
435.22	269.16
435.41	390.87
435.59	311.29
435.78	245.76
435.97	187.24
436.16	187.24
436.34	187.24
436.53	168.52
436.72	198.95
436.90	112.35
437.09	234.05
437.28	194.26
437.46	142.77
437.65	170.86
437.84	163.84
438.02	196.60
438.21	189.58
438.40	187.24
438.58	161.50
438.77	166.18
438.96	138.09
439.14	74.90
439.33	215.33
439.52	140.43
439.70	161.50
439.89	140.43
440.08	215.33
440.26	135.75
440.45	140.43
440.63	180.22
440.82	114.69
441.01	215.33
441.19	194.26
441.38	154.48
441.57	177.88
441.75	189.58
441.94	236.39
442.12	114.69
442.31	131.07
442.50	196.60
442.68	210.65
442.87	194.26
443.05	173.20
443.24	212.99
443.43	198.95
443.61	217.67
443.80	212.99
443.98	156.82
444.17	107.66
444.35	194.26
444.54	187.24
444.73	161.50
444.91	229.37
445.10	79.58
445.28	74.90
445.47	147.45
445.65	107.66
445.84	168.52
446.02	250.44
446.21	135.75
446.39	191.92
446.58	154.48
446.77	203.63
446.95	124.05
447.14	161.50
447.32	161.50
447.51	124.05
447.69	210.65
447.88	112.35
448.06	241.08
448.25	203.63
448.43	194.26
448.62	161.50
448.80	248.10
448.99	191.92
449.17	105.32
449.36	154.48
449.54	224.69
449.73	145.11
449.91	196.60
450.10	201.29
450.28	297.25
450.46	266.82
450.65	166.18
450.83	124.05
451.02	198.95
451.20	243.42
451.39	180.22
451.57	142.77
451.76	173.20
451.94	159.16
452.13	212.99
452.31	210.65
452.49	259.80
452.68	229.37
452.86	203.63
453.05	212.99
453.23	220.01
453.42	154.48
453.60	112.35
453.78	135.75
453.97	161.50
454.15	142.77
454.34	175.54
454.52	166.18
454.70	208.31
454.89	168.52
455.07	149.79
455.26	210.65
455.44	180.22
455.62	205.97
455.81	191.92
455.99	180.22
456.17	147.45
456.36	212.99
456.54	252.78
456.73	124.05
456.91	149.79
457.09	250.44
457.28	177.88
457.46	149.79
457.64	252.78
457.83	182.56
458.01	205.97
458.19	198.95
458.38	187.24
458.56	140.43
458.74	163.84
458.93	177.88
459.11	264.48
459.29	119.37
459.48	128.73
459.66	283.20
459.84	271.50
460.03	229.37
460.21	224.69
460.39	175.54
460.57	248.10
460.76	236.39
460.94	168.52
461.12	220.01
461.31	266.82
461.49	208.31
461.67	175.54
461.85	212.99
462.04	201.29
462.22	589.82
462.40	238.73
462.59	131.07
462.77	124.05
462.95	184.90
463.13	194.26
463.32	210.65
463.50	166.18
463.68	126.39
463.86	248.10
464.05	140.43
464.23	245.76
464.41	170.86
464.59	159.16
464.78	175.54
464.96	173.20
465.14	145.11
465.32	149.79
465.50	163.84
465.69	184.90
465.87	145.11
466.05	196.60
466.23	220.01
466.41	154.48
466.60	175.54
466.78	180.22
466.96	156.82
467.14	271.50
467.32	194.26
467.51	201.29
467.69	177.88
467.87	264.48
468.05	142.77
468.23	189.58
468.41	236.39
468.60	135.75
468.78	175.54
468.96	189.58
469.14	180.22
469.32	229.37
469.50	198.95
469.69	215.33
469.87	222.35
470.05	177.88
470.23	241.08
470.41	149.79
470.59	117.03
470.77	168.52
470.95	217.67
471.14	245.76
471.32	168.52
471.50	189.58
471.68	212.99
471.86	191.92
472.04	168.52
472.22	194.26
472.40	159.16
472.58	131.07
472.77	159.16
472.95	229.37
473.13	266.82
473.31	173.20
473.49	227.03
473.67	170.86
473.85	189.58
474.03	189.58
474.21	138.09
474.39	173.20
474.57	241.08
474.75	238.73
474.93	180.22
475.12	238.73
475.30	241.08
475.48	208.31
475.66	196.60
475.84	180.22
476.02	142.77
476.20	234.05
476.38	252.78
476.56	259.80
476.74	124.05
476.92	168.52
477.10	156.82
477.28	166.18
477.46	194.26
477.64	184.90
477.82	236.39
478.00	159.16
478.18	161.50
478.36	222.35
478.54	142.77
478.72	196.60
478.90	231.71
479.08	224.69
479.26	166.18
479.44	187.24
479.62	198.95
479.80	124.05
479.98	182.56
480.16	229.37
480.34	191.92
480.52	217.67
480.70	154.48
480.88	224.69
481.06	191.92
481.24	168.52
481.41	203.63
481.59	220.01
481.77	301.93
481.95	201.29
482.13	238.73
482.31	203.63
482.49	208.31
482.67	243.42
482.85	241.08
483.03	182.56
483.21	175.54
483.39	166.18
483.57	119.37
483.74	222.35
483.92	133.41
484.10	152.13
484.28	250.44
484.46	290.23
484.64	215.33
484.82	229.37
485.00	189.58
485.18	212.99
485.35	255.12
485.53	177.88
485.71	231.71
485.89	187.24
486.07	227.03
486.25	222.35
486.43	271.50
486.61	271.50
486.78	222.35
486.96	229.37
487.14	182.56
487.32	191.92
487.50	175.54
487.68	278.52
487.85	229.37
488.03	257.46
488.21	290.23
488.39	280.86
488.57	227.03
488.75	220.01
488.92	486.83
489.10	220.01
489.28	243.42
489.46	180.22
489.64	220.01
489.81	205.97
489.99	220.01
490.17	255.12
490.35	287.89
490.53	248.10
490.70	177.88
490.88	208.31
491.06	210.65
491.24	208.31
491.41	320.65
491.59	156.82
491.77	189.58
491.95	159.16
492.13	175.54
492.30	234.05
492.48	262.14
492.66	215.33
492.84	210.65
493.01	227.03
493.19	217.67
493.37	194.26
493.54	264.48
493.72	318.31
493.90	222.35
494.08	269.16
494.25	212.99
494.43	276.18
494.61	280.86
494.79	266.82
494.96	255.12
495.14	238.73
495.32	236.39
495.49	243.42
495.67	205.97
495.85	182.56
496.02	229.37
496.20	243.42
496.38	290.23
496.55	224.69
496.73	222.35
496.91	210.65
497.09	269.16
497.26	252.78
497.44	287.89
497.62	205.97
497.79	236.39
497.97	194.26
498.14	196.60
498.32	306.61
498.50	229.37
498.67	168.52
498.85	215.33
499.03	177.88
499.20	252.78
499.38	252.78
499.56	215.33
499.73	231.71
499.91	236.39
500.08	266.82
500.26	259.80
500.44	292.57
500.61	330.02
500.79	166.18
500.97	241.08
501.14	285.55
501.32	262.14
501.49	337.04
501.67	257.46
501.84	224.69
502.02	229.37
502.20	236.39
502.37	257.46
502.55	262.14
502.72	278.52
502.90	283.20
503.07	280.86
503.25	203.63
503.43	149.79
503.60	227.03
503.78	205.97
503.95	299.59
504.13	210.65
504.30	208.31
504.48	266.82
504.65	266.82
504.83	287.89
505.01	210.65
505.18	266.82
505.36	198.95
505.53	201.29
505.71	191.92
505.88	290.23
506.06	234.05
506.23	227.03
506.41	259.80
506.58	194.26
506.76	203.63
506.93	257.46
507.11	238.73
507.28	135.75
507.46	248.10
507.63	205.97
507.81	208.31
507.98	248.10
508.16	156.82
508.33	243.42
508.50	262.14
508.68	315.97
508.85	210.65
509.03	227.03
509.20	252.78
509.38	273.84
509.55	196.60
509.73	248.10
509.90	236.39
510.08	236.39
510.25	196.60
510.42	255.12
510.60	245.76
510.77	149.79
510.95	215.33
511.12	166.18
511.30	255.12
511.47	255.12
511.64	304.27
511.82	217.67
511.99	234.05
512.17	215.33
512.34	266.82
512.51	173.20
512.69	227.03
512.86	276.18
513.04	297.25
513.21	243.42
513.38	210.65
513.56	271.50
513.73	227.03
513.90	250.44
514.08	266.82
514.25	273.84
514.43	243.42
514.60	252.78
514.77	184.90
514.95	266.82
515.12	201.29
515.29	184.90
515.47	215.33
515.64	255.12
515.81	285.55
515.99	245.76
516.16	210.65
516.33	198.95
516.51	203.63
516.68	180.22
516.85	217.67
517.03	234.05
517.20	257.46
517.37	271.50
517.54	348.74
517.72	252.78
517.89	285.55
518.06	245.76
518.24	245.76
518.41	308.95
518.58	243.42
518.75	236.39
518.93	159.16
519.10	196.60
519.27	236.39
519.45	210.65
519.62	257.46
519.79	252.78
519.96	245.76
520.14	276.18
520.31	285.55
520.48	229.37
520.65	248.10
520.83	313.63
521.00	322.99
521.17	294.91
521.34	191.92
521.52	262.14
521.69	252.78
521.86	252.78
522.03	257.46
522.20	290.23
522.38	212.99
522.55	294.91
522.72	194.26
522.89	339.38
523.07	313.63
523.24	266.82
523.41	238.73
523.58	217.67
523.75	243.42
523.92	175.54
524.10	222.35
524.27	252.78
524.44	152.13
524.61	229.37
524.78	198.95
524.96	341.72
525.13	257.46
525.30	311.29
525.47	262.14
525.64	259.80
525.81	266.82
525.98	222.35
526.16	191.92
526.33	184.90
526.50	170.86
526.67	257.46
526.84	166.18
527.01	234.05
527.18	250.44
527.36	212.99
527.53	187.24
527.70	259.80
527.87	255.12
528.04	231.71
528.21	217.67
528.38	299.59
528.55	334.70
528.72	220.01
528.89	299.59
529.07	201.29
529.24	315.97
529.41	278.52
529.58	196.60
529.75	205.97
529.92	290.23
530.09	234.05
530.26	224.69
530.43	252.78
530.60	276.18
530.77	229.37
530.94	248.10
531.11	238.73
531.28	217.67
531.46	234.05
531.63	191.92
531.80	285.55
531.97	191.92
532.14	273.84
532.31	278.52
532.48	292.57
532.65	189.58
532.82	189.58
532.99	215.33
533.16	220.01
533.33	271.50
533.50	266.82
533.67	205.97
533.84	271.50
534.01	278.52
534.18	227.03
534.35	306.61
534.52	269.16
534.69	322.99
534.86	210.65
535.03	285.55
535.20	252.78
535.37	271.50
535.54	245.76
535.71	271.50
535.88	290.23
536.05	285.55
536.22	304.27
536.38	301.93
536.55	280.86
536.72	276.18
536.89	287.89
537.06	243.42
537.23	191.92
537.40	196.60
537.57	262.14
537.74	273.84
537.91	273.84
538.08	259.80
538.25	332.36
538.42	297.25
538.59	297.25
538.75	355.76
538.92	250.44
539.09	259.80
539.26	306.61
539.43	360.44
539.60	355.76
539.77	325.33
539.94	287.89
540.11	397.89
540.28	379.17
540.44	327.68
540.61	379.17
540.78	358.10
540.95	435.34
541.12	458.74
541.29	390.87
541.46	463.43
541.62	400.23
541.79	376.83
541.96	442.36
542.13	425.98
542.30	418.96
542.47	358.10
542.63	367.46
542.80	372.15
542.97	386.19
543.14	386.19
543.31	423.64
543.48	477.47
543.64	404.91
543.81	330.02
543.98	337.04
544.15	355.76
544.32	390.87
544.48	334.70
544.65	425.98
544.82	374.49
544.99	435.34
545.16	379.17
545.32	372.15
545.49	643.65
545.66	636.63
545.83	645.99
546.00	561.73
546.16	458.74
546.33	383.85
546.50	418.96
546.67	475.13
546.83	346.40
547.00	395.55
547.17	383.85
547.34	330.02
547.50	273.84
547.67	411.93
547.84	271.50
548.00	425.98
548.17	241.08
548.34	374.49
548.51	365.12
548.67	315.97
548.84	334.70
549.01	369.80
549.18	325.33
549.34	313.63
549.51	257.46
549.68	252.78
549.84	315.97
550.01	290.23
550.18	360.44
550.34	351.08
550.51	262.14
550.68	372.15
550.84	308.95
551.01	215.33
551.18	255.12
551.34	259.80
551.51	287.89
551.68	259.80
551.84	304.27
552.01	266.82
552.18	280.86
552.34	220.01
552.51	301.93
552.68	255.12
552.84	210.65
553.01	238.73
553.18	308.95
553.34	297.25
553.51	255.12
553.67	278.52
553.84	369.80
554.01	311.29
554.17	273.84
554.34	330.02
554.51	351.08
554.67	264.48
554.84	337.04
555.00	283.20
555.17	308.95
555.33	294.91
555.50	280.86
555.67	283.20
555.83	234.05
556.00	250.44
556.16	482.15
556.33	264.48
556.50	245.76
556.66	248.10
556.83	250.44
556.99	198.95
557.16	210.65
557.32	280.86
557.49	220.01
557.65	280.86
557.82	170.86
557.98	231.71
558.15	210.65
558.32	182.56
558.48	231.71
558.65	245.76
558.81	210.65
558.98	231.71
559.14	276.18
559.31	238.73
559.47	276.18
559.64	238.73
559.80	234.05
559.97	238.73
560.13	257.46
560.30	245.76
560.46	243.42
560.63	241.08
560.79	334.70
560.96	271.50
561.12	180.22
561.29	210.65
561.45	238.73
561.61	266.82
561.78	362.78
561.94	215.33
562.11	283.20
562.27	245.76
562.44	154.48
562.60	212.99
562.77	276.18
562.93	325.33
563.10	264.48
563.26	227.03
563.42	271.50
563.59	212.99
563.75	182.56
563.92	301.93
564.08	292.57
564.24	184.90
564.41	306.61
564.57	189.58
564.74	269.16
564.90	287.89
565.07	252.78
565.23	262.14
565.39	290.23
565.56	262.14
565.72	215.33
565.88	220.01
566.05	271.50
566.21	177.88
566.38	306.61
566.54	227.03
566.70	238.73
566.87	231.71
567.03	255.12
567.19	212.99
567.36	297.25
567.52	255.12
567.68	248.10
567.85	227.03
568.01	292.57
568.17	217.67
568.34	220.01
568.50	238.73
568.66	262.14
568.83	255.12
568.99	203.63
569.15	292.57
569.32	217.67
569.48	266.82
569.64	180.22
569.81	245.76
569.97	210.65
570.13	212.99
570.30	236.39
570.46	278.52
570.62	231.71
570.78	201.29
570.95	187.24
571.11	348.74
571.27	255.12
571.43	252.78
571.60	250.44
571.76	229.37
571.92	234.05
572.09	222.35
572.25	236.39
572.41	276.18
572.57	264.48
572.74	322.99
572.90	241.08
573.06	245.76
573.22	306.61
573.38	198.95
573.55	318.31
573.71	297.25
573.87	243.42
574.03	234.05
574.20	257.46
574.36	262.14
574.52	182.56
574.68	175.54
574.84	266.82
575.01	255.12
575.17	271.50
575.33	248.10
575.49	210.65
575.65	212.99
575.82	227.03
575.98	395.55
576.14	280.86
576.30	236.39
576.46	241.08
576.62	353.42
576.79	425.98
576.95	299.59
577.11	210.65
577.27	315.97
577.43	266.82
577.59	318.31
577.75	196.60
577.92	194.26
578.08	276.18
578.24	215.33
578.40	276.18
578.56	287.89
578.72	320.65
578.88	294.91
579.04	262.14
579.21	339.38
579.37	311.29
579.53	273.84
579.69	255.12
579.85	227.03
580.01	313.63
580.17	227.03
580.33	278.52
580.49	294.91
580.65	259.80
580.82	203.63
580.98	257.46
581.14	227.03
581.30	262.14
581.46	259.80
581.62	201.29
581.78	332.36
581.94	280.86
582.10	252.78
582.26	351.08
582.42	304.27
582.58	301.93
582.74	362.78
582.90	266.82
583.06	229.37
583.22	255.12
583.38	266.82
583.54	236.39
583.70	360.44
583.86	234.05
584.02	215.33
584.18	332.36
584.34	269.16
584.50	236.39
584.66	304.27
584.82	344.06
584.98	332.36
585.14	273.84
585.30	334.70
585.46	266.82
585.62	292.57
585.78	264.48
585.94	243.42
586.10	264.48
586.26	248.10
586.42	348.74
586.58	322.99
586.74	262.14
586.90	264.48
587.06	365.12
587.22	301.93
587.38	210.65
587.54	217.67
587.70	264.48
587.86	231.71
588.02	266.82
588.18	220.01
588.34	273.84
588.49	217.67
588.65	212.99
588.81	227.03
588.97	271.50
589.13	152.13
589.29	294.91
589.45	285.55
589.61	269.16
589.77	271.50
589.93	231.71
590.08	201.29
590.24	229.37
590.40	184.90
590.56	248.10
590.72	245.76
590.88	264.48
591.04	269.16
591.20	241.08
591.35	311.29
591.51	149.79
591.67	269.16
591.83	301.93
591.99	189.58
592.15	252.78
592.31	287.89
592.46	266.82
592.62	315.97
592.78	248.10
592.94	271.50
593.10	243.42
593.26	292.57
593.41	313.63
593.57	283.20
593.73	229.37
593.89	304.27
594.05	243.42
594.20	241.08
594.36	252.78
594.52	250.44
594.68	175.54
594.84	287.89
594.99	266.82
595.15	231.71
595.31	210.65
595.47	217.67
595.62	238.73
595.78	236.39
595.94	243.42
596.10	332.36
596.25	294.91
596.41	287.89
596.57	241.08
596.73	259.80
596.88	245.76
597.04	318.31
597.20	170.86
597.36	212.99
597.51	234.05
597.67	278.52
597.83	241.08
597.99	255.12
598.14	161.50
598.30	227.03
598.46	238.73
598.61	294.91
598.77	294.91
598.93	215.33
599.09	255.12
599.24	173.20
599.40	264.48
599.56	266.82
599.71	266.82
599.87	229.37
600.03	266.82
600.18	234.05
600.34	273.84
600.50	241.08
600.65	217.67
600.81	283.20
600.97	220.01
601.12	248.10
601.28	208.31
601.44	346.40
601.59	278.52
601.75	222.35
601.91	243.42
602.06	220.01
602.22	280.86
602.37	198.95
602.53	276.18
602.69	266.82
602.84	163.84
603.00	248.10
603.16	280.86
603.31	306.61
603.47	229.37
603.62	145.11
603.78	252.78
603.94	234.05
604.09	243.42
604.25	227.03
604.40	252.78
604.56	243.42
604.71	311.29
604.87	238.73
605.03	156.82
605.18	227.03
605.34	257.46
605.49	215.33
605.65	278.52
605.80	170.86
605.96	220.01
606.12	234.05
606.27	320.65
606.43	205.97
606.58	273.84
606.74	365.12
606.89	250.44
607.05	215.33
607.20	201.29
607.36	198.95
607.51	294.91
607.67	252.78
607.82	285.55
607.98	297.25
608.13	243.42
608.29	245.76
608.44	322.99
608.60	236.39
608.75	276.18
608.91	234.05
609.06	301.93
609.22	276.18
609.37	285.55
609.53	332.36
609.68	259.80
609.84	294.91
609.99	273.84
610.15	360.44
610.30	367.46
610.46	454.06
610.61	573.43
610.76	641.31
610.92	720.88
611.07	692.80
611.23	739.61
611.38	753.65
611.54	606.20
611.69	538.32
611.84	421.30
612.00	397.89
612.15	421.30
612.31	372.15
612.46	365.12
612.62	393.21
612.77	386.19
612.92	374.49
613.08	327.68
613.23	355.76
613.39	397.89
613.54	381.51
613.69	315.97
613.85	379.17
614.00	299.59
614.15	297.25
614.31	367.46
614.46	320.65
614.62	299.59
614.77	339.38
614.92	332.36
615.08	290.23
615.23	283.20
615.38	337.04
615.54	348.74
615.69	299.59
615.84	276.18
616.00	220.01
616.15	320.65
616.30	292.57
616.46	248.10
616.61	259.80
616.76	248.10
616.92	210.65
617.07	255.12
617.22	287.89
617.37	222.35
617.53	308.95
617.68	238.73
617.83	203.63
617.99	346.40
618.14	245.76
618.29	212.99
618.45	217.67
618.60	170.86
618.75	255.12
618.90	191.92
619.06	278.52
619.21	292.57
619.36	278.52
619.51	227.03
619.67	266.82
619.82	250.44
619.97	243.42
620.12	243.42
620.28	266.82
620.43	264.48
620.58	229.37
620.73	224.69
620.89	266.82
621.04	311.29
621.19	264.48
621.34	175.54
621.49	220.01
621.65	177.88
621.80	250.44
621.95	299.59
622.10	308.95
622.25	152.13
622.41	205.97
622.56	241.08
622.71	184.90
622.86	243.42
623.01	220.01
623.16	227.03
623.32	205.97
623.47	224.69
623.62	269.16
623.77	294.91
623.92	278.52
624.07	241.08
624.23	205.97
624.38	189.58
624.53	229.37
624.68	315.97
624.83	236.39
624.98	208.31
625.13	191.92
625.29	262.14
625.44	184.90
625.59	229.37
625.74	168.52
625.89	330.02
626.04	217.67
626.19	229.37
626.34	332.36
626.49	229.37
626.65	170.86
626.80	222.35
626.95	217.67
627.10	201.29
627.25	250.44
627.40	208.31
627.55	238.73
627.70	220.01
627.85	271.50
628.00	271.50
628.15	168.52
628.30	264.48
628.45	243.42
628.60	166.18
628.76	159.16
628.91	187.24
629.06	198.95
629.21	220.01
629.36	269.16
629.51	170.86
629.66	259.80
629.81	238.73
629.96	220.01
630.11	245.76
630.26	285.55
630.41	264.48
630.56	330.02
630.71	294.91
630.86	297.25
631.01	212.99
631.16	198.95
631.31	236.39
631.46	248.10
631.61	166.18
631.76	245.76
631.91	250.44
632.06	238.73
632.21	163.84
632.36	227.03
632.51	175.54
632.66	241.08
632.81	234.05
632.96	264.48
633.10	271.50
633.25	271.50
633.40	168.52
633.55	273.84
633.70	145.11
633.85	217.67
634.00	168.52
634.15	229.37
634.30	215.33
634.45	257.46
634.60	238.73
634.75	161.50
634.90	124.05
635.05	121.71
635.19	163.84
635.34	222.35
635.49	234.05
635.64	154.48
635.79	142.77
635.94	297.25
636.09	285.55
636.24	292.57
636.39	243.42
636.53	299.59
636.68	145.11
636.83	173.20
636.98	175.54
637.13	184.90
637.28	231.71
637.43	285.55
637.57	212.99
637.72	297.25
637.87	301.93
638.02	140.43
638.17	212.99
638.32	170.86
638.46	191.92
638.61	229.37
638.76	152.13
638.91	159.16
639.06	250.44
639.20	229.37
639.35	224.69
639.50	257.46
639.65	222.35
639.80	243.42
639.94	161.50
640.09	175.54
640.24	259.80
640.39	194.26
640.54	210.65
640.68	184.90
640.83	217.67
640.98	159.16
641.13	208.31
641.27	184.90
641.42	217.67
641.57	224.69
641.72	187.24
641.86	243.42
642.01	184.90
642.16	248.10
642.31	217.67
642.45	229.37
642.60	227.03
642.75	166.18
642.90	182.56
643.04	191.92
643.19	238.73
643.34	201.29
643.48	170.86
643.63	184.90
643.78	170.86
643.93	257.46
644.07	208.31
644.22	208.31
644.37	187.24
644.51	241.08
644.66	149.79
644.81	241.08
644.95	184.90
645.10	234.05
645.25	182.56
645.39	257.46
645.54	273.84
645.69	278.52
645.83	184.90
645.98	271.50
646.13	154.48
646.27	187.24
646.42	203.63
646.57	140.43
646.71	205.97
646.86	175.54
647.00	259.80
647.15	198.95
647.30	161.50
647.44	110.01
647.59	220.01
647.74	203.63
647.88	210.65
648.03	189.58
648.17	187.24
648.32	163.84
648.47	194.26
648.61	243.42
648.76	140.43
648.90	159.16
649.05	243.42
649.20	229.37
649.34	124.05
649.49	159.16
649.63	203.63
649.78	194.26
649.92	177.88
650.07	304.27
650.21	203.63
650.36	224.69
650.51	168.52
650.65	262.14
650.80	201.29
650.94	215.33
651.09	217.67
651.23	229.37
651.38	131.07
651.52	126.39
651.67	154.48
651.81	191.92
651.96	231.71
652.10	243.42
652.25	191.92
652.39	182.56
652.54	248.10
652.68	255.12
652.83	217.67
652.97	154.48
653.12	156.82
653.26	177.88
653.41	196.60
653.55	182.56
653.70	166.18
653.84	250.44
653.99	194.26
654.13	262.14
654.27	231.71
654.42	166.18
654.56	187.24
654.71	187.24
654.85	269.16
655.00	121.71
655.14	229.37
655.29	191.92
655.43	231.71
655.57	205.97
655.72	184.90
655.86	168.52
656.01	203.63
656.15	180.22
656.30	205.97
656.44	140.43
656.58	203.63
656.73	203.63
656.87	187.24
657.01	201.29
657.16	180.22
657.30	194.26
657.45	203.63
657.59	140.43
657.73	166.18
657.88	236.39
658.02	278.52
658.16	147.45
658.31	234.05
658.45	203.63
658.60	156.82
658.74	142.77
658.88	198.95
659.03	147.45
659.17	198.95
659.31	133.41
659.46	168.52
659.60	184.90
659.74	196.60
659.89	187.24
660.03	180.22
660.17	315.97
660.32	250.44
660.46	236.39
660.60	161.50
660.74	224.69
660.89	184.90
661.03	156.82
661.17	152.13
661.32	243.42
661.46	128.73
661.60	189.58
661.74	180.22
661.89	264.48
662.03	229.37
662.17	187.24
662.31	166.18
662.46	203.63
662.60	241.08
662.74	212.99
662.88	217.67
663.03	163.84
663.17	198.95
663.31	222.35
663.45	166.18
663.60	224.69
663.74	245.76
663.88	170.86
664.02	198.95
664.17	161.50
664.31	201.29
664.45	243.42
664.59	212.99
664.73	222.35
664.88	175.54
665.02	243.42
665.16	205.97
665.30	215.33
665.44	177.88
665.59	166.18
665.73	238.73
665.87	243.42
666.01	88.94
666.15	198.95
666.29	86.60
666.44	208.31
666.58	194.26
666.72	131.07
666.86	184.90
667.00	208.31
667.14	210.65
667.28	184.90
667.43	189.58
667.57	259.80
667.71	269.16
667.85	198.95
667.99	159.16
668.13	194.26
668.27	252.78
668.41	198.95
668.56	121.71
668.70	224.69
668.84	154.48
668.98	156.82
669.12	161.50
669.26	152.13
669.40	215.33
669.54	124.05
669.68	217.67
669.82	189.58
669.96	154.48
670.10	133.41
670.25	203.63
670.39	245.76
670.53	175.54
670.67	135.75
670.81	177.88
670.95	245.76
671.09	227.03
671.23	177.88
671.37	266.82
671.51	163.84
671.65	170.86
671.79	198.95
671.93	217.67
672.07	332.36
672.21	180.22
672.35	227.03
672.49	222.35
672.63	168.52
672.77	205.97
672.91	147.45
673.05	203.63
673.19	215.33
673.33	140.43
673.47	229.37
673.61	203.63
673.75	166.18
673.89	163.84
674.03	189.58
674.17	168.52
674.31	170.86
674.45	161.50
674.59	210.65
674.73	152.13
674.87	140.43
675.01	234.05
675.15	224.69
675.29	241.08
675.43	259.80
675.56	210.65
675.70	208.31
675.84	187.24
675.98	194.26
676.12	182.56
676.26	180.22
676.40	114.69
676.54	241.08
676.68	252.78
676.82	234.05
676.96	205.97
677.10	234.05
677.23	170.86
677.37	147.45
677.51	210.65
677.65	220.01
677.79	170.86
677.93	187.24
678.07	182.56
678.21	98.30
678.34	84.26
678.48	208.31
678.62	180.22
678.76	163.84
678.90	196.60
679.04	187.24
679.18	187.24
679.31	124.05
679.45	159.16
679.59	194.26
679.73	191.92
679.87	182.56
680.00	252.78
680.14	180.22
680.28	147.45
680.42	180.22
680.56	201.29
680.70	112.35
680.83	154.48
680.97	142.77
681.11	222.35
681.25	212.99
681.39	180.22
681.52	208.31
681.66	196.60
681.80	184.90
681.94	177.88
682.07	154.48
682.21	187.24
682.35	128.73
682.49	93.62
682.62	208.31
682.76	154.48
682.90	184.90
683.04	229.37
683.17	189.58
683.31	173.20
683.45	187.24
683.59	217.67
683.72	255.12
683.86	210.65
684.00	166.18
684.13	196.60
684.27	222.35
684.41	238.73
684.55	227.03
684.68	187.24
684.82	234.05
684.96	163.84
685.09	145.11
685.23	194.26
685.37	114.69
685.50	243.42
685.64	152.13
685.78	205.97
685.91	187.24
686.05	168.52
686.19	170.86
686.32	175.54
686.46	203.63
686.60	138.09
686.73	154.48
686.87	102.98
687.01	145.11
687.14	105.32
687.28	159.16
687.42	159.16
687.55	175.54
687.69	119.37
687.82	100.64
687.96	105.32
688.10	175.54
688.23	166.18
688.37	205.97
688.50	210.65
688.64	177.88
688.78	168.52
688.91	208.31
689.05	114.69
689.18	156.82
689.32	170.86
689.46	117.03
689.59	161.50
689.73	198.95
689.86	154.48
690.00	294.91
690.13	180.22
690.27	114.69
690.41	238.73
690.54	196.60
690.68	152.13
690.81	140.43
690.95	168.52
691.08	161.50
691.22	138.09
691.35	161.50
691.49	86.60
691.62	156.82
691.76	161.50
691.89	170.86
692.03	163.84
692.16	105.32
692.30	229.37
692.43	145.11
692.57	180.22
692.70	163.84
692.84	184.90
692.97	189.58
693.11	177.88
693.24	163.84
693.38	173.20
693.51	131.07
693.65	163.84
693.78	77.24
693.92	152.13
694.05	121.71
694.19	217.67
694.32	168.52
694.45	194.26
694.59	138.09
694.72	131.07
694.86	208.31
694.99	88.94
695.13	182.56
695.26	212.99
695.39	124.05
695.53	196.60
695.66	135.75
695.80	102.98
695.93	121.71
696.07	100.64
696.20	177.88
696.33	175.54
696.47	102.98
696.60	159.16
696.73	152.13
696.87	152.13
697.00	145.11
697.14	189.58
697.27	126.39
697.40	198.95
697.54	173.20
697.67	203.63
697.80	184.90
697.94	159.16
698.07	168.52
698.21	135.75
698.34	166.18
698.47	170.86
698.61	194.26
698.74	88.94
698.87	238.73
699.01	177.88
699.14	180.22
699.27	145.11
699.40	262.14
699.54	142.77
699.67	91.28
699.80	112.35
699.94	112.35
700.07	124.05
700.20	166.18
700.34	102.98
700.47	154.48
700.60	79.58
700.73	147.45
700.87	203.63
701.00	110.01
701.13	180.22
701.26	180.22
701.40	205.97
701.53	79.58
701.66	142.77
701.79	131.07
701.93	149.79
702.06	220.01
702.19	184.90
702.32	194.26
702.46	114.69
702.59	145.11
702.72	177.88
702.85	149.79
702.99	60.85
703.12	194.26
703.25	135.75
703.38	135.75
703.51	194.26
703.65	84.26
703.78	187.24
703.91	149.79
704.04	173.20
704.17	182.56
704.31	138.09
704.44	133.41
704.57	191.92
704.70	138.09
704.83	126.39
704.96	81.92
705.10	154.48
705.23	177.88
>>>>>End Processed Spectral Data<<<<<
