SpectraSuite Data File
++++++++++++++++++++++++++++++++++++
Date: Tue Oct 01 18:25:10 GMT-05:00 2013
User: stostad
Dark Spectrum Present: No
Reference Spectrum Present: No
Number of Sampled Component Spectra: 1
Spectrometers: USB2+H05261
Integration Time (usec): 100000 (USB2+H05261)
Spectra Averaged: 1 (USB2+H05261)
Boxcar Smoothing: 0 (USB2+H05261)
Correct for Electrical Dark: No (USB2+H05261)
Strobe/Lamp Enabled: No (USB2+H05261)
Correct for Detector Non-linearity: No (USB2+H05261)
Correct for Stray Light: No (USB2+H05261)
Number of Pixels in Processed Spectrum: 2048
>>>>>Begin Processed Spectral Data<<<<<
365.73	35.11
365.92	35.11
366.12	35.11
366.32	0.00
366.52	18.72
366.72	0.00
366.91	0.00
367.11	0.00
367.31	0.00
367.51	0.00
367.70	0.00
367.90	0.00
368.10	14.04
368.30	23.41
368.49	0.00
368.69	56.17
368.89	0.00
369.09	0.00
369.28	0.00
369.48	0.00
369.68	14.04
369.87	14.04
370.07	70.22
370.27	21.06
370.47	56.17
370.66	72.56
370.86	79.58
371.06	114.69
371.25	182.56
371.45	14.04
371.65	170.86
371.84	21.06
372.04	126.39
372.24	126.39
372.44	74.90
372.63	37.45
372.83	93.62
373.03	67.88
373.22	79.58
373.42	70.22
373.62	159.16
373.81	182.56
374.01	147.45
374.21	194.26
374.40	102.98
374.60	128.73
374.79	121.71
374.99	126.39
375.19	131.07
375.38	138.09
375.58	238.73
375.78	182.56
375.97	107.66
376.17	205.97
376.37	93.62
376.56	156.82
376.76	77.24
376.95	84.26
377.15	154.48
377.35	128.73
377.54	217.67
377.74	189.58
377.93	138.09
378.13	189.58
378.33	163.84
378.52	119.37
378.72	138.09
378.91	149.79
379.11	168.52
379.31	131.07
379.50	100.64
379.70	149.79
379.89	142.77
380.09	131.07
380.28	79.58
380.48	140.43
380.68	154.48
380.87	91.28
381.07	84.26
381.26	91.28
381.46	107.66
381.65	184.90
381.85	140.43
382.04	166.18
382.24	88.94
382.43	145.11
382.63	51.49
382.83	81.92
383.02	142.77
383.22	138.09
383.41	86.60
383.61	180.22
383.80	91.28
384.00	189.58
384.19	28.09
384.39	93.62
384.58	128.73
384.78	79.58
384.97	100.64
385.17	133.41
385.36	44.47
385.56	170.86
385.75	114.69
385.95	124.05
386.14	168.52
386.34	133.41
386.53	128.73
386.72	126.39
386.92	156.82
387.11	156.82
387.31	159.16
387.50	112.35
387.70	114.69
387.89	93.62
388.09	170.86
388.28	112.35
388.48	114.69
388.67	175.54
388.86	138.09
389.06	98.30
389.25	220.01
389.45	81.92
389.64	98.30
389.84	149.79
390.03	215.33
390.22	72.56
390.42	105.32
390.61	126.39
390.81	117.03
391.00	124.05
391.19	168.52
391.39	161.50
391.58	135.75
391.78	145.11
391.97	191.92
392.16	88.94
392.36	227.03
392.55	215.33
392.75	133.41
392.94	124.05
393.13	131.07
393.33	95.96
393.52	117.03
393.71	175.54
393.91	180.22
394.10	159.16
394.29	138.09
394.49	149.79
394.68	264.48
394.88	124.05
395.07	147.45
395.26	142.77
395.46	128.73
395.65	124.05
395.84	227.03
396.04	177.88
396.23	105.32
396.42	117.03
396.62	163.84
396.81	168.52
397.00	147.45
397.19	159.16
397.39	79.58
397.58	149.79
397.77	93.62
397.97	173.20
398.16	168.52
398.35	133.41
398.55	65.54
398.74	205.97
398.93	138.09
399.12	170.86
399.32	142.77
399.51	170.86
399.70	189.58
399.90	163.84
400.09	102.98
400.28	128.73
400.47	138.09
400.67	117.03
400.86	135.75
401.05	154.48
401.24	203.63
401.44	159.16
401.63	161.50
401.82	154.48
402.01	142.77
402.21	98.30
402.40	142.77
402.59	107.66
402.78	180.22
402.97	100.64
403.17	102.98
403.36	114.69
403.55	114.69
403.74	156.82
403.93	175.54
404.13	205.97
404.32	154.48
404.51	65.54
404.70	170.86
404.89	180.22
405.09	105.32
405.28	32.77
405.47	79.58
405.66	21.06
405.85	112.35
406.05	124.05
406.24	107.66
406.43	187.24
406.62	140.43
406.81	184.90
407.00	102.98
407.20	119.37
407.39	126.39
407.58	149.79
407.77	138.09
407.96	182.56
408.15	67.88
408.34	112.35
408.54	95.96
408.73	51.49
408.92	107.66
409.11	140.43
409.30	147.45
409.49	128.73
409.68	135.75
409.87	126.39
410.07	117.03
410.26	117.03
410.45	95.96
410.64	152.13
410.83	208.31
411.02	170.86
411.21	128.73
411.40	159.16
411.59	51.49
411.78	84.26
411.98	168.52
412.17	133.41
412.36	84.26
412.55	133.41
412.74	46.81
412.93	161.50
413.12	131.07
413.31	212.99
413.50	145.11
413.69	124.05
413.88	152.13
414.07	135.75
414.26	138.09
414.45	156.82
414.64	191.92
414.83	175.54
415.02	147.45
415.22	152.13
415.41	205.97
415.60	138.09
415.79	105.32
415.98	159.16
416.17	149.79
416.36	117.03
416.55	88.94
416.74	133.41
416.93	205.97
417.12	173.20
417.31	131.07
417.50	145.11
417.69	187.24
417.88	243.42
418.07	189.58
418.26	131.07
418.45	180.22
418.64	229.37
418.83	227.03
419.02	98.30
419.21	224.69
419.39	81.92
419.58	194.26
419.77	114.69
419.96	161.50
420.15	161.50
420.34	203.63
420.53	168.52
420.72	100.64
420.91	194.26
421.10	140.43
421.29	147.45
421.48	142.77
421.67	81.92
421.86	128.73
422.05	91.28
422.24	93.62
422.43	154.48
422.61	117.03
422.80	98.30
422.99	184.90
423.18	138.09
423.37	166.18
423.56	133.41
423.75	161.50
423.94	98.30
424.13	152.13
424.32	117.03
424.50	114.69
424.69	170.86
424.88	154.48
425.07	170.86
425.26	203.63
425.45	149.79
425.64	161.50
425.83	175.54
426.01	133.41
426.20	156.82
426.39	133.41
426.58	140.43
426.77	161.50
426.96	217.67
427.15	145.11
427.33	112.35
427.52	152.13
427.71	145.11
427.90	105.32
428.09	170.86
428.28	93.62
428.46	56.17
428.65	238.73
428.84	119.37
429.03	131.07
429.22	198.95
429.40	131.07
429.59	161.50
429.78	140.43
429.97	149.79
430.16	175.54
430.34	184.90
430.53	124.05
430.72	84.26
430.91	135.75
431.10	147.45
431.28	135.75
431.47	170.86
431.66	149.79
431.85	88.94
432.03	37.45
432.22	93.62
432.41	161.50
432.60	131.07
432.79	168.52
432.97	210.65
433.16	234.05
433.35	241.08
433.54	128.73
433.72	152.13
433.91	177.88
434.10	152.13
434.28	159.16
434.47	117.03
434.66	126.39
434.85	128.73
435.03	65.54
435.22	86.60
435.41	196.60
435.59	175.54
435.78	79.58
435.97	102.98
436.16	70.22
436.34	168.52
436.53	142.77
436.72	212.99
436.90	180.22
437.09	201.29
437.28	203.63
437.46	133.41
437.65	243.42
437.84	177.88
438.02	114.69
438.21	117.03
438.40	161.50
438.58	177.88
438.77	163.84
438.96	161.50
439.14	156.82
439.33	121.71
439.52	128.73
439.70	173.20
439.89	117.03
440.08	154.48
440.26	124.05
440.45	156.82
440.63	163.84
440.82	170.86
441.01	152.13
441.19	117.03
441.38	65.54
441.57	180.22
441.75	67.88
441.94	166.18
442.12	135.75
442.31	65.54
442.50	135.75
442.68	184.90
442.87	154.48
443.05	168.52
443.24	175.54
443.43	77.24
443.61	194.26
443.80	142.77
443.98	102.98
444.17	102.98
444.35	95.96
444.54	128.73
444.73	58.51
444.91	189.58
445.10	138.09
445.28	133.41
445.47	191.92
445.65	152.13
445.84	128.73
446.02	93.62
446.21	154.48
446.39	121.71
446.58	114.69
446.77	79.58
446.95	117.03
447.14	149.79
447.32	189.58
447.51	152.13
447.69	159.16
447.88	170.86
448.06	135.75
448.25	93.62
448.43	70.22
448.62	107.66
448.80	161.50
448.99	131.07
449.17	161.50
449.36	81.92
449.54	152.13
449.73	56.17
449.91	191.92
450.10	81.92
450.28	182.56
450.46	194.26
450.65	149.79
450.83	107.66
451.02	152.13
451.20	121.71
451.39	95.96
451.57	107.66
451.76	114.69
451.94	177.88
452.13	131.07
452.31	156.82
452.49	131.07
452.68	128.73
452.86	184.90
453.05	168.52
453.23	191.92
453.42	112.35
453.60	175.54
453.78	124.05
453.97	119.37
454.15	149.79
454.34	100.64
454.52	163.84
454.70	131.07
454.89	100.64
455.07	149.79
455.26	124.05
455.44	154.48
455.62	163.84
455.81	133.41
455.99	149.79
456.17	201.29
456.36	46.81
456.54	149.79
456.73	154.48
456.91	65.54
457.09	135.75
457.28	114.69
457.46	95.96
457.64	156.82
457.83	74.90
458.01	163.84
458.19	173.20
458.38	142.77
458.56	114.69
458.74	140.43
458.93	114.69
459.11	154.48
459.29	77.24
459.48	145.11
459.66	173.20
459.84	156.82
460.03	175.54
460.21	140.43
460.39	184.90
460.57	163.84
460.76	126.39
460.94	170.86
461.12	149.79
461.31	189.58
461.49	110.01
461.67	117.03
461.85	107.66
462.04	166.18
462.22	589.82
462.40	152.13
462.59	198.95
462.77	145.11
462.95	131.07
463.13	112.35
463.32	79.58
463.50	205.97
463.68	149.79
463.86	124.05
464.05	180.22
464.23	135.75
464.41	191.92
464.59	154.48
464.78	154.48
464.96	102.98
465.14	145.11
465.32	152.13
465.50	152.13
465.69	180.22
465.87	65.54
466.05	126.39
466.23	140.43
466.41	191.92
466.60	149.79
466.78	196.60
466.96	112.35
467.14	56.17
467.32	161.50
467.51	86.60
467.69	205.97
467.87	222.35
468.05	201.29
468.23	182.56
468.41	112.35
468.60	215.33
468.78	191.92
468.96	198.95
469.14	93.62
469.32	166.18
469.50	100.64
469.69	117.03
469.87	51.49
470.05	175.54
470.23	131.07
470.41	86.60
470.59	154.48
470.77	147.45
470.95	135.75
471.14	138.09
471.32	128.73
471.50	177.88
471.68	105.32
471.86	95.96
472.04	60.85
472.22	84.26
472.40	81.92
472.58	21.06
472.77	98.30
472.95	91.28
473.13	187.24
473.31	191.92
473.49	128.73
473.67	133.41
473.85	58.51
474.03	168.52
474.21	135.75
474.39	210.65
474.57	128.73
474.75	49.15
474.93	135.75
475.12	102.98
475.30	107.66
475.48	95.96
475.66	105.32
475.84	121.71
476.02	49.15
476.20	173.20
476.38	138.09
476.56	194.26
476.74	88.94
476.92	142.77
477.10	180.22
477.28	131.07
477.46	121.71
477.64	135.75
477.82	180.22
478.00	163.84
478.18	152.13
478.36	119.37
478.54	128.73
478.72	177.88
478.90	140.43
479.08	135.75
479.26	105.32
479.44	95.96
479.62	124.05
479.80	114.69
479.98	145.11
480.16	126.39
480.34	81.92
480.52	154.48
480.70	100.64
480.88	119.37
481.06	142.77
481.24	112.35
481.41	135.75
481.59	121.71
481.77	163.84
481.95	117.03
482.13	227.03
482.31	110.01
482.49	224.69
482.67	135.75
482.85	133.41
483.03	163.84
483.21	58.51
483.39	133.41
483.57	119.37
483.74	147.45
483.92	102.98
484.10	77.24
484.28	177.88
484.46	126.39
484.64	131.07
484.82	112.35
485.00	159.16
485.18	149.79
485.35	168.52
485.53	161.50
485.71	189.58
485.89	142.77
486.07	95.96
486.25	194.26
486.43	93.62
486.61	112.35
486.78	79.58
486.96	135.75
487.14	121.71
487.32	234.05
487.50	110.01
487.68	175.54
487.85	161.50
488.03	135.75
488.21	133.41
488.39	133.41
488.57	163.84
488.75	119.37
488.92	238.73
489.10	124.05
489.28	159.16
489.46	152.13
489.64	79.58
489.81	166.18
489.99	161.50
490.17	145.11
490.35	250.44
490.53	124.05
490.70	98.30
490.88	138.09
491.06	163.84
491.24	168.52
491.41	161.50
491.59	117.03
491.77	112.35
491.95	93.62
492.13	124.05
492.30	107.66
492.48	168.52
492.66	156.82
492.84	138.09
493.01	119.37
493.19	140.43
493.37	149.79
493.54	177.88
493.72	93.62
493.90	124.05
494.08	152.13
494.25	156.82
494.43	138.09
494.61	126.39
494.79	88.94
494.96	100.64
495.14	37.45
495.32	135.75
495.49	147.45
495.67	124.05
495.85	149.79
496.02	98.30
496.20	140.43
496.38	177.88
496.55	124.05
496.73	194.26
496.91	133.41
497.09	152.13
497.26	79.58
497.44	147.45
497.62	147.45
497.79	81.92
497.97	236.39
498.14	152.13
498.32	170.86
498.50	135.75
498.67	140.43
498.85	126.39
499.03	156.82
499.20	88.94
499.38	95.96
499.56	126.39
499.73	166.18
499.91	147.45
500.08	196.60
500.26	117.03
500.44	51.49
500.61	173.20
500.79	56.17
500.97	98.30
501.14	180.22
501.32	135.75
501.49	152.13
501.67	152.13
501.84	77.24
502.02	65.54
502.20	205.97
502.37	147.45
502.55	102.98
502.72	149.79
502.90	194.26
503.07	131.07
503.25	163.84
503.43	124.05
503.60	105.32
503.78	184.90
503.95	131.07
504.13	154.48
504.30	163.84
504.48	147.45
504.65	220.01
504.83	187.24
505.01	154.48
505.18	163.84
505.36	112.35
505.53	79.58
505.71	100.64
505.88	238.73
506.06	149.79
506.23	215.33
506.41	86.60
506.58	147.45
506.76	138.09
506.93	163.84
507.11	112.35
507.28	114.69
507.46	173.20
507.63	224.69
507.81	84.26
507.98	128.73
508.16	224.69
508.33	128.73
508.50	88.94
508.68	105.32
508.85	163.84
509.03	102.98
509.20	72.56
509.38	184.90
509.55	159.16
509.73	168.52
509.90	114.69
510.08	133.41
510.25	224.69
510.42	91.28
510.60	72.56
510.77	114.69
510.95	119.37
511.12	182.56
511.30	238.73
511.47	170.86
511.64	189.58
511.82	126.39
511.99	77.24
512.17	154.48
512.34	72.56
512.51	159.16
512.69	154.48
512.86	117.03
513.04	126.39
513.21	131.07
513.38	105.32
513.56	98.30
513.73	117.03
513.90	133.41
514.08	159.16
514.25	126.39
514.43	170.86
514.60	126.39
514.77	163.84
514.95	161.50
515.12	215.33
515.29	166.18
515.47	152.13
515.64	145.11
515.81	142.77
515.99	194.26
516.16	110.01
516.33	175.54
516.51	46.81
516.68	112.35
516.85	126.39
517.03	182.56
517.20	114.69
517.37	79.58
517.54	91.28
517.72	58.51
517.89	81.92
518.06	70.22
518.24	177.88
518.41	205.97
518.58	168.52
518.75	161.50
518.93	95.96
519.10	170.86
519.27	126.39
519.45	95.96
519.62	95.96
519.79	128.73
519.96	159.16
520.14	128.73
520.31	191.92
520.48	170.86
520.65	93.62
520.83	110.01
521.00	114.69
521.17	156.82
521.34	175.54
521.52	161.50
521.69	79.58
521.86	128.73
522.03	58.51
522.20	133.41
522.38	117.03
522.55	117.03
522.72	46.81
522.89	191.92
523.07	243.42
523.24	163.84
523.41	191.92
523.58	121.71
523.75	98.30
523.92	98.30
524.10	93.62
524.27	70.22
524.44	102.98
524.61	161.50
524.78	154.48
524.96	208.31
525.13	177.88
525.30	163.84
525.47	191.92
525.64	81.92
525.81	105.32
525.98	147.45
526.16	159.16
526.33	112.35
526.50	126.39
526.67	142.77
526.84	189.58
527.01	138.09
527.18	135.75
527.36	175.54
527.53	49.15
527.70	191.92
527.87	203.63
528.04	114.69
528.21	126.39
528.38	182.56
528.55	168.52
528.72	201.29
528.89	201.29
529.07	53.83
529.24	154.48
529.41	149.79
529.58	224.69
529.75	110.01
529.92	156.82
530.09	114.69
530.26	152.13
530.43	114.69
530.60	168.52
530.77	102.98
530.94	88.94
531.11	133.41
531.28	135.75
531.46	194.26
531.63	147.45
531.80	166.18
531.97	184.90
532.14	154.48
532.31	234.05
532.48	236.39
532.65	227.03
532.82	248.10
532.99	194.26
533.16	145.11
533.33	217.67
533.50	140.43
533.67	173.20
533.84	283.20
534.01	236.39
534.18	154.48
534.35	177.88
534.52	187.24
534.69	168.52
534.86	65.54
535.03	196.60
535.20	140.43
535.37	131.07
535.54	105.32
535.71	102.98
535.88	187.24
536.05	156.82
536.22	135.75
536.38	117.03
536.55	138.09
536.72	222.35
536.89	156.82
537.06	170.86
537.23	79.58
537.40	182.56
537.57	138.09
537.74	147.45
537.91	166.18
538.08	70.22
538.25	138.09
538.42	114.69
538.59	128.73
538.75	126.39
538.92	159.16
539.09	168.52
539.26	135.75
539.43	313.63
539.60	681.10
539.77	1008.77
539.94	800.46
540.11	440.02
540.28	301.93
540.44	147.45
540.61	191.92
540.78	117.03
540.95	203.63
541.12	257.46
541.29	161.50
541.46	201.29
541.62	196.60
541.79	163.84
541.96	170.86
542.13	166.18
542.30	98.30
542.47	126.39
542.63	135.75
542.80	117.03
542.97	175.54
543.14	196.60
543.31	84.26
543.48	121.71
543.64	149.79
543.81	79.58
543.98	84.26
544.15	138.09
544.32	114.69
544.48	177.88
544.65	70.22
544.82	147.45
544.99	110.01
545.16	154.48
545.32	140.43
545.49	63.19
545.66	117.03
545.83	234.05
546.00	208.31
546.16	121.71
546.33	133.41
546.50	102.98
546.67	217.67
546.83	175.54
547.00	191.92
547.17	152.13
547.34	135.75
547.50	198.95
547.67	191.92
547.84	79.58
548.00	110.01
548.17	126.39
548.34	102.98
548.51	210.65
548.67	126.39
548.84	173.20
549.01	159.16
549.18	91.28
549.34	229.37
549.51	189.58
549.68	166.18
549.84	177.88
550.01	177.88
550.18	215.33
550.34	184.90
550.51	184.90
550.68	117.03
550.84	222.35
551.01	128.73
551.18	173.20
551.34	91.28
551.51	198.95
551.68	177.88
551.84	208.31
552.01	119.37
552.18	149.79
552.34	161.50
552.51	138.09
552.68	124.05
552.84	126.39
553.01	154.48
553.18	131.07
553.34	166.18
553.51	95.96
553.67	147.45
553.84	194.26
554.01	224.69
554.17	170.86
554.34	177.88
554.51	168.52
554.67	156.82
554.84	177.88
555.00	133.41
555.17	110.01
555.33	173.20
555.50	189.58
555.67	152.13
555.83	102.98
556.00	135.75
556.16	325.33
556.33	175.54
556.50	124.05
556.66	126.39
556.83	117.03
556.99	114.69
557.16	102.98
557.32	152.13
557.49	198.95
557.65	67.88
557.82	138.09
557.98	126.39
558.15	142.77
558.32	131.07
558.48	161.50
558.65	88.94
558.81	121.71
558.98	187.24
559.14	201.29
559.31	124.05
559.47	128.73
559.64	107.66
559.80	180.22
559.97	177.88
560.13	126.39
560.30	112.35
560.46	145.11
560.63	114.69
560.79	124.05
560.96	177.88
561.12	114.69
561.29	163.84
561.45	168.52
561.61	135.75
561.78	243.42
561.94	159.16
562.11	133.41
562.27	114.69
562.44	126.39
562.60	180.22
562.77	135.75
562.93	217.67
563.10	168.52
563.26	126.39
563.42	173.20
563.59	152.13
563.75	166.18
563.92	154.48
564.08	173.20
564.24	201.29
564.41	163.84
564.57	58.51
564.74	133.41
564.90	189.58
565.07	177.88
565.23	187.24
565.39	187.24
565.56	170.86
565.72	187.24
565.88	102.98
566.05	142.77
566.21	119.37
566.38	91.28
566.54	175.54
566.70	138.09
566.87	114.69
567.03	98.30
567.19	74.90
567.36	138.09
567.52	133.41
567.68	180.22
567.85	217.67
568.01	112.35
568.17	163.84
568.34	126.39
568.50	159.16
568.66	149.79
568.83	224.69
568.99	86.60
569.15	152.13
569.32	135.75
569.48	124.05
569.64	93.62
569.81	93.62
569.97	126.39
570.13	168.52
570.30	135.75
570.46	114.69
570.62	126.39
570.78	91.28
570.95	135.75
571.11	248.10
571.27	231.71
571.43	119.37
571.60	100.64
571.76	180.22
571.92	110.01
572.09	86.60
572.25	161.50
572.41	42.13
572.57	138.09
572.74	238.73
572.90	187.24
573.06	163.84
573.22	173.20
573.38	217.67
573.55	276.18
573.71	168.52
573.87	156.82
574.03	117.03
574.20	121.71
574.36	149.79
574.52	220.01
574.68	208.31
574.84	184.90
575.01	154.48
575.17	236.39
575.33	163.84
575.49	201.29
575.65	187.24
575.82	301.93
575.98	341.72
576.14	489.17
576.30	374.49
576.46	287.89
576.62	154.48
576.79	203.63
576.95	208.31
577.11	152.13
577.27	152.13
577.43	191.92
577.59	220.01
577.75	210.65
577.92	208.31
578.08	140.43
578.24	175.54
578.40	159.16
578.56	217.67
578.72	187.24
578.88	182.56
579.04	191.92
579.21	142.77
579.37	152.13
579.53	147.45
579.69	163.84
579.85	203.63
580.01	201.29
580.17	198.95
580.33	205.97
580.49	198.95
580.65	189.58
580.82	163.84
580.98	276.18
581.14	205.97
581.30	259.80
581.46	250.44
581.62	365.12
581.78	365.12
581.94	290.23
582.10	266.82
582.26	189.58
582.42	191.92
582.58	252.78
582.74	220.01
582.90	222.35
583.06	255.12
583.22	257.46
583.38	229.37
583.54	308.95
583.70	383.85
583.86	386.19
584.02	440.02
584.18	641.31
584.34	1181.97
584.50	7857.18
584.66	27058.93
584.82	46726.46
584.98	48334.40
585.14	30408.24
585.30	15995.22
585.46	7763.56
585.62	3124.62
585.78	1338.79
585.94	816.85
586.10	589.82
586.26	440.02
586.42	383.85
586.58	294.91
586.74	374.49
586.90	332.36
587.06	285.55
587.22	313.63
587.38	479.81
587.54	1418.36
587.70	2925.67
587.86	3784.65
588.02	2871.84
588.18	1708.59
588.34	973.66
588.49	512.58
588.65	411.93
588.81	248.10
588.97	248.10
589.13	227.03
589.29	234.05
589.45	224.69
589.61	234.05
589.77	325.33
589.93	301.93
590.08	264.48
590.24	250.44
590.40	285.55
590.56	273.84
590.72	203.63
590.88	313.63
591.04	212.99
591.20	231.71
591.35	292.57
591.51	234.05
591.67	184.90
591.83	208.31
591.99	180.22
592.15	201.29
592.31	231.71
592.46	117.03
592.62	203.63
592.78	140.43
592.94	124.05
593.10	173.20
593.26	224.69
593.41	255.12
593.57	346.40
593.73	1207.72
593.89	3653.58
594.05	5736.65
594.20	6005.81
594.36	4224.67
594.52	2377.98
594.68	1310.70
594.84	720.88
594.99	393.21
595.15	220.01
595.31	194.26
595.47	212.99
595.62	184.90
595.78	215.33
595.94	196.60
596.10	262.14
596.25	238.73
596.41	191.92
596.57	182.56
596.73	262.14
596.88	669.39
597.04	1294.32
597.20	1528.37
597.36	1289.64
597.51	842.59
597.67	468.11
597.83	330.02
597.99	306.61
598.14	224.69
598.30	173.20
598.46	184.90
598.61	163.84
598.77	187.24
598.93	156.82
599.09	133.41
599.24	205.97
599.40	187.24
599.56	121.71
599.71	238.73
599.87	154.48
600.03	168.52
600.18	124.05
600.34	220.01
600.50	147.45
600.65	201.29
600.81	117.03
600.97	145.11
601.12	149.79
601.28	203.63
601.44	163.84
601.59	156.82
601.75	205.97
601.91	166.18
602.06	168.52
602.22	507.90
602.37	959.62
602.53	1488.58
602.69	1547.09
602.84	1156.22
603.00	763.01
603.16	486.83
603.31	318.31
603.47	208.31
603.62	135.75
603.78	187.24
603.94	215.33
604.09	180.22
604.25	88.94
604.40	175.54
604.56	140.43
604.71	154.48
604.87	147.45
605.03	175.54
605.18	152.13
605.34	168.52
605.49	154.48
605.65	145.11
605.80	184.90
605.96	191.92
606.12	205.97
606.27	163.84
606.43	203.63
606.58	545.34
606.74	1839.66
606.89	3794.01
607.05	4938.53
607.20	4351.06
607.36	2890.56
607.51	1722.63
607.67	1029.84
607.82	596.84
607.98	355.76
608.13	191.92
608.29	231.71
608.44	301.93
608.60	264.48
608.75	821.53
608.91	3096.53
609.06	6347.53
609.22	8678.71
609.37	7192.47
609.53	4833.21
609.68	3038.02
609.84	1760.08
609.99	964.30
610.15	510.24
610.30	327.68
610.46	313.63
610.61	250.44
610.76	161.50
610.92	159.16
611.07	161.50
611.23	341.72
611.38	194.26
611.54	241.08
611.69	271.50
611.84	229.37
612.00	128.73
612.15	294.91
612.31	318.31
612.46	374.49
612.62	418.96
612.77	292.57
612.92	301.93
613.08	304.27
613.23	344.06
613.39	601.52
613.54	3087.17
613.69	8126.34
613.85	12994.65
614.00	12912.74
614.15	9511.94
614.31	5926.24
614.46	3805.71
614.62	1893.49
614.77	1013.45
614.92	486.83
615.08	315.97
615.23	348.74
615.38	367.46
615.54	631.94
615.69	1750.72
615.84	3061.42
616.00	3510.80
616.15	2885.88
616.30	1944.99
616.46	1373.89
616.61	772.38
616.76	435.34
616.92	248.10
617.07	159.16
617.22	220.01
617.37	184.90
617.53	168.52
617.68	245.76
617.83	105.32
617.99	264.48
618.14	198.95
618.29	283.20
618.45	198.95
618.60	170.86
618.75	173.20
618.90	184.90
619.06	142.77
619.21	173.20
619.36	102.98
619.51	196.60
619.67	147.45
619.82	173.20
619.97	77.24
620.12	173.20
620.28	222.35
620.43	154.48
620.58	245.76
620.73	187.24
620.89	433.00
621.04	880.04
621.19	1724.97
621.34	2024.56
621.49	1774.13
621.65	1299.00
621.80	903.45
621.95	442.36
622.10	433.00
622.25	294.91
622.41	182.56
622.56	245.76
622.71	196.60
622.86	170.86
623.01	145.11
623.16	182.56
623.32	128.73
623.47	107.66
623.62	119.37
623.77	119.37
623.92	229.37
624.07	173.20
624.23	203.63
624.38	102.98
624.53	105.32
624.68	231.71
624.83	215.33
624.98	180.22
625.13	269.16
625.29	170.86
625.44	217.67
625.59	198.95
625.74	393.21
625.89	1858.39
626.04	4344.03
626.19	6771.17
626.34	6773.51
626.49	4997.04
626.65	3325.90
626.80	2275.00
626.95	1245.16
627.10	617.90
627.25	376.83
627.40	285.55
627.55	229.37
627.70	163.84
627.85	170.86
628.00	156.82
628.15	152.13
628.30	184.90
628.45	201.29
628.60	152.13
628.76	217.67
628.91	194.26
629.06	93.62
629.21	198.95
629.36	196.60
629.51	154.48
629.66	346.40
629.81	922.17
629.96	1535.39
630.11	1853.70
630.26	1420.71
630.41	1086.01
630.56	725.57
630.71	582.79
630.86	381.51
631.01	231.71
631.16	285.55
631.31	241.08
631.46	187.24
631.61	201.29
631.76	210.65
631.91	152.13
632.06	168.52
632.21	262.14
632.36	236.39
632.51	355.76
632.66	976.00
632.81	2373.30
632.96	3941.46
633.10	4533.62
633.25	3609.11
633.40	2445.86
633.55	1680.50
633.70	1046.22
633.85	622.58
634.00	339.38
634.15	276.18
634.30	215.33
634.45	220.01
634.60	138.09
634.75	159.16
634.90	159.16
635.05	147.45
635.19	168.52
635.34	184.90
635.49	210.65
635.64	222.35
635.79	119.37
635.94	205.97
636.09	208.31
636.24	152.13
636.39	217.67
636.53	224.69
636.68	159.16
636.83	205.97
636.98	266.82
637.13	131.07
637.28	243.42
637.43	737.27
637.57	2466.92
637.72	5603.24
637.87	8145.06
638.02	8175.49
638.17	5905.17
638.32	4114.66
638.46	2663.53
638.61	1551.78
638.76	805.14
638.91	484.49
639.06	327.68
639.20	362.78
639.35	954.94
639.50	3847.84
639.65	8425.93
639.80	12601.44
639.94	12304.20
640.09	8933.82
640.24	6146.25
640.39	3817.41
640.54	2150.95
640.68	1207.72
640.83	617.90
640.98	369.80
641.13	367.46
641.27	294.91
641.42	196.60
641.57	215.33
641.72	119.37
641.86	201.29
642.01	168.52
642.16	184.90
642.31	152.13
642.45	212.99
642.60	266.82
642.75	175.54
642.90	203.63
643.04	128.73
643.19	135.75
643.34	149.79
643.48	58.51
643.63	205.97
643.78	191.92
643.93	168.52
644.07	95.96
644.22	133.41
644.37	100.64
644.51	248.10
644.66	86.60
644.81	100.64
644.95	276.18
645.10	121.71
645.25	119.37
645.39	236.39
645.54	124.05
645.69	229.37
645.83	231.71
645.98	222.35
646.13	128.73
646.27	147.45
646.42	128.73
646.57	180.22
646.71	95.96
646.86	196.60
647.00	196.60
647.15	182.56
647.30	135.75
647.44	119.37
647.59	74.90
647.74	138.09
647.88	121.71
648.03	166.18
648.17	138.09
648.32	269.16
648.47	131.07
648.61	180.22
648.76	147.45
648.90	168.52
649.05	215.33
649.20	124.05
649.34	152.13
649.49	166.18
649.63	161.50
649.78	437.68
649.92	1605.61
650.07	3857.20
650.21	6188.38
650.36	6677.55
650.51	5273.23
650.65	3719.11
650.80	2462.24
650.94	1371.55
651.09	791.10
651.23	444.70
651.38	315.97
651.52	175.54
651.67	180.22
651.81	131.07
651.96	224.69
652.10	189.58
652.25	156.82
652.39	177.88
652.54	521.94
652.68	1198.35
652.83	2148.61
652.97	2466.92
653.12	2160.31
653.26	1535.39
653.41	1006.43
653.55	720.88
653.70	353.42
653.84	283.20
653.99	215.33
654.13	154.48
654.27	180.22
654.42	156.82
654.56	159.16
654.71	159.16
654.85	107.66
655.00	191.92
655.14	140.43
655.29	159.16
655.43	163.84
655.57	102.98
655.72	135.75
655.86	154.48
656.01	156.82
656.15	194.26
656.30	177.88
656.44	159.16
656.58	243.42
656.73	156.82
656.87	170.86
657.01	88.94
657.16	198.95
657.30	147.45
657.45	149.79
657.59	198.95
657.73	243.42
657.88	128.73
658.02	252.78
658.16	175.54
658.31	152.13
658.45	133.41
658.60	95.96
658.74	156.82
658.88	205.97
659.03	252.78
659.17	688.12
659.31	1856.04
659.46	2939.71
659.60	3522.51
659.74	2909.29
659.89	2087.76
660.03	1308.36
660.17	947.92
660.32	521.94
660.46	315.97
660.60	194.26
660.74	182.56
660.89	102.98
661.03	173.20
661.17	154.48
661.32	154.48
661.46	117.03
661.60	173.20
661.74	184.90
661.89	255.12
662.03	163.84
662.17	105.32
662.31	152.13
662.46	198.95
662.60	154.48
662.74	175.54
662.88	187.24
663.03	147.45
663.17	170.86
663.31	191.92
663.45	177.88
663.60	175.54
663.74	145.11
663.88	107.66
664.02	184.90
664.17	203.63
664.31	117.03
664.45	168.52
664.59	161.50
664.73	170.86
664.88	229.37
665.02	142.77
665.16	81.92
665.30	184.90
665.44	145.11
665.59	217.67
665.73	175.54
665.87	196.60
666.01	140.43
666.15	161.50
666.29	191.92
666.44	149.79
666.58	248.10
666.72	175.54
666.86	180.22
667.00	358.10
667.14	1411.34
667.28	3262.71
667.43	5371.53
667.57	5977.73
667.71	4997.04
667.85	3424.20
667.99	2141.59
668.13	1268.57
668.27	868.34
668.41	468.11
668.56	306.61
668.70	269.16
668.84	217.67
668.98	140.43
669.12	177.88
669.26	196.60
669.40	248.10
669.54	194.26
669.68	250.44
669.82	191.92
669.96	180.22
670.10	201.29
670.25	236.39
670.39	194.26
670.53	173.20
670.67	259.80
670.81	222.35
670.95	447.04
671.09	1362.19
671.23	2565.23
671.37	3688.68
671.51	3770.60
671.65	2679.91
671.79	1746.04
671.93	1048.56
672.07	704.50
672.21	440.02
672.35	241.08
672.49	212.99
672.63	259.80
672.77	210.65
672.91	67.88
673.05	203.63
673.19	198.95
673.33	112.35
673.47	133.41
673.61	140.43
673.75	142.77
673.89	149.79
674.03	147.45
674.17	119.37
674.31	119.37
674.45	135.75
674.59	135.75
674.73	142.77
674.87	159.16
675.01	173.20
675.15	166.18
675.29	177.88
675.43	234.05
675.56	210.65
675.70	149.79
675.84	180.22
675.98	156.82
676.12	166.18
676.26	147.45
676.40	142.77
676.54	126.39
676.68	117.03
676.82	182.56
676.96	177.88
677.10	163.84
677.23	131.07
677.37	175.54
677.51	124.05
677.65	184.90
677.79	154.48
677.93	124.05
678.07	182.56
678.21	88.94
678.34	201.29
678.48	56.17
678.62	163.84
678.76	138.09
678.90	161.50
679.04	140.43
679.18	114.69
679.31	173.20
679.45	98.30
679.59	121.71
679.73	229.37
679.87	60.85
680.00	133.41
680.14	161.50
680.28	140.43
680.42	124.05
680.56	170.86
680.70	182.56
680.83	121.71
680.97	124.05
681.11	138.09
681.25	182.56
681.39	191.92
681.52	147.45
681.66	184.90
681.80	161.50
681.94	149.79
682.07	65.54
682.21	149.79
682.35	159.16
682.49	102.98
682.62	161.50
682.76	194.26
682.90	149.79
683.04	147.45
683.17	184.90
683.31	117.03
683.45	161.50
683.59	227.03
683.72	152.13
683.86	154.48
684.00	131.07
684.13	194.26
684.27	201.29
684.41	163.84
684.55	227.03
684.68	110.01
684.82	91.28
684.96	142.77
685.09	121.71
685.23	126.39
685.37	131.07
685.50	222.35
685.64	145.11
685.78	147.45
685.91	189.58
686.05	224.69
686.19	156.82
686.32	168.52
686.46	175.54
686.60	140.43
686.73	252.78
686.87	234.05
687.01	252.78
687.14	133.41
687.28	217.67
687.42	173.20
687.55	124.05
687.69	88.94
687.82	156.82
687.96	131.07
688.10	220.01
688.23	140.43
688.37	208.31
688.50	177.88
688.64	149.79
688.78	77.24
688.91	35.11
689.05	161.50
689.18	135.75
689.32	149.79
689.46	152.13
689.59	187.24
689.73	95.96
689.86	93.62
690.00	149.79
690.13	184.90
690.27	110.01
690.41	114.69
690.54	126.39
690.68	105.32
690.81	100.64
690.95	86.60
691.08	159.16
691.22	175.54
691.35	161.50
691.49	189.58
691.62	138.09
691.76	222.35
691.89	173.20
692.03	147.45
692.16	231.71
692.30	557.05
692.43	1343.47
692.57	2136.91
692.70	2717.36
692.84	2359.26
692.97	1760.08
693.11	1334.11
693.24	1104.73
693.38	692.80
693.51	463.43
693.65	376.83
693.78	313.63
693.92	245.76
694.05	255.12
694.19	128.73
694.32	224.69
694.45	110.01
694.59	161.50
694.72	135.75
694.86	117.03
694.99	177.88
695.13	128.73
695.26	177.88
695.39	168.52
695.53	231.71
695.66	159.16
695.80	138.09
695.93	212.99
696.07	241.08
696.20	379.17
696.33	348.74
696.47	327.68
696.60	229.37
696.73	276.18
696.87	196.60
697.00	201.29
697.14	198.95
697.27	163.84
697.40	198.95
697.54	191.92
697.67	173.20
697.80	149.79
697.94	121.71
698.07	131.07
698.21	147.45
698.34	227.03
698.47	145.11
698.61	177.88
698.74	91.28
698.87	180.22
699.01	161.50
699.14	131.07
699.27	184.90
699.40	257.46
699.54	114.69
699.67	163.84
699.80	191.92
699.94	161.50
700.07	135.75
700.20	187.24
700.34	138.09
700.47	112.35
700.60	154.48
700.73	145.11
700.87	145.11
701.00	124.05
701.13	114.69
701.26	187.24
701.40	126.39
701.53	140.43
701.66	147.45
701.79	234.05
701.93	285.55
702.06	292.57
702.19	257.46
702.32	355.76
702.46	444.70
702.59	606.20
702.72	1685.19
702.85	3089.51
702.99	4535.96
703.12	4922.15
703.25	4299.56
703.38	3604.42
703.51	2892.90
703.65	2029.24
703.78	1366.87
703.91	866.00
704.04	526.62
704.17	369.80
704.31	276.18
704.44	229.37
704.57	133.41
704.70	196.60
704.83	152.13
704.96	168.52
705.10	241.08
705.23	110.01
>>>>>End Processed Spectral Data<<<<<
