SpectraSuite Data File
++++++++++++++++++++++++++++++++++++
Date: Fri Oct 04 12:13:43 GMT-05:00 2013
User: price-jones
Dark Spectrum Present: No
Reference Spectrum Present: No
Number of Sampled Component Spectra: 1
Spectrometers: USB2+H05261
Integration Time (usec): 10000 (USB2+H05261)
Spectra Averaged: 1 (USB2+H05261)
Boxcar Smoothing: 0 (USB2+H05261)
Correct for Electrical Dark: No (USB2+H05261)
Strobe/Lamp Enabled: No (USB2+H05261)
Correct for Detector Non-linearity: No (USB2+H05261)
Correct for Stray Light: No (USB2+H05261)
Number of Pixels in Processed Spectrum: 2048
>>>>>Begin Processed Spectral Data<<<<<
365.73	30.43
365.92	30.43
366.12	30.43
366.32	0.00
366.52	0.00
366.72	0.00
366.91	0.00
367.11	0.00
367.31	0.00
367.51	0.00
367.70	0.00
367.90	0.00
368.10	0.00
368.30	0.00
368.49	0.00
368.69	0.00
368.89	0.00
369.09	0.00
369.28	0.00
369.48	0.00
369.68	0.00
369.87	0.00
370.07	0.00
370.27	0.00
370.47	0.00
370.66	0.00
370.86	0.00
371.06	0.00
371.25	0.00
371.45	0.00
371.65	88.94
371.84	0.00
372.04	0.00
372.24	9.36
372.44	28.09
372.63	9.36
372.83	102.98
373.03	28.09
373.22	25.75
373.42	23.41
373.62	14.04
373.81	0.00
374.01	60.85
374.21	16.38
374.40	0.00
374.60	0.00
374.79	49.15
374.99	11.70
375.19	67.88
375.38	65.54
375.58	0.00
375.78	53.83
375.97	28.09
376.17	25.75
376.37	14.04
376.56	11.70
376.76	0.00
376.95	18.72
377.15	11.70
377.35	16.38
377.54	23.41
377.74	110.01
377.93	46.81
378.13	39.79
378.33	95.96
378.52	77.24
378.72	0.00
378.91	0.00
379.11	0.00
379.31	53.83
379.50	0.00
379.70	18.72
379.89	0.00
380.09	74.90
380.28	49.15
380.48	65.54
380.68	58.51
380.87	2.34
381.07	0.00
381.26	0.00
381.46	0.00
381.65	37.45
381.85	28.09
382.04	23.41
382.24	44.47
382.43	56.17
382.63	72.56
382.83	0.00
383.02	0.00
383.22	0.00
383.41	0.00
383.61	100.64
383.80	0.00
384.00	0.00
384.19	28.09
384.39	14.04
384.58	4.68
384.78	18.72
384.97	100.64
385.17	23.41
385.36	18.72
385.56	30.43
385.75	51.49
385.95	58.51
386.14	7.02
386.34	0.00
386.53	0.00
386.72	0.00
386.92	2.34
387.11	72.56
387.31	95.96
387.50	0.00
387.70	0.00
387.89	25.75
388.09	0.00
388.28	58.51
388.48	44.47
388.67	9.36
388.86	51.49
389.06	25.75
389.25	0.00
389.45	44.47
389.64	14.04
389.84	18.72
390.03	35.11
390.22	14.04
390.42	53.83
390.61	56.17
390.81	131.07
391.00	23.41
391.19	0.00
391.39	110.01
391.58	0.00
391.78	37.45
391.97	0.00
392.16	44.47
392.36	58.51
392.55	63.19
392.75	7.02
392.94	11.70
393.13	51.49
393.33	11.70
393.52	32.77
393.71	30.43
393.91	51.49
394.10	0.00
394.29	0.00
394.49	37.45
394.68	0.00
394.88	107.66
395.07	77.24
395.26	0.00
395.46	39.79
395.65	51.49
395.84	53.83
396.04	105.32
396.23	35.11
396.42	0.00
396.62	53.83
396.81	28.09
397.00	39.79
397.19	37.45
397.39	0.00
397.58	30.43
397.77	25.75
397.97	30.43
398.16	65.54
398.35	0.00
398.55	49.15
398.74	4.68
398.93	39.79
399.12	0.00
399.32	0.00
399.51	72.56
399.70	7.02
399.90	11.70
400.09	107.66
400.28	0.00
400.47	16.38
400.67	4.68
400.86	0.00
401.05	9.36
401.24	42.13
401.44	46.81
401.63	9.36
401.82	18.72
402.01	0.00
402.21	7.02
402.40	0.00
402.59	0.00
402.78	0.00
402.97	53.83
403.17	60.85
403.36	16.38
403.55	4.68
403.74	72.56
403.93	42.13
404.13	14.04
404.32	14.04
404.51	7.02
404.70	67.88
404.89	23.41
405.09	56.17
405.28	70.22
405.47	11.70
405.66	91.28
405.85	49.15
406.05	58.51
406.24	4.68
406.43	0.00
406.62	49.15
406.81	23.41
407.00	23.41
407.20	11.70
407.39	14.04
407.58	72.56
407.77	42.13
407.96	35.11
408.15	9.36
408.34	51.49
408.54	60.85
408.73	58.51
408.92	37.45
409.11	35.11
409.30	0.00
409.49	42.13
409.68	60.85
409.87	0.00
410.07	25.75
410.26	46.81
410.45	18.72
410.64	44.47
410.83	32.77
411.02	86.60
411.21	93.62
411.40	21.06
411.59	44.47
411.78	0.00
411.98	7.02
412.17	4.68
412.36	110.01
412.55	46.81
412.74	18.72
412.93	44.47
413.12	0.00
413.31	14.04
413.50	16.38
413.69	14.04
413.88	119.37
414.07	46.81
414.26	25.75
414.45	0.00
414.64	2.34
414.83	112.35
415.02	16.38
415.22	56.17
415.41	7.02
415.60	35.11
415.79	21.06
415.98	28.09
416.17	32.77
416.36	0.00
416.55	0.00
416.74	46.81
416.93	2.34
417.12	70.22
417.31	93.62
417.50	30.43
417.69	16.38
417.88	91.28
418.07	105.32
418.26	44.47
418.45	93.62
418.64	44.47
418.83	72.56
419.02	63.19
419.21	51.49
419.39	86.60
419.58	14.04
419.77	0.00
419.96	28.09
420.15	77.24
420.34	7.02
420.53	65.54
420.72	0.00
420.91	53.83
421.10	79.58
421.29	25.75
421.48	4.68
421.67	0.00
421.86	72.56
422.05	28.09
422.24	65.54
422.43	98.30
422.61	21.06
422.80	0.00
422.99	2.34
423.18	51.49
423.37	88.94
423.56	0.00
423.75	79.58
423.94	23.41
424.13	28.09
424.32	98.30
424.50	72.56
424.69	63.19
424.88	86.60
425.07	49.15
425.26	9.36
425.45	86.60
425.64	46.81
425.83	35.11
426.01	131.07
426.20	44.47
426.39	0.00
426.58	84.26
426.77	16.38
426.96	51.49
427.15	53.83
427.33	81.92
427.52	30.43
427.71	53.83
427.90	60.85
428.09	58.51
428.28	56.17
428.46	86.60
428.65	114.69
428.84	0.00
429.03	23.41
429.22	0.00
429.40	37.45
429.59	74.90
429.78	7.02
429.97	0.00
430.16	25.75
430.34	105.32
430.53	79.58
430.72	14.04
430.91	70.22
431.10	11.70
431.28	32.77
431.47	126.39
431.66	60.85
431.85	44.47
432.03	79.58
432.22	14.04
432.41	0.00
432.60	56.17
432.79	0.00
432.97	81.92
433.16	51.49
433.35	35.11
433.54	35.11
433.72	28.09
433.91	0.00
434.10	0.00
434.28	30.43
434.47	112.35
434.66	0.00
434.85	0.00
435.03	25.75
435.22	58.51
435.41	102.98
435.59	46.81
435.78	28.09
435.97	4.68
436.16	0.00
436.34	0.00
436.53	84.26
436.72	72.56
436.90	93.62
437.09	30.43
437.28	44.47
437.46	28.09
437.65	7.02
437.84	105.32
438.02	72.56
438.21	81.92
438.40	46.81
438.58	119.37
438.77	42.13
438.96	95.96
439.14	79.58
439.33	0.00
439.52	32.77
439.70	11.70
439.89	44.47
440.08	0.00
440.26	58.51
440.45	0.00
440.63	88.94
440.82	63.19
441.01	0.00
441.19	53.83
441.38	39.79
441.57	49.15
441.75	117.03
441.94	0.00
442.12	0.00
442.31	42.13
442.50	53.83
442.68	112.35
442.87	91.28
443.05	14.04
443.24	95.96
443.43	72.56
443.61	67.88
443.80	2.34
443.98	63.19
444.17	0.00
444.35	32.77
444.54	44.47
444.73	67.88
444.91	93.62
445.10	53.83
445.28	58.51
445.47	30.43
445.65	35.11
445.84	35.11
446.02	28.09
446.21	30.43
446.39	16.38
446.58	65.54
446.77	65.54
446.95	81.92
447.14	0.00
447.32	44.47
447.51	51.49
447.69	63.19
447.88	72.56
448.06	35.11
448.25	53.83
448.43	37.45
448.62	14.04
448.80	70.22
448.99	21.06
449.17	0.00
449.36	84.26
449.54	0.00
449.73	81.92
449.91	100.64
450.10	42.13
450.28	0.00
450.46	25.75
450.65	28.09
450.83	0.00
451.02	93.62
451.20	0.00
451.39	49.15
451.57	49.15
451.76	88.94
451.94	16.38
452.13	11.70
452.31	0.00
452.49	67.88
452.68	39.79
452.86	46.81
453.05	124.05
453.23	79.58
453.42	39.79
453.60	60.85
453.78	126.39
453.97	23.41
454.15	11.70
454.34	81.92
454.52	63.19
454.70	44.47
454.89	25.75
455.07	35.11
455.26	18.72
455.44	30.43
455.62	0.00
455.81	11.70
455.99	49.15
456.17	0.00
456.36	9.36
456.54	39.79
456.73	60.85
456.91	102.98
457.09	84.26
457.28	30.43
457.46	9.36
457.64	4.68
457.83	32.77
458.01	51.49
458.19	11.70
458.38	60.85
458.56	9.36
458.74	65.54
458.93	32.77
459.11	105.32
459.29	18.72
459.48	0.00
459.66	86.60
459.84	18.72
460.03	77.24
460.21	65.54
460.39	53.83
460.57	7.02
460.76	37.45
460.94	44.47
461.12	91.28
461.31	0.00
461.49	67.88
461.67	56.17
461.85	84.26
462.04	35.11
462.22	128.73
462.40	42.13
462.59	58.51
462.77	105.32
462.95	30.43
463.13	7.02
463.32	0.00
463.50	28.09
463.68	44.47
463.86	30.43
464.05	60.85
464.23	44.47
464.41	63.19
464.59	67.88
464.78	84.26
464.96	67.88
465.14	23.41
465.32	51.49
465.50	2.34
465.69	53.83
465.87	149.79
466.05	0.00
466.23	46.81
466.41	14.04
466.60	16.38
466.78	37.45
466.96	63.19
467.14	102.98
467.32	0.00
467.51	35.11
467.69	0.00
467.87	72.56
468.05	51.49
468.23	39.79
468.41	53.83
468.60	121.71
468.78	79.58
468.96	39.79
469.14	44.47
469.32	28.09
469.50	42.13
469.69	126.39
469.87	67.88
470.05	91.28
470.23	37.45
470.41	49.15
470.59	28.09
470.77	58.51
470.95	91.28
471.14	114.69
471.32	46.81
471.50	0.00
471.68	53.83
471.86	70.22
472.04	86.60
472.22	51.49
472.40	84.26
472.58	9.36
472.77	65.54
472.95	32.77
473.13	110.01
473.31	51.49
473.49	107.66
473.67	67.88
473.85	42.13
474.03	21.06
474.21	65.54
474.39	79.58
474.57	84.26
474.75	25.75
474.93	79.58
475.12	28.09
475.30	7.02
475.48	0.00
475.66	30.43
475.84	39.79
476.02	84.26
476.20	0.00
476.38	105.32
476.56	128.73
476.74	42.13
476.92	44.47
477.10	79.58
477.28	46.81
477.46	163.84
477.64	16.38
477.82	2.34
478.00	86.60
478.18	98.30
478.36	84.26
478.54	46.81
478.72	74.90
478.90	74.90
479.08	28.09
479.26	121.71
479.44	58.51
479.62	30.43
479.80	65.54
479.98	60.85
480.16	98.30
480.34	37.45
480.52	21.06
480.70	63.19
480.88	56.17
481.06	46.81
481.24	58.51
481.41	79.58
481.59	46.81
481.77	23.41
481.95	30.43
482.13	0.00
482.31	51.49
482.49	39.79
482.67	65.54
482.85	72.56
483.03	0.00
483.21	56.17
483.39	11.70
483.57	74.90
483.74	79.58
483.92	0.00
484.10	107.66
484.28	100.64
484.46	56.17
484.64	58.51
484.82	60.85
485.00	37.45
485.18	65.54
485.35	0.00
485.53	65.54
485.71	35.11
485.89	0.00
486.07	0.00
486.25	142.77
486.43	77.24
486.61	46.81
486.78	98.30
486.96	37.45
487.14	65.54
487.32	58.51
487.50	37.45
487.68	32.77
487.85	86.60
488.03	93.62
488.21	46.81
488.39	0.00
488.57	18.72
488.75	0.00
488.92	107.66
489.10	142.77
489.28	0.00
489.46	46.81
489.64	72.56
489.81	58.51
489.99	77.24
490.17	84.26
490.35	100.64
490.53	86.60
490.70	18.72
490.88	117.03
491.06	91.28
491.24	0.00
491.41	67.88
491.59	117.03
491.77	7.02
491.95	72.56
492.13	42.13
492.30	21.06
492.48	74.90
492.66	18.72
492.84	74.90
493.01	28.09
493.19	28.09
493.37	51.49
493.54	35.11
493.72	70.22
493.90	105.32
494.08	46.81
494.25	53.83
494.43	91.28
494.61	74.90
494.79	117.03
494.96	58.51
495.14	39.79
495.32	2.34
495.49	88.94
495.67	74.90
495.85	93.62
496.02	14.04
496.20	58.51
496.38	131.07
496.55	84.26
496.73	105.32
496.91	70.22
497.09	95.96
497.26	93.62
497.44	46.81
497.62	35.11
497.79	112.35
497.97	28.09
498.14	14.04
498.32	39.79
498.50	86.60
498.67	35.11
498.85	23.41
499.03	35.11
499.20	114.69
499.38	65.54
499.56	18.72
499.73	77.24
499.91	63.19
500.08	42.13
500.26	7.02
500.44	14.04
500.61	0.00
500.79	42.13
500.97	98.30
501.14	63.19
501.32	93.62
501.49	46.81
501.67	25.75
501.84	91.28
502.02	86.60
502.20	84.26
502.37	51.49
502.55	74.90
502.72	79.58
502.90	18.72
503.07	23.41
503.25	79.58
503.43	63.19
503.60	93.62
503.78	58.51
503.95	0.00
504.13	53.83
504.30	23.41
504.48	46.81
504.65	65.54
504.83	152.13
505.01	37.45
505.18	70.22
505.36	95.96
505.53	81.92
505.71	0.00
505.88	25.75
506.06	119.37
506.23	25.75
506.41	51.49
506.58	23.41
506.76	58.51
506.93	58.51
507.11	7.02
507.28	28.09
507.46	35.11
507.63	110.01
507.81	63.19
507.98	91.28
508.16	23.41
508.33	74.90
508.50	95.96
508.68	49.15
508.85	124.05
509.03	58.51
509.20	56.17
509.38	91.28
509.55	35.11
509.73	53.83
509.90	65.54
510.08	93.62
510.25	60.85
510.42	107.66
510.60	119.37
510.77	18.72
510.95	84.26
511.12	46.81
511.30	86.60
511.47	28.09
511.64	107.66
511.82	95.96
511.99	131.07
512.17	7.02
512.34	0.00
512.51	32.77
512.69	9.36
512.86	65.54
513.04	56.17
513.21	51.49
513.38	49.15
513.56	77.24
513.73	81.92
513.90	110.01
514.08	98.30
514.25	102.98
514.43	51.49
514.60	74.90
514.77	30.43
514.95	74.90
515.12	110.01
515.29	119.37
515.47	138.09
515.64	72.56
515.81	79.58
515.99	86.60
516.16	88.94
516.33	107.66
516.51	30.43
516.68	25.75
516.85	11.70
517.03	72.56
517.20	30.43
517.37	51.49
517.54	14.04
517.72	117.03
517.89	88.94
518.06	4.68
518.24	37.45
518.41	81.92
518.58	72.56
518.75	98.30
518.93	0.00
519.10	74.90
519.27	28.09
519.45	77.24
519.62	95.96
519.79	56.17
519.96	77.24
520.14	112.35
520.31	51.49
520.48	91.28
520.65	44.47
520.83	81.92
521.00	46.81
521.17	145.11
521.34	14.04
521.52	77.24
521.69	70.22
521.86	53.83
522.03	0.00
522.20	105.32
522.38	67.88
522.55	84.26
522.72	98.30
522.89	60.85
523.07	112.35
523.24	102.98
523.41	53.83
523.58	74.90
523.75	135.75
523.92	65.54
524.10	81.92
524.27	84.26
524.44	95.96
524.61	42.13
524.78	63.19
524.96	79.58
525.13	56.17
525.30	86.60
525.47	86.60
525.64	98.30
525.81	44.47
525.98	0.00
526.16	65.54
526.33	81.92
526.50	65.54
526.67	58.51
526.84	121.71
527.01	79.58
527.18	91.28
527.36	35.11
527.53	79.58
527.70	56.17
527.87	63.19
528.04	117.03
528.21	126.39
528.38	79.58
528.55	86.60
528.72	51.49
528.89	79.58
529.07	79.58
529.24	70.22
529.41	65.54
529.58	124.05
529.75	32.77
529.92	72.56
530.09	77.24
530.26	147.45
530.43	88.94
530.60	58.51
530.77	98.30
530.94	53.83
531.11	67.88
531.28	46.81
531.46	77.24
531.63	49.15
531.80	46.81
531.97	84.26
532.14	95.96
532.31	95.96
532.48	7.02
532.65	105.32
532.82	14.04
532.99	88.94
533.16	117.03
533.33	65.54
533.50	77.24
533.67	39.79
533.84	0.00
534.01	145.11
534.18	44.47
534.35	88.94
534.52	86.60
534.69	100.64
534.86	79.58
535.03	51.49
535.20	91.28
535.37	159.16
535.54	72.56
535.71	37.45
535.88	37.45
536.05	16.38
536.22	65.54
536.38	67.88
536.55	114.69
536.72	98.30
536.89	56.17
537.06	42.13
537.23	23.41
537.40	49.15
537.57	30.43
537.74	49.15
537.91	30.43
538.08	93.62
538.25	147.45
538.42	152.13
538.59	79.58
538.75	42.13
538.92	58.51
539.09	16.38
539.26	77.24
539.43	107.66
539.60	91.28
539.77	84.26
539.94	126.39
540.11	95.96
540.28	70.22
540.44	18.72
540.61	21.06
540.78	58.51
540.95	28.09
541.12	72.56
541.29	79.58
541.46	56.17
541.62	23.41
541.79	0.00
541.96	72.56
542.13	107.66
542.30	77.24
542.47	0.00
542.63	72.56
542.80	126.39
542.97	91.28
543.14	112.35
543.31	117.03
543.48	74.90
543.64	18.72
543.81	0.00
543.98	100.64
544.15	128.73
544.32	56.17
544.48	58.51
544.65	74.90
544.82	70.22
544.99	95.96
545.16	77.24
545.32	95.96
545.49	67.88
545.66	77.24
545.83	44.47
546.00	0.00
546.16	0.00
546.33	53.83
546.50	51.49
546.67	67.88
546.83	60.85
547.00	77.24
547.17	42.13
547.34	35.11
547.50	70.22
547.67	93.62
547.84	93.62
548.00	14.04
548.17	77.24
548.34	93.62
548.51	124.05
548.67	58.51
548.84	98.30
549.01	51.49
549.18	30.43
549.34	72.56
549.51	51.49
549.68	28.09
549.84	23.41
550.01	70.22
550.18	133.41
550.34	72.56
550.51	60.85
550.68	135.75
550.84	77.24
551.01	46.81
551.18	72.56
551.34	67.88
551.51	63.19
551.68	0.00
551.84	84.26
552.01	128.73
552.18	102.98
552.34	58.51
552.51	91.28
552.68	49.15
552.84	145.11
553.01	51.49
553.18	44.47
553.34	60.85
553.51	35.11
553.67	72.56
553.84	60.85
554.01	63.19
554.17	39.79
554.34	60.85
554.51	110.01
554.67	65.54
554.84	32.77
555.00	161.50
555.17	81.92
555.33	60.85
555.50	0.00
555.67	0.00
555.83	72.56
556.00	102.98
556.16	37.45
556.33	7.02
556.50	32.77
556.66	44.47
556.83	93.62
556.99	44.47
557.16	7.02
557.32	88.94
557.49	81.92
557.65	0.00
557.82	18.72
557.98	58.51
558.15	53.83
558.32	51.49
558.48	84.26
558.65	37.45
558.81	88.94
558.98	60.85
559.14	77.24
559.31	77.24
559.47	63.19
559.64	117.03
559.80	58.51
559.97	65.54
560.13	100.64
560.30	138.09
560.46	74.90
560.63	28.09
560.79	77.24
560.96	49.15
561.12	60.85
561.29	79.58
561.45	124.05
561.61	95.96
561.78	119.37
561.94	95.96
562.11	67.88
562.27	102.98
562.44	0.00
562.60	72.56
562.77	49.15
562.93	51.49
563.10	56.17
563.26	65.54
563.42	4.68
563.59	93.62
563.75	72.56
563.92	49.15
564.08	93.62
564.24	35.11
564.41	81.92
564.57	70.22
564.74	105.32
564.90	21.06
565.07	53.83
565.23	105.32
565.39	100.64
565.56	70.22
565.72	32.77
565.88	30.43
566.05	44.47
566.21	0.00
566.38	126.39
566.54	88.94
566.70	14.04
566.87	84.26
567.03	105.32
567.19	100.64
567.36	88.94
567.52	42.13
567.68	42.13
567.85	77.24
568.01	44.47
568.17	133.41
568.34	30.43
568.50	32.77
568.66	112.35
568.83	81.92
568.99	11.70
569.15	93.62
569.32	72.56
569.48	0.00
569.64	0.00
569.81	124.05
569.97	39.79
570.13	25.75
570.30	46.81
570.46	72.56
570.62	11.70
570.78	37.45
570.95	28.09
571.11	56.17
571.27	126.39
571.43	65.54
571.60	9.36
571.76	60.85
571.92	161.50
572.09	77.24
572.25	37.45
572.41	88.94
572.57	30.43
572.74	93.62
572.90	98.30
573.06	77.24
573.22	114.69
573.38	23.41
573.55	133.41
573.71	28.09
573.87	74.90
574.03	44.47
574.20	98.30
574.36	86.60
574.52	88.94
574.68	93.62
574.84	60.85
575.01	44.47
575.17	46.81
575.33	114.69
575.49	16.38
575.65	81.92
575.82	79.58
575.98	142.77
576.14	107.66
576.30	65.54
576.46	53.83
576.62	49.15
576.79	63.19
576.95	107.66
577.11	107.66
577.27	105.32
577.43	102.98
577.59	25.75
577.75	88.94
577.92	63.19
578.08	42.13
578.24	49.15
578.40	72.56
578.56	65.54
578.72	124.05
578.88	135.75
579.04	56.17
579.21	95.96
579.37	28.09
579.53	46.81
579.69	91.28
579.85	102.98
580.01	42.13
580.17	35.11
580.33	51.49
580.49	42.13
580.65	128.73
580.82	93.62
580.98	67.88
581.14	39.79
581.30	58.51
581.46	79.58
581.62	79.58
581.78	93.62
581.94	11.70
582.10	65.54
582.26	51.49
582.42	91.28
582.58	91.28
582.74	18.72
582.90	30.43
583.06	107.66
583.22	30.43
583.38	0.00
583.54	117.03
583.70	121.71
583.86	84.26
584.02	86.60
584.18	39.79
584.34	42.13
584.50	121.71
584.66	39.79
584.82	35.11
584.98	51.49
585.14	37.45
585.30	79.58
585.46	42.13
585.62	77.24
585.78	21.06
585.94	70.22
586.10	53.83
586.26	65.54
586.42	16.38
586.58	105.32
586.74	63.19
586.90	44.47
587.06	4.68
587.22	23.41
587.38	65.54
587.54	49.15
587.70	46.81
587.86	65.54
588.02	79.58
588.18	51.49
588.34	58.51
588.49	49.15
588.65	84.26
588.81	11.70
588.97	53.83
589.13	23.41
589.29	49.15
589.45	0.00
589.61	46.81
589.77	63.19
589.93	30.43
590.08	35.11
590.24	39.79
590.40	77.24
590.56	72.56
590.72	121.71
590.88	63.19
591.04	46.81
591.20	0.00
591.35	81.92
591.51	107.66
591.67	37.45
591.83	124.05
591.99	70.22
592.15	30.43
592.31	32.77
592.46	0.00
592.62	56.17
592.78	28.09
592.94	77.24
593.10	2.34
593.26	9.36
593.41	74.90
593.57	79.58
593.73	63.19
593.89	53.83
594.05	72.56
594.20	77.24
594.36	42.13
594.52	28.09
594.68	21.06
594.84	58.51
594.99	72.56
595.15	105.32
595.31	46.81
595.47	119.37
595.62	0.00
595.78	58.51
595.94	56.17
596.10	16.38
596.25	77.24
596.41	117.03
596.57	88.94
596.73	0.00
596.88	105.32
597.04	0.00
597.20	0.00
597.36	126.39
597.51	100.64
597.67	53.83
597.83	81.92
597.99	84.26
598.14	110.01
598.30	77.24
598.46	60.85
598.61	77.24
598.77	81.92
598.93	149.79
599.09	135.75
599.24	63.19
599.40	25.75
599.56	63.19
599.71	35.11
599.87	60.85
600.03	105.32
600.18	60.85
600.34	95.96
600.50	124.05
600.65	77.24
600.81	32.77
600.97	56.17
601.12	56.17
601.28	119.37
601.44	35.11
601.59	60.85
601.75	135.75
601.91	93.62
602.06	56.17
602.22	49.15
602.37	72.56
602.53	7.02
602.69	67.88
602.84	112.35
603.00	81.92
603.16	7.02
603.31	63.19
603.47	51.49
603.62	23.41
603.78	53.83
603.94	51.49
604.09	32.77
604.25	107.66
604.40	74.90
604.56	18.72
604.71	63.19
604.87	46.81
605.03	67.88
605.18	65.54
605.34	0.00
605.49	102.98
605.65	51.49
605.80	30.43
605.96	91.28
606.12	86.60
606.27	126.39
606.43	35.11
606.58	23.41
606.74	0.00
606.89	0.00
607.05	39.79
607.20	147.45
607.36	86.60
607.51	0.00
607.67	0.00
607.82	100.64
607.98	37.45
608.13	95.96
608.29	102.98
608.44	35.11
608.60	84.26
608.75	49.15
608.91	131.07
609.06	4.68
609.22	11.70
609.37	84.26
609.53	81.92
609.68	11.70
609.84	25.75
609.99	79.58
610.15	58.51
610.30	81.92
610.46	91.28
610.61	51.49
610.76	112.35
610.92	107.66
611.07	91.28
611.23	84.26
611.38	30.43
611.54	49.15
611.69	53.83
611.84	119.37
612.00	21.06
612.15	42.13
612.31	46.81
612.46	60.85
612.62	23.41
612.77	25.75
612.92	91.28
613.08	39.79
613.23	81.92
613.39	42.13
613.54	88.94
613.69	16.38
613.85	63.19
614.00	65.54
614.15	121.71
614.31	39.79
614.46	88.94
614.62	56.17
614.77	56.17
614.92	105.32
615.08	84.26
615.23	32.77
615.38	81.92
615.54	23.41
615.69	100.64
615.84	25.75
616.00	95.96
616.15	131.07
616.30	30.43
616.46	42.13
616.61	70.22
616.76	102.98
616.92	67.88
617.07	114.69
617.22	107.66
617.37	30.43
617.53	30.43
617.68	28.09
617.83	112.35
617.99	100.64
618.14	56.17
618.29	28.09
618.45	84.26
618.60	58.51
618.75	81.92
618.90	14.04
619.06	0.00
619.21	32.77
619.36	70.22
619.51	37.45
619.67	131.07
619.82	60.85
619.97	42.13
620.12	30.43
620.28	93.62
620.43	58.51
620.58	72.56
620.73	58.51
620.89	0.00
621.04	51.49
621.19	102.98
621.34	77.24
621.49	86.60
621.65	77.24
621.80	133.41
621.95	72.56
622.10	9.36
622.25	39.79
622.41	65.54
622.56	81.92
622.71	30.43
622.86	49.15
623.01	65.54
623.16	58.51
623.32	60.85
623.47	25.75
623.62	35.11
623.77	112.35
623.92	93.62
624.07	72.56
624.23	32.77
624.38	18.72
624.53	56.17
624.68	0.00
624.83	30.43
624.98	21.06
625.13	79.58
625.29	79.58
625.44	77.24
625.59	128.73
625.74	51.49
625.89	51.49
626.04	2.34
626.19	81.92
626.34	91.28
626.49	67.88
626.65	30.43
626.80	28.09
626.95	35.11
627.10	81.92
627.25	44.47
627.40	42.13
627.55	72.56
627.70	25.75
627.85	60.85
628.00	25.75
628.15	14.04
628.30	77.24
628.45	51.49
628.60	91.28
628.76	77.24
628.91	81.92
629.06	42.13
629.21	23.41
629.36	79.58
629.51	25.75
629.66	30.43
629.81	67.88
629.96	74.90
630.11	107.66
630.26	0.00
630.41	70.22
630.56	98.30
630.71	28.09
630.86	72.56
631.01	35.11
631.16	60.85
631.31	58.51
631.46	35.11
631.61	105.32
631.76	21.06
631.91	32.77
632.06	39.79
632.21	74.90
632.36	46.81
632.51	102.98
632.66	53.83
632.81	88.94
632.96	74.90
633.10	7.02
633.25	72.56
633.40	0.00
633.55	42.13
633.70	102.98
633.85	23.41
634.00	42.13
634.15	51.49
634.30	88.94
634.45	25.75
634.60	0.00
634.75	0.00
634.90	7.02
635.05	25.75
635.19	21.06
635.34	30.43
635.49	39.79
635.64	53.83
635.79	70.22
635.94	49.15
636.09	107.66
636.24	58.51
636.39	49.15
636.53	30.43
636.68	14.04
636.83	37.45
636.98	95.96
637.13	49.15
637.28	0.00
637.43	28.09
637.57	0.00
637.72	9.36
637.87	42.13
638.02	0.00
638.17	60.85
638.32	18.72
638.46	0.00
638.61	42.13
638.76	32.77
638.91	98.30
639.06	67.88
639.20	53.83
639.35	74.90
639.50	63.19
639.65	28.09
639.80	0.00
639.94	72.56
640.09	65.54
640.24	95.96
640.39	88.94
640.54	49.15
640.68	49.15
640.83	0.00
640.98	0.00
641.13	0.00
641.27	37.45
641.42	128.73
641.57	0.00
641.72	119.37
641.86	117.03
642.01	72.56
642.16	16.38
642.31	65.54
642.45	93.62
642.60	124.05
642.75	81.92
642.90	32.77
643.04	16.38
643.19	0.00
643.34	124.05
643.48	67.88
643.63	49.15
643.78	4.68
643.93	0.00
644.07	2.34
644.22	0.00
644.37	67.88
644.51	72.56
644.66	86.60
644.81	42.13
644.95	49.15
645.10	149.79
645.25	56.17
645.39	9.36
645.54	4.68
645.69	21.06
645.83	30.43
645.98	112.35
646.13	105.32
646.27	56.17
646.42	51.49
646.57	81.92
646.71	44.47
646.86	0.00
647.00	35.11
647.15	35.11
647.30	49.15
647.44	79.58
647.59	23.41
647.74	107.66
647.88	49.15
648.03	86.60
648.17	63.19
648.32	39.79
648.47	37.45
648.61	21.06
648.76	30.43
648.90	79.58
649.05	63.19
649.20	77.24
649.34	51.49
649.49	0.00
649.63	0.00
649.78	124.05
649.92	39.79
650.07	0.00
650.21	51.49
650.36	42.13
650.51	0.00
650.65	28.09
650.80	70.22
650.94	51.49
651.09	16.38
651.23	11.70
651.38	77.24
651.52	53.83
651.67	60.85
651.81	53.83
651.96	49.15
652.10	126.39
652.25	63.19
652.39	32.77
652.54	77.24
652.68	58.51
652.83	63.19
652.97	110.01
653.12	65.54
653.26	58.51
653.41	37.45
653.55	51.49
653.70	60.85
653.84	0.00
653.99	84.26
654.13	81.92
654.27	7.02
654.42	86.60
654.56	114.69
654.71	65.54
654.85	25.75
655.00	39.79
655.14	81.92
655.29	70.22
655.43	16.38
655.57	63.19
655.72	25.75
655.86	86.60
656.01	74.90
656.15	7.02
656.30	42.13
656.44	67.88
656.58	11.70
656.73	35.11
656.87	18.72
657.01	42.13
657.16	105.32
657.30	65.54
657.45	77.24
657.59	49.15
657.73	30.43
657.88	110.01
658.02	84.26
658.16	25.75
658.31	65.54
658.45	0.00
658.60	37.45
658.74	53.83
658.88	0.00
659.03	32.77
659.17	32.77
659.31	98.30
659.46	67.88
659.60	56.17
659.74	9.36
659.89	7.02
660.03	16.38
660.17	88.94
660.32	58.51
660.46	65.54
660.60	81.92
660.74	74.90
660.89	39.79
661.03	42.13
661.17	72.56
661.32	119.37
661.46	39.79
661.60	0.00
661.74	16.38
661.89	100.64
662.03	0.00
662.17	79.58
662.31	0.00
662.46	0.00
662.60	44.47
662.74	114.69
662.88	32.77
663.03	0.00
663.17	44.47
663.31	100.64
663.45	65.54
663.60	42.13
663.74	63.19
663.88	0.00
664.02	0.00
664.17	51.49
664.31	37.45
664.45	30.43
664.59	65.54
664.73	2.34
664.88	63.19
665.02	51.49
665.16	67.88
665.30	53.83
665.44	91.28
665.59	9.36
665.73	58.51
665.87	14.04
666.01	18.72
666.15	18.72
666.29	0.00
666.44	84.26
666.58	0.00
666.72	67.88
666.86	77.24
667.00	11.70
667.14	44.47
667.28	28.09
667.43	107.66
667.57	37.45
667.71	4.68
667.85	65.54
667.99	98.30
668.13	51.49
668.27	60.85
668.41	112.35
668.56	46.81
668.70	63.19
668.84	65.54
668.98	60.85
669.12	67.88
669.26	98.30
669.40	0.00
669.54	56.17
669.68	110.01
669.82	91.28
669.96	58.51
670.10	0.00
670.25	28.09
670.39	32.77
670.53	60.85
670.67	25.75
670.81	67.88
670.95	14.04
671.09	53.83
671.23	37.45
671.37	39.79
671.51	35.11
671.65	102.98
671.79	46.81
671.93	77.24
672.07	30.43
672.21	93.62
672.35	0.00
672.49	63.19
672.63	51.49
672.77	32.77
672.91	35.11
673.05	0.00
673.19	93.62
673.33	49.15
673.47	107.66
673.61	28.09
673.75	110.01
673.89	70.22
674.03	77.24
674.17	37.45
674.31	51.49
674.45	37.45
674.59	2.34
674.73	42.13
674.87	84.26
675.01	51.49
675.15	30.43
675.29	93.62
675.43	44.47
675.56	23.41
675.70	86.60
675.84	23.41
675.98	65.54
676.12	74.90
676.26	0.00
676.40	60.85
676.54	23.41
676.68	23.41
676.82	46.81
676.96	98.30
677.10	9.36
677.23	0.00
677.37	74.90
677.51	60.85
677.65	18.72
677.79	86.60
677.93	65.54
678.07	23.41
678.21	28.09
678.34	0.00
678.48	95.96
678.62	35.11
678.76	9.36
678.90	84.26
679.04	77.24
679.18	23.41
679.31	49.15
679.45	28.09
679.59	49.15
679.73	105.32
679.87	67.88
680.00	65.54
680.14	14.04
680.28	42.13
680.42	65.54
680.56	51.49
680.70	46.81
680.83	11.70
680.97	51.49
681.11	88.94
681.25	53.83
681.39	0.00
681.52	72.56
681.66	14.04
681.80	28.09
681.94	25.75
682.07	42.13
682.21	28.09
682.35	23.41
682.49	58.51
682.62	81.92
682.76	0.00
682.90	39.79
683.04	110.01
683.17	0.00
683.31	0.00
683.45	16.38
683.59	0.00
683.72	4.68
683.86	72.56
684.00	23.41
684.13	74.90
684.27	30.43
684.41	0.00
684.55	35.11
684.68	16.38
684.82	4.68
684.96	86.60
685.09	32.77
685.23	21.06
685.37	18.72
685.50	39.79
685.64	53.83
685.78	18.72
685.91	23.41
686.05	0.00
686.19	14.04
686.32	53.83
686.46	84.26
686.60	23.41
686.73	0.00
686.87	25.75
687.01	74.90
687.14	35.11
687.28	0.00
687.42	49.15
687.55	9.36
687.69	72.56
687.82	91.28
687.96	0.00
688.10	32.77
688.23	35.11
688.37	23.41
688.50	11.70
688.64	58.51
688.78	0.00
688.91	23.41
689.05	23.41
689.18	2.34
689.32	46.81
689.46	67.88
689.59	39.79
689.73	21.06
689.86	16.38
690.00	0.00
690.13	49.15
690.27	46.81
690.41	86.60
690.54	35.11
690.68	67.88
690.81	70.22
690.95	63.19
691.08	37.45
691.22	39.79
691.35	46.81
691.49	84.26
691.62	70.22
691.76	0.00
691.89	39.79
692.03	25.75
692.16	37.45
692.30	2.34
692.43	7.02
692.57	0.00
692.70	25.75
692.84	18.72
692.97	30.43
693.11	23.41
693.24	65.54
693.38	42.13
693.51	70.22
693.65	58.51
693.78	37.45
693.92	14.04
694.05	16.38
694.19	0.00
694.32	46.81
694.45	100.64
694.59	98.30
694.72	95.96
694.86	53.83
694.99	39.79
695.13	49.15
695.26	74.90
695.39	0.00
695.53	0.00
695.66	84.26
695.80	49.15
695.93	56.17
696.07	2.34
696.20	14.04
696.33	18.72
696.47	98.30
696.60	0.00
696.73	0.00
696.87	18.72
697.00	23.41
697.14	51.49
697.27	28.09
697.40	35.11
697.54	60.85
697.67	58.51
697.80	0.00
697.94	14.04
698.07	14.04
698.21	65.54
698.34	37.45
698.47	28.09
698.61	0.00
698.74	18.72
698.87	53.83
699.01	2.34
699.14	39.79
699.27	65.54
699.40	0.00
699.54	0.00
699.67	30.43
699.80	2.34
699.94	0.00
700.07	0.00
700.20	37.45
700.34	18.72
700.47	16.38
700.60	0.00
700.73	0.00
700.87	14.04
701.00	0.00
701.13	70.22
701.26	4.68
701.40	0.00
701.53	14.04
701.66	0.00
701.79	0.00
701.93	86.60
702.06	70.22
702.19	86.60
702.32	86.60
702.46	56.17
702.59	35.11
702.72	0.00
702.85	46.81
702.99	39.79
703.12	32.77
703.25	93.62
703.38	0.00
703.51	9.36
703.65	11.70
703.78	30.43
703.91	60.85
704.04	79.58
704.17	16.38
704.31	51.49
704.44	0.00
704.57	14.04
704.70	35.11
704.83	0.00
704.96	37.45
705.10	32.77
705.23	25.75
>>>>>End Processed Spectral Data<<<<<
