SpectraSuite Data File
++++++++++++++++++++++++++++++++++++
Date: Tue Oct 01 18:25:11 GMT-05:00 2013
User: stostad
Dark Spectrum Present: No
Reference Spectrum Present: No
Number of Sampled Component Spectra: 1
Spectrometers: USB2+H05261
Integration Time (usec): 100000 (USB2+H05261)
Spectra Averaged: 1 (USB2+H05261)
Boxcar Smoothing: 0 (USB2+H05261)
Correct for Electrical Dark: No (USB2+H05261)
Strobe/Lamp Enabled: No (USB2+H05261)
Correct for Detector Non-linearity: No (USB2+H05261)
Correct for Stray Light: No (USB2+H05261)
Number of Pixels in Processed Spectrum: 2048
>>>>>Begin Processed Spectral Data<<<<<
365.73	58.51
365.92	58.51
366.12	58.51
366.32	0.00
366.52	0.00
366.72	11.70
366.91	0.00
367.11	30.43
367.31	0.00
367.51	0.00
367.70	0.00
367.90	0.00
368.10	0.00
368.30	42.13
368.49	0.00
368.69	0.00
368.89	25.75
369.09	0.00
369.28	21.06
369.48	0.00
369.68	0.00
369.87	35.11
370.07	4.68
370.27	21.06
370.47	28.09
370.66	9.36
370.86	126.39
371.06	49.15
371.25	217.67
371.45	86.60
371.65	72.56
371.84	88.94
372.04	138.09
372.24	86.60
372.44	128.73
372.63	91.28
372.83	142.77
373.03	107.66
373.22	138.09
373.42	37.45
373.62	65.54
373.81	102.98
374.01	159.16
374.21	131.07
374.40	135.75
374.60	166.18
374.79	177.88
374.99	163.84
375.19	138.09
375.38	107.66
375.58	126.39
375.78	208.31
375.97	79.58
376.17	191.92
376.37	180.22
376.56	133.41
376.76	163.84
376.95	154.48
377.15	177.88
377.35	138.09
377.54	170.86
377.74	98.30
377.93	105.32
378.13	180.22
378.33	187.24
378.52	173.20
378.72	98.30
378.91	112.35
379.11	95.96
379.31	114.69
379.50	39.79
379.70	133.41
379.89	133.41
380.09	121.71
380.28	105.32
380.48	177.88
380.68	39.79
380.87	110.01
381.07	205.97
381.26	147.45
381.46	112.35
381.65	147.45
381.85	124.05
382.04	126.39
382.24	126.39
382.43	21.06
382.63	95.96
382.83	147.45
383.02	180.22
383.22	182.56
383.41	63.19
383.61	149.79
383.80	126.39
384.00	65.54
384.19	53.83
384.39	250.44
384.58	154.48
384.78	147.45
384.97	152.13
385.17	154.48
385.36	98.30
385.56	117.03
385.75	84.26
385.95	112.35
386.14	187.24
386.34	180.22
386.53	180.22
386.72	110.01
386.92	133.41
387.11	149.79
387.31	161.50
387.50	147.45
387.70	124.05
387.89	147.45
388.09	131.07
388.28	220.01
388.48	105.32
388.67	156.82
388.86	138.09
389.06	140.43
389.25	140.43
389.45	156.82
389.64	154.48
389.84	110.01
390.03	161.50
390.22	105.32
390.42	177.88
390.61	119.37
390.81	156.82
391.00	65.54
391.19	133.41
391.39	74.90
391.58	152.13
391.78	86.60
391.97	147.45
392.16	166.18
392.36	145.11
392.55	128.73
392.75	147.45
392.94	112.35
393.13	161.50
393.33	133.41
393.52	121.71
393.71	161.50
393.91	177.88
394.10	187.24
394.29	124.05
394.49	224.69
394.68	161.50
394.88	142.77
395.07	168.52
395.26	177.88
395.46	147.45
395.65	161.50
395.84	168.52
396.04	170.86
396.23	110.01
396.42	95.96
396.62	203.63
396.81	208.31
397.00	102.98
397.19	147.45
397.39	95.96
397.58	224.69
397.77	135.75
397.97	117.03
398.16	156.82
398.35	156.82
398.55	135.75
398.74	124.05
398.93	119.37
399.12	138.09
399.32	180.22
399.51	170.86
399.70	140.43
399.90	149.79
400.09	205.97
400.28	163.84
400.47	142.77
400.67	147.45
400.86	175.54
401.05	145.11
401.24	142.77
401.44	175.54
401.63	159.16
401.82	159.16
402.01	114.69
402.21	77.24
402.40	168.52
402.59	163.84
402.78	88.94
402.97	63.19
403.17	86.60
403.36	91.28
403.55	154.48
403.74	58.51
403.93	161.50
404.13	187.24
404.32	121.71
404.51	163.84
404.70	212.99
404.89	154.48
405.09	163.84
405.28	79.58
405.47	112.35
405.66	203.63
405.85	182.56
406.05	124.05
406.24	175.54
406.43	86.60
406.62	126.39
406.81	177.88
407.00	156.82
407.20	88.94
407.39	98.30
407.58	168.52
407.77	147.45
407.96	128.73
408.15	145.11
408.34	100.64
408.54	102.98
408.73	100.64
408.92	156.82
409.11	56.17
409.30	152.13
409.49	86.60
409.68	220.01
409.87	107.66
410.07	91.28
410.26	145.11
410.45	152.13
410.64	163.84
410.83	147.45
411.02	126.39
411.21	173.20
411.40	154.48
411.59	121.71
411.78	131.07
411.98	67.88
412.17	60.85
412.36	72.56
412.55	42.13
412.74	114.69
412.93	135.75
413.12	133.41
413.31	138.09
413.50	215.33
413.69	215.33
413.88	175.54
414.07	119.37
414.26	117.03
414.45	25.75
414.64	119.37
414.83	147.45
415.02	88.94
415.22	175.54
415.41	180.22
415.60	81.92
415.79	100.64
415.98	205.97
416.17	105.32
416.36	142.77
416.55	145.11
416.74	58.51
416.93	168.52
417.12	170.86
417.31	91.28
417.50	191.92
417.69	215.33
417.88	241.08
418.07	163.84
418.26	102.98
418.45	112.35
418.64	229.37
418.83	131.07
419.02	175.54
419.21	224.69
419.39	187.24
419.58	152.13
419.77	152.13
419.96	215.33
420.15	245.76
420.34	49.15
420.53	135.75
420.72	95.96
420.91	86.60
421.10	147.45
421.29	58.51
421.48	191.92
421.67	149.79
421.86	67.88
422.05	100.64
422.24	180.22
422.43	205.97
422.61	138.09
422.80	170.86
422.99	175.54
423.18	170.86
423.37	187.24
423.56	159.16
423.75	180.22
423.94	72.56
424.13	135.75
424.32	107.66
424.50	149.79
424.69	147.45
424.88	173.20
425.07	126.39
425.26	156.82
425.45	152.13
425.64	191.92
425.83	180.22
426.01	133.41
426.20	145.11
426.39	140.43
426.58	63.19
426.77	133.41
426.96	201.29
427.15	194.26
427.33	142.77
427.52	93.62
427.71	175.54
427.90	147.45
428.09	105.32
428.28	138.09
428.46	105.32
428.65	177.88
428.84	145.11
429.03	182.56
429.22	142.77
429.40	138.09
429.59	154.48
429.78	135.75
429.97	138.09
430.16	112.35
430.34	131.07
430.53	135.75
430.72	114.69
430.91	133.41
431.10	114.69
431.28	175.54
431.47	180.22
431.66	152.13
431.85	100.64
432.03	177.88
432.22	152.13
432.41	102.98
432.60	180.22
432.79	147.45
432.97	177.88
433.16	184.90
433.35	170.86
433.54	140.43
433.72	142.77
433.91	227.03
434.10	159.16
434.28	142.77
434.47	159.16
434.66	149.79
434.85	121.71
435.03	163.84
435.22	220.01
435.41	180.22
435.59	107.66
435.78	98.30
435.97	110.01
436.16	163.84
436.34	102.98
436.53	154.48
436.72	93.62
436.90	133.41
437.09	173.20
437.28	107.66
437.46	95.96
437.65	217.67
437.84	208.31
438.02	173.20
438.21	114.69
438.40	154.48
438.58	110.01
438.77	131.07
438.96	100.64
439.14	56.17
439.33	126.39
439.52	86.60
439.70	105.32
439.89	126.39
440.08	70.22
440.26	154.48
440.45	170.86
440.63	126.39
440.82	149.79
441.01	86.60
441.19	194.26
441.38	138.09
441.57	126.39
441.75	212.99
441.94	182.56
442.12	107.66
442.31	77.24
442.50	145.11
442.68	135.75
442.87	65.54
443.05	138.09
443.24	161.50
443.43	168.52
443.61	180.22
443.80	180.22
443.98	191.92
444.17	128.73
444.35	217.67
444.54	152.13
444.73	166.18
444.91	177.88
445.10	128.73
445.28	102.98
445.47	159.16
445.65	133.41
445.84	159.16
446.02	126.39
446.21	152.13
446.39	154.48
446.58	142.77
446.77	145.11
446.95	121.71
447.14	198.95
447.32	217.67
447.51	58.51
447.69	126.39
447.88	107.66
448.06	166.18
448.25	114.69
448.43	147.45
448.62	138.09
448.80	147.45
448.99	135.75
449.17	98.30
449.36	88.94
449.54	86.60
449.73	149.79
449.91	175.54
450.10	119.37
450.28	198.95
450.46	138.09
450.65	217.67
450.83	203.63
451.02	88.94
451.20	156.82
451.39	168.52
451.57	110.01
451.76	147.45
451.94	107.66
452.13	208.31
452.31	163.84
452.49	215.33
452.68	149.79
452.86	124.05
453.05	177.88
453.23	182.56
453.42	63.19
453.60	88.94
453.78	159.16
453.97	100.64
454.15	131.07
454.34	145.11
454.52	126.39
454.70	175.54
454.89	128.73
455.07	91.28
455.26	163.84
455.44	159.16
455.62	140.43
455.81	156.82
455.99	154.48
456.17	184.90
456.36	205.97
456.54	98.30
456.73	131.07
456.91	121.71
457.09	175.54
457.28	133.41
457.46	124.05
457.64	156.82
457.83	163.84
458.01	117.03
458.19	184.90
458.38	110.01
458.56	187.24
458.74	191.92
458.93	161.50
459.11	166.18
459.29	79.58
459.48	156.82
459.66	124.05
459.84	121.71
460.03	203.63
460.21	88.94
460.39	81.92
460.57	196.60
460.76	110.01
460.94	124.05
461.12	175.54
461.31	149.79
461.49	131.07
461.67	142.77
461.85	72.56
462.04	149.79
462.22	582.79
462.40	205.97
462.59	117.03
462.77	145.11
462.95	138.09
463.13	135.75
463.32	154.48
463.50	142.77
463.68	156.82
463.86	112.35
464.05	126.39
464.23	184.90
464.41	121.71
464.59	168.52
464.78	124.05
464.96	126.39
465.14	145.11
465.32	166.18
465.50	145.11
465.69	117.03
465.87	79.58
466.05	175.54
466.23	110.01
466.41	135.75
466.60	142.77
466.78	121.71
466.96	194.26
467.14	145.11
467.32	159.16
467.51	114.69
467.69	95.96
467.87	208.31
468.05	170.86
468.23	114.69
468.41	159.16
468.60	147.45
468.78	145.11
468.96	229.37
469.14	100.64
469.32	79.58
469.50	149.79
469.69	196.60
469.87	98.30
470.05	105.32
470.23	149.79
470.41	124.05
470.59	154.48
470.77	198.95
470.95	98.30
471.14	128.73
471.32	182.56
471.50	173.20
471.68	107.66
471.86	212.99
472.04	133.41
472.22	135.75
472.40	44.47
472.58	110.01
472.77	126.39
472.95	93.62
473.13	224.69
473.31	243.42
473.49	168.52
473.67	154.48
473.85	138.09
474.03	173.20
474.21	138.09
474.39	79.58
474.57	194.26
474.75	102.98
474.93	98.30
475.12	105.32
475.30	170.86
475.48	124.05
475.66	88.94
475.84	173.20
476.02	131.07
476.20	110.01
476.38	152.13
476.56	224.69
476.74	156.82
476.92	163.84
477.10	166.18
477.28	154.48
477.46	131.07
477.64	177.88
477.82	107.66
478.00	159.16
478.18	98.30
478.36	128.73
478.54	79.58
478.72	100.64
478.90	152.13
479.08	117.03
479.26	182.56
479.44	49.15
479.62	39.79
479.80	25.75
479.98	114.69
480.16	142.77
480.34	168.52
480.52	142.77
480.70	117.03
480.88	110.01
481.06	105.32
481.24	140.43
481.41	95.96
481.59	187.24
481.77	112.35
481.95	147.45
482.13	112.35
482.31	117.03
482.49	70.22
482.67	107.66
482.85	154.48
483.03	131.07
483.21	149.79
483.39	163.84
483.57	72.56
483.74	170.86
483.92	124.05
484.10	60.85
484.28	245.76
484.46	243.42
484.64	107.66
484.82	88.94
485.00	126.39
485.18	124.05
485.35	189.58
485.53	102.98
485.71	56.17
485.89	98.30
486.07	161.50
486.25	187.24
486.43	177.88
486.61	112.35
486.78	128.73
486.96	170.86
487.14	140.43
487.32	42.13
487.50	128.73
487.68	177.88
487.85	91.28
488.03	163.84
488.21	152.13
488.39	168.52
488.57	145.11
488.75	119.37
488.92	229.37
489.10	149.79
489.28	131.07
489.46	93.62
489.64	128.73
489.81	100.64
489.99	154.48
490.17	175.54
490.35	126.39
490.53	135.75
490.70	131.07
490.88	128.73
491.06	65.54
491.24	166.18
491.41	126.39
491.59	170.86
491.77	60.85
491.95	166.18
492.13	46.81
492.30	159.16
492.48	135.75
492.66	161.50
492.84	70.22
493.01	93.62
493.19	175.54
493.37	145.11
493.54	110.01
493.72	117.03
493.90	189.58
494.08	182.56
494.25	79.58
494.43	149.79
494.61	173.20
494.79	107.66
494.96	102.98
495.14	189.58
495.32	112.35
495.49	182.56
495.67	152.13
495.85	184.90
496.02	126.39
496.20	135.75
496.38	124.05
496.55	112.35
496.73	161.50
496.91	107.66
497.09	77.24
497.26	131.07
497.44	227.03
497.62	102.98
497.79	79.58
497.97	145.11
498.14	161.50
498.32	133.41
498.50	259.80
498.67	159.16
498.85	142.77
499.03	124.05
499.20	170.86
499.38	67.88
499.56	117.03
499.73	149.79
499.91	177.88
500.08	166.18
500.26	149.79
500.44	91.28
500.61	77.24
500.79	100.64
500.97	147.45
501.14	177.88
501.32	168.52
501.49	156.82
501.67	114.69
501.84	222.35
502.02	170.86
502.20	159.16
502.37	189.58
502.55	142.77
502.72	156.82
502.90	198.95
503.07	163.84
503.25	159.16
503.43	229.37
503.60	156.82
503.78	117.03
503.95	201.29
504.13	98.30
504.30	163.84
504.48	177.88
504.65	114.69
504.83	159.16
505.01	191.92
505.18	107.66
505.36	161.50
505.53	117.03
505.71	159.16
505.88	161.50
506.06	105.32
506.23	163.84
506.41	102.98
506.58	117.03
506.76	215.33
506.93	105.32
507.11	177.88
507.28	84.26
507.46	100.64
507.63	180.22
507.81	170.86
507.98	180.22
508.16	154.48
508.33	95.96
508.50	149.79
508.68	152.13
508.85	105.32
509.03	77.24
509.20	152.13
509.38	159.16
509.55	163.84
509.73	121.71
509.90	248.10
510.08	170.86
510.25	105.32
510.42	102.98
510.60	142.77
510.77	91.28
510.95	189.58
511.12	140.43
511.30	175.54
511.47	166.18
511.64	152.13
511.82	182.56
511.99	124.05
512.17	124.05
512.34	133.41
512.51	147.45
512.69	140.43
512.86	189.58
513.04	79.58
513.21	170.86
513.38	126.39
513.56	93.62
513.73	138.09
513.90	124.05
514.08	152.13
514.25	215.33
514.43	182.56
514.60	191.92
514.77	121.71
514.95	196.60
515.12	67.88
515.29	133.41
515.47	152.13
515.64	93.62
515.81	152.13
515.99	124.05
516.16	166.18
516.33	42.13
516.51	95.96
516.68	124.05
516.85	131.07
517.03	86.60
517.20	168.52
517.37	166.18
517.54	168.52
517.72	142.77
517.89	93.62
518.06	170.86
518.24	173.20
518.41	191.92
518.58	182.56
518.75	145.11
518.93	126.39
519.10	152.13
519.27	98.30
519.45	126.39
519.62	133.41
519.79	177.88
519.96	133.41
520.14	138.09
520.31	173.20
520.48	154.48
520.65	95.96
520.83	191.92
521.00	215.33
521.17	177.88
521.34	168.52
521.52	117.03
521.69	110.01
521.86	175.54
522.03	159.16
522.20	170.86
522.38	100.64
522.55	180.22
522.72	170.86
522.89	182.56
523.07	180.22
523.24	119.37
523.41	114.69
523.58	126.39
523.75	201.29
523.92	100.64
524.10	114.69
524.27	110.01
524.44	175.54
524.61	102.98
524.78	163.84
524.96	201.29
525.13	147.45
525.30	212.99
525.47	77.24
525.64	152.13
525.81	70.22
525.98	152.13
526.16	177.88
526.33	131.07
526.50	86.60
526.67	126.39
526.84	112.35
527.01	72.56
527.18	131.07
527.36	152.13
527.53	147.45
527.70	184.90
527.87	177.88
528.04	224.69
528.21	191.92
528.38	184.90
528.55	287.89
528.72	154.48
528.89	189.58
529.07	140.43
529.24	196.60
529.41	170.86
529.58	175.54
529.75	138.09
529.92	133.41
530.09	110.01
530.26	110.01
530.43	175.54
530.60	93.62
530.77	100.64
530.94	107.66
531.11	168.52
531.28	79.58
531.46	177.88
531.63	159.16
531.80	128.73
531.97	128.73
532.14	105.32
532.31	147.45
532.48	212.99
532.65	220.01
532.82	210.65
532.99	212.99
533.16	166.18
533.33	142.77
533.50	205.97
533.67	227.03
533.84	283.20
534.01	241.08
534.18	154.48
534.35	177.88
534.52	170.86
534.69	175.54
534.86	124.05
535.03	100.64
535.20	189.58
535.37	212.99
535.54	154.48
535.71	112.35
535.88	161.50
536.05	128.73
536.22	245.76
536.38	159.16
536.55	184.90
536.72	147.45
536.89	177.88
537.06	110.01
537.23	63.19
537.40	102.98
537.57	119.37
537.74	147.45
537.91	212.99
538.08	147.45
538.25	145.11
538.42	70.22
538.59	154.48
538.75	91.28
538.92	133.41
539.09	168.52
539.26	196.60
539.43	418.96
539.60	753.65
539.77	1046.22
539.94	819.19
540.11	428.32
540.28	299.59
540.44	154.48
540.61	217.67
540.78	121.71
540.95	189.58
541.12	175.54
541.29	117.03
541.46	189.58
541.62	112.35
541.79	140.43
541.96	112.35
542.13	88.94
542.30	159.16
542.47	220.01
542.63	154.48
542.80	112.35
542.97	74.90
543.14	187.24
543.31	138.09
543.48	145.11
543.64	154.48
543.81	39.79
543.98	159.16
544.15	196.60
544.32	119.37
544.48	189.58
544.65	142.77
544.82	56.17
544.99	131.07
545.16	187.24
545.32	107.66
545.49	166.18
545.66	81.92
545.83	44.47
546.00	117.03
546.16	177.88
546.33	140.43
546.50	208.31
546.67	231.71
546.83	119.37
547.00	84.26
547.17	91.28
547.34	154.48
547.50	133.41
547.67	93.62
547.84	88.94
548.00	210.65
548.17	142.77
548.34	84.26
548.51	145.11
548.67	105.32
548.84	149.79
549.01	194.26
549.18	196.60
549.34	152.13
549.51	180.22
549.68	117.03
549.84	37.45
550.01	131.07
550.18	299.59
550.34	245.76
550.51	124.05
550.68	229.37
550.84	114.69
551.01	100.64
551.18	220.01
551.34	161.50
551.51	140.43
551.68	86.60
551.84	140.43
552.01	149.79
552.18	95.96
552.34	252.78
552.51	191.92
552.68	154.48
552.84	84.26
553.01	91.28
553.18	184.90
553.34	128.73
553.51	98.30
553.67	170.86
553.84	184.90
554.01	196.60
554.17	112.35
554.34	177.88
554.51	131.07
554.67	215.33
554.84	170.86
555.00	243.42
555.17	161.50
555.33	210.65
555.50	159.16
555.67	145.11
555.83	184.90
556.00	215.33
556.16	250.44
556.33	201.29
556.50	107.66
556.66	142.77
556.83	135.75
556.99	145.11
557.16	208.31
557.32	154.48
557.49	196.60
557.65	147.45
557.82	198.95
557.98	182.56
558.15	128.73
558.32	191.92
558.48	112.35
558.65	117.03
558.81	166.18
558.98	149.79
559.14	128.73
559.31	161.50
559.47	152.13
559.64	140.43
559.80	203.63
559.97	142.77
560.13	128.73
560.30	184.90
560.46	88.94
560.63	86.60
560.79	95.96
560.96	140.43
561.12	88.94
561.29	102.98
561.45	140.43
561.61	142.77
561.78	191.92
561.94	95.96
562.11	145.11
562.27	208.31
562.44	119.37
562.60	91.28
562.77	168.52
562.93	147.45
563.10	187.24
563.26	110.01
563.42	196.60
563.59	175.54
563.75	86.60
563.92	133.41
564.08	170.86
564.24	208.31
564.41	114.69
564.57	70.22
564.74	126.39
564.90	175.54
565.07	175.54
565.23	196.60
565.39	140.43
565.56	224.69
565.72	131.07
565.88	145.11
566.05	229.37
566.21	86.60
566.38	84.26
566.54	95.96
566.70	142.77
566.87	149.79
567.03	112.35
567.19	133.41
567.36	86.60
567.52	149.79
567.68	119.37
567.85	217.67
568.01	128.73
568.17	152.13
568.34	121.71
568.50	149.79
568.66	131.07
568.83	194.26
568.99	142.77
569.15	147.45
569.32	191.92
569.48	124.05
569.64	168.52
569.81	180.22
569.97	91.28
570.13	170.86
570.30	180.22
570.46	110.01
570.62	124.05
570.78	107.66
570.95	86.60
571.11	210.65
571.27	166.18
571.43	23.41
571.60	126.39
571.76	198.95
571.92	135.75
572.09	142.77
572.25	168.52
572.41	152.13
572.57	105.32
572.74	234.05
572.90	117.03
573.06	184.90
573.22	102.98
573.38	238.73
573.55	210.65
573.71	175.54
573.87	124.05
574.03	170.86
574.20	252.78
574.36	168.52
574.52	217.67
574.68	180.22
574.84	163.84
575.01	74.90
575.17	149.79
575.33	140.43
575.49	145.11
575.65	168.52
575.82	283.20
575.98	465.77
576.14	414.27
576.30	283.20
576.46	238.73
576.62	259.80
576.79	220.01
576.95	154.48
577.11	184.90
577.27	187.24
577.43	147.45
577.59	145.11
577.75	210.65
577.92	166.18
578.08	100.64
578.24	74.90
578.40	70.22
578.56	187.24
578.72	283.20
578.88	262.14
579.04	175.54
579.21	166.18
579.37	187.24
579.53	196.60
579.69	234.05
579.85	147.45
580.01	203.63
580.17	208.31
580.33	255.12
580.49	159.16
580.65	283.20
580.82	198.95
580.98	201.29
581.14	173.20
581.30	278.52
581.46	264.48
581.62	369.80
581.78	358.10
581.94	292.57
582.10	334.70
582.26	243.42
582.42	149.79
582.58	238.73
582.74	189.58
582.90	264.48
583.06	276.18
583.22	306.61
583.38	245.76
583.54	313.63
583.70	404.91
583.86	397.89
584.02	545.34
584.18	676.41
584.34	1235.80
584.50	8229.32
584.66	28804.97
584.82	48636.33
584.98	50061.72
585.14	31803.20
585.30	16809.73
585.46	7976.55
585.62	3091.85
585.78	1376.24
585.94	816.85
586.10	571.09
586.26	510.24
586.42	402.57
586.58	337.04
586.74	308.95
586.90	318.31
587.06	367.46
587.22	346.40
587.38	491.51
587.54	1540.07
587.70	3136.32
587.86	3953.16
588.02	2899.92
588.18	1774.13
588.34	1048.56
588.49	531.30
588.65	367.46
588.81	187.24
588.97	173.20
589.13	198.95
589.29	259.80
589.45	205.97
589.61	229.37
589.77	257.46
589.93	290.23
590.08	292.57
590.24	313.63
590.40	241.08
590.56	229.37
590.72	166.18
590.88	201.29
591.04	224.69
591.20	208.31
591.35	196.60
591.51	201.29
591.67	145.11
591.83	187.24
591.99	149.79
592.15	208.31
592.31	212.99
592.46	210.65
592.62	283.20
592.78	208.31
592.94	170.86
593.10	212.99
593.26	248.10
593.41	252.78
593.57	386.19
593.73	1284.95
593.89	3763.58
594.05	6101.78
594.20	6317.11
594.36	4318.29
594.52	2450.54
594.68	1217.08
594.84	664.71
594.99	386.19
595.15	285.55
595.31	248.10
595.47	208.31
595.62	198.95
595.78	154.48
595.94	182.56
596.10	308.95
596.25	262.14
596.41	194.26
596.57	147.45
596.73	294.91
596.88	755.99
597.04	1270.91
597.20	1565.82
597.36	1259.21
597.51	828.55
597.67	538.32
597.83	287.89
597.99	187.24
598.14	184.90
598.30	205.97
598.46	194.26
598.61	278.52
598.77	159.16
598.93	215.33
599.09	191.92
599.24	81.92
599.40	161.50
599.56	170.86
599.71	135.75
599.87	163.84
600.03	117.03
600.18	156.82
600.34	56.17
600.50	182.56
600.65	194.26
600.81	189.58
600.97	208.31
601.12	215.33
601.28	222.35
601.44	147.45
601.59	161.50
601.75	154.48
601.91	119.37
602.06	238.73
602.22	489.17
602.37	1046.22
602.53	1671.14
602.69	1727.32
602.84	1217.08
603.00	877.70
603.16	613.22
603.31	489.17
603.47	269.16
603.62	154.48
603.78	187.24
603.94	177.88
604.09	212.99
604.25	220.01
604.40	138.09
604.56	149.79
604.71	184.90
604.87	189.58
605.03	161.50
605.18	243.42
605.34	257.46
605.49	187.24
605.65	180.22
605.80	159.16
605.96	241.08
606.12	229.37
606.27	257.46
606.43	252.78
606.58	638.97
606.74	1916.90
606.89	4126.36
607.05	5210.03
607.20	4372.12
607.36	3009.93
607.51	1774.13
607.67	1093.03
607.82	664.71
607.98	313.63
608.13	264.48
608.29	229.37
608.44	304.27
608.60	292.57
608.75	828.55
608.91	3187.81
609.06	6628.40
609.22	8987.66
609.37	7604.40
609.53	5064.92
609.68	3283.77
609.84	1975.41
609.99	952.60
610.15	449.38
610.30	259.80
610.46	285.55
610.61	301.93
610.76	203.63
610.92	170.86
611.07	187.24
611.23	297.25
611.38	252.78
611.54	252.78
611.69	191.92
611.84	149.79
612.00	194.26
612.15	198.95
612.31	339.38
612.46	393.21
612.62	278.52
612.77	456.40
612.92	287.89
613.08	285.55
613.23	283.20
613.39	669.39
613.54	3215.90
613.69	8606.15
613.85	13558.72
614.00	13638.30
614.15	9795.14
614.31	6190.72
614.46	3927.42
614.62	2073.71
614.77	1006.43
614.92	428.32
615.08	400.23
615.23	318.31
615.38	301.93
615.54	723.23
615.69	1710.93
615.84	3155.04
616.00	3707.41
616.15	3007.59
616.30	1886.47
616.46	1350.49
616.61	784.08
616.76	449.38
616.92	322.99
617.07	201.29
617.22	182.56
617.37	205.97
617.53	262.14
617.68	215.33
617.83	201.29
617.99	203.63
618.14	238.73
618.29	210.65
618.45	180.22
618.60	156.82
618.75	205.97
618.90	166.18
619.06	170.86
619.21	269.16
619.36	163.84
619.51	159.16
619.67	124.05
619.82	194.26
619.97	184.90
620.12	194.26
620.28	220.01
620.43	227.03
620.58	180.22
620.73	140.43
620.89	376.83
621.04	1006.43
621.19	1757.74
621.34	2256.28
621.49	1935.62
621.65	1352.83
621.80	926.85
621.95	620.24
622.10	393.21
622.25	201.29
622.41	205.97
622.56	191.92
622.71	262.14
622.86	229.37
623.01	65.54
623.16	280.86
623.32	170.86
623.47	166.18
623.62	117.03
623.77	215.33
623.92	191.92
624.07	128.73
624.23	187.24
624.38	212.99
624.53	142.77
624.68	156.82
624.83	238.73
624.98	201.29
625.13	147.45
625.29	128.73
625.44	154.48
625.59	278.52
625.74	500.87
625.89	1858.39
626.04	4484.47
626.19	7096.50
626.34	7096.50
626.49	5308.34
626.65	3468.67
626.80	2303.09
626.95	1343.47
627.10	655.35
627.25	397.89
627.40	306.61
627.55	250.44
627.70	196.60
627.85	191.92
628.00	215.33
628.15	166.18
628.30	173.20
628.45	168.52
628.60	145.11
628.76	191.92
628.91	163.84
629.06	138.09
629.21	142.77
629.36	175.54
629.51	189.58
629.66	435.34
629.81	983.02
629.96	1563.48
630.11	1919.24
630.26	1596.25
630.41	1167.93
630.56	816.85
630.71	564.07
630.86	353.42
631.01	273.84
631.16	255.12
631.31	264.48
631.46	170.86
631.61	138.09
631.76	191.92
631.91	175.54
632.06	259.80
632.21	287.89
632.36	280.86
632.51	322.99
632.66	1015.79
632.81	2576.93
632.96	4252.75
633.10	4744.27
633.25	3791.67
633.40	2637.78
633.55	1783.49
633.70	1137.50
633.85	617.90
634.00	271.50
634.15	299.59
634.30	236.39
634.45	112.35
634.60	229.37
634.75	182.56
634.90	203.63
635.05	175.54
635.19	187.24
635.34	187.24
635.49	154.48
635.64	91.28
635.79	161.50
635.94	217.67
636.09	142.77
636.24	220.01
636.39	212.99
636.53	287.89
636.68	114.69
636.83	203.63
636.98	156.82
637.13	287.89
637.28	304.27
637.43	737.27
637.57	2668.21
637.72	5991.77
637.87	8835.52
638.02	8196.56
638.17	6272.64
638.32	4205.94
638.46	2661.19
638.61	1680.50
638.76	873.02
638.91	491.51
639.06	393.21
639.20	470.45
639.35	992.39
639.50	3948.48
639.65	8940.85
639.80	13523.62
639.94	12725.49
640.09	9692.16
640.24	6401.37
640.39	4154.45
640.54	2239.89
640.68	1128.14
640.83	603.86
640.98	421.30
641.13	241.08
641.27	245.76
641.42	222.35
641.57	229.37
641.72	184.90
641.86	238.73
642.01	142.77
642.16	194.26
642.31	124.05
642.45	170.86
642.60	112.35
642.75	173.20
642.90	264.48
643.04	114.69
643.19	203.63
643.34	170.86
643.48	205.97
643.63	77.24
643.78	238.73
643.93	177.88
644.07	203.63
644.22	149.79
644.37	107.66
644.51	126.39
644.66	170.86
644.81	133.41
644.95	168.52
645.10	191.92
645.25	138.09
645.39	147.45
645.54	203.63
645.69	210.65
645.83	133.41
645.98	168.52
646.13	145.11
646.27	161.50
646.42	79.58
646.57	166.18
646.71	91.28
646.86	173.20
647.00	93.62
647.15	184.90
647.30	170.86
647.44	189.58
647.59	88.94
647.74	145.11
647.88	248.10
648.03	77.24
648.17	173.20
648.32	184.90
648.47	175.54
648.61	187.24
648.76	147.45
648.90	198.95
649.05	142.77
649.20	156.82
649.34	140.43
649.49	208.31
649.63	222.35
649.78	379.17
649.92	1844.34
650.07	4058.49
650.21	6340.51
650.36	7054.37
650.51	5362.17
650.65	3756.56
650.80	2548.84
650.94	1446.45
651.09	788.76
651.23	456.40
651.38	409.59
651.52	208.31
651.67	147.45
651.81	215.33
651.96	255.12
652.10	243.42
652.25	175.54
652.39	245.76
652.54	620.24
652.68	1399.64
652.83	2242.23
652.97	2541.82
653.12	2111.16
653.26	1497.94
653.41	1060.26
653.55	683.44
653.70	416.62
653.84	252.78
653.99	229.37
654.13	159.16
654.27	184.90
654.42	175.54
654.56	182.56
654.71	161.50
654.85	182.56
655.00	119.37
655.14	0.00
655.29	135.75
655.43	175.54
655.57	184.90
655.72	135.75
655.86	210.65
656.01	220.01
656.15	131.07
656.30	187.24
656.44	133.41
656.58	205.97
656.73	154.48
656.87	124.05
657.01	266.82
657.16	128.73
657.30	187.24
657.45	187.24
657.59	152.13
657.73	91.28
657.88	133.41
658.02	212.99
658.16	184.90
658.31	198.95
658.45	205.97
658.60	170.86
658.74	121.71
658.88	152.13
659.03	271.50
659.17	720.88
659.31	1895.83
659.46	3152.70
659.60	3782.31
659.74	2981.84
659.89	2258.62
660.03	1432.41
660.17	938.55
660.32	507.90
660.46	423.64
660.60	159.16
660.74	191.92
660.89	147.45
661.03	135.75
661.17	168.52
661.32	145.11
661.46	159.16
661.60	77.24
661.74	133.41
661.89	152.13
662.03	147.45
662.17	166.18
662.31	114.69
662.46	152.13
662.60	124.05
662.74	166.18
662.88	154.48
663.03	117.03
663.17	98.30
663.31	159.16
663.45	152.13
663.60	67.88
663.74	107.66
663.88	117.03
664.02	170.86
664.17	135.75
664.31	184.90
664.45	175.54
664.59	182.56
664.73	159.16
664.88	147.45
665.02	79.58
665.16	245.76
665.30	191.92
665.44	110.01
665.59	184.90
665.73	224.69
665.87	243.42
666.01	182.56
666.15	138.09
666.29	196.60
666.44	187.24
666.58	227.03
666.72	224.69
666.86	205.97
667.00	470.45
667.14	1434.75
667.28	3524.85
667.43	5736.65
667.57	6459.88
667.71	5158.54
667.85	3625.49
667.99	2162.66
668.13	1364.53
668.27	851.96
668.41	519.60
668.56	313.63
668.70	208.31
668.84	180.22
668.98	222.35
669.12	194.26
669.26	159.16
669.40	252.78
669.54	163.84
669.68	191.92
669.82	180.22
669.96	201.29
670.10	152.13
670.25	149.79
670.39	229.37
670.53	156.82
670.67	147.45
670.81	201.29
670.95	367.46
671.09	1336.45
671.23	2703.32
671.37	3901.67
671.51	3915.72
671.65	3042.70
671.79	1823.28
671.93	1165.59
672.07	779.40
672.21	489.17
672.35	308.95
672.49	229.37
672.63	224.69
672.77	152.13
672.91	86.60
673.05	135.75
673.19	135.75
673.33	77.24
673.47	238.73
673.61	93.62
673.75	163.84
673.89	159.16
674.03	255.12
674.17	138.09
674.31	184.90
674.45	168.52
674.59	112.35
674.73	234.05
674.87	203.63
675.01	255.12
675.15	173.20
675.29	212.99
675.43	210.65
675.56	131.07
675.70	170.86
675.84	133.41
675.98	138.09
676.12	95.96
676.26	156.82
676.40	112.35
676.54	138.09
676.68	135.75
676.82	191.92
676.96	154.48
677.10	177.88
677.23	177.88
677.37	65.54
677.51	173.20
677.65	222.35
677.79	138.09
677.93	110.01
678.07	142.77
678.21	166.18
678.34	140.43
678.48	135.75
678.62	166.18
678.76	81.92
678.90	184.90
679.04	152.13
679.18	140.43
679.31	126.39
679.45	147.45
679.59	133.41
679.73	133.41
679.87	74.90
680.00	170.86
680.14	105.32
680.28	149.79
680.42	91.28
680.56	180.22
680.70	133.41
680.83	168.52
680.97	112.35
681.11	161.50
681.25	175.54
681.39	91.28
681.52	112.35
681.66	173.20
681.80	131.07
681.94	114.69
682.07	177.88
682.21	133.41
682.35	112.35
682.49	145.11
682.62	161.50
682.76	95.96
682.90	175.54
683.04	140.43
683.17	149.79
683.31	140.43
683.45	224.69
683.59	238.73
683.72	196.60
683.86	191.92
684.00	140.43
684.13	266.82
684.27	72.56
684.41	205.97
684.55	107.66
684.68	105.32
684.82	159.16
684.96	241.08
685.09	159.16
685.23	98.30
685.37	121.71
685.50	152.13
685.64	161.50
685.78	215.33
685.91	77.24
686.05	142.77
686.19	138.09
686.32	124.05
686.46	196.60
686.60	168.52
686.73	259.80
686.87	210.65
687.01	191.92
687.14	140.43
687.28	205.97
687.42	212.99
687.55	159.16
687.69	135.75
687.82	77.24
687.96	168.52
688.10	163.84
688.23	205.97
688.37	184.90
688.50	180.22
688.64	147.45
688.78	166.18
688.91	117.03
689.05	149.79
689.18	166.18
689.32	180.22
689.46	187.24
689.59	147.45
689.73	210.65
689.86	67.88
690.00	154.48
690.13	182.56
690.27	105.32
690.41	177.88
690.54	133.41
690.68	161.50
690.81	180.22
690.95	163.84
691.08	135.75
691.22	128.73
691.35	180.22
691.49	124.05
691.62	170.86
691.76	168.52
691.89	128.73
692.03	187.24
692.16	259.80
692.30	538.32
692.43	1397.30
692.57	2331.17
692.70	2656.51
692.84	2410.75
692.97	1933.28
693.11	1479.22
693.24	1025.15
693.38	683.44
693.51	472.79
693.65	327.68
693.78	177.88
693.92	201.29
694.05	173.20
694.19	191.92
694.32	154.48
694.45	168.52
694.59	114.69
694.72	88.94
694.86	173.20
694.99	102.98
695.13	100.64
695.26	124.05
695.39	114.69
695.53	180.22
695.66	138.09
695.80	124.05
695.93	177.88
696.07	201.29
696.20	308.95
696.33	294.91
696.47	402.57
696.60	283.20
696.73	271.50
696.87	177.88
697.00	201.29
697.14	182.56
697.27	154.48
697.40	194.26
697.54	100.64
697.67	138.09
697.80	149.79
697.94	112.35
698.07	163.84
698.21	212.99
698.34	121.71
698.47	110.01
698.61	189.58
698.74	107.66
698.87	180.22
699.01	128.73
699.14	142.77
699.27	182.56
699.40	241.08
699.54	121.71
699.67	184.90
699.80	121.71
699.94	142.77
700.07	170.86
700.20	163.84
700.34	304.27
700.47	107.66
700.60	149.79
700.73	77.24
700.87	119.37
701.00	140.43
701.13	163.84
701.26	124.05
701.40	203.63
701.53	201.29
701.66	140.43
701.79	128.73
701.93	161.50
702.06	299.59
702.19	304.27
702.32	367.46
702.46	397.89
702.59	711.52
702.72	1811.57
702.85	3339.94
702.99	4711.50
703.12	5338.76
703.25	4376.80
703.38	3723.79
703.51	2967.80
703.65	2104.14
703.78	1383.26
703.91	931.53
704.04	552.37
704.17	414.27
704.31	290.23
704.44	133.41
704.57	238.73
704.70	224.69
704.83	189.58
704.96	194.26
705.10	184.90
705.23	177.88
>>>>>End Processed Spectral Data<<<<<
