SpectraSuite Data File
++++++++++++++++++++++++++++++++++++
Date: Fri Oct 04 12:13:27 GMT-05:00 2013
User: price-jones
Dark Spectrum Present: No
Reference Spectrum Present: No
Number of Sampled Component Spectra: 1
Spectrometers: USB2+H05261
Integration Time (usec): 10000 (USB2+H05261)
Spectra Averaged: 1 (USB2+H05261)
Boxcar Smoothing: 0 (USB2+H05261)
Correct for Electrical Dark: No (USB2+H05261)
Strobe/Lamp Enabled: No (USB2+H05261)
Correct for Detector Non-linearity: No (USB2+H05261)
Correct for Stray Light: No (USB2+H05261)
Number of Pixels in Processed Spectrum: 2048
>>>>>Begin Processed Spectral Data<<<<<
365.73	0.00
365.92	0.00
366.12	0.00
366.32	0.00
366.52	0.00
366.72	0.00
366.91	0.00
367.11	0.00
367.31	0.00
367.51	0.00
367.70	0.00
367.90	0.00
368.10	0.00
368.30	0.00
368.49	0.00
368.69	0.00
368.89	0.00
369.09	0.00
369.28	0.00
369.48	0.00
369.68	0.00
369.87	0.00
370.07	0.00
370.27	0.00
370.47	0.00
370.66	0.00
370.86	0.00
371.06	0.00
371.25	21.06
371.45	25.75
371.65	21.06
371.84	28.09
372.04	51.49
372.24	23.41
372.44	42.13
372.63	0.00
372.83	0.00
373.03	60.85
373.22	0.00
373.42	39.79
373.62	9.36
373.81	4.68
374.01	49.15
374.21	14.04
374.40	84.26
374.60	0.00
374.79	56.17
374.99	0.00
375.19	0.00
375.38	42.13
375.58	0.00
375.78	16.38
375.97	28.09
376.17	60.85
376.37	32.77
376.56	0.00
376.76	0.00
376.95	77.24
377.15	18.72
377.35	60.85
377.54	16.38
377.74	35.11
377.93	0.00
378.13	0.00
378.33	0.00
378.52	11.70
378.72	72.56
378.91	25.75
379.11	0.00
379.31	0.00
379.50	0.00
379.70	53.83
379.89	32.77
380.09	117.03
380.28	7.02
380.48	9.36
380.68	28.09
380.87	7.02
381.07	9.36
381.26	16.38
381.46	7.02
381.65	39.79
381.85	60.85
382.04	0.00
382.24	46.81
382.43	9.36
382.63	18.72
382.83	16.38
383.02	0.00
383.22	32.77
383.41	32.77
383.61	0.00
383.80	0.00
384.00	79.58
384.19	14.04
384.39	23.41
384.58	46.81
384.78	0.00
384.97	0.00
385.17	23.41
385.36	65.54
385.56	16.38
385.75	63.19
385.95	0.00
386.14	39.79
386.34	39.79
386.53	16.38
386.72	0.00
386.92	0.00
387.11	9.36
387.31	0.00
387.50	58.51
387.70	0.00
387.89	42.13
388.09	9.36
388.28	0.00
388.48	35.11
388.67	9.36
388.86	0.00
389.06	100.64
389.25	112.35
389.45	51.49
389.64	72.56
389.84	0.00
390.03	0.00
390.22	16.38
390.42	112.35
390.61	18.72
390.81	37.45
391.00	42.13
391.19	56.17
391.39	0.00
391.58	32.77
391.78	72.56
391.97	9.36
392.16	0.00
392.36	0.00
392.55	32.77
392.75	42.13
392.94	0.00
393.13	0.00
393.33	51.49
393.52	0.00
393.71	0.00
393.91	0.00
394.10	0.00
394.29	4.68
394.49	39.79
394.68	46.81
394.88	0.00
395.07	0.00
395.26	0.00
395.46	23.41
395.65	39.79
395.84	0.00
396.04	46.81
396.23	42.13
396.42	32.77
396.62	70.22
396.81	23.41
397.00	18.72
397.19	58.51
397.39	42.13
397.58	30.43
397.77	0.00
397.97	4.68
398.16	0.00
398.35	60.85
398.55	0.00
398.74	32.77
398.93	63.19
399.12	2.34
399.32	49.15
399.51	0.00
399.70	42.13
399.90	67.88
400.09	23.41
400.28	91.28
400.47	0.00
400.67	0.00
400.86	42.13
401.05	18.72
401.24	51.49
401.44	67.88
401.63	37.45
401.82	4.68
402.01	32.77
402.21	0.00
402.40	0.00
402.59	4.68
402.78	25.75
402.97	0.00
403.17	35.11
403.36	56.17
403.55	0.00
403.74	67.88
403.93	0.00
404.13	25.75
404.32	0.00
404.51	14.04
404.70	25.75
404.89	30.43
405.09	28.09
405.28	72.56
405.47	0.00
405.66	0.00
405.85	28.09
406.05	63.19
406.24	21.06
406.43	0.00
406.62	18.72
406.81	37.45
407.00	16.38
407.20	58.51
407.39	28.09
407.58	16.38
407.77	18.72
407.96	86.60
408.15	30.43
408.34	88.94
408.54	9.36
408.73	11.70
408.92	9.36
409.11	11.70
409.30	14.04
409.49	65.54
409.68	86.60
409.87	4.68
410.07	67.88
410.26	21.06
410.45	175.54
410.64	51.49
410.83	0.00
411.02	0.00
411.21	0.00
411.40	63.19
411.59	0.00
411.78	0.00
411.98	67.88
412.17	65.54
412.36	42.13
412.55	37.45
412.74	70.22
412.93	44.47
413.12	25.75
413.31	44.47
413.50	46.81
413.69	25.75
413.88	4.68
414.07	0.00
414.26	51.49
414.45	28.09
414.64	51.49
414.83	46.81
415.02	11.70
415.22	93.62
415.41	0.00
415.60	46.81
415.79	0.00
415.98	0.00
416.17	32.77
416.36	65.54
416.55	0.00
416.74	49.15
416.93	39.79
417.12	74.90
417.31	23.41
417.50	42.13
417.69	28.09
417.88	18.72
418.07	58.51
418.26	18.72
418.45	37.45
418.64	9.36
418.83	98.30
419.02	42.13
419.21	67.88
419.39	14.04
419.58	37.45
419.77	72.56
419.96	30.43
420.15	2.34
420.34	11.70
420.53	14.04
420.72	2.34
420.91	58.51
421.10	81.92
421.29	0.00
421.48	46.81
421.67	23.41
421.86	11.70
422.05	60.85
422.24	42.13
422.43	0.00
422.61	14.04
422.80	21.06
422.99	35.11
423.18	81.92
423.37	46.81
423.56	0.00
423.75	39.79
423.94	58.51
424.13	91.28
424.32	28.09
424.50	16.38
424.69	21.06
424.88	63.19
425.07	4.68
425.26	18.72
425.45	11.70
425.64	18.72
425.83	14.04
426.01	21.06
426.20	0.00
426.39	9.36
426.58	0.00
426.77	0.00
426.96	53.83
427.15	0.00
427.33	14.04
427.52	23.41
427.71	11.70
427.90	4.68
428.09	25.75
428.28	49.15
428.46	0.00
428.65	51.49
428.84	14.04
429.03	7.02
429.22	49.15
429.40	0.00
429.59	0.00
429.78	37.45
429.97	128.73
430.16	9.36
430.34	21.06
430.53	88.94
430.72	58.51
430.91	28.09
431.10	37.45
431.28	79.58
431.47	42.13
431.66	35.11
431.85	81.92
432.03	72.56
432.22	67.88
432.41	28.09
432.60	0.00
432.79	0.00
432.97	23.41
433.16	63.19
433.35	46.81
433.54	0.00
433.72	119.37
433.91	21.06
434.10	28.09
434.28	0.00
434.47	0.00
434.66	39.79
434.85	49.15
435.03	9.36
435.22	0.00
435.41	0.00
435.59	0.00
435.78	49.15
435.97	65.54
436.16	74.90
436.34	37.45
436.53	0.00
436.72	0.00
436.90	0.00
437.09	77.24
437.28	70.22
437.46	0.00
437.65	84.26
437.84	37.45
438.02	16.38
438.21	28.09
438.40	0.00
438.58	74.90
438.77	37.45
438.96	18.72
439.14	56.17
439.33	58.51
439.52	67.88
439.70	18.72
439.89	0.00
440.08	86.60
440.26	0.00
440.45	39.79
440.63	0.00
440.82	25.75
441.01	16.38
441.19	32.77
441.38	77.24
441.57	18.72
441.75	102.98
441.94	14.04
442.12	14.04
442.31	60.85
442.50	18.72
442.68	56.17
442.87	23.41
443.05	58.51
443.24	70.22
443.43	51.49
443.61	37.45
443.80	0.00
443.98	0.00
444.17	35.11
444.35	0.00
444.54	18.72
444.73	0.00
444.91	53.83
445.10	0.00
445.28	0.00
445.47	0.00
445.65	77.24
445.84	77.24
446.02	39.79
446.21	100.64
446.39	14.04
446.58	0.00
446.77	53.83
446.95	95.96
447.14	35.11
447.32	18.72
447.51	58.51
447.69	18.72
447.88	58.51
448.06	46.81
448.25	56.17
448.43	0.00
448.62	86.60
448.80	70.22
448.99	14.04
449.17	0.00
449.36	0.00
449.54	0.00
449.73	9.36
449.91	9.36
450.10	98.30
450.28	77.24
450.46	88.94
450.65	72.56
450.83	72.56
451.02	2.34
451.20	49.15
451.39	63.19
451.57	81.92
451.76	0.00
451.94	86.60
452.13	2.34
452.31	77.24
452.49	0.00
452.68	65.54
452.86	35.11
453.05	0.00
453.23	16.38
453.42	23.41
453.60	25.75
453.78	0.00
453.97	58.51
454.15	0.00
454.34	79.58
454.52	77.24
454.70	42.13
454.89	67.88
455.07	28.09
455.26	0.00
455.44	0.00
455.62	39.79
455.81	2.34
455.99	60.85
456.17	32.77
456.36	21.06
456.54	53.83
456.73	30.43
456.91	0.00
457.09	93.62
457.28	49.15
457.46	16.38
457.64	0.00
457.83	46.81
458.01	56.17
458.19	4.68
458.38	35.11
458.56	0.00
458.74	4.68
458.93	28.09
459.11	23.41
459.29	14.04
459.48	0.00
459.66	46.81
459.84	44.47
460.03	25.75
460.21	72.56
460.39	16.38
460.57	37.45
460.76	0.00
460.94	23.41
461.12	44.47
461.31	28.09
461.49	0.00
461.67	49.15
461.85	9.36
462.04	30.43
462.22	124.05
462.40	18.72
462.59	28.09
462.77	0.00
462.95	32.77
463.13	53.83
463.32	23.41
463.50	32.77
463.68	0.00
463.86	56.17
464.05	25.75
464.23	25.75
464.41	18.72
464.59	65.54
464.78	9.36
464.96	42.13
465.14	70.22
465.32	63.19
465.50	98.30
465.69	0.00
465.87	7.02
466.05	9.36
466.23	2.34
466.41	46.81
466.60	28.09
466.78	21.06
466.96	42.13
467.14	0.00
467.32	0.00
467.51	46.81
467.69	37.45
467.87	63.19
468.05	0.00
468.23	70.22
468.41	49.15
468.60	88.94
468.78	46.81
468.96	11.70
469.14	2.34
469.32	35.11
469.50	46.81
469.69	46.81
469.87	44.47
470.05	7.02
470.23	23.41
470.41	0.00
470.59	25.75
470.77	84.26
470.95	28.09
471.14	11.70
471.32	28.09
471.50	65.54
471.68	95.96
471.86	28.09
472.04	70.22
472.22	53.83
472.40	51.49
472.58	42.13
472.77	67.88
472.95	14.04
473.13	51.49
473.31	77.24
473.49	35.11
473.67	39.79
473.85	23.41
474.03	72.56
474.21	88.94
474.39	18.72
474.57	91.28
474.75	25.75
474.93	2.34
475.12	28.09
475.30	0.00
475.48	35.11
475.66	18.72
475.84	0.00
476.02	23.41
476.20	0.00
476.38	39.79
476.56	21.06
476.74	32.77
476.92	0.00
477.10	42.13
477.28	32.77
477.46	11.70
477.64	32.77
477.82	25.75
478.00	0.00
478.18	0.00
478.36	86.60
478.54	0.00
478.72	102.98
478.90	58.51
479.08	11.70
479.26	117.03
479.44	0.00
479.62	0.00
479.80	49.15
479.98	21.06
480.16	86.60
480.34	14.04
480.52	39.79
480.70	91.28
480.88	16.38
481.06	0.00
481.24	21.06
481.41	0.00
481.59	49.15
481.77	46.81
481.95	42.13
482.13	30.43
482.31	37.45
482.49	119.37
482.67	84.26
482.85	100.64
483.03	79.58
483.21	53.83
483.39	79.58
483.57	0.00
483.74	37.45
483.92	42.13
484.10	16.38
484.28	30.43
484.46	79.58
484.64	0.00
484.82	67.88
485.00	100.64
485.18	39.79
485.35	14.04
485.53	18.72
485.71	7.02
485.89	0.00
486.07	32.77
486.25	56.17
486.43	0.00
486.61	91.28
486.78	0.00
486.96	51.49
487.14	0.00
487.32	140.43
487.50	7.02
487.68	14.04
487.85	60.85
488.03	77.24
488.21	58.51
488.39	77.24
488.57	65.54
488.75	63.19
488.92	70.22
489.10	60.85
489.28	44.47
489.46	53.83
489.64	0.00
489.81	133.41
489.99	65.54
490.17	0.00
490.35	63.19
490.53	37.45
490.70	14.04
490.88	44.47
491.06	21.06
491.24	30.43
491.41	110.01
491.59	18.72
491.77	79.58
491.95	0.00
492.13	2.34
492.30	35.11
492.48	102.98
492.66	32.77
492.84	72.56
493.01	86.60
493.19	32.77
493.37	79.58
493.54	37.45
493.72	11.70
493.90	51.49
494.08	112.35
494.25	84.26
494.43	72.56
494.61	91.28
494.79	58.51
494.96	0.00
495.14	58.51
495.32	23.41
495.49	0.00
495.67	100.64
495.85	81.92
496.02	77.24
496.20	30.43
496.38	0.00
496.55	0.00
496.73	37.45
496.91	0.00
497.09	7.02
497.26	7.02
497.44	18.72
497.62	95.96
497.79	44.47
497.97	0.00
498.14	56.17
498.32	70.22
498.50	0.00
498.67	60.85
498.85	35.11
499.03	9.36
499.20	7.02
499.38	4.68
499.56	44.47
499.73	74.90
499.91	53.83
500.08	84.26
500.26	37.45
500.44	42.13
500.61	16.38
500.79	32.77
500.97	56.17
501.14	49.15
501.32	58.51
501.49	39.79
501.67	42.13
501.84	44.47
502.02	72.56
502.20	35.11
502.37	67.88
502.55	93.62
502.72	56.17
502.90	56.17
503.07	65.54
503.25	14.04
503.43	93.62
503.60	53.83
503.78	4.68
503.95	2.34
504.13	37.45
504.30	0.00
504.48	114.69
504.65	49.15
504.83	0.00
505.01	39.79
505.18	0.00
505.36	42.13
505.53	74.90
505.71	56.17
505.88	11.70
506.06	56.17
506.23	63.19
506.41	100.64
506.58	16.38
506.76	79.58
506.93	77.24
507.11	28.09
507.28	35.11
507.46	28.09
507.63	0.00
507.81	11.70
507.98	86.60
508.16	81.92
508.33	49.15
508.50	49.15
508.68	46.81
508.85	37.45
509.03	28.09
509.20	67.88
509.38	18.72
509.55	102.98
509.73	32.77
509.90	91.28
510.08	0.00
510.25	63.19
510.42	21.06
510.60	35.11
510.77	74.90
510.95	49.15
511.12	145.11
511.30	25.75
511.47	32.77
511.64	49.15
511.82	18.72
511.99	2.34
512.17	14.04
512.34	42.13
512.51	0.00
512.69	51.49
512.86	98.30
513.04	0.00
513.21	28.09
513.38	23.41
513.56	32.77
513.73	0.00
513.90	114.69
514.08	60.85
514.25	11.70
514.43	25.75
514.60	21.06
514.77	0.00
514.95	86.60
515.12	25.75
515.29	2.34
515.47	16.38
515.64	74.90
515.81	51.49
515.99	16.38
516.16	0.00
516.33	74.90
516.51	81.92
516.68	16.38
516.85	14.04
517.03	39.79
517.20	49.15
517.37	49.15
517.54	65.54
517.72	2.34
517.89	39.79
518.06	0.00
518.24	56.17
518.41	46.81
518.58	28.09
518.75	81.92
518.93	44.47
519.10	46.81
519.27	37.45
519.45	53.83
519.62	51.49
519.79	67.88
519.96	86.60
520.14	51.49
520.31	53.83
520.48	14.04
520.65	0.00
520.83	60.85
521.00	65.54
521.17	79.58
521.34	0.00
521.52	44.47
521.69	37.45
521.86	0.00
522.03	4.68
522.20	110.01
522.38	18.72
522.55	21.06
522.72	21.06
522.89	25.75
523.07	2.34
523.24	86.60
523.41	32.77
523.58	21.06
523.75	44.47
523.92	60.85
524.10	84.26
524.27	88.94
524.44	37.45
524.61	7.02
524.78	0.00
524.96	42.13
525.13	65.54
525.30	91.28
525.47	56.17
525.64	32.77
525.81	79.58
525.98	58.51
526.16	39.79
526.33	21.06
526.50	88.94
526.67	42.13
526.84	51.49
527.01	44.47
527.18	53.83
527.36	49.15
527.53	46.81
527.70	32.77
527.87	37.45
528.04	49.15
528.21	88.94
528.38	0.00
528.55	4.68
528.72	46.81
528.89	93.62
529.07	46.81
529.24	53.83
529.41	51.49
529.58	16.38
529.75	18.72
529.92	0.00
530.09	4.68
530.26	25.75
530.43	32.77
530.60	32.77
530.77	37.45
530.94	18.72
531.11	72.56
531.28	145.11
531.46	51.49
531.63	60.85
531.80	0.00
531.97	14.04
532.14	0.00
532.31	0.00
532.48	42.13
532.65	60.85
532.82	86.60
532.99	128.73
533.16	93.62
533.33	28.09
533.50	81.92
533.67	30.43
533.84	60.85
534.01	37.45
534.18	39.79
534.35	51.49
534.52	39.79
534.69	16.38
534.86	86.60
535.03	9.36
535.20	56.17
535.37	0.00
535.54	93.62
535.71	98.30
535.88	0.00
536.05	2.34
536.22	4.68
536.38	16.38
536.55	32.77
536.72	18.72
536.89	0.00
537.06	28.09
537.23	14.04
537.40	16.38
537.57	86.60
537.74	37.45
537.91	2.34
538.08	51.49
538.25	86.60
538.42	60.85
538.59	67.88
538.75	30.43
538.92	39.79
539.09	79.58
539.26	21.06
539.43	79.58
539.60	163.84
539.77	241.08
539.94	168.52
540.11	142.77
540.28	138.09
540.44	32.77
540.61	39.79
540.78	30.43
540.95	56.17
541.12	60.85
541.29	53.83
541.46	0.00
541.62	23.41
541.79	14.04
541.96	79.58
542.13	9.36
542.30	0.00
542.47	21.06
542.63	77.24
542.80	49.15
542.97	16.38
543.14	65.54
543.31	32.77
543.48	0.00
543.64	37.45
543.81	70.22
543.98	4.68
544.15	0.00
544.32	35.11
544.48	53.83
544.65	18.72
544.82	30.43
544.99	42.13
545.16	46.81
545.32	0.00
545.49	7.02
545.66	9.36
545.83	0.00
546.00	0.00
546.16	42.13
546.33	81.92
546.50	72.56
546.67	65.54
546.83	39.79
547.00	74.90
547.17	74.90
547.34	16.38
547.50	51.49
547.67	0.00
547.84	74.90
548.00	35.11
548.17	81.92
548.34	44.47
548.51	9.36
548.67	14.04
548.84	0.00
549.01	74.90
549.18	140.43
549.34	7.02
549.51	23.41
549.68	39.79
549.84	0.00
550.01	51.49
550.18	63.19
550.34	39.79
550.51	65.54
550.68	23.41
550.84	60.85
551.01	79.58
551.18	79.58
551.34	28.09
551.51	114.69
551.68	60.85
551.84	65.54
552.01	0.00
552.18	0.00
552.34	49.15
552.51	14.04
552.68	58.51
552.84	44.47
553.01	0.00
553.18	35.11
553.34	93.62
553.51	21.06
553.67	0.00
553.84	77.24
554.01	23.41
554.17	42.13
554.34	30.43
554.51	65.54
554.67	93.62
554.84	0.00
555.00	35.11
555.17	114.69
555.33	93.62
555.50	32.77
555.67	70.22
555.83	98.30
556.00	44.47
556.16	42.13
556.33	60.85
556.50	0.00
556.66	49.15
556.83	0.00
556.99	0.00
557.16	16.38
557.32	35.11
557.49	67.88
557.65	119.37
557.82	77.24
557.98	67.88
558.15	14.04
558.32	0.00
558.48	0.00
558.65	16.38
558.81	37.45
558.98	0.00
559.14	65.54
559.31	58.51
559.47	32.77
559.64	0.00
559.80	72.56
559.97	0.00
560.13	42.13
560.30	46.81
560.46	11.70
560.63	74.90
560.79	0.00
560.96	0.00
561.12	42.13
561.29	110.01
561.45	28.09
561.61	124.05
561.78	46.81
561.94	25.75
562.11	0.00
562.27	46.81
562.44	21.06
562.60	4.68
562.77	51.49
562.93	63.19
563.10	133.41
563.26	37.45
563.42	4.68
563.59	16.38
563.75	44.47
563.92	49.15
564.08	18.72
564.24	44.47
564.41	21.06
564.57	0.00
564.74	65.54
564.90	72.56
565.07	72.56
565.23	39.79
565.39	32.77
565.56	72.56
565.72	67.88
565.88	0.00
566.05	88.94
566.21	23.41
566.38	4.68
566.54	4.68
566.70	0.00
566.87	77.24
567.03	16.38
567.19	23.41
567.36	11.70
567.52	49.15
567.68	46.81
567.85	56.17
568.01	84.26
568.17	32.77
568.34	72.56
568.50	32.77
568.66	0.00
568.83	74.90
568.99	102.98
569.15	25.75
569.32	56.17
569.48	60.85
569.64	65.54
569.81	56.17
569.97	84.26
570.13	42.13
570.30	30.43
570.46	46.81
570.62	84.26
570.78	70.22
570.95	98.30
571.11	0.00
571.27	51.49
571.43	88.94
571.60	2.34
571.76	49.15
571.92	0.00
572.09	58.51
572.25	4.68
572.41	9.36
572.57	65.54
572.74	79.58
572.90	46.81
573.06	91.28
573.22	56.17
573.38	2.34
573.55	0.00
573.71	32.77
573.87	79.58
574.03	49.15
574.20	102.98
574.36	0.00
574.52	0.00
574.68	100.64
574.84	60.85
575.01	9.36
575.17	32.77
575.33	35.11
575.49	46.81
575.65	93.62
575.82	88.94
575.98	105.32
576.14	21.06
576.30	102.98
576.46	74.90
576.62	18.72
576.79	39.79
576.95	51.49
577.11	37.45
577.27	32.77
577.43	37.45
577.59	30.43
577.75	35.11
577.92	0.00
578.08	0.00
578.24	60.85
578.40	32.77
578.56	30.43
578.72	79.58
578.88	84.26
579.04	63.19
579.21	39.79
579.37	0.00
579.53	21.06
579.69	58.51
579.85	35.11
580.01	44.47
580.17	25.75
580.33	70.22
580.49	86.60
580.65	95.96
580.82	35.11
580.98	21.06
581.14	67.88
581.30	86.60
581.46	56.17
581.62	49.15
581.78	88.94
581.94	16.38
582.10	58.51
582.26	58.51
582.42	0.00
582.58	56.17
582.74	81.92
582.90	49.15
583.06	88.94
583.22	7.02
583.38	0.00
583.54	81.92
583.70	112.35
583.86	154.48
584.02	135.75
584.18	170.86
584.34	163.84
584.50	395.55
584.66	2752.47
584.82	6754.79
584.98	9764.72
585.14	8386.14
585.30	5401.96
585.46	3283.77
585.62	2062.01
585.78	1015.79
585.94	355.76
586.10	241.08
586.26	138.09
586.42	159.16
586.58	0.00
586.74	28.09
586.90	112.35
587.06	30.43
587.22	51.49
587.38	124.05
587.54	191.92
587.70	470.45
587.86	655.35
588.02	660.03
588.18	507.90
588.34	358.10
588.49	222.35
588.65	238.73
588.81	77.24
588.97	84.26
589.13	128.73
589.29	2.34
589.45	58.51
589.61	67.88
589.77	65.54
589.93	95.96
590.08	70.22
590.24	18.72
590.40	46.81
590.56	88.94
590.72	53.83
590.88	0.00
591.04	107.66
591.20	79.58
591.35	37.45
591.51	98.30
591.67	110.01
591.83	37.45
591.99	70.22
592.15	77.24
592.31	37.45
592.46	25.75
592.62	28.09
592.78	63.19
592.94	77.24
593.10	46.81
593.26	28.09
593.41	72.56
593.57	112.35
593.73	145.11
593.89	400.23
594.05	926.85
594.20	1238.14
594.36	1076.65
594.52	786.42
594.68	468.11
594.84	304.27
594.99	128.73
595.15	49.15
595.31	79.58
595.47	126.39
595.62	25.75
595.78	42.13
595.94	84.26
596.10	105.32
596.25	53.83
596.41	112.35
596.57	49.15
596.73	25.75
596.88	58.51
597.04	220.01
597.20	304.27
597.36	292.57
597.51	194.26
597.67	100.64
597.83	98.30
597.99	105.32
598.14	105.32
598.30	37.45
598.46	0.00
598.61	46.81
598.77	23.41
598.93	32.77
599.09	44.47
599.24	42.13
599.40	16.38
599.56	67.88
599.71	4.68
599.87	28.09
600.03	39.79
600.18	67.88
600.34	46.81
600.50	0.00
600.65	51.49
600.81	46.81
600.97	42.13
601.12	51.49
601.28	25.75
601.44	9.36
601.59	49.15
601.75	81.92
601.91	28.09
602.06	77.24
602.22	37.45
602.37	133.41
602.53	236.39
602.69	337.04
602.84	355.76
603.00	292.57
603.16	175.54
603.31	147.45
603.47	58.51
603.62	0.00
603.78	14.04
603.94	28.09
604.09	56.17
604.25	65.54
604.40	0.00
604.56	117.03
604.71	0.00
604.87	63.19
605.03	2.34
605.18	67.88
605.34	65.54
605.49	51.49
605.65	14.04
605.80	86.60
605.96	39.79
606.12	39.79
606.27	58.51
606.43	100.64
606.58	70.22
606.74	161.50
606.89	411.93
607.05	812.17
607.20	1104.73
607.36	800.46
607.51	627.26
607.67	334.70
607.82	241.08
607.98	105.32
608.13	128.73
608.29	58.51
608.44	58.51
608.60	98.30
608.75	100.64
608.91	142.77
609.06	613.22
609.22	1357.51
609.37	1680.50
609.53	1565.82
609.68	971.32
609.84	636.63
609.99	484.49
610.15	252.78
610.30	142.77
610.46	44.47
610.61	60.85
610.76	70.22
610.92	77.24
611.07	93.62
611.23	0.00
611.38	107.66
611.54	84.26
611.69	0.00
611.84	39.79
612.00	21.06
612.15	53.83
612.31	39.79
612.46	28.09
612.62	88.94
612.77	53.83
612.92	39.79
613.08	58.51
613.23	152.13
613.39	72.56
613.54	145.11
613.69	699.82
613.85	1865.41
614.00	2670.55
614.15	2764.17
614.31	2019.88
614.46	1387.94
614.62	905.79
614.77	554.71
614.92	285.55
615.08	102.98
615.23	149.79
615.38	145.11
615.54	112.35
615.69	152.13
615.84	341.72
616.00	617.90
616.15	758.33
616.30	580.45
616.46	433.00
616.61	250.44
616.76	196.60
616.92	91.28
617.07	110.01
617.22	32.77
617.37	63.19
617.53	0.00
617.68	28.09
617.83	74.90
617.99	46.81
618.14	44.47
618.29	2.34
618.45	0.00
618.60	56.17
618.75	35.11
618.90	67.88
619.06	0.00
619.21	18.72
619.36	84.26
619.51	0.00
619.67	28.09
619.82	35.11
619.97	46.81
620.12	121.71
620.28	112.35
620.43	30.43
620.58	39.79
620.73	107.66
620.89	39.79
621.04	79.58
621.19	210.65
621.34	285.55
621.49	414.27
621.65	404.91
621.80	301.93
621.95	154.48
622.10	189.58
622.25	107.66
622.41	121.71
622.56	30.43
622.71	67.88
622.86	32.77
623.01	0.00
623.16	23.41
623.32	30.43
623.47	9.36
623.62	0.00
623.77	23.41
623.92	23.41
624.07	35.11
624.23	32.77
624.38	44.47
624.53	56.17
624.68	72.56
624.83	74.90
624.98	72.56
625.13	53.83
625.29	21.06
625.44	9.36
625.59	124.05
625.74	70.22
625.89	93.62
626.04	325.33
626.19	936.21
626.34	1261.55
626.49	1561.14
626.65	1041.54
626.80	716.20
626.95	477.47
627.10	280.86
627.25	262.14
627.40	56.17
627.55	112.35
627.70	0.00
627.85	88.94
628.00	39.79
628.15	114.69
628.30	65.54
628.45	114.69
628.60	86.60
628.76	25.75
628.91	18.72
629.06	56.17
629.21	7.02
629.36	56.17
629.51	53.83
629.66	65.54
629.81	35.11
629.96	236.39
630.11	306.61
630.26	400.23
630.41	393.21
630.56	245.76
630.71	189.58
630.86	77.24
631.01	138.09
631.16	37.45
631.31	0.00
631.46	140.43
631.61	84.26
631.76	67.88
631.91	53.83
632.06	81.92
632.21	18.72
632.36	79.58
632.51	25.75
632.66	107.66
632.81	149.79
632.96	491.51
633.10	896.43
633.25	1109.41
633.40	882.38
633.55	667.05
633.70	395.55
633.85	280.86
634.00	84.26
634.15	81.92
634.30	84.26
634.45	65.54
634.60	4.68
634.75	74.90
634.90	28.09
635.05	46.81
635.19	63.19
635.34	51.49
635.49	67.88
635.64	0.00
635.79	42.13
635.94	63.19
636.09	0.00
636.24	46.81
636.39	14.04
636.53	14.04
636.68	18.72
636.83	35.11
636.98	39.79
637.13	70.22
637.28	124.05
637.43	39.79
637.57	95.96
637.72	461.09
637.87	1184.31
638.02	1699.23
638.17	1818.60
638.32	1341.13
638.46	924.51
638.61	732.59
638.76	393.21
638.91	198.95
639.06	91.28
639.20	126.39
639.35	79.58
639.50	149.79
639.65	706.84
639.80	1673.48
639.94	2677.57
640.09	3028.65
640.24	2111.16
640.39	1519.01
640.54	1039.20
640.68	645.99
640.83	376.83
640.98	182.56
641.13	131.07
641.27	32.77
641.42	28.09
641.57	56.17
641.72	16.38
641.86	16.38
642.01	72.56
642.16	14.04
642.31	58.51
642.45	98.30
642.60	32.77
642.75	0.00
642.90	0.00
643.04	0.00
643.19	53.83
643.34	70.22
643.48	35.11
643.63	72.56
643.78	0.00
643.93	37.45
644.07	0.00
644.22	70.22
644.37	93.62
644.51	35.11
644.66	16.38
644.81	30.43
644.95	88.94
645.10	49.15
645.25	37.45
645.39	2.34
645.54	0.00
645.69	42.13
645.83	30.43
645.98	86.60
646.13	0.00
646.27	39.79
646.42	70.22
646.57	56.17
646.71	0.00
646.86	16.38
647.00	42.13
647.15	46.81
647.30	46.81
647.44	7.02
647.59	32.77
647.74	30.43
647.88	21.06
648.03	58.51
648.17	37.45
648.32	39.79
648.47	98.30
648.61	0.00
648.76	53.83
648.90	70.22
649.05	14.04
649.20	53.83
649.34	79.58
649.49	39.79
649.63	133.41
649.78	2.34
649.92	28.09
650.07	269.16
650.21	763.01
650.36	1287.29
650.51	1514.33
650.65	1306.02
650.80	990.05
650.94	594.50
651.09	397.89
651.23	238.73
651.38	119.37
651.52	63.19
651.67	86.60
651.81	16.38
651.96	63.19
652.10	49.15
652.25	32.77
652.39	0.00
652.54	18.72
652.68	14.04
652.83	353.42
652.97	475.13
653.12	538.32
653.26	425.98
653.41	348.74
653.55	250.44
653.70	212.99
653.84	93.62
653.99	0.00
654.13	35.11
654.27	51.49
654.42	42.13
654.56	49.15
654.71	44.47
654.85	0.00
655.00	0.00
655.14	4.68
655.29	79.58
655.43	42.13
655.57	56.17
655.72	44.47
655.86	0.00
656.01	18.72
656.15	65.54
656.30	16.38
656.44	23.41
656.58	21.06
656.73	37.45
656.87	58.51
657.01	84.26
657.16	60.85
657.30	11.70
657.45	0.00
657.59	58.51
657.73	18.72
657.88	39.79
658.02	39.79
658.16	28.09
658.31	0.00
658.45	74.90
658.60	23.41
658.74	138.09
658.88	0.00
659.03	84.26
659.17	70.22
659.31	91.28
659.46	334.70
659.60	613.22
659.74	732.59
659.89	741.95
660.03	550.03
660.17	353.42
660.32	217.67
660.46	145.11
660.60	126.39
660.74	46.81
660.89	0.00
661.03	46.81
661.17	86.60
661.32	35.11
661.46	0.00
661.60	39.79
661.74	23.41
661.89	37.45
662.03	93.62
662.17	0.00
662.31	0.00
662.46	91.28
662.60	30.43
662.74	0.00
662.88	74.90
663.03	0.00
663.17	25.75
663.31	60.85
663.45	86.60
663.60	16.38
663.74	28.09
663.88	4.68
664.02	7.02
664.17	63.19
664.31	0.00
664.45	7.02
664.59	0.00
664.73	0.00
664.88	23.41
665.02	7.02
665.16	0.00
665.30	23.41
665.44	81.92
665.59	32.77
665.73	46.81
665.87	0.00
666.01	79.58
666.15	63.19
666.29	0.00
666.44	16.38
666.58	0.00
666.72	39.79
666.86	53.83
667.00	88.94
667.14	156.82
667.28	280.86
667.43	608.54
667.57	1006.43
667.71	1324.74
667.85	1163.25
667.99	915.15
668.13	517.26
668.27	301.93
668.41	131.07
668.56	114.69
668.70	88.94
668.84	44.47
668.98	23.41
669.12	56.17
669.26	112.35
669.40	74.90
669.54	28.09
669.68	0.00
669.82	65.54
669.96	16.38
670.10	0.00
670.25	25.75
670.39	11.70
670.53	81.92
670.67	28.09
670.81	0.00
670.95	86.60
671.09	107.66
671.23	334.70
671.37	519.60
671.51	847.27
671.65	819.19
671.79	655.35
671.93	416.62
672.07	196.60
672.21	191.92
672.35	133.41
672.49	110.01
672.63	39.79
672.77	102.98
672.91	0.00
673.05	98.30
673.19	60.85
673.33	0.00
673.47	53.83
673.61	51.49
673.75	86.60
673.89	63.19
674.03	32.77
674.17	67.88
674.31	81.92
674.45	44.47
674.59	39.79
674.73	0.00
674.87	30.43
675.01	53.83
675.15	88.94
675.29	63.19
675.43	51.49
675.56	46.81
675.70	142.77
675.84	0.00
675.98	23.41
676.12	49.15
676.26	25.75
676.40	56.17
676.54	0.00
676.68	0.00
676.82	65.54
676.96	30.43
677.10	77.24
677.23	79.58
677.37	11.70
677.51	30.43
677.65	0.00
677.79	7.02
677.93	30.43
678.07	49.15
678.21	35.11
678.34	63.19
678.48	0.00
678.62	9.36
678.76	32.77
678.90	63.19
679.04	39.79
679.18	35.11
679.31	21.06
679.45	0.00
679.59	124.05
679.73	14.04
679.87	0.00
680.00	49.15
680.14	7.02
680.28	39.79
680.42	4.68
680.56	0.00
680.70	28.09
680.83	77.24
680.97	49.15
681.11	42.13
681.25	72.56
681.39	21.06
681.52	30.43
681.66	63.19
681.80	77.24
681.94	39.79
682.07	98.30
682.21	0.00
682.35	9.36
682.49	72.56
682.62	0.00
682.76	28.09
682.90	0.00
683.04	44.47
683.17	0.00
683.31	14.04
683.45	42.13
683.59	14.04
683.72	23.41
683.86	32.77
684.00	25.75
684.13	25.75
684.27	77.24
684.41	65.54
684.55	0.00
684.68	39.79
684.82	53.83
684.96	2.34
685.09	7.02
685.23	0.00
685.37	0.00
685.50	63.19
685.64	32.77
685.78	25.75
685.91	42.13
686.05	56.17
686.19	81.92
686.32	46.81
686.46	4.68
686.60	9.36
686.73	44.47
686.87	91.28
687.01	98.30
687.14	0.00
687.28	0.00
687.42	65.54
687.55	4.68
687.69	14.04
687.82	0.00
687.96	65.54
688.10	84.26
688.23	70.22
688.37	16.38
688.50	56.17
688.64	49.15
688.78	44.47
688.91	4.68
689.05	49.15
689.18	0.00
689.32	98.30
689.46	70.22
689.59	11.70
689.73	93.62
689.86	16.38
690.00	0.00
690.13	0.00
690.27	0.00
690.41	42.13
690.54	88.94
690.68	70.22
690.81	42.13
690.95	128.73
691.08	37.45
691.22	0.00
691.35	0.00
691.49	23.41
691.62	42.13
691.76	0.00
691.89	35.11
692.03	51.49
692.16	9.36
692.30	7.02
692.43	107.66
692.57	322.99
692.70	449.38
692.84	533.64
692.97	456.40
693.11	414.27
693.24	290.23
693.38	205.97
693.51	203.63
693.65	201.29
693.78	79.58
693.92	63.19
694.05	72.56
694.19	32.77
694.32	39.79
694.45	53.83
694.59	14.04
694.72	7.02
694.86	70.22
694.99	21.06
695.13	84.26
695.26	51.49
695.39	102.98
695.53	7.02
695.66	0.00
695.80	23.41
695.93	65.54
696.07	51.49
696.20	70.22
696.33	105.32
696.47	72.56
696.60	98.30
696.73	95.96
696.87	11.70
697.00	49.15
697.14	30.43
697.27	30.43
697.40	42.13
697.54	0.00
697.67	9.36
697.80	0.00
697.94	58.51
698.07	14.04
698.21	0.00
698.34	100.64
698.47	28.09
698.61	39.79
698.74	0.00
698.87	14.04
699.01	0.00
699.14	46.81
699.27	37.45
699.40	128.73
699.54	56.17
699.67	39.79
699.80	35.11
699.94	49.15
700.07	72.56
700.20	0.00
700.34	25.75
700.47	0.00
700.60	7.02
700.73	23.41
700.87	30.43
701.00	25.75
701.13	2.34
701.26	0.00
701.40	65.54
701.53	70.22
701.66	86.60
701.79	0.00
701.93	56.17
702.06	44.47
702.19	9.36
702.32	46.81
702.46	42.13
702.59	30.43
702.72	117.03
702.85	339.38
702.99	723.23
703.12	985.37
703.25	1210.06
703.38	1053.24
703.51	744.29
703.65	627.26
703.78	430.66
703.91	299.59
704.04	203.63
704.17	98.30
704.31	93.62
704.44	35.11
704.57	74.90
704.70	86.60
704.83	63.19
704.96	0.00
705.10	0.00
705.23	95.96
>>>>>End Processed Spectral Data<<<<<
