SpectraSuite Data File
++++++++++++++++++++++++++++++++++++
Date: Fri Oct 04 11:34:11 GMT-05:00 2013
User: price-jones
Dark Spectrum Present: No
Reference Spectrum Present: No
Number of Sampled Component Spectra: 1
Spectrometers: USB2+H05261
Integration Time (usec): 100000 (USB2+H05261)
Spectra Averaged: 1 (USB2+H05261)
Boxcar Smoothing: 0 (USB2+H05261)
Correct for Electrical Dark: No (USB2+H05261)
Strobe/Lamp Enabled: No (USB2+H05261)
Correct for Detector Non-linearity: No (USB2+H05261)
Correct for Stray Light: No (USB2+H05261)
Number of Pixels in Processed Spectrum: 2048
>>>>>Begin Processed Spectral Data<<<<<
365.73	67.88
365.92	67.88
366.12	67.88
366.32	0.00
366.52	0.00
366.72	58.51
366.91	23.41
367.11	0.00
367.31	0.00
367.51	9.36
367.70	0.00
367.90	0.00
368.10	28.09
368.30	0.00
368.49	0.00
368.69	0.00
368.89	0.00
369.09	0.00
369.28	0.00
369.48	0.00
369.68	14.04
369.87	28.09
370.07	63.19
370.27	42.13
370.47	28.09
370.66	0.00
370.86	72.56
371.06	117.03
371.25	110.01
371.45	107.66
371.65	152.13
371.84	98.30
372.04	138.09
372.24	154.48
372.44	112.35
372.63	51.49
372.83	128.73
373.03	194.26
373.22	114.69
373.42	163.84
373.62	161.50
373.81	147.45
374.01	112.35
374.21	173.20
374.40	119.37
374.60	112.35
374.79	133.41
374.99	154.48
375.19	187.24
375.38	182.56
375.58	177.88
375.78	168.52
375.97	173.20
376.17	217.67
376.37	177.88
376.56	175.54
376.76	131.07
376.95	147.45
377.15	175.54
377.35	170.86
377.54	187.24
377.74	236.39
377.93	100.64
378.13	154.48
378.33	140.43
378.52	147.45
378.72	175.54
378.91	133.41
379.11	173.20
379.31	135.75
379.50	124.05
379.70	166.18
379.89	177.88
380.09	117.03
380.28	119.37
380.48	131.07
380.68	138.09
380.87	86.60
381.07	133.41
381.26	126.39
381.46	170.86
381.65	159.16
381.85	145.11
382.04	156.82
382.24	138.09
382.43	51.49
382.63	149.79
382.83	182.56
383.02	191.92
383.22	189.58
383.41	135.75
383.61	161.50
383.80	159.16
384.00	208.31
384.19	131.07
384.39	152.13
384.58	131.07
384.78	145.11
384.97	145.11
385.17	217.67
385.36	91.28
385.56	145.11
385.75	84.26
385.95	81.92
386.14	194.26
386.34	184.90
386.53	86.60
386.72	142.77
386.92	152.13
387.11	86.60
387.31	142.77
387.50	152.13
387.70	121.71
387.89	88.94
388.09	147.45
388.28	124.05
388.48	156.82
388.67	238.73
388.86	121.71
389.06	133.41
389.25	163.84
389.45	117.03
389.64	114.69
389.84	114.69
390.03	128.73
390.22	131.07
390.42	63.19
390.61	128.73
390.81	121.71
391.00	142.77
391.19	170.86
391.39	107.66
391.58	159.16
391.78	105.32
391.97	119.37
392.16	133.41
392.36	93.62
392.55	117.03
392.75	91.28
392.94	128.73
393.13	215.33
393.33	124.05
393.52	194.26
393.71	138.09
393.91	124.05
394.10	119.37
394.29	154.48
394.49	110.01
394.68	194.26
394.88	194.26
395.07	170.86
395.26	121.71
395.46	159.16
395.65	208.31
395.84	93.62
396.04	222.35
396.23	166.18
396.42	159.16
396.62	168.52
396.81	112.35
397.00	102.98
397.19	140.43
397.39	145.11
397.58	208.31
397.77	119.37
397.97	81.92
398.16	105.32
398.35	114.69
398.55	114.69
398.74	203.63
398.93	180.22
399.12	140.43
399.32	142.77
399.51	135.75
399.70	152.13
399.90	149.79
400.09	138.09
400.28	229.37
400.47	119.37
400.67	72.56
400.86	168.52
401.05	138.09
401.24	189.58
401.44	184.90
401.63	117.03
401.82	154.48
402.01	147.45
402.21	145.11
402.40	131.07
402.59	156.82
402.78	187.24
402.97	117.03
403.17	126.39
403.36	196.60
403.55	180.22
403.74	149.79
403.93	124.05
404.13	156.82
404.32	112.35
404.51	138.09
404.70	93.62
404.89	95.96
405.09	220.01
405.28	107.66
405.47	152.13
405.66	156.82
405.85	140.43
406.05	203.63
406.24	198.95
406.43	145.11
406.62	168.52
406.81	170.86
407.00	147.45
407.20	77.24
407.39	170.86
407.58	140.43
407.77	170.86
407.96	145.11
408.15	147.45
408.34	86.60
408.54	121.71
408.73	114.69
408.92	135.75
409.11	177.88
409.30	191.92
409.49	53.83
409.68	121.71
409.87	170.86
410.07	107.66
410.26	163.84
410.45	126.39
410.64	117.03
410.83	208.31
411.02	156.82
411.21	88.94
411.40	140.43
411.59	117.03
411.78	222.35
411.98	187.24
412.17	126.39
412.36	196.60
412.55	159.16
412.74	173.20
412.93	170.86
413.12	128.73
413.31	203.63
413.50	175.54
413.69	107.66
413.88	166.18
414.07	210.65
414.26	117.03
414.45	205.97
414.64	210.65
414.83	198.95
415.02	170.86
415.22	191.92
415.41	224.69
415.60	138.09
415.79	227.03
415.98	145.11
416.17	126.39
416.36	149.79
416.55	44.47
416.74	147.45
416.93	124.05
417.12	208.31
417.31	126.39
417.50	121.71
417.69	234.05
417.88	196.60
418.07	77.24
418.26	163.84
418.45	147.45
418.64	159.16
418.83	149.79
419.02	121.71
419.21	124.05
419.39	135.75
419.58	145.11
419.77	149.79
419.96	205.97
420.15	168.52
420.34	131.07
420.53	170.86
420.72	149.79
420.91	135.75
421.10	245.76
421.29	166.18
421.48	149.79
421.67	170.86
421.86	147.45
422.05	119.37
422.24	156.82
422.43	189.58
422.61	182.56
422.80	147.45
422.99	175.54
423.18	110.01
423.37	180.22
423.56	173.20
423.75	184.90
423.94	100.64
424.13	133.41
424.32	105.32
424.50	224.69
424.69	156.82
424.88	180.22
425.07	156.82
425.26	234.05
425.45	201.29
425.64	140.43
425.83	145.11
426.01	149.79
426.20	121.71
426.39	105.32
426.58	149.79
426.77	208.31
426.96	210.65
427.15	126.39
427.33	107.66
427.52	142.77
427.71	198.95
427.90	74.90
428.09	149.79
428.28	154.48
428.46	175.54
428.65	245.76
428.84	191.92
429.03	227.03
429.22	100.64
429.40	163.84
429.59	138.09
429.78	196.60
429.97	110.01
430.16	170.86
430.34	173.20
430.53	166.18
430.72	187.24
430.91	156.82
431.10	128.73
431.28	133.41
431.47	208.31
431.66	182.56
431.85	124.05
432.03	187.24
432.22	231.71
432.41	203.63
432.60	149.79
432.79	187.24
432.97	198.95
433.16	170.86
433.35	135.75
433.54	159.16
433.72	201.29
433.91	147.45
434.10	194.26
434.28	166.18
434.47	170.86
434.66	250.44
434.85	154.48
435.03	189.58
435.22	372.15
435.41	463.43
435.59	227.03
435.78	259.80
435.97	241.08
436.16	227.03
436.34	149.79
436.53	135.75
436.72	149.79
436.90	187.24
437.09	210.65
437.28	180.22
437.46	173.20
437.65	212.99
437.84	212.99
438.02	184.90
438.21	203.63
438.40	147.45
438.58	198.95
438.77	229.37
438.96	149.79
439.14	159.16
439.33	117.03
439.52	126.39
439.70	159.16
439.89	180.22
440.08	119.37
440.26	117.03
440.45	203.63
440.63	231.71
440.82	201.29
441.01	189.58
441.19	131.07
441.38	161.50
441.57	227.03
441.75	166.18
441.94	170.86
442.12	187.24
442.31	180.22
442.50	149.79
442.68	168.52
442.87	140.43
443.05	182.56
443.24	222.35
443.43	175.54
443.61	198.95
443.80	203.63
443.98	163.84
444.17	138.09
444.35	212.99
444.54	170.86
444.73	191.92
444.91	227.03
445.10	152.13
445.28	168.52
445.47	210.65
445.65	149.79
445.84	198.95
446.02	187.24
446.21	152.13
446.39	198.95
446.58	168.52
446.77	173.20
446.95	131.07
447.14	124.05
447.32	227.03
447.51	145.11
447.69	198.95
447.88	159.16
448.06	224.69
448.25	138.09
448.43	175.54
448.62	117.03
448.80	222.35
448.99	107.66
449.17	138.09
449.36	182.56
449.54	222.35
449.73	191.92
449.91	308.95
450.10	198.95
450.28	250.44
450.46	276.18
450.65	187.24
450.83	177.88
451.02	229.37
451.20	161.50
451.39	131.07
451.57	194.26
451.76	124.05
451.94	215.33
452.13	170.86
452.31	184.90
452.49	203.63
452.68	149.79
452.86	156.82
453.05	243.42
453.23	168.52
453.42	149.79
453.60	187.24
453.78	168.52
453.97	182.56
454.15	152.13
454.34	135.75
454.52	248.10
454.70	196.60
454.89	156.82
455.07	212.99
455.26	175.54
455.44	238.73
455.62	189.58
455.81	227.03
455.99	166.18
456.17	201.29
456.36	271.50
456.54	152.13
456.73	201.29
456.91	231.71
457.09	215.33
457.28	168.52
457.46	203.63
457.64	210.65
457.83	198.95
458.01	147.45
458.19	175.54
458.38	173.20
458.56	252.78
458.74	166.18
458.93	149.79
459.11	177.88
459.29	222.35
459.48	252.78
459.66	177.88
459.84	163.84
460.03	248.10
460.21	220.01
460.39	198.95
460.57	266.82
460.76	189.58
460.94	149.79
461.12	236.39
461.31	159.16
461.49	189.58
461.67	126.39
461.85	170.86
462.04	208.31
462.22	608.54
462.40	245.76
462.59	191.92
462.77	138.09
462.95	142.77
463.13	212.99
463.32	189.58
463.50	177.88
463.68	217.67
463.86	147.45
464.05	196.60
464.23	184.90
464.41	217.67
464.59	201.29
464.78	215.33
464.96	138.09
465.14	231.71
465.32	217.67
465.50	198.95
465.69	306.61
465.87	191.92
466.05	215.33
466.23	168.52
466.41	126.39
466.60	117.03
466.78	168.52
466.96	196.60
467.14	152.13
467.32	220.01
467.51	271.50
467.69	248.10
467.87	231.71
468.05	215.33
468.23	180.22
468.41	292.57
468.60	152.13
468.78	102.98
468.96	208.31
469.14	266.82
469.32	191.92
469.50	133.41
469.69	201.29
469.87	156.82
470.05	252.78
470.23	189.58
470.41	229.37
470.59	215.33
470.77	163.84
470.95	131.07
471.14	203.63
471.32	220.01
471.50	177.88
471.68	234.05
471.86	229.37
472.04	135.75
472.22	198.95
472.40	191.92
472.58	194.26
472.77	231.71
472.95	107.66
473.13	238.73
473.31	224.69
473.49	227.03
473.67	175.54
473.85	156.82
474.03	217.67
474.21	184.90
474.39	203.63
474.57	156.82
474.75	184.90
474.93	173.20
475.12	161.50
475.30	201.29
475.48	217.67
475.66	229.37
475.84	170.86
476.02	117.03
476.20	180.22
476.38	154.48
476.56	180.22
476.74	224.69
476.92	208.31
477.10	220.01
477.28	255.12
477.46	152.13
477.64	234.05
477.82	173.20
478.00	194.26
478.18	191.92
478.36	180.22
478.54	145.11
478.72	266.82
478.90	177.88
479.08	269.16
479.26	175.54
479.44	231.71
479.62	201.29
479.80	168.52
479.98	191.92
480.16	290.23
480.34	259.80
480.52	266.82
480.70	227.03
480.88	191.92
481.06	264.48
481.24	187.24
481.41	217.67
481.59	215.33
481.77	220.01
481.95	161.50
482.13	210.65
482.31	196.60
482.49	266.82
482.67	140.43
482.85	266.82
483.03	166.18
483.21	201.29
483.39	231.71
483.57	245.76
483.74	255.12
483.92	248.10
484.10	194.26
484.28	269.16
484.46	330.02
484.64	287.89
484.82	175.54
485.00	271.50
485.18	180.22
485.35	205.97
485.53	154.48
485.71	234.05
485.89	121.71
486.07	168.52
486.25	266.82
486.43	318.31
486.61	304.27
486.78	278.52
486.96	276.18
487.14	262.14
487.32	182.56
487.50	241.08
487.68	255.12
487.85	229.37
488.03	231.71
488.21	266.82
488.39	285.55
488.57	255.12
488.75	238.73
488.92	435.34
489.10	241.08
489.28	271.50
489.46	205.97
489.64	210.65
489.81	222.35
489.99	255.12
490.17	266.82
490.35	250.44
490.53	306.61
490.70	234.05
490.88	292.57
491.06	245.76
491.24	243.42
491.41	294.91
491.59	201.29
491.77	196.60
491.95	187.24
492.13	271.50
492.30	126.39
492.48	229.37
492.66	184.90
492.84	229.37
493.01	292.57
493.19	191.92
493.37	269.16
493.54	248.10
493.72	205.97
493.90	259.80
494.08	222.35
494.25	297.25
494.43	208.31
494.61	220.01
494.79	236.39
494.96	224.69
495.14	311.29
495.32	227.03
495.49	201.29
495.67	241.08
495.85	250.44
496.02	313.63
496.20	283.20
496.38	283.20
496.55	236.39
496.73	227.03
496.91	252.78
497.09	224.69
497.26	259.80
497.44	297.25
497.62	222.35
497.79	166.18
497.97	227.03
498.14	301.93
498.32	215.33
498.50	182.56
498.67	306.61
498.85	220.01
499.03	212.99
499.20	292.57
499.38	208.31
499.56	196.60
499.73	227.03
499.91	241.08
500.08	255.12
500.26	285.55
500.44	283.20
500.61	182.56
500.79	215.33
500.97	194.26
501.14	271.50
501.32	273.84
501.49	243.42
501.67	198.95
501.84	177.88
502.02	245.76
502.20	250.44
502.37	227.03
502.55	241.08
502.72	182.56
502.90	210.65
503.07	259.80
503.25	238.73
503.43	189.58
503.60	278.52
503.78	283.20
503.95	182.56
504.13	257.46
504.30	315.97
504.48	280.86
504.65	243.42
504.83	315.97
505.01	208.31
505.18	208.31
505.36	175.54
505.53	245.76
505.71	191.92
505.88	245.76
506.06	210.65
506.23	276.18
506.41	308.95
506.58	231.71
506.76	201.29
506.93	252.78
507.11	255.12
507.28	257.46
507.46	248.10
507.63	248.10
507.81	215.33
507.98	315.97
508.16	208.31
508.33	220.01
508.50	205.97
508.68	224.69
508.85	259.80
509.03	147.45
509.20	250.44
509.38	161.50
509.55	245.76
509.73	220.01
509.90	285.55
510.08	229.37
510.25	304.27
510.42	222.35
510.60	250.44
510.77	212.99
510.95	203.63
511.12	196.60
511.30	297.25
511.47	287.89
511.64	283.20
511.82	297.25
511.99	238.73
512.17	236.39
512.34	210.65
512.51	191.92
512.69	166.18
512.86	311.29
513.04	236.39
513.21	212.99
513.38	325.33
513.56	238.73
513.73	191.92
513.90	187.24
514.08	266.82
514.25	238.73
514.43	278.52
514.60	287.89
514.77	245.76
514.95	255.12
515.12	283.20
515.29	182.56
515.47	269.16
515.64	337.04
515.81	318.31
515.99	180.22
516.16	241.08
516.33	334.70
516.51	264.48
516.68	292.57
516.85	262.14
517.03	194.26
517.20	212.99
517.37	229.37
517.54	292.57
517.72	252.78
517.89	205.97
518.06	234.05
518.24	264.48
518.41	252.78
518.58	283.20
518.75	236.39
518.93	273.84
519.10	220.01
519.27	236.39
519.45	330.02
519.62	198.95
519.79	285.55
519.96	220.01
520.14	299.59
520.31	322.99
520.48	255.12
520.65	201.29
520.83	245.76
521.00	297.25
521.17	227.03
521.34	266.82
521.52	238.73
521.69	245.76
521.86	250.44
522.03	262.14
522.20	322.99
522.38	215.33
522.55	203.63
522.72	187.24
522.89	248.10
523.07	212.99
523.24	276.18
523.41	208.31
523.58	264.48
523.75	227.03
523.92	266.82
524.10	255.12
524.27	259.80
524.44	210.65
524.61	250.44
524.78	273.84
524.96	318.31
525.13	278.52
525.30	315.97
525.47	241.08
525.64	245.76
525.81	248.10
525.98	276.18
526.16	224.69
526.33	224.69
526.50	257.46
526.67	215.33
526.84	173.20
527.01	238.73
527.18	255.12
527.36	327.68
527.53	243.42
527.70	301.93
527.87	255.12
528.04	266.82
528.21	271.50
528.38	318.31
528.55	276.18
528.72	297.25
528.89	273.84
529.07	308.95
529.24	220.01
529.41	283.20
529.58	283.20
529.75	259.80
529.92	255.12
530.09	273.84
530.26	376.83
530.43	292.57
530.60	245.76
530.77	325.33
530.94	362.78
531.11	224.69
531.28	269.16
531.46	255.12
531.63	262.14
531.80	245.76
531.97	294.91
532.14	259.80
532.31	353.42
532.48	276.18
532.65	243.42
532.82	248.10
532.99	262.14
533.16	210.65
533.33	308.95
533.50	264.48
533.67	346.40
533.84	299.59
534.01	299.59
534.18	266.82
534.35	241.08
534.52	276.18
534.69	322.99
534.86	266.82
535.03	299.59
535.20	241.08
535.37	322.99
535.54	266.82
535.71	196.60
535.88	311.29
536.05	315.97
536.22	227.03
536.38	257.46
536.55	220.01
536.72	346.40
536.89	273.84
537.06	299.59
537.23	203.63
537.40	276.18
537.57	257.46
537.74	367.46
537.91	322.99
538.08	250.44
538.25	273.84
538.42	238.73
538.59	318.31
538.75	299.59
538.92	292.57
539.09	325.33
539.26	327.68
539.43	351.08
539.60	313.63
539.77	404.91
539.94	383.85
540.11	418.96
540.28	358.10
540.44	360.44
540.61	379.17
540.78	493.85
540.95	409.59
541.12	409.59
541.29	449.38
541.46	500.87
541.62	489.17
541.79	465.77
541.96	402.57
542.13	447.04
542.30	400.23
542.47	411.93
542.63	461.09
542.80	463.43
542.97	463.43
543.14	435.34
543.31	313.63
543.48	372.15
543.64	393.21
543.81	430.66
543.98	414.27
544.15	330.02
544.32	423.64
544.48	519.60
544.65	369.80
544.82	358.10
544.99	400.23
545.16	325.33
545.32	503.22
545.49	617.90
545.66	704.50
545.83	800.46
546.00	629.60
546.16	524.28
546.33	503.22
546.50	341.72
546.67	388.53
546.83	414.27
547.00	428.32
547.17	313.63
547.34	278.52
547.50	379.17
547.67	320.65
547.84	421.30
548.00	388.53
548.17	287.89
548.34	372.15
548.51	276.18
548.67	402.57
548.84	306.61
549.01	344.06
549.18	365.12
549.34	411.93
549.51	304.27
549.68	337.04
549.84	313.63
550.01	292.57
550.18	367.46
550.34	358.10
550.51	346.40
550.68	360.44
550.84	332.36
551.01	306.61
551.18	330.02
551.34	308.95
551.51	299.59
551.68	337.04
551.84	308.95
552.01	325.33
552.18	285.55
552.34	355.76
552.51	346.40
552.68	297.25
552.84	280.86
553.01	292.57
553.18	330.02
553.34	180.22
553.51	273.84
553.67	327.68
553.84	327.68
554.01	299.59
554.17	210.65
554.34	285.55
554.51	344.06
554.67	271.50
554.84	264.48
555.00	287.89
555.17	266.82
555.33	306.61
555.50	243.42
555.67	252.78
555.83	262.14
556.00	285.55
556.16	348.74
556.33	262.14
556.50	341.72
556.66	229.37
556.83	271.50
556.99	320.65
557.16	318.31
557.32	250.44
557.49	177.88
557.65	250.44
557.82	212.99
557.98	222.35
558.15	322.99
558.32	203.63
558.48	208.31
558.65	198.95
558.81	308.95
558.98	252.78
559.14	236.39
559.31	229.37
559.47	257.46
559.64	278.52
559.80	262.14
559.97	201.29
560.13	290.23
560.30	259.80
560.46	241.08
560.63	259.80
560.79	205.97
560.96	243.42
561.12	311.29
561.29	299.59
561.45	285.55
561.61	205.97
561.78	311.29
561.94	266.82
562.11	243.42
562.27	224.69
562.44	212.99
562.60	217.67
562.77	292.57
562.93	344.06
563.10	266.82
563.26	257.46
563.42	273.84
563.59	294.91
563.75	220.01
563.92	294.91
564.08	297.25
564.24	327.68
564.41	250.44
564.57	276.18
564.74	231.71
564.90	337.04
565.07	280.86
565.23	327.68
565.39	222.35
565.56	318.31
565.72	191.92
565.88	292.57
566.05	119.37
566.21	234.05
566.38	255.12
566.54	241.08
566.70	198.95
566.87	245.76
567.03	210.65
567.19	198.95
567.36	241.08
567.52	241.08
567.68	156.82
567.85	222.35
568.01	241.08
568.17	198.95
568.34	255.12
568.50	311.29
568.66	280.86
568.83	334.70
568.99	266.82
569.15	220.01
569.32	276.18
569.48	297.25
569.64	212.99
569.81	215.33
569.97	299.59
570.13	290.23
570.30	248.10
570.46	175.54
570.62	259.80
570.78	203.63
570.95	147.45
571.11	273.84
571.27	280.86
571.43	229.37
571.60	238.73
571.76	215.33
571.92	184.90
572.09	280.86
572.25	229.37
572.41	271.50
572.57	255.12
572.74	271.50
572.90	266.82
573.06	229.37
573.22	215.33
573.38	198.95
573.55	250.44
573.71	334.70
573.87	273.84
574.03	227.03
574.20	156.82
574.36	250.44
574.52	215.33
574.68	257.46
574.84	212.99
575.01	236.39
575.17	285.55
575.33	245.76
575.49	241.08
575.65	290.23
575.82	229.37
575.98	215.33
576.14	280.86
576.30	259.80
576.46	301.93
576.62	386.19
576.79	407.25
576.95	322.99
577.11	283.20
577.27	280.86
577.43	379.17
577.59	264.48
577.75	201.29
577.92	189.58
578.08	205.97
578.24	227.03
578.40	262.14
578.56	315.97
578.72	374.49
578.88	332.36
579.04	238.73
579.21	311.29
579.37	297.25
579.53	304.27
579.69	322.99
579.85	245.76
580.01	348.74
580.17	306.61
580.33	238.73
580.49	266.82
580.65	271.50
580.82	241.08
580.98	236.39
581.14	252.78
581.30	294.91
581.46	194.26
581.62	353.42
581.78	330.02
581.94	294.91
582.10	287.89
582.26	299.59
582.42	182.56
582.58	273.84
582.74	327.68
582.90	311.29
583.06	269.16
583.22	322.99
583.38	318.31
583.54	266.82
583.70	227.03
583.86	252.78
584.02	250.44
584.18	334.70
584.34	276.18
584.50	369.80
584.66	676.41
584.82	1460.49
584.98	1959.03
585.14	1846.68
585.30	1334.11
585.46	915.15
585.62	622.58
585.78	444.70
585.94	337.04
586.10	304.27
586.26	259.80
586.42	344.06
586.58	276.18
586.74	362.78
586.90	283.20
587.06	262.14
587.22	299.59
587.38	238.73
587.54	330.02
587.70	397.89
587.86	428.32
588.02	369.80
588.18	315.97
588.34	334.70
588.49	294.91
588.65	271.50
588.81	238.73
588.97	266.82
589.13	224.69
589.29	180.22
589.45	236.39
589.61	142.77
589.77	241.08
589.93	212.99
590.08	266.82
590.24	184.90
590.40	243.42
590.56	220.01
590.72	278.52
590.88	217.67
591.04	182.56
591.20	252.78
591.35	271.50
591.51	278.52
591.67	297.25
591.83	308.95
591.99	280.86
592.15	220.01
592.31	264.48
592.46	266.82
592.62	325.33
592.78	271.50
592.94	332.36
593.10	280.86
593.26	210.65
593.41	367.46
593.57	252.78
593.73	273.84
593.89	381.51
594.05	388.53
594.20	447.04
594.36	475.13
594.52	346.40
594.68	402.57
594.84	337.04
594.99	280.86
595.15	229.37
595.31	283.20
595.47	215.33
595.62	257.46
595.78	283.20
595.94	238.73
596.10	203.63
596.25	238.73
596.41	262.14
596.57	250.44
596.73	266.82
596.88	311.29
597.04	262.14
597.20	290.23
597.36	271.50
597.51	271.50
597.67	257.46
597.83	252.78
597.99	301.93
598.14	135.75
598.30	266.82
598.46	259.80
598.61	269.16
598.77	269.16
598.93	234.05
599.09	325.33
599.24	257.46
599.40	285.55
599.56	245.76
599.71	313.63
599.87	341.72
600.03	245.76
600.18	276.18
600.34	306.61
600.50	271.50
600.65	177.88
600.81	238.73
600.97	252.78
601.12	262.14
601.28	198.95
601.44	292.57
601.59	194.26
601.75	245.76
601.91	271.50
602.06	287.89
602.22	334.70
602.37	271.50
602.53	273.84
602.69	262.14
602.84	318.31
603.00	320.65
603.16	315.97
603.31	299.59
603.47	215.33
603.62	163.84
603.78	283.20
603.94	231.71
604.09	227.03
604.25	290.23
604.40	245.76
604.56	201.29
604.71	283.20
604.87	259.80
605.03	294.91
605.18	191.92
605.34	262.14
605.49	250.44
605.65	257.46
605.80	248.10
605.96	222.35
606.12	308.95
606.27	273.84
606.43	196.60
606.58	311.29
606.74	236.39
606.89	285.55
607.05	372.15
607.20	486.83
607.36	416.62
607.51	395.55
607.67	315.97
607.82	287.89
607.98	315.97
608.13	383.85
608.29	273.84
608.44	301.93
608.60	243.42
608.75	313.63
608.91	383.85
609.06	388.53
609.22	599.18
609.37	667.05
609.53	620.24
609.68	465.77
609.84	561.73
609.99	390.87
610.15	381.51
610.30	524.28
610.46	472.79
610.61	627.26
610.76	615.56
610.92	737.27
611.07	713.86
611.23	823.87
611.38	688.12
611.54	613.22
611.69	512.58
611.84	489.17
612.00	428.32
612.15	411.93
612.31	428.32
612.46	379.17
612.62	376.83
612.77	390.87
612.92	454.06
613.08	425.98
613.23	337.04
613.39	290.23
613.54	348.74
613.69	479.81
613.85	620.24
614.00	833.23
614.15	945.58
614.31	718.54
614.46	535.98
614.62	442.36
614.77	477.47
614.92	355.76
615.08	308.95
615.23	264.48
615.38	330.02
615.54	266.82
615.69	264.48
615.84	367.46
616.00	365.12
616.15	388.53
616.30	346.40
616.46	397.89
616.61	341.72
616.76	334.70
616.92	311.29
617.07	269.16
617.22	304.27
617.37	245.76
617.53	318.31
617.68	290.23
617.83	231.71
617.99	250.44
618.14	273.84
618.29	266.82
618.45	217.67
618.60	194.26
618.75	257.46
618.90	234.05
619.06	222.35
619.21	283.20
619.36	229.37
619.51	222.35
619.67	231.71
619.82	238.73
619.97	252.78
620.12	266.82
620.28	234.05
620.43	322.99
620.58	292.57
620.73	238.73
620.89	208.31
621.04	259.80
621.19	315.97
621.34	322.99
621.49	306.61
621.65	337.04
621.80	334.70
621.95	259.80
622.10	374.49
622.25	245.76
622.41	259.80
622.56	266.82
622.71	222.35
622.86	236.39
623.01	220.01
623.16	283.20
623.32	196.60
623.47	283.20
623.62	189.58
623.77	252.78
623.92	234.05
624.07	285.55
624.23	255.12
624.38	212.99
624.53	287.89
624.68	140.43
624.83	360.44
624.98	217.67
625.13	222.35
625.29	210.65
625.44	222.35
625.59	231.71
625.74	236.39
625.89	299.59
626.04	311.29
626.19	393.21
626.34	386.19
626.49	568.75
626.65	414.27
626.80	285.55
626.95	344.06
627.10	248.10
627.25	297.25
627.40	208.31
627.55	234.05
627.70	222.35
627.85	229.37
628.00	177.88
628.15	201.29
628.30	215.33
628.45	292.57
628.60	166.18
628.76	210.65
628.91	231.71
629.06	287.89
629.21	212.99
629.36	255.12
629.51	231.71
629.66	290.23
629.81	168.52
629.96	294.91
630.11	264.48
630.26	358.10
630.41	344.06
630.56	372.15
630.71	245.76
630.86	262.14
631.01	238.73
631.16	203.63
631.31	292.57
631.46	322.99
631.61	156.82
631.76	203.63
631.91	236.39
632.06	259.80
632.21	224.69
632.36	229.37
632.51	227.03
632.66	220.01
632.81	189.58
632.96	278.52
633.10	344.06
633.25	428.32
633.40	390.87
633.55	344.06
633.70	327.68
633.85	271.50
634.00	252.78
634.15	259.80
634.30	205.97
634.45	210.65
634.60	163.84
634.75	212.99
634.90	252.78
635.05	215.33
635.19	255.12
635.34	215.33
635.49	290.23
635.64	236.39
635.79	182.56
635.94	138.09
636.09	271.50
636.24	269.16
636.39	238.73
636.53	189.58
636.68	170.86
636.83	201.29
636.98	189.58
637.13	227.03
637.28	191.92
637.43	252.78
637.57	152.13
637.72	318.31
637.87	458.74
638.02	528.96
638.17	533.64
638.32	517.26
638.46	334.70
638.61	386.19
638.76	360.44
638.91	184.90
639.06	234.05
639.20	280.86
639.35	311.29
639.50	154.48
639.65	341.72
639.80	433.00
639.94	685.78
640.09	807.48
640.24	594.50
640.39	472.79
640.54	393.21
640.68	227.03
640.83	248.10
640.98	266.82
641.13	229.37
641.27	135.75
641.42	182.56
641.57	229.37
641.72	269.16
641.86	208.31
642.01	198.95
642.16	245.76
642.31	201.29
642.45	266.82
642.60	184.90
642.75	222.35
642.90	280.86
643.04	285.55
643.19	184.90
643.34	217.67
643.48	175.54
643.63	227.03
643.78	231.71
643.93	231.71
644.07	175.54
644.22	217.67
644.37	119.37
644.51	243.42
644.66	217.67
644.81	180.22
644.95	170.86
645.10	159.16
645.25	175.54
645.39	257.46
645.54	236.39
645.69	278.52
645.83	224.69
645.98	294.91
646.13	227.03
646.27	234.05
646.42	208.31
646.57	196.60
646.71	259.80
646.86	182.56
647.00	245.76
647.15	159.16
647.30	222.35
647.44	184.90
647.59	252.78
647.74	156.82
647.88	161.50
648.03	191.92
648.17	191.92
648.32	163.84
648.47	187.24
648.61	189.58
648.76	215.33
648.90	159.16
649.05	159.16
649.20	142.77
649.34	159.16
649.49	166.18
649.63	182.56
649.78	259.80
649.92	210.65
650.07	222.35
650.21	360.44
650.36	362.78
650.51	503.22
650.65	533.64
650.80	397.89
650.94	311.29
651.09	234.05
651.23	236.39
651.38	276.18
651.52	330.02
651.67	135.75
651.81	205.97
651.96	205.97
652.10	337.04
652.25	205.97
652.39	175.54
652.54	234.05
652.68	212.99
652.83	287.89
652.97	241.08
653.12	334.70
653.26	301.93
653.41	262.14
653.55	248.10
653.70	194.26
653.84	161.50
653.99	215.33
654.13	159.16
654.27	191.92
654.42	227.03
654.56	205.97
654.71	292.57
654.85	147.45
655.00	159.16
655.14	159.16
655.29	152.13
655.43	194.26
655.57	168.52
655.72	201.29
655.86	250.44
656.01	215.33
656.15	175.54
656.30	217.67
656.44	161.50
656.58	177.88
656.73	227.03
656.87	187.24
657.01	217.67
657.16	231.71
657.30	227.03
657.45	173.20
657.59	177.88
657.73	196.60
657.88	119.37
658.02	231.71
658.16	189.58
658.31	175.54
658.45	180.22
658.60	208.31
658.74	208.31
658.88	205.97
659.03	154.48
659.17	205.97
659.31	231.71
659.46	294.91
659.60	297.25
659.74	386.19
659.89	334.70
660.03	262.14
660.17	278.52
660.32	259.80
660.46	227.03
660.60	217.67
660.74	147.45
660.89	248.10
661.03	182.56
661.17	180.22
661.32	215.33
661.46	252.78
661.60	180.22
661.74	264.48
661.89	189.58
662.03	205.97
662.17	149.79
662.31	163.84
662.46	198.95
662.60	184.90
662.74	149.79
662.88	180.22
663.03	201.29
663.17	234.05
663.31	161.50
663.45	166.18
663.60	184.90
663.74	175.54
663.88	220.01
664.02	67.88
664.17	133.41
664.31	138.09
664.45	227.03
664.59	142.77
664.73	175.54
664.88	210.65
665.02	180.22
665.16	182.56
665.30	189.58
665.44	191.92
665.59	217.67
665.73	257.46
665.87	168.52
666.01	191.92
666.15	147.45
666.29	205.97
666.44	205.97
666.58	234.05
666.72	210.65
666.86	187.24
667.00	189.58
667.14	182.56
667.28	238.73
667.43	320.65
667.57	348.74
667.71	390.87
667.85	400.23
667.99	313.63
668.13	278.52
668.27	269.16
668.41	269.16
668.56	145.11
668.70	243.42
668.84	236.39
668.98	194.26
669.12	231.71
669.26	177.88
669.40	241.08
669.54	266.82
669.68	189.58
669.82	236.39
669.96	112.35
670.10	133.41
670.25	203.63
670.39	212.99
670.53	173.20
670.67	201.29
670.81	175.54
670.95	189.58
671.09	205.97
671.23	180.22
671.37	308.95
671.51	299.59
671.65	393.21
671.79	311.29
671.93	271.50
672.07	294.91
672.21	252.78
672.35	231.71
672.49	173.20
672.63	189.58
672.77	180.22
672.91	189.58
673.05	145.11
673.19	163.84
673.33	135.75
673.47	203.63
673.61	262.14
673.75	215.33
673.89	163.84
674.03	259.80
674.17	191.92
674.31	194.26
674.45	203.63
674.59	156.82
674.73	93.62
674.87	276.18
675.01	245.76
675.15	175.54
675.29	152.13
675.43	227.03
675.56	231.71
675.70	252.78
675.84	203.63
675.98	163.84
676.12	147.45
676.26	248.10
676.40	133.41
676.54	208.31
676.68	145.11
676.82	184.90
676.96	145.11
677.10	180.22
677.23	147.45
677.37	189.58
677.51	131.07
677.65	229.37
677.79	182.56
677.93	161.50
678.07	161.50
678.21	224.69
678.34	128.73
678.48	196.60
678.62	189.58
678.76	133.41
678.90	243.42
679.04	208.31
679.18	124.05
679.31	173.20
679.45	126.39
679.59	140.43
679.73	159.16
679.87	126.39
680.00	182.56
680.14	203.63
680.28	203.63
680.42	159.16
680.56	215.33
680.70	191.92
680.83	234.05
680.97	182.56
681.11	168.52
681.25	238.73
681.39	173.20
681.52	234.05
681.66	142.77
681.80	135.75
681.94	100.64
682.07	180.22
682.21	177.88
682.35	110.01
682.49	201.29
682.62	198.95
682.76	161.50
682.90	156.82
683.04	222.35
683.17	205.97
683.31	208.31
683.45	175.54
683.59	189.58
683.72	241.08
683.86	86.60
684.00	156.82
684.13	117.03
684.27	168.52
684.41	149.79
684.55	124.05
684.68	210.65
684.82	74.90
684.96	182.56
685.09	180.22
685.23	98.30
685.37	170.86
685.50	299.59
685.64	222.35
685.78	175.54
685.91	201.29
686.05	234.05
686.19	210.65
686.32	173.20
686.46	126.39
686.60	114.69
686.73	252.78
686.87	203.63
687.01	173.20
687.14	84.26
687.28	84.26
687.42	156.82
687.55	182.56
687.69	264.48
687.82	173.20
687.96	234.05
688.10	166.18
688.23	187.24
688.37	177.88
688.50	156.82
688.64	189.58
688.78	105.32
688.91	159.16
689.05	142.77
689.18	131.07
689.32	98.30
689.46	105.32
689.59	128.73
689.73	159.16
689.86	114.69
690.00	152.13
690.13	154.48
690.27	180.22
690.41	210.65
690.54	201.29
690.68	149.79
690.81	154.48
690.95	177.88
691.08	201.29
691.22	88.94
691.35	173.20
691.49	135.75
691.62	196.60
691.76	145.11
691.89	133.41
692.03	154.48
692.16	175.54
692.30	241.08
692.43	227.03
692.57	142.77
692.70	184.90
692.84	252.78
692.97	304.27
693.11	259.80
693.24	229.37
693.38	112.35
693.51	124.05
693.65	177.88
693.78	170.86
693.92	133.41
694.05	175.54
694.19	128.73
694.32	152.13
694.45	124.05
694.59	189.58
694.72	220.01
694.86	212.99
694.99	149.79
695.13	72.56
695.26	205.97
695.39	168.52
695.53	198.95
695.66	142.77
695.80	159.16
695.93	161.50
696.07	124.05
696.20	154.48
696.33	145.11
696.47	133.41
696.60	180.22
696.73	124.05
696.87	142.77
697.00	203.63
697.14	135.75
697.27	119.37
697.40	177.88
697.54	175.54
697.67	208.31
697.80	142.77
697.94	175.54
698.07	196.60
698.21	177.88
698.34	74.90
698.47	161.50
698.61	119.37
698.74	161.50
698.87	227.03
699.01	156.82
699.14	149.79
699.27	128.73
699.40	224.69
699.54	124.05
699.67	133.41
699.80	135.75
699.94	175.54
700.07	140.43
700.20	110.01
700.34	159.16
700.47	142.77
700.60	84.26
700.73	168.52
700.87	163.84
701.00	88.94
701.13	135.75
701.26	105.32
701.40	84.26
701.53	149.79
701.66	67.88
701.79	128.73
701.93	196.60
702.06	241.08
702.19	168.52
702.32	191.92
702.46	105.32
702.59	138.09
702.72	138.09
702.85	145.11
702.99	236.39
703.12	379.17
703.25	418.96
703.38	360.44
703.51	315.97
703.65	255.12
703.78	236.39
703.91	250.44
704.04	194.26
704.17	189.58
704.31	140.43
704.44	227.03
704.57	177.88
704.70	159.16
704.83	173.20
704.96	170.86
705.10	147.45
705.23	182.56
>>>>>End Processed Spectral Data<<<<<
