SpectraSuite Data File
++++++++++++++++++++++++++++++++++++
Date: Tue Oct 01 18:25:08 GMT-05:00 2013
User: stostad
Dark Spectrum Present: No
Reference Spectrum Present: No
Number of Sampled Component Spectra: 1
Spectrometers: USB2+H05261
Integration Time (usec): 100000 (USB2+H05261)
Spectra Averaged: 1 (USB2+H05261)
Boxcar Smoothing: 0 (USB2+H05261)
Correct for Electrical Dark: No (USB2+H05261)
Strobe/Lamp Enabled: No (USB2+H05261)
Correct for Detector Non-linearity: No (USB2+H05261)
Correct for Stray Light: No (USB2+H05261)
Number of Pixels in Processed Spectrum: 2048
>>>>>Begin Processed Spectral Data<<<<<
365.73	42.13
365.92	42.13
366.12	42.13
366.32	46.81
366.52	21.06
366.72	0.00
366.91	0.00
367.11	0.00
367.31	0.00
367.51	0.00
367.70	0.00
367.90	0.00
368.10	0.00
368.30	0.00
368.49	0.00
368.69	23.41
368.89	0.00
369.09	0.00
369.28	0.00
369.48	0.00
369.68	0.00
369.87	42.13
370.07	0.00
370.27	46.81
370.47	67.88
370.66	37.45
370.86	23.41
371.06	93.62
371.25	72.56
371.45	86.60
371.65	135.75
371.84	79.58
372.04	72.56
372.24	110.01
372.44	81.92
372.63	142.77
372.83	210.65
373.03	133.41
373.22	74.90
373.42	98.30
373.62	79.58
373.81	168.52
374.01	243.42
374.21	168.52
374.40	100.64
374.60	114.69
374.79	154.48
374.99	166.18
375.19	126.39
375.38	191.92
375.58	107.66
375.78	126.39
375.97	140.43
376.17	121.71
376.37	140.43
376.56	170.86
376.76	156.82
376.95	112.35
377.15	110.01
377.35	133.41
377.54	110.01
377.74	88.94
377.93	154.48
378.13	110.01
378.33	180.22
378.52	98.30
378.72	98.30
378.91	196.60
379.11	191.92
379.31	102.98
379.50	124.05
379.70	184.90
379.89	173.20
380.09	107.66
380.28	93.62
380.48	119.37
380.68	98.30
380.87	161.50
381.07	126.39
381.26	145.11
381.46	53.83
381.65	152.13
381.85	145.11
382.04	110.01
382.24	170.86
382.43	135.75
382.63	140.43
382.83	147.45
383.02	175.54
383.22	112.35
383.41	107.66
383.61	152.13
383.80	138.09
384.00	145.11
384.19	102.98
384.39	194.26
384.58	142.77
384.78	142.77
384.97	170.86
385.17	138.09
385.36	121.71
385.56	147.45
385.75	86.60
385.95	173.20
386.14	205.97
386.34	177.88
386.53	77.24
386.72	147.45
386.92	168.52
387.11	79.58
387.31	187.24
387.50	126.39
387.70	105.32
387.89	184.90
388.09	217.67
388.28	88.94
388.48	84.26
388.67	147.45
388.86	135.75
389.06	170.86
389.25	131.07
389.45	252.78
389.64	156.82
389.84	161.50
390.03	177.88
390.22	147.45
390.42	152.13
390.61	102.98
390.81	65.54
391.00	98.30
391.19	187.24
391.39	112.35
391.58	177.88
391.78	74.90
391.97	138.09
392.16	98.30
392.36	154.48
392.55	147.45
392.75	91.28
392.94	180.22
393.13	147.45
393.33	138.09
393.52	194.26
393.71	222.35
393.91	77.24
394.10	173.20
394.29	203.63
394.49	110.01
394.68	163.84
394.88	163.84
395.07	117.03
395.26	128.73
395.46	170.86
395.65	124.05
395.84	105.32
396.04	241.08
396.23	201.29
396.42	166.18
396.62	114.69
396.81	138.09
397.00	95.96
397.19	100.64
397.39	121.71
397.58	140.43
397.77	135.75
397.97	163.84
398.16	30.43
398.35	140.43
398.55	168.52
398.74	142.77
398.93	152.13
399.12	149.79
399.32	117.03
399.51	95.96
399.70	135.75
399.90	168.52
400.09	124.05
400.28	159.16
400.47	170.86
400.67	117.03
400.86	159.16
401.05	154.48
401.24	166.18
401.44	74.90
401.63	149.79
401.82	170.86
402.01	135.75
402.21	173.20
402.40	187.24
402.59	156.82
402.78	102.98
402.97	105.32
403.17	98.30
403.36	98.30
403.55	212.99
403.74	131.07
403.93	152.13
404.13	241.08
404.32	175.54
404.51	131.07
404.70	170.86
404.89	102.98
405.09	95.96
405.28	81.92
405.47	128.73
405.66	145.11
405.85	166.18
406.05	198.95
406.24	135.75
406.43	65.54
406.62	180.22
406.81	177.88
407.00	138.09
407.20	166.18
407.39	152.13
407.58	42.13
407.77	161.50
407.96	182.56
408.15	117.03
408.34	0.00
408.54	147.45
408.73	128.73
408.92	121.71
409.11	70.22
409.30	114.69
409.49	138.09
409.68	35.11
409.87	126.39
410.07	121.71
410.26	189.58
410.45	173.20
410.64	88.94
410.83	159.16
411.02	128.73
411.21	117.03
411.40	128.73
411.59	194.26
411.78	72.56
411.98	147.45
412.17	18.72
412.36	79.58
412.55	105.32
412.74	147.45
412.93	163.84
413.12	86.60
413.31	159.16
413.50	117.03
413.69	56.17
413.88	180.22
414.07	128.73
414.26	203.63
414.45	88.94
414.64	79.58
414.83	128.73
415.02	154.48
415.22	194.26
415.41	163.84
415.60	156.82
415.79	145.11
415.98	135.75
416.17	117.03
416.36	173.20
416.55	93.62
416.74	102.98
416.93	175.54
417.12	67.88
417.31	163.84
417.50	163.84
417.69	229.37
417.88	170.86
418.07	156.82
418.26	114.69
418.45	154.48
418.64	166.18
418.83	191.92
419.02	154.48
419.21	147.45
419.39	189.58
419.58	191.92
419.77	152.13
419.96	152.13
420.15	182.56
420.34	142.77
420.53	180.22
420.72	102.98
420.91	107.66
421.10	182.56
421.29	140.43
421.48	110.01
421.67	142.77
421.86	156.82
422.05	102.98
422.24	95.96
422.43	117.03
422.61	95.96
422.80	140.43
422.99	175.54
423.18	156.82
423.37	86.60
423.56	131.07
423.75	184.90
423.94	112.35
424.13	128.73
424.32	98.30
424.50	156.82
424.69	159.16
424.88	142.77
425.07	128.73
425.26	58.51
425.45	180.22
425.64	194.26
425.83	168.52
426.01	191.92
426.20	110.01
426.39	124.05
426.58	149.79
426.77	147.45
426.96	243.42
427.15	234.05
427.33	84.26
427.52	131.07
427.71	163.84
427.90	11.70
428.09	105.32
428.28	154.48
428.46	163.84
428.65	156.82
428.84	182.56
429.03	210.65
429.22	51.49
429.40	105.32
429.59	117.03
429.78	175.54
429.97	191.92
430.16	187.24
430.34	168.52
430.53	152.13
430.72	110.01
430.91	198.95
431.10	145.11
431.28	105.32
431.47	91.28
431.66	161.50
431.85	128.73
432.03	131.07
432.22	210.65
432.41	222.35
432.60	191.92
432.79	119.37
432.97	227.03
433.16	182.56
433.35	117.03
433.54	67.88
433.72	180.22
433.91	149.79
434.10	184.90
434.28	210.65
434.47	180.22
434.66	159.16
434.85	126.39
435.03	135.75
435.22	177.88
435.41	105.32
435.59	201.29
435.78	159.16
435.97	98.30
436.16	154.48
436.34	180.22
436.53	135.75
436.72	194.26
436.90	88.94
437.09	138.09
437.28	110.01
437.46	168.52
437.65	135.75
437.84	159.16
438.02	131.07
438.21	100.64
438.40	145.11
438.58	156.82
438.77	98.30
438.96	121.71
439.14	131.07
439.33	191.92
439.52	180.22
439.70	93.62
439.89	135.75
440.08	191.92
440.26	152.13
440.45	126.39
440.63	203.63
440.82	159.16
441.01	229.37
441.19	107.66
441.38	121.71
441.57	154.48
441.75	145.11
441.94	156.82
442.12	105.32
442.31	102.98
442.50	95.96
442.68	100.64
442.87	138.09
443.05	81.92
443.24	173.20
443.43	159.16
443.61	208.31
443.80	135.75
443.98	152.13
444.17	126.39
444.35	163.84
444.54	112.35
444.73	194.26
444.91	149.79
445.10	133.41
445.28	86.60
445.47	191.92
445.65	187.24
445.84	126.39
446.02	131.07
446.21	128.73
446.39	145.11
446.58	140.43
446.77	110.01
446.95	140.43
447.14	168.52
447.32	152.13
447.51	152.13
447.69	98.30
447.88	173.20
448.06	198.95
448.25	187.24
448.43	189.58
448.62	166.18
448.80	189.58
448.99	173.20
449.17	154.48
449.36	124.05
449.54	161.50
449.73	95.96
449.91	107.66
450.10	91.28
450.28	266.82
450.46	201.29
450.65	156.82
450.83	142.77
451.02	149.79
451.20	161.50
451.39	133.41
451.57	152.13
451.76	140.43
451.94	117.03
452.13	86.60
452.31	168.52
452.49	128.73
452.68	112.35
452.86	145.11
453.05	102.98
453.23	135.75
453.42	180.22
453.60	145.11
453.78	156.82
453.97	126.39
454.15	107.66
454.34	114.69
454.52	135.75
454.70	182.56
454.89	175.54
455.07	124.05
455.26	110.01
455.44	110.01
455.62	102.98
455.81	88.94
455.99	201.29
456.17	149.79
456.36	184.90
456.54	168.52
456.73	119.37
456.91	126.39
457.09	168.52
457.28	98.30
457.46	95.96
457.64	187.24
457.83	140.43
458.01	154.48
458.19	105.32
458.38	135.75
458.56	182.56
458.74	79.58
458.93	114.69
459.11	187.24
459.29	142.77
459.48	107.66
459.66	110.01
459.84	198.95
460.03	285.55
460.21	128.73
460.39	102.98
460.57	121.71
460.76	107.66
460.94	196.60
461.12	173.20
461.31	198.95
461.49	161.50
461.67	102.98
461.85	145.11
462.04	93.62
462.22	571.09
462.40	170.86
462.59	156.82
462.77	124.05
462.95	180.22
463.13	91.28
463.32	128.73
463.50	102.98
463.68	102.98
463.86	187.24
464.05	152.13
464.23	189.58
464.41	128.73
464.59	112.35
464.78	84.26
464.96	98.30
465.14	65.54
465.32	177.88
465.50	222.35
465.69	100.64
465.87	131.07
466.05	161.50
466.23	121.71
466.41	110.01
466.60	114.69
466.78	184.90
466.96	107.66
467.14	210.65
467.32	126.39
467.51	173.20
467.69	154.48
467.87	147.45
468.05	166.18
468.23	250.44
468.41	140.43
468.60	112.35
468.78	154.48
468.96	91.28
469.14	184.90
469.32	79.58
469.50	152.13
469.69	168.52
469.87	170.86
470.05	140.43
470.23	84.26
470.41	128.73
470.59	152.13
470.77	119.37
470.95	131.07
471.14	140.43
471.32	131.07
471.50	236.39
471.68	142.77
471.86	126.39
472.04	56.17
472.22	112.35
472.40	196.60
472.58	112.35
472.77	110.01
472.95	168.52
473.13	227.03
473.31	145.11
473.49	67.88
473.67	110.01
473.85	138.09
474.03	196.60
474.21	142.77
474.39	205.97
474.57	138.09
474.75	201.29
474.93	133.41
475.12	131.07
475.30	112.35
475.48	147.45
475.66	163.84
475.84	161.50
476.02	201.29
476.20	170.86
476.38	100.64
476.56	196.60
476.74	166.18
476.92	102.98
477.10	184.90
477.28	126.39
477.46	168.52
477.64	212.99
477.82	131.07
478.00	119.37
478.18	224.69
478.36	126.39
478.54	154.48
478.72	110.01
478.90	191.92
479.08	205.97
479.26	112.35
479.44	161.50
479.62	105.32
479.80	93.62
479.98	42.13
480.16	168.52
480.34	149.79
480.52	93.62
480.70	53.83
480.88	95.96
481.06	100.64
481.24	142.77
481.41	175.54
481.59	114.69
481.77	135.75
481.95	198.95
482.13	217.67
482.31	156.82
482.49	51.49
482.67	177.88
482.85	224.69
483.03	112.35
483.21	91.28
483.39	135.75
483.57	114.69
483.74	227.03
483.92	147.45
484.10	140.43
484.28	88.94
484.46	170.86
484.64	142.77
484.82	98.30
485.00	131.07
485.18	95.96
485.35	98.30
485.53	156.82
485.71	138.09
485.89	112.35
486.07	161.50
486.25	248.10
486.43	98.30
486.61	168.52
486.78	147.45
486.96	126.39
487.14	142.77
487.32	166.18
487.50	77.24
487.68	145.11
487.85	142.77
488.03	163.84
488.21	212.99
488.39	107.66
488.57	180.22
488.75	145.11
488.92	245.76
489.10	184.90
489.28	121.71
489.46	107.66
489.64	168.52
489.81	166.18
489.99	114.69
490.17	102.98
490.35	215.33
490.53	128.73
490.70	117.03
490.88	168.52
491.06	215.33
491.24	163.84
491.41	77.24
491.59	163.84
491.77	152.13
491.95	205.97
492.13	131.07
492.30	168.52
492.48	63.19
492.66	70.22
492.84	70.22
493.01	121.71
493.19	138.09
493.37	163.84
493.54	110.01
493.72	93.62
493.90	163.84
494.08	140.43
494.25	142.77
494.43	152.13
494.61	156.82
494.79	102.98
494.96	77.24
495.14	180.22
495.32	126.39
495.49	168.52
495.67	156.82
495.85	135.75
496.02	161.50
496.20	182.56
496.38	182.56
496.55	196.60
496.73	102.98
496.91	187.24
497.09	98.30
497.26	67.88
497.44	131.07
497.62	102.98
497.79	177.88
497.97	119.37
498.14	117.03
498.32	88.94
498.50	152.13
498.67	182.56
498.85	184.90
499.03	100.64
499.20	135.75
499.38	135.75
499.56	142.77
499.73	133.41
499.91	168.52
500.08	161.50
500.26	133.41
500.44	142.77
500.61	84.26
500.79	102.98
500.97	161.50
501.14	121.71
501.32	135.75
501.49	159.16
501.67	126.39
501.84	196.60
502.02	140.43
502.20	217.67
502.37	135.75
502.55	63.19
502.72	86.60
502.90	135.75
503.07	210.65
503.25	189.58
503.43	140.43
503.60	156.82
503.78	131.07
503.95	114.69
504.13	156.82
504.30	140.43
504.48	161.50
504.65	138.09
504.83	112.35
505.01	177.88
505.18	168.52
505.36	131.07
505.53	145.11
505.71	175.54
505.88	145.11
506.06	105.32
506.23	126.39
506.41	121.71
506.58	161.50
506.76	138.09
506.93	128.73
507.11	191.92
507.28	114.69
507.46	163.84
507.63	159.16
507.81	166.18
507.98	152.13
508.16	194.26
508.33	79.58
508.50	166.18
508.68	140.43
508.85	100.64
509.03	161.50
509.20	95.96
509.38	117.03
509.55	180.22
509.73	154.48
509.90	170.86
510.08	156.82
510.25	128.73
510.42	77.24
510.60	145.11
510.77	152.13
510.95	145.11
511.12	168.52
511.30	138.09
511.47	189.58
511.64	184.90
511.82	114.69
511.99	147.45
512.17	168.52
512.34	175.54
512.51	140.43
512.69	86.60
512.86	154.48
513.04	124.05
513.21	121.71
513.38	147.45
513.56	102.98
513.73	135.75
513.90	95.96
514.08	74.90
514.25	138.09
514.43	170.86
514.60	215.33
514.77	135.75
514.95	156.82
515.12	131.07
515.29	168.52
515.47	142.77
515.64	145.11
515.81	156.82
515.99	191.92
516.16	140.43
516.33	194.26
516.51	102.98
516.68	121.71
516.85	142.77
517.03	168.52
517.20	72.56
517.37	159.16
517.54	156.82
517.72	184.90
517.89	100.64
518.06	177.88
518.24	156.82
518.41	180.22
518.58	138.09
518.75	245.76
518.93	140.43
519.10	135.75
519.27	117.03
519.45	119.37
519.62	149.79
519.79	177.88
519.96	77.24
520.14	128.73
520.31	163.84
520.48	191.92
520.65	126.39
520.83	168.52
521.00	86.60
521.17	91.28
521.34	131.07
521.52	142.77
521.69	112.35
521.86	93.62
522.03	166.18
522.20	140.43
522.38	126.39
522.55	203.63
522.72	142.77
522.89	128.73
523.07	205.97
523.24	135.75
523.41	168.52
523.58	208.31
523.75	147.45
523.92	91.28
524.10	135.75
524.27	110.01
524.44	74.90
524.61	173.20
524.78	173.20
524.96	135.75
525.13	133.41
525.30	145.11
525.47	163.84
525.64	105.32
525.81	121.71
525.98	102.98
526.16	124.05
526.33	175.54
526.50	70.22
526.67	102.98
526.84	84.26
527.01	112.35
527.18	131.07
527.36	154.48
527.53	220.01
527.70	79.58
527.87	121.71
528.04	149.79
528.21	184.90
528.38	142.77
528.55	215.33
528.72	166.18
528.89	135.75
529.07	114.69
529.24	140.43
529.41	184.90
529.58	138.09
529.75	7.02
529.92	117.03
530.09	147.45
530.26	154.48
530.43	149.79
530.60	121.71
530.77	124.05
530.94	67.88
531.11	112.35
531.28	182.56
531.46	133.41
531.63	135.75
531.80	194.26
531.97	180.22
532.14	161.50
532.31	117.03
532.48	212.99
532.65	248.10
532.82	283.20
532.99	191.92
533.16	201.29
533.33	194.26
533.50	135.75
533.67	243.42
533.84	234.05
534.01	229.37
534.18	131.07
534.35	154.48
534.52	154.48
534.69	88.94
534.86	173.20
535.03	133.41
535.20	131.07
535.37	168.52
535.54	194.26
535.71	191.92
535.88	173.20
536.05	56.17
536.22	102.98
536.38	126.39
536.55	196.60
536.72	180.22
536.89	98.30
537.06	81.92
537.23	91.28
537.40	124.05
537.57	102.98
537.74	114.69
537.91	175.54
538.08	112.35
538.25	175.54
538.42	102.98
538.59	184.90
538.75	161.50
538.92	142.77
539.09	138.09
539.26	154.48
539.43	421.30
539.60	650.67
539.77	809.83
539.94	716.20
540.11	393.21
540.28	290.23
540.44	259.80
540.61	91.28
540.78	149.79
540.95	128.73
541.12	140.43
541.29	201.29
541.46	227.03
541.62	126.39
541.79	189.58
541.96	124.05
542.13	112.35
542.30	124.05
542.47	119.37
542.63	140.43
542.80	72.56
542.97	159.16
543.14	161.50
543.31	224.69
543.48	88.94
543.64	126.39
543.81	142.77
543.98	142.77
544.15	152.13
544.32	107.66
544.48	119.37
544.65	177.88
544.82	131.07
544.99	138.09
545.16	168.52
545.32	173.20
545.49	91.28
545.66	128.73
545.83	133.41
546.00	117.03
546.16	156.82
546.33	208.31
546.50	112.35
546.67	128.73
546.83	154.48
547.00	180.22
547.17	126.39
547.34	133.41
547.50	154.48
547.67	107.66
547.84	152.13
548.00	135.75
548.17	145.11
548.34	138.09
548.51	114.69
548.67	187.24
548.84	145.11
549.01	84.26
549.18	119.37
549.34	196.60
549.51	107.66
549.68	114.69
549.84	114.69
550.01	196.60
550.18	161.50
550.34	257.46
550.51	201.29
550.68	177.88
550.84	93.62
551.01	91.28
551.18	166.18
551.34	133.41
551.51	100.64
551.68	107.66
551.84	189.58
552.01	102.98
552.18	84.26
552.34	166.18
552.51	128.73
552.68	194.26
552.84	128.73
553.01	149.79
553.18	196.60
553.34	154.48
553.51	196.60
553.67	117.03
553.84	208.31
554.01	149.79
554.17	74.90
554.34	140.43
554.51	187.24
554.67	161.50
554.84	98.30
555.00	133.41
555.17	138.09
555.33	238.73
555.50	205.97
555.67	105.32
555.83	142.77
556.00	154.48
556.16	283.20
556.33	152.13
556.50	81.92
556.66	128.73
556.83	124.05
556.99	194.26
557.16	152.13
557.32	173.20
557.49	121.71
557.65	126.39
557.82	147.45
557.98	149.79
558.15	145.11
558.32	201.29
558.48	124.05
558.65	194.26
558.81	145.11
558.98	124.05
559.14	177.88
559.31	98.30
559.47	145.11
559.64	124.05
559.80	107.66
559.97	110.01
560.13	159.16
560.30	138.09
560.46	81.92
560.63	142.77
560.79	147.45
560.96	79.58
561.12	131.07
561.29	133.41
561.45	131.07
561.61	128.73
561.78	227.03
561.94	145.11
562.11	121.71
562.27	201.29
562.44	140.43
562.60	215.33
562.77	128.73
562.93	166.18
563.10	156.82
563.26	154.48
563.42	187.24
563.59	215.33
563.75	142.77
563.92	86.60
564.08	187.24
564.24	149.79
564.41	248.10
564.57	156.82
564.74	184.90
564.90	135.75
565.07	128.73
565.23	191.92
565.39	187.24
565.56	163.84
565.72	156.82
565.88	100.64
566.05	140.43
566.21	84.26
566.38	187.24
566.54	145.11
566.70	135.75
566.87	126.39
567.03	88.94
567.19	107.66
567.36	93.62
567.52	119.37
567.68	152.13
567.85	168.52
568.01	98.30
568.17	121.71
568.34	161.50
568.50	196.60
568.66	149.79
568.83	194.26
568.99	145.11
569.15	173.20
569.32	91.28
569.48	133.41
569.64	154.48
569.81	105.32
569.97	133.41
570.13	152.13
570.30	79.58
570.46	189.58
570.62	191.92
570.78	180.22
570.95	196.60
571.11	117.03
571.27	243.42
571.43	184.90
571.60	77.24
571.76	138.09
571.92	166.18
572.09	121.71
572.25	135.75
572.41	142.77
572.57	98.30
572.74	201.29
572.90	126.39
573.06	170.86
573.22	159.16
573.38	194.26
573.55	117.03
573.71	243.42
573.87	110.01
574.03	60.85
574.20	147.45
574.36	170.86
574.52	250.44
574.68	243.42
574.84	166.18
575.01	180.22
575.17	205.97
575.33	149.79
575.49	205.97
575.65	119.37
575.82	264.48
575.98	374.49
576.14	423.64
576.30	325.33
576.46	241.08
576.62	248.10
576.79	217.67
576.95	210.65
577.11	154.48
577.27	264.48
577.43	210.65
577.59	184.90
577.75	138.09
577.92	145.11
578.08	229.37
578.24	170.86
578.40	201.29
578.56	292.57
578.72	191.92
578.88	184.90
579.04	152.13
579.21	220.01
579.37	126.39
579.53	77.24
579.69	168.52
579.85	147.45
580.01	189.58
580.17	238.73
580.33	102.98
580.49	163.84
580.65	229.37
580.82	229.37
580.98	201.29
581.14	142.77
581.30	149.79
581.46	297.25
581.62	346.40
581.78	376.83
581.94	266.82
582.10	273.84
582.26	264.48
582.42	142.77
582.58	224.69
582.74	238.73
582.90	227.03
583.06	215.33
583.22	379.17
583.38	341.72
583.54	322.99
583.70	454.06
583.86	348.74
584.02	442.36
584.18	610.88
584.34	1043.88
584.50	7318.86
584.66	24898.62
584.82	42548.60
584.98	44570.82
585.14	27487.25
585.30	14752.40
585.46	6949.05
585.62	2857.79
585.78	1221.76
585.94	624.92
586.10	564.07
586.26	348.74
586.42	353.42
586.58	285.55
586.74	337.04
586.90	320.65
587.06	304.27
587.22	287.89
587.38	545.34
587.54	1369.21
587.70	2628.42
587.86	3314.20
588.02	2546.50
588.18	1497.94
588.34	910.47
588.49	500.87
588.65	252.78
588.81	227.03
588.97	170.86
589.13	170.86
589.29	210.65
589.45	189.58
589.61	271.50
589.77	252.78
589.93	299.59
590.08	229.37
590.24	222.35
590.40	264.48
590.56	217.67
590.72	163.84
590.88	220.01
591.04	217.67
591.20	224.69
591.35	234.05
591.51	215.33
591.67	156.82
591.83	117.03
591.99	119.37
592.15	177.88
592.31	194.26
592.46	177.88
592.62	234.05
592.78	201.29
592.94	180.22
593.10	194.26
593.26	166.18
593.41	231.71
593.57	334.70
593.73	1137.50
593.89	3178.45
594.05	5289.61
594.20	5327.06
594.36	3630.17
594.52	2125.21
594.68	1203.04
594.84	678.76
594.99	369.80
595.15	330.02
595.31	255.12
595.47	194.26
595.62	187.24
595.78	266.82
595.94	201.29
596.10	224.69
596.25	224.69
596.41	245.76
596.57	231.71
596.73	320.65
596.88	653.01
597.04	1146.86
597.20	1409.00
597.36	1144.52
597.51	760.67
597.67	510.24
597.83	315.97
597.99	212.99
598.14	222.35
598.30	159.16
598.46	189.58
598.61	201.29
598.77	217.67
598.93	184.90
599.09	149.79
599.24	154.48
599.40	163.84
599.56	194.26
599.71	135.75
599.87	119.37
600.03	114.69
600.18	145.11
600.34	227.03
600.50	142.77
600.65	98.30
600.81	212.99
600.97	229.37
601.12	170.86
601.28	311.29
601.44	131.07
601.59	147.45
601.75	229.37
601.91	177.88
602.06	205.97
602.22	479.81
602.37	823.87
602.53	1350.49
602.69	1416.02
602.84	1071.97
603.00	737.27
603.16	472.79
603.31	362.78
603.47	194.26
603.62	147.45
603.78	187.24
603.94	180.22
604.09	170.86
604.25	203.63
604.40	86.60
604.56	163.84
604.71	145.11
604.87	114.69
605.03	135.75
605.18	154.48
605.34	196.60
605.49	245.76
605.65	175.54
605.80	102.98
605.96	196.60
606.12	212.99
606.27	236.39
606.43	250.44
606.58	545.34
606.74	1734.34
606.89	3370.37
607.05	4507.87
607.20	3831.46
607.36	2518.42
607.51	1558.80
607.67	1004.09
607.82	496.19
607.98	367.46
608.13	320.65
608.29	203.63
608.44	276.18
608.60	262.14
608.75	709.18
608.91	2850.77
609.06	5605.58
609.22	7819.73
609.37	6619.04
609.53	4472.76
609.68	2679.91
609.84	1661.78
609.99	791.10
610.15	416.62
610.30	266.82
610.46	252.78
610.61	243.42
610.76	177.88
610.92	177.88
611.07	159.16
611.23	189.58
611.38	198.95
611.54	149.79
611.69	126.39
611.84	273.84
612.00	255.12
612.15	381.51
612.31	325.33
612.46	346.40
612.62	330.02
612.77	374.49
612.92	257.46
613.08	301.93
613.23	369.80
613.39	624.92
613.54	2881.20
613.69	7529.50
613.85	11936.73
614.00	12016.31
614.15	8456.36
614.31	5366.85
614.46	3440.59
614.62	1727.32
614.77	849.61
614.92	418.96
615.08	330.02
615.23	290.23
615.38	306.61
615.54	678.76
615.69	1689.87
615.84	2654.17
616.00	3197.17
616.15	2609.70
616.30	1825.62
616.46	1210.06
616.61	777.06
616.76	531.30
616.92	306.61
617.07	201.29
617.22	198.95
617.37	159.16
617.53	184.90
617.68	198.95
617.83	152.13
617.99	248.10
618.14	145.11
618.29	131.07
618.45	128.73
618.60	168.52
618.75	170.86
618.90	161.50
619.06	152.13
619.21	170.86
619.36	203.63
619.51	177.88
619.67	210.65
619.82	119.37
619.97	229.37
620.12	173.20
620.28	205.97
620.43	117.03
620.58	182.56
620.73	203.63
620.89	416.62
621.04	851.96
621.19	1619.65
621.34	1851.36
621.49	1633.69
621.65	1107.07
621.80	795.78
621.95	484.49
622.10	327.68
622.25	168.52
622.41	110.01
622.56	259.80
622.71	184.90
622.86	262.14
623.01	184.90
623.16	210.65
623.32	133.41
623.47	245.76
623.62	177.88
623.77	180.22
623.92	187.24
624.07	100.64
624.23	198.95
624.38	215.33
624.53	142.77
624.68	212.99
624.83	198.95
624.98	117.03
625.13	112.35
625.29	142.77
625.44	203.63
625.59	161.50
625.74	409.59
625.89	1631.35
626.04	3784.65
626.19	5891.13
626.34	6050.28
626.49	4601.49
626.65	3084.83
626.80	2054.99
626.95	1210.06
627.10	526.62
627.25	353.42
627.40	217.67
627.55	301.93
627.70	201.29
627.85	189.58
628.00	175.54
628.15	156.82
628.30	173.20
628.45	138.09
628.60	168.52
628.76	168.52
628.91	173.20
629.06	138.09
629.21	168.52
629.36	234.05
629.51	180.22
629.66	332.36
629.81	798.12
629.96	1413.68
630.11	1720.29
630.26	1427.73
630.41	1074.31
630.56	823.87
630.71	479.81
630.86	360.44
631.01	208.31
631.16	201.29
631.31	224.69
631.46	208.31
631.61	194.26
631.76	205.97
631.91	117.03
632.06	173.20
632.21	161.50
632.36	154.48
632.51	313.63
632.66	884.72
632.81	2321.81
632.96	3709.75
633.10	4105.30
633.25	3351.65
633.40	2251.60
633.55	1516.67
633.70	905.79
633.85	557.05
634.00	276.18
634.15	201.29
634.30	210.65
634.45	126.39
634.60	100.64
634.75	124.05
634.90	196.60
635.05	184.90
635.19	140.43
635.34	175.54
635.49	177.88
635.64	177.88
635.79	159.16
635.94	154.48
636.09	201.29
636.24	189.58
636.39	149.79
636.53	189.58
636.68	217.67
636.83	217.67
636.98	294.91
637.13	224.69
637.28	191.92
637.43	648.33
637.57	2237.55
637.72	5027.47
637.87	7602.06
638.02	7204.17
638.17	5568.13
638.32	3688.68
638.46	2459.90
638.61	1483.90
638.76	720.88
638.91	425.98
639.06	400.23
639.20	402.57
639.35	903.45
639.50	3508.46
639.65	7562.27
639.80	11400.75
639.94	10888.17
640.09	8095.91
640.24	5504.94
640.39	3662.94
640.54	2094.78
640.68	1062.60
640.83	650.67
640.98	308.95
641.13	231.71
641.27	224.69
641.42	135.75
641.57	212.99
641.72	187.24
641.86	135.75
642.01	142.77
642.16	205.97
642.31	217.67
642.45	231.71
642.60	220.01
642.75	210.65
642.90	135.75
643.04	86.60
643.19	147.45
643.34	126.39
643.48	161.50
643.63	156.82
643.78	217.67
643.93	191.92
644.07	210.65
644.22	121.71
644.37	170.86
644.51	110.01
644.66	187.24
644.81	180.22
644.95	154.48
645.10	229.37
645.25	182.56
645.39	168.52
645.54	266.82
645.69	203.63
645.83	124.05
645.98	299.59
646.13	187.24
646.27	177.88
646.42	163.84
646.57	163.84
646.71	119.37
646.86	198.95
647.00	173.20
647.15	177.88
647.30	194.26
647.44	156.82
647.59	112.35
647.74	210.65
647.88	194.26
648.03	95.96
648.17	156.82
648.32	194.26
648.47	234.05
648.61	177.88
648.76	168.52
648.90	182.56
649.05	138.09
649.20	208.31
649.34	205.97
649.49	236.39
649.63	212.99
649.78	397.89
649.92	1507.30
650.07	3520.17
650.21	5465.15
650.36	6174.33
650.51	4683.41
650.65	3344.63
650.80	2190.74
650.94	1324.74
651.09	751.31
651.23	416.62
651.38	327.68
651.52	170.86
651.67	196.60
651.81	182.56
651.96	224.69
652.10	177.88
652.25	154.48
652.39	280.86
652.54	538.32
652.68	1174.95
652.83	1827.96
652.97	2172.02
653.12	1834.98
653.26	1348.15
653.41	966.64
653.55	695.14
653.70	367.46
653.84	273.84
653.99	241.08
654.13	177.88
654.27	184.90
654.42	159.16
654.56	131.07
654.71	203.63
654.85	91.28
655.00	84.26
655.14	93.62
655.29	152.13
655.43	138.09
655.57	152.13
655.72	154.48
655.86	168.52
656.01	173.20
656.15	119.37
656.30	231.71
656.44	133.41
656.58	173.20
656.73	100.64
656.87	140.43
657.01	163.84
657.16	198.95
657.30	243.42
657.45	238.73
657.59	156.82
657.73	138.09
657.88	177.88
658.02	229.37
658.16	117.03
658.31	145.11
658.45	215.33
658.60	145.11
658.74	145.11
658.88	191.92
659.03	245.76
659.17	674.07
659.31	1589.22
659.46	2665.87
659.60	3243.98
659.74	2553.52
659.89	1877.11
660.03	1200.69
660.17	877.70
660.32	528.96
660.46	334.70
660.60	257.46
660.74	180.22
660.89	124.05
661.03	194.26
661.17	114.69
661.32	166.18
661.46	147.45
661.60	159.16
661.74	210.65
661.89	182.56
662.03	88.94
662.17	163.84
662.31	140.43
662.46	166.18
662.60	154.48
662.74	119.37
662.88	93.62
663.03	163.84
663.17	114.69
663.31	147.45
663.45	203.63
663.60	128.73
663.74	175.54
663.88	74.90
664.02	121.71
664.17	201.29
664.31	180.22
664.45	98.30
664.59	133.41
664.73	173.20
664.88	145.11
665.02	95.96
665.16	168.52
665.30	175.54
665.44	177.88
665.59	156.82
665.73	194.26
665.87	145.11
666.01	227.03
666.15	163.84
666.29	159.16
666.44	227.03
666.58	245.76
666.72	236.39
666.86	175.54
667.00	358.10
667.14	1268.57
667.28	2991.20
667.43	4692.77
667.57	5598.56
667.71	4507.87
667.85	3183.13
667.99	1942.64
668.13	1097.71
668.27	627.26
668.41	397.89
668.56	327.68
668.70	224.69
668.84	243.42
668.98	161.50
669.12	161.50
669.26	161.50
669.40	266.82
669.54	241.08
669.68	154.48
669.82	131.07
669.96	25.75
670.10	154.48
670.25	140.43
670.39	138.09
670.53	170.86
670.67	210.65
670.81	191.92
670.95	454.06
671.09	1128.14
671.23	2223.51
671.37	3309.52
671.51	3295.47
671.65	2593.31
671.79	1621.99
671.93	983.02
672.07	645.99
672.21	374.49
672.35	301.93
672.49	250.44
672.63	262.14
672.77	161.50
672.91	215.33
673.05	119.37
673.19	212.99
673.33	102.98
673.47	173.20
673.61	212.99
673.75	142.77
673.89	124.05
674.03	163.84
674.17	194.26
674.31	168.52
674.45	215.33
674.59	198.95
674.73	133.41
674.87	154.48
675.01	205.97
675.15	168.52
675.29	189.58
675.43	201.29
675.56	156.82
675.70	182.56
675.84	100.64
675.98	145.11
676.12	163.84
676.26	154.48
676.40	187.24
676.54	126.39
676.68	140.43
676.82	175.54
676.96	77.24
677.10	222.35
677.23	152.13
677.37	138.09
677.51	194.26
677.65	161.50
677.79	121.71
677.93	128.73
678.07	145.11
678.21	93.62
678.34	154.48
678.48	128.73
678.62	255.12
678.76	140.43
678.90	145.11
679.04	203.63
679.18	131.07
679.31	196.60
679.45	156.82
679.59	121.71
679.73	175.54
679.87	173.20
680.00	74.90
680.14	234.05
680.28	205.97
680.42	147.45
680.56	102.98
680.70	88.94
680.83	149.79
680.97	58.51
681.11	110.01
681.25	152.13
681.39	145.11
681.52	126.39
681.66	154.48
681.80	159.16
681.94	84.26
682.07	121.71
682.21	95.96
682.35	149.79
682.49	133.41
682.62	201.29
682.76	147.45
682.90	81.92
683.04	63.19
683.17	117.03
683.31	149.79
683.45	100.64
683.59	128.73
683.72	119.37
683.86	105.32
684.00	133.41
684.13	147.45
684.27	198.95
684.41	95.96
684.55	135.75
684.68	138.09
684.82	128.73
684.96	154.48
685.09	154.48
685.23	138.09
685.37	187.24
685.50	175.54
685.64	145.11
685.78	114.69
685.91	152.13
686.05	177.88
686.19	107.66
686.32	140.43
686.46	124.05
686.60	156.82
686.73	217.67
686.87	205.97
687.01	121.71
687.14	105.32
687.28	149.79
687.42	156.82
687.55	84.26
687.69	170.86
687.82	147.45
687.96	147.45
688.10	210.65
688.23	135.75
688.37	168.52
688.50	173.20
688.64	191.92
688.78	152.13
688.91	180.22
689.05	135.75
689.18	117.03
689.32	161.50
689.46	184.90
689.59	161.50
689.73	107.66
689.86	119.37
690.00	152.13
690.13	145.11
690.27	105.32
690.41	81.92
690.54	194.26
690.68	229.37
690.81	163.84
690.95	215.33
691.08	180.22
691.22	142.77
691.35	133.41
691.49	74.90
691.62	140.43
691.76	154.48
691.89	191.92
692.03	124.05
692.16	210.65
692.30	521.94
692.43	1254.53
692.57	1837.32
692.70	2518.42
692.84	2024.56
692.97	1645.40
693.11	1256.87
693.24	910.47
693.38	653.01
693.51	456.40
693.65	341.72
693.78	278.52
693.92	187.24
694.05	184.90
694.19	161.50
694.32	166.18
694.45	140.43
694.59	138.09
694.72	180.22
694.86	124.05
694.99	149.79
695.13	131.07
695.26	149.79
695.39	161.50
695.53	208.31
695.66	159.16
695.80	205.97
695.93	259.80
696.07	266.82
696.20	313.63
696.33	390.87
696.47	276.18
696.60	339.38
696.73	287.89
696.87	145.11
697.00	304.27
697.14	187.24
697.27	168.52
697.40	215.33
697.54	145.11
697.67	128.73
697.80	203.63
697.94	128.73
698.07	170.86
698.21	98.30
698.34	170.86
698.47	166.18
698.61	182.56
698.74	142.77
698.87	170.86
699.01	128.73
699.14	180.22
699.27	224.69
699.40	194.26
699.54	107.66
699.67	161.50
699.80	140.43
699.94	149.79
700.07	173.20
700.20	191.92
700.34	184.90
700.47	168.52
700.60	133.41
700.73	222.35
700.87	250.44
701.00	46.81
701.13	152.13
701.26	196.60
701.40	86.60
701.53	154.48
701.66	107.66
701.79	149.79
701.93	191.92
702.06	304.27
702.19	294.91
702.32	337.04
702.46	290.23
702.59	547.69
702.72	1493.26
702.85	2686.94
702.99	4039.76
703.12	4535.96
703.25	3691.02
703.38	3040.36
703.51	2581.61
703.65	1895.83
703.78	1151.54
703.91	873.02
704.04	613.22
704.17	376.83
704.31	252.78
704.44	168.52
704.57	177.88
704.70	184.90
704.83	224.69
704.96	170.86
705.10	175.54
705.23	201.29
>>>>>End Processed Spectral Data<<<<<
