SpectraSuite Data File
++++++++++++++++++++++++++++++++++++
Date: Fri Oct 04 12:13:32 GMT-05:00 2013
User: price-jones
Dark Spectrum Present: No
Reference Spectrum Present: No
Number of Sampled Component Spectra: 1
Spectrometers: USB2+H05261
Integration Time (usec): 10000 (USB2+H05261)
Spectra Averaged: 1 (USB2+H05261)
Boxcar Smoothing: 0 (USB2+H05261)
Correct for Electrical Dark: No (USB2+H05261)
Strobe/Lamp Enabled: No (USB2+H05261)
Correct for Detector Non-linearity: No (USB2+H05261)
Correct for Stray Light: No (USB2+H05261)
Number of Pixels in Processed Spectrum: 2048
>>>>>Begin Processed Spectral Data<<<<<
365.73	0.00
365.92	0.00
366.12	0.00
366.32	0.00
366.52	0.00
366.72	0.00
366.91	0.00
367.11	0.00
367.31	0.00
367.51	0.00
367.70	0.00
367.90	0.00
368.10	0.00
368.30	0.00
368.49	0.00
368.69	0.00
368.89	0.00
369.09	0.00
369.28	0.00
369.48	0.00
369.68	0.00
369.87	0.00
370.07	0.00
370.27	0.00
370.47	0.00
370.66	0.00
370.86	0.00
371.06	0.00
371.25	0.00
371.45	0.00
371.65	0.00
371.84	16.38
372.04	7.02
372.24	0.00
372.44	14.04
372.63	0.00
372.83	0.00
373.03	0.00
373.22	14.04
373.42	11.70
373.62	16.38
373.81	53.83
374.01	37.45
374.21	4.68
374.40	4.68
374.60	7.02
374.79	58.51
374.99	39.79
375.19	35.11
375.38	65.54
375.58	72.56
375.78	23.41
375.97	0.00
376.17	51.49
376.37	18.72
376.56	14.04
376.76	58.51
376.95	88.94
377.15	63.19
377.35	21.06
377.54	35.11
377.74	14.04
377.93	44.47
378.13	0.00
378.33	0.00
378.52	0.00
378.72	14.04
378.91	0.00
379.11	0.00
379.31	2.34
379.50	9.36
379.70	0.00
379.89	42.13
380.09	39.79
380.28	14.04
380.48	32.77
380.68	56.17
380.87	37.45
381.07	9.36
381.26	0.00
381.46	0.00
381.65	23.41
381.85	60.85
382.04	0.00
382.24	42.13
382.43	23.41
382.63	25.75
382.83	0.00
383.02	9.36
383.22	0.00
383.41	28.09
383.61	56.17
383.80	11.70
384.00	72.56
384.19	79.58
384.39	35.11
384.58	49.15
384.78	25.75
384.97	0.00
385.17	0.00
385.36	0.00
385.56	0.00
385.75	56.17
385.95	0.00
386.14	21.06
386.34	23.41
386.53	11.70
386.72	0.00
386.92	65.54
387.11	0.00
387.31	18.72
387.50	65.54
387.70	0.00
387.89	0.00
388.09	18.72
388.28	60.85
388.48	11.70
388.67	37.45
388.86	0.00
389.06	30.43
389.25	35.11
389.45	23.41
389.64	58.51
389.84	0.00
390.03	0.00
390.22	0.00
390.42	2.34
390.61	7.02
390.81	21.06
391.00	102.98
391.19	7.02
391.39	0.00
391.58	21.06
391.78	77.24
391.97	18.72
392.16	0.00
392.36	39.79
392.55	46.81
392.75	72.56
392.94	25.75
393.13	72.56
393.33	23.41
393.52	51.49
393.71	0.00
393.91	56.17
394.10	91.28
394.29	49.15
394.49	65.54
394.68	23.41
394.88	46.81
395.07	11.70
395.26	28.09
395.46	14.04
395.65	44.47
395.84	58.51
396.04	28.09
396.23	77.24
396.42	79.58
396.62	18.72
396.81	46.81
397.00	63.19
397.19	58.51
397.39	63.19
397.58	42.13
397.77	0.00
397.97	28.09
398.16	4.68
398.35	0.00
398.55	0.00
398.74	65.54
398.93	53.83
399.12	23.41
399.32	9.36
399.51	0.00
399.70	44.47
399.90	105.32
400.09	42.13
400.28	44.47
400.47	9.36
400.67	11.70
400.86	11.70
401.05	58.51
401.24	0.00
401.44	53.83
401.63	0.00
401.82	86.60
402.01	7.02
402.21	23.41
402.40	42.13
402.59	81.92
402.78	0.00
402.97	53.83
403.17	49.15
403.36	14.04
403.55	7.02
403.74	0.00
403.93	133.41
404.13	16.38
404.32	0.00
404.51	58.51
404.70	72.56
404.89	28.09
405.09	0.00
405.28	44.47
405.47	21.06
405.66	72.56
405.85	37.45
406.05	0.00
406.24	65.54
406.43	21.06
406.62	60.85
406.81	56.17
407.00	28.09
407.20	35.11
407.39	0.00
407.58	9.36
407.77	102.98
407.96	21.06
408.15	65.54
408.34	0.00
408.54	49.15
408.73	14.04
408.92	42.13
409.11	30.43
409.30	65.54
409.49	0.00
409.68	30.43
409.87	98.30
410.07	86.60
410.26	23.41
410.45	0.00
410.64	70.22
410.83	70.22
411.02	56.17
411.21	18.72
411.40	0.00
411.59	9.36
411.78	2.34
411.98	37.45
412.17	0.00
412.36	7.02
412.55	16.38
412.74	63.19
412.93	107.66
413.12	88.94
413.31	77.24
413.50	117.03
413.69	0.00
413.88	2.34
414.07	70.22
414.26	60.85
414.45	23.41
414.64	67.88
414.83	51.49
415.02	2.34
415.22	39.79
415.41	51.49
415.60	53.83
415.79	86.60
415.98	49.15
416.17	32.77
416.36	23.41
416.55	60.85
416.74	60.85
416.93	44.47
417.12	28.09
417.31	18.72
417.50	0.00
417.69	30.43
417.88	77.24
418.07	32.77
418.26	74.90
418.45	79.58
418.64	79.58
418.83	0.00
419.02	7.02
419.21	7.02
419.39	32.77
419.58	9.36
419.77	74.90
419.96	0.00
420.15	0.00
420.34	0.00
420.53	37.45
420.72	0.00
420.91	11.70
421.10	9.36
421.29	0.00
421.48	11.70
421.67	28.09
421.86	18.72
422.05	21.06
422.24	28.09
422.43	63.19
422.61	98.30
422.80	0.00
422.99	9.36
423.18	2.34
423.37	60.85
423.56	0.00
423.75	0.00
423.94	23.41
424.13	9.36
424.32	0.00
424.50	23.41
424.69	28.09
424.88	42.13
425.07	28.09
425.26	72.56
425.45	0.00
425.64	77.24
425.83	11.70
426.01	70.22
426.20	0.00
426.39	86.60
426.58	44.47
426.77	23.41
426.96	25.75
427.15	49.15
427.33	44.47
427.52	28.09
427.71	4.68
427.90	32.77
428.09	21.06
428.28	42.13
428.46	11.70
428.65	9.36
428.84	0.00
429.03	46.81
429.22	51.49
429.40	23.41
429.59	0.00
429.78	0.00
429.97	37.45
430.16	39.79
430.34	32.77
430.53	51.49
430.72	21.06
430.91	14.04
431.10	70.22
431.28	56.17
431.47	65.54
431.66	16.38
431.85	16.38
432.03	16.38
432.22	70.22
432.41	21.06
432.60	77.24
432.79	0.00
432.97	53.83
433.16	18.72
433.35	93.62
433.54	77.24
433.72	0.00
433.91	25.75
434.10	35.11
434.28	51.49
434.47	32.77
434.66	37.45
434.85	53.83
435.03	21.06
435.22	0.00
435.41	30.43
435.59	72.56
435.78	30.43
435.97	0.00
436.16	79.58
436.34	0.00
436.53	23.41
436.72	0.00
436.90	37.45
437.09	14.04
437.28	39.79
437.46	58.51
437.65	4.68
437.84	51.49
438.02	0.00
438.21	30.43
438.40	39.79
438.58	32.77
438.77	16.38
438.96	39.79
439.14	44.47
439.33	21.06
439.52	51.49
439.70	32.77
439.89	30.43
440.08	93.62
440.26	49.15
440.45	0.00
440.63	11.70
440.82	49.15
441.01	16.38
441.19	16.38
441.38	42.13
441.57	81.92
441.75	7.02
441.94	67.88
442.12	39.79
442.31	16.38
442.50	9.36
442.68	42.13
442.87	14.04
443.05	51.49
443.24	0.00
443.43	0.00
443.61	4.68
443.80	35.11
443.98	51.49
444.17	14.04
444.35	28.09
444.54	0.00
444.73	0.00
444.91	14.04
445.10	35.11
445.28	63.19
445.47	56.17
445.65	32.77
445.84	0.00
446.02	25.75
446.21	0.00
446.39	81.92
446.58	0.00
446.77	86.60
446.95	84.26
447.14	77.24
447.32	46.81
447.51	37.45
447.69	14.04
447.88	35.11
448.06	11.70
448.25	42.13
448.43	63.19
448.62	35.11
448.80	124.05
448.99	39.79
449.17	23.41
449.36	32.77
449.54	32.77
449.73	0.00
449.91	88.94
450.10	14.04
450.28	56.17
450.46	28.09
450.65	18.72
450.83	0.00
451.02	91.28
451.20	88.94
451.39	0.00
451.57	63.19
451.76	14.04
451.94	0.00
452.13	23.41
452.31	72.56
452.49	63.19
452.68	0.00
452.86	42.13
453.05	42.13
453.23	21.06
453.42	0.00
453.60	9.36
453.78	53.83
453.97	0.00
454.15	37.45
454.34	39.79
454.52	42.13
454.70	30.43
454.89	28.09
455.07	0.00
455.26	4.68
455.44	67.88
455.62	95.96
455.81	7.02
455.99	56.17
456.17	35.11
456.36	128.73
456.54	65.54
456.73	56.17
456.91	0.00
457.09	28.09
457.28	46.81
457.46	25.75
457.64	107.66
457.83	35.11
458.01	0.00
458.19	39.79
458.38	32.77
458.56	58.51
458.74	98.30
458.93	37.45
459.11	28.09
459.29	51.49
459.48	53.83
459.66	11.70
459.84	112.35
460.03	14.04
460.21	53.83
460.39	37.45
460.57	21.06
460.76	63.19
460.94	77.24
461.12	4.68
461.31	18.72
461.49	53.83
461.67	14.04
461.85	126.39
462.04	79.58
462.22	95.96
462.40	44.47
462.59	25.75
462.77	21.06
462.95	88.94
463.13	79.58
463.32	16.38
463.50	11.70
463.68	32.77
463.86	56.17
464.05	56.17
464.23	63.19
464.41	4.68
464.59	0.00
464.78	25.75
464.96	88.94
465.14	0.00
465.32	32.77
465.50	58.51
465.69	21.06
465.87	81.92
466.05	51.49
466.23	35.11
466.41	44.47
466.60	0.00
466.78	51.49
466.96	74.90
467.14	0.00
467.32	74.90
467.51	53.83
467.69	28.09
467.87	28.09
468.05	56.17
468.23	30.43
468.41	46.81
468.60	32.77
468.78	63.19
468.96	30.43
469.14	46.81
469.32	7.02
469.50	72.56
469.69	37.45
469.87	0.00
470.05	0.00
470.23	98.30
470.41	35.11
470.59	51.49
470.77	4.68
470.95	0.00
471.14	32.77
471.32	0.00
471.50	77.24
471.68	63.19
471.86	93.62
472.04	53.83
472.22	30.43
472.40	0.00
472.58	0.00
472.77	2.34
472.95	0.00
473.13	60.85
473.31	39.79
473.49	42.13
473.67	65.54
473.85	35.11
474.03	126.39
474.21	86.60
474.39	0.00
474.57	0.00
474.75	0.00
474.93	0.00
475.12	0.00
475.30	72.56
475.48	32.77
475.66	0.00
475.84	51.49
476.02	0.00
476.20	70.22
476.38	49.15
476.56	11.70
476.74	32.77
476.92	14.04
477.10	72.56
477.28	100.64
477.46	30.43
477.64	39.79
477.82	102.98
478.00	39.79
478.18	0.00
478.36	107.66
478.54	42.13
478.72	0.00
478.90	0.00
479.08	37.45
479.26	0.00
479.44	9.36
479.62	91.28
479.80	23.41
479.98	72.56
480.16	25.75
480.34	63.19
480.52	30.43
480.70	46.81
480.88	16.38
481.06	25.75
481.24	18.72
481.41	0.00
481.59	49.15
481.77	23.41
481.95	0.00
482.13	25.75
482.31	81.92
482.49	46.81
482.67	105.32
482.85	46.81
483.03	28.09
483.21	79.58
483.39	4.68
483.57	0.00
483.74	84.26
483.92	16.38
484.10	53.83
484.28	67.88
484.46	58.51
484.64	77.24
484.82	0.00
485.00	81.92
485.18	28.09
485.35	58.51
485.53	46.81
485.71	42.13
485.89	58.51
486.07	32.77
486.25	14.04
486.43	56.17
486.61	49.15
486.78	74.90
486.96	0.00
487.14	25.75
487.32	51.49
487.50	110.01
487.68	42.13
487.85	30.43
488.03	16.38
488.21	4.68
488.39	95.96
488.57	18.72
488.75	4.68
488.92	70.22
489.10	39.79
489.28	65.54
489.46	14.04
489.64	60.85
489.81	0.00
489.99	58.51
490.17	28.09
490.35	72.56
490.53	65.54
490.70	44.47
490.88	60.85
491.06	53.83
491.24	30.43
491.41	65.54
491.59	81.92
491.77	70.22
491.95	0.00
492.13	0.00
492.30	32.77
492.48	0.00
492.66	70.22
492.84	16.38
493.01	65.54
493.19	88.94
493.37	74.90
493.54	44.47
493.72	49.15
493.90	28.09
494.08	72.56
494.25	53.83
494.43	2.34
494.61	53.83
494.79	53.83
494.96	84.26
495.14	100.64
495.32	25.75
495.49	63.19
495.67	28.09
495.85	70.22
496.02	0.00
496.20	58.51
496.38	0.00
496.55	74.90
496.73	95.96
496.91	18.72
497.09	72.56
497.26	135.75
497.44	39.79
497.62	25.75
497.79	0.00
497.97	28.09
498.14	63.19
498.32	81.92
498.50	0.00
498.67	44.47
498.85	63.19
499.03	0.00
499.20	81.92
499.38	51.49
499.56	56.17
499.73	44.47
499.91	0.00
500.08	72.56
500.26	0.00
500.44	14.04
500.61	58.51
500.79	53.83
500.97	58.51
501.14	60.85
501.32	37.45
501.49	133.41
501.67	81.92
501.84	49.15
502.02	51.49
502.20	67.88
502.37	110.01
502.55	93.62
502.72	32.77
502.90	133.41
503.07	65.54
503.25	21.06
503.43	37.45
503.60	49.15
503.78	114.69
503.95	9.36
504.13	58.51
504.30	105.32
504.48	32.77
504.65	58.51
504.83	11.70
505.01	0.00
505.18	44.47
505.36	14.04
505.53	60.85
505.71	58.51
505.88	124.05
506.06	23.41
506.23	42.13
506.41	67.88
506.58	72.56
506.76	16.38
506.93	14.04
507.11	0.00
507.28	49.15
507.46	25.75
507.63	84.26
507.81	74.90
507.98	51.49
508.16	88.94
508.33	51.49
508.50	7.02
508.68	72.56
508.85	23.41
509.03	100.64
509.20	77.24
509.38	37.45
509.55	51.49
509.73	60.85
509.90	58.51
510.08	56.17
510.25	105.32
510.42	39.79
510.60	37.45
510.77	21.06
510.95	2.34
511.12	63.19
511.30	86.60
511.47	86.60
511.64	0.00
511.82	30.43
511.99	0.00
512.17	42.13
512.34	23.41
512.51	39.79
512.69	67.88
512.86	74.90
513.04	0.00
513.21	95.96
513.38	11.70
513.56	28.09
513.73	91.28
513.90	53.83
514.08	53.83
514.25	95.96
514.43	63.19
514.60	0.00
514.77	56.17
514.95	0.00
515.12	53.83
515.29	39.79
515.47	42.13
515.64	51.49
515.81	67.88
515.99	37.45
516.16	42.13
516.33	39.79
516.51	67.88
516.68	74.90
516.85	60.85
517.03	56.17
517.20	0.00
517.37	32.77
517.54	30.43
517.72	30.43
517.89	60.85
518.06	11.70
518.24	14.04
518.41	0.00
518.58	56.17
518.75	88.94
518.93	53.83
519.10	0.00
519.27	65.54
519.45	86.60
519.62	100.64
519.79	0.00
519.96	42.13
520.14	46.81
520.31	56.17
520.48	16.38
520.65	65.54
520.83	39.79
521.00	53.83
521.17	84.26
521.34	168.52
521.52	28.09
521.69	39.79
521.86	44.47
522.03	98.30
522.20	16.38
522.38	79.58
522.55	39.79
522.72	77.24
522.89	105.32
523.07	14.04
523.24	25.75
523.41	72.56
523.58	9.36
523.75	4.68
523.92	58.51
524.10	28.09
524.27	0.00
524.44	81.92
524.61	42.13
524.78	56.17
524.96	9.36
525.13	30.43
525.30	18.72
525.47	100.64
525.64	58.51
525.81	77.24
525.98	42.13
526.16	0.00
526.33	65.54
526.50	28.09
526.67	72.56
526.84	145.11
527.01	131.07
527.18	98.30
527.36	100.64
527.53	56.17
527.70	39.79
527.87	74.90
528.04	110.01
528.21	77.24
528.38	32.77
528.55	0.00
528.72	70.22
528.89	100.64
529.07	51.49
529.24	7.02
529.41	39.79
529.58	28.09
529.75	16.38
529.92	37.45
530.09	56.17
530.26	131.07
530.43	42.13
530.60	79.58
530.77	105.32
530.94	32.77
531.11	21.06
531.28	16.38
531.46	21.06
531.63	46.81
531.80	46.81
531.97	67.88
532.14	79.58
532.31	23.41
532.48	21.06
532.65	42.13
532.82	44.47
532.99	14.04
533.16	65.54
533.33	37.45
533.50	53.83
533.67	28.09
533.84	37.45
534.01	77.24
534.18	121.71
534.35	72.56
534.52	49.15
534.69	74.90
534.86	56.17
535.03	53.83
535.20	16.38
535.37	7.02
535.54	102.98
535.71	0.00
535.88	65.54
536.05	88.94
536.22	11.70
536.38	28.09
536.55	46.81
536.72	16.38
536.89	46.81
537.06	58.51
537.23	46.81
537.40	7.02
537.57	0.00
537.74	35.11
537.91	63.19
538.08	72.56
538.25	53.83
538.42	95.96
538.59	88.94
538.75	63.19
538.92	74.90
539.09	46.81
539.26	67.88
539.43	0.00
539.60	91.28
539.77	65.54
539.94	25.75
540.11	11.70
540.28	63.19
540.44	91.28
540.61	72.56
540.78	44.47
540.95	23.41
541.12	88.94
541.29	37.45
541.46	23.41
541.62	16.38
541.79	2.34
541.96	72.56
542.13	0.00
542.30	4.68
542.47	58.51
542.63	91.28
542.80	60.85
542.97	0.00
543.14	105.32
543.31	0.00
543.48	21.06
543.64	84.26
543.81	35.11
543.98	63.19
544.15	4.68
544.32	46.81
544.48	16.38
544.65	18.72
544.82	49.15
544.99	9.36
545.16	9.36
545.32	44.47
545.49	46.81
545.66	44.47
545.83	30.43
546.00	42.13
546.16	30.43
546.33	25.75
546.50	46.81
546.67	0.00
546.83	0.00
547.00	0.00
547.17	30.43
547.34	0.00
547.50	86.60
547.67	44.47
547.84	81.92
548.00	9.36
548.17	35.11
548.34	49.15
548.51	53.83
548.67	84.26
548.84	63.19
549.01	30.43
549.18	16.38
549.34	46.81
549.51	0.00
549.68	37.45
549.84	67.88
550.01	142.77
550.18	32.77
550.34	84.26
550.51	9.36
550.68	161.50
550.84	67.88
551.01	88.94
551.18	51.49
551.34	16.38
551.51	86.60
551.68	46.81
551.84	65.54
552.01	42.13
552.18	58.51
552.34	4.68
552.51	7.02
552.68	67.88
552.84	14.04
553.01	0.00
553.18	91.28
553.34	112.35
553.51	23.41
553.67	44.47
553.84	95.96
554.01	35.11
554.17	67.88
554.34	37.45
554.51	56.17
554.67	44.47
554.84	79.58
555.00	39.79
555.17	0.00
555.33	23.41
555.50	107.66
555.67	67.88
555.83	58.51
556.00	4.68
556.16	37.45
556.33	49.15
556.50	35.11
556.66	152.13
556.83	35.11
556.99	72.56
557.16	37.45
557.32	63.19
557.49	35.11
557.65	77.24
557.82	28.09
557.98	30.43
558.15	23.41
558.32	98.30
558.48	42.13
558.65	21.06
558.81	39.79
558.98	100.64
559.14	63.19
559.31	0.00
559.47	98.30
559.64	21.06
559.80	93.62
559.97	53.83
560.13	112.35
560.30	44.47
560.46	9.36
560.63	81.92
560.79	86.60
560.96	81.92
561.12	46.81
561.29	0.00
561.45	70.22
561.61	105.32
561.78	32.77
561.94	58.51
562.11	65.54
562.27	0.00
562.44	28.09
562.60	0.00
562.77	0.00
562.93	65.54
563.10	77.24
563.26	95.96
563.42	110.01
563.59	100.64
563.75	28.09
563.92	53.83
564.08	0.00
564.24	63.19
564.41	74.90
564.57	65.54
564.74	39.79
564.90	63.19
565.07	56.17
565.23	30.43
565.39	95.96
565.56	79.58
565.72	0.00
565.88	86.60
566.05	46.81
566.21	74.90
566.38	65.54
566.54	37.45
566.70	72.56
566.87	49.15
567.03	23.41
567.19	46.81
567.36	39.79
567.52	23.41
567.68	28.09
567.85	112.35
568.01	163.84
568.17	95.96
568.34	42.13
568.50	11.70
568.66	0.00
568.83	126.39
568.99	53.83
569.15	79.58
569.32	18.72
569.48	79.58
569.64	70.22
569.81	42.13
569.97	0.00
570.13	102.98
570.30	42.13
570.46	39.79
570.62	102.98
570.78	60.85
570.95	30.43
571.11	23.41
571.27	9.36
571.43	18.72
571.60	0.00
571.76	0.00
571.92	51.49
572.09	0.00
572.25	18.72
572.41	35.11
572.57	16.38
572.74	79.58
572.90	23.41
573.06	79.58
573.22	58.51
573.38	67.88
573.55	32.77
573.71	16.38
573.87	93.62
574.03	46.81
574.20	30.43
574.36	0.00
574.52	79.58
574.68	28.09
574.84	56.17
575.01	56.17
575.17	60.85
575.33	65.54
575.49	46.81
575.65	56.17
575.82	39.79
575.98	11.70
576.14	56.17
576.30	32.77
576.46	67.88
576.62	72.56
576.79	72.56
576.95	126.39
577.11	7.02
577.27	42.13
577.43	35.11
577.59	84.26
577.75	30.43
577.92	72.56
578.08	65.54
578.24	44.47
578.40	65.54
578.56	7.02
578.72	44.47
578.88	37.45
579.04	9.36
579.21	0.00
579.37	58.51
579.53	56.17
579.69	25.75
579.85	84.26
580.01	53.83
580.17	39.79
580.33	63.19
580.49	0.00
580.65	65.54
580.82	77.24
580.98	35.11
581.14	0.00
581.30	46.81
581.46	42.13
581.62	14.04
581.78	0.00
581.94	9.36
582.10	0.00
582.26	32.77
582.42	42.13
582.58	42.13
582.74	42.13
582.90	81.92
583.06	42.13
583.22	37.45
583.38	74.90
583.54	74.90
583.70	56.17
583.86	60.85
584.02	11.70
584.18	67.88
584.34	0.00
584.50	21.06
584.66	91.28
584.82	110.01
584.98	0.00
585.14	23.41
585.30	60.85
585.46	14.04
585.62	0.00
585.78	65.54
585.94	51.49
586.10	37.45
586.26	110.01
586.42	58.51
586.58	32.77
586.74	28.09
586.90	21.06
587.06	2.34
587.22	16.38
587.38	70.22
587.54	51.49
587.70	58.51
587.86	21.06
588.02	56.17
588.18	67.88
588.34	37.45
588.49	0.00
588.65	39.79
588.81	23.41
588.97	79.58
589.13	72.56
589.29	21.06
589.45	44.47
589.61	7.02
589.77	88.94
589.93	58.51
590.08	77.24
590.24	53.83
590.40	35.11
590.56	39.79
590.72	0.00
590.88	0.00
591.04	95.96
591.20	86.60
591.35	44.47
591.51	72.56
591.67	39.79
591.83	60.85
591.99	28.09
592.15	63.19
592.31	37.45
592.46	77.24
592.62	72.56
592.78	63.19
592.94	44.47
593.10	0.00
593.26	49.15
593.41	88.94
593.57	60.85
593.73	0.00
593.89	30.43
594.05	7.02
594.20	65.54
594.36	114.69
594.52	0.00
594.68	39.79
594.84	37.45
594.99	72.56
595.15	0.00
595.31	32.77
595.47	0.00
595.62	102.98
595.78	74.90
595.94	79.58
596.10	81.92
596.25	0.00
596.41	60.85
596.57	149.79
596.73	42.13
596.88	0.00
597.04	72.56
597.20	88.94
597.36	56.17
597.51	93.62
597.67	65.54
597.83	0.00
597.99	23.41
598.14	77.24
598.30	16.38
598.46	67.88
598.61	21.06
598.77	56.17
598.93	23.41
599.09	79.58
599.24	0.00
599.40	91.28
599.56	28.09
599.71	67.88
599.87	0.00
600.03	39.79
600.18	65.54
600.34	79.58
600.50	53.83
600.65	35.11
600.81	46.81
600.97	51.49
601.12	16.38
601.28	53.83
601.44	74.90
601.59	44.47
601.75	0.00
601.91	44.47
602.06	23.41
602.22	18.72
602.37	95.96
602.53	128.73
602.69	42.13
602.84	25.75
603.00	74.90
603.16	93.62
603.31	0.00
603.47	0.00
603.62	63.19
603.78	11.70
603.94	74.90
604.09	81.92
604.25	21.06
604.40	86.60
604.56	0.00
604.71	88.94
604.87	35.11
605.03	28.09
605.18	35.11
605.34	77.24
605.49	30.43
605.65	0.00
605.80	0.00
605.96	9.36
606.12	28.09
606.27	65.54
606.43	7.02
606.58	46.81
606.74	102.98
606.89	0.00
607.05	93.62
607.20	7.02
607.36	60.85
607.51	0.00
607.67	28.09
607.82	65.54
607.98	23.41
608.13	25.75
608.29	117.03
608.44	44.47
608.60	46.81
608.75	14.04
608.91	0.00
609.06	74.90
609.22	49.15
609.37	30.43
609.53	4.68
609.68	9.36
609.84	88.94
609.99	67.88
610.15	9.36
610.30	42.13
610.46	37.45
610.61	72.56
610.76	77.24
610.92	67.88
611.07	37.45
611.23	74.90
611.38	51.49
611.54	7.02
611.69	32.77
611.84	72.56
612.00	14.04
612.15	84.26
612.31	0.00
612.46	79.58
612.62	0.00
612.77	93.62
612.92	72.56
613.08	0.00
613.23	105.32
613.39	74.90
613.54	0.00
613.69	2.34
613.85	131.07
614.00	0.00
614.15	0.00
614.31	16.38
614.46	23.41
614.62	2.34
614.77	49.15
614.92	16.38
615.08	70.22
615.23	0.00
615.38	25.75
615.54	42.13
615.69	74.90
615.84	0.00
616.00	46.81
616.15	58.51
616.30	58.51
616.46	30.43
616.61	51.49
616.76	25.75
616.92	102.98
617.07	28.09
617.22	4.68
617.37	72.56
617.53	0.00
617.68	84.26
617.83	0.00
617.99	39.79
618.14	84.26
618.29	4.68
618.45	84.26
618.60	30.43
618.75	0.00
618.90	112.35
619.06	35.11
619.21	46.81
619.36	58.51
619.51	88.94
619.67	56.17
619.82	16.38
619.97	81.92
620.12	0.00
620.28	60.85
620.43	107.66
620.58	4.68
620.73	16.38
620.89	112.35
621.04	53.83
621.19	58.51
621.34	44.47
621.49	7.02
621.65	4.68
621.80	30.43
621.95	0.00
622.10	65.54
622.25	60.85
622.41	25.75
622.56	25.75
622.71	42.13
622.86	9.36
623.01	35.11
623.16	25.75
623.32	2.34
623.47	21.06
623.62	46.81
623.77	51.49
623.92	65.54
624.07	39.79
624.23	23.41
624.38	44.47
624.53	30.43
624.68	77.24
624.83	126.39
624.98	46.81
625.13	72.56
625.29	77.24
625.44	53.83
625.59	42.13
625.74	60.85
625.89	105.32
626.04	49.15
626.19	0.00
626.34	37.45
626.49	102.98
626.65	58.51
626.80	67.88
626.95	0.00
627.10	0.00
627.25	0.00
627.40	35.11
627.55	0.00
627.70	23.41
627.85	112.35
628.00	0.00
628.15	0.00
628.30	72.56
628.45	72.56
628.60	25.75
628.76	81.92
628.91	70.22
629.06	72.56
629.21	4.68
629.36	51.49
629.51	79.58
629.66	56.17
629.81	35.11
629.96	28.09
630.11	107.66
630.26	0.00
630.41	28.09
630.56	11.70
630.71	46.81
630.86	0.00
631.01	16.38
631.16	46.81
631.31	74.90
631.46	46.81
631.61	25.75
631.76	44.47
631.91	0.00
632.06	25.75
632.21	0.00
632.36	93.62
632.51	25.75
632.66	0.00
632.81	25.75
632.96	0.00
633.10	42.13
633.25	23.41
633.40	0.00
633.55	53.83
633.70	4.68
633.85	0.00
634.00	51.49
634.15	39.79
634.30	0.00
634.45	74.90
634.60	11.70
634.75	21.06
634.90	2.34
635.05	72.56
635.19	14.04
635.34	39.79
635.49	53.83
635.64	4.68
635.79	37.45
635.94	16.38
636.09	32.77
636.24	0.00
636.39	44.47
636.53	18.72
636.68	39.79
636.83	60.85
636.98	84.26
637.13	25.75
637.28	7.02
637.43	60.85
637.57	105.32
637.72	84.26
637.87	77.24
638.02	65.54
638.17	112.35
638.32	77.24
638.46	56.17
638.61	25.75
638.76	9.36
638.91	58.51
639.06	0.00
639.20	42.13
639.35	74.90
639.50	0.00
639.65	65.54
639.80	84.26
639.94	58.51
640.09	42.13
640.24	28.09
640.39	46.81
640.54	0.00
640.68	0.00
640.83	39.79
640.98	23.41
641.13	77.24
641.27	60.85
641.42	117.03
641.57	86.60
641.72	86.60
641.86	23.41
642.01	60.85
642.16	51.49
642.31	32.77
642.45	9.36
642.60	70.22
642.75	2.34
642.90	0.00
643.04	32.77
643.19	112.35
643.34	39.79
643.48	42.13
643.63	21.06
643.78	35.11
643.93	65.54
644.07	93.62
644.22	53.83
644.37	16.38
644.51	16.38
644.66	56.17
644.81	53.83
644.95	0.00
645.10	70.22
645.25	16.38
645.39	51.49
645.54	4.68
645.69	2.34
645.83	72.56
645.98	79.58
646.13	58.51
646.27	51.49
646.42	65.54
646.57	44.47
646.71	0.00
646.86	60.85
647.00	2.34
647.15	72.56
647.30	7.02
647.44	25.75
647.59	23.41
647.74	25.75
647.88	11.70
648.03	67.88
648.17	0.00
648.32	93.62
648.47	46.81
648.61	58.51
648.76	0.00
648.90	35.11
649.05	0.00
649.20	65.54
649.34	0.00
649.49	114.69
649.63	21.06
649.78	65.54
649.92	0.00
650.07	21.06
650.21	32.77
650.36	93.62
650.51	65.54
650.65	0.00
650.80	56.17
650.94	0.00
651.09	91.28
651.23	44.47
651.38	14.04
651.52	4.68
651.67	35.11
651.81	63.19
651.96	2.34
652.10	0.00
652.25	14.04
652.39	0.00
652.54	0.00
652.68	44.47
652.83	32.77
652.97	105.32
653.12	35.11
653.26	0.00
653.41	23.41
653.55	70.22
653.70	46.81
653.84	37.45
653.99	14.04
654.13	18.72
654.27	0.00
654.42	21.06
654.56	0.00
654.71	28.09
654.85	0.00
655.00	18.72
655.14	46.81
655.29	93.62
655.43	39.79
655.57	58.51
655.72	21.06
655.86	9.36
656.01	46.81
656.15	58.51
656.30	95.96
656.44	88.94
656.58	117.03
656.73	42.13
656.87	70.22
657.01	58.51
657.16	25.75
657.30	11.70
657.45	79.58
657.59	37.45
657.73	18.72
657.88	74.90
658.02	124.05
658.16	46.81
658.31	14.04
658.45	0.00
658.60	42.13
658.74	28.09
658.88	93.62
659.03	67.88
659.17	18.72
659.31	30.43
659.46	0.00
659.60	107.66
659.74	25.75
659.89	30.43
660.03	70.22
660.17	7.02
660.32	28.09
660.46	0.00
660.60	0.00
660.74	32.77
660.89	25.75
661.03	44.47
661.17	7.02
661.32	65.54
661.46	51.49
661.60	39.79
661.74	0.00
661.89	28.09
662.03	21.06
662.17	28.09
662.31	0.00
662.46	51.49
662.60	60.85
662.74	0.00
662.88	23.41
663.03	14.04
663.17	98.30
663.31	21.06
663.45	21.06
663.60	23.41
663.74	63.19
663.88	0.00
664.02	11.70
664.17	39.79
664.31	0.00
664.45	32.77
664.59	16.38
664.73	70.22
664.88	74.90
665.02	81.92
665.16	84.26
665.30	9.36
665.44	93.62
665.59	11.70
665.73	18.72
665.87	110.01
666.01	18.72
666.15	32.77
666.29	16.38
666.44	58.51
666.58	25.75
666.72	63.19
666.86	0.00
667.00	74.90
667.14	0.00
667.28	0.00
667.43	9.36
667.57	86.60
667.71	49.15
667.85	95.96
667.99	16.38
668.13	0.00
668.27	63.19
668.41	84.26
668.56	0.00
668.70	63.19
668.84	37.45
668.98	46.81
669.12	86.60
669.26	21.06
669.40	102.98
669.54	9.36
669.68	95.96
669.82	0.00
669.96	0.00
670.10	37.45
670.25	11.70
670.39	65.54
670.53	0.00
670.67	67.88
670.81	0.00
670.95	25.75
671.09	49.15
671.23	7.02
671.37	63.19
671.51	37.45
671.65	23.41
671.79	51.49
671.93	86.60
672.07	0.00
672.21	51.49
672.35	46.81
672.49	16.38
672.63	28.09
672.77	39.79
672.91	58.51
673.05	51.49
673.19	32.77
673.33	0.00
673.47	0.00
673.61	0.00
673.75	0.00
673.89	32.77
674.03	60.85
674.17	21.06
674.31	0.00
674.45	72.56
674.59	4.68
674.73	0.00
674.87	56.17
675.01	81.92
675.15	60.85
675.29	37.45
675.43	16.38
675.56	56.17
675.70	11.70
675.84	58.51
675.98	44.47
676.12	0.00
676.26	72.56
676.40	72.56
676.54	46.81
676.68	28.09
676.82	67.88
676.96	67.88
677.10	119.37
677.23	67.88
677.37	0.00
677.51	21.06
677.65	7.02
677.79	49.15
677.93	74.90
678.07	32.77
678.21	18.72
678.34	0.00
678.48	53.83
678.62	70.22
678.76	4.68
678.90	4.68
679.04	30.43
679.18	0.00
679.31	2.34
679.45	2.34
679.59	30.43
679.73	100.64
679.87	23.41
680.00	21.06
680.14	39.79
680.28	16.38
680.42	60.85
680.56	32.77
680.70	53.83
680.83	72.56
680.97	11.70
681.11	105.32
681.25	0.00
681.39	14.04
681.52	0.00
681.66	102.98
681.80	0.00
681.94	37.45
682.07	0.00
682.21	67.88
682.35	0.00
682.49	53.83
682.62	112.35
682.76	70.22
682.90	0.00
683.04	42.13
683.17	16.38
683.31	56.17
683.45	84.26
683.59	9.36
683.72	0.00
683.86	65.54
684.00	56.17
684.13	28.09
684.27	84.26
684.41	0.00
684.55	0.00
684.68	7.02
684.82	0.00
684.96	0.00
685.09	0.00
685.23	60.85
685.37	88.94
685.50	58.51
685.64	2.34
685.78	16.38
685.91	30.43
686.05	44.47
686.19	0.00
686.32	44.47
686.46	2.34
686.60	21.06
686.73	56.17
686.87	0.00
687.01	49.15
687.14	35.11
687.28	0.00
687.42	18.72
687.55	0.00
687.69	112.35
687.82	0.00
687.96	0.00
688.10	7.02
688.23	21.06
688.37	23.41
688.50	0.00
688.64	81.92
688.78	0.00
688.91	49.15
689.05	74.90
689.18	30.43
689.32	0.00
689.46	23.41
689.59	44.47
689.73	21.06
689.86	65.54
690.00	7.02
690.13	58.51
690.27	35.11
690.41	7.02
690.54	63.19
690.68	0.00
690.81	0.00
690.95	28.09
691.08	79.58
691.22	14.04
691.35	14.04
691.49	42.13
691.62	11.70
691.76	28.09
691.89	63.19
692.03	37.45
692.16	60.85
692.30	14.04
692.43	37.45
692.57	11.70
692.70	18.72
692.84	37.45
692.97	4.68
693.11	51.49
693.24	23.41
693.38	25.75
693.51	30.43
693.65	49.15
693.78	9.36
693.92	49.15
694.05	30.43
694.19	86.60
694.32	32.77
694.45	11.70
694.59	77.24
694.72	2.34
694.86	0.00
694.99	60.85
695.13	49.15
695.26	30.43
695.39	28.09
695.53	0.00
695.66	0.00
695.80	70.22
695.93	25.75
696.07	56.17
696.20	0.00
696.33	0.00
696.47	11.70
696.60	37.45
696.73	25.75
696.87	35.11
697.00	56.17
697.14	46.81
697.27	16.38
697.40	18.72
697.54	28.09
697.67	51.49
697.80	30.43
697.94	25.75
698.07	93.62
698.21	0.00
698.34	49.15
698.47	21.06
698.61	37.45
698.74	35.11
698.87	42.13
699.01	0.00
699.14	30.43
699.27	0.00
699.40	95.96
699.54	107.66
699.67	0.00
699.80	28.09
699.94	65.54
700.07	39.79
700.20	16.38
700.34	53.83
700.47	51.49
700.60	32.77
700.73	16.38
700.87	14.04
701.00	16.38
701.13	65.54
701.26	56.17
701.40	37.45
701.53	28.09
701.66	0.00
701.79	72.56
701.93	16.38
702.06	0.00
702.19	51.49
702.32	53.83
702.46	35.11
702.59	65.54
702.72	18.72
702.85	0.00
702.99	77.24
703.12	11.70
703.25	42.13
703.38	60.85
703.51	14.04
703.65	23.41
703.78	58.51
703.91	35.11
704.04	72.56
704.17	53.83
704.31	60.85
704.44	46.81
704.57	0.00
704.70	60.85
704.83	0.00
704.96	79.58
705.10	2.34
705.23	0.00
>>>>>End Processed Spectral Data<<<<<
