SpectraSuite Data File
++++++++++++++++++++++++++++++++++++
Date: Fri Oct 04 12:13:25 GMT-05:00 2013
User: price-jones
Dark Spectrum Present: No
Reference Spectrum Present: No
Number of Sampled Component Spectra: 1
Spectrometers: USB2+H05261
Integration Time (usec): 10000 (USB2+H05261)
Spectra Averaged: 1 (USB2+H05261)
Boxcar Smoothing: 0 (USB2+H05261)
Correct for Electrical Dark: No (USB2+H05261)
Strobe/Lamp Enabled: No (USB2+H05261)
Correct for Detector Non-linearity: No (USB2+H05261)
Correct for Stray Light: No (USB2+H05261)
Number of Pixels in Processed Spectrum: 2048
>>>>>Begin Processed Spectral Data<<<<<
365.73	0.00
365.92	0.00
366.12	0.00
366.32	0.00
366.52	0.00
366.72	0.00
366.91	0.00
367.11	0.00
367.31	0.00
367.51	0.00
367.70	0.00
367.90	0.00
368.10	0.00
368.30	0.00
368.49	0.00
368.69	0.00
368.89	0.00
369.09	0.00
369.28	0.00
369.48	0.00
369.68	0.00
369.87	0.00
370.07	0.00
370.27	0.00
370.47	0.00
370.66	14.04
370.86	44.47
371.06	0.00
371.25	0.00
371.45	0.00
371.65	0.00
371.84	0.00
372.04	0.00
372.24	0.00
372.44	4.68
372.63	53.83
372.83	56.17
373.03	16.38
373.22	37.45
373.42	77.24
373.62	21.06
373.81	16.38
374.01	56.17
374.21	0.00
374.40	79.58
374.60	0.00
374.79	44.47
374.99	28.09
375.19	51.49
375.38	53.83
375.58	70.22
375.78	2.34
375.97	0.00
376.17	21.06
376.37	77.24
376.56	77.24
376.76	30.43
376.95	0.00
377.15	0.00
377.35	0.00
377.54	0.00
377.74	0.00
377.93	7.02
378.13	0.00
378.33	70.22
378.52	0.00
378.72	0.00
378.91	60.85
379.11	0.00
379.31	0.00
379.50	14.04
379.70	67.88
379.89	21.06
380.09	0.00
380.28	53.83
380.48	0.00
380.68	72.56
380.87	42.13
381.07	0.00
381.26	0.00
381.46	0.00
381.65	9.36
381.85	42.13
382.04	60.85
382.24	14.04
382.43	60.85
382.63	46.81
382.83	60.85
383.02	25.75
383.22	84.26
383.41	0.00
383.61	60.85
383.80	84.26
384.00	35.11
384.19	0.00
384.39	9.36
384.58	79.58
384.78	58.51
384.97	39.79
385.17	56.17
385.36	25.75
385.56	0.00
385.75	0.00
385.95	16.38
386.14	42.13
386.34	72.56
386.53	0.00
386.72	0.00
386.92	35.11
387.11	35.11
387.31	9.36
387.50	23.41
387.70	56.17
387.89	39.79
388.09	0.00
388.28	53.83
388.48	28.09
388.67	39.79
388.86	9.36
389.06	14.04
389.25	0.00
389.45	65.54
389.64	0.00
389.84	0.00
390.03	35.11
390.22	14.04
390.42	0.00
390.61	39.79
390.81	18.72
391.00	0.00
391.19	65.54
391.39	23.41
391.58	0.00
391.78	0.00
391.97	0.00
392.16	25.75
392.36	0.00
392.55	21.06
392.75	51.49
392.94	46.81
393.13	0.00
393.33	0.00
393.52	0.00
393.71	0.00
393.91	0.00
394.10	7.02
394.29	23.41
394.49	53.83
394.68	23.41
394.88	51.49
395.07	25.75
395.26	23.41
395.46	0.00
395.65	16.38
395.84	0.00
396.04	21.06
396.23	0.00
396.42	0.00
396.62	51.49
396.81	18.72
397.00	37.45
397.19	49.15
397.39	0.00
397.58	0.00
397.77	0.00
397.97	0.00
398.16	4.68
398.35	72.56
398.55	46.81
398.74	21.06
398.93	79.58
399.12	30.43
399.32	23.41
399.51	42.13
399.70	25.75
399.90	44.47
400.09	70.22
400.28	37.45
400.47	100.64
400.67	21.06
400.86	98.30
401.05	42.13
401.24	21.06
401.44	0.00
401.63	0.00
401.82	84.26
402.01	0.00
402.21	56.17
402.40	93.62
402.59	0.00
402.78	0.00
402.97	25.75
403.17	0.00
403.36	28.09
403.55	4.68
403.74	124.05
403.93	21.06
404.13	77.24
404.32	0.00
404.51	25.75
404.70	0.00
404.89	32.77
405.09	7.02
405.28	58.51
405.47	25.75
405.66	42.13
405.85	30.43
406.05	51.49
406.24	0.00
406.43	53.83
406.62	81.92
406.81	18.72
407.00	0.00
407.20	35.11
407.39	9.36
407.58	46.81
407.77	0.00
407.96	0.00
408.15	56.17
408.34	16.38
408.54	18.72
408.73	81.92
408.92	0.00
409.11	9.36
409.30	32.77
409.49	37.45
409.68	0.00
409.87	18.72
410.07	58.51
410.26	0.00
410.45	37.45
410.64	53.83
410.83	51.49
411.02	14.04
411.21	7.02
411.40	65.54
411.59	0.00
411.78	70.22
411.98	70.22
412.17	16.38
412.36	56.17
412.55	105.32
412.74	37.45
412.93	0.00
413.12	21.06
413.31	42.13
413.50	23.41
413.69	37.45
413.88	42.13
414.07	44.47
414.26	44.47
414.45	37.45
414.64	0.00
414.83	9.36
415.02	49.15
415.22	70.22
415.41	28.09
415.60	25.75
415.79	67.88
415.98	4.68
416.17	28.09
416.36	0.00
416.55	16.38
416.74	0.00
416.93	0.00
417.12	14.04
417.31	18.72
417.50	77.24
417.69	0.00
417.88	0.00
418.07	42.13
418.26	53.83
418.45	0.00
418.64	60.85
418.83	0.00
419.02	60.85
419.21	28.09
419.39	0.00
419.58	0.00
419.77	9.36
419.96	53.83
420.15	0.00
420.34	30.43
420.53	2.34
420.72	51.49
420.91	67.88
421.10	86.60
421.29	21.06
421.48	39.79
421.67	81.92
421.86	37.45
422.05	14.04
422.24	30.43
422.43	4.68
422.61	86.60
422.80	0.00
422.99	0.00
423.18	7.02
423.37	0.00
423.56	0.00
423.75	9.36
423.94	7.02
424.13	37.45
424.32	4.68
424.50	0.00
424.69	0.00
424.88	18.72
425.07	0.00
425.26	0.00
425.45	0.00
425.64	44.47
425.83	65.54
426.01	74.90
426.20	0.00
426.39	74.90
426.58	35.11
426.77	32.77
426.96	37.45
427.15	28.09
427.33	42.13
427.52	2.34
427.71	2.34
427.90	0.00
428.09	39.79
428.28	0.00
428.46	0.00
428.65	77.24
428.84	0.00
429.03	70.22
429.22	0.00
429.40	35.11
429.59	0.00
429.78	35.11
429.97	46.81
430.16	0.00
430.34	44.47
430.53	0.00
430.72	49.15
430.91	0.00
431.10	35.11
431.28	42.13
431.47	86.60
431.66	32.77
431.85	72.56
432.03	7.02
432.22	60.85
432.41	14.04
432.60	0.00
432.79	32.77
432.97	46.81
433.16	2.34
433.35	2.34
433.54	56.17
433.72	16.38
433.91	0.00
434.10	28.09
434.28	21.06
434.47	0.00
434.66	23.41
434.85	0.00
435.03	49.15
435.22	2.34
435.41	11.70
435.59	16.38
435.78	9.36
435.97	0.00
436.16	32.77
436.34	0.00
436.53	0.00
436.72	42.13
436.90	0.00
437.09	0.00
437.28	0.00
437.46	0.00
437.65	98.30
437.84	56.17
438.02	42.13
438.21	65.54
438.40	0.00
438.58	28.09
438.77	21.06
438.96	0.00
439.14	74.90
439.33	4.68
439.52	58.51
439.70	67.88
439.89	0.00
440.08	51.49
440.26	0.00
440.45	28.09
440.63	28.09
440.82	16.38
441.01	51.49
441.19	0.00
441.38	0.00
441.57	14.04
441.75	32.77
441.94	16.38
442.12	63.19
442.31	72.56
442.50	9.36
442.68	70.22
442.87	35.11
443.05	32.77
443.24	70.22
443.43	65.54
443.61	4.68
443.80	53.83
443.98	0.00
444.17	0.00
444.35	44.47
444.54	0.00
444.73	42.13
444.91	14.04
445.10	23.41
445.28	0.00
445.47	23.41
445.65	88.94
445.84	56.17
446.02	0.00
446.21	0.00
446.39	46.81
446.58	23.41
446.77	25.75
446.95	147.45
447.14	46.81
447.32	100.64
447.51	42.13
447.69	21.06
447.88	9.36
448.06	0.00
448.25	0.00
448.43	0.00
448.62	0.00
448.80	0.00
448.99	0.00
449.17	0.00
449.36	25.75
449.54	0.00
449.73	9.36
449.91	49.15
450.10	0.00
450.28	21.06
450.46	79.58
450.65	16.38
450.83	35.11
451.02	53.83
451.20	0.00
451.39	18.72
451.57	35.11
451.76	49.15
451.94	25.75
452.13	49.15
452.31	53.83
452.49	44.47
452.68	0.00
452.86	0.00
453.05	32.77
453.23	30.43
453.42	18.72
453.60	44.47
453.78	58.51
453.97	23.41
454.15	32.77
454.34	0.00
454.52	98.30
454.70	23.41
454.89	9.36
455.07	0.00
455.26	32.77
455.44	35.11
455.62	25.75
455.81	49.15
455.99	18.72
456.17	25.75
456.36	0.00
456.54	70.22
456.73	0.00
456.91	0.00
457.09	23.41
457.28	0.00
457.46	72.56
457.64	23.41
457.83	16.38
458.01	39.79
458.19	0.00
458.38	0.00
458.56	58.51
458.74	51.49
458.93	9.36
459.11	25.75
459.29	9.36
459.48	56.17
459.66	95.96
459.84	65.54
460.03	95.96
460.21	63.19
460.39	25.75
460.57	0.00
460.76	9.36
460.94	81.92
461.12	37.45
461.31	0.00
461.49	18.72
461.67	25.75
461.85	4.68
462.04	49.15
462.22	117.03
462.40	4.68
462.59	21.06
462.77	2.34
462.95	74.90
463.13	42.13
463.32	65.54
463.50	32.77
463.68	53.83
463.86	81.92
464.05	42.13
464.23	0.00
464.41	44.47
464.59	51.49
464.78	32.77
464.96	37.45
465.14	0.00
465.32	39.79
465.50	32.77
465.69	25.75
465.87	23.41
466.05	56.17
466.23	81.92
466.41	14.04
466.60	32.77
466.78	49.15
466.96	23.41
467.14	14.04
467.32	63.19
467.51	39.79
467.69	14.04
467.87	32.77
468.05	0.00
468.23	56.17
468.41	23.41
468.60	46.81
468.78	56.17
468.96	44.47
469.14	7.02
469.32	70.22
469.50	4.68
469.69	30.43
469.87	14.04
470.05	21.06
470.23	2.34
470.41	0.00
470.59	42.13
470.77	30.43
470.95	4.68
471.14	86.60
471.32	35.11
471.50	32.77
471.68	0.00
471.86	25.75
472.04	72.56
472.22	32.77
472.40	0.00
472.58	67.88
472.77	2.34
472.95	37.45
473.13	42.13
473.31	9.36
473.49	32.77
473.67	56.17
473.85	81.92
474.03	86.60
474.21	56.17
474.39	0.00
474.57	95.96
474.75	0.00
474.93	0.00
475.12	107.66
475.30	14.04
475.48	37.45
475.66	35.11
475.84	4.68
476.02	98.30
476.20	51.49
476.38	70.22
476.56	23.41
476.74	39.79
476.92	25.75
477.10	16.38
477.28	56.17
477.46	35.11
477.64	39.79
477.82	119.37
478.00	79.58
478.18	16.38
478.36	72.56
478.54	56.17
478.72	63.19
478.90	77.24
479.08	30.43
479.26	9.36
479.44	39.79
479.62	14.04
479.80	35.11
479.98	74.90
480.16	23.41
480.34	0.00
480.52	42.13
480.70	30.43
480.88	16.38
481.06	0.00
481.24	18.72
481.41	37.45
481.59	28.09
481.77	72.56
481.95	51.49
482.13	35.11
482.31	0.00
482.49	0.00
482.67	16.38
482.85	28.09
483.03	18.72
483.21	0.00
483.39	7.02
483.57	100.64
483.74	35.11
483.92	51.49
484.10	23.41
484.28	23.41
484.46	37.45
484.64	72.56
484.82	39.79
485.00	28.09
485.18	18.72
485.35	114.69
485.53	0.00
485.71	14.04
485.89	35.11
486.07	28.09
486.25	14.04
486.43	53.83
486.61	51.49
486.78	0.00
486.96	14.04
487.14	32.77
487.32	0.00
487.50	49.15
487.68	58.51
487.85	35.11
488.03	16.38
488.21	0.00
488.39	58.51
488.57	32.77
488.75	0.00
488.92	23.41
489.10	32.77
489.28	2.34
489.46	81.92
489.64	23.41
489.81	105.32
489.99	63.19
490.17	14.04
490.35	70.22
490.53	95.96
490.70	91.28
490.88	0.00
491.06	30.43
491.24	42.13
491.41	74.90
491.59	21.06
491.77	117.03
491.95	49.15
492.13	0.00
492.30	46.81
492.48	46.81
492.66	53.83
492.84	32.77
493.01	0.00
493.19	25.75
493.37	65.54
493.54	53.83
493.72	0.00
493.90	42.13
494.08	56.17
494.25	23.41
494.43	16.38
494.61	18.72
494.79	23.41
494.96	14.04
495.14	23.41
495.32	4.68
495.49	42.13
495.67	25.75
495.85	21.06
496.02	46.81
496.20	42.13
496.38	7.02
496.55	81.92
496.73	39.79
496.91	0.00
497.09	23.41
497.26	117.03
497.44	84.26
497.62	44.47
497.79	74.90
497.97	23.41
498.14	23.41
498.32	0.00
498.50	100.64
498.67	44.47
498.85	49.15
499.03	65.54
499.20	7.02
499.38	23.41
499.56	53.83
499.73	46.81
499.91	25.75
500.08	46.81
500.26	63.19
500.44	102.98
500.61	23.41
500.79	18.72
500.97	35.11
501.14	16.38
501.32	60.85
501.49	0.00
501.67	23.41
501.84	0.00
502.02	32.77
502.20	32.77
502.37	74.90
502.55	18.72
502.72	46.81
502.90	2.34
503.07	0.00
503.25	16.38
503.43	4.68
503.60	4.68
503.78	70.22
503.95	0.00
504.13	72.56
504.30	0.00
504.48	105.32
504.65	74.90
504.83	30.43
505.01	0.00
505.18	84.26
505.36	126.39
505.53	18.72
505.71	58.51
505.88	58.51
506.06	9.36
506.23	77.24
506.41	46.81
506.58	21.06
506.76	56.17
506.93	44.47
507.11	63.19
507.28	39.79
507.46	0.00
507.63	63.19
507.81	0.00
507.98	51.49
508.16	28.09
508.33	46.81
508.50	84.26
508.68	49.15
508.85	28.09
509.03	11.70
509.20	0.00
509.38	49.15
509.55	77.24
509.73	77.24
509.90	28.09
510.08	11.70
510.25	35.11
510.42	37.45
510.60	30.43
510.77	79.58
510.95	74.90
511.12	32.77
511.30	65.54
511.47	70.22
511.64	7.02
511.82	46.81
511.99	0.00
512.17	131.07
512.34	51.49
512.51	46.81
512.69	0.00
512.86	0.00
513.04	72.56
513.21	9.36
513.38	2.34
513.56	46.81
513.73	67.88
513.90	58.51
514.08	4.68
514.25	14.04
514.43	67.88
514.60	65.54
514.77	44.47
514.95	14.04
515.12	2.34
515.29	18.72
515.47	53.83
515.64	32.77
515.81	11.70
515.99	35.11
516.16	79.58
516.33	58.51
516.51	39.79
516.68	44.47
516.85	4.68
517.03	65.54
517.20	51.49
517.37	74.90
517.54	60.85
517.72	53.83
517.89	102.98
518.06	4.68
518.24	79.58
518.41	133.41
518.58	16.38
518.75	0.00
518.93	65.54
519.10	0.00
519.27	18.72
519.45	9.36
519.62	72.56
519.79	18.72
519.96	49.15
520.14	18.72
520.31	86.60
520.48	21.06
520.65	35.11
520.83	131.07
521.00	18.72
521.17	95.96
521.34	7.02
521.52	67.88
521.69	0.00
521.86	84.26
522.03	58.51
522.20	79.58
522.38	93.62
522.55	32.77
522.72	42.13
522.89	0.00
523.07	88.94
523.24	16.38
523.41	11.70
523.58	67.88
523.75	18.72
523.92	70.22
524.10	42.13
524.27	0.00
524.44	100.64
524.61	95.96
524.78	28.09
524.96	28.09
525.13	28.09
525.30	11.70
525.47	91.28
525.64	44.47
525.81	65.54
525.98	65.54
526.16	11.70
526.33	95.96
526.50	0.00
526.67	88.94
526.84	0.00
527.01	21.06
527.18	53.83
527.36	16.38
527.53	23.41
527.70	30.43
527.87	14.04
528.04	44.47
528.21	67.88
528.38	0.00
528.55	14.04
528.72	65.54
528.89	44.47
529.07	35.11
529.24	77.24
529.41	77.24
529.58	56.17
529.75	32.77
529.92	39.79
530.09	0.00
530.26	58.51
530.43	32.77
530.60	60.85
530.77	51.49
530.94	58.51
531.11	70.22
531.28	88.94
531.46	65.54
531.63	65.54
531.80	67.88
531.97	9.36
532.14	79.58
532.31	11.70
532.48	91.28
532.65	35.11
532.82	79.58
532.99	0.00
533.16	21.06
533.33	37.45
533.50	79.58
533.67	60.85
533.84	93.62
534.01	63.19
534.18	39.79
534.35	37.45
534.52	105.32
534.69	39.79
534.86	28.09
535.03	9.36
535.20	91.28
535.37	84.26
535.54	0.00
535.71	23.41
535.88	81.92
536.05	21.06
536.22	2.34
536.38	65.54
536.55	25.75
536.72	60.85
536.89	18.72
537.06	70.22
537.23	11.70
537.40	60.85
537.57	114.69
537.74	93.62
537.91	11.70
538.08	56.17
538.25	39.79
538.42	58.51
538.59	37.45
538.75	2.34
538.92	0.00
539.09	0.00
539.26	0.00
539.43	32.77
539.60	70.22
539.77	23.41
539.94	0.00
540.11	74.90
540.28	39.79
540.44	51.49
540.61	0.00
540.78	0.00
540.95	23.41
541.12	18.72
541.29	58.51
541.46	23.41
541.62	23.41
541.79	91.28
541.96	30.43
542.13	32.77
542.30	98.30
542.47	91.28
542.63	0.00
542.80	2.34
542.97	0.00
543.14	28.09
543.31	81.92
543.48	30.43
543.64	65.54
543.81	39.79
543.98	18.72
544.15	18.72
544.32	60.85
544.48	0.00
544.65	16.38
544.82	53.83
544.99	9.36
545.16	7.02
545.32	44.47
545.49	0.00
545.66	79.58
545.83	0.00
546.00	30.43
546.16	44.47
546.33	23.41
546.50	39.79
546.67	117.03
546.83	0.00
547.00	58.51
547.17	7.02
547.34	18.72
547.50	2.34
547.67	77.24
547.84	7.02
548.00	23.41
548.17	30.43
548.34	72.56
548.51	60.85
548.67	0.00
548.84	0.00
549.01	39.79
549.18	72.56
549.34	0.00
549.51	2.34
549.68	0.00
549.84	14.04
550.01	81.92
550.18	51.49
550.34	25.75
550.51	37.45
550.68	14.04
550.84	11.70
551.01	0.00
551.18	4.68
551.34	42.13
551.51	53.83
551.68	37.45
551.84	16.38
552.01	63.19
552.18	49.15
552.34	18.72
552.51	32.77
552.68	58.51
552.84	0.00
553.01	95.96
553.18	79.58
553.34	39.79
553.51	23.41
553.67	0.00
553.84	145.11
554.01	28.09
554.17	14.04
554.34	7.02
554.51	32.77
554.67	18.72
554.84	39.79
555.00	23.41
555.17	32.77
555.33	32.77
555.50	11.70
555.67	35.11
555.83	4.68
556.00	51.49
556.16	46.81
556.33	4.68
556.50	117.03
556.66	70.22
556.83	70.22
556.99	23.41
557.16	84.26
557.32	0.00
557.49	56.17
557.65	0.00
557.82	95.96
557.98	37.45
558.15	9.36
558.32	67.88
558.48	14.04
558.65	91.28
558.81	11.70
558.98	0.00
559.14	9.36
559.31	25.75
559.47	16.38
559.64	0.00
559.80	60.85
559.97	51.49
560.13	0.00
560.30	0.00
560.46	4.68
560.63	49.15
560.79	91.28
560.96	88.94
561.12	23.41
561.29	126.39
561.45	46.81
561.61	44.47
561.78	0.00
561.94	107.66
562.11	0.00
562.27	93.62
562.44	49.15
562.60	32.77
562.77	51.49
562.93	0.00
563.10	56.17
563.26	9.36
563.42	74.90
563.59	49.15
563.75	91.28
563.92	42.13
564.08	49.15
564.24	0.00
564.41	58.51
564.57	44.47
564.74	81.92
564.90	0.00
565.07	21.06
565.23	9.36
565.39	95.96
565.56	16.38
565.72	0.00
565.88	95.96
566.05	21.06
566.21	77.24
566.38	77.24
566.54	53.83
566.70	56.17
566.87	23.41
567.03	60.85
567.19	7.02
567.36	21.06
567.52	98.30
567.68	0.00
567.85	65.54
568.01	28.09
568.17	77.24
568.34	88.94
568.50	74.90
568.66	37.45
568.83	67.88
568.99	42.13
569.15	49.15
569.32	95.96
569.48	21.06
569.64	42.13
569.81	30.43
569.97	39.79
570.13	37.45
570.30	44.47
570.46	23.41
570.62	110.01
570.78	0.00
570.95	63.19
571.11	46.81
571.27	86.60
571.43	65.54
571.60	49.15
571.76	53.83
571.92	11.70
572.09	35.11
572.25	42.13
572.41	65.54
572.57	0.00
572.74	63.19
572.90	56.17
573.06	60.85
573.22	9.36
573.38	0.00
573.55	21.06
573.71	105.32
573.87	110.01
574.03	56.17
574.20	53.83
574.36	72.56
574.52	0.00
574.68	0.00
574.84	84.26
575.01	21.06
575.17	56.17
575.33	37.45
575.49	25.75
575.65	28.09
575.82	49.15
575.98	84.26
576.14	39.79
576.30	58.51
576.46	65.54
576.62	77.24
576.79	25.75
576.95	32.77
577.11	18.72
577.27	88.94
577.43	58.51
577.59	65.54
577.75	72.56
577.92	32.77
578.08	72.56
578.24	53.83
578.40	42.13
578.56	0.00
578.72	18.72
578.88	58.51
579.04	84.26
579.21	42.13
579.37	44.47
579.53	42.13
579.69	58.51
579.85	51.49
580.01	70.22
580.17	91.28
580.33	161.50
580.49	0.00
580.65	49.15
580.82	0.00
580.98	74.90
581.14	32.77
581.30	49.15
581.46	49.15
581.62	49.15
581.78	46.81
581.94	14.04
582.10	51.49
582.26	60.85
582.42	49.15
582.58	77.24
582.74	65.54
582.90	51.49
583.06	14.04
583.22	51.49
583.38	84.26
583.54	0.00
583.70	28.09
583.86	51.49
584.02	28.09
584.18	32.77
584.34	93.62
584.50	0.00
584.66	28.09
584.82	25.75
584.98	88.94
585.14	0.00
585.30	25.75
585.46	112.35
585.62	58.51
585.78	42.13
585.94	0.00
586.10	72.56
586.26	70.22
586.42	63.19
586.58	63.19
586.74	25.75
586.90	0.00
587.06	49.15
587.22	39.79
587.38	35.11
587.54	28.09
587.70	0.00
587.86	81.92
588.02	63.19
588.18	23.41
588.34	60.85
588.49	98.30
588.65	7.02
588.81	25.75
588.97	0.00
589.13	18.72
589.29	39.79
589.45	25.75
589.61	9.36
589.77	21.06
589.93	28.09
590.08	42.13
590.24	0.00
590.40	16.38
590.56	28.09
590.72	49.15
590.88	93.62
591.04	35.11
591.20	46.81
591.35	65.54
591.51	39.79
591.67	0.00
591.83	35.11
591.99	0.00
592.15	0.00
592.31	65.54
592.46	42.13
592.62	28.09
592.78	98.30
592.94	72.56
593.10	7.02
593.26	65.54
593.41	32.77
593.57	60.85
593.73	49.15
593.89	79.58
594.05	30.43
594.20	11.70
594.36	93.62
594.52	84.26
594.68	42.13
594.84	16.38
594.99	107.66
595.15	28.09
595.31	0.00
595.47	2.34
595.62	93.62
595.78	49.15
595.94	44.47
596.10	16.38
596.25	4.68
596.41	56.17
596.57	72.56
596.73	100.64
596.88	56.17
597.04	37.45
597.20	32.77
597.36	65.54
597.51	51.49
597.67	42.13
597.83	44.47
597.99	110.01
598.14	91.28
598.30	7.02
598.46	53.83
598.61	91.28
598.77	30.43
598.93	21.06
599.09	37.45
599.24	18.72
599.40	79.58
599.56	14.04
599.71	0.00
599.87	77.24
600.03	60.85
600.18	30.43
600.34	53.83
600.50	67.88
600.65	51.49
600.81	65.54
600.97	70.22
601.12	39.79
601.28	37.45
601.44	39.79
601.59	53.83
601.75	117.03
601.91	0.00
602.06	28.09
602.22	53.83
602.37	0.00
602.53	39.79
602.69	65.54
602.84	0.00
603.00	0.00
603.16	86.60
603.31	86.60
603.47	0.00
603.62	72.56
603.78	37.45
603.94	16.38
604.09	11.70
604.25	51.49
604.40	25.75
604.56	0.00
604.71	0.00
604.87	44.47
605.03	70.22
605.18	65.54
605.34	70.22
605.49	37.45
605.65	56.17
605.80	126.39
605.96	0.00
606.12	4.68
606.27	51.49
606.43	0.00
606.58	46.81
606.74	58.51
606.89	117.03
607.05	51.49
607.20	53.83
607.36	67.88
607.51	18.72
607.67	0.00
607.82	77.24
607.98	37.45
608.13	70.22
608.29	65.54
608.44	9.36
608.60	86.60
608.75	37.45
608.91	98.30
609.06	0.00
609.22	58.51
609.37	51.49
609.53	0.00
609.68	0.00
609.84	70.22
609.99	65.54
610.15	4.68
610.30	70.22
610.46	72.56
610.61	28.09
610.76	9.36
610.92	58.51
611.07	0.00
611.23	37.45
611.38	0.00
611.54	74.90
611.69	86.60
611.84	42.13
612.00	49.15
612.15	0.00
612.31	74.90
612.46	4.68
612.62	74.90
612.77	60.85
612.92	72.56
613.08	79.58
613.23	49.15
613.39	0.00
613.54	21.06
613.69	14.04
613.85	72.56
614.00	16.38
614.15	56.17
614.31	0.00
614.46	44.47
614.62	37.45
614.77	63.19
614.92	28.09
615.08	63.19
615.23	79.58
615.38	67.88
615.54	91.28
615.69	14.04
615.84	0.00
616.00	58.51
616.15	88.94
616.30	37.45
616.46	65.54
616.61	128.73
616.76	37.45
616.92	46.81
617.07	14.04
617.22	53.83
617.37	42.13
617.53	23.41
617.68	0.00
617.83	65.54
617.99	25.75
618.14	53.83
618.29	28.09
618.45	14.04
618.60	0.00
618.75	32.77
618.90	44.47
619.06	63.19
619.21	49.15
619.36	25.75
619.51	53.83
619.67	7.02
619.82	72.56
619.97	4.68
620.12	51.49
620.28	14.04
620.43	53.83
620.58	79.58
620.73	11.70
620.89	4.68
621.04	21.06
621.19	0.00
621.34	23.41
621.49	0.00
621.65	42.13
621.80	0.00
621.95	128.73
622.10	7.02
622.25	30.43
622.41	9.36
622.56	25.75
622.71	21.06
622.86	28.09
623.01	114.69
623.16	133.41
623.32	105.32
623.47	18.72
623.62	84.26
623.77	0.00
623.92	0.00
624.07	46.81
624.23	32.77
624.38	0.00
624.53	58.51
624.68	98.30
624.83	60.85
624.98	39.79
625.13	0.00
625.29	16.38
625.44	42.13
625.59	4.68
625.74	56.17
625.89	88.94
626.04	0.00
626.19	49.15
626.34	44.47
626.49	21.06
626.65	30.43
626.80	0.00
626.95	0.00
627.10	56.17
627.25	18.72
627.40	117.03
627.55	21.06
627.70	18.72
627.85	131.07
628.00	42.13
628.15	56.17
628.30	32.77
628.45	37.45
628.60	35.11
628.76	79.58
628.91	4.68
629.06	0.00
629.21	49.15
629.36	53.83
629.51	46.81
629.66	0.00
629.81	16.38
629.96	18.72
630.11	67.88
630.26	11.70
630.41	53.83
630.56	30.43
630.71	98.30
630.86	0.00
631.01	32.77
631.16	42.13
631.31	74.90
631.46	0.00
631.61	11.70
631.76	32.77
631.91	4.68
632.06	124.05
632.21	0.00
632.36	74.90
632.51	93.62
632.66	0.00
632.81	16.38
632.96	4.68
633.10	46.81
633.25	110.01
633.40	70.22
633.55	0.00
633.70	56.17
633.85	77.24
634.00	39.79
634.15	74.90
634.30	9.36
634.45	65.54
634.60	105.32
634.75	39.79
634.90	72.56
635.05	65.54
635.19	37.45
635.34	14.04
635.49	30.43
635.64	0.00
635.79	4.68
635.94	32.77
636.09	0.00
636.24	0.00
636.39	30.43
636.53	4.68
636.68	4.68
636.83	42.13
636.98	65.54
637.13	51.49
637.28	28.09
637.43	86.60
637.57	39.79
637.72	81.92
637.87	14.04
638.02	138.09
638.17	65.54
638.32	91.28
638.46	2.34
638.61	28.09
638.76	7.02
638.91	25.75
639.06	11.70
639.20	58.51
639.35	49.15
639.50	56.17
639.65	0.00
639.80	53.83
639.94	0.00
640.09	133.41
640.24	0.00
640.39	4.68
640.54	16.38
640.68	0.00
640.83	0.00
640.98	0.00
641.13	30.43
641.27	11.70
641.42	98.30
641.57	58.51
641.72	9.36
641.86	60.85
642.01	16.38
642.16	56.17
642.31	30.43
642.45	42.13
642.60	35.11
642.75	9.36
642.90	46.81
643.04	0.00
643.19	32.77
643.34	9.36
643.48	30.43
643.63	4.68
643.78	9.36
643.93	0.00
644.07	23.41
644.22	4.68
644.37	25.75
644.51	37.45
644.66	37.45
644.81	0.00
644.95	72.56
645.10	67.88
645.25	4.68
645.39	0.00
645.54	35.11
645.69	28.09
645.83	18.72
645.98	63.19
646.13	35.11
646.27	49.15
646.42	0.00
646.57	0.00
646.71	18.72
646.86	30.43
647.00	42.13
647.15	4.68
647.30	30.43
647.44	32.77
647.59	51.49
647.74	23.41
647.88	28.09
648.03	0.00
648.17	37.45
648.32	18.72
648.47	67.88
648.61	0.00
648.76	28.09
648.90	58.51
649.05	63.19
649.20	21.06
649.34	0.00
649.49	14.04
649.63	0.00
649.78	0.00
649.92	44.47
650.07	58.51
650.21	88.94
650.36	2.34
650.51	74.90
650.65	63.19
650.80	14.04
650.94	0.00
651.09	25.75
651.23	53.83
651.38	0.00
651.52	0.00
651.67	63.19
651.81	35.11
651.96	32.77
652.10	35.11
652.25	23.41
652.39	44.47
652.54	2.34
652.68	25.75
652.83	35.11
652.97	51.49
653.12	0.00
653.26	0.00
653.41	79.58
653.55	86.60
653.70	72.56
653.84	72.56
653.99	58.51
654.13	11.70
654.27	63.19
654.42	86.60
654.56	67.88
654.71	60.85
654.85	21.06
655.00	0.00
655.14	46.81
655.29	23.41
655.43	42.13
655.57	42.13
655.72	88.94
655.86	60.85
656.01	11.70
656.15	53.83
656.30	91.28
656.44	74.90
656.58	32.77
656.73	56.17
656.87	81.92
657.01	0.00
657.16	37.45
657.30	102.98
657.45	117.03
657.59	11.70
657.73	32.77
657.88	28.09
658.02	16.38
658.16	0.00
658.31	16.38
658.45	0.00
658.60	39.79
658.74	60.85
658.88	131.07
659.03	37.45
659.17	37.45
659.31	11.70
659.46	72.56
659.60	81.92
659.74	42.13
659.89	7.02
660.03	14.04
660.17	135.75
660.32	63.19
660.46	23.41
660.60	56.17
660.74	28.09
660.89	44.47
661.03	105.32
661.17	65.54
661.32	35.11
661.46	70.22
661.60	95.96
661.74	2.34
661.89	30.43
662.03	21.06
662.17	63.19
662.31	135.75
662.46	9.36
662.60	28.09
662.74	49.15
662.88	51.49
663.03	70.22
663.17	0.00
663.31	51.49
663.45	32.77
663.60	0.00
663.74	35.11
663.88	39.79
664.02	53.83
664.17	42.13
664.31	63.19
664.45	56.17
664.59	35.11
664.73	35.11
664.88	46.81
665.02	11.70
665.16	65.54
665.30	60.85
665.44	28.09
665.59	58.51
665.73	18.72
665.87	42.13
666.01	67.88
666.15	102.98
666.29	46.81
666.44	0.00
666.58	65.54
666.72	51.49
666.86	23.41
667.00	0.00
667.14	25.75
667.28	37.45
667.43	46.81
667.57	42.13
667.71	0.00
667.85	60.85
667.99	70.22
668.13	67.88
668.27	44.47
668.41	4.68
668.56	84.26
668.70	100.64
668.84	25.75
668.98	105.32
669.12	70.22
669.26	4.68
669.40	2.34
669.54	23.41
669.68	81.92
669.82	49.15
669.96	44.47
670.10	23.41
670.25	0.00
670.39	9.36
670.53	56.17
670.67	49.15
670.81	0.00
670.95	70.22
671.09	65.54
671.23	0.00
671.37	0.00
671.51	0.00
671.65	56.17
671.79	98.30
671.93	35.11
672.07	51.49
672.21	37.45
672.35	70.22
672.49	39.79
672.63	70.22
672.77	95.96
672.91	30.43
673.05	0.00
673.19	77.24
673.33	86.60
673.47	0.00
673.61	18.72
673.75	32.77
673.89	56.17
674.03	51.49
674.17	93.62
674.31	46.81
674.45	7.02
674.59	114.69
674.73	39.79
674.87	18.72
675.01	65.54
675.15	32.77
675.29	51.49
675.43	39.79
675.56	74.90
675.70	35.11
675.84	2.34
675.98	7.02
676.12	86.60
676.26	35.11
676.40	0.00
676.54	23.41
676.68	70.22
676.82	28.09
676.96	28.09
677.10	14.04
677.23	81.92
677.37	9.36
677.51	0.00
677.65	4.68
677.79	0.00
677.93	25.75
678.07	0.00
678.21	30.43
678.34	49.15
678.48	4.68
678.62	42.13
678.76	2.34
678.90	11.70
679.04	65.54
679.18	0.00
679.31	58.51
679.45	70.22
679.59	0.00
679.73	23.41
679.87	0.00
680.00	84.26
680.14	53.83
680.28	11.70
680.42	11.70
680.56	102.98
680.70	25.75
680.83	46.81
680.97	14.04
681.11	23.41
681.25	0.00
681.39	0.00
681.52	39.79
681.66	0.00
681.80	88.94
681.94	60.85
682.07	7.02
682.21	16.38
682.35	7.02
682.49	53.83
682.62	49.15
682.76	16.38
682.90	0.00
683.04	32.77
683.17	51.49
683.31	44.47
683.45	32.77
683.59	81.92
683.72	77.24
683.86	0.00
684.00	16.38
684.13	32.77
684.27	65.54
684.41	0.00
684.55	0.00
684.68	70.22
684.82	25.75
684.96	0.00
685.09	58.51
685.23	28.09
685.37	11.70
685.50	35.11
685.64	58.51
685.78	23.41
685.91	95.96
686.05	25.75
686.19	2.34
686.32	0.00
686.46	42.13
686.60	14.04
686.73	58.51
686.87	56.17
687.01	84.26
687.14	0.00
687.28	0.00
687.42	0.00
687.55	53.83
687.69	53.83
687.82	23.41
687.96	46.81
688.10	65.54
688.23	107.66
688.37	42.13
688.50	0.00
688.64	23.41
688.78	35.11
688.91	42.13
689.05	28.09
689.18	18.72
689.32	25.75
689.46	14.04
689.59	53.83
689.73	0.00
689.86	0.00
690.00	0.00
690.13	7.02
690.27	32.77
690.41	0.00
690.54	25.75
690.68	21.06
690.81	4.68
690.95	9.36
691.08	0.00
691.22	37.45
691.35	14.04
691.49	44.47
691.62	2.34
691.76	0.00
691.89	39.79
692.03	37.45
692.16	72.56
692.30	28.09
692.43	58.51
692.57	14.04
692.70	11.70
692.84	21.06
692.97	67.88
693.11	58.51
693.24	0.00
693.38	7.02
693.51	44.47
693.65	23.41
693.78	0.00
693.92	37.45
694.05	28.09
694.19	4.68
694.32	63.19
694.45	58.51
694.59	53.83
694.72	14.04
694.86	0.00
694.99	84.26
695.13	30.43
695.26	56.17
695.39	0.00
695.53	16.38
695.66	0.00
695.80	11.70
695.93	28.09
696.07	0.00
696.20	18.72
696.33	65.54
696.47	53.83
696.60	42.13
696.73	91.28
696.87	25.75
697.00	88.94
697.14	86.60
697.27	67.88
697.40	67.88
697.54	0.00
697.67	0.00
697.80	0.00
697.94	44.47
698.07	2.34
698.21	39.79
698.34	21.06
698.47	58.51
698.61	35.11
698.74	100.64
698.87	9.36
699.01	30.43
699.14	11.70
699.27	63.19
699.40	23.41
699.54	30.43
699.67	63.19
699.80	0.00
699.94	102.98
700.07	53.83
700.20	65.54
700.34	42.13
700.47	93.62
700.60	56.17
700.73	63.19
700.87	102.98
701.00	0.00
701.13	39.79
701.26	70.22
701.40	23.41
701.53	32.77
701.66	0.00
701.79	0.00
701.93	46.81
702.06	56.17
702.19	42.13
702.32	88.94
702.46	0.00
702.59	46.81
702.72	63.19
702.85	81.92
702.99	4.68
703.12	23.41
703.25	28.09
703.38	0.00
703.51	67.88
703.65	0.00
703.78	9.36
703.91	84.26
704.04	28.09
704.17	0.00
704.31	14.04
704.44	0.00
704.57	30.43
704.70	37.45
704.83	21.06
704.96	51.49
705.10	60.85
705.23	14.04
>>>>>End Processed Spectral Data<<<<<
