SpectraSuite Data File
++++++++++++++++++++++++++++++++++++
Date: Mon Oct 07 14:55:01 GMT-05:00 2013
User: price-jones
Dark Spectrum Present: No
Reference Spectrum Present: No
Number of Sampled Component Spectra: 1
Spectrometers: USB2+H05261
Integration Time (usec): 10000 (USB2+H05261)
Spectra Averaged: 1 (USB2+H05261)
Boxcar Smoothing: 0 (USB2+H05261)
Correct for Electrical Dark: No (USB2+H05261)
Strobe/Lamp Enabled: No (USB2+H05261)
Correct for Detector Non-linearity: No (USB2+H05261)
Correct for Stray Light: No (USB2+H05261)
Number of Pixels in Processed Spectrum: 2048
>>>>>Begin Processed Spectral Data<<<<<
365.73	0.00
365.92	0.00
366.12	0.00
366.32	0.00
366.52	0.00
366.72	0.00
366.91	0.00
367.11	0.00
367.31	0.00
367.51	0.00
367.70	0.00
367.90	0.00
368.10	0.00
368.30	0.00
368.49	0.00
368.69	0.00
368.89	0.00
369.09	0.00
369.28	0.00
369.48	0.00
369.68	0.00
369.87	0.00
370.07	0.00
370.27	0.00
370.47	381.51
370.66	2370.96
370.86	3028.65
371.06	3077.80
371.25	3054.40
371.45	2813.32
371.65	2420.11
371.84	2450.54
372.04	2574.59
372.24	2913.97
372.44	2967.80
372.63	2675.23
372.83	2506.71
373.03	2363.94
373.22	2202.44
373.42	2328.83
373.62	2616.72
373.81	2719.70
374.01	2778.22
374.21	2485.65
374.40	2354.58
374.60	2502.03
374.79	2869.50
374.99	3307.18
375.19	3583.36
375.38	3435.91
375.58	3206.53
375.78	3225.26
375.97	3375.05
376.17	3251.00
376.37	3445.27
376.56	3665.28
376.76	3829.12
376.95	3934.44
377.15	4266.80
377.35	4325.31
377.54	4596.81
377.74	4741.93
377.93	4730.22
378.13	4592.13
378.33	4320.63
378.52	3971.89
378.72	3801.03
378.91	3798.69
379.11	3592.72
379.31	3527.19
379.50	3653.58
379.70	3990.61
379.89	4414.25
380.09	4493.83
380.28	4741.93
380.48	4667.03
380.68	4667.03
380.87	4402.55
381.07	3981.25
381.26	3815.07
381.46	3620.81
381.65	3342.28
381.85	3316.54
382.04	3073.12
382.24	2832.05
382.43	2829.71
382.63	2888.22
382.83	2670.55
383.02	2759.49
383.22	2888.22
383.41	2782.90
383.61	3028.65
383.80	3552.93
384.00	4065.51
384.19	4470.42
384.39	4613.20
384.58	4669.37
384.78	4578.09
384.97	4425.95
385.17	4215.30
385.36	3976.57
385.56	3859.54
385.75	4058.49
385.95	4650.64
386.14	4772.35
386.34	4732.56
386.53	4395.53
386.72	4294.88
386.92	4449.36
387.11	4732.56
387.31	4854.27
387.50	4798.10
387.70	4662.35
387.89	4540.64
388.09	4641.28
388.28	4575.75
388.48	4884.70
388.67	5165.56
388.86	5603.24
389.06	5930.92
389.25	6305.40
389.45	6471.58
389.64	6216.46
389.84	6141.57
390.03	6064.33
390.22	6200.08
390.42	6562.86
390.61	6773.51
390.81	7246.30
391.00	7583.34
391.19	7222.89
391.39	6958.41
391.58	6609.67
391.78	6279.66
391.97	5956.66
392.16	5696.86
392.36	4765.33
392.55	3801.03
392.75	3030.99
392.94	2593.31
393.13	2675.23
393.33	3344.63
393.52	4358.08
393.71	5062.58
393.91	5720.27
394.10	6314.77
394.29	6862.45
394.49	7403.11
394.68	7735.47
394.88	7716.75
395.07	7948.46
395.26	8086.55
395.46	7588.02
395.65	7063.74
395.84	5989.43
396.04	5011.09
396.23	4161.47
396.42	3609.11
396.62	3496.76
396.81	4351.06
397.00	5884.11
397.19	7117.57
397.39	8301.88
397.58	9163.20
397.77	9659.39
397.97	9659.39
398.16	9930.89
398.35	10492.62
398.55	10642.42
398.74	10979.45
398.93	10995.84
399.12	11007.54
399.32	10546.45
399.51	10944.34
399.70	11754.17
399.90	11545.86
400.09	11393.73
400.28	11211.17
400.47	11529.48
400.67	12046.74
400.86	12449.31
401.05	12404.84
401.24	12306.54
401.44	12671.66
401.63	12697.41
401.82	12751.24
402.01	12610.81
402.21	13242.75
402.40	12973.59
402.59	12519.53
402.78	12049.08
402.97	11651.19
403.17	12444.63
403.36	13191.26
403.55	13415.95
403.74	13369.14
403.93	12905.71
404.13	11623.10
404.32	11885.24
404.51	12556.97
404.70	13151.47
404.89	13081.25
405.09	12800.39
405.28	12521.87
405.47	12819.11
405.66	12643.57
405.85	12112.27
406.05	12004.61
406.24	12421.22
406.43	12744.22
406.62	13076.57
406.81	13177.22
407.00	12798.05
407.20	12526.55
407.39	12655.28
407.58	13420.63
407.77	13757.67
407.96	14118.11
408.15	14537.07
408.34	14649.41
408.54	15201.78
408.73	14614.30
408.92	14843.68
409.11	14361.53
409.30	13343.39
409.49	12697.41
409.68	11873.54
409.87	11992.90
410.07	12828.48
410.26	13701.50
410.45	14221.10
410.64	14705.59
410.83	15377.32
411.02	15578.61
411.21	16060.76
411.40	15763.51
411.59	15927.35
411.78	15882.88
411.98	15985.86
412.17	15988.20
412.36	15777.55
412.55	15761.17
412.74	15295.40
412.93	15126.88
413.12	15501.37
413.31	17032.08
413.50	17025.06
413.69	17195.92
413.88	16304.17
414.07	16365.03
414.26	16479.71
414.45	17181.87
414.64	17011.01
414.83	16931.44
415.02	16540.57
415.22	16315.87
415.41	17226.34
415.60	17535.29
415.79	18412.99
415.98	18480.87
416.17	18441.08
416.36	18298.31
416.55	18094.68
416.74	17013.35
416.93	16779.30
417.12	17153.79
417.31	16917.39
417.50	17610.19
417.69	17921.48
417.88	17570.40
418.07	17561.04
418.26	17350.39
418.45	17781.05
418.64	18490.23
418.83	19147.92
419.02	18504.28
419.21	17930.84
419.39	17415.93
419.58	17184.21
419.77	17422.95
419.96	18375.55
420.15	18773.44
420.34	19534.11
420.53	20049.03
420.72	20060.73
420.91	20161.37
421.10	19562.20
421.29	19587.94
421.48	19206.44
421.67	20109.88
421.86	19035.58
422.05	17303.58
422.24	16390.77
422.43	16554.61
422.61	18834.29
422.80	19234.52
422.99	18590.88
423.18	18153.20
423.37	18312.35
423.56	18904.51
423.75	18691.52
423.94	19154.94
424.13	18256.18
424.32	18071.28
424.50	18279.58
424.69	18370.86
424.88	18478.53
425.07	18499.59
425.26	18097.02
425.45	17605.51
425.64	17640.62
425.83	18036.17
426.01	18602.58
426.20	18602.58
426.39	18464.49
426.58	17422.95
426.77	16402.47
426.96	16163.74
427.15	16570.99
427.33	18118.09
427.52	18354.48
427.71	18654.07
427.90	18319.37
428.09	18253.84
428.28	17841.90
428.46	16706.74
428.65	16533.54
428.84	17537.63
429.03	17343.37
429.22	16376.73
429.40	15349.23
429.59	13909.80
429.78	12173.13
429.97	12898.69
430.16	12559.31
430.34	12720.81
430.53	13102.32
430.72	14071.30
430.91	15524.77
431.10	17958.93
431.28	20826.09
431.47	22534.68
431.66	21759.96
431.85	19276.65
432.03	17879.35
432.22	17923.82
432.41	19204.10
432.60	20762.89
432.79	21322.28
432.97	21998.70
433.16	21165.46
433.35	18595.56
433.54	16891.65
433.72	16468.01
433.91	17282.52
434.10	19508.37
434.28	20690.34
434.47	21378.45
434.66	20463.30
434.85	20320.53
435.03	21053.12
435.22	20915.03
435.41	22487.87
435.59	22394.25
435.78	22590.85
435.97	23021.51
436.16	23372.59
436.34	22684.47
436.53	22677.45
436.72	22422.33
436.90	21305.90
437.09	20926.73
437.28	20872.90
437.46	21844.22
437.65	21289.51
437.84	19550.49
438.02	18740.67
438.21	18874.08
438.40	19552.84
438.58	20943.11
438.77	21825.50
438.96	22047.85
439.14	22955.97
439.33	23658.14
439.52	23524.72
439.70	22677.45
439.89	22001.04
440.08	21628.89
440.26	21820.81
440.45	23068.32
440.63	24713.72
440.82	25682.70
441.01	25062.46
441.19	25078.84
441.38	25872.28
441.57	26665.72
441.75	26593.17
441.94	26778.07
442.12	26485.50
442.31	27234.47
442.50	27115.11
442.68	26305.28
442.87	26553.38
443.05	25769.30
443.24	26480.82
443.43	26998.08
443.61	27363.20
443.80	27828.97
443.98	26644.66
444.17	26162.51
444.35	27793.86
444.54	28830.72
444.73	27653.43
444.91	25965.90
445.10	25401.83
445.28	24552.22
445.47	24334.55
445.65	24727.76
445.84	25703.76
446.02	25935.48
446.21	26319.32
446.39	26305.28
446.58	27007.44
446.77	27346.82
446.95	27571.51
447.14	28587.30
447.32	28676.24
447.51	28137.92
447.69	26955.95
447.88	27300.01
448.06	27681.52
448.25	27763.43
448.43	27449.80
448.62	26995.74
448.80	26864.67
448.99	27077.66
449.17	28091.11
449.36	28280.69
449.54	28849.44
449.73	28959.45
449.91	29383.09
450.10	30527.61
450.28	30225.68
450.46	30878.69
450.65	30874.01
450.83	30139.08
451.02	29439.26
451.20	29591.39
451.39	29867.58
451.57	29689.70
451.76	29790.34
451.94	29074.13
452.13	28308.78
452.31	26654.02
452.49	25493.12
452.68	26459.76
452.86	26869.35
453.05	27110.43
453.23	28299.42
453.42	28540.49
453.60	29153.71
453.78	29195.84
453.97	28521.77
454.15	28833.06
454.34	27559.81
454.52	27831.31
454.70	28002.17
454.89	28151.96
455.07	28987.53
455.26	28868.17
455.44	29525.86
455.62	30534.63
455.81	29919.07
455.99	30387.18
456.17	30562.72
456.36	31040.18
456.54	31026.14
456.73	30508.88
456.91	31318.71
457.09	31456.80
457.28	32360.25
457.46	30396.54
457.64	30036.09
457.83	29902.68
458.01	29074.13
458.19	30639.95
458.38	30962.95
458.56	31400.63
458.74	31388.92
458.93	30693.79
459.11	30199.93
459.29	29596.07
459.48	30333.34
459.66	29771.61
459.84	30356.75
460.03	30778.04
460.21	31208.70
460.39	31812.56
460.57	31241.47
460.76	31917.89
460.94	31978.74
461.12	31871.07
461.31	32467.91
461.49	32020.87
461.67	32130.87
461.85	32643.45
462.04	32507.70
462.22	33060.07
462.40	32395.35
462.59	32142.58
462.77	32037.25
462.95	32041.93
463.13	32011.51
463.32	31353.82
463.50	31545.74
463.68	31866.39
463.86	32013.85
464.05	30878.69
464.23	30630.59
464.41	30609.53
464.59	30073.54
464.78	31922.57
464.96	31850.01
465.14	30899.75
465.32	32364.93
465.50	33546.90
465.69	33706.05
465.87	32348.54
466.05	31330.41
466.23	29986.94
466.41	29394.79
466.60	30700.81
466.78	30789.75
466.96	31391.26
467.14	31562.12
467.32	31555.10
467.51	31828.95
467.69	30480.80
467.87	30984.01
468.05	31735.32
468.23	31658.09
468.41	31108.06
468.60	31770.43
468.78	32378.97
468.96	31690.85
469.14	32418.76
469.32	32173.00
469.50	30679.74
469.69	30976.99
469.87	31108.06
470.05	30611.87
470.23	30775.70
470.41	31323.39
470.59	31035.50
470.77	31218.07
470.95	32229.18
471.14	33006.23
471.32	33055.39
471.50	33954.15
471.68	34904.41
471.86	35105.70
472.04	33895.64
472.22	34637.59
472.40	33312.84
472.58	33226.24
472.77	32453.87
472.95	33104.54
473.13	34520.56
473.31	32854.10
473.49	33060.07
473.67	33965.85
473.85	34368.43
474.03	35786.79
474.21	36119.15
474.39	35852.33
474.57	36243.20
474.75	36245.54
474.93	35342.09
475.12	34916.11
475.30	35262.51
475.48	34646.95
475.66	34354.38
475.84	33883.94
476.02	34244.38
476.20	34309.91
476.38	35051.86
476.56	36472.57
476.74	36708.96
476.92	36631.72
477.10	36938.33
477.28	37553.90
477.46	37883.91
477.64	38635.22
477.82	38789.70
478.00	38653.95
478.18	37401.76
478.36	36924.29
478.54	38438.62
478.72	38813.10
478.90	40179.98
479.08	41514.08
479.26	41123.21
479.44	41287.05
479.62	40545.10
479.80	41024.91
479.98	40910.22
480.16	42029.00
480.34	40737.02
480.52	42017.30
480.70	42330.93
480.88	41830.05
481.06	42436.25
481.24	42373.06
481.41	43725.89
481.59	44245.49
481.77	43363.11
481.95	42564.98
482.13	42532.22
482.31	43681.42
482.49	43765.68
482.67	43012.02
482.85	43267.14
483.03	43290.55
483.21	44905.52
483.39	44294.64
483.57	43611.20
483.74	43751.63
483.92	44626.99
484.10	44210.38
484.28	44619.97
484.46	44210.38
484.64	46323.88
484.82	45013.18
485.00	44449.11
485.18	43622.90
485.35	41008.53
485.53	37104.51
485.71	34820.15
485.89	35246.13
486.07	37930.72
486.25	40435.10
486.43	42960.53
486.61	43199.27
486.78	42726.48
486.96	44079.31
487.14	45427.46
487.32	46094.51
487.50	46686.67
487.68	48280.57
487.85	49394.67
488.03	48516.96
488.21	48189.29
488.39	47702.46
488.57	46246.65
488.75	46103.87
488.92	48219.72
489.10	50141.30
489.28	51119.64
489.46	52554.39
489.64	51791.37
489.81	51894.36
489.99	50974.53
490.17	51629.88
490.35	51723.50
490.53	51274.12
490.70	50829.41
490.88	50630.47
491.06	52168.20
491.24	51992.66
491.41	51011.98
491.59	49066.99
491.77	49036.56
491.95	50927.72
492.13	52289.91
492.30	52622.26
492.48	53429.75
492.66	53808.92
492.84	53528.05
493.01	53062.29
493.19	53282.30
493.37	52280.55
493.54	52912.49
493.72	53820.62
493.90	54028.93
494.08	54625.76
494.25	54361.28
494.43	55220.26
494.61	55566.66
494.79	55709.43
494.96	55828.80
495.14	55370.05
495.32	53914.24
495.49	54291.07
495.67	55334.95
495.85	56044.13
496.02	56685.43
496.20	56409.25
496.38	55941.14
496.55	55870.93
496.73	56676.07
496.91	56662.03
497.09	56451.38
497.26	56804.80
497.44	56383.51
497.62	55388.78
497.79	54195.10
497.97	53860.41
498.14	54595.34
498.32	56104.98
498.50	55798.37
498.67	55758.58
498.85	56336.69
499.03	56938.21
499.20	57324.40
499.38	56615.22
499.56	55966.89
499.73	55774.97
499.91	55564.32
500.08	54934.71
500.26	54471.29
500.44	55220.26
500.61	55683.69
500.79	55318.56
500.97	55522.19
501.14	54656.19
501.32	54337.88
501.49	54452.56
501.67	54962.80
501.84	55416.86
502.02	56048.81
502.20	56687.78
502.37	56722.88
502.55	56783.74
502.72	57286.95
502.90	57565.48
503.07	57190.99
503.25	56348.40
503.43	55196.85
503.60	55058.76
503.78	54703.00
503.95	55112.59
504.13	56563.73
504.30	56928.85
504.48	56247.75
504.65	56479.47
504.83	56713.52
505.01	57485.90
505.18	57738.68
505.36	58003.16
505.53	58080.39
505.71	58576.59
505.88	58314.45
506.06	57874.43
506.23	57366.53
506.41	57406.32
506.58	57790.17
506.76	57652.08
506.93	57312.70
507.11	57045.88
507.28	57076.30
507.46	56528.62
507.63	56554.36
507.81	55756.24
507.98	56495.85
508.16	57780.81
508.33	57429.72
508.50	57998.48
508.68	58316.79
508.85	58621.06
509.03	58932.35
509.20	58087.42
509.38	57230.78
509.55	56903.10
509.73	57254.18
509.90	57738.68
510.08	57876.77
510.25	57219.08
510.42	57364.19
510.60	57813.57
510.77	57888.47
510.95	58281.68
511.12	58241.89
511.30	58958.09
511.47	59260.02
511.64	59107.89
511.82	59140.66
511.99	58045.29
512.17	58211.46
512.34	57574.84
512.51	57551.43
512.69	57932.94
512.86	57841.66
513.04	57900.17
513.21	57598.24
513.38	56505.21
513.56	56350.74
513.73	55976.25
513.90	57076.30
514.08	56851.61
514.25	56479.47
514.43	57237.80
514.60	57427.38
514.77	57703.57
514.95	57832.30
515.12	57570.16
515.29	58358.92
515.47	58908.94
515.64	58316.79
515.81	58148.27
515.99	57015.45
516.16	54932.37
516.33	52821.21
516.51	52577.79
516.68	51274.12
516.85	50625.79
517.03	52701.84
517.20	55049.40
517.37	57059.92
517.54	57790.17
517.72	56570.75
517.89	53422.73
518.06	52130.75
518.24	53329.11
518.41	55344.31
518.58	56254.78
518.75	56278.18
518.93	56416.27
519.10	55849.86
519.27	56868.00
519.45	57221.42
519.62	57886.13
519.79	58073.37
519.96	57338.44
520.14	57371.21
520.31	55948.17
520.48	56481.81
520.65	57450.79
520.83	58181.04
521.00	58239.55
521.17	57382.91
521.34	57483.56
521.52	58487.65
521.69	58272.32
521.86	58672.55
522.03	58649.14
522.20	56849.27
522.38	56329.67
522.55	56891.40
522.72	57612.29
522.89	57123.11
523.07	57689.52
523.24	57982.09
523.41	59166.40
523.58	59461.31
523.75	59529.19
523.92	59260.02
524.10	58731.06
524.27	58705.32
524.44	58464.24
524.61	58110.82
524.78	58560.20
524.96	58536.80
525.13	58525.10
525.30	59161.72
525.47	59241.30
525.64	58969.80
525.81	58295.72
525.98	56226.69
526.16	55302.18
526.33	55732.84
526.50	54761.51
526.67	54962.80
526.84	55330.26
527.01	56254.78
527.18	56875.02
527.36	58040.60
527.53	58539.14
527.70	58052.31
527.87	56807.14
528.04	57935.28
528.21	58396.37
528.38	59025.97
528.55	59889.63
528.72	59318.54
528.89	59203.85
529.07	58515.73
529.24	57762.08
529.41	57368.87
529.58	57401.64
529.75	58384.66
529.92	58564.88
530.09	58611.70
530.26	59018.95
530.43	59929.42
530.60	58761.49
530.77	59348.96
530.94	59650.89
531.11	58733.40
531.28	59065.76
531.46	59004.91
531.63	58906.60
531.80	58174.02
531.97	57593.56
532.14	57647.39
532.31	56266.48
532.48	55564.32
532.65	56044.13
532.82	56615.22
532.99	58202.10
533.16	58372.96
533.33	58391.68
533.50	58770.85
533.67	58827.02
533.84	57939.96
534.01	58115.50
534.18	58433.81
534.35	58152.95
534.52	57368.87
534.69	57836.98
534.86	58827.02
535.03	58880.86
535.20	58571.91
535.37	59732.81
535.54	59456.63
535.71	59576.00
535.88	59693.02
536.05	58349.56
536.22	57635.69
536.38	57464.83
536.55	56341.38
536.72	56554.36
536.89	57242.48
537.06	57282.27
537.23	58014.86
537.40	58155.29
537.57	57975.07
537.74	58059.33
537.91	58054.65
538.08	57836.98
538.25	57677.82
538.42	58834.05
538.59	57902.51
538.75	57036.51
538.92	56736.93
539.09	56818.84
539.26	56952.26
539.43	56926.51
539.60	57017.79
539.77	57645.05
539.94	57099.71
540.11	56385.85
540.28	56044.13
540.44	55613.47
540.61	55421.55
540.78	56456.06
540.95	57399.30
541.12	57043.54
541.29	57797.19
541.46	58241.89
541.62	58103.80
541.79	57059.92
541.96	56374.14
542.13	56530.96
542.30	56669.05
542.47	57301.00
542.63	56795.44
542.80	56949.92
542.97	56463.08
543.14	56355.42
543.31	56523.94
543.48	57509.30
543.64	57975.07
543.81	59236.62
543.98	58663.19
544.15	57092.69
544.32	57729.31
544.48	57169.93
544.65	57261.21
544.82	57776.12
544.99	56191.58
545.16	56018.38
545.32	56067.53
545.49	57277.59
545.66	57120.77
545.83	56945.23
546.00	57586.54
546.16	57476.54
546.33	57045.88
546.50	57467.17
546.67	57822.93
546.83	56757.99
547.00	57434.41
547.17	56233.71
547.34	55365.37
547.50	55749.22
547.67	56704.16
547.84	57303.34
548.00	57212.06
548.17	57078.64
548.34	57247.16
548.51	57333.76
548.67	58005.50
548.84	57813.57
549.01	57612.29
549.18	56989.70
549.34	57003.75
549.51	57275.25
549.68	57233.12
549.84	56736.93
550.01	56313.29
550.18	55959.87
550.34	56456.06
550.51	56797.78
550.68	57263.55
550.84	56910.13
551.01	56135.41
551.18	55889.65
551.34	55470.70
551.51	57036.51
551.68	56669.05
551.84	56566.07
552.01	56451.38
552.18	56271.16
552.34	55583.04
552.51	55664.96
552.68	55220.26
552.84	55718.79
553.01	55807.73
553.18	56924.17
553.34	56924.17
553.51	56718.20
553.67	56498.19
553.84	56182.22
554.01	56512.23
554.17	55990.30
554.34	56413.93
554.51	56486.49
554.67	55835.82
554.84	55512.83
555.00	55592.40
555.17	55934.12
555.33	55569.00
555.50	55093.87
555.67	56013.70
555.83	55913.06
556.00	55585.38
556.16	55238.98
556.33	54703.00
556.50	55545.59
556.66	55480.06
556.83	54979.18
556.99	54649.17
557.16	54990.89
557.32	54892.58
557.49	55238.98
557.65	54581.29
557.82	55447.29
557.98	55845.18
558.15	54550.87
558.32	53602.95
558.48	52896.11
558.65	53233.14
558.81	53865.09
558.98	54475.97
559.14	54944.08
559.31	54241.92
559.47	54286.39
559.64	53710.61
559.80	53319.74
559.97	54337.88
560.13	55157.06
560.30	56095.62
560.46	56456.06
560.63	56743.95
560.79	56566.07
560.96	55718.79
561.12	54185.74
561.29	53488.26
561.45	53888.49
561.61	55360.69
561.78	54536.82
561.94	55182.81
562.11	55178.13
562.27	54272.34
562.44	55021.31
562.60	55267.07
562.77	55224.94
562.93	54396.39
563.10	54597.68
563.26	54251.28
563.42	54967.48
563.59	54143.61
563.75	54244.26
563.92	54169.36
564.08	53354.85
564.24	54431.50
564.41	54014.88
564.57	54653.85
564.74	54232.55
564.90	53394.64
565.07	53867.43
565.23	52762.70
565.39	52285.23
565.56	53069.31
565.72	52971.00
565.88	51526.89
566.05	53535.07
566.21	54691.30
566.38	53652.10
566.54	53715.29
566.70	54176.38
566.87	54148.29
567.03	53352.51
567.19	54838.75
567.36	55175.79
567.52	53502.31
567.68	53361.87
567.85	52332.04
568.01	52402.25
568.17	52985.05
568.34	53551.46
568.50	53198.04
568.66	53174.63
568.83	52538.01
568.99	52140.11
569.15	52538.01
569.32	52910.15
569.48	52535.66
569.64	52250.12
569.81	52161.18
569.97	51529.23
570.13	51384.12
570.30	51124.32
570.46	50148.32
570.62	48865.70
570.78	50150.66
570.95	50880.91
571.11	50541.53
571.27	50330.88
571.43	50948.78
571.60	50387.05
571.76	52238.42
571.92	51842.87
572.09	52350.76
572.25	52645.67
572.41	53249.53
572.57	52910.15
572.74	53059.94
572.90	53972.75
573.06	52624.60
573.22	52999.09
573.38	52893.77
573.55	54401.07
573.71	52938.24
573.87	52884.40
574.03	52343.74
574.20	52296.93
574.36	52313.31
574.52	51419.23
574.68	51145.39
574.84	50581.32
575.01	50438.54
575.17	51402.85
575.33	51283.48
575.49	51634.56
575.65	50550.89
575.82	51143.05
575.98	50431.52
576.14	51653.28
576.30	52051.17
576.46	50555.57
576.62	51114.96
576.79	50815.37
576.95	51154.75
577.11	51344.33
577.27	50990.91
577.43	51524.55
577.59	50798.99
577.75	49254.23
577.92	49336.15
578.08	49738.72
578.24	50745.15
578.40	50391.73
578.56	49378.28
578.72	49588.93
578.88	49387.64
579.04	49890.86
579.21	49291.68
579.37	50267.69
579.53	50445.57
579.69	49806.60
579.85	49741.06
580.01	49846.39
580.17	49588.93
580.33	50492.38
580.49	50939.42
580.65	48357.81
580.82	49661.49
580.98	50693.66
581.14	50939.42
581.30	50227.90
581.46	50019.59
581.62	50316.84
581.78	51121.98
581.94	50883.25
582.10	51491.79
582.26	51220.28
582.42	51058.79
582.58	49460.20
582.74	49186.36
582.90	49710.64
583.06	49607.65
583.22	50574.30
583.38	50113.21
583.54	50873.88
583.70	51002.61
583.86	50408.12
584.02	50066.40
584.18	49851.07
584.34	48966.35
584.50	48865.70
584.66	48849.32
584.82	49338.49
584.98	49544.46
585.14	48701.87
585.30	48683.14
585.46	48273.55
585.62	49132.53
585.78	49614.68
585.94	48264.19
586.10	48287.59
586.26	47447.34
586.42	48662.08
586.58	47999.71
586.74	49237.85
586.90	49874.48
587.06	49020.18
587.22	49841.71
587.38	49546.80
587.54	48666.76
587.70	48645.69
587.86	49045.93
588.02	49251.89
588.18	48236.10
588.34	45092.76
588.49	43131.39
588.65	41923.68
588.81	40996.82
588.97	40002.10
589.13	40114.44
589.29	42127.30
589.45	42752.23
589.61	43590.14
589.77	46082.81
589.93	47653.31
590.08	46560.28
590.24	46892.63
590.40	46997.96
590.56	46562.62
590.72	46248.99
590.88	45024.89
591.04	46527.51
591.20	45478.95
591.35	45380.65
591.51	44968.71
591.67	44999.14
591.83	45228.51
591.99	46251.33
592.15	45897.91
592.31	46326.22
592.46	46831.78
592.62	47189.88
592.78	47547.98
592.94	44844.66
593.10	45621.72
593.26	47496.49
593.41	46293.46
593.57	45778.54
593.73	44945.31
593.89	45111.49
594.05	45743.43
594.20	44573.16
594.36	42635.20
594.52	43679.08
594.68	43496.52
594.84	44502.95
594.99	46607.09
595.15	45212.13
595.31	44666.78
595.47	45614.70
595.62	46373.03
595.78	45256.60
595.94	45607.68
596.10	45350.22
596.25	45867.48
596.41	45172.34
596.57	45652.15
596.73	44856.37
596.88	44722.96
597.04	45724.71
597.20	45780.88
597.36	44907.86
597.51	45825.35
597.67	43665.03
597.83	43594.82
597.99	43681.42
598.14	42775.63
598.30	43966.96
598.46	43597.16
598.61	44704.23
598.77	43583.12
598.93	43704.82
599.09	43611.20
599.24	44535.71
599.40	43948.24
599.56	43882.70
599.71	44912.54
599.87	45076.38
600.03	44018.46
600.18	43606.52
600.34	42532.22
600.50	44009.09
600.65	43941.22
600.81	44268.89
600.97	43185.22
601.12	43166.50
601.28	44224.42
601.44	42312.20
601.59	43828.87
601.75	43426.30
601.91	43107.99
602.06	42682.01
602.22	43157.14
602.37	43356.08
602.53	43683.76
602.69	44362.51
602.84	43299.91
603.00	43061.18
603.16	43852.28
603.31	44439.75
603.47	43849.94
603.62	45888.54
603.78	44973.39
603.94	43679.08
604.09	44664.44
604.25	43943.56
604.40	43601.84
604.56	42492.43
604.71	42356.67
604.87	41848.78
605.03	41855.80
605.18	41752.82
605.34	41029.59
605.49	41221.52
605.65	42071.13
605.80	42068.79
605.96	42628.18
606.12	41949.42
606.27	41853.46
606.43	39358.45
606.58	40615.32
606.74	40807.24
606.89	41439.18
607.05	41354.93
607.20	41869.84
607.36	41680.26
607.51	41872.18
607.67	41202.79
607.82	40002.10
607.98	41397.06
608.13	39728.25
608.29	40315.73
608.44	41202.79
608.60	41172.36
608.75	41404.08
608.91	42307.52
609.06	39819.53
609.22	39349.09
609.37	39693.15
609.53	41060.02
609.68	39601.86
609.84	38637.56
609.99	38794.38
610.15	39550.37
610.30	41022.57
610.46	41497.70
610.61	39819.53
610.76	39688.46
610.92	38328.61
611.07	39232.06
611.23	41219.17
611.38	43126.71
611.54	42410.51
611.69	40301.68
611.84	39061.20
612.00	38040.73
612.15	38328.61
612.31	37731.78
612.46	39192.27
612.62	38735.87
612.77	38026.68
612.92	39728.25
613.08	38768.63
613.23	39468.45
613.39	39166.52
613.54	38398.83
613.69	37280.05
613.85	39065.88
614.00	39056.52
614.15	38403.51
614.31	38345.00
614.46	37921.36
614.62	39049.50
614.77	38476.07
614.92	38230.31
615.08	38684.37
615.23	37577.30
615.38	38279.46
615.54	38529.90
615.69	37476.66
615.84	36341.50
616.00	38000.94
616.15	37724.75
616.30	37312.82
616.46	36638.75
616.61	37251.97
616.76	37862.85
616.92	38036.05
617.07	38220.95
617.22	37860.51
617.37	37832.42
617.53	38057.11
617.68	37469.64
617.83	37532.83
617.99	38080.52
618.14	38050.09
618.29	37605.39
618.45	37624.11
618.60	37390.06
618.75	37195.79
618.90	36802.58
619.06	37890.93
619.21	39328.02
619.36	37624.11
619.51	38604.80
619.67	38714.80
619.82	39503.56
619.97	39180.57
620.12	38328.61
620.28	37212.18
620.43	37490.70
620.58	37385.38
620.73	38265.42
620.89	37060.04
621.04	35847.64
621.19	34930.16
621.34	35739.98
621.49	35150.17
621.65	36191.70
621.80	36231.49
621.95	36257.24
622.10	36067.66
622.25	36299.37
622.41	34291.19
622.56	34572.05
622.71	34780.36
622.86	35498.91
623.01	34134.37
623.16	34087.56
623.32	34022.03
623.47	33804.36
623.62	33874.57
623.77	34536.94
623.92	34242.04
624.07	33848.83
624.23	33600.73
624.38	33799.68
624.53	33635.84
624.68	34775.68
624.83	33544.56
624.98	34139.05
625.13	33460.30
625.29	33319.87
625.44	34263.10
625.59	34106.29
625.74	34410.56
625.89	33607.75
626.04	33715.42
626.19	34440.98
626.34	34249.06
626.49	33453.28
626.65	33876.91
626.80	33457.96
626.95	33787.97
627.10	32245.56
627.25	32161.30
627.40	31828.95
627.55	30806.13
627.70	30527.61
627.85	31189.98
628.00	31311.69
628.15	32039.59
628.30	32243.22
628.45	32133.21
628.60	31417.01
628.76	31094.02
628.91	30682.08
629.06	30253.76
629.21	32704.31
629.36	33088.15
629.51	31147.85
629.66	29195.84
629.81	29890.98
629.96	30661.02
630.11	31044.87
630.26	31234.45
630.41	32837.72
630.56	33338.59
630.71	32847.08
630.86	31185.30
631.01	30087.59
631.16	30412.92
631.31	30071.20
631.46	30515.90
631.61	29825.45
631.76	30036.09
631.91	31089.34
632.06	30621.23
632.21	31365.52
632.36	32634.09
632.51	32472.59
632.66	31395.95
632.81	31433.39
632.96	32020.87
633.10	31960.02
633.25	30850.60
633.40	29216.91
633.55	29490.75
633.70	29914.39
633.85	29998.65
634.00	29804.38
634.15	30260.79
634.30	30092.27
634.45	30712.51
634.60	29720.12
634.75	29237.97
634.90	30164.82
635.05	30209.29
635.19	29874.60
635.34	30183.55
635.49	29137.33
635.64	29511.81
635.79	31096.36
635.94	31239.13
636.09	31491.91
636.24	30235.04
636.39	28919.66
636.53	30237.38
636.68	29591.39
636.83	28865.83
636.98	29706.08
637.13	29252.02
637.28	30127.38
637.43	31124.44
637.57	31274.24
637.72	30389.52
637.87	30022.05
638.02	30078.22
638.17	31330.41
638.32	31487.23
638.46	31419.35
638.61	29205.20
638.76	29427.56
638.91	29795.02
639.06	29839.49
639.20	28741.78
639.35	27861.74
639.50	28311.12
639.65	28961.79
639.80	28711.35
639.94	28643.48
640.09	29364.36
640.24	28369.63
640.39	28308.78
640.54	27379.59
640.68	28500.70
640.83	27639.39
640.98	28322.82
641.13	28093.45
641.27	28077.07
641.42	27358.52
641.57	27817.27
641.72	28584.96
641.86	28727.74
642.01	29015.62
642.16	28081.75
642.31	28123.88
642.45	28933.70
642.60	28416.44
642.75	27894.50
642.90	28376.66
643.04	28245.58
643.19	27374.91
643.34	27782.16
643.48	27438.10
643.63	27754.07
643.78	26305.28
643.93	26937.23
644.07	27016.80
644.22	27718.96
644.37	27513.00
644.51	27421.72
644.66	27606.62
644.81	27225.11
644.95	27901.53
645.10	28243.24
645.25	27159.58
645.39	27496.61
645.54	27229.79
645.69	26136.76
645.83	26314.64
645.98	25193.53
646.13	24556.90
646.27	24496.05
646.42	24587.33
646.57	24491.37
646.71	24877.55
646.86	24903.30
647.00	24720.74
647.15	24577.97
647.30	25359.70
647.44	25937.82
647.59	25158.42
647.74	24416.47
647.88	25032.03
648.03	24161.35
648.17	25748.23
648.32	26202.30
648.47	26895.10
648.61	26726.58
648.76	26410.60
648.90	25818.45
649.05	25322.26
649.20	23798.57
649.34	23386.63
649.49	23660.48
649.63	23922.62
649.78	24727.76
649.92	25167.78
650.07	24538.18
650.21	24467.96
650.36	25366.73
650.51	25291.83
650.65	24650.52
650.80	23901.55
650.94	24252.63
651.09	24533.50
651.23	23381.95
651.38	23349.18
651.52	24039.64
651.67	24013.90
651.81	24156.67
651.96	24592.01
652.10	26305.28
652.25	25671.00
652.39	25436.94
652.54	25448.64
652.68	24482.00
652.83	24451.58
652.97	23831.33
653.12	23426.42
653.26	24203.48
653.41	23786.86
653.55	24084.11
653.70	23367.91
653.84	23838.36
653.99	24025.60
654.13	23604.30
654.27	24283.06
654.42	23243.86
654.56	22885.76
654.71	23110.45
654.85	23297.69
655.00	24100.50
655.14	23115.13
655.29	22380.20
655.43	21357.39
655.57	20365.00
655.72	18302.99
655.86	17619.55
656.01	17394.86
656.15	18370.86
656.30	19246.23
656.44	19854.76
656.58	20081.80
656.73	21261.43
656.87	21788.05
657.01	22106.36
657.16	21518.89
657.30	21502.50
657.45	22497.23
657.59	21694.43
657.73	22284.24
657.88	21736.56
658.02	22050.19
658.16	22860.01
658.31	22537.02
658.45	22309.99
658.60	22326.37
658.74	22471.48
658.88	22754.69
659.03	22251.47
659.17	21921.46
659.31	21390.16
659.46	21675.70
659.60	22539.36
659.74	22689.15
659.89	22843.63
660.03	23007.47
660.17	22080.61
660.32	22265.52
660.46	21790.39
660.60	22508.93
660.74	22789.80
660.89	22431.69
661.03	20875.24
661.17	22043.17
661.32	22944.27
661.46	23161.94
661.60	22490.21
661.74	22040.82
661.89	22600.21
662.03	21895.71
662.17	22136.79
662.31	23065.98
662.46	22452.76
662.60	21811.45
662.74	21020.35
662.88	21069.50
663.03	22132.11
663.17	22001.04
663.31	20716.08
663.45	21369.09
663.60	21167.80
663.74	19800.93
663.88	20704.38
664.02	20634.16
664.17	19737.74
664.31	18972.38
664.45	19777.53
664.59	20070.09
664.73	21345.69
664.88	20236.27
665.02	19606.67
665.16	19679.22
665.30	20863.54
665.44	21862.94
665.59	22616.60
665.73	21797.41
665.87	21312.92
666.01	20659.91
666.15	19690.93
666.29	19173.67
666.44	19548.15
666.58	19204.10
666.72	20313.51
666.86	21546.97
667.00	21790.39
667.14	21830.18
667.28	20915.03
667.43	20840.13
667.57	19955.41
667.71	19854.76
667.85	19300.06
667.99	19066.00
668.13	18651.73
668.27	18415.34
668.41	18675.13
668.56	20039.67
668.70	20374.36
668.84	21125.68
668.98	21774.00
669.12	20585.01
669.26	19880.51
669.40	20081.80
669.54	20025.62
669.68	19323.46
669.82	18410.65
669.96	19005.15
670.10	20166.06
670.25	20540.54
670.39	20046.69
670.53	19679.22
670.67	19073.03
670.81	18705.56
670.95	18167.24
671.09	18527.68
671.23	18279.58
671.37	19033.24
671.51	18539.38
671.65	18635.35
671.79	18913.87
671.93	19396.02
672.07	18860.04
672.21	17961.27
672.35	18068.94
672.49	18293.63
672.63	18635.35
672.77	17858.29
672.91	17469.76
673.05	17444.01
673.19	17114.00
673.33	18157.88
673.47	19473.26
673.61	18831.95
673.75	18164.90
673.89	17378.48
674.03	17315.28
674.17	17039.10
674.31	17717.86
674.45	17245.07
674.59	17633.60
674.73	17802.11
674.87	17226.34
675.01	16987.61
675.15	16725.47
675.29	17415.93
675.43	16908.03
675.56	16306.51
675.70	16367.37
675.84	16358.00
675.98	16601.42
676.12	16292.47
676.26	16514.82
676.40	16018.63
676.54	15690.95
676.68	16145.02
676.82	16016.29
676.96	16287.79
677.10	16107.57
677.23	16992.29
677.37	17128.04
677.51	16477.37
677.65	15889.90
677.79	14970.07
677.93	15096.46
678.07	14848.36
678.21	15751.81
678.34	16060.76
678.48	16004.58
678.62	15316.47
678.76	15115.18
678.90	15510.73
679.04	15414.77
679.18	15185.40
679.31	14541.75
679.45	14984.11
679.59	14885.81
679.73	15569.24
679.87	16095.86
680.00	16343.96
680.14	15410.09
680.28	15503.71
680.42	14717.29
680.56	14623.67
680.70	15012.20
680.83	15147.95
680.97	14487.92
681.11	14836.66
681.25	14555.79
681.39	14906.87
681.52	14956.02
681.66	14635.37
681.80	14448.13
681.94	14237.48
682.07	14155.56
682.21	14321.74
682.35	14370.89
682.49	13867.67
682.62	14075.98
682.76	14410.68
682.90	13645.32
683.04	13366.80
683.17	13050.83
683.31	12798.05
683.45	13390.20
683.59	13628.94
683.72	13200.62
683.86	13011.04
684.00	12409.52
684.13	12470.37
684.27	12526.55
684.41	12882.31
684.55	13343.39
684.68	13584.47
684.82	12912.74
684.96	12772.30
685.09	12442.29
685.23	12154.40
685.37	12402.50
685.50	12294.83
685.64	12423.56
685.78	11714.38
685.91	11992.90
686.05	12067.80
686.19	12166.10
686.32	11105.84
686.46	9804.50
686.60	8601.47
686.73	8060.80
686.87	7349.28
687.01	7438.22
687.14	7889.95
687.28	8084.21
687.42	8355.71
687.55	9090.64
687.69	9331.72
687.82	10171.97
687.96	10038.56
688.10	10380.28
688.23	10375.59
688.37	10059.62
688.50	9455.76
688.64	9685.14
688.78	9305.97
688.91	9415.98
689.05	9334.06
689.18	9212.35
689.32	9678.12
689.46	9247.46
689.59	9289.59
689.73	9872.38
689.86	9233.41
690.00	9439.38
690.13	9434.70
690.27	9685.14
690.41	9556.41
690.54	9666.41
690.68	9991.75
690.81	10010.47
690.95	9619.60
691.08	9832.59
691.22	10017.49
691.35	9806.84
691.49	9966.00
691.62	9900.47
691.76	10422.41
691.89	9839.61
692.03	9146.81
692.16	8910.42
692.30	9423.00
692.43	9497.89
692.57	9355.12
692.70	9095.32
692.84	9116.39
692.97	9423.00
693.11	9528.32
693.24	9296.61
693.38	8713.81
693.51	9666.41
693.65	9549.39
693.78	9139.79
693.92	8879.99
694.05	8856.59
694.19	8795.73
694.32	8479.76
694.45	8669.34
694.59	8844.88
694.72	8528.91
694.86	8655.30
694.99	8840.20
695.13	8421.25
695.26	8341.67
695.39	8264.43
695.53	7915.69
695.66	7714.41
695.80	7950.80
695.93	8264.43
696.07	8580.40
696.20	8587.43
696.33	8636.58
696.47	8961.91
696.60	8662.32
696.73	8416.57
696.87	8252.73
697.00	8683.39
697.14	8699.77
697.27	8458.70
697.40	8177.83
697.54	7943.78
697.67	7915.69
697.80	8217.62
697.94	8126.34
698.07	7669.94
698.21	7194.81
698.34	7571.63
698.47	7775.26
698.61	7501.42
698.74	7634.83
698.87	7421.84
699.01	7342.26
699.14	7492.05
699.27	7503.76
699.40	7913.35
699.54	7786.96
699.67	7744.83
699.80	7770.58
699.94	7588.02
700.07	6991.18
700.20	6871.81
700.34	6864.79
700.47	6986.50
700.60	7094.16
700.73	6876.49
700.87	6754.79
701.00	6502.01
701.13	6504.35
701.26	6960.75
701.40	6743.08
701.53	6850.75
701.66	7126.93
701.79	6864.79
701.93	6853.09
702.06	6923.30
702.19	6736.06
702.32	6361.58
702.46	6429.45
702.59	6464.56
702.72	6647.12
702.85	6366.26
702.99	6487.96
703.12	6455.20
703.25	6455.20
703.38	6516.05
703.51	6272.64
703.65	6256.25
703.78	6216.46
703.91	6080.71
704.04	6469.24
704.17	6431.79
704.31	6499.67
704.44	6434.13
704.57	6647.12
704.70	6686.91
704.83	6736.06
704.96	6846.07
705.10	6415.41
705.23	6406.05
>>>>>End Processed Spectral Data<<<<<
