SpectraSuite Data File
++++++++++++++++++++++++++++++++++++
Date: Mon Oct 07 14:53:09 GMT-05:00 2013
User: price-jones
Dark Spectrum Present: No
Reference Spectrum Present: No
Number of Sampled Component Spectra: 1
Spectrometers: USB2+H05261
Integration Time (usec): 100000 (USB2+H05261)
Spectra Averaged: 1 (USB2+H05261)
Boxcar Smoothing: 0 (USB2+H05261)
Correct for Electrical Dark: No (USB2+H05261)
Strobe/Lamp Enabled: No (USB2+H05261)
Correct for Detector Non-linearity: No (USB2+H05261)
Correct for Stray Light: No (USB2+H05261)
Number of Pixels in Processed Spectrum: 2048
>>>>>Begin Processed Spectral Data<<<<<
365.73	0.00
365.92	0.00
366.12	0.00
366.32	0.00
366.52	0.00
366.72	0.00
366.91	0.00
367.11	0.00
367.31	0.00
367.51	0.00
367.70	0.00
367.90	0.00
368.10	0.00
368.30	0.00
368.49	0.00
368.69	0.00
368.89	0.00
369.09	0.00
369.28	0.00
369.48	0.00
369.68	0.00
369.87	0.00
370.07	0.00
370.27	0.00
370.47	683.44
370.66	3545.91
370.86	3950.82
371.06	4414.25
371.25	4447.02
371.45	3948.48
371.65	3618.47
371.84	3339.94
372.04	3705.07
372.24	3990.61
372.44	4124.02
372.63	4184.88
372.83	3728.47
373.03	3370.37
373.22	3084.83
373.42	3220.58
373.62	3829.12
373.81	4198.92
374.01	3925.08
374.21	3667.62
374.40	3449.95
374.60	3545.91
374.79	3990.61
374.99	4521.92
375.19	5095.35
375.38	5013.43
375.58	4676.39
375.78	4711.50
375.97	4713.84
376.17	4985.34
376.37	5039.17
376.56	4990.02
376.76	5327.06
376.95	5600.90
377.15	5888.79
377.35	6139.23
377.54	6457.54
377.74	6710.32
377.93	6782.87
378.13	6396.68
378.33	6228.17
378.52	5621.97
378.72	5521.32
378.91	5418.34
379.11	5146.84
379.31	4940.87
379.50	5118.75
379.70	5605.58
379.89	6012.84
380.09	6242.21
380.28	6637.76
380.48	6485.62
380.68	6399.02
380.87	6153.27
381.07	5823.25
381.26	5294.29
381.46	4929.17
381.65	4865.97
381.85	4730.22
382.04	4451.70
382.24	4280.84
382.43	4046.79
382.63	3850.18
382.83	3899.33
383.02	3904.01
383.22	3913.38
383.41	4093.60
383.61	4224.67
383.80	4943.21
384.00	5481.53
384.19	6127.52
384.39	6523.07
384.58	6555.84
384.78	6286.68
384.97	6260.93
385.17	5916.87
385.36	5633.67
385.56	5549.41
385.75	5526.00
385.95	6052.63
386.14	6651.80
386.34	6616.69
386.53	6394.34
386.72	6167.31
386.92	6183.70
387.11	6260.93
387.31	6586.27
387.50	6511.37
387.70	6319.45
387.89	6230.51
388.09	6408.39
388.28	6511.37
388.48	6420.09
388.67	7112.89
388.86	7548.23
389.06	8269.11
389.25	8423.59
389.45	8767.65
389.64	8512.53
389.84	8578.06
390.03	8414.23
390.22	8479.76
390.42	8638.92
390.61	9102.34
390.81	9963.66
391.00	10090.05
391.19	9774.08
391.39	9406.61
391.58	8987.66
391.78	8421.25
391.97	8334.65
392.16	7606.74
392.36	7042.67
392.55	5446.43
392.75	4561.70
392.94	3625.49
393.13	3779.97
393.33	4259.78
393.52	5528.35
393.71	6820.32
393.91	7478.01
394.10	8219.96
394.29	8933.82
394.49	9729.61
394.68	10455.17
394.88	10635.39
395.07	10927.96
395.26	10623.69
395.46	10300.70
395.65	9741.31
395.84	8442.31
396.04	7234.60
396.23	6008.16
396.42	4973.64
396.62	4786.40
396.81	5526.00
397.00	7096.50
397.19	8931.48
397.39	10487.94
397.58	11831.41
397.77	12662.30
397.97	13039.12
398.16	13165.51
398.35	13682.77
398.55	14406.00
398.74	14885.81
398.93	14946.66
399.12	14572.18
399.32	14118.11
399.51	14548.77
399.70	15585.63
399.90	15332.85
400.09	15279.02
400.28	15314.13
400.47	15330.51
400.67	16327.58
400.86	16587.38
401.05	16580.36
401.24	16367.37
401.44	16805.05
401.63	16828.45
401.82	16889.31
402.01	17125.70
402.21	17055.48
402.40	17104.64
402.59	16552.27
402.78	15768.19
402.97	15517.75
403.17	16248.00
403.36	16872.92
403.55	17575.08
403.74	17984.68
403.93	17177.19
404.13	15807.98
404.32	15559.88
404.51	16346.30
404.70	17523.59
404.89	17413.59
405.09	17167.83
405.28	16830.79
405.47	16840.15
405.66	16456.31
405.85	15990.54
406.05	15866.49
406.24	16130.97
406.43	16709.08
406.62	17476.78
406.81	17448.69
407.00	16505.46
407.20	16439.92
407.39	16662.27
407.58	17678.07
407.77	18183.62
407.96	18710.24
408.15	18876.42
408.34	19066.00
408.54	19943.70
408.73	19974.13
408.92	19578.58
409.11	19063.66
409.30	18087.66
409.49	16982.93
409.68	15955.43
409.87	15297.74
410.07	16482.05
410.26	17996.38
410.45	19136.22
410.64	19393.68
410.83	20067.75
411.02	20673.95
411.21	21268.45
411.40	20561.61
411.59	20922.05
411.78	20716.08
411.98	20622.46
412.17	21039.08
412.36	20563.95
412.55	20561.61
412.74	20156.69
412.93	19777.53
413.12	19857.10
413.31	22120.40
413.50	22211.68
413.69	22349.78
413.88	21734.21
414.07	20884.60
414.26	21165.46
414.45	21977.63
414.64	22230.41
414.83	21989.33
415.02	21694.43
415.22	21649.96
415.41	22375.52
415.60	22864.69
415.79	23728.35
415.98	24416.47
416.17	24631.80
416.36	23466.21
416.55	23381.95
416.74	22548.72
416.93	21977.63
417.12	21872.31
417.31	22223.39
417.50	22623.62
417.69	23480.25
417.88	23250.88
418.07	22808.52
418.26	22403.61
418.45	22899.80
418.64	23737.71
418.83	24613.07
419.02	24400.08
419.21	24053.69
419.39	22731.28
419.58	21902.73
419.77	22120.40
419.96	22525.32
420.15	24306.46
420.34	24947.77
420.53	25504.82
420.72	26253.79
420.91	25752.91
421.10	25621.84
421.29	25488.43
421.48	24559.24
421.67	25717.81
421.86	25355.02
422.05	23087.04
422.24	20821.41
422.43	20718.42
422.61	23262.58
422.80	25050.75
422.99	24603.71
423.18	24105.18
423.37	23412.38
423.56	23562.17
423.75	23880.49
423.94	24641.16
424.13	23136.20
424.32	23407.70
424.50	23403.02
424.69	23012.15
424.88	23208.75
425.07	23183.01
425.26	23051.94
425.45	23040.23
425.64	22368.50
425.83	22576.81
426.01	24210.50
426.20	24465.62
426.39	24224.54
426.58	22546.38
426.77	20680.97
426.96	20121.59
427.15	20973.54
427.33	22733.62
427.52	23681.54
427.71	23639.41
427.90	23140.88
428.09	23094.07
428.28	22434.03
428.46	21750.60
428.65	21539.95
428.84	21954.22
429.03	22415.31
429.22	21067.16
429.40	20079.46
429.59	18235.11
429.78	16145.02
429.97	16255.02
430.16	16720.79
430.34	16369.71
430.53	16439.92
430.72	16861.22
430.91	18672.79
431.10	22089.98
431.28	25649.93
431.47	27819.61
431.66	28074.73
431.85	25879.30
432.03	23351.52
432.22	22937.25
432.41	23566.85
432.60	26146.12
432.79	27381.93
432.97	27513.00
433.16	26764.03
433.35	24594.35
433.54	21937.84
433.72	20952.48
433.91	21553.99
434.10	24039.64
434.28	25560.99
434.47	27225.11
434.66	26726.58
434.85	26277.19
435.03	25675.68
435.22	26749.98
435.41	28025.57
435.59	28283.03
435.78	28910.30
435.97	29137.33
436.16	29530.54
436.34	29027.32
436.53	28027.92
436.72	28449.21
436.90	26859.99
437.09	27072.98
437.28	26111.02
437.46	27641.73
437.65	27072.98
437.84	25436.94
438.02	23412.38
438.21	23332.80
438.40	24790.95
438.58	26764.03
438.77	27566.83
438.96	27470.87
439.14	28788.59
439.33	29472.03
439.52	29668.63
439.70	29205.20
439.89	28699.65
440.08	27288.31
440.26	27943.66
440.45	28943.06
440.63	30466.75
440.82	32060.66
441.01	31910.86
441.19	31414.67
441.38	31861.71
441.57	33029.64
441.75	33523.49
441.94	33769.25
442.12	33399.44
442.31	33996.28
442.50	34153.10
442.68	33804.36
442.87	33097.52
443.05	32570.90
443.24	33472.00
443.43	33895.64
443.61	34415.24
443.80	35007.39
443.98	33048.36
444.17	33301.14
444.35	34883.34
444.54	35295.28
444.73	35283.58
444.91	33504.77
445.10	32294.71
445.28	31166.57
445.47	30515.90
445.65	30923.16
445.84	31374.88
446.02	32821.33
446.21	33015.60
446.39	33408.81
446.58	33476.68
446.77	34529.92
446.95	34403.53
447.14	35541.03
447.32	36357.88
447.51	35166.55
447.69	33755.21
447.88	33804.36
448.06	33909.68
448.25	35227.40
448.43	35185.27
448.62	34373.11
448.80	34319.28
448.99	34590.78
449.17	34930.16
449.36	35178.25
449.54	36306.39
449.73	36547.47
449.91	36992.17
450.10	37895.61
450.28	38162.43
450.46	38190.52
450.65	38036.05
450.83	37954.13
451.02	37046.00
451.20	37191.11
451.39	37053.02
451.57	37078.77
451.76	37069.40
451.94	36966.42
452.13	35922.54
452.31	34312.25
452.49	32886.87
452.68	33244.97
452.86	33273.06
453.05	33582.01
453.23	34948.88
453.42	35290.60
453.60	36414.05
453.78	36624.70
453.97	36304.05
454.15	36481.93
454.34	35384.22
454.52	36084.04
454.70	34944.20
454.89	35688.49
455.07	36350.86
455.26	35824.24
455.44	37518.79
455.62	38094.56
455.81	38349.68
455.99	37612.41
456.17	37212.18
456.36	37748.16
456.54	38728.84
456.73	39105.67
456.91	39421.64
457.09	39721.23
457.28	40250.19
457.46	38499.47
457.64	37762.20
457.83	37017.91
458.01	36526.40
458.19	37076.43
458.38	37670.92
458.56	38782.68
458.74	38675.01
458.93	37706.03
459.11	37839.44
459.29	37439.21
459.48	37916.68
459.66	37486.02
459.84	38057.11
460.03	38644.59
460.21	38323.93
460.39	39725.91
460.57	39100.99
460.76	40374.24
460.94	39674.42
461.12	39267.17
461.31	39784.43
461.49	39709.53
461.67	39372.49
461.85	40980.44
462.04	40577.87
462.22	41221.52
462.40	40418.71
462.59	40620.00
462.77	40435.10
462.95	40463.18
463.13	39828.90
463.32	39821.87
463.50	39318.66
463.68	39524.63
463.86	39367.81
464.05	39002.69
464.23	38733.53
464.41	38274.78
464.59	37448.57
464.78	39489.52
464.96	39718.89
465.14	38899.70
465.32	40177.64
465.50	40720.64
465.69	40842.35
465.87	39796.13
466.05	39267.17
466.23	37130.26
466.41	36467.89
466.60	37848.80
466.78	37787.95
466.96	38660.97
467.14	38930.13
467.32	39452.07
467.51	39634.63
467.69	38225.63
467.87	38747.57
468.05	39697.83
468.23	39512.92
468.41	39700.17
468.60	39627.61
468.78	39571.44
468.96	39093.97
469.14	39861.66
469.32	39920.18
469.50	38682.03
469.69	38618.84
469.87	38291.16
470.05	38263.08
470.23	38337.98
470.41	38642.24
470.59	39210.99
470.77	39056.52
470.95	40093.38
471.14	40109.76
471.32	40800.22
471.50	42576.69
471.68	42555.62
471.86	43042.45
472.04	43040.11
472.22	43199.27
472.40	41111.51
472.58	41165.34
472.77	40760.43
472.95	41373.65
473.13	42155.39
473.31	41287.05
473.49	41556.21
473.67	42256.03
473.85	42508.81
474.03	43508.22
474.21	43438.00
474.39	43770.36
474.57	44105.06
474.75	44201.02
474.93	43662.69
475.12	42433.91
475.30	43227.35
475.48	43412.26
475.66	43966.96
475.84	42822.44
476.02	43182.88
476.20	42490.09
476.38	43412.26
476.56	44624.65
476.74	45308.09
476.92	44509.97
477.10	45949.40
477.28	46976.89
477.46	46883.27
477.64	47388.83
477.82	47344.36
478.00	47096.26
478.18	46735.82
478.36	46923.06
478.54	46476.02
478.72	47274.14
478.90	47798.42
479.08	49116.14
479.26	49233.17
479.44	49312.75
479.62	49352.54
479.80	49198.06
479.98	49167.63
480.16	49757.45
480.34	49177.00
480.52	49602.97
480.70	49659.15
480.88	49874.48
481.06	50258.32
481.24	50590.68
481.41	51306.88
481.59	52126.07
481.77	51870.95
481.95	51339.65
482.13	50871.54
482.31	51224.96
482.49	51723.50
482.67	51657.96
482.85	52107.35
483.03	52425.66
483.21	52687.80
483.39	52690.14
483.57	52121.39
483.74	51737.54
483.92	52088.62
484.10	52158.84
484.28	53071.65
484.46	53387.62
484.64	53776.15
484.82	52924.19
485.00	52432.68
485.18	51716.48
485.35	50653.87
485.53	47950.56
485.71	43901.43
485.89	43749.29
486.07	45764.49
486.25	49287.00
486.43	51318.59
486.61	51985.64
486.78	51655.62
486.96	51861.59
487.14	53301.02
487.32	53879.13
487.50	54752.15
487.68	55297.50
487.85	55800.71
488.03	55742.20
488.21	55246.00
488.39	54752.15
488.57	54003.18
488.75	54068.72
488.92	55112.59
489.10	56697.14
489.28	57745.70
489.46	58447.86
489.64	58099.12
489.81	58419.77
489.99	58166.99
490.17	57893.15
490.35	58452.54
490.53	57832.30
490.70	57649.74
490.88	57619.31
491.06	58450.20
491.24	58471.26
491.41	57537.39
491.59	56074.55
491.77	55648.58
491.95	56432.66
492.13	57396.96
492.30	58447.86
492.48	59236.62
492.66	59597.06
492.84	59561.95
493.01	59267.05
493.19	58981.50
493.37	58625.74
493.54	58365.94
493.72	59171.08
493.90	59948.14
494.08	60568.38
494.25	60830.52
494.43	60832.86
494.61	61298.63
494.79	61207.35
494.96	61155.86
495.14	60626.90
495.32	59650.89
495.49	59063.42
495.67	60399.86
495.85	61296.29
496.02	61600.56
496.20	61579.49
496.38	61102.03
496.55	61029.47
496.73	61506.94
496.91	61485.87
497.09	62005.47
497.26	62337.83
497.44	61656.73
497.62	61286.93
497.79	60662.00
497.97	59634.51
498.14	59931.76
498.32	60774.35
498.50	61652.05
498.67	61893.13
498.85	61869.72
499.03	62152.93
499.20	62232.50
499.38	62274.63
499.56	62047.60
499.73	61738.65
499.91	61293.95
500.08	61001.38
500.26	60308.58
500.44	60671.37
500.61	61551.41
500.79	61207.35
500.97	60683.07
501.14	60636.26
501.32	60610.51
501.49	60654.98
501.67	60767.33
501.84	61160.54
502.02	61584.18
502.20	61822.91
502.37	61876.74
502.55	61813.55
502.72	62478.26
502.90	62908.92
503.07	62562.52
503.25	62089.73
503.43	61389.91
503.60	60746.26
503.78	60310.92
503.95	60781.37
504.13	62026.54
504.30	62688.91
504.48	62433.79
504.65	62159.95
504.83	62347.19
505.01	62864.45
505.18	63103.18
505.36	63760.87
505.53	63611.08
505.71	63803.00
505.88	63774.92
506.06	63220.21
506.23	63096.16
506.41	62663.16
506.58	62948.71
506.76	62876.15
506.93	62920.62
507.11	62567.20
507.28	62929.98
507.46	62368.26
507.63	61946.96
507.81	61659.07
507.98	61867.38
508.16	62539.11
508.33	62944.03
508.50	63472.99
508.68	63594.70
508.85	64191.53
509.03	64090.89
509.20	63742.15
509.38	63243.62
509.55	62496.98
509.73	62695.93
509.90	63049.35
510.08	63484.69
510.25	63290.43
510.42	63213.19
510.60	63182.76
510.77	63360.64
510.95	63952.80
511.12	63957.48
511.30	64280.47
511.47	64465.38
511.64	64299.20
511.82	63903.65
511.99	63339.58
512.17	63051.69
512.34	62681.89
512.51	62808.28
512.69	62958.07
512.86	63119.57
513.04	63384.05
513.21	63295.11
513.38	63161.70
513.56	62817.64
513.73	62195.06
513.90	62410.38
514.08	62305.06
514.25	62794.23
514.43	62801.25
514.60	62946.37
514.77	63023.61
514.95	63173.40
515.12	63131.27
515.29	63386.39
515.47	63718.74
515.64	63894.28
515.81	63641.51
515.99	63042.33
516.16	61764.40
516.33	59718.77
516.51	58710.00
516.68	57794.85
516.85	57675.48
517.03	58244.23
517.20	60364.76
517.37	62349.53
517.54	63388.73
517.72	62679.55
517.89	60554.34
518.06	58665.53
518.24	59065.76
518.41	60940.53
518.58	61932.92
518.75	62176.33
518.93	62389.32
519.10	62169.31
519.27	62504.01
519.45	62749.76
519.62	63491.71
519.79	63753.85
519.96	63592.36
520.14	63461.29
520.31	62417.41
520.48	62429.11
520.65	62754.44
520.83	63810.03
521.00	63948.12
521.17	63702.36
521.34	63145.31
521.52	63587.67
521.69	64177.49
521.86	64465.38
522.03	64175.15
522.20	63145.31
522.38	62234.84
522.55	62267.61
522.72	62630.40
522.89	62937.01
523.07	63070.42
523.24	63318.51
523.41	64130.68
523.58	64514.53
523.75	64741.56
523.92	64526.23
524.10	64603.47
524.27	64526.23
524.44	64385.80
524.61	64231.32
524.78	64095.57
524.96	64074.51
525.13	64154.08
525.30	64353.03
525.47	64727.52
525.64	64654.96
525.81	64011.31
525.98	62630.40
526.16	61394.59
526.33	60776.69
526.50	60615.19
526.67	60264.11
526.84	61095.00
527.01	61762.06
527.18	62454.86
527.36	63248.30
527.53	64168.13
527.70	64207.92
527.87	63721.08
528.04	63398.09
528.21	63966.84
528.38	64327.28
528.55	64856.24
528.72	64935.82
528.89	65242.43
529.07	64970.93
529.24	64322.60
529.41	63678.96
529.58	63173.40
529.75	63367.66
529.92	63795.98
530.09	64060.46
530.26	64706.45
530.43	64879.65
530.60	64750.92
530.77	64938.16
530.94	65111.36
531.11	64570.70
531.28	64470.06
531.46	64228.98
531.63	64381.12
531.80	64301.54
531.97	63772.58
532.14	63058.71
532.31	62148.24
532.48	61970.36
532.65	61904.83
532.82	62670.18
532.99	63582.99
533.16	63859.18
533.33	64289.84
533.50	64266.43
533.67	63526.82
533.84	63117.23
534.01	63639.17
534.18	63622.78
534.35	63735.13
534.52	63465.97
534.69	63992.59
534.86	64170.47
535.03	64498.14
535.20	64881.99
535.37	65169.88
535.54	65139.45
535.71	64900.71
535.88	64423.25
536.05	63840.45
536.22	63557.25
536.38	63295.11
536.55	62857.43
536.72	62398.68
536.89	62351.87
537.06	63309.15
537.23	63948.12
537.40	64273.45
537.57	64175.15
537.74	63966.84
537.91	63920.03
538.08	63913.01
538.25	63852.15
538.42	64025.35
538.59	63817.05
538.75	63444.90
538.92	63353.62
539.09	62887.85
539.26	62920.62
539.43	62621.03
539.60	62934.66
539.77	62904.24
539.94	62901.90
540.11	62169.31
540.28	61790.14
540.44	61846.32
540.61	61932.92
540.78	62358.89
540.95	62539.11
541.12	62838.70
541.29	63299.79
541.46	63442.56
541.62	63685.98
541.79	63297.45
541.96	62649.12
542.13	62897.22
542.30	62981.48
542.47	63079.78
542.63	62880.83
542.80	62878.49
542.97	63009.56
543.14	62855.09
543.31	62897.22
543.48	63414.47
543.64	64034.72
543.81	64364.73
543.98	64039.40
544.15	63407.45
544.32	62773.17
544.48	63302.13
544.65	63578.31
544.82	63730.45
544.99	63590.01
545.16	63463.63
545.32	63002.54
545.49	63746.83
545.66	63976.20
545.83	63458.94
546.00	63224.89
546.16	62885.51
546.33	63210.85
546.50	63222.55
546.67	63489.37
546.83	63018.92
547.00	63171.06
547.17	62623.37
547.34	62040.58
547.50	62148.24
547.67	62550.82
547.84	62450.17
548.00	62953.39
548.17	63414.47
548.34	63072.76
548.51	63182.76
548.67	63196.80
548.84	63182.76
549.01	63311.49
549.18	63072.76
549.34	62855.09
549.51	63065.73
549.68	63035.31
549.84	62817.64
550.01	62787.21
550.18	62550.82
550.34	62611.67
550.51	62911.26
550.68	62770.83
550.84	62412.73
551.01	62555.50
551.18	62583.58
551.34	62606.99
551.51	62915.94
551.68	63250.64
551.84	63362.98
552.01	63035.31
552.18	62768.49
552.34	62293.36
552.51	61991.43
552.68	61834.61
552.84	62309.74
553.01	62354.21
553.18	62492.30
553.34	62632.74
553.51	62707.63
553.67	62733.38
553.84	63039.99
554.01	62866.79
554.17	62618.69
554.34	62705.29
554.51	62850.41
554.67	63248.30
554.84	62981.48
555.00	62763.81
555.17	62475.92
555.33	62550.82
555.50	62424.43
555.67	62321.44
555.83	62291.02
556.00	62195.06
556.16	62148.24
556.33	61633.33
556.50	61638.01
556.66	61638.01
556.83	61490.55
556.99	61605.24
557.16	61806.53
557.32	61937.60
557.49	61942.28
557.65	62033.56
557.82	62066.33
557.98	61790.14
558.15	61396.93
558.32	60851.59
558.48	60179.85
558.65	60432.63
558.81	60853.93
558.98	60952.23
559.14	61137.13
559.31	61272.88
559.47	61186.28
559.64	60713.50
559.80	60605.83
559.97	60692.43
560.13	61015.43
560.30	61867.38
560.46	62288.68
560.63	62424.43
560.79	62262.93
560.96	62176.33
561.12	61160.54
561.29	60573.06
561.45	60631.58
561.61	61020.11
561.78	61233.10
561.94	61087.98
562.11	61010.74
562.27	61024.79
562.44	61338.42
562.60	61595.88
562.77	61780.78
562.93	61605.24
563.10	61546.73
563.26	61076.28
563.42	61020.11
563.59	61099.68
563.75	61052.87
563.92	60959.25
564.08	60790.73
564.24	61378.21
564.41	61111.39
564.57	60982.66
564.74	60926.49
564.90	60860.95
565.07	60570.72
565.23	60383.48
565.39	59997.29
565.56	59568.97
565.72	59454.29
565.88	60011.34
566.05	60060.49
566.21	60313.26
566.38	60161.13
566.54	60341.35
566.70	60910.10
566.87	61003.72
567.03	60718.18
567.19	61190.97
567.36	60783.71
567.52	60739.24
567.68	60418.59
567.85	59978.57
568.01	59746.86
568.17	59320.88
568.34	59351.30
568.50	59339.60
568.66	59470.67
568.83	59730.47
568.99	59774.94
569.15	60069.85
569.32	59976.23
569.48	59793.67
569.64	59760.90
569.81	59344.28
569.97	59461.31
570.13	59248.32
570.30	58796.60
570.46	58424.45
570.62	58202.10
570.78	58071.03
570.95	58387.00
571.11	58787.24
571.27	59047.04
571.43	59355.99
571.60	59456.63
571.76	59636.85
571.92	59732.81
572.09	60044.10
572.25	59898.99
572.41	59889.63
572.57	59681.32
572.74	59807.71
572.90	59510.46
573.06	59496.42
573.22	59512.80
573.38	59463.65
573.55	59250.66
573.71	59781.96
573.87	59634.51
574.03	59133.63
574.20	59290.45
574.36	59098.53
574.52	58976.82
574.68	58724.04
574.84	58309.77
575.01	58021.88
575.17	57982.09
575.33	58239.55
575.49	58625.74
575.65	58873.84
575.82	58298.06
575.98	58056.99
576.14	58447.86
576.30	58831.71
576.46	58693.61
576.62	58724.04
576.79	58677.23
576.95	58429.13
577.11	58440.84
577.27	58686.59
577.43	58452.54
577.59	58239.55
577.75	57935.28
577.92	57616.97
578.08	57130.14
578.24	57293.97
578.40	57616.97
578.56	57900.17
578.72	57712.93
578.88	57986.77
579.04	58192.74
579.21	58225.51
579.37	58272.32
579.53	58316.79
579.69	57986.77
579.85	58497.01
580.01	58204.44
580.17	57759.74
580.33	57506.96
580.49	57677.82
580.65	57930.60
580.82	58255.93
580.98	58113.16
581.14	57825.28
581.30	58059.33
581.46	57942.30
581.62	58461.90
581.78	58302.74
581.94	58391.68
582.10	58337.85
582.26	58485.31
582.42	58316.79
582.58	58375.30
582.74	58171.67
582.90	58452.54
583.06	58363.60
583.22	58253.59
583.38	58106.14
583.54	58061.67
583.70	57925.92
583.86	58162.31
584.02	58007.84
584.18	58148.27
584.34	57888.47
584.50	57900.17
584.66	57841.66
584.82	57408.66
584.98	57469.51
585.14	56987.36
585.30	56388.19
585.46	56446.70
585.62	56219.67
585.78	56652.67
585.94	56453.72
586.10	57209.71
586.26	56893.74
586.42	57125.46
586.58	57345.47
586.74	57162.90
586.90	57088.01
587.06	57146.52
587.22	57167.58
587.38	56811.82
587.54	56622.24
587.70	56498.19
587.86	56236.05
588.02	56104.98
588.18	56126.05
588.34	54993.23
588.49	53368.90
588.65	51627.54
588.81	51688.39
588.97	51767.97
589.13	51363.06
589.29	51363.06
589.45	52495.88
589.61	53460.18
589.77	54726.41
589.93	55152.38
590.08	55466.02
590.24	55559.64
590.40	55732.84
590.56	55887.31
590.72	55751.56
590.88	55229.62
591.04	55398.14
591.20	54789.60
591.35	54981.52
591.51	55269.41
591.67	54972.16
591.83	55084.51
591.99	55145.36
592.15	55592.40
592.31	55618.15
592.46	55381.76
592.62	54939.39
592.78	55035.36
592.94	55196.85
593.10	55000.25
593.26	55414.52
593.41	55180.47
593.57	55377.08
593.73	54827.05
593.89	54719.38
594.05	54745.13
594.20	53860.41
594.36	54054.67
594.52	53932.96
594.68	53834.66
594.84	54197.44
594.99	54398.73
595.15	54829.39
595.31	54466.61
595.47	54475.97
595.62	54749.81
595.78	54981.52
595.94	55133.66
596.10	55096.21
596.25	54745.13
596.41	54585.97
596.57	54471.29
596.73	54686.62
596.88	54880.88
597.04	54431.50
597.20	54365.96
597.36	53839.34
597.51	54270.00
597.67	54171.70
597.83	53949.35
597.99	54220.85
598.14	53680.19
598.30	53961.05
598.46	53829.98
598.61	53911.90
598.77	53757.42
598.93	54040.63
599.09	54265.32
599.24	54361.28
599.40	54019.56
599.56	54066.38
599.71	54134.25
599.87	54277.02
600.03	54031.27
600.18	53638.06
600.34	53181.65
600.50	53284.64
600.65	53375.92
600.81	53584.22
600.97	53509.33
601.12	53544.44
601.28	53286.98
601.44	53069.31
601.59	53092.71
601.75	52699.50
601.91	52521.62
602.06	52783.76
602.22	52800.15
602.37	53031.86
602.53	53059.94
602.69	53567.84
602.84	53455.50
603.00	53649.76
603.16	53979.78
603.31	53862.75
603.47	53932.96
603.62	53609.97
603.78	53680.19
603.94	53530.39
604.09	53579.54
604.25	53514.01
604.40	53368.90
604.56	53176.97
604.71	53680.19
604.87	53205.06
605.03	53106.76
605.18	53050.58
605.34	52783.76
605.49	53139.52
605.65	52999.09
605.80	53092.71
605.96	52577.79
606.12	52388.21
606.27	52477.15
606.43	52231.40
606.58	52622.26
606.74	52959.30
606.89	52786.10
607.05	52903.13
607.20	52783.76
607.36	52477.15
607.51	51927.13
607.67	52009.04
607.82	52149.48
607.98	51854.57
608.13	51524.55
608.29	51620.52
608.44	51398.16
608.60	51388.80
608.75	51409.87
608.91	51819.46
609.06	51711.80
609.22	51964.57
609.37	51463.70
609.53	51796.06
609.68	51119.64
609.84	50485.36
609.99	50141.30
610.15	50480.67
610.30	50656.21
610.46	51070.49
610.61	51154.75
610.76	51580.73
610.92	51751.59
611.07	51721.16
611.23	51683.71
611.38	51824.14
611.54	51578.39
611.69	50923.04
611.84	50255.98
612.00	50082.78
612.15	50148.32
612.31	50344.92
612.46	49958.73
612.62	50637.49
612.77	50391.73
612.92	50600.04
613.08	49970.44
613.23	48989.75
613.39	48226.74
613.54	48376.53
613.69	48477.18
613.85	48680.80
614.00	49453.18
614.15	49560.84
614.31	49708.30
614.46	49668.51
614.62	49743.41
614.77	49439.14
614.92	49675.53
615.08	49640.42
615.23	49144.23
615.38	48938.26
615.54	48343.77
615.69	47470.75
615.84	46450.27
616.00	46691.35
616.15	46841.14
616.30	47278.82
616.46	46836.46
616.61	47147.75
616.76	47786.72
616.92	47997.37
617.07	48102.69
617.22	48053.54
617.37	48425.68
617.53	48769.74
617.68	48732.29
617.83	48952.30
617.99	48502.92
618.14	48910.17
618.29	48638.67
618.45	48329.72
618.60	47309.25
618.75	47491.81
618.90	47236.69
619.06	47482.45
619.21	48079.28
619.36	48332.06
619.51	48140.14
619.67	47566.71
619.82	48374.19
619.97	48306.32
620.12	47653.31
620.28	47976.30
620.43	47948.21
620.58	48507.60
620.73	47592.45
620.89	47262.44
621.04	47351.38
621.19	46817.74
621.34	46157.70
621.49	46351.97
621.65	46597.73
621.80	46522.83
621.95	46681.98
622.10	46766.24
622.25	46843.48
622.41	46167.07
622.56	45991.53
622.71	45696.62
622.86	44898.50
623.01	45631.08
623.16	45464.91
623.32	45441.50
623.47	45954.08
623.62	45425.12
623.77	45319.79
623.92	44884.45
624.07	44215.06
624.23	44147.18
624.38	44254.85
624.53	44601.25
624.68	44154.21
624.83	43995.05
624.98	43983.35
625.13	43920.15
625.29	44079.31
625.44	43562.05
625.59	43765.68
625.74	44339.11
625.89	43613.54
626.04	44048.88
626.19	44224.42
626.34	43866.32
626.49	43753.97
626.65	43562.05
626.80	43973.98
626.95	43665.03
627.10	43264.80
627.25	42923.08
627.40	41425.14
627.55	41134.92
627.70	40809.58
627.85	40788.52
628.00	41476.63
628.15	42071.13
628.30	42347.31
628.45	42569.66
628.60	42265.39
628.76	42052.41
628.91	42045.38
629.06	41734.09
629.21	42153.05
629.36	41792.61
629.51	41193.43
629.66	41174.70
629.81	40732.34
629.96	40795.54
630.11	41174.70
630.26	41661.54
630.41	41797.29
630.56	41514.08
630.71	41502.38
630.86	41645.15
631.01	41301.09
631.16	40528.72
631.31	40055.93
631.46	39768.04
631.61	40067.63
631.76	40725.32
631.91	40978.10
632.06	41001.50
632.21	41720.05
632.36	41851.12
632.51	41188.75
632.66	41708.35
632.81	41125.55
632.96	40809.58
633.10	40823.62
633.25	40315.73
633.40	40119.12
633.55	40713.62
633.70	40793.20
633.85	40315.73
634.00	40329.77
634.15	40402.33
634.30	40409.35
634.45	40289.98
634.60	40783.83
634.75	41036.61
634.90	40488.93
635.05	40638.72
635.19	40367.22
635.34	39807.83
635.49	39938.90
635.64	40381.26
635.79	39503.56
635.94	39131.42
636.09	39697.83
636.24	39702.51
636.39	39557.39
636.53	39784.43
636.68	39583.14
636.83	40170.61
636.98	40051.25
637.13	40425.73
637.28	40383.60
637.43	40744.05
637.57	40130.83
637.72	39665.06
637.87	39470.79
638.02	39849.96
638.17	39704.85
638.32	39903.79
638.46	39564.42
638.61	39793.79
638.76	39398.24
638.91	38808.42
639.06	38513.52
639.20	38927.79
639.35	38569.69
639.50	38059.45
639.65	37993.92
639.80	38424.57
639.94	38064.13
640.09	37998.60
640.24	38272.44
640.39	37546.87
640.54	37762.20
640.68	37303.46
640.83	37404.10
640.98	37343.25
641.13	36961.74
641.27	37834.76
641.42	37376.01
641.57	37097.49
641.72	37258.99
641.86	37247.29
642.01	36994.51
642.16	37493.04
642.31	37663.90
642.45	38319.25
642.60	37251.97
642.75	37329.20
642.90	37113.87
643.04	36950.04
643.19	37111.53
643.34	37006.21
643.48	36570.87
643.63	36570.87
643.78	37181.75
643.93	37092.81
644.07	37261.33
644.22	37450.91
644.37	37076.43
644.51	37326.86
644.66	36833.01
644.81	36252.56
644.95	36435.12
645.10	36505.34
645.25	36219.79
645.39	35604.23
645.54	35459.12
645.69	35571.46
645.83	34808.45
645.98	34398.85
646.13	34862.28
646.27	35295.28
646.42	34684.40
646.57	34696.10
646.71	34653.97
646.86	34384.81
647.00	34700.78
647.15	34117.99
647.30	34071.18
647.44	34047.77
647.59	34061.82
647.74	33745.84
647.88	33572.64
648.03	33567.96
648.17	33897.98
648.32	34333.32
648.47	34459.71
648.61	34141.39
648.76	33825.42
648.90	32996.87
649.05	32456.21
649.20	31716.60
649.34	31871.07
649.49	31805.54
649.63	32135.56
649.78	33017.94
649.92	33378.38
650.07	34529.92
650.21	34117.99
650.36	34410.56
650.51	33977.56
650.65	34335.66
650.80	34366.09
650.94	33809.04
651.09	33464.98
651.23	32411.74
651.38	32381.31
651.52	32198.75
651.67	32636.43
651.81	33160.71
651.96	33280.08
652.10	33153.69
652.25	33251.99
652.39	33462.64
652.54	33493.07
652.68	33207.52
652.83	33408.81
652.97	33141.99
653.12	32947.72
653.26	33556.26
653.41	33099.86
653.55	33242.63
653.70	33490.73
653.84	32879.85
653.99	32884.53
654.13	32205.77
654.27	31693.19
654.42	31311.69
654.56	31391.26
654.71	31501.27
654.85	31852.35
655.00	31117.42
655.14	30717.19
655.29	29954.18
655.43	29556.28
655.57	28570.92
655.72	26595.51
655.86	24554.56
656.01	23697.92
656.15	23594.94
656.30	25380.77
656.44	26352.09
656.58	27786.84
656.73	28657.52
656.87	29340.96
657.01	29472.03
657.16	30040.78
657.30	30412.92
657.45	31026.14
657.59	30897.41
657.73	30920.82
657.88	30794.43
658.02	30972.31
658.16	30944.22
658.31	30813.15
658.45	30471.43
658.60	30719.53
658.74	30761.66
658.88	30417.60
659.03	29387.77
659.17	29832.47
659.31	29785.66
659.46	30171.85
659.60	30410.58
659.74	30263.13
659.89	30316.96
660.03	31079.97
660.17	30480.80
660.32	30492.50
660.46	30431.65
660.60	30118.01
660.74	30340.36
660.89	30235.04
661.03	30110.99
661.17	30092.27
661.32	30024.39
661.46	29717.78
661.60	30043.12
661.74	30110.99
661.89	30396.54
662.03	29993.97
662.17	29668.63
662.31	29605.44
662.46	30127.38
662.60	29802.04
662.74	29825.45
662.88	29511.81
663.03	28821.36
663.17	28847.10
663.31	29032.00
663.45	28959.45
663.60	29048.39
663.74	28957.11
663.88	28617.73
664.02	28540.49
664.17	29039.03
664.31	28458.57
664.45	28643.48
664.59	28636.45
664.73	28828.38
664.88	28849.44
665.02	28376.66
665.16	28493.68
665.30	28491.34
665.44	28325.16
665.59	28189.41
665.73	27953.02
665.87	27686.20
666.01	27569.17
666.15	27171.28
666.29	27534.06
666.44	27639.39
666.58	27819.61
666.72	27398.31
666.86	27730.67
667.00	27634.71
667.14	27821.95
667.28	27295.33
667.43	27548.11
667.57	27119.79
667.71	27103.40
667.85	27089.36
667.99	27215.75
668.13	26977.01
668.27	27084.68
668.41	27379.59
668.56	27026.17
668.70	26902.12
668.84	27042.55
668.98	26735.94
669.12	26679.77
669.26	26644.66
669.40	26349.75
669.54	26574.44
669.68	26466.78
669.82	26574.44
669.96	26551.04
670.10	26115.70
670.25	25956.54
670.39	25708.44
670.53	25790.36
670.67	25626.53
670.81	25750.57
670.95	25656.95
671.09	24835.42
671.23	25301.19
671.37	24954.79
671.51	24922.02
671.65	25188.85
671.79	25048.41
671.93	25104.59
672.07	25736.53
672.21	25355.02
672.35	25055.43
672.49	24683.29
672.63	24823.72
672.77	24697.33
672.91	24355.61
673.05	24800.32
673.19	24978.20
673.33	24421.15
673.47	24577.97
673.61	24573.28
673.75	24222.20
673.89	24650.52
674.03	24627.12
674.17	24456.26
674.31	24156.67
674.45	23557.49
674.59	23342.16
674.73	23683.88
674.87	23847.72
675.01	23566.85
675.15	23843.04
675.29	23679.20
675.43	23747.08
675.56	23428.76
675.70	23503.66
675.84	23248.54
675.98	22773.41
676.12	23391.31
676.26	23473.23
676.40	23274.29
676.54	23005.13
676.68	22738.30
676.82	22410.63
676.96	22518.29
677.10	22478.50
677.23	22534.68
677.37	22401.27
677.51	22553.40
677.65	22415.31
677.79	21935.50
677.93	22164.87
678.07	22111.04
678.21	22033.80
678.34	21874.65
678.48	21514.20
678.62	21460.37
678.76	21598.46
678.90	21734.21
679.04	21570.38
679.18	21259.09
679.31	21280.15
679.45	20884.60
679.59	20968.86
679.73	20905.66
679.87	20879.92
680.00	20917.37
680.14	20809.70
680.28	20606.08
680.42	20533.52
680.56	20212.87
680.70	20397.77
680.83	20152.01
680.97	19990.52
681.11	20266.70
681.25	20067.75
681.39	19906.26
681.52	19932.00
681.66	20006.90
681.80	19819.66
681.94	20006.90
682.07	20107.54
682.21	19814.98
682.35	19555.18
682.49	19473.26
682.62	19410.06
682.76	19115.16
682.90	19147.92
683.04	19335.17
683.17	19161.97
683.31	19201.76
683.45	18789.82
683.59	18661.09
683.72	18424.70
683.86	17972.97
684.00	18106.38
684.13	18167.24
684.27	18101.70
684.41	17919.14
684.55	17965.95
684.68	18136.81
684.82	18017.44
684.96	18024.47
685.09	17701.47
685.23	17549.34
685.37	17256.77
685.50	17364.43
685.64	17334.01
685.78	17071.87
685.91	17219.32
686.05	17170.17
686.19	16783.98
686.32	15819.68
686.46	13977.68
686.60	12334.62
686.73	11225.21
686.87	10874.13
687.01	10731.36
687.14	10686.89
687.28	11440.54
687.42	11592.67
687.55	12294.83
687.69	13137.43
687.82	13839.59
687.96	14270.25
688.10	14162.58
688.23	13825.54
688.37	13509.57
688.50	13383.18
688.64	13249.77
688.78	12835.50
688.91	13277.86
689.05	12968.91
689.18	12863.58
689.32	12706.77
689.46	12877.63
689.59	13259.13
689.73	13247.43
689.86	13212.32
690.00	13153.81
690.13	13383.18
690.27	13312.97
690.41	13469.78
690.54	13434.68
690.68	13252.11
690.81	13462.76
690.95	13355.10
691.08	13465.10
691.22	13425.31
691.35	13322.33
691.49	13394.89
691.62	13427.65
691.76	13422.97
691.89	13319.99
692.03	13303.60
692.16	13158.49
692.30	13132.75
692.43	12837.84
692.57	12961.89
692.70	12901.03
692.84	12592.08
692.97	12725.49
693.11	12589.74
693.24	12566.34
693.38	12465.69
693.51	12547.61
693.65	12304.20
693.78	12011.63
693.92	11948.43
694.05	12114.61
694.19	12011.63
694.32	11955.46
694.45	11932.05
694.59	11934.39
694.72	11716.72
694.86	11878.22
694.99	11981.20
695.13	11882.90
695.26	11712.04
695.39	11590.33
695.53	11737.79
695.66	11360.96
695.80	11412.45
695.93	11761.19
696.07	11576.29
696.20	11953.12
696.33	11754.17
696.47	11885.24
696.60	11927.37
696.73	11913.33
696.87	11953.12
697.00	11995.25
697.14	11819.71
697.27	11817.36
697.40	11648.85
697.54	11187.76
697.67	11026.26
697.80	11033.29
697.94	11066.05
698.07	10787.53
698.21	10813.28
698.34	10895.19
698.47	10499.64
698.61	10520.71
698.74	10516.03
698.87	10581.56
699.01	10186.01
699.14	10469.22
699.27	10319.42
699.40	10581.56
699.54	10399.00
699.67	10410.70
699.80	10193.03
699.94	10115.80
700.07	9912.17
700.20	9921.53
700.34	9673.43
700.47	9776.42
700.60	9521.30
700.73	9577.47
700.87	9731.95
701.00	9652.37
701.13	9350.44
701.26	9324.69
701.40	9448.74
701.53	9289.59
701.66	9303.63
701.79	9362.14
701.93	9385.55
702.06	9235.75
702.19	9200.65
702.32	9308.31
702.46	9048.51
702.59	9195.96
702.72	9214.69
702.85	8917.44
702.99	9118.73
703.12	9202.99
703.25	9083.62
703.38	9153.84
703.51	8833.18
703.65	8814.46
703.78	8947.87
703.91	8896.38
704.04	8772.33
704.17	8821.48
704.31	8652.96
704.44	8828.50
704.57	8835.52
704.70	8664.66
704.83	8683.39
704.96	8617.85
705.10	8568.70
705.23	8374.44
>>>>>End Processed Spectral Data<<<<<
