SpectraSuite Data File
++++++++++++++++++++++++++++++++++++
Date: Mon Oct 07 14:53:51 GMT-05:00 2013
User: price-jones
Dark Spectrum Present: No
Reference Spectrum Present: No
Number of Sampled Component Spectra: 1
Spectrometers: USB2+H05261
Integration Time (usec): 100000 (USB2+H05261)
Spectra Averaged: 1 (USB2+H05261)
Boxcar Smoothing: 0 (USB2+H05261)
Correct for Electrical Dark: No (USB2+H05261)
Strobe/Lamp Enabled: No (USB2+H05261)
Correct for Detector Non-linearity: No (USB2+H05261)
Correct for Stray Light: No (USB2+H05261)
Number of Pixels in Processed Spectrum: 2048
>>>>>Begin Processed Spectral Data<<<<<
365.73	0.00
365.92	0.00
366.12	0.00
366.32	0.00
366.52	0.00
366.72	0.00
366.91	0.00
367.11	0.00
367.31	0.00
367.51	0.00
367.70	0.00
367.90	0.00
368.10	0.00
368.30	0.00
368.49	0.00
368.69	0.00
368.89	0.00
369.09	0.00
369.28	0.00
369.48	0.00
369.68	0.00
369.87	0.00
370.07	0.00
370.27	0.00
370.47	587.47
370.66	2911.63
370.86	3475.70
371.06	3885.29
371.25	3911.04
371.45	3562.30
371.65	3159.72
371.84	2855.45
372.04	3091.85
372.24	3452.29
372.44	3604.42
372.63	3520.17
372.83	3335.26
373.03	2867.16
373.22	2661.19
373.42	2906.95
373.62	3241.64
373.81	3433.57
374.01	3604.42
374.21	3194.83
374.40	3028.65
374.60	3089.51
374.79	3630.17
374.99	4053.81
375.19	4320.63
375.38	4442.34
375.58	4219.99
375.78	3946.14
375.97	4070.19
376.17	4234.03
376.37	4245.73
376.56	4346.37
376.76	4606.17
376.95	4875.34
377.15	5324.72
377.35	5607.92
377.54	5750.70
377.74	5867.72
377.93	5827.93
378.13	5636.01
378.33	5441.75
378.52	5006.41
378.72	4746.61
378.91	4865.97
379.11	4748.95
379.31	4416.59
379.50	4484.47
379.70	4770.01
379.89	5490.90
380.09	5673.46
380.28	5891.13
380.48	5776.44
380.68	5650.05
380.87	5476.85
381.07	5146.84
381.26	4830.87
381.46	4400.21
381.65	4154.45
381.85	4203.60
382.04	3950.82
382.24	3812.73
382.43	3625.49
382.63	3487.40
382.83	3574.00
383.02	3548.25
383.22	3515.48
383.41	3733.15
383.61	3920.40
383.80	4315.95
384.00	4856.61
384.19	5467.49
384.39	5764.74
384.58	5764.74
384.78	5589.20
384.97	5778.78
385.17	5401.96
385.36	5144.50
385.56	4959.60
385.75	4924.49
385.95	5441.75
386.14	5982.41
386.34	5977.73
386.53	5584.52
386.72	5256.84
386.92	5233.44
387.11	5488.56
387.31	6045.60
387.50	5851.34
387.70	5652.39
387.89	5668.78
388.09	5638.35
388.28	5666.44
388.48	5753.04
388.67	6092.41
388.86	6698.61
389.06	7101.19
389.25	7606.74
389.45	7669.94
389.64	7492.05
389.84	7765.90
390.03	7592.70
390.22	7489.71
390.42	7693.34
390.61	8224.64
390.81	8847.22
391.00	8887.01
391.19	8954.89
391.39	8695.09
391.58	8095.91
391.78	7648.87
391.97	7496.74
392.16	6871.81
392.36	6305.40
392.55	4987.68
392.75	4079.55
392.94	3276.75
393.13	3218.24
393.33	3712.09
393.52	4784.06
393.71	6059.65
393.91	6752.45
394.10	7293.11
394.29	8100.59
394.49	8575.72
394.68	9448.74
394.88	9362.14
395.07	9645.35
395.26	9415.98
395.46	9338.74
395.65	8877.65
395.84	7740.15
396.04	6537.12
396.23	5289.61
396.42	4470.42
396.62	4182.54
396.81	4919.81
397.00	6136.88
397.19	8018.68
397.39	9509.60
397.58	10366.23
397.77	11262.66
397.97	11552.88
398.16	12030.35
398.35	12194.19
398.55	12491.44
398.74	13231.05
398.93	13418.29
399.12	13289.56
399.32	12547.61
399.51	12985.29
399.70	13668.73
399.90	13652.34
400.09	13710.86
400.28	13624.26
400.47	13455.74
400.67	14204.71
400.86	14834.32
401.05	14525.36
401.24	14728.99
401.44	15005.17
401.63	14815.59
401.82	15056.67
402.01	15096.46
402.21	15569.24
402.40	15161.99
402.59	14792.19
402.78	14347.48
402.97	13912.14
403.17	14204.71
403.36	15339.87
403.55	15709.68
403.74	16081.82
403.93	15396.04
404.13	14122.79
404.32	13867.67
404.51	14286.63
404.70	15548.18
404.89	15777.55
405.09	15566.90
405.28	14740.69
405.47	14876.44
405.66	14611.96
405.85	14413.02
406.05	14143.86
406.24	14253.86
406.43	14841.34
406.62	15529.45
406.81	15435.83
407.00	15016.88
407.20	14656.43
407.39	14754.74
407.58	15480.30
407.77	16051.39
407.96	16397.79
408.15	16423.54
408.34	16613.12
408.54	17661.68
408.73	17425.29
408.92	17572.74
409.11	16812.07
409.30	15943.73
409.49	15445.20
409.68	14209.39
409.87	13404.25
410.07	14235.14
410.26	15733.08
410.45	16650.57
410.64	16959.52
410.83	17451.03
411.02	18345.12
411.21	18642.37
411.40	18593.22
411.59	18574.49
411.78	18417.68
411.98	18160.22
412.17	18649.39
412.36	18120.43
412.55	18218.73
412.74	17823.18
412.93	17277.83
413.12	17589.13
413.31	19077.71
413.50	19447.51
413.69	19903.92
413.88	19040.26
414.07	18171.92
414.26	18869.40
414.45	19290.70
414.64	19269.63
414.83	19548.15
415.02	19222.82
415.22	19087.07
415.41	19157.28
415.60	20280.74
415.79	20781.62
415.98	21259.09
416.17	21282.49
416.36	20840.13
416.55	20554.58
416.74	19772.85
416.93	19253.25
417.12	19379.64
417.31	19772.85
417.50	19756.46
417.69	20713.74
417.88	20786.30
418.07	20491.39
418.26	19669.86
418.45	20067.75
418.64	20989.92
418.83	21783.37
419.02	20987.58
419.21	21050.78
419.39	20170.74
419.58	19157.28
419.77	19421.77
419.96	20175.42
420.15	21064.82
420.34	21898.05
420.53	22860.01
420.72	23239.18
420.91	22773.41
421.10	22448.08
421.29	22197.64
421.48	21692.08
421.67	22745.33
421.86	22120.40
422.05	20587.35
422.24	18551.09
422.43	18094.68
422.61	20042.01
422.80	21832.52
422.99	21951.88
423.18	20992.26
423.37	20730.12
423.56	20645.87
423.75	21324.62
423.94	21301.22
424.13	20446.92
424.32	20489.05
424.50	20477.35
424.69	20357.98
424.88	20224.57
425.07	20285.42
425.26	20402.45
425.45	20002.22
425.64	19405.38
425.83	19686.25
426.01	20758.21
426.20	21413.56
426.39	21401.86
426.58	19749.44
426.77	18146.17
426.96	17654.66
427.15	18249.16
427.33	19681.56
427.52	20673.95
427.71	20390.75
427.90	20327.55
428.09	20381.38
428.28	19625.39
428.46	19023.87
428.65	18813.23
428.84	19342.19
429.03	19660.50
429.22	18792.16
429.40	17902.76
429.59	15864.15
429.78	13991.72
429.97	14118.11
430.16	14312.38
430.34	14544.09
430.53	14532.39
430.72	14850.70
430.91	16095.86
431.10	19066.00
431.28	22530.00
431.47	24332.21
431.66	24563.92
431.85	22518.29
432.03	20856.51
432.22	19215.80
432.41	20556.93
432.60	22766.39
432.79	23639.41
432.97	24011.56
433.16	23639.41
433.35	21792.73
433.54	19447.51
433.72	18398.95
433.91	18864.72
434.10	20905.66
434.28	22424.67
434.47	23800.91
434.66	23016.83
434.85	22595.53
435.03	22544.04
435.22	22934.91
435.41	24629.46
435.59	24652.86
435.78	24884.58
435.97	25692.06
436.16	25862.92
436.34	25472.05
436.53	24926.71
436.72	24903.30
436.90	23407.70
437.09	23344.50
437.28	22712.56
437.46	23896.87
437.65	23536.43
437.84	22387.22
438.02	20292.44
438.21	20095.84
438.40	21226.32
438.58	23185.35
438.77	23777.50
438.96	24070.07
439.14	25266.08
439.33	25675.68
439.52	25916.75
439.70	25322.26
439.89	24957.13
440.08	24180.07
440.26	24112.20
440.45	24753.51
440.63	26555.72
440.82	27976.42
441.01	27447.46
441.19	27594.92
441.38	27587.89
441.57	28903.28
441.75	28968.81
441.94	29256.70
442.12	29401.81
442.31	29977.58
442.50	29427.56
442.68	29074.13
442.87	28755.82
443.05	28339.21
443.24	28332.18
443.43	29259.04
443.61	30185.89
443.80	30581.44
443.98	29123.29
444.17	28491.34
444.35	30174.19
444.54	31049.55
444.73	30415.26
444.91	29076.48
445.10	28210.48
445.28	26902.12
445.47	26380.18
445.65	26803.82
445.84	27227.45
446.02	28496.02
446.21	28823.70
446.39	29024.98
446.58	29020.30
446.77	29645.23
446.95	29816.08
447.14	30621.23
447.32	31112.74
447.51	30536.97
447.69	29619.48
447.88	29209.89
448.06	29560.97
448.25	30199.93
448.43	30504.20
448.62	29596.07
448.80	29727.14
448.99	29806.72
449.17	30150.78
449.36	29975.24
449.54	31271.90
449.73	31505.95
449.91	32217.47
450.10	32914.95
450.28	33289.44
450.46	33172.41
450.65	33015.60
450.83	32758.14
451.02	32320.46
451.20	31749.37
451.39	32133.21
451.57	31765.75
451.76	31887.46
451.94	31658.09
452.13	31019.12
452.31	29621.82
452.49	28259.63
452.68	28465.60
452.86	28545.17
453.05	28919.66
453.23	30061.84
453.42	30403.56
453.60	31309.35
453.78	31697.88
453.97	31501.27
454.15	31328.07
454.34	30611.87
454.52	30848.26
454.70	30000.99
454.89	30551.01
455.07	30714.85
455.26	30895.07
455.44	32112.15
455.62	32655.15
455.81	33074.11
455.99	32678.56
456.17	32496.00
456.36	31880.44
456.54	33123.26
456.73	33132.62
456.91	33699.03
457.09	33888.62
457.28	34728.87
457.46	33919.04
457.64	32982.83
457.83	32430.46
458.01	31098.70
458.19	31915.54
458.38	32444.51
458.56	33221.56
458.74	33329.23
458.93	32739.41
459.11	32723.03
459.29	32144.92
459.48	32484.30
459.66	32116.83
459.84	32552.17
460.03	33149.01
460.21	33074.11
460.39	34141.39
460.57	33612.43
460.76	34291.19
460.94	34581.42
461.12	33677.97
461.31	33916.70
461.49	33890.96
461.67	33750.52
461.85	34817.81
462.04	34562.69
462.22	34675.04
462.40	35044.84
462.59	34806.11
462.77	34913.77
462.95	34574.39
463.13	34272.46
463.32	34096.92
463.50	33441.57
463.68	33867.55
463.86	33834.78
464.05	33132.62
464.23	32390.67
464.41	32519.40
464.59	31704.90
464.78	33759.89
464.96	33315.19
465.14	33298.80
465.32	34087.56
465.50	34429.28
465.69	35182.93
465.87	34195.23
466.05	33701.37
466.23	32020.87
466.41	30995.71
466.60	31871.07
466.78	32077.04
466.96	32823.67
467.14	33642.86
467.32	33823.08
467.51	33944.79
467.69	32121.51
467.87	33132.62
468.05	33582.01
468.23	33692.01
468.41	33614.77
468.60	33940.11
468.78	33830.10
468.96	33310.50
469.14	34335.66
469.32	34452.69
469.50	32919.63
469.69	32905.59
469.87	32615.37
470.05	32538.13
470.23	32889.21
470.41	32577.92
470.59	32767.50
470.77	33289.44
470.95	33848.83
471.14	34300.55
471.32	34508.86
471.50	36198.73
471.68	36381.29
471.86	36842.37
472.04	36491.29
472.22	36465.55
472.40	35117.40
472.58	35028.46
472.77	34546.31
472.95	35199.32
473.13	35938.93
473.31	35082.29
473.49	35407.62
473.67	36109.78
473.85	36037.23
474.03	37254.31
474.21	37296.44
474.39	37333.89
474.57	37418.14
474.75	37614.75
474.93	37261.33
475.12	36622.36
475.30	36287.67
475.48	36685.56
475.66	37347.93
475.84	37029.62
476.02	36603.64
476.20	36414.05
476.38	37053.02
476.56	38022.00
476.74	38293.50
476.92	38490.11
477.10	38866.94
477.28	39924.86
477.46	40350.84
477.64	40456.16
477.82	40905.54
478.00	41228.54
478.18	40133.17
478.36	40137.85
478.54	39754.00
478.72	40425.73
478.90	41006.19
479.08	42260.71
479.26	42827.12
479.44	42564.98
479.62	42403.49
479.80	42663.28
479.98	42424.55
480.16	43173.52
480.34	42263.05
480.52	42937.13
480.70	43440.34
480.88	42983.94
481.06	43915.47
481.24	44065.27
481.41	44987.44
481.59	45745.77
481.77	45127.87
481.95	44549.76
482.13	44610.61
482.31	44643.38
482.49	45495.33
482.67	45504.70
482.85	45626.40
483.03	46251.33
483.21	46408.14
483.39	46017.27
483.57	45771.52
483.74	45237.87
483.92	45448.52
484.10	45883.86
484.28	47208.61
484.46	47042.43
484.64	47760.97
484.82	46513.47
485.00	46178.77
485.18	45317.45
485.35	44430.39
485.53	41015.55
485.71	37715.39
485.89	36816.63
486.07	38579.05
486.25	42220.92
486.43	44275.91
486.61	45261.28
486.78	45172.34
486.96	45280.00
487.14	47107.96
487.32	47896.72
487.50	49146.57
487.68	49776.17
487.85	50298.11
488.03	50328.54
488.21	50246.62
488.39	49162.95
488.57	48460.79
488.75	47789.06
488.92	49027.20
489.10	51358.38
489.28	52790.78
489.46	53546.78
489.64	53249.53
489.81	53584.22
489.99	52891.43
490.17	53191.01
490.35	53439.11
490.53	53235.48
490.70	52416.30
490.88	52163.52
491.06	53336.13
491.24	53289.32
491.41	52144.80
491.59	50681.96
491.77	50087.46
491.95	51313.90
492.13	52102.67
492.30	53296.34
492.48	54408.09
492.66	54768.54
492.84	54880.88
493.01	54728.75
493.19	53837.00
493.37	53902.54
493.54	53406.34
493.72	54162.34
493.90	55014.29
494.08	55805.39
494.25	56186.90
494.43	56240.73
494.61	56545.00
494.79	56732.25
494.96	56505.21
495.14	55866.25
495.32	55262.39
495.49	54253.62
495.67	55461.33
495.85	56783.74
496.02	56945.23
496.20	57048.22
496.38	56463.08
496.55	56357.76
496.73	56992.04
496.91	57034.17
497.09	57495.26
497.26	57862.72
497.44	57148.86
497.62	56617.56
497.79	55821.78
497.97	54560.23
498.14	55103.23
498.32	56013.70
498.50	56760.33
498.67	57364.19
498.85	57305.68
499.03	57502.28
499.20	57563.14
499.38	57792.51
499.56	57563.14
499.73	57022.47
499.91	56444.36
500.08	56259.46
500.26	55288.13
500.44	55835.82
500.61	56413.93
500.79	56259.46
500.97	56006.68
501.14	55819.44
501.32	55716.45
501.49	55709.43
501.67	55910.72
501.84	56336.69
502.02	56755.65
502.20	56952.26
502.37	56992.04
502.55	57270.57
502.72	57780.81
502.90	58211.46
503.07	57930.60
503.25	57670.80
503.43	56704.16
503.60	56104.98
503.78	55468.36
503.95	55873.27
504.13	57329.08
504.30	57975.07
504.48	57783.15
504.65	57406.32
504.83	57490.58
505.01	57946.98
505.18	58262.96
505.36	59058.74
505.53	58976.82
505.71	59175.76
505.88	59264.70
506.06	58635.10
506.23	58417.43
506.41	58096.78
506.58	58438.50
506.76	58389.34
506.93	58176.36
507.11	57886.13
507.28	58204.44
507.46	57979.75
507.63	56849.27
507.81	56755.65
507.98	57071.62
508.16	57705.91
508.33	58391.68
508.50	58616.38
508.68	58969.80
508.85	59423.86
509.03	59456.63
509.20	59334.92
509.38	58426.79
509.55	57497.60
509.73	57876.77
509.90	58539.14
510.08	58585.95
510.25	58609.35
510.42	58632.76
510.60	58389.34
510.77	58700.64
510.95	59021.29
511.12	59257.68
511.30	59578.34
511.47	59695.36
511.64	59660.26
511.82	59386.41
511.99	58571.91
512.17	58272.32
512.34	57792.51
512.51	57860.38
512.69	58220.83
512.86	58272.32
513.04	58796.60
513.21	58841.07
513.38	58225.51
513.56	57600.58
513.73	57375.89
513.90	57434.41
514.08	57591.22
514.25	57886.13
514.43	57996.13
514.60	57979.75
514.77	58396.37
514.95	58417.43
515.12	58405.73
515.29	58513.39
515.47	58951.07
515.64	59264.70
515.81	58805.96
515.99	58461.90
516.16	56844.59
516.33	54705.34
516.51	53317.40
516.68	52624.60
516.85	51901.38
517.03	52006.70
517.20	55192.17
517.37	57558.45
517.54	58487.65
517.72	57982.09
517.89	55337.29
518.06	53244.85
518.24	53457.84
518.41	55789.01
518.58	57020.13
518.75	57132.48
518.93	57352.49
519.10	57254.18
519.27	57495.26
519.45	57925.92
519.62	58564.88
519.79	58922.99
519.96	58770.85
520.14	58300.40
520.31	57371.21
520.48	57434.41
520.65	57712.93
520.83	58890.22
521.00	59110.23
521.17	58747.45
521.34	58560.20
521.52	58890.22
521.69	59274.07
521.86	59681.32
522.03	59419.18
522.20	58085.07
522.38	57062.26
522.55	57057.58
522.72	57874.43
522.89	58010.18
523.07	58056.99
523.24	58452.54
523.41	59058.74
523.58	59536.21
523.75	60048.78
523.92	59793.67
524.10	59763.24
524.27	59711.75
524.44	59447.27
524.61	59337.26
524.78	59035.33
524.96	59075.12
525.13	59089.16
525.30	59267.05
525.47	59664.94
525.64	59814.73
525.81	58993.20
525.98	57593.56
526.16	56392.87
526.33	55229.62
526.50	55604.11
526.67	54560.23
526.84	55430.91
527.01	56575.43
527.18	57169.93
527.36	58061.67
527.53	59011.93
527.70	59119.59
527.87	58499.35
528.04	58141.25
528.21	58740.42
528.38	59145.34
528.55	59718.77
528.72	60210.28
528.89	60224.32
529.07	59906.01
529.24	59271.73
529.41	58637.44
529.58	58145.93
529.75	58284.02
529.92	58670.21
530.09	59082.14
530.26	59529.19
530.43	59669.62
530.60	59767.92
530.77	59971.55
530.94	60322.63
531.11	59550.25
531.28	59295.13
531.46	59173.42
531.63	59468.33
531.80	59114.91
531.97	58597.65
532.14	58066.35
532.31	57022.47
532.48	56303.93
532.65	56596.49
532.82	57219.08
532.99	58520.41
533.16	58805.96
533.33	59243.64
533.50	59049.38
533.67	58403.39
533.84	58092.10
534.01	58220.83
534.18	58358.92
534.35	58756.81
534.52	58642.12
534.69	58803.62
534.86	59040.01
535.03	59318.54
535.20	59709.41
535.37	60025.38
535.54	60308.58
535.71	59880.27
535.88	59449.61
536.05	58845.75
536.22	58494.67
536.38	58169.33
536.55	57773.78
536.72	57350.15
536.89	56860.97
537.06	57860.38
537.23	58686.59
537.40	58789.58
537.57	59004.91
537.74	58639.78
537.91	58599.99
538.08	58672.55
538.25	58702.98
538.42	58831.71
538.59	58777.87
538.75	58181.04
538.92	57677.82
539.09	57687.18
539.26	57455.47
539.43	57457.81
539.60	57429.72
539.77	57490.58
539.94	57549.09
540.11	56580.11
540.28	56315.63
540.44	56170.52
540.61	56729.90
540.78	56666.71
540.95	57160.56
541.12	57673.14
541.29	57860.38
541.46	58122.52
541.62	58192.74
541.79	58019.54
541.96	57535.05
542.13	57308.02
542.30	57633.35
542.47	57909.53
542.63	57565.48
542.80	57478.88
542.97	57464.83
543.14	57338.44
543.31	57633.35
543.48	57958.69
543.64	58667.87
543.81	58953.41
543.98	59030.65
544.15	58239.55
544.32	57621.65
544.48	57633.35
544.65	58260.62
544.82	58426.79
544.99	58169.33
545.16	57762.08
545.32	57581.86
545.49	58202.10
545.66	58817.66
545.83	58326.15
546.00	57858.04
546.16	57600.58
546.33	57668.46
546.50	57640.37
546.67	58246.57
546.83	57836.98
547.00	57829.96
547.17	57158.22
547.34	56570.75
547.50	56404.57
547.67	56879.70
547.84	57083.33
548.00	57497.60
548.17	57855.70
548.34	57907.19
548.51	57635.69
548.67	57645.05
548.84	57975.07
549.01	57794.85
549.18	57811.23
549.34	57614.63
549.51	57523.35
549.68	57291.63
549.84	57240.14
550.01	57120.77
550.18	57085.67
550.34	57066.94
550.51	57254.18
550.68	57275.25
550.84	57050.56
551.01	56961.62
551.18	56767.35
551.34	57144.18
551.51	57251.84
551.68	57874.43
551.84	58007.84
552.01	57687.18
552.18	57406.32
552.34	56549.68
552.51	56247.75
552.68	56041.79
552.84	56629.26
553.01	56949.92
553.18	56772.03
553.34	56956.94
553.51	57008.43
553.67	57371.21
553.84	57385.25
554.01	57357.17
554.17	56877.36
554.34	57153.54
554.51	57106.73
554.67	57471.85
554.84	57223.76
555.00	57031.83
555.17	56739.27
555.33	56809.48
555.50	56933.53
555.67	56839.91
555.83	56598.83
556.00	56442.02
556.16	56207.97
556.33	55793.69
556.50	55924.76
556.66	55922.42
556.83	55489.42
556.99	55704.75
557.16	55805.39
557.32	56287.54
557.49	56640.96
557.65	56327.33
557.82	56266.48
557.98	56198.60
558.15	55468.36
558.32	54920.67
558.48	53745.72
558.65	54244.26
558.81	54553.21
558.98	55011.95
559.14	55112.59
559.31	55309.20
559.47	55086.85
559.64	54967.48
559.80	54490.01
559.97	54485.33
560.13	54939.39
560.30	55924.76
560.46	56425.64
560.63	56856.29
560.79	56760.33
560.96	56259.46
561.12	55075.15
561.29	54099.14
561.45	54396.39
561.61	54838.75
561.78	55255.37
561.94	55302.18
562.11	54876.20
562.27	54864.50
562.44	55196.85
562.60	55496.44
562.77	55917.74
562.93	55641.56
563.10	55552.62
563.26	54862.16
563.42	55093.87
563.59	54733.43
563.75	54864.50
563.92	54876.20
564.08	54775.56
564.24	54862.16
564.41	55091.53
564.57	54918.33
564.74	54717.04
564.90	54829.39
565.07	54534.48
565.23	54145.95
565.39	53968.07
565.56	53254.21
565.72	53198.04
565.88	53640.40
566.05	53778.49
566.21	53911.90
566.38	54024.25
566.54	54220.85
566.70	54478.31
566.87	54791.94
567.03	54869.18
567.19	54969.82
567.36	54810.67
567.52	54677.25
567.68	54466.61
567.85	53682.53
568.01	53261.23
568.17	52954.62
568.34	52830.57
568.50	52683.12
568.66	52952.28
568.83	53221.44
568.99	53247.19
569.15	53635.72
569.32	53450.81
569.48	53212.08
569.64	53118.46
569.81	52765.04
569.97	52971.00
570.13	52741.63
570.30	52065.22
570.46	51789.03
570.62	51070.49
570.78	51255.39
570.95	51150.07
571.11	52191.61
571.27	52210.33
571.43	52809.51
571.60	52664.39
571.76	52875.04
571.92	53226.12
572.09	53762.11
572.25	53631.04
572.41	53296.34
572.57	53006.11
572.74	53279.96
572.90	52552.05
573.06	52769.72
573.22	53020.16
573.38	52978.03
573.55	52722.91
573.71	52971.00
573.87	52842.27
574.03	52725.25
574.20	52603.54
574.36	52196.29
574.52	52046.49
574.68	51889.68
574.84	51440.29
575.01	51222.62
575.17	51100.92
575.33	51044.74
575.49	51477.74
575.65	51625.20
575.82	51711.80
575.98	51330.29
576.14	51899.04
576.30	52046.49
576.46	52032.45
576.62	51959.89
576.79	51910.74
576.95	51475.40
577.11	51578.39
577.27	51473.06
577.43	51325.61
577.59	51164.11
577.75	50614.08
577.92	50368.33
578.08	49621.70
578.24	49654.47
578.40	50337.90
578.56	50787.28
578.72	50518.12
578.88	50827.07
579.04	50887.93
579.21	50995.59
579.37	51175.81
579.53	51505.83
579.69	51187.52
579.85	51234.33
580.01	50965.17
580.17	50347.26
580.33	50691.32
580.49	50351.94
580.65	50862.18
580.82	51082.19
580.98	51208.58
581.14	50845.80
581.30	50894.95
581.46	50887.93
581.62	50960.48
581.78	50841.12
581.94	51510.51
582.10	51304.54
582.26	51206.24
582.42	51014.32
582.58	51089.21
582.74	51231.99
582.90	51224.96
583.06	51475.40
583.22	50665.58
583.38	51007.29
583.54	50705.37
583.70	50691.32
583.86	50876.22
584.02	50815.37
584.18	50632.81
584.34	50684.30
584.50	50408.12
584.66	50525.14
584.82	49991.50
584.98	49865.11
585.14	49411.05
585.30	48596.54
585.46	48718.25
585.62	48334.40
585.78	48980.39
585.94	48713.57
586.10	49303.38
586.26	49076.35
586.42	49591.27
586.58	49883.84
586.74	49876.82
586.90	49736.38
587.06	49612.34
587.22	49476.58
587.38	49120.82
587.54	49226.15
587.70	48697.19
587.86	48498.24
588.02	48275.89
588.18	47929.49
588.34	46476.02
588.49	44479.54
588.65	42239.65
588.81	41652.17
588.97	42766.27
589.13	41942.40
589.29	42408.17
589.45	43079.90
589.61	44224.42
589.77	45757.47
589.93	46380.06
590.08	47323.29
590.24	47217.97
590.40	47454.36
590.56	47716.50
590.72	47531.60
590.88	46897.31
591.04	46267.71
591.20	46534.53
591.35	46188.13
591.51	47112.64
591.67	46511.13
591.83	47175.84
591.99	46742.84
592.15	46988.60
592.31	47084.56
592.46	46677.30
592.62	46656.24
592.78	46138.98
592.94	46408.14
593.10	46314.52
593.26	46866.89
593.41	47180.52
593.57	46857.52
593.73	46293.46
593.89	45780.88
594.05	46028.98
594.20	45123.19
594.36	45081.06
594.52	44727.64
594.68	45275.32
594.84	45090.42
594.99	45682.58
595.15	45546.82
595.31	45848.75
595.47	45773.86
595.62	45565.55
595.78	46342.61
595.94	46461.97
596.10	46637.51
596.25	45745.77
596.41	45705.98
596.57	45528.10
596.73	45982.16
596.88	45588.95
597.04	45956.42
597.20	45326.81
597.36	45102.12
597.51	45333.84
597.67	45574.91
597.83	45118.51
597.99	45120.85
598.14	44711.25
598.30	44399.96
598.46	44467.84
598.61	44715.93
598.77	44378.90
598.93	44985.10
599.09	45244.90
599.24	45780.88
599.40	45256.60
599.56	45202.77
599.71	45038.93
599.87	45207.45
600.03	44898.50
600.18	44619.97
600.34	44016.11
600.50	43899.09
600.65	43952.92
600.81	44205.70
600.97	44119.10
601.12	44236.12
601.28	44128.46
601.44	43693.12
601.59	43819.51
601.75	42939.47
601.91	43213.31
602.06	43005.00
602.22	43503.54
602.37	43459.07
602.53	43814.83
602.69	43873.34
602.84	44233.78
603.00	44573.16
603.16	44650.40
603.31	44804.88
603.47	44856.37
603.62	44186.97
603.78	44341.45
603.94	44182.29
604.09	43913.13
604.25	43959.94
604.40	43985.69
604.56	43915.47
604.71	44294.64
604.87	43838.23
605.03	43505.88
605.18	43473.11
605.34	43386.51
605.49	43339.70
605.65	43482.47
605.80	43143.09
605.96	42677.33
606.12	42635.20
606.27	42344.97
606.43	42583.71
606.58	42920.74
606.74	43117.35
606.89	42780.31
607.05	43281.19
607.20	43360.76
607.36	42487.74
607.51	42038.36
607.67	42080.49
607.82	42050.06
607.98	41881.55
608.13	42021.98
608.29	41383.01
608.44	41436.84
608.60	41464.93
608.75	41273.01
608.91	41497.70
609.06	41205.13
609.22	42251.35
609.37	41743.45
609.53	41825.37
609.68	41123.21
609.84	40500.63
609.99	40184.66
610.15	40533.40
610.30	40816.60
610.46	40624.68
610.61	41441.53
610.76	41801.97
610.92	41968.15
611.07	41787.92
611.23	42003.25
611.38	41406.42
611.54	41226.20
611.69	40701.92
611.84	40144.87
612.00	39325.68
612.15	39730.59
612.31	40287.64
612.46	40093.38
612.62	40114.44
612.77	40098.06
612.92	40486.59
613.08	40074.65
613.23	38932.47
613.39	38305.21
613.54	38183.50
613.69	38632.88
613.85	38445.64
614.00	38656.29
614.15	39374.83
614.31	39065.88
614.46	39339.72
614.62	39636.97
614.77	38948.85
614.92	39234.40
615.08	39093.97
615.23	38983.96
615.38	38401.17
615.54	37640.50
615.69	37270.69
615.84	36212.77
616.00	36416.40
616.15	36596.62
616.30	37235.58
616.46	36968.76
616.61	37221.54
616.76	37282.39
616.92	37291.76
617.07	37509.43
617.22	37364.31
617.37	38000.94
617.53	38220.95
617.68	38359.04
617.83	38190.52
617.99	38110.94
618.14	38319.25
618.29	38183.50
618.45	37399.42
618.60	36994.51
618.75	36800.24
618.90	37015.57
619.06	37378.36
619.21	37518.79
619.36	37649.86
619.51	37284.73
619.67	37626.45
619.82	37422.83
619.97	37764.54
620.12	37177.07
620.28	37081.11
620.43	37661.56
620.58	37422.83
620.73	36996.85
620.89	36776.84
621.04	36400.01
621.19	36503.00
621.34	35908.50
621.49	35948.29
621.65	35737.64
621.80	36126.17
621.95	35999.78
622.10	36332.14
622.25	36013.82
622.41	35800.83
622.56	35611.25
622.71	35288.26
622.86	35086.97
623.01	35157.19
623.16	35550.40
623.32	35075.27
623.47	34857.60
623.62	35246.13
623.77	34920.79
623.92	34862.28
624.07	34019.69
624.23	33624.14
624.38	33741.16
624.53	34033.73
624.68	34295.87
624.83	34160.12
624.98	33624.14
625.13	33263.69
625.29	33266.03
625.44	33528.17
625.59	33558.60
625.74	33614.77
625.89	33523.49
626.04	33645.20
626.19	33663.93
626.34	34373.11
626.49	34150.76
626.65	33661.58
626.80	33376.04
626.95	33727.12
627.10	33046.02
627.25	32992.19
627.40	31878.10
627.55	31304.67
627.70	31068.27
627.85	31232.11
628.00	31278.92
628.15	31981.08
628.30	32074.70
628.45	32402.38
628.60	32334.50
628.76	32463.23
628.91	32018.53
629.06	32032.57
629.21	32004.49
629.36	31576.17
629.51	31082.31
629.66	31173.60
629.81	31101.04
629.96	31189.98
630.11	31021.46
630.26	31910.86
630.41	31768.09
630.56	31765.75
630.71	31880.44
630.86	31725.96
631.01	31484.89
631.16	31211.04
631.31	30249.08
631.46	30267.81
631.61	30883.37
631.76	30937.20
631.91	30866.98
632.06	31356.16
632.21	31314.03
632.36	31716.60
632.51	31538.72
632.66	31592.55
632.81	31278.92
632.96	31421.69
633.10	30719.53
633.25	30394.20
633.40	30504.20
633.55	30866.98
633.70	30764.00
633.85	30572.08
634.00	30590.80
634.15	30457.39
634.30	30965.29
634.45	30607.19
634.60	30721.87
634.75	30703.15
634.90	30815.49
635.05	30686.76
635.19	30541.65
635.34	30569.74
635.49	30033.75
635.64	30326.32
635.79	29834.81
635.94	29762.25
636.09	30281.85
636.24	29872.26
636.39	30206.95
636.53	30345.05
636.68	30553.35
636.83	30319.30
636.98	30682.08
637.13	30235.04
637.28	30529.95
637.43	30539.31
637.57	30438.67
637.72	29970.56
637.87	29940.13
638.02	29802.04
638.17	30429.30
638.32	29780.98
638.46	29806.72
638.61	30022.05
638.76	29776.30
638.91	29312.87
639.06	29284.78
639.20	29387.77
639.35	28996.90
639.50	28526.45
639.65	28673.90
639.80	29137.33
639.94	28683.27
640.09	29034.35
640.24	29020.30
640.39	28278.35
640.54	28184.73
640.68	28451.55
640.83	28526.45
640.98	27889.82
641.13	28194.09
641.27	28591.98
641.42	28161.33
641.57	28063.02
641.72	27709.60
641.86	27882.80
642.01	28261.97
642.16	28126.22
642.31	28554.54
642.45	28477.30
642.60	28290.06
642.75	27936.63
642.90	27978.76
643.04	27843.01
643.19	27475.55
643.34	27974.08
643.48	27524.70
643.63	27562.15
643.78	27772.80
643.93	28023.23
644.07	27828.97
644.22	28346.23
644.37	27821.95
644.51	27812.59
644.66	27147.87
644.81	27215.75
644.95	27253.20
645.10	26888.07
645.25	27190.00
645.39	27019.14
645.54	26735.94
645.69	26551.04
645.83	26256.13
645.98	26057.18
646.13	26094.63
646.27	25986.97
646.42	26237.41
646.57	25914.41
646.71	25748.23
646.86	26246.77
647.00	25935.48
647.15	25839.51
647.30	25759.94
647.44	25343.32
647.59	25560.99
647.74	25205.23
647.88	25472.05
648.03	25132.67
648.17	25214.59
648.32	25621.84
648.47	25729.51
648.61	25680.36
648.76	25642.91
648.90	24741.80
649.05	24432.85
649.20	23913.25
649.34	23590.26
649.49	23873.46
649.63	24744.14
649.78	24704.35
649.92	25184.16
650.07	25568.01
650.21	25308.21
650.36	25579.71
650.51	25708.44
650.65	25755.26
650.80	25476.73
650.94	25593.76
651.09	24772.23
651.23	24362.64
651.38	23847.72
651.52	23995.17
651.67	24215.18
651.81	24484.34
651.96	24683.29
652.10	25041.39
652.25	24687.97
652.39	25055.43
652.54	25230.98
652.68	25116.29
652.83	24692.65
652.97	25025.01
653.12	24905.64
653.26	24776.91
653.41	24819.04
653.55	24884.58
653.70	24781.59
653.84	24589.67
653.99	24531.15
654.13	23803.25
654.27	23651.11
654.42	23288.33
654.56	23393.65
654.71	23601.96
654.85	23372.59
655.00	23042.57
655.14	22794.48
655.29	22537.02
655.43	21975.29
655.57	21380.79
655.72	19513.05
655.86	18335.76
656.01	17348.05
656.15	17649.98
656.30	18731.31
656.44	19583.26
656.58	20460.96
656.73	21357.39
656.87	21759.96
657.01	21914.44
657.16	22190.62
657.30	22314.67
657.45	22806.18
657.59	22981.72
657.73	23012.15
657.88	22752.35
658.02	23126.83
658.16	23363.23
658.31	22946.61
658.45	23098.75
658.60	22579.15
658.74	22817.88
658.88	22368.50
659.03	22127.42
659.17	22122.74
659.31	22176.58
659.46	22417.65
659.60	22541.70
659.74	22548.72
659.89	22878.74
660.03	22906.82
660.17	22995.76
660.32	22670.43
660.46	22579.15
660.60	22279.56
660.74	22335.73
660.89	22331.05
661.03	22314.67
661.17	22391.91
661.32	21968.27
661.46	22061.89
661.60	22089.98
661.74	22258.49
661.89	22377.86
662.03	22078.27
662.17	22188.28
662.31	22141.47
662.46	22235.09
662.60	22345.09
662.74	21872.31
662.88	21678.04
663.03	21493.14
663.17	21240.36
663.31	21254.40
663.45	21238.02
663.60	21319.94
663.74	21177.17
663.88	21268.45
664.02	21252.06
664.17	21436.97
664.31	21310.58
664.45	21174.83
664.59	21294.19
664.73	21172.49
664.88	21745.92
665.02	21207.59
665.16	21308.24
665.30	21046.10
665.44	21088.23
665.59	20954.82
665.73	20966.52
665.87	20430.54
666.01	20432.88
666.15	20357.98
666.29	19955.41
666.44	20372.02
666.58	20280.74
666.72	20255.00
666.86	20634.16
667.00	20411.81
667.14	20262.02
667.28	20243.29
667.43	20196.48
667.57	20369.68
667.71	20233.93
667.85	20002.22
667.99	20112.22
668.13	20297.13
668.27	19962.43
668.41	20063.07
668.56	19873.49
668.70	20088.82
668.84	19763.48
668.98	19899.23
669.12	19548.15
669.26	19770.51
669.40	19414.74
669.54	19587.94
669.68	19587.94
669.82	19321.12
669.96	19227.50
670.10	19283.67
670.25	19138.56
670.39	19140.90
670.53	19082.39
670.67	18883.44
670.81	18775.78
670.95	18881.10
671.09	18345.12
671.23	18527.68
671.37	18333.42
671.51	18448.10
671.65	18501.93
671.79	18354.48
671.93	18555.77
672.07	18633.00
672.21	18731.31
672.35	18466.83
672.49	18483.21
672.63	18677.48
672.77	18349.80
672.91	18523.00
673.05	18321.71
673.19	18228.09
673.33	17994.04
673.47	17860.63
673.61	18029.15
673.75	18171.92
673.89	17881.69
674.03	17862.97
674.17	17963.61
674.31	17554.02
674.45	17642.96
674.59	17577.42
674.73	17699.13
674.87	17474.44
675.01	17261.45
675.15	17518.91
675.29	17343.37
675.43	17467.42
675.56	17160.81
675.70	17628.92
675.84	17310.60
675.98	16915.05
676.12	17111.66
676.26	17090.59
676.40	16950.16
676.54	16966.54
676.68	16908.03
676.82	16475.03
676.96	16496.10
677.10	16762.92
677.23	16397.79
677.37	16416.52
677.51	16772.28
677.65	16566.31
677.79	16203.53
677.93	15833.72
678.07	16173.10
678.21	15889.90
678.34	16215.23
678.48	15672.23
678.62	16070.12
678.76	15854.79
678.90	15702.65
679.04	15950.75
679.18	15932.03
679.31	15475.62
679.45	15550.52
679.59	15234.55
679.73	15536.48
679.87	15552.86
680.00	15330.51
680.14	15229.87
680.28	15005.17
680.42	15005.17
680.56	15068.37
680.70	15005.17
680.83	15152.63
680.97	14941.98
681.11	14913.89
681.25	14700.90
681.39	14703.25
681.52	14787.50
681.66	14658.78
681.80	14661.12
681.94	14506.64
682.07	14717.29
682.21	14429.40
682.35	14265.57
682.49	14295.99
682.62	14026.83
682.76	14001.08
682.90	14012.79
683.04	13937.89
683.17	14104.07
683.31	13760.01
683.45	14010.45
683.59	13490.85
683.72	13488.51
683.86	13329.35
684.00	13376.16
684.13	13238.07
684.27	13327.01
684.41	13549.36
684.55	13287.22
684.68	13401.91
684.82	13256.79
684.96	13095.30
685.09	13191.26
685.23	13078.91
685.37	12737.20
685.50	12863.58
685.64	12849.54
685.78	12718.47
685.91	12692.73
686.05	12601.44
686.19	12362.71
686.32	11562.25
686.46	10593.26
686.60	9062.55
686.73	8393.16
686.87	8044.42
687.01	7889.95
687.14	7922.71
687.28	8198.90
687.42	8514.87
687.55	8814.46
687.69	9511.94
687.82	9994.09
687.96	10200.05
688.10	10293.68
688.23	10228.14
688.37	10054.94
688.50	9898.13
688.64	9694.50
688.78	9533.00
688.91	9591.52
689.05	9418.32
689.18	9453.42
689.32	9202.99
689.46	9273.20
689.59	9598.54
689.73	9703.86
689.86	9659.39
690.00	9799.82
690.13	9724.93
690.27	9547.05
690.41	9708.54
690.54	9666.41
690.68	9774.08
690.81	10118.14
690.95	9778.76
691.08	9764.72
691.22	9792.80
691.35	9753.01
691.49	9977.70
691.62	9823.23
691.76	9823.23
691.89	10005.79
692.03	9755.35
692.16	9708.54
692.30	9626.62
692.43	9638.33
692.57	9495.55
692.70	9451.08
692.84	9598.54
692.97	9160.86
693.11	9561.09
693.24	9280.22
693.38	9004.04
693.51	9181.92
693.65	9027.45
693.78	8849.57
693.92	8922.12
694.05	8961.91
694.19	8994.68
694.32	9046.17
694.45	8938.51
694.59	8842.54
694.72	8964.25
694.86	8809.78
694.99	8875.31
695.13	8741.90
695.26	8655.30
695.39	8472.74
695.53	8613.17
695.66	8390.82
695.80	8521.89
695.93	8589.77
696.07	8514.87
696.20	8734.88
696.33	8741.90
696.47	8973.61
696.60	8997.02
696.73	8961.91
696.87	8800.41
697.00	8842.54
697.14	8868.29
697.27	8489.12
697.40	8554.66
697.54	8285.50
697.67	8114.64
697.80	8168.47
697.94	8067.83
698.07	8205.92
698.21	8100.59
698.34	7896.97
698.47	7833.77
698.61	7845.48
698.74	7606.74
698.87	7751.85
699.01	7672.28
699.14	7583.34
699.27	7688.66
699.40	7777.60
699.54	7590.36
699.67	7566.95
699.80	7473.33
699.94	7344.60
700.07	7293.11
700.20	7283.75
700.34	7098.84
700.47	7061.40
700.60	7124.59
700.73	7206.51
700.87	6998.20
701.00	7164.38
701.13	7030.97
701.26	6864.79
701.40	6906.92
701.53	6707.98
701.66	7042.67
701.79	6927.99
701.93	6794.58
702.06	6754.79
702.19	6558.18
702.32	6761.81
702.46	6607.33
702.59	6560.52
702.72	6707.98
702.85	6808.62
702.99	6670.53
703.12	6810.96
703.25	6832.02
703.38	6499.67
703.51	6516.05
703.65	6462.22
703.78	6396.68
703.91	6305.40
704.04	6602.65
704.17	6541.80
704.31	6429.45
704.44	6499.67
704.57	6422.43
704.70	6420.09
704.83	6326.47
704.96	6305.40
705.10	6289.02
705.23	6253.91
>>>>>End Processed Spectral Data<<<<<
