SpectraSuite Data File
++++++++++++++++++++++++++++++++++++
Date: Mon Oct 07 14:55:00 GMT-05:00 2013
User: price-jones
Dark Spectrum Present: No
Reference Spectrum Present: No
Number of Sampled Component Spectra: 1
Spectrometers: USB2+H05261
Integration Time (usec): 10000 (USB2+H05261)
Spectra Averaged: 1 (USB2+H05261)
Boxcar Smoothing: 0 (USB2+H05261)
Correct for Electrical Dark: No (USB2+H05261)
Strobe/Lamp Enabled: No (USB2+H05261)
Correct for Detector Non-linearity: No (USB2+H05261)
Correct for Stray Light: No (USB2+H05261)
Number of Pixels in Processed Spectrum: 2048
>>>>>Begin Processed Spectral Data<<<<<
365.73	0.00
365.92	0.00
366.12	0.00
366.32	0.00
366.52	0.00
366.72	0.00
366.91	0.00
367.11	0.00
367.31	0.00
367.51	0.00
367.70	0.00
367.90	0.00
368.10	0.00
368.30	0.00
368.49	0.00
368.69	0.00
368.89	0.00
369.09	0.00
369.28	0.00
369.48	0.00
369.68	0.00
369.87	0.00
370.07	0.00
370.27	0.00
370.47	121.71
370.66	1570.50
370.86	1853.70
371.06	2139.25
371.25	2029.24
371.45	1720.29
371.65	1514.33
371.84	1432.41
372.04	1640.72
372.24	1916.90
372.44	1952.01
372.63	1797.53
372.83	1687.53
373.03	1411.34
373.22	1322.40
373.42	1579.86
373.62	1797.53
373.81	1996.48
374.01	1809.23
374.21	1584.54
374.40	1614.97
374.60	1713.27
374.79	1914.56
374.99	2244.57
375.19	2331.17
375.38	2312.45
375.58	2085.42
375.78	2296.07
375.97	2129.89
376.17	2263.30
376.37	2282.02
376.56	2424.80
376.76	2539.48
376.95	2640.12
377.15	3075.46
377.35	2928.01
377.54	3077.80
377.74	3096.53
377.93	3141.00
378.13	3033.33
378.33	2874.18
378.52	2647.15
378.72	2583.95
378.91	2492.67
379.11	2476.29
379.31	2284.36
379.50	2396.71
379.70	2574.59
379.89	2970.14
380.09	3049.72
380.28	3253.34
380.48	3040.36
380.68	3061.42
380.87	2843.75
381.07	2576.93
381.26	2509.05
381.46	2345.22
381.65	2230.53
381.85	2160.31
382.04	2129.89
382.24	1968.39
382.43	1830.30
382.63	1736.68
382.83	1732.00
383.02	1851.36
383.22	1849.02
383.41	1858.39
383.61	2026.90
383.80	2375.64
384.00	2635.44
384.19	2925.67
384.39	3030.99
384.58	3164.40
384.78	3112.91
384.97	3068.44
385.17	2710.34
385.36	2511.39
385.56	2539.48
385.75	2640.12
385.95	2979.50
386.14	3248.66
386.34	3129.30
386.53	2970.14
386.72	2813.32
386.92	2974.82
387.11	3218.24
387.31	3206.53
387.50	3150.36
387.70	3054.40
387.89	2963.12
388.09	2991.20
388.28	3105.89
388.48	3148.02
388.67	3508.46
388.86	3758.90
389.06	3941.46
389.25	4297.22
389.45	4255.09
389.64	4283.18
389.84	4177.86
390.03	4053.81
390.22	4105.30
390.42	4334.67
390.61	4461.06
390.81	4795.76
391.00	4795.76
391.19	4793.42
391.39	4599.15
391.58	4241.05
391.78	4135.73
391.97	3981.25
392.16	3873.59
392.36	3281.43
392.55	2539.48
392.75	2031.58
392.94	1591.56
393.13	1717.95
393.33	2190.74
393.52	2906.95
393.71	3358.67
393.91	3831.46
394.10	4170.83
394.29	4559.36
394.49	4898.74
394.68	5308.34
394.88	5268.55
395.07	5497.92
395.26	5301.31
395.46	5036.83
395.65	4737.24
395.84	3904.01
396.04	3124.62
396.23	2764.17
396.42	2303.09
396.62	2431.82
396.81	2803.96
397.00	3749.54
397.19	4526.60
397.39	5441.75
397.58	6069.01
397.77	6317.11
397.97	6513.71
398.16	6736.06
398.35	6895.22
398.55	7148.00
398.74	7293.11
398.93	7234.60
399.12	7375.03
399.32	7019.27
399.51	7253.32
399.70	7918.03
399.90	7653.55
400.09	7578.65
400.28	7616.10
400.47	7707.38
400.67	8037.40
400.86	8278.47
401.05	8348.69
401.24	8257.41
401.44	8416.57
401.63	8498.49
401.82	8528.91
402.01	8468.06
402.21	8578.06
402.40	8622.53
402.59	8297.20
402.78	7878.24
402.97	7950.80
403.17	8215.28
403.36	8498.49
403.55	8809.78
403.74	8997.02
403.93	8369.76
404.13	7712.07
404.32	7901.65
404.51	8383.80
404.70	8720.84
404.89	8739.56
405.09	8627.21
405.28	8421.25
405.47	8524.23
405.66	8472.74
405.85	7901.65
406.05	7899.31
406.24	8203.58
406.43	8638.92
406.62	8638.92
406.81	8624.87
407.00	8484.44
407.20	8276.13
407.39	8313.58
407.58	8858.93
407.77	9261.50
407.96	9441.72
408.15	9589.17
408.34	9530.66
408.54	10022.17
408.73	9860.68
408.92	9944.94
409.11	9504.92
409.30	9055.53
409.49	8608.49
409.68	8056.12
409.87	7918.03
410.07	8711.47
410.26	9163.20
410.45	9486.19
410.64	9944.94
410.83	10209.42
411.02	10511.35
411.21	10677.52
411.40	10506.66
411.59	10284.31
411.78	10260.91
411.98	10424.75
412.17	10619.01
412.36	10499.64
412.55	10239.84
412.74	10235.16
412.93	10076.01
413.12	10307.72
413.31	11201.80
413.50	11281.38
413.69	11178.40
413.88	10764.12
414.07	10663.48
414.26	10850.72
414.45	11042.65
414.64	11154.99
414.83	11178.40
415.02	10944.34
415.22	11066.05
415.41	11267.34
415.60	11721.40
415.79	12114.61
415.98	12182.49
416.17	12336.96
416.36	12166.10
416.55	11798.64
416.74	11279.04
416.93	10977.11
417.12	11300.11
417.31	11328.19
417.50	11658.21
417.69	12067.80
417.88	11822.05
418.07	11679.27
418.26	11632.46
418.45	11995.25
418.64	12388.46
418.83	12760.60
419.02	12442.29
419.21	11761.19
419.39	11391.39
419.58	11150.31
419.77	11379.68
419.96	11868.86
420.15	12709.11
420.34	12844.86
420.53	13071.89
420.72	13460.42
420.91	13165.51
421.10	12734.85
421.29	13022.74
421.48	12821.45
421.67	13301.26
421.86	12484.42
422.05	11639.48
422.24	10651.78
422.43	10883.49
422.61	12346.33
422.80	12980.61
422.99	12580.38
423.18	12023.33
423.37	11885.24
423.56	12238.66
423.75	12376.75
423.94	12343.99
424.13	11854.81
424.32	11623.10
424.50	11948.43
424.69	11922.69
424.88	11953.12
425.07	12070.14
425.26	11716.72
425.45	11618.42
425.64	11225.21
425.83	11784.60
426.01	12095.89
426.20	12402.50
426.39	12456.33
426.58	11431.18
426.77	10663.48
426.96	10345.17
427.15	10951.37
427.33	11716.72
427.52	11981.20
427.71	12322.92
427.90	12058.44
428.09	12093.55
428.28	11616.08
428.46	11087.12
428.65	11171.38
428.84	11300.11
429.03	11461.60
429.22	11138.61
429.40	10111.11
429.59	9427.68
429.78	8393.16
429.97	8575.72
430.16	8372.10
430.34	8196.56
430.53	8664.66
430.72	9092.98
430.91	10237.50
431.10	12039.72
431.28	13771.71
431.47	14602.60
431.66	14487.92
431.85	12844.86
432.03	12088.87
432.22	11859.49
432.41	12526.55
432.60	13483.83
432.79	14087.68
432.97	14579.20
433.16	13776.39
433.35	12336.96
433.54	11103.50
433.72	11005.20
433.91	11440.54
434.10	12847.20
434.28	13708.52
434.47	14029.17
434.66	13488.51
434.85	13642.98
435.03	13483.83
435.22	13994.06
435.41	14731.33
435.59	14750.06
435.78	14707.93
435.97	15204.12
436.16	14991.13
436.34	14471.53
436.53	14960.70
436.72	15199.44
436.90	13879.38
437.09	14073.64
437.28	13781.07
437.46	14427.06
437.65	14340.46
437.84	12798.05
438.02	12540.59
438.21	12210.57
438.40	12559.31
438.58	14188.33
438.77	14520.68
438.96	14476.21
439.14	15220.50
439.33	15440.51
439.52	15602.01
439.70	15183.06
439.89	14551.11
440.08	13923.85
440.26	14532.39
440.45	15396.04
440.63	16360.34
440.82	16634.19
441.01	16397.79
441.19	16369.71
441.38	17015.69
441.57	17490.82
441.75	17401.88
441.94	17860.63
442.12	17645.30
442.31	17898.08
442.50	17954.25
442.68	17607.85
442.87	17385.50
443.05	17345.71
443.24	17624.23
443.43	17764.67
443.61	17951.91
443.80	18174.26
443.98	17202.94
444.17	17359.75
444.35	18183.62
444.54	18696.20
444.73	18682.16
444.91	17355.07
445.10	16774.62
445.28	16006.92
445.47	16137.99
445.65	16170.76
445.84	16863.56
446.02	17036.76
446.21	18038.51
446.39	17474.44
446.58	17610.19
446.77	18155.54
446.95	18237.45
447.14	18829.61
447.32	19084.73
447.51	18534.70
447.69	17832.54
447.88	17668.70
448.06	17909.78
448.25	18429.38
448.43	18373.21
448.62	18260.86
448.80	18340.44
448.99	18043.19
449.17	18424.70
449.36	18424.70
449.54	19068.34
449.73	19365.59
449.91	19475.60
450.10	20238.61
450.28	20414.15
450.46	20262.02
450.65	20301.81
450.83	20336.91
451.02	19672.20
451.20	19342.19
451.39	19599.65
451.57	19227.50
451.76	19672.20
451.94	19211.12
452.13	18754.71
452.31	17507.21
452.49	17167.83
452.68	17539.97
452.86	17301.24
453.05	17776.37
453.23	18693.86
453.42	18712.58
453.60	18775.78
453.78	19379.64
453.97	18977.06
454.15	18682.16
454.34	18022.12
454.52	18726.63
454.70	18476.19
454.89	18611.94
455.07	18764.07
455.26	19124.52
455.44	19627.73
455.62	19950.73
455.81	20077.12
455.99	19892.21
456.17	19892.21
456.36	19749.44
456.54	20407.13
456.73	20133.29
456.91	20269.04
457.09	20798.00
457.28	21303.56
457.46	20617.78
457.64	19889.87
457.83	19374.95
458.01	19367.93
458.19	19728.38
458.38	19913.28
458.56	20479.69
458.74	20140.31
458.93	19814.98
459.11	19850.08
459.29	19564.54
459.48	20297.13
459.66	19243.88
459.84	20496.07
460.03	20393.09
460.21	20329.89
460.39	21521.23
460.57	20812.04
460.76	20793.32
460.94	21284.83
461.12	20531.18
461.31	20915.03
461.49	21174.83
461.67	20884.60
461.85	21357.39
462.04	21661.66
462.22	21523.57
462.40	21486.12
462.59	21273.13
462.77	21291.85
462.95	21359.73
463.13	21156.10
463.32	20812.04
463.50	21078.86
463.68	21027.37
463.86	21090.57
464.05	20510.11
464.23	20107.54
464.41	19955.41
464.59	19531.77
464.78	21167.80
464.96	21029.71
465.14	20788.64
465.32	21003.97
465.50	21453.35
465.69	21872.31
465.87	21460.37
466.05	20648.21
466.23	19850.08
466.41	19417.08
466.60	20201.16
466.78	20135.63
466.96	20168.40
467.14	20739.49
467.32	20634.16
467.51	20505.43
467.69	19845.40
467.87	20306.49
468.05	20741.83
468.23	20868.22
468.41	20905.66
468.60	20641.18
468.78	20744.17
468.96	20767.57
469.14	21294.19
469.32	21539.95
469.50	20084.14
469.69	20257.34
469.87	19704.97
470.05	20175.42
470.23	20114.56
470.41	19824.34
470.59	20313.51
470.77	20809.70
470.95	21422.92
471.14	21387.82
471.32	21514.20
471.50	22490.21
471.68	22616.60
471.86	22771.07
472.04	22490.21
472.22	22628.30
472.40	21539.95
472.58	21675.70
472.77	21280.15
472.95	21685.06
473.13	22733.62
473.31	21757.62
473.49	21799.75
473.67	22387.22
473.85	22801.50
474.03	23112.79
474.21	23789.20
474.39	23632.39
474.57	23194.71
474.75	23688.56
474.93	23325.78
475.12	22799.16
475.30	22574.47
475.48	22817.88
475.66	23269.61
475.84	23108.11
476.02	22948.95
476.20	22511.27
476.38	23330.46
476.56	23826.65
476.74	24329.87
476.92	24372.00
477.10	24577.97
477.28	25511.84
477.46	24947.77
477.64	25149.06
477.82	25188.85
478.00	25612.48
478.18	24971.18
478.36	24676.27
478.54	25188.85
478.72	25568.01
478.90	26101.65
479.08	26909.14
479.26	26759.34
479.44	26984.04
479.62	26689.13
479.80	26761.69
479.98	27168.94
480.16	27175.96
480.34	26700.83
480.52	27204.05
480.70	27744.71
480.88	27875.78
481.06	28158.99
481.24	27688.54
481.41	29167.76
481.59	29439.26
481.77	28811.99
481.95	28793.27
482.13	28601.35
482.31	28854.12
482.49	29586.71
482.67	29048.39
482.85	29202.86
483.03	29944.81
483.21	30232.70
483.39	29991.62
483.57	28875.19
483.74	28250.27
483.92	28987.53
484.10	29205.20
484.28	30026.73
484.46	30565.06
484.64	30572.08
484.82	29811.40
485.00	29558.63
485.18	28505.38
485.35	27227.45
485.53	24821.38
485.71	22925.55
485.89	23616.01
486.07	24650.52
486.25	27564.49
486.43	28912.64
486.61	28601.35
486.78	28807.31
486.96	29467.34
487.14	30637.61
487.32	30370.79
487.50	31885.12
487.68	32208.11
487.85	33453.28
488.03	32907.93
488.21	32924.32
488.39	31826.60
488.57	31365.52
488.75	32046.62
488.92	32816.65
489.10	34410.56
489.28	35360.81
489.46	36552.15
489.64	35679.13
489.81	36725.35
489.99	35866.37
490.17	36589.59
490.35	35959.99
490.53	35651.04
490.70	34930.16
490.88	34682.06
491.06	36517.04
491.24	35974.03
491.41	34073.52
491.59	32577.92
491.77	32240.88
491.95	34342.68
492.13	35969.35
492.30	36692.58
492.48	38094.56
492.66	38333.29
492.84	37329.20
493.01	37869.87
493.19	36790.88
493.37	37134.94
493.54	37617.09
493.72	38462.02
493.90	39395.90
494.08	38820.13
494.25	40371.90
494.43	40322.75
494.61	40238.49
494.79	40556.80
494.96	40072.31
495.14	39566.76
495.32	38607.14
495.49	38356.70
495.67	39728.25
495.85	41165.34
496.02	41406.42
496.20	40924.27
496.38	40020.82
496.55	40797.88
496.73	40844.69
496.91	40517.01
497.09	42422.21
497.26	41883.89
497.44	40741.71
497.62	40481.91
497.79	39386.54
497.97	37830.08
498.14	39379.51
498.32	41120.87
498.50	41291.73
498.67	41186.41
498.85	42057.09
499.03	41766.86
499.20	42354.33
499.38	42871.59
499.56	42237.31
499.73	40858.73
499.91	39562.08
500.08	38986.30
500.26	38728.84
500.44	39590.16
500.61	40444.46
500.79	40472.54
500.97	39000.35
501.14	39339.72
501.32	39070.56
501.49	39583.14
501.67	40547.44
501.84	40582.55
502.02	41647.49
502.20	41808.99
502.37	41916.65
502.55	42305.18
502.72	42993.30
502.90	43253.10
503.07	42127.30
503.25	41776.22
503.43	40196.36
503.60	40062.95
503.78	39173.55
503.95	40297.00
504.13	42047.72
504.30	42878.61
504.48	42078.15
504.65	41710.69
504.83	41706.01
505.01	42632.86
505.18	42569.66
505.36	43847.60
505.53	44189.31
505.71	44996.80
505.88	45443.84
506.06	44259.53
506.23	43798.44
506.41	43208.63
506.58	43746.95
506.76	42682.01
506.93	42511.15
507.11	42506.47
507.28	42887.98
507.46	42045.38
507.63	41799.63
507.81	40968.74
507.98	42054.75
508.16	42953.51
508.33	43889.73
508.50	43452.05
508.68	44247.83
508.85	45336.18
509.03	44994.46
509.20	45071.70
509.38	43384.17
509.55	43353.74
509.73	43489.49
509.90	43599.50
510.08	43026.07
510.25	42476.04
510.42	42686.69
510.60	43438.00
510.77	44868.07
510.95	46003.23
511.12	45064.67
511.30	46511.13
511.47	45361.92
511.64	45055.31
511.82	44203.36
511.99	42895.00
512.17	42789.67
512.34	42834.14
512.51	42855.21
512.69	42548.60
512.86	42731.16
513.04	44299.32
513.21	43927.17
513.38	43393.53
513.56	41736.43
513.73	41427.48
513.90	42134.32
514.08	41148.96
514.25	42862.23
514.43	42735.84
514.60	42323.91
514.77	41909.63
514.95	44439.75
515.12	43866.32
515.29	43407.58
515.47	43662.69
515.64	44933.60
515.81	44498.26
515.99	42192.84
516.16	39386.54
516.33	37125.58
516.51	36467.89
516.68	34932.50
516.85	34307.57
517.03	36259.58
517.20	39012.05
517.37	42789.67
517.54	43405.23
517.72	40751.07
517.89	38780.34
518.06	37596.03
518.24	38148.39
518.41	39517.60
518.58	42536.90
518.75	42742.86
518.93	41783.24
519.10	42043.04
519.27	42117.94
519.45	42939.47
519.62	43906.11
519.79	43725.89
519.96	44287.62
520.14	42892.66
520.31	41694.30
520.48	42354.33
520.65	43512.90
520.83	44847.00
521.00	44119.10
521.17	43838.23
521.34	44533.37
521.52	44912.54
521.69	44018.46
521.86	44987.44
522.03	44940.63
522.20	42305.18
522.38	42066.45
522.55	42059.43
522.72	42230.29
522.89	42511.15
523.07	42553.28
523.24	43150.12
523.41	44823.60
523.58	45205.11
523.75	45319.79
523.92	45385.33
524.10	44748.70
524.27	45703.64
524.44	44992.12
524.61	44374.22
524.78	43538.65
524.96	44175.27
525.13	43941.22
525.30	44828.28
525.47	45467.25
525.64	45720.02
525.81	43175.86
525.98	40968.74
526.16	40449.14
526.33	38419.89
526.50	37574.96
526.67	37223.88
526.84	39297.59
527.01	41212.15
527.18	41895.59
527.36	44072.29
527.53	43807.81
527.70	43746.95
527.87	42974.58
528.04	43133.73
528.21	44135.48
528.38	45677.90
528.55	46174.09
528.72	47054.13
528.89	47260.10
529.07	46380.06
529.24	43658.01
529.41	42990.96
529.58	43447.36
529.75	43456.73
529.92	44631.68
530.09	45209.79
530.26	45745.77
530.43	46906.68
530.60	46017.27
530.77	45528.10
530.94	46117.92
531.11	45057.65
531.28	44451.45
531.46	44385.92
531.63	44772.11
531.80	44240.81
531.97	42988.62
532.14	41773.88
532.31	40334.45
532.48	41748.14
532.65	41408.76
532.82	42232.63
532.99	44144.84
533.16	44549.76
533.33	43955.26
533.50	42141.35
533.67	43229.69
533.84	43543.33
534.01	43548.01
534.18	44182.29
534.35	44509.97
534.52	43456.73
534.69	44996.80
534.86	45052.97
535.03	44194.00
535.20	45563.21
535.37	46337.93
535.54	46312.18
535.71	45535.12
535.88	44009.09
536.05	44004.41
536.22	43171.18
536.38	43187.56
536.55	41373.65
536.72	41228.54
536.89	41617.07
537.06	41991.55
537.23	44449.11
537.40	44610.61
537.57	44928.92
537.74	44275.91
537.91	45022.54
538.08	43903.77
538.25	43943.56
538.42	44266.55
538.59	43910.79
538.75	42153.05
538.92	42466.68
539.09	42253.69
539.26	41895.59
539.43	42281.78
539.60	42192.84
539.77	43782.06
539.94	42188.16
540.11	40975.76
540.28	40329.77
540.44	40114.44
540.61	41923.68
540.78	42932.45
540.95	43063.52
541.12	42707.76
541.29	42506.47
541.46	43381.83
541.62	43655.67
541.79	43749.29
541.96	42218.58
542.13	41572.60
542.30	41640.47
542.47	41464.93
542.63	41801.97
542.80	42213.90
542.97	42038.36
543.14	41425.14
543.31	42094.53
543.48	43702.48
543.64	43866.32
543.81	43810.15
543.98	44360.17
544.15	42394.12
544.32	42251.35
544.48	43643.97
544.65	43718.87
544.82	43466.09
544.99	42712.44
545.16	42017.30
545.32	41933.04
545.49	43356.08
545.66	42532.22
545.83	41947.08
546.00	42614.13
546.16	41944.74
546.33	42871.59
546.50	42539.24
546.67	44098.03
546.83	42731.16
547.00	42962.87
547.17	41666.22
547.34	40219.77
547.50	41715.37
547.67	41951.76
547.84	41289.39
548.00	42422.21
548.17	42515.83
548.34	41729.41
548.51	41626.43
548.67	43320.98
548.84	43540.99
549.01	44245.49
549.18	42564.98
549.34	42536.90
549.51	42349.65
549.68	43164.16
549.84	42777.97
550.01	41748.14
550.18	40957.03
550.34	40694.89
550.51	41111.51
550.68	42068.79
550.84	41764.52
551.01	41640.47
551.18	42124.96
551.34	42590.73
551.51	41918.99
551.68	42167.09
551.84	43030.75
552.01	42618.81
552.18	42029.00
552.34	41764.52
552.51	41563.23
552.68	41511.74
552.84	41808.99
553.01	41633.45
553.18	41345.56
553.34	41109.17
553.51	42454.98
553.67	42389.44
553.84	40938.31
554.01	42036.02
554.17	42155.39
554.34	42113.26
554.51	41619.41
554.67	41251.94
554.84	42225.60
555.00	41827.71
555.17	41720.05
555.33	40215.08
555.50	41298.75
555.67	40456.16
555.83	39524.63
556.00	39229.72
556.16	39580.80
556.33	38525.22
556.50	40074.65
556.66	41280.03
556.83	41687.28
556.99	40730.00
557.16	39615.91
557.32	40432.75
557.49	40772.13
557.65	41029.59
557.82	40872.78
557.98	40287.64
558.15	40989.80
558.32	39328.02
558.48	37266.01
558.65	37263.67
558.81	37046.00
558.98	37993.92
559.14	38920.77
559.31	39423.98
559.47	38623.52
559.64	38064.13
559.80	36545.12
559.97	37972.85
560.13	40030.18
560.30	39988.05
560.46	40837.67
560.63	41015.55
560.79	42199.86
560.96	40325.09
561.12	38206.90
561.29	37886.25
561.45	37050.68
561.61	37720.07
561.78	38527.56
561.94	39019.07
562.11	38759.27
562.27	39735.27
562.44	39704.85
562.60	40212.74
562.77	40383.60
562.93	39533.99
563.10	37734.12
563.26	38113.28
563.42	38103.92
563.59	37350.27
563.75	37783.27
563.92	37549.21
564.08	38124.99
564.24	38314.57
564.41	37916.68
564.57	39377.17
564.74	38375.42
564.90	37809.01
565.07	37942.42
565.23	37703.69
565.39	37074.09
565.56	36245.54
565.72	35459.12
565.88	35559.76
566.05	37359.63
566.21	38651.61
566.38	36636.41
566.54	38005.62
566.70	38171.80
566.87	39136.10
567.03	38103.92
567.19	37493.04
567.36	37989.24
567.52	37488.36
567.68	37553.90
567.85	36947.70
568.01	35503.59
568.17	36683.22
568.34	37345.59
568.50	36893.86
568.66	37331.54
568.83	37240.26
568.99	36774.50
569.15	37244.94
569.32	37916.68
569.48	36734.71
569.64	36081.70
569.81	36341.50
569.97	36182.34
570.13	37074.09
570.30	36758.11
570.46	35349.11
570.62	34639.93
570.78	35105.70
570.95	35931.90
571.11	36385.97
571.27	36601.30
571.43	36203.41
571.60	36025.53
571.76	36938.33
571.92	37488.36
572.09	36788.54
572.25	37628.79
572.41	38230.31
572.57	38593.09
572.74	38052.43
572.90	37273.03
573.06	36933.65
573.22	36044.25
573.38	36275.96
573.55	37010.89
573.71	35887.43
573.87	35484.86
574.03	35878.07
574.20	36477.25
574.36	36203.41
574.52	36889.18
574.68	35194.64
574.84	34485.45
575.01	34948.88
575.17	35452.09
575.33	35634.66
575.49	34852.92
575.65	34831.85
575.82	35297.62
575.98	35070.59
576.14	35112.72
576.30	35211.02
576.46	34719.51
576.62	35632.32
576.79	35529.33
576.95	34279.49
577.11	34134.37
577.27	34986.33
577.43	35103.35
577.59	34705.46
577.75	34799.08
577.92	33102.20
578.08	32835.38
578.24	33984.58
578.40	33303.48
578.56	33713.08
578.72	33614.77
578.88	33464.98
579.04	34263.10
579.21	34050.11
579.37	34377.79
579.53	35199.32
579.69	36074.68
579.85	34541.63
580.01	34841.21
580.17	34040.75
580.33	35037.82
580.49	34719.51
580.65	33820.74
580.82	34204.59
580.98	34665.67
581.14	35501.25
581.30	34803.77
581.46	34834.19
581.62	34312.25
581.78	34307.57
581.94	35077.61
582.10	35393.58
582.26	35154.85
582.42	34618.86
582.58	34756.96
582.74	34866.96
582.90	34785.04
583.06	34600.14
583.22	34494.82
583.38	35316.34
583.54	34693.76
583.70	34562.69
583.86	34700.78
584.02	35051.86
584.18	34642.27
584.34	34043.09
584.50	34150.76
584.66	33188.80
584.82	33439.23
584.98	34485.45
585.14	33502.43
585.30	32875.16
585.46	33118.58
585.62	32498.34
585.78	32968.79
585.94	32833.04
586.10	31999.80
586.26	32339.18
586.42	33282.42
586.58	33593.71
586.74	33961.17
586.90	33546.90
587.06	33083.47
587.22	33792.65
587.38	32875.16
587.54	32208.11
587.70	31901.50
587.86	31047.21
588.02	30834.22
588.18	30946.56
588.34	29259.04
588.49	27835.99
588.65	27491.93
588.81	28264.31
588.97	26785.09
589.13	27246.18
589.29	27765.78
589.45	28421.13
589.61	28709.01
589.77	30462.07
589.93	30733.57
590.08	30061.84
590.24	31302.32
590.40	30429.30
590.56	30635.27
590.72	31367.86
590.88	29921.41
591.04	30476.12
591.20	29771.61
591.35	29816.08
591.51	29823.11
591.67	31140.83
591.83	30118.01
591.99	30445.69
592.15	30663.36
592.31	30845.92
592.46	30061.84
592.62	30628.25
592.78	31332.75
592.94	31218.07
593.10	31529.36
593.26	31477.86
593.41	30249.08
593.57	29699.06
593.73	30113.33
593.89	29860.55
594.05	29958.86
594.20	29771.61
594.36	29488.41
594.52	28566.24
594.68	28664.54
594.84	29193.50
594.99	30359.09
595.15	28732.42
595.31	28854.12
595.47	29809.06
595.62	30307.60
595.78	30167.16
595.94	30710.17
596.10	28889.23
596.25	29163.08
596.41	29642.88
596.57	30363.77
596.73	30015.03
596.88	30445.69
597.04	29378.40
597.20	28730.08
597.36	28266.65
597.51	29596.07
597.67	29008.60
597.83	29214.57
597.99	29076.48
598.14	28383.68
598.30	28360.27
598.46	28285.37
598.61	29179.46
598.77	28334.53
598.93	28233.88
599.09	28379.00
599.24	30265.47
599.40	28980.51
599.56	29394.79
599.71	29364.36
599.87	28694.97
600.03	27955.36
600.18	27936.63
600.34	27459.16
600.50	28591.98
600.65	28343.89
600.81	28634.11
600.97	28467.94
601.12	28112.17
601.28	27524.70
601.44	27501.29
601.59	28837.74
601.75	27271.92
601.91	27309.37
602.06	27953.02
602.22	29053.07
602.37	28631.77
602.53	28903.28
602.69	28823.70
602.84	29207.55
603.00	29184.14
603.16	29839.49
603.31	28816.68
603.47	28184.73
603.62	28800.29
603.78	28655.18
603.94	28070.04
604.09	28484.32
604.25	28716.03
604.40	28287.71
604.56	29097.54
604.71	30108.65
604.87	30082.91
605.03	29223.93
605.18	28912.64
605.34	28652.84
605.49	27751.73
605.65	28280.69
605.80	27779.82
605.96	28481.98
606.12	27573.85
606.27	28327.50
606.43	26888.07
606.58	26981.70
606.74	28039.62
606.89	28278.35
607.05	28196.43
607.20	27316.39
607.36	26881.05
607.51	27330.44
607.67	27351.50
607.82	27138.51
607.98	26279.54
608.13	26752.32
608.29	27501.29
608.44	27243.84
608.60	28004.51
608.75	26225.70
608.91	27159.58
609.06	27683.86
609.22	27559.81
609.37	27161.92
609.53	27147.87
609.68	25743.55
609.84	25373.75
609.99	26251.45
610.15	25565.67
610.30	27033.19
610.46	26651.68
610.61	26572.10
610.76	26609.55
610.92	26040.80
611.07	26923.18
611.23	26754.66
611.38	27150.21
611.54	27358.52
611.69	25867.60
611.84	25549.29
612.00	24910.32
612.15	25872.28
612.31	25972.92
612.46	26366.13
612.62	26249.11
612.77	26328.69
612.92	26565.08
613.08	25596.10
613.23	24554.56
613.39	24460.94
613.54	23992.83
613.69	25619.50
613.85	26132.08
614.00	26111.02
614.15	25518.86
614.31	26324.01
614.46	26305.28
614.62	25116.29
614.77	24411.79
614.92	24807.34
615.08	25692.06
615.23	24594.35
615.38	24973.52
615.54	24755.85
615.69	23847.72
615.84	23349.18
616.00	23756.44
616.15	24093.47
616.30	23318.76
616.46	23777.50
616.61	24542.86
616.76	24393.06
616.92	24900.96
617.07	25118.63
617.22	24954.79
617.37	25373.75
617.53	24919.68
617.68	24851.81
617.83	25113.95
617.99	25188.85
618.14	25165.44
618.29	24683.29
618.45	24348.59
618.60	24814.36
618.75	23913.25
618.90	24261.99
619.06	24123.90
619.21	24856.49
619.36	24299.44
619.51	23637.07
619.67	24257.31
619.82	24767.55
619.97	25446.30
620.12	25666.31
620.28	25017.99
620.43	25750.57
620.58	24212.84
620.73	24943.09
620.89	24107.52
621.04	22902.14
621.19	22466.80
621.34	22600.21
621.49	22752.35
621.65	23931.98
621.80	24140.29
621.95	23964.75
622.10	23119.81
622.25	22459.78
622.41	22679.79
622.56	22586.17
622.71	21876.99
622.86	22047.85
623.01	22293.60
623.16	22284.24
623.32	22108.70
623.47	22679.79
623.62	22015.08
623.77	23021.51
623.92	22209.34
624.07	22237.43
624.23	22045.51
624.38	22047.85
624.53	21200.57
624.68	21128.02
624.83	21319.94
624.98	21177.17
625.13	21343.35
625.29	22143.81
625.44	22211.68
625.59	21425.26
625.74	21876.99
625.89	22497.23
626.04	22068.91
626.19	22630.64
626.34	21591.44
626.49	21060.14
626.65	21432.29
626.80	21425.26
626.95	22445.74
627.10	22251.47
627.25	21909.75
627.40	21135.04
627.55	19704.97
627.70	19711.99
627.85	20077.12
628.00	20758.21
628.15	20699.70
628.30	20856.51
628.45	20451.60
628.60	20510.11
628.76	20596.71
628.91	20975.88
629.06	20463.30
629.21	22171.89
629.36	21282.49
629.51	20676.29
629.66	19585.60
629.81	19889.87
629.96	20343.94
630.11	20428.20
630.26	20149.67
630.41	20566.29
630.56	19749.44
630.71	19946.05
630.86	19960.09
631.01	20149.67
631.16	20680.97
631.31	19728.38
631.46	20304.15
631.61	20006.90
631.76	19669.86
631.91	19985.83
632.06	19833.70
632.21	20332.23
632.36	19840.72
632.51	19400.70
632.66	20318.19
632.81	19796.25
632.96	19917.96
633.10	20149.67
633.25	19831.36
633.40	19150.26
633.55	18700.88
633.70	19426.45
633.85	19300.06
634.00	19634.75
634.15	19548.15
634.30	18864.72
634.45	19178.35
634.60	19679.22
634.75	18981.74
634.90	19623.05
635.05	20128.61
635.19	19653.48
635.34	19772.85
635.49	19412.40
635.64	19096.43
635.79	19391.34
635.94	20079.46
636.09	20938.43
636.24	20568.63
636.39	20180.10
636.53	20617.78
636.68	19672.20
636.83	20049.03
636.98	20194.14
637.13	20273.72
637.28	20320.53
637.43	20561.61
637.57	20720.76
637.72	19791.57
637.87	19709.65
638.02	19218.14
638.17	19349.21
638.32	19995.20
638.46	19761.14
638.61	19309.42
638.76	19939.02
638.91	19800.93
639.06	19566.88
639.20	19220.48
639.35	18939.62
639.50	18548.75
639.65	18796.84
639.80	18867.06
639.94	18497.25
640.09	18792.16
640.24	18078.30
640.39	18003.40
640.54	17521.25
640.68	18139.15
640.83	17757.64
640.98	18572.15
641.13	19101.11
641.27	18923.23
641.42	18356.82
641.57	18546.40
641.72	18548.75
641.86	18668.11
642.01	19426.45
642.16	18937.27
642.31	18405.97
642.45	18808.54
642.60	18354.48
642.75	17881.69
642.90	17942.55
643.04	18204.69
643.19	17556.36
643.34	17596.15
643.48	17907.44
643.63	17968.29
643.78	17446.35
643.93	17081.23
644.07	17266.13
644.22	17530.61
644.37	17752.96
644.51	17556.36
644.66	17078.89
644.81	17937.87
644.95	17685.09
645.10	17549.34
645.25	17238.05
645.39	16697.38
645.54	17467.42
645.69	16886.97
645.83	16758.24
645.98	17090.59
646.13	17427.63
646.27	17088.25
646.42	17329.33
646.57	16959.52
646.71	16943.14
646.86	16809.73
647.00	16664.61
647.15	16308.85
647.30	16297.15
647.44	16135.65
647.59	16503.12
647.74	16652.91
647.88	16439.92
648.03	16388.43
648.17	15845.43
648.32	16245.66
648.47	16917.39
648.61	16791.00
648.76	16957.18
648.90	16161.40
649.05	16074.80
649.20	15859.47
649.34	15192.42
649.49	15386.68
649.63	15410.09
649.78	15641.80
649.92	16060.76
650.07	16498.44
650.21	16315.87
650.36	16613.12
650.51	16596.74
650.65	16854.20
650.80	16793.34
650.94	16318.22
651.09	16105.23
651.23	15639.46
651.38	15293.06
651.52	15421.79
651.67	15655.84
651.81	16360.34
651.96	16800.37
652.10	16343.96
652.25	16376.73
652.39	16297.15
652.54	16252.68
652.68	16641.21
652.83	16273.74
652.97	15758.83
653.12	15194.76
653.26	15681.59
653.41	15613.71
653.55	15824.36
653.70	16278.43
653.84	15681.59
653.99	16222.25
654.13	15854.79
654.27	15676.91
654.42	15737.76
654.56	15719.04
654.71	15407.75
654.85	14836.66
655.00	14855.38
655.14	14759.42
655.29	14391.95
655.43	14038.53
655.57	13317.65
655.72	12416.54
655.86	11861.84
656.01	11819.71
656.15	11683.95
656.30	12655.28
656.44	12837.84
656.58	13195.94
656.73	13235.73
656.87	14167.26
657.01	14679.84
657.16	14321.74
657.30	14413.02
657.45	14534.73
657.59	14312.38
657.73	14565.15
657.88	14541.75
658.02	15087.09
658.16	14434.08
658.31	14438.76
658.45	14305.35
658.60	14452.81
658.74	15824.36
658.88	15651.16
659.03	14590.90
659.17	14724.31
659.31	14237.48
659.46	14167.26
659.60	14771.12
659.74	14459.83
659.89	14796.87
660.03	14869.42
660.17	14537.07
660.32	14314.72
660.46	14508.98
660.60	14647.07
660.74	14497.28
660.89	14738.35
661.03	14778.14
661.17	15035.60
661.32	15803.30
661.46	15468.60
661.60	15288.38
661.74	14939.64
661.89	15367.96
662.03	15016.88
662.17	14104.07
662.31	14162.58
662.46	14270.25
662.60	13612.56
662.74	13327.01
662.88	13334.03
663.03	13895.76
663.17	14059.60
663.31	13331.69
663.45	13722.56
663.60	14036.19
663.74	13425.31
663.88	13984.70
664.02	13502.55
664.17	13930.87
664.31	12917.42
664.45	13055.51
664.59	13603.19
664.73	14349.82
664.88	14354.51
665.02	14778.14
665.16	14677.50
665.30	14445.79
665.44	14965.39
665.59	14462.17
665.73	13738.94
665.87	13673.41
666.01	13139.77
666.15	13469.78
666.29	13437.02
666.44	13532.98
666.58	13263.82
666.72	13467.44
666.86	13848.95
667.00	13666.39
667.14	13322.33
667.28	13242.75
667.43	13282.54
667.57	13549.36
667.71	13841.93
667.85	13575.11
667.99	13610.22
668.13	13312.97
668.27	13411.27
668.41	13170.19
668.56	13535.32
668.70	13352.76
668.84	13549.36
668.98	13455.74
669.12	12910.40
669.26	12285.47
669.40	12065.46
669.54	12636.55
669.68	12156.74
669.82	12159.08
669.96	12910.40
670.10	12844.86
670.25	12903.37
670.39	12383.77
670.53	11913.33
670.67	12320.58
670.81	11822.05
670.95	11941.41
671.09	12023.33
671.23	12161.42
671.37	11955.46
671.51	11681.61
671.65	11384.37
671.79	11648.85
671.93	12395.48
672.07	13018.06
672.21	11726.08
672.35	12023.33
672.49	12093.55
672.63	11541.18
672.77	11602.04
672.91	11772.89
673.05	11805.66
673.19	11164.36
673.33	11679.27
673.47	12264.41
673.61	12053.76
673.75	11494.37
673.89	11269.68
674.03	10801.57
674.17	11068.39
674.31	11473.31
674.45	11276.70
674.59	11714.38
674.73	11765.87
674.87	11421.81
675.01	10956.05
675.15	10939.66
675.29	11042.65
675.43	10516.03
675.56	10476.24
675.70	10583.90
675.84	11056.69
675.98	10558.16
676.12	10551.14
676.26	10263.25
676.40	10478.58
676.54	10637.73
676.68	10387.30
676.82	10410.70
676.96	10340.49
677.10	10150.90
677.23	10160.27
677.37	10104.09
677.51	9984.73
677.65	9958.98
677.79	9582.15
677.93	9645.35
678.07	10022.17
678.21	10415.38
678.34	10651.78
678.48	10443.47
678.62	10078.35
678.76	10183.67
678.90	10078.35
679.04	9963.66
679.18	10300.70
679.31	10347.51
679.45	9973.02
679.59	9996.43
679.73	9996.43
679.87	10162.61
680.00	10214.10
680.14	10066.64
680.28	10111.11
680.42	9701.52
680.56	9029.79
680.70	9331.72
680.83	9584.49
680.97	9877.06
681.11	9961.32
681.25	9745.99
681.39	9818.55
681.52	9659.39
681.66	9142.13
681.80	9184.26
681.94	9334.06
682.07	9544.70
682.21	9247.46
682.35	9516.62
682.49	9069.58
682.62	8943.19
682.76	8896.38
682.90	8226.98
683.04	8304.22
683.17	8348.69
683.31	8622.53
683.45	9125.75
683.59	8835.52
683.72	8538.27
683.86	8264.43
684.00	7915.69
684.13	7817.39
684.27	8119.32
684.41	8285.50
684.55	8596.79
684.68	8641.26
684.82	8720.84
684.96	8542.96
685.09	8369.76
685.23	8259.75
685.37	7976.55
685.50	7990.59
685.64	8009.31
685.78	8079.53
685.91	8461.04
686.05	8306.56
686.19	8002.29
686.32	7236.94
686.46	6427.11
686.60	5603.24
686.73	5008.75
686.87	4678.73
687.01	4835.55
687.14	5184.29
687.28	5727.29
687.42	6319.45
687.55	6073.69
687.69	6422.43
687.82	6403.71
687.96	6541.80
688.10	6476.26
688.23	7066.08
688.37	6773.51
688.50	6251.57
688.64	6277.32
688.78	6106.46
688.91	6420.09
689.05	6277.32
689.18	6296.04
689.32	6366.26
689.46	5963.68
689.59	6043.26
689.73	6361.58
689.86	6118.16
690.00	6066.67
690.13	6150.93
690.27	6188.38
690.41	5905.17
690.54	6113.48
690.68	6207.10
690.81	6300.72
690.95	6473.92
691.08	6494.99
691.22	6712.66
691.35	6436.47
691.49	6347.53
691.62	6352.21
691.76	6431.79
691.89	6340.51
692.03	6066.67
692.16	6069.01
692.30	6026.88
692.43	6122.84
692.57	6129.86
692.70	5909.85
692.84	5905.17
692.97	6167.31
693.11	5907.51
693.24	5582.18
693.38	5614.95
693.51	5984.75
693.65	5877.09
693.78	5547.07
693.92	5474.51
694.05	5451.11
694.19	5378.55
694.32	5060.24
694.45	5287.27
694.59	5362.17
694.72	5413.66
694.86	5526.00
694.99	5647.71
695.13	5563.45
695.26	5713.25
695.39	5558.77
695.53	5334.08
695.66	5533.03
695.80	5322.38
695.93	5598.56
696.07	5818.57
696.20	6111.14
696.33	6090.07
696.47	5991.77
696.60	5502.60
696.73	5334.08
696.87	5570.48
697.00	5600.90
697.14	5455.79
697.27	5633.67
697.40	5341.10
697.54	5322.38
697.67	5320.04
697.80	5458.13
697.94	5451.11
698.07	5460.47
698.21	5081.30
698.34	4793.42
698.47	4851.93
698.61	4746.61
698.74	4994.70
698.87	5018.11
699.01	4961.94
699.14	5121.09
699.27	4971.30
699.40	5137.48
699.54	5135.14
699.67	5020.45
699.80	4954.91
699.94	4620.22
700.07	4638.94
700.20	4739.58
700.34	4606.17
700.47	4528.94
700.60	4514.89
700.73	4582.77
700.87	4472.76
701.00	4587.45
701.13	4173.18
701.26	4367.44
701.40	4318.29
701.53	4407.23
701.66	4325.31
701.79	4358.08
701.93	4273.82
702.06	4238.71
702.19	4255.09
702.32	4217.65
702.46	4238.71
702.59	4355.74
702.72	4264.46
702.85	4367.44
702.99	4510.21
703.12	4428.29
703.25	4381.48
703.38	4107.64
703.51	4100.62
703.65	4388.50
703.78	4351.06
703.91	4255.09
704.04	4322.97
704.17	3995.29
704.31	4133.39
704.44	4180.20
704.57	4329.99
704.70	3936.78
704.83	4084.23
704.96	3992.95
705.10	4011.68
705.23	3988.27
>>>>>End Processed Spectral Data<<<<<
