SpectraSuite Data File
++++++++++++++++++++++++++++++++++++
Date: Mon Oct 07 14:53:35 GMT-05:00 2013
User: price-jones
Dark Spectrum Present: No
Reference Spectrum Present: No
Number of Sampled Component Spectra: 1
Spectrometers: USB2+H05261
Integration Time (usec): 100000 (USB2+H05261)
Spectra Averaged: 1 (USB2+H05261)
Boxcar Smoothing: 0 (USB2+H05261)
Correct for Electrical Dark: No (USB2+H05261)
Strobe/Lamp Enabled: No (USB2+H05261)
Correct for Detector Non-linearity: No (USB2+H05261)
Correct for Stray Light: No (USB2+H05261)
Number of Pixels in Processed Spectrum: 2048
>>>>>Begin Processed Spectral Data<<<<<
365.73	0.00
365.92	0.00
366.12	0.00
366.32	0.00
366.52	0.00
366.72	0.00
366.91	0.00
367.11	0.00
367.31	0.00
367.51	0.00
367.70	0.00
367.90	0.00
368.10	0.00
368.30	0.00
368.49	0.00
368.69	0.00
368.89	0.00
369.09	0.00
369.28	0.00
369.48	0.00
369.68	0.00
369.87	0.00
370.07	0.00
370.27	0.00
370.47	695.14
370.66	3529.53
370.86	3964.87
371.06	4407.23
371.25	4418.93
371.45	4142.75
371.65	3733.15
371.84	3445.27
372.04	3662.94
372.24	3939.12
372.44	4266.80
372.63	4121.68
372.83	3791.67
373.03	3531.87
373.22	3122.27
373.42	3267.39
373.62	3838.48
373.81	4278.50
374.01	4112.32
374.21	3829.12
374.40	3433.57
374.60	3733.15
374.79	3875.93
374.99	4821.50
375.19	5013.43
375.38	5177.26
375.58	4762.99
375.78	4713.84
375.97	4875.34
376.17	4926.83
376.37	4938.53
376.56	5320.04
376.76	5500.26
376.95	5834.96
377.15	6251.57
377.35	6445.84
377.54	6677.55
377.74	6972.46
377.93	6827.34
378.13	6726.70
378.33	6382.64
378.52	5834.96
378.72	5678.14
378.91	5469.83
379.11	5366.85
379.31	5369.19
379.50	5069.60
379.70	5593.88
379.89	6033.90
380.09	6527.75
380.28	6871.81
380.48	6640.10
380.68	6878.83
380.87	6537.12
381.07	5914.53
381.26	5572.82
381.46	5158.54
381.65	5071.94
381.85	5036.83
382.04	4507.87
382.24	4365.10
382.43	4161.47
382.63	4042.11
382.83	4147.43
383.02	4117.00
383.22	4112.32
383.41	4086.58
383.61	4461.06
383.80	5001.72
384.00	5607.92
384.19	6382.64
384.39	6553.50
384.58	6635.42
384.78	6363.92
384.97	6567.54
385.17	6235.19
385.36	5879.43
385.56	5626.65
385.75	5760.06
385.95	6237.53
386.14	6883.52
386.34	7021.61
386.53	6490.31
386.72	5937.94
386.92	6237.53
387.11	6544.14
387.31	6796.92
387.50	6607.33
387.70	6616.69
387.89	6534.78
388.09	6628.40
388.28	6476.26
388.48	6595.63
388.67	7173.74
388.86	7850.16
389.06	8477.42
389.25	8833.18
389.45	9025.11
389.64	8987.66
389.84	8835.52
390.03	8814.46
390.22	8542.96
390.42	8781.69
390.61	9425.34
390.81	10136.86
391.00	10539.43
391.19	10485.60
391.39	9891.10
391.58	9376.19
391.78	8964.25
391.97	8542.96
392.16	7894.63
392.36	7506.10
392.55	5891.13
392.75	4683.41
392.94	3775.28
393.13	3833.80
393.33	4381.48
393.52	5767.08
393.71	6883.52
393.91	8013.99
394.10	8463.38
394.29	9427.68
394.49	10029.20
394.68	10707.95
394.88	10932.64
395.07	11190.10
395.26	11054.35
395.46	10860.09
395.65	10118.14
395.84	8961.91
396.04	7501.42
396.23	6005.81
396.42	5270.89
396.62	4901.08
396.81	5722.61
397.00	7405.46
397.19	9104.68
397.39	10909.24
397.58	12135.68
397.77	13043.81
397.97	13596.17
398.16	13593.83
398.35	14347.48
398.55	14714.95
398.74	15307.10
398.93	15424.13
399.12	15307.10
399.32	14487.92
399.51	15112.84
399.70	16058.42
399.90	15702.65
400.09	16049.05
400.28	15950.75
400.47	15920.32
400.67	16929.09
400.86	17369.12
401.05	17249.75
401.24	17411.25
401.44	17448.69
401.63	17193.58
401.82	17486.14
402.01	17837.22
402.21	17867.65
402.40	18031.49
402.59	17577.42
402.78	16734.83
402.97	16161.40
403.17	16545.25
403.36	17554.02
403.55	18508.96
403.74	18923.23
403.93	17916.80
404.13	16362.69
404.32	16081.82
404.51	16798.02
404.70	18326.39
404.89	18422.36
405.09	18178.94
405.28	17633.60
405.47	17500.19
405.66	17291.88
405.85	16952.50
406.05	16435.24
406.24	16901.01
406.43	17568.06
406.62	18108.72
406.81	18602.58
407.00	17804.46
407.20	17090.59
407.39	17425.29
407.58	17956.59
407.77	18743.01
407.96	19370.27
408.15	19328.14
408.34	19714.33
408.54	20610.76
408.73	20903.32
408.92	20252.66
409.11	20051.37
409.30	18682.16
409.49	17556.36
409.68	16217.57
409.87	16163.74
410.07	17090.59
410.26	18391.93
410.45	19538.79
410.64	20102.86
410.83	20599.05
411.02	21029.71
411.21	22235.09
411.40	21778.68
411.59	21476.76
411.78	21888.69
411.98	21703.79
412.17	22015.08
412.36	21472.07
412.55	21315.26
412.74	20807.36
412.93	20236.27
413.12	21010.99
413.31	22691.49
413.50	22705.54
413.69	23349.18
413.88	22508.93
414.07	21823.16
414.26	22038.48
414.45	22576.81
414.64	22895.12
414.83	22780.43
415.02	22506.59
415.22	22483.19
415.41	23028.53
415.60	23676.86
415.79	24463.28
415.98	25542.27
416.17	25053.09
416.36	24573.28
416.55	24044.32
416.74	23679.20
416.93	22890.44
417.12	23016.83
417.31	23440.47
417.50	23321.10
417.69	24336.89
417.88	24198.80
418.07	23838.36
418.26	23396.00
418.45	23704.95
418.64	24622.44
418.83	25514.18
419.02	25025.01
419.21	24709.04
419.39	23761.12
419.58	22742.99
419.77	22782.77
419.96	23927.30
420.15	24957.13
420.34	25802.07
420.53	26909.14
420.72	27044.89
420.91	26787.43
421.10	26817.86
421.29	26452.73
421.48	25193.53
421.67	26822.54
421.86	25996.33
422.05	24109.86
422.24	21731.87
422.43	21406.54
422.61	23644.09
422.80	25750.57
422.99	25977.61
423.18	25013.31
423.37	24374.34
423.56	24278.38
423.75	24912.66
423.94	25394.81
424.13	23941.34
424.32	23992.83
424.50	24374.34
424.69	23913.25
424.88	24341.57
425.07	24098.16
425.26	23946.02
425.45	23681.54
425.64	22913.84
425.83	23218.11
426.01	24847.13
426.20	25439.28
426.39	25106.93
426.58	23550.47
426.77	21816.13
426.96	20624.80
427.15	21387.82
427.33	23644.09
427.52	24336.89
427.71	24400.08
427.90	23831.33
428.09	23817.29
428.28	23611.32
428.46	22700.86
428.65	22298.28
428.84	22843.63
429.03	23316.42
429.22	21982.31
429.40	20912.69
429.59	18848.33
429.78	16484.39
429.97	16917.39
430.16	16954.84
430.34	16912.71
430.53	16982.93
430.72	17284.86
430.91	19396.02
431.10	22583.83
431.28	26382.52
431.47	28907.96
431.66	28989.88
431.85	26604.87
432.03	24833.08
432.22	23295.35
432.41	24563.92
432.60	27110.43
432.79	28030.26
432.97	28795.61
433.16	28067.70
433.35	25970.58
433.54	23119.81
433.72	21724.85
433.91	22349.78
434.10	24898.62
434.28	26885.73
434.47	28287.71
434.66	27534.06
434.85	27084.68
435.03	26644.66
435.22	27651.09
435.41	29102.22
435.59	29024.98
435.78	29436.92
435.97	30284.19
436.16	30707.83
436.34	30129.72
436.53	29390.11
436.72	29654.59
436.90	27597.26
437.09	27960.04
437.28	27267.24
437.46	28400.06
437.65	28283.03
437.84	26331.03
438.02	24388.38
438.21	23578.56
438.40	25607.80
438.58	27618.32
438.77	28163.67
438.96	28643.48
439.14	29802.04
439.33	30249.08
439.52	30778.04
439.70	30520.59
439.89	29694.38
440.08	28627.09
440.26	28491.34
440.45	29364.36
440.63	31494.25
440.82	33207.52
441.01	32823.67
441.19	32250.24
441.38	33198.16
441.57	34199.91
441.75	35072.93
441.94	34607.16
442.12	34174.16
442.31	35262.51
442.50	35292.94
442.68	34763.98
442.87	34256.08
443.05	33921.38
443.24	34277.15
443.43	34881.00
443.61	35438.05
443.80	36285.33
443.98	34333.32
444.17	34115.65
444.35	36189.36
444.54	36170.64
444.73	36189.36
444.91	34572.05
445.10	33151.35
445.28	31662.77
445.47	31145.51
445.65	31878.10
445.84	32783.88
446.02	33916.70
446.21	34132.03
446.39	34333.32
446.58	34469.07
446.77	35323.36
446.95	35625.29
447.14	36870.46
447.32	37179.41
447.51	36341.50
447.69	35225.06
447.88	34562.69
448.06	34993.35
448.25	35723.60
448.43	36098.08
448.62	35882.75
448.80	34859.94
448.99	35737.64
449.17	35768.07
449.36	35908.50
449.54	37097.49
449.73	37883.91
449.91	38352.02
450.10	38958.22
450.28	39482.50
450.46	39344.41
450.65	39358.45
450.83	39519.95
451.02	38288.82
451.20	38117.96
451.39	37933.06
451.57	37848.80
451.76	37897.95
451.94	37666.24
452.13	36842.37
452.31	35344.43
452.49	33942.45
452.68	34209.27
452.86	34352.04
453.05	34536.94
453.23	35868.71
453.42	36517.04
453.60	37181.75
453.78	37691.99
453.97	37240.26
454.15	37666.24
454.34	36336.82
454.52	36481.93
454.70	36032.55
454.89	36418.74
455.07	36554.49
455.26	37399.42
455.44	38541.60
455.62	38696.08
455.81	39358.45
455.99	39405.26
456.17	38286.48
456.36	38403.51
456.54	39487.18
456.73	39718.89
456.91	40818.94
457.09	40119.12
457.28	41371.31
457.46	39508.24
457.64	39435.69
457.83	37996.26
458.01	37518.79
458.19	38735.87
458.38	38628.20
458.56	40013.80
458.74	39931.88
458.93	38721.82
459.11	38759.27
459.29	38436.28
459.48	38981.62
459.66	38880.98
459.84	39344.41
460.03	39620.59
460.21	39632.29
460.39	40559.14
460.57	40821.28
460.76	41085.76
460.94	41034.27
461.12	40566.16
461.31	40524.04
461.49	40069.97
461.67	40563.82
461.85	42059.43
462.04	41347.90
462.22	42005.59
462.40	41518.76
462.59	41677.92
462.77	41596.00
462.95	41804.31
463.13	40914.90
463.32	40472.54
463.50	40533.40
463.68	40376.58
463.86	40371.90
464.05	40163.59
464.23	39089.29
464.41	39393.56
464.59	38878.64
464.78	40517.01
464.96	40144.87
465.14	39634.63
465.32	40678.51
465.50	41811.33
465.69	41787.92
465.87	41109.17
466.05	40243.17
466.23	38724.16
466.41	37680.28
466.60	38745.23
466.78	38529.90
466.96	39445.05
467.14	40032.52
467.32	40474.88
467.51	40781.49
467.69	38794.38
467.87	39548.03
468.05	40076.99
468.23	40203.38
468.41	40783.83
468.60	40369.56
468.78	40596.59
468.96	40477.22
469.14	40978.10
469.32	41237.90
469.50	39564.42
469.69	39686.12
469.87	39367.81
470.05	38808.42
470.23	38759.27
470.41	39115.03
470.59	39896.77
470.77	39990.39
470.95	41048.32
471.14	41198.11
471.32	40765.11
471.50	43749.29
471.68	43758.66
471.86	43791.42
472.04	44058.24
472.22	44175.27
472.40	41743.45
472.58	41727.07
472.77	40966.40
472.95	42066.45
473.13	43079.90
473.31	42103.90
473.49	42581.37
473.67	43049.47
473.85	43447.36
474.03	44486.56
474.21	44568.48
474.39	45017.86
474.57	45144.25
474.75	44921.90
474.93	44500.61
475.12	44168.25
475.30	43847.60
475.48	44140.16
475.66	44584.86
475.84	44315.70
476.02	43538.65
476.20	43021.39
476.38	43997.39
476.56	45174.68
476.74	45844.07
476.92	45504.70
477.10	46307.50
477.28	47395.85
477.46	47758.63
477.64	48025.45
477.82	48252.48
478.00	48287.59
478.18	47665.01
478.36	47517.56
478.54	47241.37
478.72	47988.00
478.90	48811.87
479.08	49654.47
479.26	50110.87
479.44	50061.72
479.62	50024.27
479.80	49820.64
479.98	50057.04
480.16	50614.08
480.34	50167.04
480.52	50417.48
480.70	50447.91
480.88	50450.25
481.06	51030.70
481.24	51435.61
481.41	52303.95
481.59	52718.23
481.77	52509.92
481.95	51971.60
482.13	51573.70
482.31	52006.70
482.49	52575.45
482.67	52207.99
482.85	52683.12
483.03	52907.81
483.21	53289.32
483.39	53422.73
483.57	52687.80
483.74	52446.72
483.92	52465.45
484.10	52954.62
484.28	53738.70
484.46	53642.74
484.64	53893.18
484.82	53546.78
485.00	53251.87
485.18	52322.68
485.35	51557.32
485.53	49010.82
485.71	45076.38
485.89	44252.51
486.07	46080.47
486.25	49668.51
486.43	51744.56
486.61	52346.08
486.78	52336.72
486.96	52561.41
487.14	53717.64
487.32	54485.33
487.50	55365.37
487.68	55639.22
487.85	56460.74
488.03	56392.87
488.21	55870.93
488.39	55316.22
488.57	54822.37
488.75	54298.09
488.92	55395.80
489.10	57116.09
489.28	58192.74
489.46	58876.18
489.64	58653.82
489.81	58712.34
489.99	58567.23
490.17	58714.68
490.35	58922.99
490.53	58616.38
490.70	58127.20
490.88	58159.97
491.06	58922.99
491.24	58838.73
491.41	58028.90
491.59	56420.95
491.77	55786.67
491.95	56903.10
492.13	57792.51
492.30	58789.58
492.48	59686.00
492.66	60065.17
492.84	60102.62
493.01	59838.14
493.19	59391.09
493.37	58958.09
493.54	58850.43
493.72	59489.40
493.90	60449.02
494.08	60898.40
494.25	61144.16
494.43	61097.34
494.61	61462.47
494.79	61736.31
494.96	61497.58
495.14	60882.02
495.32	60282.84
495.49	59606.42
495.67	60533.28
495.85	61638.01
496.02	62092.07
496.20	62007.81
496.38	61544.39
496.55	61439.06
496.73	61911.85
496.91	61829.93
497.09	62532.09
497.26	62672.52
497.44	62080.37
497.62	61733.97
497.79	61095.00
497.97	59980.91
498.14	60163.47
498.32	60963.93
498.50	61773.76
498.67	62354.21
498.85	62305.06
499.03	62361.23
499.20	62714.65
499.38	62625.71
499.56	62274.63
499.73	62042.92
499.91	61745.67
500.08	61291.61
500.26	60711.16
500.44	60842.23
500.61	61750.35
500.79	61546.73
500.97	61190.97
501.14	61137.13
501.32	60942.87
501.49	60860.95
501.67	61071.60
501.84	61619.28
502.02	61755.03
502.20	62026.54
502.37	62239.53
502.55	62302.72
502.72	62635.08
502.90	63187.44
503.07	63009.56
503.25	62663.16
503.43	61827.59
503.60	61244.80
503.78	60706.47
503.95	61099.68
504.13	62220.80
504.30	63039.99
504.48	63018.92
504.65	62468.90
504.83	62560.18
505.01	62920.62
505.18	63234.25
505.36	64018.33
505.53	63894.28
505.71	64044.08
505.88	64076.85
506.06	63707.04
506.23	63339.58
506.41	63168.72
506.58	63320.85
506.76	63196.80
506.93	63220.21
507.11	62944.03
507.28	63210.85
507.46	62831.68
507.63	62237.19
507.81	62134.20
507.98	62173.99
508.16	62756.78
508.33	63203.83
508.50	63732.79
508.68	63868.54
508.85	64196.21
509.03	64446.65
509.20	64224.30
509.38	63508.10
509.55	62644.44
509.73	62920.62
509.90	63416.82
510.08	63580.65
510.25	63547.89
510.42	63384.05
510.60	63341.92
510.77	63716.40
510.95	64062.80
511.12	64147.06
511.30	64603.47
511.47	64720.49
511.64	64720.49
511.82	64409.20
511.99	63678.96
512.17	63255.32
512.34	62927.64
512.51	62990.84
512.69	63257.66
512.86	63299.79
513.04	63627.46
513.21	63786.62
513.38	63372.34
513.56	62845.72
513.73	62536.77
513.90	62611.67
514.08	62686.57
514.25	62948.71
514.43	63093.82
514.60	63126.59
514.77	63341.92
514.95	63229.57
515.12	63278.72
515.29	63547.89
515.47	63913.01
515.64	64184.51
515.81	63870.88
515.99	63433.20
516.16	62169.31
516.33	60023.04
516.51	58859.79
516.68	58253.59
516.85	57778.46
517.03	58073.37
517.20	60339.01
517.37	62616.35
517.54	63346.60
517.72	63000.20
517.89	61183.94
518.06	58859.79
518.24	59089.16
518.41	61050.53
518.58	62141.22
518.75	62347.19
518.93	62480.60
519.10	62300.38
519.27	62803.59
519.45	63014.24
519.62	63688.32
519.79	64095.57
519.96	63828.75
520.14	63304.47
520.31	62649.12
520.48	62651.46
520.65	62850.41
520.83	63716.40
521.00	64149.40
521.17	63643.85
521.34	63482.35
521.52	63716.40
521.69	64182.17
521.86	64678.36
522.03	64423.25
522.20	63185.10
522.38	62150.59
522.55	62314.42
522.72	62976.79
522.89	62819.98
523.07	63192.12
523.24	63522.14
523.41	64289.84
523.58	64617.51
523.75	64947.53
523.92	64757.94
524.10	64793.05
524.27	64762.62
524.44	64430.27
524.61	64308.56
524.78	64151.74
524.96	64116.64
525.13	64210.26
525.30	64444.31
525.47	64879.65
525.64	64739.22
525.81	64189.19
525.98	62887.85
526.16	61434.38
526.33	61006.06
526.50	60711.16
526.67	60582.43
526.84	60987.34
527.01	61675.46
527.18	62602.31
527.36	63252.98
527.53	63866.20
527.70	64282.81
527.87	63742.15
528.04	63285.75
528.21	63758.53
528.38	64453.67
528.55	64839.86
528.72	65120.73
528.89	65219.03
529.07	65022.42
529.24	64720.49
529.41	63922.37
529.58	63222.55
529.75	63400.43
529.92	63931.73
530.09	64334.31
530.26	64615.17
530.43	64786.03
530.60	64891.35
530.77	65165.20
530.94	65034.13
531.11	64734.54
531.28	64338.99
531.46	64308.56
531.63	64388.14
531.80	64329.62
531.97	63884.92
532.14	63290.43
532.31	62377.62
532.48	61911.85
532.65	61853.34
532.82	62604.65
532.99	63685.98
533.16	63875.56
533.33	64474.74
533.50	64282.81
533.67	63756.19
533.84	63295.11
534.01	63454.26
534.18	63653.21
534.35	63772.58
534.52	63814.71
534.69	64046.42
534.86	64247.71
535.03	64371.75
535.20	65043.49
535.37	65207.32
535.54	65169.88
535.71	64921.78
535.88	64652.62
536.05	64030.04
536.22	63561.93
536.38	63566.61
536.55	62997.86
536.72	62548.48
536.89	62293.36
537.06	63269.36
537.23	63905.99
537.40	64271.11
537.57	64203.24
537.74	64102.59
537.91	63971.52
538.08	63756.19
538.25	63840.45
538.42	64205.58
538.59	63856.84
538.75	63503.42
538.92	63206.17
539.09	63145.31
539.26	62714.65
539.43	62782.53
539.60	62782.53
539.77	62848.06
539.94	62866.79
540.11	62258.25
540.28	61787.80
540.44	61872.06
540.61	61956.32
540.78	62124.84
540.95	62695.93
541.12	62855.09
541.29	63201.49
541.46	63384.05
541.62	63547.89
541.79	63435.54
541.96	62986.16
542.13	62728.70
542.30	63107.86
542.47	63325.53
542.63	62995.52
542.80	62948.71
542.97	63018.92
543.14	62852.75
543.31	62953.39
543.48	63384.05
543.64	64058.12
543.81	64301.54
543.98	64100.25
544.15	63458.94
544.32	63039.99
544.48	62997.86
544.65	63339.58
544.82	63763.21
544.99	63430.86
545.16	63065.73
545.32	62808.28
545.49	63421.50
545.66	63992.59
545.83	63800.66
546.00	63274.04
546.16	62906.58
546.33	62953.39
546.50	63103.18
546.67	63465.97
546.83	63147.65
547.00	63149.99
547.17	62672.52
547.34	62026.54
547.50	62005.47
547.67	62522.73
547.84	62361.23
548.00	62623.37
548.17	63210.85
548.34	63049.35
548.51	63182.76
548.67	63229.57
548.84	63187.44
549.01	63042.33
549.18	63056.37
549.34	63000.20
549.51	62859.77
549.68	62965.09
549.84	62653.80
550.01	62745.08
550.18	62688.91
550.34	62365.91
550.51	62665.50
550.68	63009.56
550.84	62232.50
551.01	62478.26
551.18	62326.13
551.34	62501.67
551.51	63098.50
551.68	63185.10
551.84	63084.46
552.01	62761.47
552.18	62838.70
552.34	62134.20
552.51	61750.35
552.68	61612.26
552.84	62239.53
553.01	62412.73
553.18	62429.11
553.34	62396.34
553.51	62466.56
553.67	62801.25
553.84	62798.91
554.01	62604.65
554.17	62597.63
554.34	62721.68
554.51	62827.00
554.67	63117.23
554.84	62815.30
555.00	62424.43
555.17	62302.72
555.33	62361.23
555.50	62539.11
555.67	62276.97
555.83	62183.35
556.00	62010.15
556.16	61944.62
556.33	61591.20
556.50	61581.84
556.66	61623.96
556.83	61247.14
556.99	61460.13
557.16	61577.15
557.32	61886.10
557.49	61986.75
557.65	61982.07
557.82	61865.04
557.98	61888.45
558.15	61457.79
558.32	60844.57
558.48	60020.70
558.65	59987.93
558.81	60383.48
558.98	60924.14
559.14	60992.02
559.31	61052.87
559.47	61055.21
559.64	60821.16
559.80	60200.92
559.97	60404.55
560.13	60718.18
560.30	61455.45
560.46	62255.91
560.63	62319.10
560.79	62159.95
560.96	61815.89
561.12	60832.86
561.29	59952.82
561.45	60308.58
561.61	60678.39
561.78	61055.21
561.94	61069.26
562.11	61080.96
562.27	60743.92
562.44	60985.00
562.60	61153.52
562.77	61488.21
562.93	61403.95
563.10	61237.78
563.26	60786.05
563.42	60917.12
563.59	60917.12
563.75	60622.22
563.92	60605.83
564.08	60750.94
564.24	60877.33
564.41	60797.76
564.57	60729.88
564.74	60863.29
564.90	60643.28
565.07	60486.46
565.23	60133.04
565.39	59763.24
565.56	59608.76
565.72	59306.83
565.88	59744.51
566.05	59929.42
566.21	59877.93
566.38	59969.21
566.54	60027.72
566.70	60360.08
566.87	60755.63
567.03	60582.43
567.19	60837.54
567.36	60472.42
567.52	60481.78
567.68	60423.27
567.85	59547.91
568.01	59447.27
568.17	59440.24
568.34	59234.28
568.50	58913.62
568.66	59243.64
568.83	59604.08
568.99	59613.44
569.15	59845.16
569.32	59597.06
569.48	59355.99
569.64	59540.89
569.81	59168.74
569.97	58939.37
570.13	58763.83
570.30	58719.36
570.46	58323.81
570.62	57993.79
570.78	57853.36
570.95	58183.38
571.11	58445.52
571.27	58745.11
571.43	58939.37
571.60	59028.31
571.76	59327.90
571.92	59470.67
572.09	59592.38
572.25	59557.27
572.41	59622.81
572.57	59409.82
572.74	59538.55
572.90	59040.01
573.06	59096.19
573.22	59044.69
573.38	59236.62
573.55	59091.51
573.71	59304.49
573.87	59049.38
574.03	59021.29
574.20	58859.79
574.36	58773.19
574.52	58614.04
574.68	58611.70
574.84	57970.39
575.01	57893.15
575.17	57574.84
575.33	58054.65
575.49	58333.17
575.65	58403.39
575.82	58073.37
575.98	57752.72
576.14	57972.73
576.30	58337.85
576.46	58527.44
576.62	58550.84
576.79	58412.75
576.95	58190.40
577.11	58164.65
577.27	58288.70
577.43	58321.47
577.59	57874.43
577.75	57525.69
577.92	56870.34
578.08	56797.78
578.24	56886.72
578.40	57209.71
578.56	57216.74
578.72	57556.11
578.88	57436.75
579.04	57701.23
579.21	57769.10
579.37	57743.36
579.53	57956.35
579.69	57766.76
579.85	57989.11
580.01	57855.70
580.17	57401.64
580.33	57406.32
580.49	57567.82
580.65	57698.89
580.82	57591.22
580.98	57764.42
581.14	57684.84
581.30	57631.01
581.46	57818.25
581.62	57663.78
581.78	57736.34
581.94	57858.04
582.10	57869.75
582.26	57785.49
582.42	58124.86
582.58	58085.07
582.74	57827.62
582.90	57869.75
583.06	57769.10
583.22	57759.74
583.38	57354.83
583.54	57521.01
583.70	57581.86
583.86	57544.41
584.02	57542.07
584.18	57586.54
584.34	57502.28
584.50	57614.63
584.66	57235.46
584.82	57015.45
584.98	56959.28
585.14	56743.95
585.30	56177.54
585.46	56011.36
585.62	55796.03
585.78	55948.17
585.94	56233.71
586.10	56451.38
586.26	56521.60
586.42	56839.91
586.58	57010.77
586.74	57043.54
586.90	57050.56
587.06	56442.02
587.22	56636.28
587.38	56306.27
587.54	56332.01
587.70	56222.01
587.86	55819.44
588.02	55735.18
588.18	55440.27
588.34	54569.59
588.49	53031.86
588.65	51309.22
588.81	50674.94
588.97	51512.85
589.13	50796.65
589.29	50817.71
589.45	51672.01
589.61	52861.00
589.77	53708.27
589.93	54356.60
590.08	54836.41
590.24	55131.32
590.40	55238.98
590.56	55473.04
590.72	55037.70
590.88	54752.15
591.04	54564.91
591.20	54398.73
591.35	54637.47
591.51	54546.18
591.67	54272.34
591.83	54534.48
591.99	54763.85
592.15	54644.49
592.31	55140.68
592.46	54759.17
592.62	54525.12
592.78	54178.72
592.94	54543.84
593.10	54162.34
593.26	54726.41
593.41	55159.41
593.57	54656.19
593.73	54279.36
593.89	53865.09
594.05	53984.46
594.20	53677.85
594.36	53602.95
594.52	53336.13
594.68	53354.85
594.84	53443.79
594.99	53904.88
595.15	54068.72
595.31	54005.52
595.47	54216.17
595.62	54178.72
595.78	54429.16
595.94	54485.33
596.10	54389.37
596.25	54157.66
596.41	53853.39
596.57	53977.43
596.73	54031.27
596.88	54012.54
597.04	54197.44
597.20	53750.40
597.36	53502.31
597.51	53504.65
597.67	53827.64
597.83	53570.18
597.99	53214.42
598.14	53216.76
598.30	52956.96
598.46	53221.44
598.61	53052.92
598.77	53198.04
598.93	53539.75
599.09	53502.31
599.24	53841.68
599.40	53586.57
599.56	53567.84
599.71	53422.73
599.87	53415.71
600.03	53212.08
600.18	53188.67
600.34	52795.46
600.50	52701.84
600.65	52528.64
600.81	53052.92
600.97	52776.74
601.12	52577.79
601.28	52753.33
601.44	52816.53
601.59	52196.29
601.75	51964.57
601.91	52210.33
602.06	51817.12
602.22	52210.33
602.37	52280.55
602.53	52467.79
602.69	52945.26
602.84	52877.38
603.00	52975.69
603.16	53310.38
603.31	53160.59
603.47	53418.05
603.62	53336.13
603.78	52774.40
603.94	52746.31
604.09	52589.50
604.25	52669.08
604.40	52521.62
604.56	52804.83
604.71	52884.40
604.87	52575.45
605.03	52252.46
605.18	52236.08
605.34	52353.10
605.49	52100.32
605.65	52189.27
605.80	52245.44
605.96	51948.19
606.12	51636.90
606.27	51622.86
606.43	51522.21
606.58	51903.72
606.74	52074.58
606.89	52236.08
607.05	52065.22
607.20	52083.94
607.36	51821.80
607.51	51728.18
607.67	51229.65
607.82	51180.49
607.98	51253.05
608.13	51140.71
608.29	51253.05
608.44	51056.45
608.60	50677.28
608.75	50899.63
608.91	50918.35
609.06	50525.14
609.22	51302.20
609.37	50857.50
609.53	50686.64
609.68	50365.99
609.84	49794.90
609.99	49574.89
610.15	49488.29
610.30	50307.47
610.46	50150.66
610.61	50677.28
610.76	50939.42
610.92	50717.07
611.07	50927.72
611.23	50710.05
611.38	50670.26
611.54	50363.65
611.69	49982.14
611.84	49312.75
612.00	48959.33
612.15	49111.46
612.31	49406.37
612.46	49195.72
612.62	49535.10
612.77	49469.56
612.92	50099.17
613.08	49216.78
613.23	48509.94
613.39	47847.57
613.54	47522.24
613.69	48051.20
613.85	47622.88
614.00	48334.40
614.15	48622.29
614.31	48413.98
614.46	48720.59
614.62	49003.80
614.77	48704.21
614.92	48814.21
615.08	48725.27
615.23	48608.25
615.38	48432.71
615.54	47271.80
615.69	46642.20
615.84	45876.84
616.00	45855.78
616.15	45844.07
616.30	46295.80
616.46	46047.70
616.61	46150.68
616.76	46630.49
616.92	46548.57
617.07	46974.55
617.22	47178.18
617.37	47573.73
617.53	47316.27
617.68	47622.88
617.83	47796.08
617.99	47583.09
618.14	47744.59
618.29	47400.53
618.45	46597.73
618.60	46501.76
618.75	46206.86
618.90	46115.58
619.06	46918.38
619.21	46579.00
619.36	47012.00
619.51	46988.60
619.67	46387.08
619.82	46773.27
619.97	47304.57
620.12	47012.00
620.28	46525.17
620.43	46506.44
620.58	47047.11
620.73	46548.57
620.89	46473.68
621.04	46073.45
621.19	46007.91
621.34	45600.66
621.49	45294.05
621.65	45312.77
621.80	45722.37
621.95	45165.32
622.10	45619.38
622.25	45361.92
622.41	45282.34
622.56	44790.83
622.71	44486.56
622.86	44294.64
623.01	43992.71
623.16	44823.60
623.32	44711.25
623.47	44814.24
623.62	44634.02
623.77	43976.33
623.92	43611.20
624.07	43540.99
624.23	43215.65
624.38	43246.08
624.53	43580.78
624.68	43629.93
624.83	43133.73
624.98	42878.61
625.13	42335.61
625.29	42529.87
625.44	42511.15
625.59	42878.61
625.74	42686.69
625.89	43262.46
626.04	43049.47
626.19	43304.59
626.34	43021.39
626.49	42988.62
626.65	42735.84
626.80	42997.98
626.95	42693.71
627.10	42377.74
627.25	42096.88
627.40	40355.52
627.55	39622.93
627.70	39751.66
627.85	40034.86
628.00	40018.48
628.15	41125.55
628.30	40816.60
628.45	41392.37
628.60	41270.67
628.76	41024.91
628.91	41097.47
629.06	41315.14
629.21	40734.68
629.36	40570.85
629.51	40229.13
629.66	39988.05
629.81	39398.24
629.96	39826.56
630.11	39887.41
630.26	40339.13
630.41	40832.99
630.56	40210.40
630.71	40774.47
630.86	40367.22
631.01	40261.90
631.16	39824.22
631.31	38607.14
631.46	38616.50
631.61	39367.81
631.76	39313.98
631.91	39604.20
632.06	39826.56
632.21	39915.50
632.36	40226.79
632.51	40299.34
632.66	40320.41
632.81	39981.03
632.96	40259.55
633.10	39194.61
633.25	39061.20
633.40	39229.72
633.55	39313.98
633.70	39131.42
633.85	39428.66
634.00	39166.52
634.15	39131.42
634.30	39655.70
634.45	39136.10
634.60	39337.38
634.75	39494.20
634.90	39365.47
635.05	39405.26
635.19	38911.41
635.34	39271.85
635.49	38857.57
635.64	38572.03
635.79	38541.60
635.94	38197.54
636.09	38766.29
636.24	38401.17
636.39	38319.25
636.53	38789.70
636.68	38609.48
636.83	38998.01
636.98	39124.40
637.13	38955.88
637.28	39321.00
637.43	38998.01
637.57	38693.74
637.72	38756.93
637.87	38684.37
638.02	38567.35
638.17	38234.99
638.32	38213.93
638.46	38536.92
638.61	38284.14
638.76	38471.39
638.91	38073.49
639.06	37577.30
639.20	37780.93
639.35	37448.57
639.50	36772.16
639.65	36776.84
639.80	36854.08
639.94	37469.64
640.09	37207.50
640.24	36978.12
640.39	36933.65
640.54	36568.53
640.68	36250.22
640.83	36573.21
640.98	36126.17
641.13	36130.85
641.27	36439.80
641.42	35887.43
641.57	36177.66
641.72	35728.28
641.86	36226.81
642.01	36161.28
642.16	36535.76
642.31	36400.01
642.45	36830.67
642.60	36463.21
642.75	36034.89
642.90	36154.26
643.04	36137.87
643.19	36126.17
643.34	35761.05
643.48	35552.74
643.63	35459.12
643.78	35447.41
643.93	35765.73
644.07	36369.58
644.22	36137.87
644.37	35807.86
644.51	35929.56
644.66	35201.66
644.81	34916.11
644.95	35215.70
645.10	34878.66
645.25	34527.58
645.39	34665.67
645.54	34609.50
645.69	34333.32
645.83	33799.68
645.98	33560.94
646.13	34225.65
646.27	34057.14
646.42	33701.37
646.57	33453.28
646.71	33546.90
646.86	34120.33
647.00	33565.62
647.15	33120.92
647.30	33207.52
647.44	33069.43
647.59	33376.04
647.74	32900.91
647.88	32751.12
648.03	32589.62
648.17	32903.25
648.32	32872.82
648.47	33256.67
648.61	33029.64
648.76	32818.99
648.90	31941.29
649.05	31133.81
649.20	30927.84
649.34	30703.15
649.49	31175.94
649.63	31438.08
649.78	32449.19
649.92	32535.79
650.07	33298.80
650.21	32882.19
650.36	33139.65
650.51	33212.20
650.65	33301.14
650.80	33219.22
650.94	32596.64
651.09	32463.23
651.23	31325.73
651.38	30955.93
651.52	31007.42
651.67	31349.14
651.81	31948.31
651.96	31765.75
652.10	31992.78
652.25	32362.59
652.39	32177.68
652.54	32236.20
652.68	32196.41
652.83	32481.95
652.97	32154.28
653.12	31779.79
653.26	32133.21
653.41	32332.16
653.55	31761.07
653.70	32135.56
653.84	31821.92
653.99	32114.49
654.13	30960.61
654.27	30555.69
654.42	30232.70
654.56	30209.29
654.71	30396.54
654.85	30492.50
655.00	30073.54
655.14	29549.26
655.29	29032.00
655.43	28945.41
655.57	27433.42
655.72	25759.94
655.86	23688.56
656.01	22326.37
656.15	22640.00
656.30	24046.66
656.44	25401.83
656.58	26738.28
656.73	27580.87
656.87	28201.11
657.01	28678.58
657.16	28840.08
657.30	29624.16
657.45	29802.04
657.59	29851.19
657.73	29919.07
657.88	29682.67
658.02	29780.98
658.16	29970.56
658.31	29832.47
658.45	29722.46
658.60	30120.35
658.74	29806.72
658.88	29448.62
659.03	29228.61
659.17	28713.69
659.31	29226.27
659.46	29046.05
659.60	29352.66
659.74	29546.92
659.89	29102.22
660.03	29593.73
660.17	29841.83
660.32	29661.61
660.46	29553.94
660.60	29518.84
660.74	29240.31
660.89	28737.10
661.03	29090.52
661.17	29345.64
661.32	28929.02
661.46	29270.74
661.60	28842.42
661.74	29083.50
661.89	28945.41
662.03	29289.46
662.17	28912.64
662.31	28519.43
662.46	28577.94
662.60	28692.63
662.74	28350.91
662.88	28107.49
663.03	27859.40
663.17	27761.09
663.31	27917.91
663.45	27524.70
663.60	27988.13
663.74	27356.18
663.88	27484.91
664.02	27431.08
664.17	27835.99
664.31	27281.28
664.45	27466.19
664.59	27735.35
664.73	28109.83
664.88	28095.79
665.02	27648.75
665.16	27524.70
665.30	27754.07
665.44	27796.20
665.59	27023.83
665.73	26892.76
665.87	26455.08
666.01	26618.91
666.15	26759.34
666.29	26663.38
666.44	26838.92
666.58	26324.01
666.72	26834.24
666.86	26796.79
667.00	26654.02
667.14	26581.46
667.28	26508.91
667.43	26010.37
667.57	26043.14
667.71	25944.84
667.85	26225.70
667.99	26312.30
668.13	25785.68
668.27	25855.90
668.41	25874.62
668.56	26068.89
668.70	26033.78
668.84	25937.82
668.98	25834.83
669.12	25537.59
669.26	25488.43
669.40	25649.93
669.54	25556.31
669.68	25345.66
669.82	25273.10
669.96	25404.17
670.10	25055.43
670.25	24992.24
670.39	24599.03
670.53	24694.99
670.67	24706.70
670.81	24800.32
670.95	24879.89
671.09	24584.99
671.23	24451.58
671.37	23969.43
671.51	24163.69
671.65	23978.79
671.79	24074.75
671.93	24219.86
672.07	24383.70
672.21	24168.37
672.35	23934.32
672.49	23866.44
672.63	23770.48
672.77	23990.49
672.91	23782.18
673.05	23859.42
673.19	24142.63
673.33	23683.88
673.47	23323.44
673.61	23768.14
673.75	23569.19
673.89	23475.57
674.03	23295.35
674.17	23300.03
674.31	23108.11
674.45	23283.65
674.59	23012.15
674.73	23005.13
674.87	22703.20
675.01	22941.93
675.15	23030.87
675.29	22679.79
675.43	22691.49
675.56	22604.89
675.70	22565.10
675.84	22464.46
675.98	21965.93
676.12	22436.38
676.26	22270.20
676.40	22242.11
676.54	22164.87
676.68	21858.26
676.82	21764.64
676.96	21734.21
677.10	21584.42
677.23	21584.42
677.37	21839.54
677.51	21682.72
677.65	21479.10
677.79	21305.90
677.93	21153.76
678.07	20762.89
678.21	20903.32
678.34	20819.07
678.48	20659.91
678.62	20465.64
678.76	20603.74
678.90	20966.52
679.04	20678.63
679.18	20582.67
679.31	20395.43
679.45	20318.19
679.59	20320.53
679.73	20159.03
679.87	19943.70
680.00	20137.97
680.14	20166.06
680.28	19765.82
680.42	19571.56
680.56	19463.90
680.70	19454.53
680.83	19648.80
680.97	19508.37
681.11	19517.73
681.25	19616.03
681.39	19524.75
681.52	19323.46
681.66	19531.77
681.80	19330.48
681.94	19339.85
682.07	19372.61
682.21	18878.76
682.35	18600.24
682.49	18719.60
682.62	18569.81
682.76	18712.58
682.90	18647.05
683.04	18490.23
683.17	18462.15
683.31	18101.70
683.45	18267.88
683.59	18216.39
683.72	17303.58
683.86	17355.07
684.00	17326.99
684.13	17376.14
684.27	17680.41
684.41	17411.25
684.55	17500.19
684.68	17472.10
684.82	17177.19
684.96	17383.16
685.09	16992.29
685.23	16791.00
685.37	16851.86
685.50	16783.98
685.64	17006.33
685.78	16493.76
685.91	16896.33
686.05	16531.20
686.19	16229.27
686.32	15468.60
686.46	13528.30
686.60	11906.31
686.73	11183.08
686.87	10658.80
687.01	10459.85
687.14	10443.47
687.28	10888.17
687.42	11307.13
687.55	11761.19
687.69	12531.23
687.82	13378.50
687.96	13624.26
688.10	13418.29
688.23	13294.24
688.37	13235.73
688.50	12915.08
688.64	12695.07
688.78	12533.57
688.91	12655.28
689.05	12585.06
689.18	12411.86
689.32	12479.74
689.46	12561.66
689.59	12592.08
689.73	12695.07
689.86	12695.07
690.00	12779.32
690.13	13121.04
690.27	12964.23
690.41	13025.08
690.54	12975.93
690.68	12737.20
690.81	12901.03
690.95	12961.89
691.08	13050.83
691.22	12779.32
691.35	12849.54
691.49	13371.48
691.62	13088.28
691.76	12793.37
691.89	13015.72
692.03	12910.40
692.16	12699.75
692.30	12784.01
692.43	12910.40
692.57	12414.20
692.70	12369.73
692.84	12301.86
692.97	12196.53
693.11	12210.57
693.24	12262.07
693.38	12131.00
693.51	11950.78
693.65	11658.21
693.78	11721.40
693.92	11611.40
694.05	11852.47
694.19	11686.29
694.32	11873.54
694.45	11705.02
694.59	11896.94
694.72	11592.67
694.86	11683.95
694.99	11501.39
695.13	11831.41
695.26	11393.73
695.39	11300.11
695.53	11391.39
695.66	11272.02
695.80	11044.99
695.93	11208.83
696.07	11332.87
696.20	11403.09
696.33	11702.68
696.47	11639.48
696.60	11866.52
696.73	11747.15
696.87	11667.57
697.00	11576.29
697.14	11456.92
697.27	11246.27
697.40	11009.88
697.54	11026.26
697.67	10743.06
697.80	10843.70
697.94	10794.55
698.07	10754.76
698.21	10525.39
698.34	10485.60
698.47	10244.52
698.61	10031.54
698.74	10146.22
698.87	10012.81
699.01	10090.05
699.14	10057.28
699.27	10218.78
699.40	10380.28
699.54	9994.09
699.67	9909.83
699.80	10015.15
699.94	9790.46
700.07	9769.40
700.20	9561.09
700.34	9404.27
700.47	9348.10
700.60	9221.71
700.73	9273.20
700.87	9324.69
701.00	9331.72
701.13	9029.79
701.26	9226.39
701.40	9020.42
701.53	9100.00
701.66	9095.32
701.79	9076.60
701.93	9195.96
702.06	8982.98
702.19	8933.82
702.32	8795.73
702.46	8875.31
702.59	8711.47
702.72	8697.43
702.85	8966.59
702.99	8975.95
703.12	9156.18
703.25	8762.97
703.38	8638.92
703.51	8746.58
703.65	8463.38
703.78	8648.28
703.91	8559.34
704.04	8758.28
704.17	8730.20
704.31	8540.61
704.44	8734.88
704.57	8608.49
704.70	8505.51
704.83	8486.78
704.96	8329.97
705.10	8280.82
705.23	8322.94
>>>>>End Processed Spectral Data<<<<<
