SpectraSuite Data File
++++++++++++++++++++++++++++++++++++
Date: Mon Oct 07 14:52:58 GMT-05:00 2013
User: price-jones
Dark Spectrum Present: No
Reference Spectrum Present: No
Number of Sampled Component Spectra: 1
Spectrometers: USB2+H05261
Integration Time (usec): 100000 (USB2+H05261)
Spectra Averaged: 1 (USB2+H05261)
Boxcar Smoothing: 0 (USB2+H05261)
Correct for Electrical Dark: No (USB2+H05261)
Strobe/Lamp Enabled: No (USB2+H05261)
Correct for Detector Non-linearity: No (USB2+H05261)
Correct for Stray Light: No (USB2+H05261)
Number of Pixels in Processed Spectrum: 2048
>>>>>Begin Processed Spectral Data<<<<<
365.73	0.00
365.92	0.00
366.12	0.00
366.32	0.00
366.52	0.00
366.72	0.00
366.91	0.00
367.11	0.00
367.31	0.00
367.51	0.00
367.70	0.00
367.90	0.00
368.10	0.00
368.30	0.00
368.49	0.00
368.69	0.00
368.89	0.00
369.09	0.00
369.28	0.00
369.48	0.00
369.68	0.00
369.87	0.00
370.07	0.00
370.27	0.00
370.47	437.68
370.66	2818.00
370.86	3246.32
371.06	3555.27
371.25	3496.76
371.45	3059.08
371.65	2708.00
371.84	2869.50
372.04	2822.69
372.24	3124.62
372.44	3339.94
372.63	3314.20
372.83	3021.63
373.03	2684.59
373.22	2401.39
373.42	2511.39
373.62	2904.60
373.81	3309.52
374.01	3330.58
374.21	2972.48
374.40	2761.83
374.60	2864.82
374.79	3141.00
374.99	3660.60
375.19	3969.55
375.38	3978.91
375.58	3681.66
375.78	3843.16
375.97	3796.35
376.17	3904.01
376.37	3808.05
376.56	3941.46
376.76	4109.98
376.95	4491.49
377.15	4734.90
377.35	4990.02
377.54	5193.65
377.74	5200.67
377.93	5277.91
378.13	5217.05
378.33	4915.12
378.52	4454.04
378.72	4241.05
378.91	4287.86
379.11	4135.73
379.31	3936.78
379.50	3847.84
379.70	4294.88
379.89	4702.14
380.09	5025.13
380.28	5139.82
380.48	5160.88
380.68	5160.88
380.87	4954.91
381.07	4655.33
381.26	4100.62
381.46	3948.48
381.65	3824.44
381.85	3803.37
382.04	3625.49
382.24	3384.41
382.43	3276.75
382.63	3192.49
382.83	3255.69
383.02	3157.38
383.22	3176.11
383.41	3136.32
383.61	3379.73
383.80	3936.78
384.00	4430.63
384.19	5006.41
384.39	5228.76
384.58	5151.52
384.78	5001.72
384.97	4917.47
385.17	4786.40
385.36	4496.17
385.56	4318.29
385.75	4503.19
385.95	4849.59
386.14	5214.71
386.34	5200.67
386.53	5008.75
386.72	4641.28
386.92	4788.74
387.11	5071.94
387.31	5291.95
387.50	5345.78
387.70	4933.85
387.89	5041.51
388.09	4919.81
388.28	5008.75
388.48	5193.65
388.67	5584.52
388.86	6200.08
389.06	6413.07
389.25	6895.22
389.45	6857.77
389.64	6874.15
389.84	6740.74
390.03	6712.66
390.22	6782.87
390.42	7075.44
390.61	7201.83
390.81	7815.05
391.00	8037.40
391.19	7997.61
391.39	7641.85
391.58	7136.29
391.78	6785.21
391.97	6506.69
392.16	6307.74
392.36	5540.05
392.55	4652.98
392.75	3471.01
392.94	2803.96
393.13	2902.26
393.33	3501.44
393.52	4461.06
393.71	5582.18
393.91	6057.31
394.10	6581.59
394.29	7307.15
394.49	7709.72
394.68	8311.24
394.88	8432.95
395.07	8674.03
395.26	8744.24
395.46	8180.17
395.65	7955.48
395.84	6820.32
396.04	5884.11
396.23	4613.20
396.42	4100.62
396.62	3698.05
396.81	4397.87
397.00	5760.06
397.19	7066.08
397.39	8449.33
397.58	9687.48
397.77	10148.56
397.97	10731.36
398.16	10607.31
398.35	10988.82
398.55	11318.83
398.74	11772.89
398.93	12079.50
399.12	11658.21
399.32	11377.34
399.51	11679.27
399.70	12425.90
399.90	12140.36
400.09	12226.96
400.28	12140.36
400.47	12203.55
400.67	12996.99
400.86	13294.24
401.05	13195.94
401.24	13446.38
401.44	13380.84
401.63	13493.19
401.82	13561.06
402.01	13500.21
402.21	13755.33
402.40	13544.68
402.59	13226.37
402.78	12805.07
402.97	12367.39
403.17	13015.72
403.36	13888.74
403.55	14281.95
403.74	14518.34
403.93	13764.69
404.13	12767.62
404.32	12681.02
404.51	13238.07
404.70	14150.88
404.89	13877.04
405.09	13682.77
405.28	13532.98
405.47	13542.34
405.66	13317.65
405.85	13128.06
406.05	12566.34
406.24	12989.97
406.43	13462.76
406.62	13729.58
406.81	13944.91
407.00	13530.64
407.20	13163.17
407.39	13221.69
407.58	14216.41
407.77	14640.05
407.96	15028.58
408.15	15061.35
408.34	14949.00
408.54	15929.69
408.73	16056.08
408.92	15613.71
409.11	15178.37
409.30	14317.06
409.49	13631.28
409.68	12786.35
409.87	12599.10
410.07	13186.58
410.26	14331.10
410.45	15255.61
410.64	15440.51
410.83	15948.41
411.02	16301.83
411.21	16858.88
411.40	16830.79
411.59	16828.45
411.78	16620.14
411.98	16376.73
412.17	16753.55
412.36	16343.96
412.55	16400.13
412.74	16053.73
412.93	15999.90
413.12	16027.99
413.31	17397.20
413.50	17713.17
413.69	18050.21
413.88	17200.60
414.07	16788.66
414.26	17062.51
414.45	17657.00
414.64	17605.51
414.83	17717.86
415.02	17158.47
415.22	17532.95
415.41	17685.09
415.60	18497.25
415.79	19145.58
415.98	19112.81
416.17	19475.60
416.36	18867.06
416.55	18834.29
416.74	17881.69
416.93	17277.83
417.12	17326.99
417.31	17818.50
417.50	18200.01
417.69	18918.55
417.88	18513.64
418.07	18382.57
418.26	18059.57
418.45	18452.78
418.64	19288.35
418.83	19625.39
419.02	19566.88
419.21	19599.65
419.39	18696.20
419.58	17635.94
419.77	17694.45
419.96	18443.42
420.15	19115.16
420.34	19924.98
420.53	20807.36
420.72	20858.85
420.91	20711.40
421.10	20634.16
421.29	20311.17
421.48	19765.82
421.67	20666.93
421.86	20102.86
422.05	18855.36
422.24	17053.14
422.43	16690.36
422.61	18600.24
422.80	19892.21
422.99	19871.15
423.18	19377.30
423.37	19009.83
423.56	18927.91
423.75	19379.64
423.94	19288.35
424.13	18412.99
424.32	18796.84
424.50	18696.20
424.69	18661.09
424.88	18906.85
425.07	18703.22
425.26	18427.04
425.45	18071.28
425.64	17968.29
425.83	18338.10
426.01	19431.13
426.20	19445.17
426.39	19314.10
426.58	18134.47
426.77	16505.46
426.96	16278.43
427.15	16699.72
427.33	18307.67
427.52	18789.82
427.71	18911.53
427.90	18743.01
428.09	18361.50
428.28	17982.34
428.46	17467.42
428.65	17303.58
428.84	17757.64
429.03	18169.58
429.22	16922.07
429.40	15960.11
429.59	14698.56
429.78	13268.50
429.97	12957.21
430.16	13158.49
430.34	13329.35
430.53	13245.09
430.72	13535.32
430.91	14960.70
431.10	17776.37
431.28	20744.17
431.47	22572.13
431.66	22640.00
431.85	20678.63
432.03	18946.64
432.22	18218.73
432.41	19105.79
432.60	20840.13
432.79	21855.92
432.97	22026.78
433.16	21806.77
433.35	19812.63
433.54	17778.71
433.72	16774.62
433.91	17715.51
434.10	19744.76
434.28	20620.12
434.47	21757.62
434.66	21509.52
434.85	20910.35
435.03	20788.64
435.22	21708.47
435.41	22927.89
435.59	22609.58
435.78	23166.62
435.97	23459.19
436.16	23775.16
436.34	23056.62
436.53	22932.57
436.72	22696.17
436.90	21673.36
437.09	21488.46
437.28	21579.74
437.46	22040.82
437.65	22129.77
437.84	20353.30
438.02	18850.67
438.21	18810.89
438.40	20128.61
438.58	21130.36
438.77	22164.87
438.96	22235.09
439.14	23463.87
439.33	23679.20
439.52	24299.44
439.70	23630.05
439.89	22906.82
440.08	22054.87
440.26	22338.07
440.45	23288.33
440.63	24783.93
440.82	26040.80
441.01	25825.47
441.19	25481.41
441.38	25752.91
441.57	26703.17
441.75	27339.80
441.94	27129.15
442.12	26654.02
442.31	27744.71
442.50	27381.93
442.68	26979.36
442.87	26712.53
443.05	26384.86
443.24	27014.46
443.43	27356.18
443.61	27793.86
443.80	28402.40
443.98	26412.95
444.17	26820.20
444.35	28360.27
444.54	28458.57
444.73	28027.92
444.91	26855.31
445.10	26129.74
445.28	24989.90
445.47	24460.94
445.65	24603.71
445.84	25544.61
446.02	26553.38
446.21	27178.30
446.39	26937.23
446.58	27154.90
446.77	27695.56
446.95	28023.23
447.14	28875.19
447.32	28996.90
447.51	28409.42
447.69	27309.37
447.88	27220.43
448.06	27606.62
448.25	28240.90
448.43	28379.00
448.62	27564.49
448.80	27239.15
448.99	27725.99
449.17	27934.29
449.36	27608.96
449.54	29408.83
449.73	29535.22
449.91	30080.56
450.10	30345.05
450.28	31185.30
450.46	31021.46
450.65	31218.07
450.83	30682.08
451.02	29909.71
451.20	29905.02
451.39	29888.64
451.57	29542.24
451.76	29376.06
451.94	29383.09
452.13	29329.25
452.31	27908.55
452.49	26190.59
452.68	26773.39
452.86	26960.63
453.05	27168.94
453.23	27613.64
453.42	28751.14
453.60	29450.96
453.78	29432.24
453.97	29383.09
454.15	29404.15
454.34	28999.24
454.52	28952.43
454.70	28470.28
454.89	28727.74
455.07	28851.78
455.26	29240.31
455.44	30225.68
455.62	30696.13
455.81	30993.37
455.99	30541.65
456.17	30433.99
456.36	30127.38
456.54	31571.49
456.73	31323.39
456.91	31594.89
457.09	31800.86
457.28	32409.40
457.46	31452.12
457.64	30913.80
457.83	29860.55
458.01	29193.50
458.19	30789.75
458.38	30368.45
458.56	31353.82
458.74	31227.43
458.93	30717.19
459.11	30771.02
459.29	30611.87
459.48	30672.72
459.66	30450.37
459.84	31189.98
460.03	31180.62
460.21	31201.68
460.39	32147.26
460.57	31908.52
460.76	32283.01
460.94	32772.18
461.12	32098.11
461.31	32198.75
461.49	31557.44
461.67	32250.24
461.85	33024.96
462.04	33029.64
462.22	33479.02
462.40	32903.25
462.59	32830.69
462.77	32985.17
462.95	32802.61
463.13	32453.87
463.32	32006.83
463.50	32191.73
463.68	31990.44
463.86	32400.04
464.05	31686.17
464.23	31028.48
464.41	31255.51
464.59	30576.76
464.78	32070.02
464.96	31693.19
465.14	31281.26
465.32	32016.19
465.50	33095.18
465.69	33635.84
465.87	32716.01
466.05	31920.23
466.23	30260.79
466.41	29951.84
466.60	30579.10
466.78	30710.17
466.96	31262.54
467.14	31838.31
467.32	31693.19
467.51	32217.47
467.69	30911.46
467.87	31512.97
468.05	31842.99
468.23	31606.59
468.41	31658.09
468.60	31730.64
468.78	32336.84
468.96	31524.68
469.14	32320.46
469.32	33006.23
469.50	31182.96
469.69	31215.72
469.87	31126.78
470.05	30661.02
470.23	31070.61
470.41	31194.66
470.59	31732.98
470.77	31683.83
470.95	32432.80
471.14	32606.00
471.32	32493.66
471.50	34356.72
471.68	35044.84
471.86	34789.72
472.04	35068.25
472.22	35040.16
472.40	33198.16
472.58	33289.44
472.77	32994.53
472.95	33804.36
473.13	34515.88
473.31	33464.98
473.49	33757.55
473.67	34473.75
473.85	35002.71
474.03	35407.62
474.21	35742.32
474.39	35480.18
474.57	36343.84
474.75	35807.86
474.93	35875.73
475.12	34925.47
475.30	34689.08
475.48	35353.79
475.66	35482.52
475.84	35302.30
476.02	35084.63
476.20	34242.04
476.38	34960.58
476.56	35974.03
476.74	36767.48
476.92	36807.26
477.10	37139.62
477.28	38284.14
477.46	38670.33
477.64	38962.90
477.82	38464.36
478.00	38754.59
478.18	38389.47
478.36	38288.82
478.54	38277.12
478.72	38787.36
478.90	39620.59
479.08	40631.70
479.26	41511.74
479.44	40835.33
479.62	40671.49
479.80	40868.09
479.98	40746.39
480.16	41329.18
480.34	40554.46
480.52	41270.67
480.70	41771.54
480.88	41703.67
481.06	42160.07
481.24	42574.34
481.41	43365.45
481.59	44332.09
481.77	43711.84
481.95	42932.45
482.13	43143.09
482.31	42909.04
482.49	43271.82
482.67	43634.61
482.85	43791.42
483.03	44423.37
483.21	44861.05
483.39	44538.05
483.57	44079.31
483.74	43997.39
483.92	44102.71
484.10	44261.87
484.28	45399.37
484.46	45755.13
484.64	46082.81
484.82	44973.39
485.00	44861.05
485.18	43627.59
485.35	42618.81
485.53	39054.18
485.71	35833.60
485.89	35840.62
486.07	38000.94
486.25	41057.68
486.43	43012.02
486.61	44027.82
486.78	43360.76
486.96	43880.36
487.14	45762.15
487.32	46211.54
487.50	47599.47
487.68	48479.52
487.85	48594.20
488.03	48687.82
488.21	48421.00
488.39	48016.09
488.57	46789.65
488.75	46698.37
488.92	48147.16
489.10	50365.99
489.28	51784.35
489.46	52346.08
489.64	52186.92
489.81	52200.97
489.99	51929.47
490.17	52151.82
490.35	52177.56
490.53	51917.76
490.70	51606.47
490.88	51398.16
491.06	52292.25
491.24	52182.24
491.41	50934.74
491.59	49560.84
491.77	48821.23
491.95	49979.80
492.13	51220.28
492.30	52507.58
492.48	53579.54
492.66	54047.65
492.84	53705.93
493.01	53614.65
493.19	52980.37
493.37	52605.88
493.54	52463.11
493.72	53125.48
493.90	54052.33
494.08	54562.57
494.25	54930.03
494.43	55267.07
494.61	55814.76
494.79	55774.97
494.96	55592.40
495.14	54958.12
495.32	53783.17
495.49	53404.00
495.67	54513.42
495.85	55859.23
496.02	56032.42
496.20	56112.00
496.38	55526.87
496.55	55501.12
496.73	56275.84
496.91	56205.62
497.09	56720.54
497.26	56891.40
497.44	56289.88
497.62	55688.37
497.79	55194.51
497.97	53872.11
498.14	54073.40
498.32	55056.42
498.50	56250.09
498.67	56680.75
498.85	56437.34
499.03	56741.61
499.20	56973.32
499.38	56580.11
499.56	56804.80
499.73	56231.37
499.91	55971.57
500.08	55215.58
500.26	54724.07
500.44	55442.61
500.61	55971.57
500.79	55800.71
500.97	55299.84
501.14	55224.94
501.32	54946.42
501.49	54951.10
501.67	55320.90
501.84	55561.98
502.02	56074.55
502.20	56182.22
502.37	56561.39
502.55	56472.45
502.72	57130.14
502.90	57551.43
503.07	57048.22
503.25	56659.69
503.43	55941.14
503.60	55143.02
503.78	54693.64
503.95	55243.66
504.13	56645.65
504.30	57399.30
504.48	57057.58
504.65	56928.85
504.83	56961.62
505.01	57628.67
505.18	57939.96
505.36	58459.56
505.53	58518.07
505.71	58698.30
505.88	58623.40
506.06	58085.07
506.23	57858.04
506.41	57462.49
506.58	57764.42
506.76	57315.04
506.93	57593.56
507.11	57326.74
507.28	57460.15
507.46	57155.88
507.63	56294.56
507.81	56413.93
507.98	56795.44
508.16	57415.68
508.33	57783.15
508.50	58045.29
508.68	58377.64
508.85	58918.31
509.03	58745.11
509.20	58618.72
509.38	57914.22
509.55	57151.20
509.73	57403.98
509.90	58014.86
510.08	58078.05
510.25	57951.66
510.42	57867.40
510.60	57820.59
510.77	58094.44
510.95	58681.91
511.12	58885.54
511.30	58967.46
511.47	59250.66
511.64	59044.69
511.82	58609.35
511.99	57909.53
512.17	57682.50
512.34	57595.90
512.51	57354.83
512.69	57717.61
512.86	57748.04
513.04	58298.06
513.21	58216.14
513.38	57748.04
513.56	57481.22
513.73	56755.65
513.90	57242.48
514.08	57029.49
514.25	57448.45
514.43	57577.18
514.60	57602.92
514.77	57743.36
514.95	58110.82
515.12	57806.55
515.29	58260.62
515.47	58391.68
515.64	58908.94
515.81	58237.21
515.99	57797.19
516.16	56329.67
516.33	53846.36
516.51	52662.05
516.68	51725.84
516.85	51337.31
517.03	52048.83
517.20	54454.90
517.37	56982.68
517.54	57874.43
517.72	57350.15
517.89	54691.30
518.06	52603.54
518.24	53209.74
518.41	55426.23
518.58	56444.36
518.75	56619.90
518.93	56865.66
519.10	56949.92
519.27	57277.59
519.45	57544.41
519.62	58344.87
519.79	58738.08
519.96	58216.14
520.14	57670.80
520.31	56875.02
520.48	56945.23
520.65	57677.82
520.83	58291.04
521.00	58717.02
521.17	58314.45
521.34	57979.75
521.52	58408.07
521.69	58845.75
521.86	59201.51
522.03	58831.71
522.20	57619.31
522.38	56772.03
522.55	56947.57
522.72	57343.12
522.89	57616.97
523.07	57879.11
523.24	58049.97
523.41	58838.73
523.58	59175.76
523.75	59693.02
523.92	59306.83
524.10	59564.29
524.27	59426.20
524.44	59292.79
524.61	58915.96
524.78	58798.94
524.96	58937.03
525.13	58780.21
525.30	58995.54
525.47	59547.91
525.64	59363.01
525.81	58822.34
525.98	56975.66
526.16	55800.71
526.33	55379.42
526.50	54770.88
526.67	54766.20
526.84	55217.92
527.01	56196.26
527.18	57216.74
527.36	57738.68
527.53	58834.05
527.70	58915.96
527.87	58255.93
528.04	57883.79
528.21	58578.93
528.38	59056.40
528.55	59693.02
528.72	59868.56
528.89	60207.94
529.07	59821.75
529.24	58948.73
529.41	58454.88
529.58	58035.92
529.75	58251.25
529.92	58637.44
530.09	58845.75
530.26	59220.23
530.43	59714.09
530.60	59564.29
530.77	59875.58
530.94	60011.34
531.11	59650.89
531.28	59245.98
531.46	58890.22
531.63	59138.32
531.80	58908.94
531.97	58457.22
532.14	57916.56
532.31	56750.97
532.48	56137.75
532.65	56397.55
532.82	57228.44
532.99	58206.78
533.16	58581.27
533.33	59171.08
533.50	58920.65
533.67	58372.96
533.84	57949.32
534.01	58190.40
534.18	58316.79
534.35	58417.43
534.52	58190.40
534.69	58712.34
534.86	58834.05
535.03	59175.76
535.20	59592.38
535.37	59973.89
535.54	60107.30
535.71	59690.68
535.88	59381.73
536.05	58623.40
536.22	58316.79
536.38	57918.90
536.55	57467.17
536.72	57066.94
536.89	56956.94
537.06	58124.86
537.23	58841.07
537.40	58965.12
537.57	58763.83
537.74	58688.93
537.91	58553.18
538.08	58756.81
538.25	58827.02
538.42	58922.99
538.59	58642.12
538.75	57726.97
538.92	57794.85
539.09	57804.21
539.26	57396.96
539.43	57403.98
539.60	57291.63
539.77	57785.49
539.94	57581.86
540.11	56633.94
540.28	56161.15
540.44	56439.68
540.61	56549.68
540.78	56776.72
540.95	57221.42
541.12	57539.73
541.29	57839.32
541.46	58190.40
541.62	58424.45
541.79	58223.17
541.96	57499.94
542.13	57408.66
542.30	57659.10
542.47	57951.66
542.63	57635.69
542.80	57443.77
542.97	57776.12
543.14	57469.51
543.31	57717.61
543.48	58052.31
543.64	58857.45
543.81	59021.29
543.98	58815.32
544.15	58085.07
544.32	57818.25
544.48	57951.66
544.65	58372.96
544.82	58560.20
544.99	58150.61
545.16	57869.75
545.32	57572.50
545.49	58419.77
545.66	58607.01
545.83	58419.77
546.00	58007.84
546.16	57626.33
546.33	57708.25
546.50	57839.32
546.67	58213.80
546.83	57762.08
547.00	57717.61
547.17	57059.92
547.34	56662.03
547.50	56479.47
547.67	57071.62
547.84	56992.04
548.00	57694.21
548.17	58000.82
548.34	57928.26
548.51	57804.21
548.67	57874.43
548.84	58045.29
549.01	57778.46
549.18	57752.72
549.34	57478.88
549.51	57708.25
549.68	57598.24
549.84	57439.09
550.01	57254.18
550.18	57361.85
550.34	57090.35
550.51	57457.81
550.68	57499.94
550.84	56779.06
551.01	57059.92
551.18	57078.64
551.34	57130.14
551.51	57745.70
551.68	57916.56
551.84	57818.25
552.01	57661.44
552.18	57396.96
552.34	56818.84
552.51	56413.93
552.68	56381.16
552.84	56987.36
553.01	57076.30
553.18	57226.10
553.34	57090.35
553.51	57359.51
553.67	57715.27
553.84	57829.96
554.01	57396.96
554.17	57401.64
554.34	57574.84
554.51	57497.60
554.67	57794.85
554.84	57712.93
555.00	57244.82
555.17	57029.49
555.33	57099.71
555.50	57083.33
555.67	56912.47
555.83	56912.47
556.00	56666.71
556.16	56727.56
556.33	56163.50
556.50	56104.98
556.66	56149.45
556.83	56072.21
556.99	56189.24
557.16	56203.28
557.32	56397.55
557.49	56657.35
557.65	56521.60
557.82	56453.72
557.98	56254.78
558.15	56013.70
558.32	55168.77
558.48	54520.44
558.65	54588.31
558.81	54836.41
558.98	55187.49
559.14	55447.29
559.31	55458.99
559.47	55622.83
559.64	55093.87
559.80	54923.01
559.97	55002.59
560.13	55522.19
560.30	55969.23
560.46	56713.52
560.63	56875.02
560.79	56767.35
560.96	56308.61
561.12	55543.25
561.29	54539.16
561.45	54581.29
561.61	55241.32
561.78	55636.87
561.94	55533.89
562.11	55524.53
562.27	55473.04
562.44	55805.39
562.60	55922.42
562.77	55877.95
562.93	55861.57
563.10	55913.06
563.26	55267.07
563.42	55311.54
563.59	55159.41
563.75	55444.95
563.92	55381.76
564.08	55365.37
564.24	55496.44
564.41	55412.18
564.57	55398.14
564.74	55140.68
564.90	55288.13
565.07	54983.86
565.23	54426.82
565.39	53939.99
565.56	53839.34
565.72	53680.19
565.88	54136.59
566.05	54017.22
566.21	54415.11
566.38	54609.38
566.54	54693.64
566.70	54915.99
566.87	55264.73
567.03	55243.66
567.19	55379.42
567.36	55267.07
567.52	55009.61
567.68	54588.31
567.85	54195.10
568.01	53825.30
568.17	53202.72
568.34	53291.66
568.50	53549.12
568.66	53336.13
568.83	54115.53
568.99	53942.33
569.15	54232.55
569.32	54145.95
569.48	53659.12
569.64	53731.68
569.81	53450.81
569.97	53256.55
570.13	53090.37
570.30	52650.35
570.46	52114.37
570.62	51627.54
570.78	51540.94
570.95	52048.83
571.11	52671.42
571.27	53099.73
571.43	53282.30
571.60	53764.45
571.76	53745.72
571.92	54028.93
572.09	54024.25
572.25	54204.47
572.41	53888.49
572.57	53921.26
572.74	53745.72
572.90	53085.69
573.06	53436.77
573.22	53422.73
573.38	53523.37
573.55	53415.71
573.71	53694.23
573.87	53647.42
574.03	53441.45
574.20	53139.52
574.36	52821.21
574.52	52921.85
574.68	52432.68
574.84	52065.22
575.01	52055.85
575.17	51554.98
575.33	52147.14
575.49	52362.46
575.65	52467.79
575.82	52376.51
575.98	52163.52
576.14	52278.21
576.30	52530.98
576.46	52435.02
576.62	52767.38
576.79	52626.95
576.95	52275.87
577.11	52357.78
577.27	52165.86
577.43	52172.88
577.59	51917.76
577.75	51440.29
577.92	50672.60
578.08	50588.34
578.24	50719.41
578.40	51154.75
578.56	50873.88
578.72	51423.91
578.88	51533.92
579.04	51840.53
579.21	51655.62
579.37	51739.88
579.53	51894.36
579.69	51929.47
579.85	52175.22
580.01	51693.07
580.17	51320.93
580.33	51086.87
580.49	51171.13
580.65	51875.63
580.82	51611.15
580.98	52107.35
581.14	51819.46
581.30	51924.78
581.46	51456.68
581.62	52109.69
581.78	51810.10
581.94	52034.79
582.10	52207.99
582.26	51922.44
582.42	51889.68
582.58	52332.04
582.74	52025.43
582.90	52079.26
583.06	52203.31
583.22	51522.21
583.38	51880.31
583.54	51578.39
583.70	51515.19
583.86	51971.60
584.02	51463.70
584.18	51695.41
584.34	51709.46
584.50	51557.32
584.66	51416.89
584.82	51019.00
584.98	50740.47
585.14	50703.03
585.30	49958.73
585.46	49165.29
585.62	49621.70
585.78	49556.16
585.94	49661.49
586.10	50365.99
586.26	50473.65
586.42	50770.90
586.58	50745.15
586.74	50618.77
586.90	50700.68
587.06	50408.12
587.22	50518.12
587.38	50007.89
587.54	50000.86
587.70	49476.58
587.86	49228.49
588.02	49165.29
588.18	49050.61
588.34	47557.35
588.49	45251.92
588.65	43466.09
588.81	43089.26
588.97	43650.99
589.13	43328.00
589.29	43033.09
589.45	44205.70
589.61	45181.70
589.77	47058.81
589.93	47697.78
590.08	48502.92
590.24	48615.27
590.40	48671.44
590.56	48865.70
590.72	48505.26
590.88	47878.00
591.04	48032.47
591.20	47622.88
591.35	47559.69
591.51	48062.90
591.67	47580.75
591.83	47800.76
591.99	47985.66
592.15	47847.57
592.31	48154.18
592.46	48322.70
592.62	47449.68
592.78	47805.44
592.94	47566.71
593.10	47594.79
593.26	47992.68
593.41	48570.80
593.57	47929.49
593.73	47711.82
593.89	47107.96
594.05	47323.29
594.20	46178.77
594.36	46115.58
594.52	45998.55
594.68	45986.85
594.84	46459.63
594.99	46894.97
595.15	46899.65
595.31	47536.28
595.47	47061.15
595.62	47196.90
595.78	47578.41
595.94	47643.94
596.10	47676.71
596.25	47058.81
596.41	46747.52
596.57	46611.77
596.73	47447.34
596.88	46883.27
597.04	46953.49
597.20	46827.10
597.36	46567.30
597.51	46583.68
597.67	46681.98
597.83	46281.75
597.99	46469.00
598.14	45457.88
598.30	45811.31
598.46	45684.92
598.61	45975.14
598.77	45801.94
598.93	46429.21
599.09	46602.41
599.24	46724.11
599.40	46543.89
599.56	46773.27
599.71	46522.83
599.87	46284.09
600.03	45804.28
600.18	45401.71
600.34	45359.58
600.50	45375.97
600.65	45214.47
600.81	45794.92
600.97	45806.62
601.12	45558.53
601.28	45593.64
601.44	45158.30
601.59	44732.32
601.75	44924.24
601.91	44594.23
602.06	44484.22
602.22	45263.62
602.37	44954.67
602.53	44917.22
602.69	45680.24
602.84	46019.61
603.00	45598.32
603.16	46138.98
603.31	45970.46
603.47	46106.21
603.62	46050.04
603.78	45415.76
603.94	45537.46
604.09	45221.49
604.25	45411.07
604.40	45359.58
604.56	45366.60
604.71	45301.07
604.87	45301.07
605.03	44737.00
605.18	45050.63
605.34	45268.30
605.49	44694.87
605.65	45104.46
605.80	44914.88
605.96	44465.50
606.12	44088.67
606.27	44184.63
606.43	44123.78
606.58	44666.78
606.74	44245.49
606.89	44629.34
607.05	44814.24
607.20	44877.43
607.36	44013.77
607.51	43636.95
607.67	43505.88
607.82	43496.52
607.98	43819.51
608.13	43725.89
608.29	43086.92
608.44	42799.04
608.60	43306.93
608.75	42969.90
608.91	42939.47
609.06	43098.62
609.22	43005.00
609.37	42948.83
609.53	43122.03
609.68	42775.63
609.84	41830.05
609.99	41640.47
610.15	41914.31
610.30	42237.31
610.46	42277.10
610.61	42768.61
610.76	42920.74
610.92	43096.28
611.07	43693.12
611.23	43430.98
611.38	43365.45
611.54	42557.96
611.69	42139.00
611.84	41741.11
612.00	41092.79
612.15	41289.39
612.31	41617.07
612.46	41172.36
612.62	41890.91
612.77	41521.10
612.92	42476.04
613.08	41532.81
613.23	40629.36
613.39	40119.12
613.54	39901.45
613.69	40697.24
613.85	40013.80
614.00	40311.05
614.15	40952.35
614.31	40985.12
614.46	41102.15
614.62	40856.39
614.77	40655.11
614.92	40783.83
615.08	40683.19
615.23	40289.98
615.38	40769.79
615.54	39491.86
615.69	38646.93
615.84	38007.96
616.00	37757.52
616.15	38096.90
616.30	38277.12
616.46	37930.72
616.61	38508.83
616.76	38567.35
616.92	38852.89
617.07	39075.24
617.22	39061.20
617.37	39569.10
617.53	39929.54
617.68	39934.22
617.83	40451.48
617.99	39950.60
618.14	39899.11
618.29	40236.15
618.45	39470.79
618.60	38529.90
618.75	38572.03
618.90	38330.95
619.06	38981.62
619.21	39302.28
619.36	39576.12
619.51	39342.06
619.67	38892.68
619.82	39070.56
619.97	39875.71
620.12	39108.01
620.28	39040.14
620.43	39173.55
620.58	39489.52
620.73	39100.99
620.89	38799.06
621.04	38770.97
621.19	38218.61
621.34	37783.27
621.49	37823.06
621.65	37511.77
621.80	37860.51
621.95	37998.60
622.10	37787.95
622.25	37879.23
622.41	37191.11
622.56	37043.66
622.71	37055.36
622.86	36360.22
623.01	36985.15
623.16	36926.63
623.32	36879.82
623.47	36830.67
623.62	36863.44
623.77	36411.71
623.92	36458.52
624.07	35885.09
624.23	36079.36
624.38	35826.58
624.53	35892.12
624.68	35597.21
624.83	35641.68
624.98	35367.84
625.13	34974.63
625.29	35056.54
625.44	35218.04
625.59	35065.91
625.74	35377.20
625.89	34995.69
626.04	35522.31
626.19	35442.73
626.34	35709.55
626.49	35468.48
626.65	35377.20
626.80	35536.35
626.95	35536.35
627.10	35236.77
627.25	34536.94
627.40	33572.64
627.55	33254.33
627.70	32191.73
627.85	32765.16
628.00	32748.78
628.15	33930.75
628.30	33949.47
628.45	33928.41
628.60	33858.19
628.76	34064.16
628.91	34167.14
629.06	34036.07
629.21	33869.89
629.36	33521.15
629.51	32697.28
629.66	32788.56
629.81	32350.88
629.96	32732.39
630.11	32865.80
630.26	33436.89
630.41	33340.93
630.56	33453.28
630.71	33759.89
630.86	33415.83
631.01	32662.18
631.16	32591.96
631.31	32123.85
631.46	31718.94
631.61	32041.93
631.76	32198.75
631.91	32512.38
632.06	32938.36
632.21	33294.12
632.36	32884.53
632.51	32840.06
632.66	33251.99
632.81	33160.71
632.96	33074.11
633.10	32538.13
633.25	32280.67
633.40	32463.23
633.55	32329.82
633.70	32037.25
633.85	32055.98
634.00	32430.46
634.15	32266.63
634.30	32617.71
634.45	32699.62
634.60	32788.56
634.75	32416.42
634.90	32149.60
635.05	32512.38
635.19	31892.14
635.34	32713.67
635.49	31838.31
635.64	31840.65
635.79	31360.84
635.94	31721.28
636.09	31672.13
636.24	31936.61
636.39	31819.58
636.53	31981.08
636.68	31580.85
636.83	31957.67
636.98	32067.68
637.13	32348.54
637.28	32573.24
637.43	32430.46
637.57	32180.03
637.72	31941.29
637.87	31777.45
638.02	31803.20
638.17	32184.71
638.32	31536.38
638.46	31997.46
638.61	31278.92
638.76	30890.39
638.91	31129.12
639.06	30794.43
639.20	30672.72
639.35	30892.73
639.50	30529.95
639.65	30548.67
639.80	30314.62
639.94	30817.83
640.09	30637.61
640.24	30735.92
640.39	30387.18
640.54	29806.72
640.68	29778.64
640.83	30106.31
640.98	29682.67
641.13	29544.58
641.27	29968.22
641.42	29839.49
641.57	30153.12
641.72	29486.07
641.86	29813.74
642.01	29788.00
642.16	29933.11
642.31	30026.73
642.45	29954.18
642.60	30092.27
642.75	29500.11
642.90	29607.78
643.04	30010.35
643.19	29514.16
643.34	29408.83
643.48	29078.82
643.63	29207.55
643.78	29266.06
643.93	29947.15
644.07	29748.21
644.22	30216.32
644.37	29703.74
644.51	29235.63
644.66	29230.95
644.81	29172.44
644.95	28769.86
645.10	29165.42
645.25	28535.81
645.39	28563.90
645.54	28610.71
645.69	28346.23
645.83	27913.23
645.98	27868.76
646.13	27508.32
646.27	28151.96
646.42	27833.65
646.57	27623.00
646.71	27749.39
646.86	27847.69
647.00	27613.64
647.15	26979.36
647.30	26988.72
647.44	26675.09
647.59	27105.74
647.74	26972.33
647.88	27199.37
648.03	27065.96
648.17	27124.47
648.32	27325.75
648.47	27548.11
648.61	27325.75
648.76	26977.01
648.90	26387.20
649.05	25837.17
649.20	25146.72
649.34	24741.80
649.49	25172.46
649.63	25305.87
649.78	26155.49
649.92	26712.53
650.07	27456.82
650.21	26817.86
650.36	27084.68
650.51	27285.97
650.65	27690.88
650.80	27117.45
650.94	27112.77
651.09	26572.10
651.23	26190.59
651.38	25750.57
651.52	25565.67
651.67	26134.42
651.81	26298.26
651.96	26382.52
652.10	26635.30
652.25	26412.95
652.39	26356.77
652.54	26661.04
652.68	26752.32
652.83	26443.37
652.97	26232.72
653.12	26129.74
653.26	26286.56
653.41	26897.44
653.55	26394.22
653.70	26340.39
653.84	26504.23
653.99	25792.70
654.13	25610.14
654.27	25207.57
654.42	25088.20
654.56	24966.49
654.71	25401.83
654.85	24762.87
655.00	24636.48
655.14	24460.94
655.29	24056.03
655.43	23386.63
655.57	22691.49
655.72	20975.88
655.86	19461.55
656.01	18963.02
656.15	19243.88
656.30	19789.23
656.44	21198.23
656.58	21867.63
656.73	22836.61
656.87	22693.83
657.01	23197.05
657.16	23410.04
657.30	24325.19
657.45	24643.50
657.59	24849.47
657.73	24503.07
657.88	24549.88
658.02	24704.35
658.16	24659.88
658.31	24315.83
658.45	24589.67
658.60	24313.48
658.74	24168.37
658.88	23920.28
659.03	23456.85
659.17	23695.58
659.31	23756.44
659.46	24002.19
659.60	24336.89
659.74	24673.93
659.89	24299.44
660.03	24350.93
660.17	24409.45
660.32	24229.23
660.46	24269.01
660.60	24081.77
660.74	23892.19
660.89	23875.80
661.03	23992.83
661.17	24364.98
661.32	23641.75
661.46	24156.67
661.60	23917.93
661.74	23967.09
661.89	24133.26
662.03	24151.99
662.17	23768.14
662.31	23592.60
662.46	23576.22
662.60	23730.69
662.74	23606.64
662.88	23103.43
663.03	23054.28
663.17	22560.42
663.31	23089.38
663.45	23173.64
663.60	23220.45
663.74	22658.73
663.88	23089.38
664.02	22555.74
664.17	23101.09
664.31	22520.63
664.45	22911.50
664.59	22742.99
664.73	22822.56
664.88	22974.70
665.02	22698.52
665.16	22698.52
665.30	22752.35
665.44	22677.45
665.59	22195.30
665.73	22251.47
665.87	22160.19
666.01	21844.22
666.15	21942.52
666.29	22139.13
666.44	21860.60
666.58	22050.19
666.72	22115.72
666.86	21635.91
667.00	22104.02
667.14	21916.78
667.28	21420.58
667.43	21942.52
667.57	21242.70
667.71	21523.57
667.85	21525.91
667.99	21481.44
668.13	21525.91
668.27	21710.81
668.41	21483.78
668.56	21575.06
668.70	21404.20
668.84	21245.04
668.98	21060.14
669.12	21652.30
669.26	21219.30
669.40	21062.48
669.54	21104.61
669.68	21130.36
669.82	20936.09
669.96	20844.81
670.10	20695.02
670.25	20629.48
670.39	20336.91
670.53	20341.60
670.67	20276.06
670.81	20166.06
670.95	20395.43
671.09	19983.49
671.23	20114.56
671.37	19901.58
671.51	19999.88
671.65	20170.74
671.79	19878.17
671.93	19798.59
672.07	19906.26
672.21	19618.37
672.35	19630.07
672.49	19768.16
672.63	19580.92
672.77	19740.08
672.91	19541.13
673.05	19941.36
673.19	19515.39
673.33	19873.49
673.47	19784.55
673.61	19314.10
673.75	19304.74
673.89	19403.04
674.03	19005.15
674.17	19140.90
674.31	19227.50
674.45	18909.19
674.59	18569.81
674.73	18679.82
674.87	18546.40
675.01	18806.20
675.15	18801.52
675.29	18682.16
675.43	18780.46
675.56	18764.07
675.70	18405.97
675.84	18293.63
675.98	18391.93
676.12	18546.40
676.26	18548.75
676.40	18033.83
676.54	17947.23
676.68	18319.37
676.82	17785.73
676.96	17977.65
677.10	17942.55
677.23	18068.94
677.37	17638.28
677.51	17694.45
677.65	17886.37
677.79	17528.27
677.93	17312.94
678.07	17422.95
678.21	17439.33
678.34	17130.38
678.48	17025.06
678.62	16938.46
678.76	17069.53
678.90	16943.14
679.04	17064.85
679.18	17022.72
679.31	16739.51
679.45	16779.30
679.59	16692.70
679.73	16730.15
679.87	16629.51
680.00	16826.11
680.14	16514.82
680.28	16360.34
680.42	16032.67
680.56	15964.79
680.70	15861.81
680.83	15796.28
680.97	15630.10
681.11	15988.20
681.25	15831.38
681.39	16023.31
681.52	16020.97
681.66	15889.90
681.80	15953.09
681.94	15889.90
682.07	15793.94
682.21	15730.74
682.35	15241.57
682.49	15201.78
682.62	15360.94
682.76	15300.08
682.90	15281.36
683.04	15126.88
683.17	15304.76
683.31	14782.82
683.45	14946.66
683.59	14616.65
683.72	14277.27
683.86	14391.95
684.00	14207.05
684.13	14083.00
684.27	14277.27
684.41	14176.62
684.55	14295.99
684.68	14443.45
684.82	14574.52
684.96	14328.76
685.09	14017.47
685.23	13642.98
685.37	13724.90
685.50	14022.15
685.64	13720.22
685.78	13673.41
685.91	13673.41
686.05	13682.77
686.19	13305.95
686.32	12243.34
686.46	10965.41
686.60	9563.43
686.73	8961.91
686.87	8477.42
687.01	8477.42
687.14	8519.55
687.28	8814.46
687.42	9427.68
687.55	9661.73
687.69	10455.17
687.82	10700.93
687.96	11122.23
688.10	10904.56
688.23	10906.90
688.37	10719.65
688.50	10497.30
688.64	10532.41
688.78	10368.57
688.91	10169.63
689.05	10326.44
689.18	10382.62
689.32	10080.69
689.46	10253.89
689.59	10162.61
689.73	10373.25
689.86	10312.40
690.00	10473.90
690.13	10396.66
690.27	10548.79
690.41	10616.67
690.54	10525.39
690.68	10651.78
690.81	10796.89
690.95	10672.84
691.08	10415.38
691.22	10494.96
691.35	10691.57
691.49	10368.57
691.62	10506.66
691.76	10546.45
691.89	10595.61
692.03	10717.31
692.16	10445.81
692.30	10305.38
692.43	10298.36
692.57	10235.16
692.70	10125.16
692.84	9944.94
692.97	9982.38
693.11	10050.26
693.24	10033.88
693.38	9947.28
693.51	9928.55
693.65	9937.91
693.78	9399.59
693.92	9390.23
694.05	9551.73
694.19	9547.05
694.32	9633.64
694.45	9640.67
694.59	9446.40
694.72	9430.02
694.86	9444.06
694.99	9488.53
695.13	9305.97
695.26	9284.91
695.39	9310.65
695.53	9320.01
695.66	9261.50
695.80	8898.72
695.93	9210.01
696.07	9268.52
696.20	9392.57
696.33	9390.23
696.47	9610.24
696.60	9474.49
696.73	9671.09
696.87	9591.52
697.00	9591.52
697.14	9411.29
697.27	9172.56
697.40	8910.42
697.54	9039.15
697.67	8840.20
697.80	8622.53
697.94	8650.62
698.07	8472.74
698.21	8535.93
698.34	8510.19
698.47	8269.11
698.61	8346.35
698.74	8285.50
698.87	8526.57
699.01	8468.06
699.14	8224.64
699.27	8168.47
699.40	8416.57
699.54	8231.66
699.67	8138.04
699.80	8114.64
699.94	7939.10
700.07	7843.14
700.20	7831.43
700.34	7630.15
700.47	7747.17
700.60	7793.98
700.73	7400.77
700.87	7742.49
701.00	7548.23
701.13	7466.31
701.26	7276.73
701.40	7192.47
701.53	7279.07
701.66	7215.87
701.79	7265.02
701.93	7482.69
702.06	7389.07
702.19	7215.87
702.32	7248.64
702.46	7199.49
702.59	7239.28
702.72	7176.08
702.85	7325.88
702.99	7272.04
703.12	7356.30
703.25	7267.36
703.38	7351.62
703.51	7117.57
703.65	6846.07
703.78	7213.53
703.91	7030.97
704.04	7171.40
704.17	7028.63
704.31	7108.21
704.44	6679.89
704.57	6867.13
704.70	6911.60
704.83	6881.18
704.96	6752.45
705.10	6633.08
705.23	6604.99
>>>>>End Processed Spectral Data<<<<<
