SpectraSuite Data File
++++++++++++++++++++++++++++++++++++
Date: Mon Oct 07 14:55:00 GMT-05:00 2013
User: price-jones
Dark Spectrum Present: No
Reference Spectrum Present: No
Number of Sampled Component Spectra: 1
Spectrometers: USB2+H05261
Integration Time (usec): 10000 (USB2+H05261)
Spectra Averaged: 1 (USB2+H05261)
Boxcar Smoothing: 0 (USB2+H05261)
Correct for Electrical Dark: No (USB2+H05261)
Strobe/Lamp Enabled: No (USB2+H05261)
Correct for Detector Non-linearity: No (USB2+H05261)
Correct for Stray Light: No (USB2+H05261)
Number of Pixels in Processed Spectrum: 2048
>>>>>Begin Processed Spectral Data<<<<<
365.73	0.00
365.92	0.00
366.12	0.00
366.32	0.00
366.52	0.00
366.72	0.00
366.91	0.00
367.11	0.00
367.31	0.00
367.51	0.00
367.70	0.00
367.90	0.00
368.10	0.00
368.30	0.00
368.49	0.00
368.69	0.00
368.89	0.00
369.09	0.00
369.28	0.00
369.48	0.00
369.68	0.00
369.87	0.00
370.07	0.00
370.27	0.00
370.47	273.84
370.66	2134.57
370.86	2693.96
371.06	2782.90
371.25	2668.21
371.45	2495.01
371.65	2115.84
371.84	2045.63
372.04	2342.88
372.24	2530.12
372.44	2686.94
372.63	2476.29
372.83	2356.92
373.03	2003.50
373.22	1966.05
373.42	2129.89
373.62	2436.50
373.81	2595.65
374.01	2647.15
374.21	2225.85
374.40	2200.10
374.60	2296.07
374.79	2733.75
374.99	3129.30
375.19	3197.17
375.38	3059.08
375.58	3016.95
375.78	2932.69
375.97	2956.10
376.17	2918.65
376.37	3143.34
376.56	3396.12
376.76	3510.80
376.95	3805.71
377.15	3819.75
377.35	4063.17
377.54	4159.13
377.74	4320.63
377.93	4383.82
378.13	4201.26
378.33	3810.39
378.52	3674.64
378.72	3447.61
378.91	3524.85
379.11	3246.32
379.31	3309.52
379.50	3251.00
379.70	3536.55
379.89	3978.91
380.09	4114.66
380.28	4311.27
380.48	4173.18
380.68	4212.96
380.87	3981.25
381.07	3723.79
381.26	3279.09
381.46	3229.94
381.65	3047.38
381.85	2928.01
382.04	2733.75
382.24	2672.89
382.43	2698.64
382.63	2525.44
382.83	2370.96
383.02	2558.21
383.22	2476.29
383.41	2480.97
383.61	2729.06
383.80	3208.87
384.00	3744.86
384.19	3964.87
384.39	4126.36
384.58	4074.87
384.78	4229.35
384.97	4039.76
385.17	3840.82
385.36	3758.90
385.56	3576.34
385.75	3810.39
385.95	4212.96
386.14	4432.97
386.34	4245.73
386.53	4100.62
386.72	3749.54
386.92	3992.95
387.11	4182.54
387.31	4273.82
387.50	4355.74
387.70	4086.58
387.89	4058.49
388.09	4250.41
388.28	4121.68
388.48	4440.00
388.67	4671.71
388.86	5095.35
389.06	5523.66
389.25	5834.96
389.45	5741.33
389.64	5673.46
389.84	5359.83
390.03	5579.84
390.22	5734.31
390.42	5895.81
390.61	6230.51
390.81	6729.04
391.00	6722.02
391.19	6586.27
391.39	6342.85
391.58	5947.30
391.78	5661.76
391.97	5423.02
392.16	5247.48
392.36	4425.95
392.55	3499.10
392.75	2775.88
392.94	2239.89
393.13	2422.45
393.33	3082.49
393.52	3990.61
393.71	4636.60
393.91	5240.46
394.10	5699.20
394.29	6296.04
394.49	6794.58
394.68	7131.61
394.88	7070.76
395.07	7295.45
395.26	7192.47
395.46	6803.94
395.65	6441.15
395.84	5650.05
396.04	4573.41
396.23	3850.18
396.42	3166.74
396.62	3283.77
396.81	4042.11
397.00	5280.25
397.19	6377.96
397.39	7426.52
397.58	8236.35
397.77	8493.80
397.97	8901.06
398.16	9202.99
398.35	9376.19
398.55	9640.67
398.74	10141.54
398.93	10115.80
399.12	10090.05
399.32	9790.46
399.51	9982.38
399.70	10686.89
399.90	10424.75
400.09	10342.83
400.28	10399.00
400.47	10448.15
400.67	11117.54
400.86	11082.44
401.05	11304.79
401.24	11250.96
401.44	11676.93
401.63	11510.75
401.82	11609.06
402.01	11417.13
402.21	11737.79
402.40	11726.08
402.59	11147.97
402.78	10860.09
402.97	10520.71
403.17	11311.81
403.36	12023.33
403.55	12238.66
403.74	12212.92
403.93	11613.74
404.13	10251.55
404.32	10579.22
404.51	11396.07
404.70	11969.50
404.89	11892.26
405.09	11587.99
405.28	11480.33
405.47	11508.41
405.66	11548.20
405.85	10806.25
406.05	11091.80
406.24	11482.67
406.43	11721.40
406.62	11939.07
406.81	11833.75
407.00	11749.49
407.20	11288.40
407.39	11351.60
407.58	12070.14
407.77	12781.67
407.96	12933.80
408.15	13296.58
408.34	13165.51
408.54	13762.35
408.73	13743.63
408.92	13322.33
409.11	12720.81
409.30	12397.82
409.49	11510.75
409.68	10951.37
409.87	11007.54
410.07	11648.85
410.26	12381.43
410.45	13163.17
410.64	13654.69
410.83	13841.93
411.02	14328.76
411.21	14516.00
411.40	14551.11
411.59	14696.22
411.78	14504.30
411.98	14633.03
412.17	14562.81
412.36	14267.91
412.55	14544.09
412.74	13877.04
412.93	13544.68
413.12	14345.14
413.31	15541.16
413.50	15342.21
413.69	15302.42
413.88	14829.63
414.07	14661.12
414.26	15009.86
414.45	15445.20
414.64	15089.43
414.83	15377.32
415.02	14951.34
415.22	15260.29
415.41	15492.01
415.60	15981.18
415.79	16769.94
415.98	16926.75
416.17	16968.88
416.36	16601.42
416.55	16442.26
416.74	15812.66
416.93	15468.60
417.12	15742.44
417.31	15569.24
417.50	15946.07
417.69	16203.53
417.88	16318.22
418.07	16098.20
418.26	16114.59
418.45	16585.04
418.64	16734.83
418.83	17371.46
419.02	17191.23
419.21	16800.37
419.39	15971.82
419.58	15398.38
419.77	15756.49
419.96	16423.54
420.15	17432.31
420.34	17722.54
420.53	18494.91
420.72	18562.79
420.91	18195.32
421.10	17750.62
421.29	17830.20
421.48	17135.06
421.67	18244.48
421.86	17137.40
422.05	16032.67
422.24	14700.90
422.43	15267.31
422.61	16812.07
422.80	17394.86
422.99	17404.22
423.18	17074.21
423.37	16716.11
423.56	16877.60
423.75	17167.83
423.94	17479.12
424.13	16772.28
424.32	16175.44
424.50	16650.57
424.69	16826.11
424.88	16788.66
425.07	16683.34
425.26	16697.38
425.45	16299.49
425.64	15751.81
425.83	16240.98
426.01	17380.82
426.20	17422.95
426.39	17245.07
426.58	15658.18
426.77	14635.37
426.96	14679.84
427.15	15122.20
427.33	16863.56
427.52	16924.41
427.71	16889.31
427.90	16648.23
428.09	16273.74
428.28	16013.95
428.46	15185.40
428.65	15597.33
428.84	15922.66
429.03	15805.64
429.22	14972.41
429.40	13907.46
429.59	12479.74
429.78	11428.84
429.97	11941.41
430.16	11831.41
430.34	11705.02
430.53	11999.93
430.72	12360.37
430.91	13940.23
431.10	16561.63
431.28	18953.66
431.47	20016.26
431.66	19552.84
431.85	17762.33
432.03	16407.16
432.22	16540.57
432.41	17762.33
432.60	19110.47
432.79	19627.73
432.97	19819.66
433.16	18988.77
433.35	17242.73
433.54	15707.34
433.72	15337.53
433.91	15922.66
434.10	17738.92
434.28	18759.39
434.47	19433.47
434.66	18635.35
434.85	18787.48
435.03	19234.52
435.22	19248.57
435.41	20547.56
435.59	20938.43
435.78	20893.96
435.97	20943.11
436.16	21298.88
436.34	20657.57
436.53	20231.59
436.72	20297.13
436.90	19585.60
437.09	19447.51
437.28	19335.17
437.46	20355.64
437.65	19314.10
437.84	17879.35
438.02	17193.58
438.21	17343.37
438.40	18045.53
438.58	19133.88
438.77	19871.15
438.96	19997.54
439.14	21214.62
439.33	21401.86
439.52	21362.07
439.70	21039.08
439.89	20566.29
440.08	20353.30
440.26	20528.84
440.45	20891.62
440.63	22169.55
440.82	23386.63
441.01	22511.27
441.19	23023.85
441.38	23311.74
441.57	24240.93
441.75	24070.07
441.94	24189.44
442.12	24353.27
442.31	24919.68
442.50	24456.26
442.68	24280.72
442.87	24229.23
443.05	23414.72
443.24	24374.34
443.43	25125.65
443.61	25462.69
443.80	25333.96
443.98	24458.60
444.17	24505.41
444.35	25722.49
444.54	25610.14
444.73	25266.08
444.91	24025.60
445.10	23468.55
445.28	22522.98
445.47	22239.77
445.65	22611.92
445.84	23309.40
446.02	23513.02
446.21	24357.96
446.39	24130.92
446.58	24334.55
446.77	25362.04
446.95	25188.85
447.14	26424.65
447.32	26852.97
447.51	25776.32
447.69	24482.00
447.88	24343.91
448.06	25039.05
448.25	25764.62
448.43	24886.92
448.62	25188.85
448.80	25209.91
448.99	25233.32
449.17	25415.88
449.36	25954.20
449.54	26476.14
449.73	26899.78
449.91	27468.53
450.10	27899.19
450.28	27948.34
450.46	28414.10
450.65	28336.87
450.83	27761.09
451.02	27314.05
451.20	27026.17
451.39	27372.57
451.57	27297.67
451.76	27470.87
451.94	26796.79
452.13	25804.41
452.31	24741.80
452.49	23529.41
452.68	24711.38
452.86	24807.34
453.05	24882.24
453.23	25766.96
453.42	26316.98
453.60	26892.76
453.78	26691.47
453.97	27061.27
454.15	26354.43
454.34	25865.26
454.52	25647.59
454.70	25493.12
454.89	25912.07
455.07	26113.36
455.26	27131.49
455.44	27463.85
455.62	27709.60
455.81	27779.82
455.99	27838.33
456.17	27524.70
456.36	28257.29
456.54	28442.19
456.73	28020.89
456.91	28643.48
457.09	28570.92
457.28	30075.88
457.46	28156.64
457.64	27821.95
457.83	27044.89
458.01	26707.85
458.19	27424.06
458.38	28538.15
458.56	28938.38
458.74	28699.65
458.93	27920.25
459.11	27550.45
459.29	27723.65
459.48	28332.18
459.66	27658.11
459.84	28088.77
460.03	28512.41
460.21	28367.29
460.39	29226.27
460.57	29233.29
460.76	29244.99
460.94	29177.12
461.12	29149.03
461.31	29511.81
461.49	29198.18
461.67	29474.37
461.85	30031.41
462.04	29673.31
462.22	29935.45
462.40	29804.38
462.59	29474.37
462.77	30089.93
462.95	30019.71
463.13	29734.17
463.32	28568.58
463.50	29352.66
463.68	29242.65
463.86	29619.48
464.05	28694.97
464.23	28041.96
464.41	27852.38
464.59	27873.44
464.78	29376.06
464.96	28484.32
465.14	27538.74
465.32	29495.43
465.50	30771.02
465.69	31496.59
465.87	30274.83
466.05	29064.77
466.23	27688.54
466.41	27433.42
466.60	27924.93
466.78	27754.07
466.96	27873.44
467.14	28308.78
467.32	28716.03
467.51	28989.88
467.69	27779.82
467.87	28570.92
468.05	29050.73
468.23	29287.12
468.41	29088.18
468.60	29347.98
468.78	29736.51
468.96	29570.33
469.14	30153.12
469.32	29710.76
469.50	28191.75
469.69	28940.72
469.87	28175.37
470.05	27845.35
470.23	28161.33
470.41	28273.67
470.59	28643.48
470.77	28259.63
470.95	29160.73
471.14	29853.53
471.32	30115.67
471.50	31756.39
471.68	31065.93
471.86	32107.47
472.04	31676.81
472.22	31637.02
472.40	29734.17
472.58	30452.71
472.77	30221.00
472.95	30611.87
473.13	31660.43
473.31	30412.92
473.49	31250.83
473.67	31129.12
473.85	32329.82
474.03	33289.44
474.21	33076.45
474.39	32868.14
474.57	32739.41
474.75	33212.20
474.93	32716.01
475.12	32018.53
475.30	32196.41
475.48	31641.70
475.66	32664.52
475.84	31433.39
476.02	32315.78
476.20	30953.58
476.38	31997.46
476.56	32961.76
476.74	33710.74
476.92	34359.06
477.10	33979.90
477.28	35122.08
477.46	35779.77
477.64	36041.91
477.82	35702.53
478.00	36020.84
478.18	35206.34
478.36	34948.88
478.54	35253.15
478.72	35924.88
478.90	36439.80
479.08	37869.87
479.26	37352.61
479.44	38272.44
479.62	37940.08
479.80	37792.63
479.98	37923.70
480.16	37734.12
480.34	37085.79
480.52	38234.99
480.70	37909.66
480.88	37874.55
481.06	38525.22
481.24	39000.35
481.41	40491.27
481.59	40458.50
481.77	39648.68
481.95	39381.85
482.13	39636.97
482.31	40187.00
482.49	40535.74
482.67	40472.54
482.85	40018.48
483.03	40065.29
483.21	41645.15
483.39	41350.24
483.57	41493.02
483.74	40304.02
483.92	40715.96
484.10	41099.81
484.28	42047.72
484.46	41343.22
484.64	43007.34
484.82	41848.78
485.00	40830.65
485.18	40535.74
485.35	38698.42
485.53	34251.40
485.71	31527.02
485.89	32308.76
486.07	35358.47
486.25	37408.78
486.43	39445.05
486.61	40100.40
486.78	39496.54
486.96	41563.23
487.14	42178.79
487.32	43419.28
487.50	44217.40
487.68	44978.07
487.85	45851.09
488.03	45834.71
488.21	44416.35
488.39	44343.79
488.57	42356.67
488.75	42731.16
488.92	44612.95
489.10	46897.31
489.28	47672.03
489.46	48975.71
489.64	47690.76
489.81	48968.69
489.99	48680.80
490.17	48622.29
490.35	49111.46
490.53	48458.45
490.70	48563.78
490.88	47992.68
491.06	49858.09
491.24	50096.83
491.41	47915.45
491.59	46513.47
491.77	45558.53
491.95	46564.96
492.13	48760.38
492.30	49794.90
492.48	51068.15
492.66	50707.71
492.84	50136.62
493.01	50134.28
493.19	50054.70
493.37	49663.83
493.54	49876.82
493.72	50883.25
493.90	52004.36
494.08	52458.43
494.25	52816.53
494.43	53144.20
494.61	53572.52
494.79	53118.46
494.96	53244.85
495.14	53102.07
495.32	51274.12
495.49	51363.06
495.67	52292.25
495.85	53380.60
496.02	53998.50
496.20	53095.05
496.38	52587.16
496.55	52523.96
496.73	53652.10
496.91	53881.47
497.09	54403.41
497.26	55344.31
497.44	53996.16
497.62	52772.06
497.79	52491.19
497.97	51423.91
498.14	51725.84
498.32	53284.64
498.50	53563.16
498.67	53792.53
498.85	53539.75
499.03	54145.95
499.20	54342.56
499.38	53654.44
499.56	52554.39
499.73	52975.69
499.91	53104.41
500.08	52186.92
500.26	52406.94
500.44	52650.35
500.61	53654.44
500.79	52865.68
500.97	52460.77
501.14	52432.68
501.32	51281.14
501.49	51634.56
501.67	52774.40
501.84	53294.00
502.02	53446.13
502.20	53581.88
502.37	53413.37
502.55	54520.44
502.72	55262.39
502.90	55629.85
503.07	54803.64
503.25	53949.35
503.43	52825.89
503.60	52133.09
503.78	52388.21
503.95	53193.36
504.13	54370.64
504.30	55229.62
504.48	54754.49
504.65	54621.08
504.83	54794.28
505.01	55367.71
505.18	55323.24
505.36	56303.93
505.53	56055.83
505.71	55922.42
505.88	56271.16
506.06	55737.52
506.23	55508.14
506.41	54639.81
506.58	55264.73
506.76	55442.61
506.93	54955.78
507.11	54920.67
507.28	54787.26
507.46	54227.87
507.63	54508.74
507.81	53893.18
507.98	53970.41
508.16	55238.98
508.33	55831.14
508.50	55746.88
508.68	56198.60
508.85	56360.10
509.03	57078.64
509.20	56425.64
509.38	56037.11
509.55	55800.71
509.73	55346.65
509.90	55278.77
510.08	55625.17
510.25	55248.35
510.42	54836.41
510.60	55238.98
510.77	56109.66
510.95	56264.14
511.12	56624.58
511.30	57270.57
511.47	57368.87
511.64	57052.90
511.82	56898.42
511.99	55622.83
512.17	55632.19
512.34	54948.76
512.51	55550.27
512.69	55889.65
512.86	55384.10
513.04	55615.81
513.21	55283.45
513.38	54394.05
513.56	54014.88
513.73	53432.09
513.90	55018.97
514.08	54497.03
514.25	54571.93
514.43	55096.21
514.60	55014.29
514.77	55451.97
514.95	55781.99
515.12	55613.47
515.29	56217.33
515.47	56570.75
515.64	56442.02
515.81	55873.27
515.99	54731.09
516.16	52968.66
516.33	50099.17
516.51	49991.50
516.68	48664.42
516.85	47124.35
517.03	49029.54
517.20	52278.21
517.37	54684.28
517.54	55751.56
517.72	54529.80
517.89	51255.39
518.06	49420.41
518.24	50719.41
518.41	53038.88
518.58	54555.55
518.75	54291.07
518.93	54171.70
519.10	53677.85
519.27	54724.07
519.45	55508.14
519.62	56339.04
519.79	56186.90
519.96	55669.64
520.14	55629.85
520.31	54649.17
520.48	54499.37
520.65	55316.22
520.83	56179.88
521.00	55924.76
521.17	55189.83
521.34	55634.53
521.52	56821.19
521.69	56523.94
521.86	57301.00
522.03	56324.99
522.20	55030.68
522.38	53792.53
522.55	54225.53
522.72	54220.85
522.89	54384.69
523.07	55316.22
523.24	56198.60
523.41	56371.80
523.58	56868.00
523.75	56982.68
523.92	57371.21
524.10	57078.64
524.27	56481.81
524.44	55908.38
524.61	55491.76
524.78	55971.57
524.96	56116.68
525.13	56299.25
525.30	56935.87
525.47	56966.30
525.64	57036.51
525.81	55861.57
525.98	53764.45
526.16	52072.24
526.33	52392.89
526.50	51969.26
526.67	52310.97
526.84	52872.70
527.01	53745.72
527.18	54576.61
527.36	55468.36
527.53	56376.48
527.70	55845.18
527.87	54611.72
528.04	55171.11
528.21	56053.49
528.38	56566.07
528.55	57677.82
528.72	57687.18
528.89	57221.42
529.07	56493.51
529.24	55650.92
529.41	55566.66
529.58	55547.93
529.75	56189.24
529.92	56982.68
530.09	56776.72
530.26	56970.98
530.43	57804.21
530.60	57134.82
530.77	57551.43
530.94	57659.10
531.11	56912.47
531.28	56470.11
531.46	56704.16
531.63	56851.61
531.80	56229.03
531.97	55838.16
532.14	55693.05
532.31	54375.33
532.48	53738.70
532.65	54014.88
532.82	54365.96
532.99	56612.88
533.16	56690.12
533.33	56879.70
533.50	56842.25
533.67	55896.67
533.84	56009.02
534.01	56264.14
534.18	55980.93
534.35	56154.13
534.52	55498.78
534.69	55903.70
534.86	56495.85
535.03	57022.47
535.20	57387.60
535.37	58003.16
535.54	58129.54
535.71	57226.10
535.88	56858.63
536.05	56182.22
536.22	55133.66
536.38	55363.03
536.55	54981.52
536.72	54569.59
536.89	55105.57
537.06	55599.43
537.23	56196.26
537.40	55463.67
537.57	55700.07
537.74	55671.98
537.91	55847.52
538.08	55435.59
538.25	56219.67
538.42	56711.18
538.59	56472.45
538.75	55660.28
538.92	54546.18
539.09	54908.97
539.26	54990.89
539.43	54894.92
539.60	54515.76
539.77	55217.92
539.94	54768.54
540.11	54485.33
540.28	53991.48
540.44	53834.66
540.61	53858.07
540.78	53975.09
540.95	54590.66
541.12	54485.33
541.29	55281.11
541.46	54988.55
541.62	55426.23
541.79	54564.91
541.96	54160.00
542.13	54920.67
542.30	54749.81
542.47	55121.96
542.63	54745.13
542.80	54539.16
542.97	53506.99
543.14	54471.29
543.31	55028.34
543.48	55613.47
543.64	56102.64
543.81	56402.23
543.98	56310.95
544.15	55576.02
544.32	55789.01
544.48	55683.69
544.65	54815.35
544.82	55934.12
544.99	54618.74
545.16	54363.62
545.32	54873.86
545.49	55763.26
545.66	55821.78
545.83	55585.38
546.00	55604.11
546.16	54988.55
546.33	54501.71
546.50	54614.06
546.67	55421.55
546.83	55217.92
547.00	55215.58
547.17	53694.23
547.34	52949.94
547.50	53165.27
547.67	53937.65
547.84	54412.77
548.00	55597.09
548.17	55288.13
548.34	55236.64
548.51	55533.89
548.67	54752.15
548.84	54848.11
549.01	55231.96
549.18	54836.41
549.34	54768.54
549.51	55044.72
549.68	55784.33
549.84	54344.90
550.01	53844.02
550.18	54583.63
550.34	54211.49
550.51	54302.77
550.68	54651.51
550.84	55136.00
551.01	54101.48
551.18	54508.74
551.34	54518.10
551.51	54850.45
551.68	55044.72
551.84	56081.58
552.01	54993.23
552.18	54941.74
552.34	53783.17
552.51	53041.22
552.68	53350.17
552.84	54344.90
553.01	54122.55
553.18	53696.57
553.34	54052.33
553.51	54288.73
553.67	54445.54
553.84	54873.86
554.01	55222.60
554.17	54518.10
554.34	54204.47
554.51	54330.86
554.67	53577.20
554.84	54066.38
555.00	53485.92
555.17	53867.43
555.33	53783.17
555.50	53301.02
555.67	53551.46
555.83	53375.92
556.00	52788.44
556.16	52844.62
556.33	53062.29
556.50	53364.21
556.66	53052.92
556.83	52432.68
556.99	52521.62
557.16	53120.80
557.32	53120.80
557.49	53719.98
557.65	53059.94
557.82	53759.76
557.98	53958.71
558.15	52549.71
558.32	52390.55
558.48	51246.03
558.65	50908.99
558.81	51650.94
558.98	52296.93
559.14	51838.18
559.31	52303.95
559.47	52409.28
559.64	51934.15
559.80	51393.48
559.97	51557.32
560.13	52374.17
560.30	53778.49
560.46	54160.00
560.63	54265.32
560.79	54387.03
560.96	53499.97
561.12	52563.75
561.29	52662.05
561.45	52287.57
561.61	53441.45
561.78	52182.24
561.94	52140.11
562.11	51786.69
562.27	51241.35
562.44	52633.97
562.60	53209.74
562.77	52575.45
562.93	52582.48
563.10	53270.59
563.26	52669.08
563.42	52954.62
563.59	52612.90
563.75	51976.28
563.92	52037.13
564.08	52479.49
564.24	53310.38
564.41	51882.66
564.57	53286.98
564.74	52601.20
564.90	51976.28
565.07	50967.51
565.23	50789.62
565.39	49867.45
565.56	49954.05
565.72	50864.52
565.88	50461.95
566.05	52287.57
566.21	51557.32
566.38	51873.29
566.54	52919.51
566.70	52877.38
566.87	52317.99
567.03	53139.52
567.19	53815.94
567.36	53439.11
567.52	51812.44
567.68	51363.06
567.85	50384.71
568.01	51246.03
568.17	50574.30
568.34	50894.95
568.50	50263.00
568.66	49729.36
568.83	49975.12
568.99	49631.06
569.15	50363.65
569.32	49923.63
569.48	50019.59
569.64	50454.93
569.81	50796.65
569.97	50155.34
570.13	49153.59
570.30	48102.69
570.46	48090.99
570.62	48048.86
570.78	48648.03
570.95	48123.75
571.11	49462.54
571.27	48615.27
571.43	49656.81
571.60	50122.57
571.76	49956.39
571.92	50183.43
572.09	50674.94
572.25	49808.94
572.41	49642.76
572.57	49937.67
572.74	51159.43
572.90	51477.74
573.06	51489.45
573.22	51313.90
573.38	51597.11
573.55	51852.23
573.71	50925.38
573.87	50330.88
574.03	50206.83
574.20	49331.47
574.36	49151.25
574.52	49469.56
574.68	49223.81
574.84	47894.38
575.01	48058.22
575.17	48121.41
575.33	49057.63
575.49	49137.21
575.65	48065.24
575.82	48231.42
575.98	49394.67
576.14	49642.76
576.30	50171.72
576.46	49090.40
576.62	48346.11
576.79	48584.84
576.95	49127.84
577.11	49462.54
577.27	48648.03
577.43	48706.55
577.59	48568.46
577.75	48191.63
577.92	47632.24
578.08	47344.36
578.24	47320.95
578.40	47524.58
578.56	46398.78
578.72	47143.07
578.88	47442.66
579.04	47779.70
579.21	47447.34
579.37	47112.64
579.53	48165.88
579.69	46986.25
579.85	46838.80
580.01	47435.64
580.17	46930.08
580.33	47903.74
580.49	47943.53
580.65	47674.37
580.82	48479.52
580.98	47775.02
581.14	47374.78
581.30	46672.62
581.46	47112.64
581.62	47573.73
581.78	48676.12
581.94	48355.47
582.10	48900.81
582.26	48053.54
582.42	48428.02
582.58	47587.77
582.74	47538.62
582.90	47440.32
583.06	49057.63
583.22	47807.78
583.38	48208.01
583.54	48516.96
583.70	48006.73
583.86	48205.67
584.02	46976.89
584.18	47285.84
584.34	46726.46
584.50	46588.36
584.66	46831.78
584.82	45956.42
584.98	46791.99
585.14	45642.79
585.30	45532.78
585.46	43180.54
585.62	44154.21
585.78	45045.95
585.94	45001.48
586.10	44945.31
586.26	44458.48
586.42	45986.85
586.58	46354.31
586.74	46377.72
586.90	46600.07
587.06	46270.05
587.22	47393.51
587.38	47639.26
587.54	46260.69
587.70	44655.08
587.86	45401.71
588.02	45619.38
588.18	44360.17
588.34	42124.96
588.49	41017.89
588.65	38995.67
588.81	39325.68
588.97	37766.88
589.13	37897.95
589.29	39159.50
589.45	40119.12
589.61	40505.31
589.77	43548.01
589.93	45008.50
590.08	45151.27
590.24	45228.51
590.40	44556.78
590.56	44212.72
590.72	43665.03
590.88	43253.10
591.04	44067.61
591.20	43161.82
591.35	42550.94
591.51	42792.01
591.67	42213.90
591.83	41872.18
591.99	43255.44
592.15	43629.93
592.31	43271.82
592.46	43875.68
592.62	44648.06
592.78	44039.52
592.94	43398.21
593.10	42782.65
593.26	44484.22
593.41	43545.67
593.57	43824.19
593.73	42855.21
593.89	41806.65
594.05	42157.73
594.20	42031.34
594.36	40818.94
594.52	41464.93
594.68	41132.57
594.84	42183.48
594.99	44210.38
595.15	43138.41
595.31	43723.55
595.47	43180.54
595.62	44662.10
595.78	42623.50
595.94	42663.28
596.10	41556.21
596.25	42382.42
596.41	41359.61
596.57	41738.77
596.73	41268.33
596.88	40950.01
597.04	42609.45
597.20	43030.75
597.36	41776.22
597.51	42710.10
597.67	41235.56
597.83	41251.94
597.99	41687.28
598.14	40921.93
598.30	41160.66
598.46	40875.12
598.61	41546.85
598.77	40285.30
598.93	41331.52
599.09	40865.75
599.24	40769.79
599.40	41558.55
599.56	42756.91
599.71	42974.58
599.87	42501.79
600.03	41455.57
600.18	41074.06
600.34	40341.47
600.50	41799.63
600.65	41483.66
600.81	41411.10
600.97	39950.60
601.12	41471.95
601.28	41132.57
601.44	40020.82
601.59	41565.57
601.75	41031.93
601.91	41319.82
602.06	40201.04
602.22	39386.54
602.37	40842.35
602.53	41638.13
602.69	40659.79
602.84	40818.94
603.00	41401.74
603.16	41675.58
603.31	41949.42
603.47	40982.78
603.62	41607.70
603.78	42005.59
603.94	41827.71
604.09	41535.15
604.25	40467.86
604.40	40179.98
604.56	39761.02
604.71	40102.74
604.87	39866.34
605.03	39311.64
605.18	38871.62
605.34	39728.25
605.49	39428.66
605.65	40060.61
605.80	39952.94
605.96	39056.52
606.12	40011.46
606.27	39697.83
606.43	37769.22
606.58	37909.66
606.74	38295.85
606.89	38511.17
607.05	39423.98
607.20	39295.25
607.36	38665.65
607.51	38239.67
607.67	38841.19
607.82	38976.94
607.98	38220.95
608.13	37207.50
608.29	38710.12
608.44	38064.13
608.60	37839.44
608.75	38061.79
608.91	38555.64
609.06	37359.63
609.22	37909.66
609.37	38684.37
609.53	38799.06
609.68	36673.85
609.84	35627.63
609.99	36243.20
610.15	37280.05
610.30	37722.41
610.46	39110.35
610.61	37230.90
610.76	37078.77
610.92	36236.17
611.07	38213.93
611.23	39122.05
611.38	40786.18
611.54	39807.83
611.69	39257.81
611.84	37570.28
612.00	37132.60
612.15	36622.36
612.31	37137.28
612.46	36622.36
612.62	36048.93
612.77	35314.00
612.92	35997.44
613.08	35585.50
613.23	37322.18
613.39	36524.06
613.54	36428.10
613.69	35908.50
613.85	35646.36
614.00	35978.72
614.15	36755.77
614.31	36374.27
614.46	36266.60
614.62	37907.32
614.77	37219.20
614.92	36463.21
615.08	36266.60
615.23	35704.87
615.38	35866.37
615.54	35667.42
615.69	35178.25
615.84	34216.29
616.00	34426.94
616.15	34902.07
616.30	34611.84
616.46	35026.12
616.61	34733.55
616.76	35531.67
616.92	35515.29
617.07	35498.91
617.22	34419.92
617.37	34298.21
617.53	35475.50
617.68	35002.71
617.83	34185.86
617.99	35618.27
618.14	36086.38
618.29	34937.18
618.45	34232.68
618.60	34225.65
618.75	32800.27
618.90	33991.60
619.06	34895.05
619.21	35992.76
619.36	35019.10
619.51	35660.40
619.67	37507.08
619.82	37759.86
619.97	37677.94
620.12	35599.55
620.28	35089.31
620.43	35426.35
620.58	35023.78
620.73	35412.31
620.89	34550.99
621.04	33654.56
621.19	32914.95
621.34	32481.95
621.49	33493.07
621.65	33729.46
621.80	33589.03
621.95	33888.62
622.10	33549.24
622.25	32767.50
622.41	31276.58
622.56	31735.32
622.71	32018.53
622.86	33881.60
623.01	33802.02
623.16	33322.21
623.32	33205.18
623.47	33455.62
623.62	32367.27
623.77	32299.39
623.92	31676.81
624.07	30998.06
624.23	30167.16
624.38	31742.35
624.53	31842.99
624.68	31262.54
624.83	30445.69
624.98	30911.46
625.13	30490.16
625.29	30398.88
625.44	31248.49
625.59	31047.21
625.74	31269.56
625.89	30960.61
626.04	31180.62
626.19	32678.56
626.34	32016.19
626.49	31693.19
626.65	31208.70
626.80	31033.16
626.95	31323.39
627.10	29879.28
627.25	29673.31
627.40	29319.89
627.55	29319.89
627.70	28250.27
627.85	28809.65
628.00	28657.52
628.15	29186.48
628.30	29083.50
628.45	29563.31
628.60	28311.12
628.76	28194.09
628.91	28411.76
629.06	28425.81
629.21	28744.12
629.36	30050.14
629.51	28987.53
629.66	27644.07
629.81	27871.10
629.96	28070.04
630.11	29186.48
630.26	29013.28
630.41	29820.77
630.56	30464.41
630.71	29247.33
630.86	29380.74
631.01	28149.62
631.16	27770.46
631.31	27960.04
631.46	28063.02
631.61	27426.40
631.76	28130.90
631.91	28795.61
632.06	29067.11
632.21	30291.21
632.36	30909.11
632.51	30422.28
632.66	30052.48
632.81	29404.15
632.96	29944.81
633.10	29167.76
633.25	28540.49
633.40	27440.44
633.55	28699.65
633.70	29275.42
633.85	28437.51
634.00	28297.08
634.15	28208.14
634.30	28442.19
634.45	28680.92
634.60	28032.60
634.75	28147.28
634.90	27957.70
635.05	28751.14
635.19	28449.21
635.34	28346.23
635.49	27843.01
635.64	28091.11
635.79	29106.90
635.94	28957.11
636.09	28308.78
636.24	28559.22
636.39	28463.25
636.53	28245.58
636.68	28477.30
636.83	27920.25
636.98	28526.45
637.13	27520.02
637.28	27805.56
637.43	28161.33
637.57	28491.34
637.72	28704.33
637.87	28322.82
638.02	28077.07
638.17	29675.65
638.32	29118.60
638.46	27969.40
638.61	26717.22
638.76	27047.23
638.91	27552.79
639.06	28271.33
639.20	27101.06
639.35	26314.64
639.50	26214.00
639.65	26380.18
639.80	25560.99
639.94	26352.09
640.09	27278.94
640.24	26143.78
640.39	25750.57
640.54	25736.53
640.68	26298.26
640.83	26930.20
640.98	26906.80
641.13	26218.68
641.27	26813.18
641.42	25528.22
641.57	25223.95
641.72	25678.02
641.86	25902.71
642.01	27016.80
642.16	27302.35
642.31	26618.91
642.45	26647.00
642.60	26043.14
642.75	25605.46
642.90	25991.65
643.04	26235.06
643.19	26099.31
643.34	26221.02
643.48	25692.06
643.63	26806.16
643.78	25397.15
643.93	25032.03
644.07	25469.71
644.22	25891.01
644.37	25233.32
644.51	25214.59
644.66	26038.46
644.81	25181.82
644.95	25876.96
645.10	26604.87
645.25	24910.32
645.39	24893.94
645.54	24329.87
645.69	23503.66
645.83	23999.85
645.98	23005.13
646.13	23386.63
646.27	22881.08
646.42	22515.95
646.57	23658.14
646.71	23260.24
646.86	23367.91
647.00	23246.20
647.15	22951.29
647.30	23360.89
647.44	23522.38
647.59	23775.16
647.74	23967.09
647.88	23775.16
648.03	23695.58
648.17	24058.37
648.32	24606.05
648.47	25455.67
648.61	24491.37
648.76	24542.86
648.90	24102.84
649.05	24252.63
649.20	22562.76
649.34	21383.13
649.49	21638.25
649.63	22902.14
649.78	23330.46
649.92	23520.04
650.07	22794.48
650.21	22616.60
650.36	24034.96
650.51	23789.20
650.65	23751.76
650.80	23033.21
650.94	23440.47
651.09	22972.36
651.23	21788.05
651.38	22298.28
651.52	23154.92
651.67	22661.07
651.81	22857.67
651.96	22815.54
652.10	24493.71
652.25	23709.63
652.39	23653.45
652.54	22871.72
652.68	22445.74
652.83	21961.25
652.97	21687.40
653.12	22043.17
653.26	22522.98
653.41	22604.89
653.55	22555.74
653.70	22759.37
653.84	22455.10
653.99	23190.03
654.13	22691.49
654.27	21921.46
654.42	20973.54
654.56	20746.51
654.71	20695.02
654.85	21614.85
655.00	22366.16
655.14	21680.38
655.29	20645.87
655.43	19648.80
655.57	18707.90
655.72	16882.28
655.86	16418.86
656.01	16056.08
656.15	16692.70
656.30	17867.65
656.44	18633.00
656.58	18787.48
656.73	20346.28
656.87	20357.98
657.01	20329.89
657.16	20966.52
657.30	21034.39
657.45	21289.51
657.59	20699.70
657.73	20737.15
657.88	20533.52
658.02	20751.19
658.16	21362.07
658.31	21462.71
658.45	21242.70
658.60	20379.04
658.74	21001.63
658.88	21322.28
659.03	20084.14
659.17	20238.61
659.31	19765.82
659.46	19468.58
659.60	20542.88
659.74	20123.93
659.89	20526.50
660.03	21268.45
660.17	20526.50
660.32	20697.36
660.46	20355.64
660.60	21369.09
660.74	21598.46
660.89	21420.58
661.03	19873.49
661.17	20418.83
661.32	20421.17
661.46	20437.56
661.60	20175.42
661.74	20421.17
661.89	20648.21
662.03	20496.07
662.17	20301.81
662.31	20484.37
662.46	20908.01
662.60	20592.03
662.74	20194.14
662.88	19793.91
663.03	20444.58
663.17	20435.22
663.31	19569.22
663.45	20128.61
663.60	20243.29
663.74	18895.14
663.88	19501.34
664.02	19742.42
664.17	19723.69
664.31	19033.24
664.45	19037.92
664.59	18927.91
664.73	19150.26
664.88	18459.81
665.02	18305.33
665.16	19087.07
665.30	19674.54
665.44	19812.63
665.59	20243.29
665.73	19679.22
665.87	18822.59
666.01	18658.75
666.15	18544.06
666.29	17928.50
666.44	18249.16
666.58	18080.64
666.72	19143.24
666.86	19339.85
667.00	19662.84
667.14	20173.08
667.28	18998.13
667.43	18960.68
667.57	18412.99
667.71	18593.22
667.85	18326.39
667.99	18192.98
668.13	17820.84
668.27	18349.80
668.41	18295.97
668.56	19080.05
668.70	19541.13
668.84	19232.18
668.98	19159.63
669.12	19124.52
669.26	18457.46
669.40	18506.62
669.54	17949.57
669.68	17912.12
669.82	17769.35
669.96	18270.22
670.10	18721.95
670.25	18703.22
670.39	18434.06
670.53	18537.04
670.67	17797.43
670.81	17371.46
670.95	17013.35
671.09	16673.98
671.23	16664.61
671.37	16987.61
671.51	17128.04
671.65	17387.84
671.79	17392.52
671.93	17703.81
672.07	17268.47
672.21	17092.93
672.35	16767.60
672.49	16503.12
672.63	16648.23
672.77	17310.60
672.91	16975.91
673.05	17027.40
673.19	16814.41
673.33	16503.12
673.47	17834.88
673.61	17275.49
673.75	16943.14
673.89	16493.76
674.03	16166.08
674.17	15737.76
674.31	15901.60
674.45	16638.87
674.59	16173.10
674.73	15985.86
674.87	15964.79
675.01	15552.86
675.15	15793.94
675.29	15744.78
675.43	15845.43
675.56	16240.98
675.70	15934.37
675.84	15910.96
675.98	15805.64
676.12	15861.81
676.26	16252.68
676.40	15606.69
676.54	15215.82
676.68	14972.41
676.82	14726.65
676.96	15503.71
677.10	15166.67
677.23	16046.71
677.37	15681.59
677.51	15791.59
677.65	15119.86
677.79	14012.79
677.93	13593.83
678.07	13699.16
678.21	14513.66
678.34	14698.56
678.48	14642.39
678.62	14511.32
678.76	14628.35
678.90	14752.40
679.04	14927.94
679.18	14956.02
679.31	14532.39
679.45	14162.58
679.59	14143.86
679.73	14209.39
679.87	14040.87
680.00	14497.28
680.14	14132.15
680.28	13851.29
680.42	13935.55
680.56	13790.44
680.70	13657.03
680.83	13329.35
680.97	13336.37
681.11	13734.26
681.25	13118.70
681.39	13268.50
681.52	13315.31
681.66	13336.37
681.80	13153.81
681.94	12868.27
682.07	13109.34
682.21	13465.10
682.35	12961.89
682.49	13104.66
682.62	13429.99
682.76	13181.90
682.90	12954.87
683.04	12491.44
683.17	12147.38
683.31	12109.93
683.45	12147.38
683.59	12489.10
683.72	11950.78
683.86	12166.10
684.00	11583.31
684.13	11737.79
684.27	11103.50
684.41	12070.14
684.55	12458.67
684.68	12538.25
684.82	12233.98
684.96	12180.15
685.09	12140.36
685.23	11990.56
685.37	11971.84
685.50	11754.17
685.64	11541.18
685.78	11044.99
685.91	11550.54
686.05	11698.00
686.19	11344.58
686.32	10602.63
686.46	9240.44
686.60	8348.69
686.73	7566.95
686.87	6932.67
687.01	7096.50
687.14	7185.44
687.28	7445.24
687.42	8091.23
687.55	8329.97
687.69	8636.58
687.82	9102.34
687.96	9483.85
688.10	9893.44
688.23	9722.59
688.37	8884.67
688.50	8908.08
688.64	8765.31
688.78	8772.33
688.91	8971.27
689.05	8821.48
689.18	8933.82
689.32	9420.66
689.46	9142.13
689.59	9006.38
689.73	9320.01
689.86	9001.70
690.00	9158.52
690.13	9247.46
690.27	8629.56
690.41	8987.66
690.54	8882.33
690.68	9137.45
690.81	9345.76
690.95	9022.77
691.08	9324.69
691.22	9507.26
691.35	9036.81
691.49	9212.35
691.62	9048.51
691.76	9415.98
691.89	8973.61
692.03	8631.90
692.16	8758.28
692.30	9228.73
692.43	9245.12
692.57	8971.27
692.70	8456.36
692.84	8659.98
692.97	8542.96
693.11	9289.59
693.24	9006.38
693.38	8559.34
693.51	8491.46
693.65	8102.93
693.78	7943.78
693.92	8318.26
694.05	8224.64
694.19	8594.45
694.32	8262.09
694.45	8182.51
694.59	8573.38
694.72	8477.42
694.86	8145.06
694.99	8397.84
695.13	8194.22
695.26	7707.38
695.39	7665.25
695.53	7396.09
695.66	7241.62
695.80	7744.83
695.93	7896.97
696.07	7852.50
696.20	7868.88
696.33	7796.32
696.47	8191.88
696.60	7819.73
696.73	8280.82
696.87	8133.36
697.00	8189.53
697.14	7992.93
697.27	7978.89
697.40	7672.28
697.54	7475.67
697.67	7201.83
697.80	7611.42
697.94	7592.70
698.07	6862.45
698.21	7019.27
698.34	7063.74
698.47	7403.11
698.61	7094.16
698.74	7028.63
698.87	6841.39
699.01	6939.69
699.14	6932.67
699.27	6984.16
699.40	7162.04
699.54	6923.30
699.67	7162.04
699.80	7152.68
699.94	7360.98
700.07	6953.73
700.20	6710.32
700.34	6675.21
700.47	6935.01
700.60	6803.94
700.73	6707.98
700.87	6289.02
701.00	6097.10
701.13	6061.99
701.26	6183.70
701.40	6106.46
701.53	6003.47
701.66	6567.54
701.79	6661.16
701.93	6635.42
702.06	6504.35
702.19	6129.86
702.32	5902.83
702.46	6186.04
702.59	6272.64
702.72	6164.97
702.85	6005.81
702.99	5853.68
703.12	5973.05
703.25	6043.26
703.38	5907.51
703.51	5619.63
703.65	5699.20
703.78	6169.65
703.91	5832.62
704.04	6073.69
704.17	5912.19
704.31	6366.26
704.44	5998.79
704.57	6167.31
704.70	6221.14
704.83	6181.35
704.96	6345.19
705.10	6045.60
705.23	6012.84
>>>>>End Processed Spectral Data<<<<<
