SpectraSuite Data File
++++++++++++++++++++++++++++++++++++
Date: Mon Oct 07 14:55:42 GMT-05:00 2013
User: price-jones
Dark Spectrum Present: No
Reference Spectrum Present: No
Number of Sampled Component Spectra: 1
Spectrometers: USB2+H05261
Integration Time (usec): 1000000 (USB2+H05261)
Spectra Averaged: 1 (USB2+H05261)
Boxcar Smoothing: 0 (USB2+H05261)
Correct for Electrical Dark: No (USB2+H05261)
Strobe/Lamp Enabled: No (USB2+H05261)
Correct for Detector Non-linearity: No (USB2+H05261)
Correct for Stray Light: No (USB2+H05261)
Number of Pixels in Processed Spectrum: 2048
>>>>>Begin Processed Spectral Data<<<<<
365.73	0.00
365.92	0.00
366.12	0.00
366.32	0.00
366.52	0.00
366.72	208.31
366.91	28.09
367.11	142.77
367.31	93.62
367.51	182.56
367.70	154.48
367.90	404.91
368.10	201.29
368.30	255.12
368.49	0.00
368.69	381.51
368.89	161.50
369.09	0.00
369.28	187.24
369.48	0.00
369.68	91.28
369.87	236.39
370.07	4.68
370.27	524.28
370.47	2918.65
370.66	10270.27
370.86	11578.63
371.06	13099.98
371.25	12791.03
371.45	11463.94
371.65	10736.04
371.84	9523.64
372.04	9895.78
372.24	11183.08
372.44	11583.31
372.63	11838.43
372.83	11098.82
373.03	9582.15
373.22	8795.73
373.42	9130.43
373.62	10485.60
373.81	11728.42
374.01	11770.55
374.21	10855.40
374.40	9657.05
374.60	10443.47
374.79	11133.93
374.99	12877.63
375.19	14174.28
375.38	14305.35
375.58	13181.90
375.78	13078.91
375.97	13383.18
376.17	14118.11
376.37	13422.97
376.56	14045.55
376.76	14609.62
376.95	15492.01
377.15	16744.19
377.35	17282.52
377.54	17799.77
377.74	18190.64
377.93	18384.91
378.13	18113.41
378.33	17401.88
378.52	15875.85
378.72	15709.68
378.91	15269.66
379.11	14703.25
379.31	13991.72
379.50	13823.20
379.70	15183.06
379.89	16769.94
380.09	17486.14
380.28	18047.87
380.48	17886.37
380.68	17542.32
380.87	17025.06
381.07	16166.08
381.26	15274.34
381.46	14038.53
381.65	13900.44
381.85	13228.71
382.04	12849.54
382.24	11967.16
382.43	11309.47
382.63	10782.85
382.83	10974.77
383.02	11239.25
383.22	11583.31
383.41	11091.80
383.61	11705.02
383.80	13694.47
384.00	14820.27
384.19	16753.55
384.39	17675.73
384.58	17518.91
384.78	17310.60
384.97	17186.55
385.17	16578.01
385.36	15396.04
385.56	14663.46
385.75	15037.94
385.95	16910.37
386.14	18207.03
386.34	18235.11
386.53	17326.99
386.72	16229.27
386.92	16870.58
387.11	17074.21
387.31	17989.36
387.50	17879.35
387.70	16809.73
387.89	16805.05
388.09	17027.40
388.28	16783.98
388.48	17118.68
388.67	18534.70
388.86	20154.35
389.06	21607.83
389.25	22761.71
389.45	23019.17
389.64	22771.07
389.84	22902.14
390.03	22157.85
390.22	22022.10
390.42	22899.80
390.61	23850.06
390.81	25979.95
391.00	25979.95
391.19	26288.90
391.39	24849.47
391.58	23688.56
391.78	22214.02
391.97	21947.20
392.16	20168.40
392.36	18902.17
392.55	15384.34
392.75	12325.26
392.94	9947.28
393.13	9980.04
393.33	11367.98
393.52	14457.49
393.71	17935.53
393.91	19735.40
394.10	21144.40
394.29	23634.73
394.49	24924.36
394.68	27136.17
394.88	27136.17
395.07	28266.65
395.26	27854.72
395.46	26906.80
395.65	25699.08
395.84	22677.45
396.04	19740.08
396.23	15749.46
396.42	13174.88
396.62	12568.68
396.81	14665.80
397.00	18469.17
397.19	23023.85
397.39	26808.50
397.58	30625.91
397.77	31936.61
397.97	33259.01
398.16	32985.17
398.35	34918.45
398.55	35332.73
398.74	36563.85
398.93	37603.05
399.12	36882.16
399.32	35342.09
399.51	36217.45
399.70	38724.16
399.90	38508.83
400.09	38600.12
400.28	38366.06
400.47	38279.46
400.67	39941.24
400.86	41134.92
401.05	40641.06
401.24	41624.09
401.44	41544.51
401.63	42117.94
401.82	42223.26
402.01	41095.13
402.21	42232.63
402.40	42616.47
402.59	41415.78
402.78	39489.52
402.97	38319.25
403.17	39732.93
403.36	42232.63
403.55	43285.87
403.74	44212.72
403.93	42784.99
404.13	39812.51
404.32	38745.23
404.51	40336.79
404.70	43489.49
404.89	42520.51
405.09	42658.60
405.28	41069.38
405.47	41198.11
405.66	41294.07
405.85	40367.22
406.05	38974.60
406.24	39360.79
406.43	41305.77
406.62	42632.86
406.81	43377.15
407.00	41071.72
407.20	40432.75
407.39	41062.36
407.58	42078.15
407.77	43505.88
407.96	45160.64
408.15	44900.84
408.34	45471.93
408.54	46944.12
408.73	47065.83
408.92	46995.62
409.11	46073.45
409.30	44219.74
409.49	41511.74
409.68	39342.06
409.87	37947.11
410.07	39519.95
410.26	43009.68
410.45	45352.56
410.64	45965.78
410.83	46850.50
411.02	48137.80
411.21	49256.57
411.40	49127.84
411.59	48849.32
411.78	48505.26
411.98	48657.40
412.17	49141.89
412.36	48076.94
412.55	48481.86
412.74	47592.45
412.93	46883.27
413.12	46876.25
413.31	50464.29
413.50	50447.91
413.69	51185.18
413.88	49815.96
414.07	48371.85
414.26	49085.72
414.45	50663.24
414.64	50892.61
414.83	50901.97
415.02	50085.12
415.22	50005.55
415.41	50876.22
415.60	51339.65
415.79	52500.56
415.98	53858.07
416.17	53443.79
416.36	52725.25
416.55	52446.72
416.74	51442.63
416.93	50443.23
417.12	50241.94
417.31	50742.81
417.50	51241.35
417.69	52165.86
417.88	52027.77
418.07	51842.87
418.26	50679.62
418.45	51215.60
418.64	52800.15
418.83	53790.19
419.02	53020.16
419.21	53017.82
419.39	51391.14
419.58	49525.74
419.77	50202.15
419.96	51657.96
420.15	52928.87
420.34	53645.08
420.53	54611.72
420.72	54820.03
420.91	54997.91
421.10	54822.37
421.29	54223.19
421.48	53453.15
421.67	54820.03
421.86	53895.52
422.05	52207.99
422.24	48573.14
422.43	47796.08
422.61	50756.86
422.80	53752.74
422.99	53724.66
423.18	52439.70
423.37	51576.04
423.56	52163.52
423.75	52781.42
423.94	52741.63
424.13	51316.25
424.32	51023.68
424.50	51714.14
424.69	50665.58
424.88	51487.10
425.07	51304.54
425.26	51519.87
425.45	51079.85
425.64	50061.72
425.83	50373.01
426.01	51995.00
426.20	53186.33
426.39	52809.51
426.58	50571.96
426.77	47704.80
426.96	46438.57
427.15	47222.65
427.33	50410.46
427.52	51798.40
427.71	51910.74
427.90	51264.75
428.09	50801.33
428.28	50230.24
428.46	49078.69
428.65	48718.25
428.84	49088.06
429.03	50515.78
429.22	48025.45
429.40	46583.68
429.59	42639.88
429.78	37869.87
429.97	37750.50
430.16	38457.34
430.34	38834.17
430.53	38770.97
430.72	39447.39
430.91	43229.69
431.10	48566.12
431.28	54040.63
431.47	56004.34
431.66	56310.95
431.85	54054.67
432.03	51824.14
432.22	50234.92
432.41	50855.16
432.60	54497.03
432.79	55152.38
432.97	55990.30
433.16	55854.54
433.35	53102.07
433.54	49340.83
433.72	47381.80
433.91	48509.94
434.10	52236.08
434.28	54152.97
434.47	55374.73
434.66	55377.08
434.85	54703.00
435.03	54623.42
435.22	55936.46
435.41	57766.76
435.59	57553.77
435.78	57399.30
435.97	57764.42
436.16	57127.80
436.34	57078.64
436.53	56835.23
436.72	57050.56
436.90	55093.87
437.09	55377.08
437.28	54672.57
437.46	55807.73
437.65	55634.53
437.84	53937.65
438.02	50564.93
438.21	50913.67
438.40	52526.30
438.58	55145.36
438.77	55297.50
438.96	55760.92
439.14	56547.34
439.33	57567.82
439.52	57958.69
439.70	57090.35
439.89	56715.86
440.08	55910.72
440.26	55873.27
440.45	56832.89
440.63	58052.31
440.82	58766.17
441.01	59461.31
441.19	58639.78
441.38	58801.28
441.57	59611.10
441.75	60568.38
441.94	60397.52
442.12	60285.18
442.31	60732.22
442.50	60416.25
442.68	59917.71
442.87	60432.63
443.05	59711.75
443.24	60023.04
443.43	60587.11
443.61	61120.75
443.80	60926.49
443.98	59805.37
444.17	59913.03
444.35	61235.44
444.54	61502.26
444.73	61153.52
444.91	60633.92
445.10	59557.27
445.28	58342.53
445.47	58108.48
445.65	58267.64
445.84	58857.45
446.02	59639.19
446.21	60116.66
446.39	60210.28
446.58	59688.34
446.77	60732.22
446.95	60708.82
447.14	61099.68
447.32	62094.41
447.51	61223.73
447.69	60348.37
447.88	60060.49
448.06	60589.45
448.25	60786.05
448.43	61331.40
448.62	61118.41
448.80	60659.66
448.99	60582.43
449.17	60860.95
449.36	60736.90
449.54	61820.57
449.73	61382.89
449.91	62134.20
450.10	62960.41
450.28	63238.93
450.46	63063.39
450.65	63030.63
450.83	62719.34
451.02	62436.13
451.20	61998.45
451.39	62344.85
451.57	62141.22
451.76	62185.69
451.94	61745.67
452.13	60308.58
452.31	60823.50
452.49	59227.26
452.68	59512.80
452.86	59405.14
453.05	59400.46
453.23	60767.33
453.42	60334.33
453.60	61771.42
453.78	62213.78
453.97	61609.92
454.15	61560.77
454.34	60720.52
454.52	61064.58
454.70	60495.83
454.89	60886.70
455.07	61148.84
455.26	60935.85
455.44	62089.73
455.62	62635.08
455.81	62773.17
455.99	62656.14
456.17	62508.69
456.36	62326.13
456.54	63278.72
456.73	63203.83
456.91	63489.37
457.09	63718.74
457.28	64207.92
457.46	62869.13
457.64	63007.22
457.83	61956.32
458.01	61661.41
458.19	61549.07
458.38	61865.04
458.56	63210.85
458.74	62674.87
458.93	62649.12
459.11	62700.61
459.29	62246.55
459.48	62251.23
459.66	62157.61
459.84	62714.65
460.03	63025.95
460.21	62049.94
460.39	63536.18
460.57	63192.12
460.76	63800.66
460.94	63709.38
461.12	62829.34
461.31	63297.45
461.49	63255.32
461.67	63068.08
461.85	63582.99
462.04	63849.81
462.22	65368.82
462.40	63447.24
462.59	63685.98
462.77	63728.11
462.95	63941.10
463.13	63407.45
463.32	63372.34
463.50	63032.97
463.68	63096.16
463.86	63201.49
464.05	62939.35
464.23	62307.40
464.41	62302.72
464.59	61879.08
464.78	63096.16
464.96	62742.74
465.14	62897.22
465.32	63271.70
465.50	63908.33
465.69	63362.98
465.87	63746.83
466.05	63133.61
466.23	61968.02
466.41	61329.06
466.60	62075.69
466.78	61949.30
466.96	62548.48
467.14	62454.86
467.32	63316.17
467.51	62939.35
467.69	61705.88
467.87	62892.54
468.05	62597.63
468.23	63173.40
468.41	62995.52
468.60	63018.92
468.78	63285.75
468.96	63070.42
469.14	63435.54
469.32	63428.52
469.50	62190.37
469.69	62773.17
469.87	62347.19
470.05	61820.57
470.23	61970.36
470.41	62295.70
470.59	62541.45
470.77	62157.61
470.95	63023.61
471.14	63348.94
471.32	63100.84
471.50	64793.05
471.68	65160.51
471.86	63697.68
472.04	64736.88
472.22	64343.67
472.40	63702.36
472.58	63428.52
472.77	63047.01
472.95	63978.54
473.13	64399.84
473.31	63774.92
473.49	63578.31
473.67	63704.70
473.85	64495.80
474.03	65343.08
474.21	64439.63
474.39	65188.60
474.57	65258.82
474.75	65394.57
474.93	64795.39
475.12	64149.40
475.30	63905.99
475.48	64479.42
475.66	64769.64
475.84	64598.79
476.02	64360.05
476.20	63959.82
476.38	64612.83
476.56	64367.07
476.74	64760.28
476.92	65535.00
477.10	65535.00
477.28	65535.00
477.46	65535.00
477.64	65535.00
477.82	65535.00
478.00	65535.00
478.18	65535.00
478.36	65535.00
478.54	65535.00
478.72	65535.00
478.90	65535.00
479.08	65535.00
479.26	65535.00
479.44	65535.00
479.62	65535.00
479.80	65535.00
479.98	65535.00
480.16	65535.00
480.34	65535.00
480.52	65535.00
480.70	65535.00
480.88	65535.00
481.06	65535.00
481.24	65535.00
481.41	65535.00
481.59	65535.00
481.77	65535.00
481.95	65535.00
482.13	65535.00
482.31	65535.00
482.49	65535.00
482.67	65535.00
482.85	65535.00
483.03	65535.00
483.21	65535.00
483.39	65535.00
483.57	65535.00
483.74	65535.00
483.92	65535.00
484.10	65535.00
484.28	65535.00
484.46	65535.00
484.64	65535.00
484.82	65535.00
485.00	65535.00
485.18	65535.00
485.35	65535.00
485.53	65535.00
485.71	65535.00
485.89	64793.05
486.07	65535.00
486.25	65535.00
486.43	65535.00
486.61	65535.00
486.78	65535.00
486.96	65535.00
487.14	65535.00
487.32	65535.00
487.50	65535.00
487.68	65535.00
487.85	65535.00
488.03	65535.00
488.21	65535.00
488.39	65535.00
488.57	65535.00
488.75	65535.00
488.92	65535.00
489.10	65535.00
489.28	65535.00
489.46	65535.00
489.64	65535.00
489.81	65535.00
489.99	65535.00
490.17	65535.00
490.35	65535.00
490.53	65535.00
490.70	65535.00
490.88	65535.00
491.06	65535.00
491.24	65535.00
491.41	65535.00
491.59	65535.00
491.77	65535.00
491.95	65535.00
492.13	65535.00
492.30	65535.00
492.48	65535.00
492.66	65535.00
492.84	65535.00
493.01	65535.00
493.19	65535.00
493.37	65535.00
493.54	65535.00
493.72	65535.00
493.90	65535.00
494.08	65535.00
494.25	65535.00
494.43	65535.00
494.61	65535.00
494.79	65535.00
494.96	65535.00
495.14	65535.00
495.32	65535.00
495.49	65535.00
495.67	65535.00
495.85	65535.00
496.02	65535.00
496.20	65535.00
496.38	65535.00
496.55	65535.00
496.73	65535.00
496.91	65535.00
497.09	65535.00
497.26	65535.00
497.44	65535.00
497.62	65535.00
497.79	65535.00
497.97	65535.00
498.14	65535.00
498.32	65535.00
498.50	65535.00
498.67	65535.00
498.85	65535.00
499.03	65535.00
499.20	65535.00
499.38	65535.00
499.56	65535.00
499.73	65535.00
499.91	65535.00
500.08	65535.00
500.26	65535.00
500.44	65535.00
500.61	65535.00
500.79	65535.00
500.97	65535.00
501.14	65535.00
501.32	65535.00
501.49	65535.00
501.67	65535.00
501.84	65535.00
502.02	65535.00
502.20	65535.00
502.37	65535.00
502.55	65535.00
502.72	65535.00
502.90	65535.00
503.07	65535.00
503.25	65535.00
503.43	65535.00
503.60	65535.00
503.78	65535.00
503.95	65535.00
504.13	65535.00
504.30	65535.00
504.48	65535.00
504.65	65535.00
504.83	65535.00
505.01	65535.00
505.18	65535.00
505.36	65535.00
505.53	65535.00
505.71	65535.00
505.88	65535.00
506.06	65535.00
506.23	65535.00
506.41	65535.00
506.58	65535.00
506.76	65535.00
506.93	65535.00
507.11	65535.00
507.28	65535.00
507.46	65535.00
507.63	65535.00
507.81	65535.00
507.98	65535.00
508.16	65535.00
508.33	65535.00
508.50	65535.00
508.68	65535.00
508.85	65535.00
509.03	65535.00
509.20	65535.00
509.38	65535.00
509.55	65535.00
509.73	65535.00
509.90	65535.00
510.08	65535.00
510.25	65535.00
510.42	65535.00
510.60	65535.00
510.77	65535.00
510.95	65535.00
511.12	65535.00
511.30	65535.00
511.47	65535.00
511.64	65535.00
511.82	65535.00
511.99	65535.00
512.17	65535.00
512.34	65535.00
512.51	65535.00
512.69	65535.00
512.86	65535.00
513.04	65535.00
513.21	65535.00
513.38	65535.00
513.56	65535.00
513.73	65535.00
513.90	65535.00
514.08	65535.00
514.25	65535.00
514.43	65535.00
514.60	65535.00
514.77	65535.00
514.95	65535.00
515.12	65535.00
515.29	65535.00
515.47	65535.00
515.64	65535.00
515.81	65535.00
515.99	65535.00
516.16	65535.00
516.33	65535.00
516.51	65535.00
516.68	65535.00
516.85	65535.00
517.03	65535.00
517.20	65535.00
517.37	65535.00
517.54	65535.00
517.72	65535.00
517.89	65535.00
518.06	65535.00
518.24	65535.00
518.41	65535.00
518.58	65535.00
518.75	65535.00
518.93	65535.00
519.10	65535.00
519.27	65535.00
519.45	65535.00
519.62	65535.00
519.79	65535.00
519.96	65535.00
520.14	65535.00
520.31	65535.00
520.48	65535.00
520.65	65535.00
520.83	65535.00
521.00	65535.00
521.17	65535.00
521.34	65535.00
521.52	65535.00
521.69	65535.00
521.86	65535.00
522.03	65535.00
522.20	65535.00
522.38	65535.00
522.55	65535.00
522.72	65535.00
522.89	65535.00
523.07	65535.00
523.24	65535.00
523.41	65535.00
523.58	65535.00
523.75	65535.00
523.92	65535.00
524.10	65535.00
524.27	65535.00
524.44	65535.00
524.61	65535.00
524.78	65535.00
524.96	65535.00
525.13	65535.00
525.30	65535.00
525.47	65535.00
525.64	65535.00
525.81	65535.00
525.98	65535.00
526.16	65535.00
526.33	65535.00
526.50	65535.00
526.67	65535.00
526.84	65535.00
527.01	65535.00
527.18	65535.00
527.36	65535.00
527.53	65535.00
527.70	65535.00
527.87	65535.00
528.04	65535.00
528.21	65535.00
528.38	65535.00
528.55	65535.00
528.72	65535.00
528.89	65535.00
529.07	65535.00
529.24	65535.00
529.41	65535.00
529.58	65535.00
529.75	65535.00
529.92	65535.00
530.09	65535.00
530.26	65535.00
530.43	65535.00
530.60	65535.00
530.77	65535.00
530.94	65535.00
531.11	65535.00
531.28	65535.00
531.46	65535.00
531.63	65535.00
531.80	65535.00
531.97	65535.00
532.14	65535.00
532.31	65535.00
532.48	65535.00
532.65	65535.00
532.82	65535.00
532.99	65535.00
533.16	65535.00
533.33	65535.00
533.50	65535.00
533.67	65535.00
533.84	65535.00
534.01	65535.00
534.18	65535.00
534.35	65535.00
534.52	65535.00
534.69	65535.00
534.86	65535.00
535.03	65535.00
535.20	65535.00
535.37	65535.00
535.54	65535.00
535.71	65535.00
535.88	65535.00
536.05	65535.00
536.22	65535.00
536.38	65535.00
536.55	65535.00
536.72	65535.00
536.89	65535.00
537.06	65535.00
537.23	65535.00
537.40	65535.00
537.57	65535.00
537.74	65535.00
537.91	65535.00
538.08	65535.00
538.25	65535.00
538.42	65535.00
538.59	65535.00
538.75	65535.00
538.92	65535.00
539.09	65535.00
539.26	65535.00
539.43	65535.00
539.60	65535.00
539.77	65535.00
539.94	65535.00
540.11	65535.00
540.28	65535.00
540.44	65535.00
540.61	65535.00
540.78	65535.00
540.95	65535.00
541.12	65535.00
541.29	65535.00
541.46	65535.00
541.62	65535.00
541.79	65535.00
541.96	65535.00
542.13	65535.00
542.30	65535.00
542.47	65535.00
542.63	65535.00
542.80	65535.00
542.97	65535.00
543.14	65535.00
543.31	65535.00
543.48	65535.00
543.64	65535.00
543.81	65535.00
543.98	65535.00
544.15	65535.00
544.32	65535.00
544.48	65535.00
544.65	65535.00
544.82	65535.00
544.99	65535.00
545.16	65535.00
545.32	65535.00
545.49	65535.00
545.66	65535.00
545.83	65535.00
546.00	65535.00
546.16	65535.00
546.33	65535.00
546.50	65535.00
546.67	65535.00
546.83	65535.00
547.00	65535.00
547.17	65535.00
547.34	65535.00
547.50	65535.00
547.67	65535.00
547.84	65535.00
548.00	65535.00
548.17	65535.00
548.34	65535.00
548.51	65535.00
548.67	65535.00
548.84	65535.00
549.01	65535.00
549.18	65535.00
549.34	65535.00
549.51	65535.00
549.68	65535.00
549.84	65535.00
550.01	65535.00
550.18	65535.00
550.34	65535.00
550.51	65535.00
550.68	65535.00
550.84	65535.00
551.01	65535.00
551.18	65535.00
551.34	65535.00
551.51	65535.00
551.68	65535.00
551.84	65535.00
552.01	65535.00
552.18	65535.00
552.34	65535.00
552.51	65535.00
552.68	65535.00
552.84	65535.00
553.01	65535.00
553.18	65535.00
553.34	65535.00
553.51	65535.00
553.67	65535.00
553.84	65535.00
554.01	65535.00
554.17	65535.00
554.34	65535.00
554.51	65535.00
554.67	65535.00
554.84	65535.00
555.00	65535.00
555.17	65535.00
555.33	65535.00
555.50	65535.00
555.67	65535.00
555.83	65535.00
556.00	65535.00
556.16	65535.00
556.33	65535.00
556.50	65535.00
556.66	65535.00
556.83	65535.00
556.99	65535.00
557.16	65535.00
557.32	65535.00
557.49	65535.00
557.65	65535.00
557.82	65535.00
557.98	65535.00
558.15	65535.00
558.32	65535.00
558.48	65535.00
558.65	65535.00
558.81	65535.00
558.98	65535.00
559.14	65535.00
559.31	65535.00
559.47	65535.00
559.64	65535.00
559.80	65535.00
559.97	65535.00
560.13	65535.00
560.30	65535.00
560.46	65535.00
560.63	65535.00
560.79	65535.00
560.96	65535.00
561.12	65535.00
561.29	65535.00
561.45	65535.00
561.61	65535.00
561.78	65535.00
561.94	65535.00
562.11	65535.00
562.27	65535.00
562.44	65535.00
562.60	65535.00
562.77	65535.00
562.93	65535.00
563.10	65535.00
563.26	65535.00
563.42	65535.00
563.59	65535.00
563.75	65535.00
563.92	65535.00
564.08	65535.00
564.24	65535.00
564.41	65535.00
564.57	65535.00
564.74	65535.00
564.90	65535.00
565.07	65535.00
565.23	65535.00
565.39	65535.00
565.56	65535.00
565.72	65535.00
565.88	65535.00
566.05	65535.00
566.21	65535.00
566.38	65535.00
566.54	65535.00
566.70	65535.00
566.87	65535.00
567.03	65535.00
567.19	65535.00
567.36	65535.00
567.52	65535.00
567.68	65535.00
567.85	65535.00
568.01	65535.00
568.17	65535.00
568.34	65535.00
568.50	65535.00
568.66	65535.00
568.83	65535.00
568.99	65535.00
569.15	65535.00
569.32	65535.00
569.48	65535.00
569.64	65535.00
569.81	65535.00
569.97	65535.00
570.13	65535.00
570.30	65535.00
570.46	65535.00
570.62	65535.00
570.78	65535.00
570.95	65535.00
571.11	65535.00
571.27	65535.00
571.43	65535.00
571.60	65535.00
571.76	65535.00
571.92	65535.00
572.09	65535.00
572.25	65535.00
572.41	65535.00
572.57	65535.00
572.74	65535.00
572.90	65535.00
573.06	65535.00
573.22	65535.00
573.38	65535.00
573.55	65535.00
573.71	65535.00
573.87	65535.00
574.03	65535.00
574.20	65535.00
574.36	65535.00
574.52	65535.00
574.68	65535.00
574.84	65535.00
575.01	65535.00
575.17	65535.00
575.33	65535.00
575.49	65535.00
575.65	65535.00
575.82	65535.00
575.98	65535.00
576.14	65535.00
576.30	65535.00
576.46	65535.00
576.62	65535.00
576.79	65535.00
576.95	65535.00
577.11	65535.00
577.27	65535.00
577.43	65535.00
577.59	65535.00
577.75	65535.00
577.92	65535.00
578.08	65535.00
578.24	65535.00
578.40	65535.00
578.56	65535.00
578.72	65535.00
578.88	65535.00
579.04	65535.00
579.21	65535.00
579.37	65535.00
579.53	65535.00
579.69	65535.00
579.85	65535.00
580.01	65535.00
580.17	65535.00
580.33	65535.00
580.49	65535.00
580.65	65535.00
580.82	65535.00
580.98	65535.00
581.14	65535.00
581.30	65535.00
581.46	65535.00
581.62	65535.00
581.78	65535.00
581.94	65535.00
582.10	65535.00
582.26	65535.00
582.42	65535.00
582.58	65535.00
582.74	65535.00
582.90	65535.00
583.06	65535.00
583.22	65535.00
583.38	65535.00
583.54	65535.00
583.70	65535.00
583.86	65535.00
584.02	65535.00
584.18	65535.00
584.34	65535.00
584.50	65535.00
584.66	65535.00
584.82	65535.00
584.98	65535.00
585.14	65535.00
585.30	65535.00
585.46	65535.00
585.62	65535.00
585.78	65535.00
585.94	65535.00
586.10	65535.00
586.26	65535.00
586.42	65535.00
586.58	65535.00
586.74	65535.00
586.90	65535.00
587.06	65535.00
587.22	65535.00
587.38	65535.00
587.54	65535.00
587.70	65535.00
587.86	65535.00
588.02	65535.00
588.18	65535.00
588.34	65535.00
588.49	65535.00
588.65	65535.00
588.81	65535.00
588.97	65535.00
589.13	65535.00
589.29	65535.00
589.45	65535.00
589.61	65535.00
589.77	65535.00
589.93	65535.00
590.08	65535.00
590.24	65535.00
590.40	65535.00
590.56	65535.00
590.72	65535.00
590.88	65535.00
591.04	65535.00
591.20	65535.00
591.35	65535.00
591.51	65535.00
591.67	65535.00
591.83	65535.00
591.99	65535.00
592.15	65535.00
592.31	65535.00
592.46	65535.00
592.62	65535.00
592.78	65535.00
592.94	65535.00
593.10	65535.00
593.26	65535.00
593.41	65535.00
593.57	65535.00
593.73	65535.00
593.89	65535.00
594.05	65535.00
594.20	65535.00
594.36	65535.00
594.52	65535.00
594.68	65535.00
594.84	65535.00
594.99	65535.00
595.15	65535.00
595.31	65535.00
595.47	65535.00
595.62	65535.00
595.78	65535.00
595.94	65535.00
596.10	65535.00
596.25	65535.00
596.41	65535.00
596.57	65535.00
596.73	65535.00
596.88	65535.00
597.04	65535.00
597.20	65535.00
597.36	65535.00
597.51	65535.00
597.67	65535.00
597.83	65535.00
597.99	65535.00
598.14	65535.00
598.30	65535.00
598.46	65535.00
598.61	65535.00
598.77	65535.00
598.93	65535.00
599.09	65535.00
599.24	65535.00
599.40	65535.00
599.56	65535.00
599.71	65535.00
599.87	65535.00
600.03	65535.00
600.18	65535.00
600.34	65535.00
600.50	65535.00
600.65	65535.00
600.81	65535.00
600.97	65535.00
601.12	65535.00
601.28	65535.00
601.44	65535.00
601.59	65535.00
601.75	65535.00
601.91	65535.00
602.06	65535.00
602.22	65535.00
602.37	65535.00
602.53	65535.00
602.69	65535.00
602.84	65535.00
603.00	65535.00
603.16	65535.00
603.31	65535.00
603.47	65535.00
603.62	65535.00
603.78	65535.00
603.94	65535.00
604.09	65535.00
604.25	65535.00
604.40	65535.00
604.56	65535.00
604.71	65535.00
604.87	65535.00
605.03	65535.00
605.18	65535.00
605.34	65535.00
605.49	65535.00
605.65	65535.00
605.80	65535.00
605.96	65535.00
606.12	65535.00
606.27	65535.00
606.43	65535.00
606.58	65535.00
606.74	65535.00
606.89	65535.00
607.05	65535.00
607.20	65535.00
607.36	65535.00
607.51	65535.00
607.67	65535.00
607.82	65535.00
607.98	65535.00
608.13	65535.00
608.29	65535.00
608.44	65535.00
608.60	65535.00
608.75	65535.00
608.91	65535.00
609.06	65535.00
609.22	65535.00
609.37	65535.00
609.53	65535.00
609.68	65535.00
609.84	65535.00
609.99	65535.00
610.15	65535.00
610.30	65535.00
610.46	65535.00
610.61	65535.00
610.76	65535.00
610.92	65535.00
611.07	65535.00
611.23	65535.00
611.38	65535.00
611.54	65535.00
611.69	65535.00
611.84	65535.00
612.00	65535.00
612.15	65535.00
612.31	65535.00
612.46	65535.00
612.62	65535.00
612.77	65535.00
612.92	65535.00
613.08	65535.00
613.23	65535.00
613.39	65535.00
613.54	65535.00
613.69	65535.00
613.85	65535.00
614.00	65535.00
614.15	65535.00
614.31	65535.00
614.46	65535.00
614.62	65535.00
614.77	65535.00
614.92	65535.00
615.08	65535.00
615.23	65535.00
615.38	65535.00
615.54	65535.00
615.69	65535.00
615.84	65408.61
616.00	65261.16
616.15	65254.14
616.30	65535.00
616.46	65535.00
616.61	65183.92
616.76	65535.00
616.92	65535.00
617.07	65535.00
617.22	65535.00
617.37	65535.00
617.53	65535.00
617.68	65535.00
617.83	65535.00
617.99	65535.00
618.14	65535.00
618.29	65535.00
618.45	65535.00
618.60	65520.96
618.75	65268.18
618.90	65502.23
619.06	65535.00
619.21	65535.00
619.36	65535.00
619.51	65424.99
619.67	65439.04
619.82	65535.00
619.97	65535.00
620.12	65319.67
620.28	65535.00
620.43	65509.25
620.58	65535.00
620.73	65535.00
620.89	65118.38
621.04	65387.55
621.19	65132.43
621.34	64874.97
621.49	64685.39
621.65	64661.98
621.80	65209.67
621.95	64774.33
622.10	65001.36
622.25	64851.56
622.41	64420.90
622.56	64631.55
622.71	64250.05
622.86	64231.32
623.01	64437.29
623.16	64743.90
623.32	64472.40
623.47	64802.41
623.62	64631.55
623.77	64055.78
623.92	63924.71
624.07	63707.04
624.23	63674.27
624.38	63749.17
624.53	63550.23
624.68	63524.48
624.83	63852.15
624.98	63458.94
625.13	62894.88
625.29	63105.52
625.44	63131.27
625.59	63494.05
625.74	63538.52
625.89	63840.45
626.04	63685.98
626.19	63421.50
626.34	63159.36
626.49	63482.35
626.65	63391.07
626.80	63547.89
626.95	62993.18
627.10	63004.88
627.25	62658.48
627.40	61862.70
627.55	61556.09
627.70	60966.27
627.85	61565.45
628.00	61499.92
628.15	62295.70
628.30	62429.11
628.45	61951.64
628.60	62227.82
628.76	62087.39
628.91	62747.42
629.06	62075.69
629.21	62176.33
629.36	62176.33
629.51	61895.47
629.66	61549.07
629.81	61258.84
629.96	61946.96
630.11	61904.83
630.26	61855.68
630.41	62358.89
630.56	62272.29
630.71	62183.35
630.86	62389.32
631.01	62169.31
631.16	61394.59
631.31	61598.22
631.46	61104.37
631.61	61446.08
631.76	61059.90
631.91	61598.22
632.06	61874.40
632.21	61893.13
632.36	61858.02
632.51	61406.30
632.66	61909.51
632.81	61918.87
632.96	61588.86
633.10	61396.93
633.25	61242.46
633.40	61205.01
633.55	61165.22
633.70	61200.33
633.85	61076.28
634.00	60839.89
634.15	61474.17
634.30	61123.09
634.45	61315.01
634.60	61570.13
634.75	61469.49
634.90	61181.60
635.05	61380.55
635.19	61216.71
635.34	61195.65
635.49	60889.04
635.64	60734.56
635.79	60664.35
635.94	60584.77
636.09	60727.54
636.24	60856.27
636.39	60329.65
636.53	61073.94
636.68	60713.50
636.83	60956.91
636.98	61523.32
637.13	60802.44
637.28	61165.22
637.43	61268.20
637.57	61216.71
637.72	61073.94
637.87	61186.28
638.02	61144.16
638.17	61160.54
638.32	60816.48
638.46	60757.97
638.61	61125.43
638.76	60519.23
638.91	59976.23
639.06	60097.94
639.20	60210.28
639.35	60037.08
639.50	60081.55
639.65	60041.76
639.80	59639.19
639.94	60123.68
640.09	60013.68
640.24	60163.47
640.39	59791.33
640.54	59700.04
640.68	59245.98
640.83	59496.42
640.98	59236.62
641.13	59255.34
641.27	59480.03
641.42	59426.20
641.57	59269.39
641.72	59374.71
641.86	59412.16
642.01	59323.22
642.16	59678.98
642.31	59634.51
642.45	59976.23
642.60	59648.55
642.75	58915.96
642.90	59241.30
643.04	58988.52
643.19	59093.85
643.34	58738.08
643.48	58719.36
643.63	58705.32
643.78	59075.12
643.93	59121.93
644.07	59288.11
644.22	58934.69
644.37	59047.04
644.51	58878.52
644.66	58815.32
644.81	58646.80
644.95	58454.88
645.10	57881.45
645.25	58080.39
645.39	58232.53
645.54	58211.46
645.69	57972.73
645.83	57429.72
645.98	57815.91
646.13	57364.19
646.27	58031.24
646.42	57748.04
646.57	57286.95
646.71	57186.31
646.86	57581.86
647.00	56708.84
647.15	57043.54
647.30	56844.59
647.44	56797.78
647.59	57151.20
647.74	56683.09
647.88	56570.75
648.03	56418.61
648.17	56790.76
648.32	56802.46
648.47	57193.33
648.61	56762.67
648.76	56762.67
648.90	55931.78
649.05	55444.95
649.20	54761.51
649.34	54686.62
649.49	54822.37
649.63	55852.20
649.78	56126.05
649.92	56563.73
650.07	57078.64
650.21	57027.15
650.36	57083.33
650.51	56910.13
650.65	57382.91
650.80	57155.88
650.94	56746.29
651.09	56196.26
651.23	55489.42
651.38	55253.03
651.52	55131.32
651.67	55440.27
651.81	55676.66
651.96	55458.99
652.10	56140.09
652.25	56018.38
652.39	56329.67
652.54	56402.23
652.68	56095.62
652.83	56182.22
652.97	55999.66
653.12	55821.78
653.26	55714.11
653.41	55955.19
653.55	55950.51
653.70	55688.37
653.84	56004.34
653.99	55629.85
654.13	55363.03
654.27	54370.64
654.42	54487.67
654.56	54527.46
654.71	54424.48
654.85	54578.95
655.00	54042.97
655.14	53715.29
655.29	53127.82
655.43	52971.00
655.57	51971.60
655.72	48814.21
655.86	46820.08
656.01	44318.04
656.15	44737.00
656.30	47569.05
656.44	49097.42
656.58	50700.68
656.73	51447.32
656.87	52374.17
657.01	52603.54
657.16	53521.03
657.30	53291.66
657.45	54363.62
657.59	54468.95
657.73	54164.68
657.88	54244.26
658.02	54960.46
658.16	54361.28
658.31	54241.92
658.45	54349.58
658.60	53968.07
658.74	54143.61
658.88	53801.89
659.03	53308.04
659.17	53244.85
659.31	52956.96
659.46	53535.07
659.60	53862.75
659.74	53848.71
659.89	54038.29
660.03	53951.69
660.17	54621.08
660.32	53911.90
660.46	53752.74
660.60	53567.84
660.74	54169.36
660.89	53710.61
661.03	53544.44
661.17	53427.41
661.32	53361.87
661.46	53326.77
661.60	53572.52
661.74	53652.10
661.89	53766.79
662.03	53914.24
662.17	53560.82
662.31	53366.55
662.46	53614.65
662.60	53352.51
662.74	52760.36
662.88	52748.65
663.03	51744.56
663.17	52048.83
663.31	52306.29
663.45	52102.67
663.60	52020.75
663.74	51653.28
663.88	52083.94
664.02	51976.28
664.17	51784.35
664.31	52011.38
664.45	52182.24
664.59	52320.34
664.73	52376.51
664.88	52341.40
665.02	51753.93
665.16	51952.87
665.30	52301.61
665.44	51714.14
665.59	51969.26
665.73	51215.60
665.87	51152.41
666.01	51051.76
666.15	50534.51
666.29	50719.41
666.44	51449.66
666.58	50815.37
666.72	50527.48
666.86	51175.81
667.00	50979.21
667.14	50862.18
667.28	50646.85
667.43	50478.33
667.57	50143.64
667.71	50054.70
667.85	49794.90
667.99	50555.57
668.13	50398.76
668.27	50199.81
668.41	50328.54
668.56	49956.39
668.70	50380.03
668.84	50157.68
668.98	50244.28
669.12	49434.45
669.26	49830.01
669.40	49771.49
669.54	49495.31
669.68	49277.64
669.82	48839.96
669.96	48952.30
670.10	48636.33
670.25	48839.96
670.39	48708.89
670.53	48322.70
670.67	48308.66
670.81	48332.06
670.95	48383.55
671.09	47526.92
671.23	47430.96
671.37	47166.48
671.51	47545.64
671.65	47655.65
671.79	46899.65
671.93	47377.12
672.07	48615.27
672.21	48060.56
672.35	47517.56
672.49	47206.26
672.63	47655.65
672.77	47185.20
672.91	46894.97
673.05	46721.77
673.19	46541.55
673.33	46536.87
673.47	47077.54
673.61	46476.02
673.75	46330.90
673.89	46373.03
674.03	46445.59
674.17	46302.82
674.31	46426.87
674.45	45820.67
674.59	45963.44
674.73	44830.62
674.87	45345.54
675.01	45235.53
675.15	44334.43
675.29	45411.07
675.43	45038.93
675.56	45272.98
675.70	45357.24
675.84	44818.92
675.98	43917.81
676.12	44484.22
676.26	44832.96
676.40	43796.10
676.54	44596.57
676.68	44130.80
676.82	43505.88
676.96	43344.38
677.10	43688.44
677.23	43515.24
677.37	43269.48
677.51	43524.60
677.65	43739.93
677.79	42447.96
677.93	42614.13
678.07	42150.71
678.21	42075.81
678.34	41338.54
678.48	41523.44
678.62	41949.42
678.76	41886.23
678.90	41668.56
679.04	41717.71
679.18	41663.88
679.31	40961.72
679.45	40797.88
679.59	40842.35
679.73	40802.56
679.87	40680.85
680.00	41048.32
680.14	40184.66
680.28	40294.66
680.42	39707.19
680.56	39655.70
680.70	39335.04
680.83	39533.99
680.97	39480.16
681.11	39665.06
681.25	39779.74
681.39	39531.65
681.52	39129.08
681.66	39250.78
681.80	38703.10
681.94	38644.59
682.07	39133.76
682.21	38827.15
682.35	37933.06
682.49	37923.70
682.62	37717.73
682.76	37504.74
682.90	37350.27
683.04	37909.66
683.17	37895.61
683.31	36903.23
683.45	37268.35
683.59	36952.38
683.72	36467.89
683.86	35936.59
684.00	35150.17
684.13	36325.11
684.27	36247.88
684.41	35908.50
684.55	36282.98
684.68	35896.80
684.82	35770.41
684.96	35480.18
685.09	35208.68
685.23	34696.10
685.37	34450.35
685.50	34852.92
685.64	34714.83
685.78	34092.24
685.91	33909.68
686.05	34483.11
686.19	33415.83
686.32	31206.36
686.46	27740.03
686.60	23995.17
686.73	23541.11
686.87	21584.42
687.01	21006.31
687.14	21120.99
687.28	21916.78
687.42	23225.14
687.55	24123.90
687.69	26373.16
687.82	26998.08
687.96	27981.10
688.10	28467.94
688.23	27838.33
688.37	27887.48
688.50	27019.14
688.64	26843.60
688.78	26031.44
688.91	26284.22
689.05	26075.91
689.18	25823.13
689.32	26001.01
689.46	25937.82
689.59	26256.13
689.73	26899.78
689.86	25921.43
690.00	26534.65
690.13	26827.22
690.27	26281.88
690.41	26932.54
690.54	27194.68
690.68	26876.37
690.81	26794.45
690.95	27276.60
691.08	26885.73
691.22	26874.03
691.35	27447.46
691.49	27260.22
691.62	27489.59
691.76	26827.22
691.89	27517.68
692.03	27080.00
692.16	26408.26
692.30	26871.69
692.43	26522.95
692.57	25872.28
692.70	25626.53
692.84	26340.39
692.97	25312.89
693.11	25352.68
693.24	25682.70
693.38	25497.80
693.51	25226.29
693.65	25142.03
693.78	24266.67
693.92	24367.32
694.05	24732.44
694.19	24322.85
694.32	25097.56
694.45	24673.93
694.59	24563.92
694.72	24566.26
694.86	24304.12
694.99	25057.78
695.13	24161.35
695.26	24196.46
695.39	24290.08
695.53	24833.08
695.66	24037.30
695.80	24414.13
695.93	23726.01
696.07	24109.86
696.20	24589.67
696.33	24638.82
696.47	25151.40
696.60	25109.27
696.73	25301.19
696.87	25319.92
697.00	25436.94
697.14	24648.18
697.27	24477.32
697.40	24793.29
697.54	23775.16
697.67	23192.37
697.80	23147.90
697.94	22794.48
698.07	23529.41
698.21	22822.56
698.34	23007.47
698.47	22249.13
698.61	21666.34
698.74	21982.31
698.87	22347.44
699.01	21785.71
699.14	21727.19
699.27	22260.84
699.40	23489.62
699.54	22010.40
699.67	21352.71
699.80	21406.54
699.94	21542.29
700.07	20992.26
700.20	20460.96
700.34	20283.08
700.47	20086.48
700.60	20397.77
700.73	20772.25
700.87	21025.03
701.00	20098.18
701.13	20259.68
701.26	20393.09
701.40	20325.21
701.53	19908.60
701.66	20056.05
701.79	20381.38
701.93	20238.61
702.06	20577.99
702.19	19386.66
702.32	19892.21
702.46	19613.69
702.59	19061.32
702.72	18930.25
702.85	19466.24
702.99	19723.69
703.12	19964.77
703.25	19550.49
703.38	19417.08
703.51	19442.83
703.65	18614.28
703.78	19037.92
703.91	18948.98
704.04	19440.49
704.17	19356.23
704.31	18757.05
704.44	18972.38
704.57	19147.92
704.70	19002.81
704.83	18958.34
704.96	18530.02
705.10	18581.51
705.23	18396.61
>>>>>End Processed Spectral Data<<<<<
