SpectraSuite Data File
++++++++++++++++++++++++++++++++++++
Date: Mon Oct 07 14:53:17 GMT-05:00 2013
User: price-jones
Dark Spectrum Present: No
Reference Spectrum Present: No
Number of Sampled Component Spectra: 1
Spectrometers: USB2+H05261
Integration Time (usec): 100000 (USB2+H05261)
Spectra Averaged: 1 (USB2+H05261)
Boxcar Smoothing: 0 (USB2+H05261)
Correct for Electrical Dark: No (USB2+H05261)
Strobe/Lamp Enabled: No (USB2+H05261)
Correct for Detector Non-linearity: No (USB2+H05261)
Correct for Stray Light: No (USB2+H05261)
Number of Pixels in Processed Spectrum: 2048
>>>>>Begin Processed Spectral Data<<<<<
365.73	0.00
365.92	0.00
366.12	0.00
366.32	0.00
366.52	0.00
366.72	0.00
366.91	0.00
367.11	0.00
367.31	0.00
367.51	0.00
367.70	0.00
367.90	0.00
368.10	0.00
368.30	0.00
368.49	0.00
368.69	0.00
368.89	0.00
369.09	0.00
369.28	0.00
369.48	0.00
369.68	0.00
369.87	0.00
370.07	0.00
370.27	0.00
370.47	1088.35
370.66	5198.33
370.86	5926.24
371.06	6546.48
371.25	6494.99
371.45	5856.02
371.65	5392.59
371.84	4940.87
372.04	5394.93
372.24	5767.08
372.44	6132.20
372.63	5933.26
372.83	5631.33
373.03	4924.49
373.22	4545.32
373.42	4858.95
373.62	5521.32
373.81	5877.09
374.01	5710.91
374.21	5151.52
374.40	4870.65
374.60	5116.41
374.79	5935.60
374.99	6635.42
375.19	7243.96
375.38	7101.19
375.58	6715.00
375.78	6736.06
375.97	6724.36
376.17	6927.99
376.37	6874.15
376.56	7253.32
376.76	7543.55
376.95	7880.58
377.15	8688.07
377.35	8802.75
377.54	9032.13
377.74	9343.42
377.93	9378.53
378.13	9046.17
378.33	8706.79
378.52	8121.66
378.72	7981.23
378.91	7585.68
379.11	7272.04
379.31	7084.80
379.50	7201.83
379.70	7765.90
379.89	8643.60
380.09	9015.74
380.28	9277.88
380.48	9078.94
380.68	9067.24
380.87	8587.43
381.07	8105.28
381.26	7616.10
381.46	7087.14
381.65	6932.67
381.85	6738.40
382.04	6052.63
382.24	6054.97
382.43	5713.25
382.63	5554.09
382.83	5488.56
383.02	5568.13
383.22	5565.79
383.41	5540.05
383.61	5916.87
383.80	6832.02
384.00	7597.38
384.19	8872.97
384.39	9210.01
384.58	9034.47
384.78	8912.76
384.97	8468.06
385.17	8198.90
385.36	7941.44
385.56	7578.65
385.75	7754.19
385.95	8681.05
386.14	9139.79
386.34	9200.65
386.53	8814.46
386.72	8226.98
386.92	8430.61
387.11	8758.28
387.31	9142.13
387.50	8957.23
387.70	8830.84
387.89	8585.08
388.09	8741.90
388.28	8894.04
388.48	8908.08
388.67	9490.87
388.86	10363.89
389.06	11248.61
389.25	11782.26
389.45	11655.87
389.64	11922.69
389.84	11613.74
390.03	11386.71
390.22	11679.27
390.42	12009.29
390.61	12781.67
390.81	13497.87
391.00	13818.52
391.19	13476.80
391.39	12973.59
391.58	12182.49
391.78	11480.33
391.97	11030.94
392.16	10476.24
392.36	9366.82
392.55	7459.29
392.75	6218.80
392.94	5135.14
393.13	5050.88
393.33	6010.50
393.52	7700.36
393.71	9298.95
393.91	10443.47
394.10	11197.12
394.29	12681.02
394.49	13259.13
394.68	14476.21
394.88	14260.88
395.07	14726.65
395.26	14839.00
395.46	14197.69
395.65	12929.12
395.84	11534.16
396.04	9799.82
396.23	7894.63
396.42	6686.91
396.62	6586.27
396.81	7658.23
397.00	9736.63
397.19	12166.10
397.39	14731.33
397.58	16222.25
397.77	17406.56
397.97	17451.03
398.16	17818.50
398.35	18588.53
398.55	19269.63
398.74	19868.81
398.93	20219.89
399.12	20013.92
399.32	19346.87
399.51	19742.42
399.70	21022.69
399.90	20680.97
400.09	20500.75
400.28	20505.43
400.47	20861.19
400.67	21666.34
400.86	22380.20
401.05	22300.62
401.24	22539.36
401.44	22476.16
401.63	23145.56
401.82	23126.83
402.01	22946.61
402.21	23115.13
402.40	23330.46
402.59	22202.32
402.78	21514.20
402.97	20982.90
403.17	21647.61
403.36	22668.09
403.55	23791.55
403.74	24081.77
403.93	23037.89
404.13	21535.27
404.32	20919.71
404.51	21975.29
404.70	23452.17
404.89	23351.52
405.09	23166.62
405.28	22445.74
405.47	22405.95
405.66	22750.01
405.85	21792.73
406.05	21397.18
406.24	21703.79
406.43	22668.09
406.62	23304.71
406.81	23501.32
407.00	22499.57
407.20	21783.37
407.39	22207.00
407.58	23192.37
407.77	24196.46
407.96	24814.36
408.15	25118.63
408.34	25537.59
408.54	26314.64
408.73	26038.46
408.92	26368.48
409.11	25413.54
409.30	24095.82
409.49	22768.73
409.68	21226.32
409.87	20620.12
410.07	21862.94
410.26	24013.90
410.45	25570.35
410.64	25785.68
410.83	26618.91
411.02	27576.19
411.21	27922.59
411.40	27665.13
411.59	28404.74
411.78	27679.18
411.98	27246.18
412.17	28318.14
412.36	27578.53
412.55	27737.69
412.74	26881.05
412.93	26375.50
413.12	26827.22
413.31	28959.45
413.50	29277.76
413.69	29900.34
413.88	28807.31
414.07	27852.38
414.26	28533.47
414.45	29202.86
414.64	29422.87
414.83	29411.17
415.02	28980.51
415.22	29134.99
415.41	29453.30
415.60	30527.61
415.79	31840.65
415.98	32079.38
416.17	32381.31
416.36	31405.31
416.55	31033.16
416.74	30188.23
416.93	29104.56
417.12	29088.18
417.31	29703.74
417.50	29916.73
417.69	30976.99
417.88	30941.88
418.07	30569.74
418.26	29673.31
418.45	30459.73
418.64	31274.24
418.83	32608.34
419.02	32332.16
419.21	31690.85
419.39	29970.56
419.58	29017.96
419.77	28980.51
419.96	30782.73
420.15	32020.87
420.34	32802.61
420.53	33736.48
420.72	34550.99
420.91	34401.19
421.10	33638.18
421.29	33553.92
421.48	33020.28
421.67	34040.75
421.86	32858.78
422.05	30621.23
422.24	27665.13
422.43	27496.61
422.61	30380.15
422.80	33144.33
422.99	32868.14
423.18	31386.58
423.37	31016.78
423.56	31271.90
423.75	31594.89
423.94	32535.79
424.13	30710.17
424.32	30827.20
424.50	31028.48
424.69	30410.58
424.88	31519.99
425.07	30686.76
425.26	30822.51
425.45	29827.79
425.64	29736.51
425.83	29762.25
426.01	31768.09
426.20	32259.60
426.39	31892.14
426.58	29586.71
426.77	27398.31
426.96	26705.51
427.15	27716.62
427.33	29874.60
427.52	30911.46
427.71	30930.18
427.90	30623.57
428.09	30405.90
428.28	29727.14
428.46	29160.73
428.65	28390.70
428.84	29392.45
429.03	29993.97
429.22	27702.58
429.40	26466.78
429.59	24278.38
429.78	20978.22
429.97	21558.67
430.16	21724.85
430.34	22045.51
430.53	21563.36
430.72	22354.46
430.91	24957.13
431.10	29118.60
431.28	34396.51
431.47	36224.47
431.66	36680.88
431.85	33593.71
432.03	30845.92
432.22	29991.62
432.41	31040.18
432.60	34075.86
432.79	35779.77
432.97	36348.52
433.16	35388.90
433.35	32414.08
433.54	29401.81
433.72	27660.45
433.91	28720.71
434.10	31885.12
434.28	34178.84
434.47	35952.97
434.66	34632.91
434.85	34429.28
435.03	33820.74
435.22	35232.08
435.41	36973.44
435.59	36875.14
435.78	37095.15
435.97	38429.26
436.16	38473.73
436.34	38146.05
436.53	37013.23
436.72	37397.08
436.90	35360.81
437.09	35161.87
437.28	34859.94
437.46	35929.56
437.65	35653.38
437.84	32940.70
438.02	31206.36
438.21	31047.21
438.40	32393.01
438.58	35253.15
438.77	36051.27
438.96	36510.02
439.14	37724.75
439.33	38768.63
439.52	38990.98
439.70	38560.33
439.89	37280.05
440.08	36285.33
440.26	36280.64
440.45	37975.19
440.63	40107.42
440.82	42054.75
441.01	41523.44
441.19	40931.29
441.38	41652.17
441.57	43229.69
441.75	43452.05
441.94	43753.97
442.12	43426.30
442.31	44336.77
442.50	43917.81
442.68	43686.10
442.87	43356.08
443.05	42515.83
443.24	42960.53
443.43	44404.64
443.61	44875.09
443.80	45244.90
443.98	42958.19
444.17	43232.04
444.35	45031.91
444.54	45986.85
444.73	45434.48
444.91	43629.93
445.10	41797.29
445.28	40664.47
445.47	40102.74
445.65	40184.66
445.84	41408.76
446.02	42347.31
446.21	43042.45
446.39	42923.08
446.58	43590.14
446.77	44758.06
446.95	44917.22
447.14	45677.90
447.32	46433.89
447.51	45343.20
447.69	43840.57
447.88	43650.99
448.06	44065.27
448.25	45184.04
448.43	45191.06
448.62	44720.62
448.80	44236.12
448.99	44720.62
449.17	44889.13
449.36	45022.54
449.54	46230.26
449.73	46979.23
449.91	47629.90
450.10	48474.84
450.28	48814.21
450.46	48549.73
450.65	48858.68
450.83	48636.33
451.02	47667.35
451.20	47615.86
451.39	47590.11
451.57	46829.44
451.76	47239.03
451.94	46733.48
452.13	46305.16
452.31	44472.52
452.49	42625.84
452.68	43129.05
452.86	43035.43
453.05	44041.86
453.23	45031.91
453.42	45787.90
453.60	47033.07
453.78	46859.87
453.97	46333.24
454.15	46932.42
454.34	45785.56
454.52	46050.04
454.70	44980.42
454.89	45916.63
455.07	45677.90
455.26	46813.05
455.44	47999.71
455.62	48088.65
455.81	48388.24
455.99	48203.33
456.17	47934.17
456.36	47899.06
456.54	49186.36
456.73	48973.37
456.91	49420.41
457.09	49712.98
457.28	50382.37
457.46	49052.95
457.64	49017.84
457.83	47695.44
458.01	46894.97
458.19	48083.97
458.38	48371.85
458.56	49195.72
458.74	49050.61
458.93	48193.97
459.11	48322.70
459.29	48175.25
459.48	48442.07
459.66	48011.41
459.84	48655.06
460.03	48484.20
460.21	48898.47
460.39	49565.52
460.57	49801.92
460.76	49799.58
460.94	50457.27
461.12	49722.34
461.31	50092.15
461.49	50145.98
461.67	49654.47
461.85	50876.22
462.04	50571.96
462.22	50869.20
462.40	50789.62
462.59	50408.12
462.77	50958.14
462.95	50892.61
463.13	50206.83
463.32	50328.54
463.50	50110.87
463.68	49771.49
463.86	49818.30
464.05	49375.94
464.23	48540.37
464.41	48095.67
464.59	48250.14
464.78	50190.45
464.96	49366.58
465.14	49064.65
465.32	50394.07
465.50	51075.17
465.69	51264.75
465.87	50452.59
466.05	49174.66
466.23	47885.02
466.41	46953.49
466.60	48119.07
466.78	47866.30
466.96	48910.17
467.14	49474.24
467.32	49701.28
467.51	49708.30
467.69	48289.93
467.87	48729.95
468.05	49558.50
468.23	49556.16
468.41	49488.29
468.60	49874.48
468.78	50433.86
468.96	49511.69
469.14	50368.33
469.32	50553.23
469.50	48638.67
469.69	48914.86
469.87	48659.74
470.05	48165.88
470.23	48460.79
470.41	48619.95
470.59	48851.66
470.77	49270.62
470.95	50120.23
471.14	50244.28
471.32	50124.91
471.50	52339.06
471.68	52437.36
471.86	52423.32
472.04	52797.80
472.22	52772.06
472.40	51105.60
472.58	50904.31
472.77	50298.11
472.95	51332.63
473.13	52196.29
473.31	51129.00
473.49	51423.91
473.67	51976.28
473.85	52161.18
474.03	53041.22
474.21	53413.37
474.39	53450.81
474.57	53462.52
474.75	53523.37
474.93	53326.77
475.12	52835.25
475.30	52535.66
475.48	52715.89
475.66	53202.72
475.84	52905.47
476.02	52725.25
476.20	52046.49
476.38	53029.52
476.56	53935.30
476.74	54101.48
476.92	54370.64
477.10	54522.78
477.28	55470.70
477.46	55468.36
477.64	55906.04
477.82	55746.88
478.00	55803.05
478.18	55440.27
478.36	55508.14
478.54	55313.88
478.72	55545.59
478.90	56491.17
479.08	57144.18
479.26	57436.75
479.44	57031.83
479.62	57057.58
479.80	57137.16
479.98	57272.91
480.16	57354.83
480.34	57305.68
480.52	57130.14
480.70	57579.52
480.88	57467.17
481.06	57932.94
481.24	58501.69
481.41	58812.98
481.59	59405.14
481.77	59140.66
481.95	58562.54
482.13	58377.64
482.31	58555.52
482.49	59112.57
482.67	58890.22
482.85	59245.98
483.03	59571.32
483.21	59653.23
483.39	59810.05
483.57	59189.81
483.74	59119.59
483.92	59517.48
484.10	59381.73
484.28	60123.68
484.46	60212.62
484.64	60566.04
484.82	59835.80
485.00	59571.32
485.18	58981.50
485.35	58024.22
485.53	56065.19
485.71	53467.20
485.89	53389.96
486.07	55042.38
486.25	57237.80
486.43	58499.35
486.61	59023.63
486.78	58922.99
486.96	59011.93
487.14	60121.34
487.32	60767.33
487.50	61237.78
487.68	61825.25
487.85	62267.61
488.03	62059.30
488.21	61827.59
488.39	61413.32
488.57	60935.85
488.75	60795.42
488.92	61509.28
489.10	63274.04
489.28	64025.35
489.46	64542.61
489.64	64292.18
489.81	64516.87
489.99	64395.16
490.17	64203.24
490.35	64516.87
490.53	64020.67
490.70	63688.32
490.88	63788.96
491.06	64741.56
491.24	64647.94
491.41	63786.62
491.59	62508.69
491.77	62103.77
491.95	62880.83
492.13	63828.75
492.30	64542.61
492.48	65340.74
492.66	65535.00
492.84	65535.00
493.01	65396.91
493.19	65085.62
493.37	64867.95
493.54	64746.24
493.72	65226.05
493.90	65535.00
494.08	65535.00
494.25	65535.00
494.43	65535.00
494.61	65535.00
494.79	65535.00
494.96	65535.00
495.14	65535.00
495.32	65535.00
495.49	65535.00
495.67	65535.00
495.85	65535.00
496.02	65535.00
496.20	65535.00
496.38	65535.00
496.55	65535.00
496.73	65535.00
496.91	65535.00
497.09	65535.00
497.26	65535.00
497.44	65535.00
497.62	65535.00
497.79	65535.00
497.97	65535.00
498.14	65535.00
498.32	65535.00
498.50	65535.00
498.67	65535.00
498.85	65535.00
499.03	65535.00
499.20	65535.00
499.38	65535.00
499.56	65535.00
499.73	65535.00
499.91	65535.00
500.08	65535.00
500.26	65535.00
500.44	65535.00
500.61	65535.00
500.79	65535.00
500.97	65535.00
501.14	65535.00
501.32	65535.00
501.49	65535.00
501.67	65535.00
501.84	65535.00
502.02	65535.00
502.20	65535.00
502.37	65535.00
502.55	65535.00
502.72	65535.00
502.90	65535.00
503.07	65535.00
503.25	65535.00
503.43	65535.00
503.60	65535.00
503.78	65535.00
503.95	65535.00
504.13	65535.00
504.30	65535.00
504.48	65535.00
504.65	65535.00
504.83	65535.00
505.01	65535.00
505.18	65535.00
505.36	65535.00
505.53	65535.00
505.71	65535.00
505.88	65535.00
506.06	65535.00
506.23	65535.00
506.41	65535.00
506.58	65535.00
506.76	65535.00
506.93	65535.00
507.11	65535.00
507.28	65535.00
507.46	65535.00
507.63	65535.00
507.81	65535.00
507.98	65535.00
508.16	65535.00
508.33	65535.00
508.50	65535.00
508.68	65535.00
508.85	65535.00
509.03	65535.00
509.20	65535.00
509.38	65535.00
509.55	65535.00
509.73	65535.00
509.90	65535.00
510.08	65535.00
510.25	65535.00
510.42	65535.00
510.60	65535.00
510.77	65535.00
510.95	65535.00
511.12	65535.00
511.30	65535.00
511.47	65535.00
511.64	65535.00
511.82	65535.00
511.99	65535.00
512.17	65535.00
512.34	65535.00
512.51	65535.00
512.69	65535.00
512.86	65535.00
513.04	65535.00
513.21	65535.00
513.38	65535.00
513.56	65535.00
513.73	65535.00
513.90	65535.00
514.08	65535.00
514.25	65535.00
514.43	65535.00
514.60	65535.00
514.77	65535.00
514.95	65535.00
515.12	65535.00
515.29	65535.00
515.47	65535.00
515.64	65535.00
515.81	65535.00
515.99	65535.00
516.16	65535.00
516.33	65535.00
516.51	65535.00
516.68	64236.00
516.85	63721.08
517.03	64008.97
517.20	65535.00
517.37	65535.00
517.54	65535.00
517.72	65535.00
517.89	65535.00
518.06	65535.00
518.24	65392.23
518.41	65535.00
518.58	65535.00
518.75	65535.00
518.93	65535.00
519.10	65535.00
519.27	65535.00
519.45	65535.00
519.62	65535.00
519.79	65535.00
519.96	65535.00
520.14	65535.00
520.31	65535.00
520.48	65535.00
520.65	65535.00
520.83	65535.00
521.00	65535.00
521.17	65535.00
521.34	65535.00
521.52	65535.00
521.69	65535.00
521.86	65535.00
522.03	65535.00
522.20	65535.00
522.38	65535.00
522.55	65535.00
522.72	65535.00
522.89	65535.00
523.07	65535.00
523.24	65535.00
523.41	65535.00
523.58	65535.00
523.75	65535.00
523.92	65535.00
524.10	65535.00
524.27	65535.00
524.44	65535.00
524.61	65535.00
524.78	65535.00
524.96	65535.00
525.13	65535.00
525.30	65535.00
525.47	65535.00
525.64	65535.00
525.81	65535.00
525.98	65535.00
526.16	65535.00
526.33	65535.00
526.50	65535.00
526.67	65535.00
526.84	65535.00
527.01	65535.00
527.18	65535.00
527.36	65535.00
527.53	65535.00
527.70	65535.00
527.87	65535.00
528.04	65535.00
528.21	65535.00
528.38	65535.00
528.55	65535.00
528.72	65535.00
528.89	65535.00
529.07	65535.00
529.24	65535.00
529.41	65535.00
529.58	65535.00
529.75	65535.00
529.92	65535.00
530.09	65535.00
530.26	65535.00
530.43	65535.00
530.60	65535.00
530.77	65535.00
530.94	65535.00
531.11	65535.00
531.28	65535.00
531.46	65535.00
531.63	65535.00
531.80	65535.00
531.97	65535.00
532.14	65535.00
532.31	65535.00
532.48	65535.00
532.65	65535.00
532.82	65535.00
532.99	65535.00
533.16	65535.00
533.33	65535.00
533.50	65535.00
533.67	65535.00
533.84	65535.00
534.01	65535.00
534.18	65535.00
534.35	65535.00
534.52	65535.00
534.69	65535.00
534.86	65535.00
535.03	65535.00
535.20	65535.00
535.37	65535.00
535.54	65535.00
535.71	65535.00
535.88	65535.00
536.05	65535.00
536.22	65535.00
536.38	65535.00
536.55	65535.00
536.72	65535.00
536.89	65535.00
537.06	65535.00
537.23	65535.00
537.40	65535.00
537.57	65535.00
537.74	65535.00
537.91	65535.00
538.08	65535.00
538.25	65535.00
538.42	65535.00
538.59	65535.00
538.75	65535.00
538.92	65535.00
539.09	65535.00
539.26	65535.00
539.43	65535.00
539.60	65535.00
539.77	65535.00
539.94	65535.00
540.11	65535.00
540.28	65535.00
540.44	65535.00
540.61	65535.00
540.78	65535.00
540.95	65535.00
541.12	65535.00
541.29	65535.00
541.46	65535.00
541.62	65535.00
541.79	65535.00
541.96	65535.00
542.13	65535.00
542.30	65535.00
542.47	65535.00
542.63	65535.00
542.80	65535.00
542.97	65535.00
543.14	65535.00
543.31	65535.00
543.48	65535.00
543.64	65535.00
543.81	65535.00
543.98	65535.00
544.15	65535.00
544.32	65535.00
544.48	65535.00
544.65	65535.00
544.82	65535.00
544.99	65535.00
545.16	65535.00
545.32	65535.00
545.49	65535.00
545.66	65535.00
545.83	65535.00
546.00	65535.00
546.16	65535.00
546.33	65535.00
546.50	65535.00
546.67	65535.00
546.83	65535.00
547.00	65535.00
547.17	65535.00
547.34	65535.00
547.50	65535.00
547.67	65535.00
547.84	65535.00
548.00	65535.00
548.17	65535.00
548.34	65535.00
548.51	65535.00
548.67	65535.00
548.84	65535.00
549.01	65535.00
549.18	65535.00
549.34	65535.00
549.51	65535.00
549.68	65535.00
549.84	65535.00
550.01	65535.00
550.18	65535.00
550.34	65535.00
550.51	65535.00
550.68	65535.00
550.84	65535.00
551.01	65535.00
551.18	65535.00
551.34	65535.00
551.51	65535.00
551.68	65535.00
551.84	65535.00
552.01	65535.00
552.18	65535.00
552.34	65535.00
552.51	65535.00
552.68	65535.00
552.84	65535.00
553.01	65535.00
553.18	65535.00
553.34	65535.00
553.51	65535.00
553.67	65535.00
553.84	65535.00
554.01	65535.00
554.17	65535.00
554.34	65535.00
554.51	65535.00
554.67	65535.00
554.84	65535.00
555.00	65535.00
555.17	65535.00
555.33	65535.00
555.50	65535.00
555.67	65535.00
555.83	65535.00
556.00	65535.00
556.16	65535.00
556.33	65535.00
556.50	65535.00
556.66	65535.00
556.83	65535.00
556.99	65535.00
557.16	65535.00
557.32	65535.00
557.49	65535.00
557.65	65535.00
557.82	65535.00
557.98	65535.00
558.15	65535.00
558.32	65535.00
558.48	65535.00
558.65	65535.00
558.81	65535.00
558.98	65535.00
559.14	65535.00
559.31	65535.00
559.47	65535.00
559.64	65535.00
559.80	65535.00
559.97	65535.00
560.13	65535.00
560.30	65535.00
560.46	65535.00
560.63	65535.00
560.79	65535.00
560.96	65535.00
561.12	65535.00
561.29	65535.00
561.45	65535.00
561.61	65535.00
561.78	65535.00
561.94	65535.00
562.11	65535.00
562.27	65535.00
562.44	65535.00
562.60	65535.00
562.77	65535.00
562.93	65535.00
563.10	65535.00
563.26	65535.00
563.42	65535.00
563.59	65535.00
563.75	65535.00
563.92	65535.00
564.08	65535.00
564.24	65535.00
564.41	65535.00
564.57	65535.00
564.74	65535.00
564.90	65535.00
565.07	65535.00
565.23	65535.00
565.39	65535.00
565.56	65535.00
565.72	65420.31
565.88	65535.00
566.05	65535.00
566.21	65535.00
566.38	65535.00
566.54	65535.00
566.70	65535.00
566.87	65535.00
567.03	65535.00
567.19	65535.00
567.36	65535.00
567.52	65535.00
567.68	65535.00
567.85	65535.00
568.01	65535.00
568.17	65284.56
568.34	65200.30
568.50	65219.03
568.66	65286.90
568.83	65535.00
568.99	65535.00
569.15	65535.00
569.32	65535.00
569.48	65535.00
569.64	65535.00
569.81	65221.37
569.97	65123.07
570.13	65176.90
570.30	64807.09
570.46	64460.69
570.62	64046.42
570.78	63959.82
570.95	64205.58
571.11	64863.27
571.27	65099.66
571.43	65172.22
571.60	65331.37
571.76	65535.00
571.92	65535.00
572.09	65535.00
572.25	65535.00
572.41	65535.00
572.57	65535.00
572.74	65535.00
572.90	65420.31
573.06	65272.86
573.22	65492.87
573.38	65366.48
573.55	65317.33
573.71	65471.81
573.87	65378.18
574.03	65261.16
574.20	65413.29
574.36	65020.08
574.52	64849.22
574.68	64839.86
574.84	64390.48
575.01	64228.98
575.17	64186.85
575.33	64453.67
575.49	64685.39
575.65	64809.43
575.82	64493.46
575.98	64163.45
576.14	64402.18
576.30	64458.35
576.46	64659.64
576.62	64764.96
576.79	64725.17
576.95	64341.33
577.11	64535.59
577.27	64427.93
577.43	64441.97
577.59	64100.25
577.75	63805.34
577.92	63379.37
578.08	63367.66
578.24	63337.24
578.40	63711.72
578.56	63590.01
578.72	63723.43
578.88	64046.42
579.04	63994.93
579.21	64186.85
579.37	64055.78
579.53	64240.68
579.69	64177.49
579.85	64313.24
580.01	64069.82
580.17	63711.72
580.33	63388.73
580.49	63880.24
580.65	63891.94
580.82	64210.26
580.98	64090.89
581.14	64086.21
581.30	64118.98
581.46	64104.93
581.62	64292.18
581.78	64062.80
581.94	64488.78
582.10	64420.90
582.26	64338.99
582.42	64306.22
582.58	64320.26
582.74	64334.31
582.90	64399.84
583.06	64219.62
583.22	64090.89
583.38	64102.59
583.54	63983.22
583.70	63929.39
583.86	63913.01
584.02	63924.71
584.18	64030.04
584.34	63898.97
584.50	63861.52
584.66	63737.47
584.82	63267.02
584.98	63313.83
585.14	63091.48
585.30	62670.18
585.46	62541.45
585.62	62466.56
585.78	62721.68
585.94	62468.90
586.10	62976.79
586.26	63018.92
586.42	63456.60
586.58	63472.99
586.74	63313.83
586.90	63309.15
587.06	63154.68
587.22	63297.45
587.38	62908.92
587.54	62817.64
587.70	62574.22
587.86	62518.05
588.02	62370.60
588.18	62342.51
588.34	61490.55
588.49	60245.39
588.65	58915.96
588.81	58543.82
588.97	58894.90
589.13	58522.76
589.29	58618.72
589.45	59334.92
589.61	60353.05
589.77	60975.64
589.93	61380.55
590.08	61820.57
590.24	61935.26
590.40	61787.80
590.56	62106.12
590.72	61815.89
590.88	61563.11
591.04	61504.60
591.20	61633.33
591.35	61265.86
591.51	61855.68
591.67	61462.47
591.83	61740.99
591.99	61715.25
592.15	61879.08
592.31	61668.44
592.46	61403.95
592.62	61172.24
592.78	61261.18
592.94	61322.04
593.10	61432.04
593.26	61687.16
593.41	61984.41
593.57	61818.23
593.73	61296.29
593.89	61125.43
594.05	60968.61
594.20	60795.42
594.36	60432.63
594.52	60430.29
594.68	60423.27
594.84	60505.19
594.99	60893.72
595.15	60867.97
595.31	61109.05
595.47	61106.71
595.62	61069.26
595.78	61265.86
595.94	61315.01
596.10	61368.85
596.25	61183.94
596.41	61132.45
596.57	60877.33
596.73	61083.30
596.88	61139.47
597.04	61052.87
597.20	60954.57
597.36	60514.55
597.51	60664.35
597.67	60994.36
597.83	60701.79
597.99	60734.56
598.14	60261.77
598.30	60278.16
598.46	60186.88
598.61	60367.10
598.77	60177.51
598.93	60547.32
599.09	60669.03
599.24	60835.20
599.40	60612.85
599.56	60612.85
599.71	60692.43
599.87	60453.70
600.03	60523.91
600.18	60409.23
600.34	59978.57
600.50	59917.71
600.65	59910.69
600.81	60266.45
600.97	60030.06
601.12	60119.00
601.28	60051.12
601.44	59849.84
601.59	59470.67
601.75	59344.28
601.91	59529.19
602.06	59601.74
602.22	59868.56
602.37	59552.59
602.53	59779.62
602.69	60055.81
602.84	59873.24
603.00	60154.11
603.16	60484.12
603.31	60334.33
603.47	60310.92
603.62	60025.38
603.78	60186.88
603.94	59812.39
604.09	59971.55
604.25	60198.58
604.40	59929.42
604.56	59964.52
604.71	60156.45
604.87	59943.46
605.03	59784.30
605.18	59711.75
605.34	59547.91
605.49	59533.87
605.65	59842.82
605.80	59676.64
605.96	59227.26
606.12	59224.92
606.27	59370.03
606.43	59171.08
606.58	59363.01
606.74	59510.46
606.89	59597.06
607.05	59561.95
607.20	59519.82
607.36	59161.72
607.51	59171.08
607.67	58904.26
607.82	58915.96
607.98	58782.55
608.13	58955.75
608.29	58532.12
608.44	58553.18
608.60	58630.42
608.75	58609.35
608.91	58759.15
609.06	58831.71
609.22	58656.17
609.37	58515.73
609.53	58541.48
609.68	58365.94
609.84	57762.08
609.99	57411.00
610.15	57453.13
610.30	57682.50
610.46	58056.99
610.61	58389.34
610.76	58464.24
610.92	58604.67
611.07	58431.47
611.23	58562.54
611.38	58522.76
611.54	58356.58
611.69	58237.21
611.84	57401.64
612.00	57268.23
612.15	57502.28
612.31	57485.90
612.46	57450.79
612.62	57563.14
612.77	57792.51
612.92	57815.91
613.08	57359.51
613.23	56978.00
613.39	56423.29
613.54	56212.65
613.69	56537.98
613.85	56486.49
614.00	56685.43
614.15	56877.36
614.31	56966.30
614.46	57179.29
614.62	56978.00
614.77	57134.82
614.92	57031.83
615.08	56797.78
615.23	56619.90
615.38	56687.78
615.54	56067.53
615.69	55657.94
615.84	55004.93
616.00	54817.69
616.15	55058.76
616.30	55444.95
616.46	55456.65
616.61	55571.34
616.76	56044.13
616.92	56088.60
617.07	56126.05
617.22	56133.07
617.37	56062.85
617.53	56332.01
617.68	56261.80
617.83	56289.88
617.99	56514.58
618.14	56245.41
618.29	56362.44
618.45	55955.19
618.60	55585.38
618.75	55512.83
618.90	55473.04
619.06	55622.83
619.21	55838.16
619.36	56032.42
619.51	56182.22
619.67	55683.69
619.82	56126.05
619.97	56154.13
620.12	55746.88
620.28	56062.85
620.43	56027.74
620.58	55994.98
620.73	55983.27
620.89	55529.21
621.04	55166.43
621.19	55325.58
621.34	54995.57
621.49	54719.38
621.65	54576.61
621.80	54901.95
621.95	54766.20
622.10	54894.92
622.25	54885.56
622.41	54707.68
622.56	54284.04
622.71	54248.94
622.86	53705.93
623.01	54265.32
623.16	54284.04
623.32	54094.46
623.47	54436.18
623.62	54007.86
623.77	54005.52
623.92	53729.34
624.07	53001.43
624.23	52748.65
624.38	53200.38
624.53	53418.05
624.68	53202.72
624.83	53165.27
624.98	53193.36
625.13	52856.32
625.29	52926.53
625.44	52631.63
625.59	52467.79
625.74	52502.90
625.89	52884.40
626.04	53141.86
626.19	52963.98
626.34	53073.99
626.49	52935.90
626.65	53024.84
626.80	53085.69
626.95	52842.27
627.10	52886.74
627.25	52025.43
627.40	51016.66
627.55	50396.42
627.70	50080.44
627.85	50211.51
628.00	50932.40
628.15	51571.36
628.30	51817.12
628.45	51870.95
628.60	51789.03
628.76	51454.34
628.91	51828.82
629.06	51351.35
629.21	51379.44
629.36	50916.01
629.51	50801.33
629.66	50337.90
629.81	50057.04
629.96	50145.98
630.11	50665.58
630.26	50703.03
630.41	51192.20
630.56	50742.81
630.71	51262.41
630.86	50904.31
631.01	50731.11
631.16	49949.37
631.31	49673.19
631.46	49329.13
631.61	49827.66
631.76	50160.02
631.91	49930.65
632.06	50365.99
632.21	50452.59
632.36	50822.39
632.51	50532.17
632.66	50560.25
632.81	50447.91
632.96	50527.48
633.10	50185.77
633.25	49790.22
633.40	50010.23
633.55	49703.62
633.70	49628.72
633.85	49759.79
634.00	50052.36
634.15	49937.67
634.30	49588.93
634.45	49773.83
634.60	50241.94
634.75	49932.99
634.90	49822.98
635.05	49727.02
635.19	49647.44
635.34	49642.76
635.49	49436.80
635.64	48844.64
635.79	48643.35
635.94	48891.45
636.09	49109.12
636.24	49219.13
636.39	49331.47
636.53	49137.21
636.68	49041.24
636.83	49382.96
636.98	49755.11
637.13	49689.57
637.28	49911.92
637.43	49848.73
637.57	49397.01
637.72	49418.07
637.87	49359.56
638.02	49242.53
638.17	49123.16
638.32	48914.86
638.46	49172.31
638.61	48914.86
638.76	48666.76
638.91	48446.75
639.06	47892.04
639.20	48074.60
639.35	47885.02
639.50	47496.49
639.65	47735.23
639.80	47423.93
639.94	47405.21
640.09	47997.37
640.24	48006.73
640.39	47702.46
640.54	47288.18
640.68	47044.77
640.83	46864.55
640.98	46225.58
641.13	46674.96
641.27	47241.37
641.42	46504.10
641.57	46962.85
641.72	46302.82
641.86	46518.15
642.01	46904.34
642.16	47189.88
642.31	47246.05
642.45	47529.26
642.60	46927.74
642.75	46820.08
642.90	46934.76
643.04	46689.01
643.19	46665.60
643.34	46476.02
643.48	46859.87
643.63	45818.33
643.78	46246.65
643.93	47131.37
644.07	46911.36
644.22	47070.51
644.37	46349.63
644.51	46234.94
644.66	46415.16
644.81	46101.53
644.95	46312.18
645.10	45769.18
645.25	45127.87
645.39	45528.10
645.54	44900.84
645.69	44626.99
645.83	44257.19
645.98	44243.15
646.13	44369.54
646.27	43910.79
646.42	44514.65
646.57	43948.24
646.71	43971.64
646.86	43407.58
647.00	43559.71
647.15	42784.99
647.30	43398.21
647.44	43421.62
647.59	42946.49
647.74	43206.29
647.88	43068.20
648.03	42937.13
648.17	42759.25
648.32	43168.84
648.47	43559.71
648.61	43044.79
648.76	42923.08
648.90	42511.15
649.05	40760.43
649.20	39992.73
649.34	40165.93
649.49	40332.11
649.63	41029.59
649.78	42071.13
649.92	41923.68
650.07	42834.14
650.21	42789.67
650.36	43234.38
650.51	42567.32
650.65	43147.78
650.80	43047.13
650.94	42366.04
651.09	41586.64
651.23	40985.12
651.38	40692.55
651.52	40823.62
651.67	41572.60
651.81	41682.60
651.96	42424.55
652.10	42017.30
652.25	42036.02
652.39	42272.42
652.54	42258.37
652.68	42227.95
652.83	41542.17
652.97	41663.88
653.12	41563.23
653.26	41879.21
653.41	42024.32
653.55	42005.59
653.70	42066.45
653.84	41460.25
653.99	41617.07
654.13	40905.54
654.27	40371.90
654.42	40297.00
654.56	39744.64
654.71	40208.06
654.85	39426.32
655.00	39124.40
655.14	38749.91
655.29	38480.75
655.43	37572.62
655.57	36072.34
655.72	33567.96
655.86	31239.13
656.01	29898.00
656.15	29713.10
656.30	32250.24
656.44	33654.56
656.58	35494.22
656.73	36229.15
656.87	37436.87
657.01	37551.56
657.16	37731.78
657.30	38686.71
657.45	38965.24
657.59	39494.20
657.73	38817.78
657.88	39360.79
658.02	39440.37
658.16	38972.26
658.31	39302.28
658.45	39173.55
658.60	38642.24
658.74	38998.01
658.88	38080.52
659.03	38029.02
659.17	38043.07
659.31	38363.72
659.46	38574.37
659.60	38752.25
659.74	39337.38
659.89	39218.02
660.03	39519.95
660.17	39292.91
660.32	38897.36
660.46	38780.34
660.60	38494.79
660.74	38099.24
660.89	37930.72
661.03	38274.78
661.17	38211.59
661.32	38389.47
661.46	38321.59
661.60	38972.26
661.74	38321.59
661.89	38553.30
662.03	38204.56
662.17	37996.26
662.31	37755.18
662.46	37750.50
662.60	37804.33
662.74	37443.89
662.88	37315.16
663.03	37027.28
663.17	37099.83
663.31	37209.84
663.45	36900.89
663.60	36884.50
663.74	36552.15
663.88	36809.61
664.02	36123.83
664.17	36952.38
664.31	36311.07
664.45	36708.96
664.59	36617.68
664.73	36601.30
664.88	36872.80
665.02	36479.59
665.16	36371.92
665.30	36486.61
665.44	36301.71
665.59	35906.16
665.73	35407.62
665.87	35335.07
666.01	35297.62
666.15	34330.98
666.29	34663.33
666.44	35323.36
666.58	35424.01
666.72	35124.42
666.86	35274.21
667.00	35421.67
667.14	35206.34
667.28	35084.63
667.43	34632.91
667.57	34721.85
667.71	34422.26
667.85	34448.00
667.99	34452.69
668.13	34412.90
668.27	34295.87
668.41	34738.23
668.56	34628.23
668.70	34349.70
668.84	34405.88
668.98	34265.44
669.12	34036.07
669.26	33553.92
669.40	33563.28
669.54	33490.73
669.68	33371.36
669.82	33544.56
669.96	33053.05
670.10	33046.02
670.25	32863.46
670.39	32566.21
670.53	32680.90
670.67	32978.15
670.81	32308.76
670.95	32343.86
671.09	32243.22
671.23	32224.50
671.37	31889.80
671.51	31419.35
671.65	32091.09
671.79	31960.02
671.93	31978.74
672.07	32137.90
672.21	32219.81
672.35	32149.60
672.49	31833.63
672.63	32151.94
672.77	31613.62
672.91	31754.05
673.05	31690.85
673.19	31782.13
673.33	31885.12
673.47	31325.73
673.61	30817.83
673.75	31009.76
673.89	31168.91
674.03	31171.25
674.17	30747.62
674.31	30866.98
674.45	30637.61
674.59	30384.83
674.73	30391.86
674.87	30855.28
675.01	30134.40
675.15	30183.55
675.29	29961.20
675.43	29947.15
675.56	30031.41
675.70	29755.23
675.84	29860.55
675.98	29383.09
676.12	29788.00
676.26	29605.44
676.40	29226.27
676.54	29149.03
676.68	28868.17
676.82	28811.99
676.96	28694.97
677.10	29132.65
677.23	28442.19
677.37	28645.82
677.51	28704.33
677.65	28545.17
677.79	28379.00
677.93	28189.41
678.07	28009.19
678.21	27587.89
678.34	27632.36
678.48	27417.04
678.62	27538.74
678.76	27456.82
678.90	27665.13
679.04	27681.52
679.18	27651.09
679.31	27012.12
679.45	27300.01
679.59	26998.08
679.73	27199.37
679.87	26668.06
680.00	26761.69
680.14	26522.95
680.28	26267.83
680.42	26073.57
680.56	25883.98
680.70	25528.22
680.83	26061.87
680.97	25450.99
681.11	25348.00
681.25	25418.22
681.39	25762.28
681.52	25584.40
681.66	25343.32
681.80	25502.48
681.94	25942.50
682.07	25504.82
682.21	25205.23
682.35	24999.26
682.49	25326.94
682.62	24645.84
682.76	24222.20
682.90	24334.55
683.04	24566.26
683.17	24046.66
683.31	24552.22
683.45	24116.88
683.59	24278.38
683.72	23307.05
683.86	23173.64
684.00	23042.57
684.13	22820.22
684.27	23185.35
684.41	23637.07
684.55	22941.93
684.68	23129.17
684.82	22974.70
684.96	23178.33
685.09	22885.76
685.23	22637.66
685.37	22499.57
685.50	22752.35
685.64	22436.38
685.78	22136.79
685.91	21996.35
686.05	22115.72
686.19	21111.63
686.32	20105.20
686.46	17703.81
686.60	15704.99
686.73	14504.30
686.87	13673.41
687.01	13731.92
687.14	13994.06
687.28	14508.98
687.42	15066.03
687.55	15283.70
687.69	16533.54
687.82	17202.94
687.96	17830.20
688.10	17797.43
688.23	18024.47
688.37	17458.06
688.50	17128.04
688.64	16765.26
688.78	16652.91
688.91	16355.66
689.05	16835.47
689.18	16306.51
689.32	16505.46
689.46	16299.49
689.59	16952.50
689.73	16608.44
689.86	16608.44
690.00	16744.19
690.13	16879.94
690.27	16971.22
690.41	16821.43
690.54	16622.48
690.68	17053.14
690.81	17020.38
690.95	17085.91
691.08	17209.96
691.22	17114.00
691.35	16938.46
691.49	17125.70
691.62	17167.83
691.76	16945.48
691.89	17102.29
692.03	17001.65
692.16	16585.04
692.30	16617.80
692.43	16739.51
692.57	16666.95
692.70	16189.49
692.84	16119.27
692.97	16137.99
693.11	16318.22
693.24	16184.80
693.38	16446.94
693.51	16063.10
693.65	15609.03
693.78	15213.48
693.92	15161.99
694.05	15220.50
694.19	15161.99
694.32	15222.84
694.45	15171.35
694.59	15300.08
694.72	15349.23
694.86	15398.38
694.99	15461.58
695.13	15201.78
695.26	15236.89
695.39	14801.55
695.53	15035.60
695.66	14979.43
695.80	15070.71
695.93	15021.56
696.07	15229.87
696.20	15272.00
696.33	15122.20
696.47	15276.68
696.60	15428.81
696.73	15477.96
696.87	15662.86
697.00	15374.98
697.14	15164.33
697.27	14883.47
697.40	14745.38
697.54	14651.75
697.67	14068.96
697.80	14033.85
697.94	14040.87
698.07	13769.37
698.21	14017.47
698.34	13774.05
698.47	13444.04
698.61	13404.25
698.74	13315.31
698.87	13345.73
699.01	13242.75
699.14	13177.22
699.27	13247.43
699.40	13437.02
699.54	13280.20
699.67	13202.96
699.80	12924.44
699.94	13099.98
700.07	12830.82
700.20	12425.90
700.34	12353.35
700.47	12123.98
700.60	12339.30
700.73	12346.33
700.87	12320.58
701.00	12037.38
701.13	12306.54
701.26	11910.99
701.40	11789.28
701.53	11901.62
701.66	12013.97
701.79	12016.31
701.93	11946.09
702.06	11878.22
702.19	11676.93
702.32	11655.87
702.46	11669.91
702.59	11520.12
702.72	11702.68
702.85	11632.46
702.99	11861.84
703.12	11875.88
703.25	11639.48
703.38	11573.95
703.51	11435.86
703.65	11225.21
703.78	11089.46
703.91	10944.34
704.04	11527.14
704.17	11239.25
704.31	11332.87
704.44	11339.90
704.57	11084.78
704.70	11077.76
704.83	11002.86
704.96	10703.27
705.10	10647.10
705.23	10485.60
>>>>>End Processed Spectral Data<<<<<
