SpectraSuite Data File
++++++++++++++++++++++++++++++++++++
Date: Mon Oct 07 14:53:57 GMT-05:00 2013
User: price-jones
Dark Spectrum Present: No
Reference Spectrum Present: No
Number of Sampled Component Spectra: 1
Spectrometers: USB2+H05261
Integration Time (usec): 100000 (USB2+H05261)
Spectra Averaged: 1 (USB2+H05261)
Boxcar Smoothing: 0 (USB2+H05261)
Correct for Electrical Dark: No (USB2+H05261)
Strobe/Lamp Enabled: No (USB2+H05261)
Correct for Detector Non-linearity: No (USB2+H05261)
Correct for Stray Light: No (USB2+H05261)
Number of Pixels in Processed Spectrum: 2048
>>>>>Begin Processed Spectral Data<<<<<
365.73	0.00
365.92	0.00
366.12	0.00
366.32	0.00
366.52	0.00
366.72	0.00
366.91	0.00
367.11	0.00
367.31	0.00
367.51	0.00
367.70	0.00
367.90	0.00
368.10	0.00
368.30	0.00
368.49	0.00
368.69	0.00
368.89	0.00
369.09	0.00
369.28	0.00
369.48	0.00
369.68	0.00
369.87	0.00
370.07	0.00
370.27	0.00
370.47	887.06
370.66	4365.10
370.86	5207.69
371.06	5530.69
371.25	5533.03
371.45	4802.78
371.65	4454.04
371.84	4264.46
372.04	4610.86
372.24	5034.49
372.44	5345.78
372.63	5107.05
372.83	4798.10
373.03	4168.49
373.22	3908.69
373.42	4044.45
373.62	4706.82
373.81	5018.11
374.01	5088.32
374.21	4685.75
374.40	4217.65
374.60	4456.38
374.79	4870.65
374.99	5823.25
375.19	6370.94
375.38	6272.64
375.58	5851.34
375.78	5781.12
375.97	5872.40
376.17	6155.61
376.37	6022.20
376.56	6434.13
376.76	6656.48
376.95	7023.95
377.15	7576.31
377.35	7712.07
377.54	8035.06
377.74	8404.86
377.93	8234.00
378.13	8177.83
378.33	7585.68
378.52	6986.50
378.72	6572.22
378.91	6576.91
379.11	6389.66
379.31	6143.91
379.50	6141.57
379.70	6579.25
379.89	7286.09
380.09	8025.70
380.28	8006.97
380.48	8067.83
380.68	7992.93
380.87	7644.19
381.07	7180.76
381.26	6600.31
381.46	6312.42
381.65	5823.25
381.85	5858.36
382.04	5338.76
382.24	5305.99
382.43	4950.23
382.63	4779.37
382.83	4645.96
383.02	4669.37
383.22	4725.54
383.41	4819.16
383.61	5093.01
383.80	5825.59
384.00	6757.13
384.19	7590.36
384.39	7808.03
384.58	7627.81
384.78	7749.51
384.97	7700.36
385.17	7215.87
385.36	6878.83
385.56	6583.93
385.75	6642.44
385.95	7323.54
386.14	7889.95
386.34	8086.55
386.53	7712.07
386.72	7295.45
386.92	6988.84
387.11	7585.68
387.31	7957.82
387.50	7915.69
387.70	7478.01
387.89	7494.40
388.09	7822.07
388.28	7604.40
388.48	7726.11
388.67	8271.45
388.86	9165.54
389.06	9858.34
389.25	10068.98
389.45	10427.09
389.64	10061.96
389.84	10085.37
390.03	9970.68
390.22	10148.56
390.42	10307.72
390.61	10890.51
390.81	11690.98
391.00	12100.57
391.19	11990.56
391.39	11154.99
391.58	10586.24
391.78	9769.40
391.97	9638.33
392.16	8891.70
392.36	8173.15
392.55	6590.95
392.75	5467.49
392.94	4430.63
393.13	4388.50
393.33	5146.84
393.52	6520.73
393.71	7936.76
393.91	9074.26
394.10	9577.47
394.29	10705.61
394.49	11433.52
394.68	12299.52
394.88	12283.13
395.07	12854.22
395.26	12814.43
395.46	12346.33
395.65	11613.74
395.84	9968.34
396.04	8601.47
396.23	6967.77
396.42	5806.87
396.62	5603.24
396.81	6480.94
397.00	8292.52
397.19	10436.45
397.39	12580.38
397.58	13839.59
397.77	14932.62
397.97	15290.72
398.16	15634.78
398.35	16107.57
398.55	16706.74
398.74	16919.73
398.93	17547.00
399.12	17071.87
399.32	16828.45
399.51	17216.98
399.70	18050.21
399.90	17813.82
400.09	17949.57
400.28	17984.68
400.47	18106.38
400.67	18738.33
400.86	19129.20
401.05	18909.19
401.24	19026.21
401.44	19499.00
401.63	19431.13
401.82	19737.74
402.01	19697.95
402.21	20074.77
402.40	20072.43
402.59	19325.80
402.78	18459.81
402.97	17902.76
403.17	18761.73
403.36	19686.25
403.55	20524.16
403.74	20891.62
403.93	19847.74
404.13	18237.45
404.32	17926.16
404.51	18625.98
404.70	20304.15
404.89	19908.60
405.09	19754.12
405.28	19342.19
405.47	19253.25
405.66	19606.67
405.85	18956.00
406.05	17816.16
406.24	18743.01
406.43	19454.53
406.62	19885.19
406.81	19709.65
407.00	19066.00
407.20	18995.79
407.39	19213.46
407.58	20086.48
407.77	21003.97
407.96	21490.80
408.15	21591.44
408.34	21446.33
408.54	22654.05
408.73	22696.17
408.92	22312.33
409.11	21593.78
409.30	20655.23
409.49	19555.18
409.68	18214.05
409.87	17750.62
410.07	18635.35
410.26	20025.62
410.45	21546.97
410.64	22281.90
410.83	22602.55
411.02	23164.28
411.21	24109.86
411.40	23758.78
411.59	23946.02
411.78	23943.68
411.98	23264.92
412.17	24032.62
412.36	23566.85
412.55	23396.00
412.74	22754.69
412.93	22342.75
413.12	22581.49
413.31	24769.89
413.50	24950.11
413.69	25294.17
413.88	24776.91
414.07	23440.47
414.26	24177.73
414.45	24882.24
414.64	25041.39
414.83	25090.54
415.02	24416.47
415.22	24493.71
415.41	24950.11
415.60	25659.29
415.79	26817.86
415.98	27445.12
416.17	27410.01
416.36	26661.04
416.55	26347.41
416.74	25539.93
416.93	24517.11
417.12	24505.41
417.31	24912.66
417.50	25172.46
417.69	26445.71
417.88	26677.43
418.07	25998.67
418.26	25502.48
418.45	25956.54
418.64	26841.26
418.83	27765.78
419.02	27283.62
419.21	26984.04
419.39	25965.90
419.58	24477.32
419.77	24634.14
419.96	25708.44
420.15	27185.32
420.34	27943.66
420.53	28807.31
420.72	29511.81
420.91	29317.55
421.10	28720.71
421.29	28379.00
421.48	27384.27
421.67	29109.24
421.86	28226.86
422.05	26366.13
422.24	23878.15
422.43	23363.23
422.61	25773.98
422.80	28058.34
422.99	27960.04
423.18	26822.54
423.37	26101.65
423.56	26419.97
423.75	26490.18
423.94	27470.87
424.13	25876.96
424.32	26071.23
424.50	26391.88
424.69	25570.35
424.88	26080.59
425.07	25766.96
425.26	25909.73
425.45	25846.54
425.64	25249.70
425.83	25336.30
426.01	26153.15
426.20	26927.86
426.39	26979.36
426.58	25235.66
426.77	23332.80
426.96	22476.16
427.15	23049.60
427.33	25345.66
427.52	26284.22
427.71	25956.54
427.90	25776.32
428.09	25724.83
428.28	25081.18
428.46	24095.82
428.65	23735.37
428.84	24489.03
429.03	25186.50
429.22	23449.83
429.40	22340.41
429.59	20245.63
429.78	17928.50
429.97	18064.25
430.16	18134.47
430.34	18267.88
430.53	18120.43
430.72	18377.89
430.91	20615.44
431.10	24362.64
431.28	28271.33
431.47	30754.64
431.66	31421.69
431.85	28348.57
432.03	26043.14
432.22	24781.59
432.41	25928.45
432.60	28353.25
432.79	29443.94
432.97	30651.66
433.16	29696.72
433.35	27241.50
433.54	24652.86
433.72	22813.20
433.91	23864.10
434.10	26434.01
434.28	28362.61
434.47	29778.64
434.66	29490.75
434.85	28765.18
435.03	28753.48
435.22	29373.72
435.41	31302.32
435.59	30611.87
435.78	31211.04
435.97	32121.51
436.16	32423.44
436.34	31828.95
436.53	31262.54
436.72	31470.84
436.90	29539.90
437.09	29612.46
437.28	29015.62
437.46	30015.03
437.65	29853.53
437.84	28109.83
438.02	25937.82
438.21	25425.24
438.40	27140.85
438.58	29139.67
438.77	29699.06
438.96	30239.72
439.14	31428.71
439.33	32187.05
439.52	32439.82
439.70	31859.37
439.89	30913.80
440.08	30352.07
440.26	30096.95
440.45	31171.25
440.63	33303.48
440.82	34972.28
441.01	34637.59
441.19	34340.34
441.38	34628.23
441.57	35917.86
441.75	36467.89
441.94	36865.78
442.12	36187.02
442.31	37312.82
442.50	37163.03
442.68	36425.76
442.87	36100.42
443.05	35405.28
443.24	35824.24
443.43	37017.91
443.61	37507.08
443.80	37900.29
443.98	35744.66
444.17	35576.14
444.35	37750.50
444.54	38244.35
444.73	37844.12
444.91	36257.24
445.10	34763.98
445.28	33514.13
445.47	32971.13
445.65	33116.24
445.84	34436.30
446.02	35363.15
446.21	36081.70
446.39	35805.52
446.58	36437.46
446.77	36868.12
446.95	37027.28
447.14	38066.47
447.32	39168.87
447.51	38022.00
447.69	36940.68
447.88	36191.70
448.06	36737.05
448.25	37579.64
448.43	37933.06
448.62	36275.96
448.80	36526.40
448.99	36844.71
449.17	37125.58
449.36	37680.28
449.54	38675.01
449.73	39152.48
449.91	39489.52
450.10	40645.74
450.28	41113.85
450.46	40737.02
450.65	41141.94
450.83	40638.72
451.02	39899.11
451.20	39363.13
451.39	39882.73
451.57	39295.25
451.76	38955.88
451.94	38967.58
452.13	38642.24
452.31	36999.19
452.49	35360.81
452.68	35665.08
452.86	35637.00
453.05	35644.02
453.23	37036.64
453.42	37972.85
453.60	39014.39
453.78	39065.88
453.97	38888.00
454.15	39180.57
454.34	37743.48
454.52	38291.16
454.70	37684.97
454.89	37483.68
455.07	38288.82
455.26	38251.38
455.44	40048.91
455.62	40779.15
455.81	40865.75
455.99	40430.41
456.17	39955.29
456.36	40065.29
456.54	41060.02
456.73	41155.98
456.91	42211.56
457.09	42026.66
457.28	42841.17
457.46	41324.50
457.64	40828.30
457.83	39590.16
458.01	38939.49
458.19	39660.38
458.38	40222.11
458.56	41392.37
458.74	41139.60
458.93	40098.06
459.11	40327.43
459.29	39798.47
459.48	40058.27
459.66	39651.02
459.84	40650.42
460.03	40830.65
460.21	40676.17
460.39	42085.17
460.57	42160.07
460.76	42124.96
460.94	42181.13
461.12	41212.15
461.31	42164.75
461.49	41951.76
461.67	41776.22
461.85	43297.57
462.04	42632.86
462.22	43494.18
462.40	42799.04
462.59	42291.14
462.77	43370.13
462.95	42483.06
463.13	42368.38
463.32	41654.51
463.50	41375.99
463.68	41804.31
463.86	41713.03
464.05	41265.99
464.23	40601.27
464.41	39812.51
464.59	39353.77
464.78	41092.79
464.96	41610.04
465.14	40673.83
465.32	40985.12
465.50	43044.79
465.69	43229.69
465.87	42199.86
466.05	41371.31
466.23	39454.41
466.41	38892.68
466.60	39688.46
466.78	39679.10
466.96	40329.77
467.14	40643.40
467.32	41773.88
467.51	41818.35
467.69	39583.14
467.87	40404.67
468.05	41226.20
468.23	41160.66
468.41	41092.79
468.60	41631.11
468.78	41584.30
468.96	40921.93
469.14	41944.74
469.32	41979.85
469.50	40666.81
469.69	40655.11
469.87	39906.13
470.05	39730.59
470.23	39964.65
470.41	40346.15
470.59	40399.99
470.77	40809.58
470.95	41432.16
471.14	42115.60
471.32	42227.95
471.50	44116.76
471.68	44264.21
471.86	44570.82
472.04	44692.53
472.22	45052.97
472.40	42993.30
472.58	42663.28
472.77	42504.13
472.95	42703.07
473.13	44222.08
473.31	42628.18
473.49	43119.69
473.67	43885.04
473.85	43742.27
474.03	45020.20
474.21	45158.30
474.39	45806.62
474.57	45628.74
474.75	45748.11
474.93	45277.66
475.12	44491.24
475.30	44079.31
475.48	44442.09
475.66	45076.38
475.84	44624.65
476.02	44278.25
476.20	43604.18
476.38	44645.72
476.56	45907.27
476.74	46459.63
476.92	46714.75
477.10	47065.83
477.28	47952.90
477.46	48301.64
477.64	48472.49
477.82	48641.01
478.00	48793.15
478.18	48072.26
478.36	48130.78
478.54	48060.56
478.72	48484.20
478.90	49195.72
479.08	50396.42
479.26	50660.90
479.44	50644.51
479.62	50581.32
479.80	50323.86
479.98	50391.73
480.16	50581.32
480.34	50443.23
480.52	50798.99
480.70	50880.91
480.88	50897.29
481.06	51901.38
481.24	51374.76
481.41	52334.38
481.59	52837.59
481.77	52774.40
481.95	52303.95
482.13	52215.01
482.31	52332.04
482.49	52758.02
482.67	52261.82
482.85	52430.34
483.03	53151.23
483.21	53738.70
483.39	53645.08
483.57	52835.25
483.74	52643.33
483.92	53029.52
484.10	53020.16
484.28	53844.02
484.46	54089.78
484.64	54403.41
484.82	53738.70
485.00	53415.71
485.18	52858.66
485.35	51526.89
485.53	49165.29
485.71	45366.60
485.89	44666.78
486.07	47019.02
486.25	49638.08
486.43	51966.91
486.61	52699.50
486.78	52692.48
486.96	52893.77
487.14	54115.53
487.32	54468.95
487.50	55257.71
487.68	55931.78
487.85	56549.68
488.03	56149.45
488.21	55910.72
488.39	55781.99
488.57	54747.47
488.75	54731.09
488.92	55606.45
489.10	57392.28
489.28	58337.85
489.46	58890.22
489.64	58777.87
489.81	58773.19
489.99	58824.68
490.17	58602.33
490.35	58794.26
490.53	58391.68
490.70	58349.56
490.88	58052.31
491.06	59018.95
491.24	58642.12
491.41	58005.50
491.59	56746.29
491.77	56083.92
491.95	57139.50
492.13	57801.87
492.30	58918.31
492.48	59700.04
492.66	60023.04
492.84	60149.43
493.01	59805.37
493.19	59419.18
493.37	59075.12
493.54	58862.13
493.72	59690.68
493.90	60392.84
494.08	60814.14
494.25	61080.96
494.43	61261.18
494.61	61373.53
494.79	61511.62
494.96	61478.85
495.14	60935.85
495.32	60271.14
495.49	59440.24
495.67	60622.22
495.85	61712.91
496.02	62061.64
496.20	61776.10
496.38	61549.07
496.55	61221.39
496.73	61755.03
496.91	61860.36
497.09	62410.38
497.26	62424.43
497.44	62195.06
497.62	61488.21
497.79	60865.63
497.97	59945.80
498.14	59805.37
498.32	60851.59
498.50	61808.87
498.67	62284.00
498.85	61916.53
499.03	62157.61
499.20	62588.27
499.38	62457.20
499.56	62255.91
499.73	61855.68
499.91	61719.93
500.08	61052.87
500.26	60608.17
500.44	60989.68
500.61	61565.45
500.79	61396.93
500.97	61076.28
501.14	61050.53
501.32	60760.31
501.49	60823.50
501.67	61078.62
501.84	61366.51
502.02	61546.73
502.20	62066.33
502.37	61935.26
502.55	62094.41
502.72	62569.54
502.90	62763.81
503.07	62791.89
503.25	62333.15
503.43	61511.62
503.60	60977.98
503.78	60395.18
503.95	60814.14
504.13	62218.46
504.30	62770.83
504.48	62548.48
504.65	62220.80
504.83	62410.38
505.01	62965.09
505.18	63154.68
505.36	63693.00
505.53	63753.85
505.71	63913.01
505.88	64039.40
506.06	63325.53
506.23	63089.14
506.41	62693.59
506.58	63058.71
506.76	62885.51
506.93	62955.73
507.11	62789.55
507.28	62911.26
507.46	62457.20
507.63	61935.26
507.81	61694.18
507.98	61946.96
508.16	62564.86
508.33	62873.81
508.50	63267.02
508.68	63608.74
508.85	63973.86
509.03	64116.64
509.20	63915.35
509.38	63325.53
509.55	62461.88
509.73	62667.84
509.90	63121.91
510.08	63437.88
510.25	63248.30
510.42	62974.45
510.60	62913.60
510.77	63276.38
510.95	63866.20
511.12	63917.69
511.30	64044.08
511.47	64296.86
511.64	64294.52
511.82	64179.83
511.99	63358.30
512.17	62845.72
512.34	62539.11
512.51	62698.27
512.69	62901.90
512.86	62864.45
513.04	63323.19
513.21	63400.43
513.38	63025.95
513.56	62578.90
513.73	62157.61
513.90	62197.40
514.08	62241.87
514.25	62677.21
514.43	62663.16
514.60	62845.72
514.77	62810.62
514.95	63004.88
515.12	63004.88
515.29	63021.26
515.47	63491.71
515.64	63807.68
515.81	63496.39
515.99	62768.49
516.16	61794.82
516.33	59753.88
516.51	58375.30
516.68	57844.00
516.85	57338.44
517.03	57783.15
517.20	60037.08
517.37	61965.68
517.54	62967.43
517.72	62606.99
517.89	60463.06
518.06	58457.22
518.24	58604.67
518.41	60591.79
518.58	61708.22
518.75	61797.16
518.93	61874.40
519.10	61958.66
519.27	62267.61
519.45	62347.19
519.62	63082.12
519.79	63374.69
519.96	63189.78
520.14	62904.24
520.31	62096.75
520.48	62169.31
520.65	62279.31
520.83	63276.38
521.00	63615.76
521.17	63461.29
521.34	63021.26
521.52	63093.82
521.69	63819.39
521.86	64090.89
522.03	63824.07
522.20	62733.38
522.38	61895.47
522.55	61804.19
522.72	62204.42
522.89	62445.49
523.07	62590.61
523.24	62918.28
523.41	63681.30
523.58	64025.35
523.75	64458.35
523.92	64142.38
524.10	64175.15
524.27	64081.53
524.44	64058.12
524.61	63772.58
524.78	63522.14
524.96	63681.30
525.13	63622.78
525.30	63725.77
525.47	64179.83
525.64	63976.20
525.81	63395.75
525.98	62138.88
526.16	61095.00
526.33	60374.12
526.50	60055.81
526.67	59711.75
526.84	60434.97
527.01	61167.56
527.18	61815.89
527.36	62630.40
527.53	63597.04
527.70	63707.04
527.87	63058.71
528.04	62848.06
528.21	63288.09
528.38	63763.21
528.55	64537.93
528.72	64458.35
528.89	64570.70
529.07	64367.07
529.24	63791.30
529.41	63276.38
529.58	62848.06
529.75	62742.74
529.92	63231.91
530.09	63646.19
530.26	63969.18
530.43	64172.81
530.60	64308.56
530.77	64479.42
530.94	64722.83
531.11	64023.01
531.28	63842.79
531.46	63554.91
531.63	63873.22
531.80	63863.86
531.97	63220.21
532.14	62663.16
532.31	61717.59
532.48	61310.33
532.65	61214.37
532.82	61998.45
532.99	62827.00
533.16	63147.65
533.33	63536.18
533.50	63515.12
533.67	62901.90
533.84	62522.73
534.01	62674.87
534.18	62967.43
534.35	63039.99
534.52	62976.79
534.69	63290.43
534.86	63423.84
535.03	63618.10
535.20	64130.68
535.37	64669.00
535.54	64563.68
535.71	64324.94
535.88	63810.03
536.05	63264.68
536.22	62941.69
536.38	62691.25
536.55	62342.51
536.72	61703.54
536.89	61668.44
537.06	62494.64
537.23	63290.43
537.40	63337.24
537.57	63451.92
537.74	62929.98
537.91	63168.72
538.08	63140.63
538.25	63157.02
538.42	63250.64
538.59	63147.65
538.75	62581.24
538.92	62396.34
539.09	62312.08
539.26	61998.45
539.43	61979.73
539.60	61909.51
539.77	62225.48
539.94	62134.20
540.11	61352.46
540.28	60757.97
540.44	60893.72
540.61	61048.19
540.78	61509.28
540.95	61783.12
541.12	62190.37
541.29	62309.74
541.46	62590.61
541.62	62506.35
541.79	62499.33
541.96	62073.35
542.13	61698.86
542.30	62190.37
542.47	62379.96
542.63	62141.22
542.80	62012.49
542.97	61972.70
543.14	61890.79
543.31	62012.49
543.48	62611.67
543.64	63309.15
543.81	63416.82
543.98	63414.47
544.15	62625.71
544.32	62108.46
544.48	62241.87
544.65	62501.67
544.82	62803.59
544.99	62625.71
545.16	62276.97
545.32	61890.79
545.49	62738.06
545.66	63084.46
545.83	62597.63
546.00	62337.83
546.16	62108.46
546.33	62204.42
546.50	62145.90
546.67	62475.92
546.83	62302.72
547.00	62033.56
547.17	61708.22
547.34	61062.24
547.50	61057.56
547.67	61504.60
547.84	61652.05
548.00	61890.79
548.17	62302.72
548.34	62038.24
548.51	62045.26
548.67	62197.40
548.84	62281.66
549.01	62024.20
549.18	62148.24
549.34	62035.90
549.51	62094.41
549.68	62106.12
549.84	61808.87
550.01	61771.42
550.18	61607.58
550.34	61736.31
550.51	61722.27
550.68	61792.48
550.84	61420.34
551.01	61558.43
551.18	61410.98
551.34	61488.21
551.51	61991.43
551.68	62162.29
551.84	62223.14
552.01	61944.62
552.18	61712.91
552.34	61361.82
552.51	60856.27
552.68	60680.73
552.84	61432.04
553.01	61525.66
553.18	61410.98
553.34	61485.87
553.51	61570.13
553.67	61790.14
553.84	61895.47
554.01	61806.53
554.17	61729.29
554.34	61605.24
554.51	61801.85
554.67	62054.62
554.84	61951.64
555.00	61556.09
555.17	61319.70
555.33	61279.91
555.50	61195.65
555.67	61303.31
555.83	61062.24
556.00	61085.64
556.16	61066.92
556.33	60570.72
556.50	60444.33
556.66	60467.74
556.83	60095.60
556.99	60348.37
557.16	60355.39
557.32	60774.35
557.49	60931.17
557.65	60851.59
557.82	60837.54
557.98	60690.09
558.15	60257.09
558.32	59423.86
558.48	58953.41
558.65	59168.74
558.81	59405.14
558.98	59491.74
559.14	59793.67
559.31	59980.91
559.47	59882.61
559.64	59571.32
559.80	59316.20
559.97	59473.01
560.13	59669.62
560.30	60617.53
560.46	61059.90
560.63	61139.47
560.79	61214.37
560.96	60900.74
561.12	59540.89
561.29	59032.99
561.45	59070.44
561.61	59810.05
561.78	59793.67
561.94	59990.27
562.11	59641.53
562.27	59494.08
562.44	59936.44
562.60	60289.86
562.77	60477.10
562.93	60081.55
563.10	60123.68
563.26	59681.32
563.42	59725.79
563.59	59498.76
563.75	59461.31
563.92	59688.34
564.08	59463.65
564.24	59751.54
564.41	59835.80
564.57	59788.98
564.74	59779.62
564.90	59496.42
565.07	59309.18
565.23	58937.03
565.39	58485.31
565.56	58326.15
565.72	58047.63
565.88	58532.12
566.05	58241.89
566.21	58623.40
566.38	58770.85
566.54	58976.82
566.70	59274.07
566.87	59477.69
567.03	59751.54
567.19	59728.13
567.36	59297.47
567.52	59304.49
567.68	59063.42
567.85	58443.18
568.01	58131.89
568.17	57844.00
568.34	58066.35
568.50	57956.35
568.66	57698.89
568.83	58298.06
568.99	58066.35
569.15	58424.45
569.32	58457.22
569.48	58110.82
569.64	58124.86
569.81	57790.17
569.97	57631.01
570.13	57593.56
570.30	57237.80
570.46	57029.49
570.62	56310.95
570.78	56193.92
570.95	56563.73
571.11	57387.60
571.27	57436.75
571.43	57490.58
571.60	57764.42
571.76	57893.15
571.92	58202.10
572.09	58300.40
572.25	58316.79
572.41	58288.70
572.57	57939.96
572.74	58202.10
572.90	57780.81
573.06	57717.61
573.22	57907.19
573.38	57790.17
573.55	57954.00
573.71	57932.94
573.87	57736.34
574.03	57673.14
574.20	57771.44
574.36	57446.11
574.52	57394.62
574.68	57088.01
574.84	56767.35
575.01	56465.42
575.17	56336.69
575.33	56608.20
575.49	56708.84
575.65	56980.34
575.82	56633.94
575.98	56257.12
576.14	56846.93
576.30	57069.28
576.46	56830.55
576.62	56898.42
576.79	56877.36
576.95	56582.45
577.11	56397.55
577.27	56708.84
577.43	56652.67
577.59	56376.48
577.75	56126.05
577.92	55650.92
578.08	55458.99
578.24	55480.06
578.40	55650.92
578.56	55877.95
578.72	56119.02
578.88	56006.68
579.04	56088.60
579.21	56200.94
579.37	56437.34
579.53	56479.47
579.69	56343.72
579.85	56498.19
580.01	56301.59
580.17	55901.36
580.33	55840.50
580.49	55910.72
580.65	56413.93
580.82	56350.74
580.98	56332.01
581.14	55880.29
581.30	56261.80
581.46	55987.95
581.62	56493.51
581.78	56299.25
581.94	56516.92
582.10	56357.76
582.26	56566.07
582.42	56324.99
582.58	56317.97
582.74	56198.60
582.90	56418.61
583.06	56374.14
583.22	56151.79
583.38	56065.19
583.54	55948.17
583.70	56135.41
583.86	56044.13
584.02	55877.95
584.18	56147.11
584.34	56011.36
584.50	55849.86
584.66	55707.09
584.82	55473.04
584.98	55540.91
585.14	55028.34
585.30	54389.37
585.46	54012.54
585.62	54106.16
585.78	54574.27
585.94	54251.28
586.10	54513.42
586.26	54841.09
586.42	55278.77
586.58	55405.16
586.74	55246.00
586.90	55482.40
587.06	54745.13
587.22	55100.89
587.38	54883.22
587.54	54717.04
587.70	54464.27
587.86	54143.61
588.02	53947.01
588.18	53762.11
588.34	52774.40
588.49	50843.46
588.65	48533.35
588.81	48872.73
588.97	49326.79
589.13	49123.16
589.29	48846.98
589.45	49752.77
589.61	50798.99
589.77	51934.15
589.93	52481.83
590.08	53233.14
590.24	53399.32
590.40	53668.48
590.56	53443.79
590.72	53291.66
590.88	52856.32
591.04	52839.93
591.20	52692.48
591.35	52652.69
591.51	52718.23
591.67	52619.92
591.83	52903.13
591.99	52903.13
592.15	52978.03
592.31	52994.41
592.46	52917.17
592.62	52378.85
592.78	52603.54
592.94	52460.77
593.10	52420.98
593.26	52896.11
593.41	53158.25
593.57	52942.92
593.73	52224.37
593.89	52463.11
594.05	51688.39
594.20	51716.48
594.36	51295.18
594.52	51327.95
594.68	51356.03
594.84	51660.30
594.99	52514.60
595.15	51964.57
595.31	52250.12
595.47	52116.71
595.62	52346.08
595.78	52264.16
595.94	52612.90
596.10	52507.58
596.25	52142.45
596.41	52100.32
596.57	51725.84
596.73	52060.54
596.88	51995.00
597.04	51899.04
597.20	51821.80
597.36	51779.67
597.51	51690.73
597.67	51622.86
597.83	51760.95
597.99	51391.14
598.14	50878.57
598.30	51224.96
598.46	51023.68
598.61	51194.54
598.77	50955.80
598.93	51739.88
599.09	51707.12
599.24	51924.78
599.40	51339.65
599.56	51407.53
599.71	50958.14
599.87	51229.65
600.03	51143.05
600.18	50731.11
600.34	50445.57
600.50	50731.11
600.65	50429.18
600.81	50932.40
600.97	50632.81
601.12	50408.12
601.28	50700.68
601.44	49977.46
601.59	50204.49
601.75	49661.49
601.91	49668.51
602.06	49666.17
602.22	49815.96
602.37	50302.79
602.53	50082.78
602.69	50843.46
602.84	50887.93
603.00	50672.60
603.16	51126.66
603.31	50960.48
603.47	50787.28
603.62	50656.21
603.78	50843.46
603.94	50693.66
604.09	50621.11
604.25	50213.85
604.40	50391.73
604.56	50323.86
604.71	50438.54
604.87	50440.89
605.03	50270.03
605.18	49846.39
605.34	49787.88
605.49	50005.55
605.65	50092.15
605.80	49628.72
605.96	49509.35
606.12	48959.33
606.27	49518.71
606.43	49340.83
606.58	49715.32
606.74	49752.77
606.89	49710.64
607.05	50258.32
607.20	49958.73
607.36	48982.73
607.51	48968.69
607.67	48758.04
607.82	48711.23
607.98	48673.78
608.13	48884.43
608.29	48126.10
608.44	47976.30
608.60	48023.11
608.75	48107.37
608.91	48245.46
609.06	47812.46
609.22	48545.05
609.37	48105.03
609.53	48383.55
609.68	47732.89
609.84	47164.14
609.99	47082.22
610.15	46983.91
610.30	47110.30
610.46	47508.19
610.61	47508.19
610.76	47943.53
610.92	48846.98
611.07	48814.21
611.23	48184.61
611.38	48465.47
611.54	48168.22
611.69	47318.61
611.84	46628.15
612.00	46543.89
612.15	46218.56
612.31	46946.47
612.46	46595.38
612.62	46780.29
612.77	46660.92
612.92	47061.15
613.08	46199.83
613.23	45382.99
613.39	45118.51
613.54	44353.15
613.69	45160.64
613.85	45167.66
614.00	45713.00
614.15	45811.31
614.31	45834.71
614.46	46094.51
614.62	45745.77
614.77	46066.42
614.92	45933.01
615.08	45523.42
615.23	45457.88
615.38	45415.76
615.54	44718.28
615.69	43875.68
615.84	43026.07
616.00	42974.58
616.15	43555.03
616.30	43414.60
616.46	43494.18
616.61	43110.33
616.76	43643.97
616.92	43899.09
617.07	43917.81
617.22	44121.44
617.37	44294.64
617.53	45057.65
617.68	44711.25
617.83	44636.36
617.99	44921.90
618.14	44601.25
618.29	44505.29
618.45	44144.84
618.60	43524.60
618.75	43133.73
618.90	43538.65
619.06	43627.59
619.21	43889.73
619.36	44247.83
619.51	43943.56
619.67	43744.61
619.82	43381.83
619.97	44004.41
620.12	44212.72
620.28	43955.26
620.43	44058.24
620.58	44048.88
620.73	43800.79
620.89	43531.62
621.04	43126.71
621.19	42981.60
621.34	42326.25
621.49	42286.46
621.65	42075.81
621.80	42429.23
621.95	42459.66
622.10	42773.29
622.25	42204.54
622.41	42302.84
622.56	41888.57
622.71	41588.98
622.86	41106.83
623.01	41502.38
623.16	41549.19
623.32	41368.97
623.47	41532.81
623.62	41062.36
623.77	41151.30
623.92	40781.49
624.07	40177.64
624.23	39864.00
624.38	40435.10
624.53	40245.51
624.68	40568.51
624.83	40292.32
624.98	40172.96
625.13	39653.36
625.29	39831.24
625.44	39435.69
625.59	39622.93
625.74	39929.54
625.89	39847.62
626.04	40130.83
626.19	39782.09
626.34	39737.62
626.49	39693.15
626.65	39842.94
626.80	39559.73
626.95	39871.03
627.10	39367.81
627.25	38862.26
627.40	37839.44
627.55	36648.11
627.70	36432.78
627.85	36898.55
628.00	37186.43
628.15	37949.45
628.30	38293.50
628.45	38504.15
628.60	37785.61
628.76	38377.76
628.91	37968.17
629.06	38007.96
629.21	37736.46
629.36	37219.20
629.51	36989.83
629.66	36994.51
629.81	36435.12
629.96	36460.87
630.11	37034.30
630.26	37230.90
630.41	37605.39
630.56	37691.99
630.71	37439.21
630.86	37088.13
631.01	36886.84
631.16	36786.20
631.31	35826.58
631.46	35859.35
631.61	36442.14
631.76	36645.77
631.91	36526.40
632.06	36739.39
632.21	37102.17
632.36	37120.90
632.51	37137.28
632.66	37275.37
632.81	36926.63
632.96	36823.65
633.10	36594.28
633.25	36355.54
633.40	36030.21
633.55	36098.08
633.70	36833.01
633.85	36196.38
634.00	36107.44
634.15	36357.88
634.30	36233.83
634.45	36275.96
634.60	36067.66
634.75	36465.55
634.90	36208.09
635.05	36191.70
635.19	36240.86
635.34	36254.90
635.49	35999.78
635.64	36074.68
635.79	35480.18
635.94	35117.40
636.09	35093.99
636.24	35386.56
636.39	35487.20
636.53	35791.47
636.68	35690.83
636.83	35718.92
636.98	35669.76
637.13	35995.10
637.28	35608.91
637.43	36180.00
637.57	35580.82
637.72	35899.14
637.87	35655.72
638.02	35475.50
638.17	35431.03
638.32	35262.51
638.46	35187.61
638.61	35232.08
638.76	35110.38
638.91	34749.93
639.06	34398.85
639.20	34366.09
639.35	34127.35
639.50	34033.73
639.65	34019.69
639.80	33750.52
639.94	34328.64
640.09	34235.02
640.24	34071.18
640.39	34270.12
640.54	33699.03
640.68	33724.78
640.83	33415.83
640.98	33198.16
641.13	33134.96
641.27	33596.05
641.42	33137.30
641.57	32978.15
641.72	33109.22
641.86	33528.17
642.01	33006.23
642.16	33649.88
642.31	33687.33
642.45	33750.52
642.60	33076.45
642.75	33137.30
642.90	33163.05
643.04	32723.03
643.19	32725.37
643.34	32809.63
643.48	32690.26
643.63	32730.05
643.78	32872.82
643.93	33638.18
644.07	33682.65
644.22	33486.04
644.37	32952.40
644.51	32727.71
644.66	32678.56
644.81	32435.14
644.95	32100.45
645.10	31847.67
645.25	31941.29
645.39	31777.45
645.54	31723.62
645.69	31482.55
645.83	31555.10
645.98	30969.97
646.13	31182.96
646.27	31215.72
646.42	31297.64
646.57	30831.88
646.71	31077.63
646.86	30649.32
647.00	30558.03
647.15	30328.66
647.30	30375.47
647.44	30457.39
647.59	30342.70
647.74	30195.25
647.88	30052.48
648.03	30000.99
648.17	30183.55
648.32	30595.48
648.47	31012.10
648.61	30555.69
648.76	30609.53
648.90	29743.53
649.05	29095.20
649.20	28177.71
649.34	28142.60
649.49	28063.02
649.63	28800.29
649.78	29198.18
649.92	29579.69
650.07	29837.15
650.21	29879.28
650.36	30199.93
650.51	30141.42
650.65	30859.96
650.80	30216.32
650.94	30270.15
651.09	29287.12
651.23	28978.17
651.38	28568.58
651.52	28407.08
651.67	28517.09
651.81	29120.95
651.96	29275.42
652.10	29385.43
652.25	29542.24
652.39	29645.23
652.54	29174.78
652.68	29462.66
652.83	29420.53
652.97	29462.66
653.12	28914.98
653.26	29345.64
653.41	29521.18
653.55	29242.65
653.70	29844.17
653.84	28966.47
653.99	28666.88
654.13	28184.73
654.27	28077.07
654.42	27644.07
654.56	27543.42
654.71	27681.52
654.85	27714.28
655.00	27400.65
655.14	27044.89
655.29	26677.43
655.43	26281.88
655.57	24989.90
655.72	23789.20
655.86	21626.55
656.01	20798.00
656.15	20608.42
656.30	22050.19
656.44	22815.54
656.58	24339.23
656.73	25186.50
656.87	25507.16
657.01	26019.74
657.16	26441.03
657.30	26852.97
657.45	27204.05
657.59	27049.57
657.73	26881.05
657.88	27374.91
658.02	27194.68
658.16	27330.44
658.31	27164.26
658.45	27187.66
658.60	26738.28
658.74	27072.98
658.88	26331.03
659.03	26525.29
659.17	26321.66
659.31	26118.04
659.46	26555.72
659.60	26707.85
659.74	26930.20
659.89	26726.58
660.03	26696.15
660.17	26686.79
660.32	26948.93
660.46	26740.62
660.60	26544.02
660.74	26513.59
660.89	26579.12
661.03	26230.38
661.17	26455.08
661.32	26410.60
661.46	26642.32
661.60	26127.40
661.74	26508.91
661.89	26127.40
662.03	26256.13
662.17	26134.42
662.31	26127.40
662.46	26291.24
662.60	26192.94
662.74	25678.02
662.88	25766.96
663.03	25371.41
663.17	25064.80
663.31	25315.23
663.45	25238.00
663.60	25139.69
663.74	25039.05
663.88	25156.08
664.02	24891.60
664.17	25221.61
664.31	25046.07
664.45	25027.35
664.59	25083.52
664.73	24975.86
664.88	25593.76
665.02	25132.67
665.16	24870.53
665.30	25069.48
665.44	24917.34
665.59	24765.21
665.73	24470.30
665.87	24327.53
666.01	24210.50
666.15	24194.12
666.29	23812.61
666.44	23946.02
666.58	24039.64
666.72	24100.50
666.86	24077.09
667.00	24198.80
667.14	23854.74
667.28	23913.25
667.43	23749.42
667.57	23917.93
667.71	23557.49
667.85	23772.82
667.99	24027.94
668.13	23651.11
668.27	23536.43
668.41	23892.19
668.56	23503.66
668.70	23803.25
668.84	23150.24
668.98	23765.80
669.12	23454.51
669.26	23049.60
669.40	23075.34
669.54	23300.03
669.68	22642.34
669.82	22726.60
669.96	22705.54
670.10	22672.77
670.25	22733.62
670.39	22738.30
670.53	22757.03
670.67	22590.85
670.81	22434.03
670.95	22403.61
671.09	22026.78
671.23	22157.85
671.37	22019.76
671.51	21757.62
671.65	22010.40
671.79	21474.42
671.93	21965.93
672.07	22136.79
672.21	21975.29
672.35	21640.59
672.49	21692.08
672.63	22022.10
672.77	21582.08
672.91	21561.02
673.05	21343.35
673.19	21158.44
673.33	21766.98
673.47	21383.13
673.61	21116.31
673.75	21095.25
673.89	21289.51
674.03	20758.21
674.17	21191.21
674.31	21116.31
674.45	21015.67
674.59	20954.82
674.73	20769.91
674.87	20713.74
675.01	20259.68
675.15	20313.51
675.29	20535.86
675.43	20346.28
675.56	20147.33
675.70	20144.99
675.84	20695.02
675.98	19618.37
676.12	20430.54
676.26	20140.31
676.40	20006.90
676.54	19784.55
676.68	19875.83
676.82	19541.13
676.96	19817.32
677.10	19765.82
677.23	19405.38
677.37	19456.87
677.51	19658.16
677.65	19573.90
677.79	19267.29
677.93	19236.86
678.07	19117.50
678.21	19009.83
678.34	18661.09
678.48	18731.31
678.62	18670.45
678.76	18576.83
678.90	18508.96
679.04	18548.75
679.18	18878.76
679.31	18616.62
679.45	18244.48
679.59	18040.85
679.73	18188.30
679.87	18164.90
680.00	18040.85
680.14	18087.66
680.28	17638.28
680.42	17645.30
680.56	17902.76
680.70	17727.22
680.83	17603.17
680.97	17757.64
681.11	17738.92
681.25	17483.80
681.39	17481.46
681.52	17362.09
681.66	17401.88
681.80	17284.86
681.94	17181.87
682.07	17446.35
682.21	17266.13
682.35	16901.01
682.49	17050.80
682.62	17055.48
682.76	16812.07
682.90	16503.12
683.04	16575.67
683.17	16379.07
683.31	16159.06
683.45	16524.18
683.59	16182.46
683.72	15829.04
683.86	15716.70
684.00	15557.54
684.13	15590.31
684.27	15637.12
684.41	15793.94
684.55	15655.84
684.68	15618.39
684.82	15517.75
684.96	15403.07
685.09	15367.96
685.23	15250.93
685.37	14986.45
685.50	15122.20
685.64	15159.65
685.78	14995.81
685.91	15169.01
686.05	14974.75
686.19	14427.06
686.32	13474.46
686.46	12093.55
686.60	10476.24
686.73	9736.63
686.87	9448.74
687.01	9231.07
687.14	9364.48
687.28	9694.50
687.42	10043.24
687.55	10672.84
687.69	11159.67
687.82	11969.50
687.96	12299.52
688.10	12091.21
688.23	12217.60
688.37	11672.25
688.50	11669.91
688.64	11611.40
688.78	11517.78
688.91	11433.52
689.05	11351.60
689.18	11253.30
689.32	11044.99
689.46	11066.05
689.59	11304.79
689.73	11398.41
689.86	11375.00
690.00	11346.92
690.13	11372.66
690.27	11520.12
690.41	11515.44
690.54	11431.18
690.68	11765.87
690.81	11536.50
690.95	11793.96
691.08	11625.44
691.22	11489.69
691.35	11573.95
691.49	11772.89
691.62	11428.84
691.76	11831.41
691.89	11800.98
692.03	11375.00
692.16	11236.91
692.30	11342.24
692.43	11559.91
692.57	11152.65
692.70	11112.86
692.84	11021.58
692.97	10806.25
693.11	10885.83
693.24	10927.96
693.38	10995.84
693.51	10911.58
693.65	10733.70
693.78	10544.11
693.92	10340.49
694.05	10604.97
694.19	10457.51
694.32	10586.24
694.45	10429.43
694.59	10115.80
694.72	10443.47
694.86	10338.15
694.99	10497.30
695.13	10382.62
695.26	10122.82
695.39	10019.83
695.53	10167.29
695.66	9912.17
695.80	10186.01
695.93	10188.35
696.07	9987.07
696.20	10181.33
696.33	10391.98
696.47	10352.19
696.60	10429.43
696.73	10649.44
696.87	10319.42
697.00	10340.49
697.14	9991.75
697.27	10010.47
697.40	10043.24
697.54	9811.53
697.67	9444.06
697.80	9668.75
697.94	9603.22
698.07	9486.19
698.21	9495.55
698.34	9336.40
698.47	9188.94
698.61	9060.21
698.74	9198.31
698.87	9092.98
699.01	8933.82
699.14	9114.05
699.27	9137.45
699.40	9149.15
699.54	8931.48
699.67	8734.88
699.80	8685.73
699.94	8791.05
700.07	8451.67
700.20	8395.50
700.34	8163.79
700.47	8329.97
700.60	8259.75
700.73	8315.92
700.87	8088.89
701.00	8255.07
701.13	8341.67
701.26	8182.51
701.40	8028.04
701.53	7913.35
701.66	8009.31
701.79	7981.23
701.93	7988.25
702.06	8021.02
702.19	7887.61
702.32	8002.29
702.46	7845.48
702.59	7478.01
702.72	7726.11
702.85	8002.29
702.99	7817.39
703.12	7782.28
703.25	7838.45
703.38	7644.19
703.51	7714.41
703.65	7466.31
703.78	7506.10
703.91	7515.46
704.04	7520.14
704.17	7506.10
704.31	7669.94
704.44	7566.95
704.57	7531.84
704.70	7520.14
704.83	7295.45
704.96	7428.86
705.10	7199.49
705.23	7229.91
>>>>>End Processed Spectral Data<<<<<
