SpectraSuite Data File
++++++++++++++++++++++++++++++++++++
Date: Mon Oct 07 14:53:06 GMT-05:00 2013
User: price-jones
Dark Spectrum Present: No
Reference Spectrum Present: No
Number of Sampled Component Spectra: 1
Spectrometers: USB2+H05261
Integration Time (usec): 100000 (USB2+H05261)
Spectra Averaged: 1 (USB2+H05261)
Boxcar Smoothing: 0 (USB2+H05261)
Correct for Electrical Dark: No (USB2+H05261)
Strobe/Lamp Enabled: No (USB2+H05261)
Correct for Detector Non-linearity: No (USB2+H05261)
Correct for Stray Light: No (USB2+H05261)
Number of Pixels in Processed Spectrum: 2048
>>>>>Begin Processed Spectral Data<<<<<
365.73	0.00
365.92	0.00
366.12	0.00
366.32	0.00
366.52	0.00
366.72	0.00
366.91	0.00
367.11	0.00
367.31	0.00
367.51	0.00
367.70	0.00
367.90	0.00
368.10	0.00
368.30	0.00
368.49	0.00
368.69	0.00
368.89	0.00
369.09	0.00
369.28	0.00
369.48	0.00
369.68	0.00
369.87	0.00
370.07	0.00
370.27	0.00
370.47	568.75
370.66	3084.83
370.86	3660.60
371.06	3962.53
371.25	4004.66
371.45	3702.73
371.65	3246.32
371.84	3030.99
372.04	3201.85
372.24	3592.72
372.44	3737.84
372.63	3784.65
372.83	3541.23
373.03	2963.12
373.22	2860.13
373.42	2963.12
373.62	3396.12
373.81	3698.05
374.01	3726.13
374.21	3316.54
374.40	3089.51
374.60	3241.64
374.79	3681.66
374.99	4269.14
375.19	4564.04
375.38	4465.74
375.58	4353.40
375.78	4248.07
375.97	4173.18
376.17	4512.55
376.37	4311.27
376.56	4578.09
376.76	4746.61
376.95	5144.50
377.15	5626.65
377.35	5703.89
377.54	5893.47
377.74	6071.35
377.93	6186.04
378.13	5881.77
378.33	5713.25
378.52	5069.60
378.72	4908.10
378.91	4929.17
379.11	4706.82
379.31	4418.93
379.50	4550.00
379.70	4774.69
379.89	5423.02
380.09	5937.94
380.28	6012.84
380.48	5951.98
380.68	5926.24
380.87	5767.08
381.07	5277.91
381.26	4945.55
381.46	4599.15
381.65	4479.79
381.85	4344.03
382.04	4219.99
382.24	3871.25
382.43	3555.27
382.63	3461.65
382.83	3655.92
383.02	3646.55
383.22	3480.38
383.41	3637.19
383.61	3864.22
383.80	4573.41
384.00	5060.24
384.19	5668.78
384.39	5731.97
384.58	5877.09
384.78	5643.03
384.97	5696.86
385.17	5385.57
385.36	5107.05
385.56	5081.30
385.75	5135.14
385.95	5664.10
386.14	5973.05
386.34	5951.98
386.53	5612.60
386.72	5430.04
386.92	5696.86
387.11	5776.44
387.31	6047.94
387.50	6209.44
387.70	5797.51
387.89	5713.25
388.09	5762.40
388.28	5802.19
388.48	5879.43
388.67	6347.53
388.86	7002.88
389.06	7410.14
389.25	7880.58
389.45	8056.12
389.64	7911.01
389.84	7721.43
390.03	7501.42
390.22	7564.61
390.42	8079.53
390.61	8519.55
390.81	8950.21
391.00	9284.91
391.19	9139.79
391.39	8737.22
391.58	8255.07
391.78	7691.00
391.97	7606.74
392.16	7119.91
392.36	6422.43
392.55	5146.84
392.75	4201.26
392.94	3379.73
393.13	3281.43
393.33	3999.98
393.52	5104.71
393.71	6235.19
393.91	7059.06
394.10	7351.62
394.29	8292.52
394.49	8919.78
394.68	9551.73
394.88	9614.92
395.07	9949.62
395.26	9839.61
395.46	9488.53
395.65	9170.22
395.84	7808.03
396.04	6820.32
396.23	5458.13
396.42	4493.83
396.62	4318.29
396.81	5228.76
397.00	6696.27
397.19	8299.54
397.39	9795.14
397.58	10979.45
397.77	11789.28
397.97	11964.82
398.16	11847.79
398.35	12514.84
398.55	12849.54
398.74	13439.36
398.93	14108.75
399.12	13366.80
399.32	13081.25
399.51	13362.12
399.70	14270.25
399.90	14281.95
400.09	13862.99
400.28	13865.33
400.47	14052.58
400.67	14864.74
400.86	15197.10
401.05	15171.35
401.24	15470.94
401.44	15723.72
401.63	15613.71
401.82	15597.33
402.01	15709.68
402.21	15751.81
402.40	16102.89
402.59	15428.81
402.78	14834.32
402.97	14279.61
403.17	14775.80
403.36	15709.68
403.55	16460.99
403.74	16578.01
403.93	15571.58
404.13	14448.13
404.32	14394.29
404.51	15005.17
404.70	16166.08
404.89	16086.50
405.09	15803.30
405.28	15480.30
405.47	15503.71
405.66	15424.13
405.85	14745.38
406.05	14817.93
406.24	14960.70
406.43	15452.22
406.62	16037.35
406.81	16297.15
407.00	15463.92
407.20	15147.95
407.39	15482.64
407.58	15758.83
407.77	16690.36
407.96	17125.70
408.15	17427.63
408.34	17507.21
408.54	18157.88
408.73	17987.02
408.92	17996.38
409.11	17551.68
409.30	16521.84
409.49	15466.26
409.68	14436.42
409.87	14408.34
410.07	15206.46
410.26	16418.86
410.45	17305.92
410.64	18155.54
410.83	18188.30
411.02	18775.78
411.21	19646.46
411.40	19154.94
411.59	19311.76
411.78	19283.67
411.98	19122.18
412.17	19550.49
412.36	19412.40
412.55	19159.63
412.74	18981.74
412.93	18082.98
413.12	18630.66
413.31	20343.94
413.50	20273.72
413.69	20856.51
413.88	19917.96
414.07	19482.62
414.26	19461.55
414.45	20182.44
414.64	20318.19
414.83	20259.68
415.02	20105.20
415.22	20027.96
415.41	20428.20
415.60	21205.25
415.79	21738.90
415.98	22408.29
416.17	22164.87
416.36	21919.12
416.55	20945.45
416.74	20730.12
416.93	20184.78
417.12	20346.28
417.31	20739.49
417.50	20741.83
417.69	21523.57
417.88	21563.36
418.07	21291.85
418.26	21153.76
418.45	21338.66
418.64	21809.11
418.83	22794.48
419.02	22188.28
419.21	22260.84
419.39	20882.26
419.58	20013.92
419.77	20226.91
419.96	21397.18
420.15	22375.52
420.34	23302.37
420.53	23742.39
420.72	24177.73
420.91	23796.23
421.10	23817.29
421.29	23524.72
421.48	22462.12
421.67	23840.70
421.86	23323.44
422.05	21451.01
422.24	19183.03
422.43	19260.27
422.61	21003.97
422.80	23157.26
422.99	23241.52
423.18	22047.85
423.37	21708.47
423.56	22022.10
423.75	22178.92
423.94	22604.89
424.13	21294.19
424.32	21245.04
424.50	21668.68
424.69	21146.74
424.88	21589.10
425.07	21055.46
425.26	21469.73
425.45	20971.20
425.64	20482.03
425.83	20814.38
426.01	21961.25
426.20	22537.02
426.39	22394.25
426.58	20863.54
426.77	19417.08
426.96	18469.17
427.15	19255.59
427.33	21039.08
427.52	21565.70
427.71	21816.13
427.90	21451.01
428.09	21305.90
428.28	20737.15
428.46	20002.22
428.65	19747.10
428.84	20112.22
429.03	20575.65
429.22	19754.12
429.40	18450.44
429.59	17067.19
429.78	14876.44
429.97	14920.92
430.16	15173.69
430.34	15318.81
430.53	15089.43
430.72	15735.42
430.91	16996.97
431.10	20102.86
431.28	23747.08
431.47	25956.54
431.66	25825.47
431.85	23838.36
432.03	21699.11
432.22	20669.27
432.41	21888.69
432.60	24254.97
432.79	25135.01
432.97	25453.33
433.16	25062.46
433.35	23105.77
433.54	20273.72
433.72	19204.10
433.91	20257.34
434.10	22607.23
434.28	23875.80
434.47	25223.95
434.66	24650.52
434.85	24058.37
435.03	24030.28
435.22	24641.16
435.41	26506.57
435.59	25944.84
435.78	26717.22
435.97	27197.02
436.16	27257.88
436.34	27091.70
436.53	26300.60
436.72	26211.66
436.90	24828.40
437.09	24931.39
437.28	24669.25
437.46	25408.86
437.65	25120.97
437.84	23529.41
438.02	21488.46
438.21	21774.00
438.40	22764.05
438.58	24683.29
438.77	25191.19
438.96	25633.55
439.14	26792.11
439.33	27175.96
439.52	27613.64
439.70	27250.86
439.89	26389.54
440.08	25680.36
440.26	25802.07
440.45	26457.42
440.63	28327.50
440.82	29928.43
441.01	29371.38
441.19	29312.87
441.38	29614.80
441.57	31110.40
441.75	31342.11
441.94	31285.94
442.12	30670.38
442.31	31150.19
442.50	31000.40
442.68	31117.42
442.87	30733.57
443.05	30272.49
443.24	30717.19
443.43	31229.77
443.61	31976.40
443.80	32753.46
443.98	30785.07
444.17	30661.02
444.35	32381.31
444.54	33039.00
444.73	32444.51
444.91	31077.63
445.10	30167.16
445.28	28631.77
445.47	28449.21
445.65	28418.78
445.84	29350.32
446.02	30141.42
446.21	30969.97
446.39	31119.76
446.58	31323.39
446.77	32088.74
446.95	31857.03
447.14	33034.32
447.32	33603.07
447.51	32779.20
447.69	31192.32
447.88	30965.29
448.06	31807.88
448.25	31943.63
448.43	32503.02
448.62	31744.69
448.80	31784.48
448.99	31669.79
449.17	32252.58
449.36	31985.76
449.54	33228.59
449.73	33874.57
449.91	34382.47
450.10	34724.19
450.28	35285.92
450.46	35597.21
450.65	35864.03
450.83	34831.85
451.02	34635.25
451.20	34429.28
451.39	34157.78
451.57	33787.97
451.76	34050.11
451.94	33947.13
452.13	33123.26
452.31	31667.45
452.49	29919.07
452.68	30656.34
452.86	30960.61
453.05	31295.30
453.23	32154.28
453.42	33305.82
453.60	33198.16
453.78	34300.55
453.97	33582.01
454.15	33881.60
454.34	32638.77
454.52	33153.69
454.70	32425.78
454.89	32683.24
455.07	33062.41
455.26	33146.67
455.44	34848.24
455.62	35309.32
455.81	35482.52
455.99	35124.42
456.17	34644.61
456.36	35185.27
456.54	35519.97
456.73	35835.94
456.91	36414.05
457.09	36765.14
457.28	37137.28
457.46	35622.95
457.64	35929.56
457.83	34410.56
458.01	33642.86
458.19	34920.79
458.38	35152.51
458.56	35971.69
458.74	35594.87
458.93	35044.84
459.11	34771.00
459.29	34581.42
459.48	35005.05
459.66	34813.13
459.84	35367.84
460.03	35433.37
460.21	35817.22
460.39	36624.70
460.57	36580.23
460.76	36762.79
460.94	36891.52
461.12	36491.29
461.31	36975.78
461.49	36914.93
461.67	37001.53
461.85	37865.19
462.04	37474.32
462.22	37919.02
462.40	37607.73
462.59	37427.51
462.77	37675.60
462.95	37809.01
463.13	37343.25
463.32	36781.52
463.50	36605.98
463.68	36636.41
463.86	36772.16
464.05	36198.73
464.23	35690.83
464.41	35021.44
464.59	35196.98
464.78	36631.72
464.96	36156.60
465.14	35667.42
465.32	37111.53
465.50	37511.77
465.69	38731.18
465.87	37139.62
466.05	36091.06
466.23	35007.39
466.41	33975.22
466.60	35110.38
466.78	34635.25
466.96	35775.09
467.14	36346.18
467.32	36753.43
467.51	36748.75
467.69	35168.89
467.87	36137.87
468.05	36320.43
468.23	36280.64
468.41	36598.96
468.60	36514.70
468.78	36751.09
468.96	36320.43
469.14	37523.47
469.32	37247.29
469.50	36133.19
469.69	35931.90
469.87	35564.44
470.05	35615.93
470.23	35220.38
470.41	35140.80
470.59	35978.72
470.77	36629.38
470.95	37399.42
471.14	37699.01
471.32	37282.39
471.50	39194.61
471.68	39625.27
471.86	39910.82
472.04	40208.06
472.22	40039.54
472.40	38246.69
472.58	37968.17
472.77	37682.62
472.95	38916.09
473.13	39646.33
473.31	38157.75
473.49	38501.81
473.67	39122.05
473.85	39915.50
474.03	40690.21
474.21	40641.06
474.39	40856.39
474.57	40800.22
474.75	40713.62
474.93	40376.58
475.12	39772.72
475.30	39779.74
475.48	40259.55
475.66	40708.94
475.84	40355.52
476.02	39707.19
476.20	39178.23
476.38	39917.84
476.56	41659.20
476.74	41586.64
476.92	42096.88
477.10	42586.05
477.28	43934.20
477.46	43969.30
477.64	44233.78
477.82	43735.25
478.00	44554.44
478.18	43491.83
478.36	43655.67
478.54	43690.78
478.72	44196.34
478.90	45083.40
479.08	45895.56
479.26	47079.88
479.44	46485.38
479.62	45904.93
479.80	46141.32
479.98	46272.39
480.16	46824.76
480.34	46169.41
480.52	46405.80
480.70	46810.71
480.88	46810.71
481.06	47524.58
481.24	47976.30
481.41	48797.83
481.59	49357.22
481.77	48870.39
481.95	48488.88
482.13	48472.49
482.31	48116.73
482.49	49191.04
482.67	48954.64
482.85	49179.34
483.03	49724.68
483.21	49944.69
483.39	49925.97
483.57	49415.73
483.74	49123.16
483.92	49118.48
484.10	49436.80
484.28	50522.80
484.46	50766.22
484.64	51026.02
484.82	50143.64
485.00	49797.24
485.18	49226.15
485.35	47721.18
485.53	44896.16
485.71	40690.21
485.89	41048.32
486.07	42712.44
486.25	45979.82
486.43	48334.40
486.61	49088.06
486.78	48769.74
486.96	49160.61
487.14	50447.91
487.32	51475.40
487.50	52313.31
487.68	52999.09
487.85	53593.59
488.03	53418.05
488.21	53200.38
488.39	52268.84
488.57	51791.37
488.75	51683.71
488.92	53055.26
489.10	54735.77
489.28	55503.46
489.46	56460.74
489.64	56177.54
489.81	56212.65
489.99	55927.10
490.17	55920.08
490.35	56170.52
490.53	55838.16
490.70	55730.50
490.88	55592.40
491.06	56566.07
491.24	56388.19
491.41	55379.42
491.59	54092.12
491.77	53624.01
491.95	54237.23
492.13	55276.43
492.30	56472.45
492.48	57209.71
492.66	57724.63
492.84	57333.76
493.01	57317.38
493.19	56935.87
493.37	56753.31
493.54	56133.07
493.72	57045.88
493.90	57944.64
494.08	58569.57
494.25	58922.99
494.43	59065.76
494.61	59475.35
494.79	59288.11
494.96	59344.28
495.14	58618.72
495.32	57790.17
495.49	57464.83
495.67	58246.57
495.85	59344.28
496.02	59587.70
496.20	59714.09
496.38	59161.72
496.55	59023.63
496.73	59618.13
496.91	59744.51
497.09	60203.26
497.26	60367.10
497.44	59882.61
497.62	59550.25
497.79	58805.96
497.97	57572.50
498.14	58108.48
498.32	58885.54
498.50	59416.84
498.67	60198.58
498.85	60203.26
499.03	60158.79
499.20	60500.51
499.38	60383.48
499.56	60109.64
499.73	59704.73
499.91	59416.84
500.08	59182.79
500.26	58511.05
500.44	58967.46
500.61	59578.34
500.79	59377.05
500.97	58749.79
501.14	58892.56
501.32	58738.08
501.49	58735.74
501.67	58932.35
501.84	59248.32
502.02	59613.44
502.20	60104.96
502.37	60170.49
502.55	60168.15
502.72	60385.82
502.90	60858.61
503.07	60652.64
503.25	60200.92
503.43	59793.67
503.60	58850.43
503.78	58358.92
503.95	58798.94
504.13	60039.42
504.30	60830.52
504.48	60640.94
504.65	60268.79
504.83	60299.22
505.01	60954.57
505.18	61291.61
505.36	61647.37
505.53	61738.65
505.71	62103.77
505.88	62096.75
506.06	61415.66
506.23	61132.45
506.41	60905.42
506.58	61109.05
506.76	61179.26
506.93	60992.02
507.11	60821.16
507.28	61041.17
507.46	60582.43
507.63	59835.80
507.81	59695.36
507.98	60299.22
508.16	60804.78
508.33	61158.20
508.50	61539.71
508.68	61815.89
508.85	62047.60
509.03	62204.42
509.20	61982.07
509.38	61303.31
509.55	60697.11
509.73	60970.96
509.90	61387.57
510.08	61670.78
510.25	61626.31
510.42	61146.50
510.60	61212.03
510.77	61455.45
510.95	62033.56
511.12	62103.77
511.30	62410.38
511.47	62602.31
511.64	62618.69
511.82	62286.34
511.99	61336.08
512.17	61090.32
512.34	60839.89
512.51	61043.51
512.69	61268.20
512.86	61326.72
513.04	61806.53
513.21	61638.01
513.38	61289.27
513.56	60931.17
513.73	60374.12
513.90	60575.40
514.08	60690.09
514.25	60877.33
514.43	61125.43
514.60	61038.83
514.77	61195.65
514.95	61237.78
515.12	61256.50
515.29	61652.05
515.47	61872.06
515.64	61921.21
515.81	61862.70
515.99	61352.46
516.16	59910.69
516.33	58026.56
516.51	56783.74
516.68	55901.36
516.85	55388.78
517.03	56130.73
517.20	58335.51
517.37	60683.07
517.54	61607.58
517.72	60968.61
517.89	58731.06
518.06	56729.90
518.24	57179.29
518.41	59063.42
518.58	59945.80
518.75	60163.47
518.93	60582.43
519.10	60409.23
519.27	60701.79
519.45	60961.59
519.62	61787.80
519.79	61993.77
519.96	61815.89
520.14	61310.33
520.31	60484.12
520.48	60779.03
520.65	60977.98
520.83	62005.47
521.00	62068.67
521.17	61694.18
521.34	61530.34
521.52	61797.16
521.69	62328.47
521.86	62464.22
522.03	62253.57
522.20	61174.58
522.38	60416.25
522.55	60507.53
522.72	60919.46
522.89	60931.17
523.07	61282.25
523.24	61471.83
523.41	62269.95
523.58	62478.26
523.75	62876.15
523.92	62670.18
524.10	62836.36
524.27	62681.89
524.44	62478.26
524.61	62391.66
524.78	62131.86
524.96	62089.73
525.13	62108.46
525.30	62471.24
525.47	62892.54
525.64	62822.32
525.81	62082.71
525.98	60741.58
526.16	59561.95
526.33	59089.16
526.50	58745.11
526.67	58429.13
526.84	59042.35
527.01	59910.69
527.18	60378.80
527.36	61394.59
527.53	62094.41
527.70	62253.57
527.87	61659.07
528.04	61474.17
528.21	61843.98
528.38	62410.38
528.55	63049.35
528.72	63274.04
528.89	63316.17
529.07	63149.99
529.24	62349.53
529.41	61785.46
529.58	61322.04
529.75	61572.47
529.92	62082.71
530.09	62508.69
530.26	62827.00
530.43	63189.78
530.60	63051.69
530.77	63142.97
530.94	63358.30
531.11	63025.95
531.28	62440.81
531.46	62410.38
531.63	62466.56
531.80	62377.62
531.97	61921.21
532.14	61282.25
532.31	60460.72
532.48	59901.33
532.65	59962.18
532.82	60832.86
532.99	61638.01
533.16	61953.98
533.33	62686.57
533.50	62361.23
533.67	61797.16
533.84	61429.70
534.01	61600.56
534.18	61792.48
534.35	61862.70
534.52	61932.92
534.69	62295.70
534.86	62379.96
535.03	62642.10
535.20	63063.39
535.37	63283.40
535.54	63245.96
535.71	63070.42
535.88	62602.31
536.05	62192.72
536.22	61867.38
536.38	61464.81
536.55	61097.34
536.72	60643.28
536.89	60856.27
537.06	61336.08
537.23	62312.08
537.40	62499.33
537.57	62363.57
537.74	61970.36
537.91	62017.17
538.08	62120.16
538.25	62049.94
538.42	62337.83
538.59	62295.70
538.75	61460.13
538.92	61415.66
539.09	61371.19
539.26	61076.28
539.43	60598.81
539.60	60900.74
539.77	61268.20
539.94	61102.03
540.11	60327.31
540.28	59891.97
540.44	59840.48
540.61	60233.69
540.78	60404.55
540.95	60828.18
541.12	61359.48
541.29	61403.95
541.46	61663.75
541.62	61776.10
541.79	61684.82
541.96	60814.14
542.13	61045.85
542.30	61265.86
542.47	61535.02
542.63	61279.91
542.80	61038.83
542.97	61202.67
543.14	60910.10
543.31	61223.73
543.48	61645.03
543.64	62300.38
543.81	62637.42
543.98	62241.87
544.15	61652.05
544.32	61132.45
544.48	61174.58
544.65	61755.03
544.82	62045.26
544.99	61612.26
545.16	61343.10
545.32	61174.58
545.49	61881.42
545.66	62155.27
545.83	61616.94
546.00	61347.78
546.16	61406.30
546.33	61279.91
546.50	61286.93
546.67	61682.48
546.83	61394.59
547.00	61249.48
547.17	60779.03
547.34	60231.35
547.50	60247.73
547.67	60526.25
547.84	60839.89
548.00	60977.98
548.17	61464.81
548.34	61420.34
548.51	61347.78
548.67	61403.95
548.84	61593.54
549.01	61427.36
549.18	61216.71
549.34	61242.46
549.51	61249.48
549.68	61087.98
549.84	61162.88
550.01	61006.06
550.18	60708.82
550.34	60900.74
550.51	60893.72
550.68	60985.00
550.84	60388.16
551.01	60563.70
551.18	60580.09
551.34	60839.89
551.51	61233.10
551.68	61345.44
551.84	61502.26
552.01	61258.84
552.18	61205.01
552.34	60273.48
552.51	60088.57
552.68	59992.61
552.84	60493.49
553.01	60582.43
553.18	60631.58
553.34	60898.40
553.51	60750.94
553.67	60910.10
553.84	61153.52
554.01	61052.87
554.17	61071.60
554.34	60968.61
554.51	61153.52
554.67	61396.93
554.84	61158.20
555.00	60926.49
555.17	60748.60
555.33	60633.92
555.50	60596.47
555.67	60764.99
555.83	60594.13
556.00	60196.24
556.16	60362.42
556.33	59859.20
556.50	59723.45
556.66	59793.67
556.83	59442.59
556.99	59873.24
557.16	59884.95
557.32	60111.98
557.49	60390.50
557.65	60196.24
557.82	60175.17
557.98	59929.42
558.15	59704.73
558.32	59063.42
558.48	58232.53
558.65	58424.45
558.81	58777.87
558.98	59131.29
559.14	59234.28
559.31	59355.99
559.47	59220.23
559.64	59025.97
559.80	58487.65
559.97	58745.11
560.13	59070.44
560.30	59913.03
560.46	60310.92
560.63	60580.09
560.79	60507.53
560.96	60205.60
561.12	59079.80
561.29	58543.82
561.45	58492.33
561.61	59042.35
561.78	59391.09
561.94	59140.66
562.11	59267.05
562.27	58993.20
562.44	59451.95
562.60	59583.02
562.77	59693.02
562.93	59758.56
563.10	59587.70
563.26	58974.48
563.42	58990.86
563.59	59236.62
563.75	59011.93
563.92	58911.28
564.08	58908.94
564.24	59444.93
564.41	59316.20
564.57	59224.92
564.74	58810.64
564.90	59089.16
565.07	58775.53
565.23	58436.16
565.39	57993.79
565.56	57670.80
565.72	57687.18
565.88	57939.96
566.05	58237.21
566.21	58433.81
566.38	58471.26
566.54	58396.37
566.70	58834.05
566.87	59058.74
567.03	59110.23
567.19	59157.04
567.36	58958.09
567.52	58801.28
567.68	58471.26
567.85	58005.50
568.01	57684.84
568.17	57305.68
568.34	57467.17
568.50	57513.98
568.66	57392.28
568.83	57869.75
568.99	57799.53
569.15	57975.07
569.32	57982.09
569.48	57841.66
569.64	57577.18
569.81	57411.00
569.97	57104.39
570.13	57186.31
570.30	56924.17
570.46	56563.73
570.62	55969.23
570.78	55870.93
570.95	56114.34
571.11	56713.52
571.27	57219.08
571.43	57240.14
571.60	57420.36
571.76	57661.44
571.92	57989.11
572.09	58106.14
572.25	58262.96
572.41	57752.72
572.57	57846.34
572.74	57633.35
572.90	57453.13
573.06	57347.81
573.22	57642.71
573.38	57382.91
573.55	57467.17
573.71	57680.16
573.87	57336.10
574.03	57347.81
574.20	57427.38
574.36	56795.44
574.52	56947.57
574.68	56692.46
574.84	56224.35
575.01	55948.17
575.17	55826.46
575.33	56371.80
575.49	56537.98
575.65	56746.29
575.82	56528.62
575.98	56189.24
576.14	56568.41
576.30	56640.96
576.46	56882.04
576.62	56568.41
576.79	56699.48
576.95	56666.71
577.11	56343.72
577.27	56463.08
577.43	56547.34
577.59	56140.09
577.75	55803.05
577.92	54944.08
578.08	54981.52
578.24	55107.91
578.40	55238.98
578.56	55664.96
578.72	55583.04
578.88	55884.97
579.04	55906.04
579.21	55997.32
579.37	55903.70
579.53	56060.51
579.69	55641.56
579.85	56456.06
580.01	56090.94
580.17	55922.42
580.33	55491.76
580.49	55817.10
580.65	55931.78
580.82	56175.20
580.98	56062.85
581.14	55873.27
581.30	56048.81
581.46	55915.40
581.62	56093.28
581.78	56112.00
581.94	56353.08
582.10	56135.41
582.26	56435.00
582.42	56219.67
582.58	56313.29
582.74	56324.99
582.90	56275.84
583.06	56449.04
583.22	56069.87
583.38	56011.36
583.54	55971.57
583.70	55917.74
583.86	56072.21
584.02	55803.05
584.18	55863.91
584.34	55870.93
584.50	55765.60
584.66	55789.01
584.82	55121.96
584.98	55182.81
585.14	54684.28
585.30	54358.94
585.46	54031.27
585.62	54066.38
585.78	54335.54
585.94	54260.64
586.10	54768.54
586.26	54829.39
586.42	55063.44
586.58	55274.09
586.74	55334.95
586.90	55086.85
587.06	55056.42
587.22	54843.43
587.38	54478.31
587.54	54466.61
587.70	54300.43
587.86	54031.27
588.02	53792.53
588.18	53439.11
588.34	52528.64
588.49	51143.05
588.65	48964.01
588.81	48577.82
588.97	49336.15
589.13	48722.93
589.29	48779.10
589.45	49687.23
589.61	50740.47
589.77	52027.77
589.93	52486.51
590.08	53179.31
590.24	53392.30
590.40	53731.68
590.56	53773.81
590.72	53509.33
590.88	53069.31
591.04	52851.64
591.20	52886.74
591.35	52432.68
591.51	53179.31
591.67	52638.65
591.83	52617.58
591.99	52872.70
592.15	53045.90
592.31	53263.57
592.46	53078.67
592.62	52746.31
592.78	52456.09
592.94	52963.98
593.10	52573.11
593.26	52896.11
593.41	53296.34
593.57	52980.37
593.73	52538.01
593.89	52081.60
594.05	52158.84
594.20	51819.46
594.36	51625.20
594.52	51222.62
594.68	51220.28
594.84	51540.94
594.99	52032.45
595.15	52200.97
595.31	52325.02
595.47	52086.28
595.62	52280.55
595.78	52486.51
595.94	52856.32
596.10	52655.03
596.25	52250.12
596.41	52191.61
596.57	51650.94
596.73	52165.86
596.88	52062.88
597.04	52133.09
597.20	51936.49
597.36	51536.26
597.51	51611.15
597.67	51606.47
597.83	51569.02
597.99	51498.81
598.14	51023.68
598.30	50955.80
598.46	51187.52
598.61	51426.25
598.77	51405.19
598.93	51489.45
599.09	51643.92
599.24	52207.99
599.40	51611.15
599.56	51826.48
599.71	51681.37
599.87	51852.23
600.03	51393.48
600.18	50993.25
600.34	50700.68
600.50	50293.43
600.65	51040.06
600.81	51044.74
600.97	50899.63
601.12	50913.67
601.28	50855.16
601.44	50618.77
601.59	50253.64
601.75	50401.10
601.91	49858.09
602.06	50286.41
602.22	50241.94
602.37	50321.52
602.53	50670.26
602.69	50794.31
602.84	50714.73
603.00	51040.06
603.16	51283.48
603.31	51466.04
603.47	51414.55
603.62	51138.36
603.78	51044.74
603.94	50782.60
604.09	50880.91
604.25	50731.11
604.40	50714.73
604.56	50782.60
604.71	51084.53
604.87	50632.81
605.03	50356.63
605.18	50553.23
605.34	50422.16
605.49	50541.53
605.65	50651.53
605.80	50541.53
605.96	50028.95
606.12	49876.82
606.27	49947.03
606.43	49731.70
606.58	50019.59
606.74	50169.38
606.89	50258.32
607.05	50672.60
607.20	50447.91
607.36	49855.75
607.51	49235.51
607.67	49322.11
607.82	49233.17
607.98	48975.71
608.13	49151.25
608.29	49036.56
608.44	48949.96
608.60	48561.44
608.75	48580.16
608.91	48666.76
609.06	48619.95
609.22	49223.81
609.37	48788.47
609.53	49085.72
609.68	48439.73
609.84	47402.87
609.99	47452.02
610.15	47856.93
610.30	47737.57
610.46	48222.06
610.61	48521.65
610.76	48589.52
610.92	48870.39
611.07	48985.07
611.23	49022.52
611.38	48650.38
611.54	48467.81
611.69	47454.36
611.84	47571.39
612.00	46918.38
612.15	47070.51
612.31	47241.37
612.46	47274.14
612.62	47463.72
612.77	47660.33
612.92	47547.98
613.08	47316.27
613.23	46223.24
613.39	45820.67
613.54	45429.80
613.69	45488.31
613.85	45762.15
614.00	46213.88
614.15	46820.08
614.31	46761.56
614.46	46864.55
614.62	46897.31
614.77	47004.98
614.92	46536.87
615.08	46291.12
615.23	46471.34
615.38	46073.45
615.54	44994.46
615.69	44556.78
615.84	43800.79
616.00	43555.03
616.15	44219.74
616.30	44039.52
616.46	44158.89
616.61	43913.13
616.76	44587.21
616.92	44795.51
617.07	44882.11
617.22	44964.03
617.37	45174.68
617.53	45769.18
617.68	45937.69
617.83	45661.51
617.99	45741.09
618.14	45684.92
618.29	45687.26
618.45	45184.04
618.60	44786.15
618.75	44395.28
618.90	44247.83
619.06	44589.55
619.21	44896.16
619.36	45322.13
619.51	45052.97
619.67	44549.76
619.82	44889.13
619.97	44987.44
620.12	44563.80
620.28	44809.56
620.43	44935.95
620.58	44741.68
620.73	44781.47
620.89	44650.40
621.04	44023.14
621.19	43700.14
621.34	43533.96
621.49	43625.25
621.65	42782.65
621.80	43964.62
621.95	43178.20
622.10	43442.68
622.25	43049.47
622.41	42983.94
622.56	42698.39
622.71	42373.06
622.86	42457.32
623.01	42902.02
623.16	42658.60
623.32	42272.42
623.47	42525.19
623.62	41933.04
623.77	41703.67
623.92	41734.09
624.07	41001.50
624.23	40854.05
624.38	41368.97
624.53	41343.22
624.68	41399.40
624.83	41144.28
624.98	41551.53
625.13	40446.80
625.29	40495.95
625.44	40889.16
625.59	40641.06
625.74	41158.32
625.89	40823.62
626.04	40800.22
626.19	41216.83
626.34	41289.39
626.49	41045.97
626.65	40442.12
626.80	40596.59
626.95	40758.09
627.10	40648.08
627.25	39463.77
627.40	38534.58
627.55	37780.93
627.70	37785.61
627.85	38396.49
628.00	38337.98
628.15	38639.90
628.30	39342.06
628.45	39285.89
628.60	39054.18
628.76	39173.55
628.91	39246.10
629.06	38733.53
629.21	39122.05
629.36	38651.61
629.51	38525.22
629.66	38120.31
629.81	37956.47
629.96	37558.58
630.11	38958.22
630.26	38983.96
630.41	38721.82
630.56	38284.14
630.71	38525.22
630.86	38506.49
631.01	38192.86
631.16	38012.64
631.31	37486.02
631.46	37020.25
631.61	37289.42
631.76	37364.31
631.91	37694.33
632.06	38424.57
632.21	38024.34
632.36	38497.13
632.51	38239.67
632.66	38277.12
632.81	38157.75
632.96	38101.58
633.10	37724.75
633.25	37511.77
633.40	37195.79
633.55	37539.85
633.70	37413.46
633.85	37415.80
634.00	37291.76
634.15	37345.59
634.30	37205.16
634.45	37371.33
634.60	37429.85
634.75	37951.79
634.90	37373.67
635.05	37797.31
635.19	37251.97
635.34	37282.39
635.49	37020.25
635.64	36886.84
635.79	36343.84
635.94	36863.44
636.09	36683.22
636.24	37113.87
636.39	37158.34
636.53	37034.30
636.68	36914.93
636.83	36999.19
636.98	37352.61
637.13	37411.12
637.28	37809.01
637.43	37153.66
637.57	37654.54
637.72	36910.25
637.87	37376.01
638.02	36252.56
638.17	36634.06
638.32	36542.78
638.46	37017.91
638.61	36268.94
638.76	36395.33
638.91	36121.49
639.06	36030.21
639.20	35882.75
639.35	35849.99
639.50	35168.89
639.65	35283.58
639.80	35370.18
639.94	35421.67
640.09	35606.57
640.24	35510.61
640.39	35117.40
640.54	35306.98
640.68	35023.78
640.83	34890.37
640.98	34628.23
641.13	34611.84
641.27	34728.87
641.42	34796.74
641.57	34672.70
641.72	34616.52
641.86	33944.79
642.01	34319.28
642.16	35021.44
642.31	34700.78
642.45	35557.42
642.60	34368.43
642.75	34113.31
642.90	34237.36
643.04	34169.48
643.19	34370.77
643.34	34174.16
643.48	33759.89
643.63	33570.30
643.78	34073.52
643.93	34403.53
644.07	34998.03
644.22	34590.78
644.37	33984.58
644.51	33858.19
644.66	34036.07
644.81	33322.21
644.95	33734.14
645.10	33677.97
645.25	33303.48
645.39	32931.34
645.54	32786.22
645.69	32697.28
645.83	32224.50
645.98	32133.21
646.13	32472.59
646.27	32404.72
646.42	32460.89
646.57	32327.48
646.71	32264.28
646.86	32491.32
647.00	31955.33
647.15	31674.47
647.30	31974.06
647.44	31669.79
647.59	31786.82
647.74	31367.86
647.88	31480.21
648.03	31110.40
648.17	31861.71
648.32	31688.51
648.47	31718.94
648.61	31421.69
648.76	31019.12
648.90	30340.36
649.05	29439.26
649.20	29261.38
649.34	29198.18
649.49	29432.24
649.63	30174.19
649.78	30916.14
649.92	30852.94
650.07	31384.24
650.21	31590.21
650.36	31842.99
650.51	31842.99
650.65	31887.46
650.80	31697.88
650.94	31534.04
651.09	30836.56
651.23	30230.36
651.38	29748.21
651.52	30096.95
651.67	29900.34
651.81	30396.54
651.96	30834.22
652.10	30579.10
652.25	30480.80
652.39	31012.10
652.54	30796.77
652.68	30614.21
652.83	30775.70
652.97	30822.51
653.12	30328.66
653.26	30410.58
653.41	30878.69
653.55	30525.27
653.70	30518.25
653.84	30462.07
653.99	30316.96
654.13	29362.02
654.27	29118.60
654.42	29090.52
654.56	29247.33
654.71	28950.09
654.85	28669.22
655.00	28655.18
655.14	28098.13
655.29	28194.09
655.43	27300.01
655.57	26314.64
655.72	24304.12
655.86	22796.82
656.01	21708.47
656.15	21633.57
656.30	23269.61
656.44	24538.18
656.58	25816.11
656.73	26583.80
656.87	26899.78
657.01	27442.78
657.16	28051.32
657.30	28009.19
657.45	28376.66
657.59	28910.30
657.73	28397.72
657.88	28814.34
658.02	28500.70
658.16	28411.76
658.31	28664.54
658.45	28893.91
658.60	28130.90
658.74	27995.15
658.88	27721.30
659.03	27714.28
659.17	27868.76
659.31	28009.19
659.46	27688.54
659.60	27831.31
659.74	28196.43
659.89	28404.74
660.03	28559.22
660.17	28779.23
660.32	28137.92
660.46	28133.24
660.60	27854.72
660.74	27929.61
660.89	27847.69
661.03	27630.02
661.17	28025.57
661.32	27828.97
661.46	27786.84
661.60	27716.62
661.74	27763.43
661.89	28151.96
662.03	27857.06
662.17	27676.83
662.31	27543.42
662.46	27571.51
662.60	27510.66
662.74	27182.98
662.88	27281.28
663.03	26810.84
663.17	26396.56
663.31	26536.99
663.45	26108.68
663.60	26855.31
663.74	26567.42
663.88	26806.16
664.02	26480.82
664.17	26789.77
664.31	26700.83
664.45	26838.92
664.59	26698.49
664.73	27077.66
664.88	27150.21
665.02	26637.64
665.16	26691.47
665.30	26181.23
665.44	26539.33
665.59	26167.19
665.73	26108.68
665.87	25582.06
666.01	25060.12
666.15	25296.51
666.29	25612.48
666.44	25532.90
666.58	25703.76
666.72	25528.22
666.86	25502.48
667.00	25635.89
667.14	25202.89
667.28	25436.94
667.43	25720.15
667.57	24896.28
667.71	24814.36
667.85	25233.32
667.99	25205.23
668.13	24769.89
668.27	25085.86
668.41	25074.16
668.56	24659.88
668.70	24851.81
668.84	25050.75
668.98	24664.57
669.12	24819.04
669.26	24760.53
669.40	24224.54
669.54	24070.07
669.68	24634.14
669.82	24306.46
669.96	24395.40
670.10	24023.26
670.25	24102.84
670.39	23616.01
670.53	24013.90
670.67	23440.47
670.81	23885.17
670.95	23681.54
671.09	23372.59
671.23	23234.50
671.37	23323.44
671.51	23307.05
671.65	23044.91
671.79	23278.97
671.93	22932.57
672.07	23267.27
672.21	23190.03
672.35	23112.79
672.49	22953.63
672.63	23449.83
672.77	22831.93
672.91	22515.95
673.05	22782.77
673.19	22731.28
673.33	22558.08
673.47	22831.93
673.61	22354.46
673.75	22665.75
673.89	22951.29
674.03	22377.86
674.17	22328.71
674.31	22389.56
674.45	22452.76
674.59	21891.03
674.73	22171.89
674.87	21914.44
675.01	21514.20
675.15	21785.71
675.29	21762.30
675.43	21532.93
675.56	21722.51
675.70	21818.47
675.84	21280.15
675.98	20926.73
676.12	21640.59
676.26	21593.78
676.40	21333.98
676.54	21191.21
676.68	20961.84
676.82	20851.83
676.96	21036.74
677.10	21022.69
677.23	20676.29
677.37	20699.70
677.51	20599.05
677.65	20503.09
677.79	20304.15
677.93	20318.19
678.07	20217.55
678.21	19974.13
678.34	20201.16
678.48	20217.55
678.62	20123.93
678.76	19510.71
678.90	20056.05
679.04	19831.36
679.18	20051.37
679.31	19737.74
679.45	19480.28
679.59	19445.17
679.73	19447.51
679.87	19428.79
680.00	19176.01
680.14	19110.47
680.28	19243.88
680.42	18857.70
680.56	18700.88
680.70	18537.04
680.83	18691.52
680.97	18490.23
681.11	18345.12
681.25	18412.99
681.39	18724.29
681.52	18504.28
681.66	18415.34
681.80	18593.22
681.94	18682.16
682.07	18558.11
682.21	18162.56
682.35	18216.39
682.49	17879.35
682.62	17834.88
682.76	17528.27
682.90	17940.21
683.04	17888.71
683.17	17785.73
683.31	17624.23
683.45	17387.84
683.59	17224.00
683.72	17179.53
683.86	16872.92
684.00	16676.32
684.13	16489.07
684.27	16713.77
684.41	16805.05
684.55	16697.38
684.68	16549.93
684.82	16688.02
684.96	16400.13
685.09	16365.03
685.23	16074.80
685.37	15974.16
685.50	16145.02
685.64	16042.03
685.78	15999.90
685.91	15983.52
686.05	16044.37
686.19	15374.98
686.32	14164.92
686.46	12987.63
686.60	11262.66
686.73	10530.07
686.87	10026.86
687.01	9860.68
687.14	10071.33
687.28	10321.76
687.42	10860.09
687.55	11332.87
687.69	11992.90
687.82	12683.36
687.96	12978.27
688.10	12835.50
688.23	12744.22
688.37	12449.31
688.50	12437.61
688.64	12386.12
688.78	12037.38
688.91	11885.24
689.05	11995.25
689.18	11737.79
689.32	11669.91
689.46	12035.03
689.59	12121.63
689.73	12292.49
689.86	12133.34
690.00	12210.57
690.13	12472.71
690.27	12201.21
690.41	12210.57
690.54	12388.46
690.68	12236.32
690.81	12484.42
690.95	12526.55
691.08	12411.86
691.22	12507.82
691.35	12266.75
691.49	12283.13
691.62	12379.09
691.76	12222.28
691.89	12407.18
692.03	12297.17
692.16	12233.98
692.30	12109.93
692.43	12224.62
692.57	12100.57
692.70	11838.43
692.84	11683.95
692.97	11850.13
693.11	11681.61
693.24	11810.34
693.38	11595.01
693.51	11442.88
693.65	11477.99
693.78	11206.48
693.92	11154.99
694.05	11082.44
694.19	11243.93
694.32	11232.23
694.45	10991.16
694.59	11208.83
694.72	11115.20
694.86	11052.01
694.99	10780.51
695.13	10843.70
695.26	10682.20
695.39	10539.43
695.53	10782.85
695.66	10532.41
695.80	10665.82
695.93	10647.10
696.07	10906.90
696.20	10853.06
696.33	10813.28
696.47	11037.97
696.60	11091.80
696.73	11180.74
696.87	11063.71
697.00	11316.49
697.14	11033.29
697.27	10951.37
697.40	10719.65
697.54	10558.16
697.67	10237.50
697.80	10068.98
697.94	10073.67
698.07	10101.75
698.21	9973.02
698.34	9940.26
698.47	9827.91
698.61	9774.08
698.74	9645.35
698.87	9727.27
699.01	9525.98
699.14	9551.73
699.27	9439.38
699.40	9877.06
699.54	9425.34
699.67	9366.82
699.80	9338.74
699.94	9446.40
700.07	9210.01
700.20	8922.12
700.34	8767.65
700.47	8915.10
700.60	8982.98
700.73	8807.44
700.87	8858.93
701.00	8952.55
701.13	8716.16
701.26	8599.13
701.40	8631.90
701.53	8557.00
701.66	8683.39
701.79	8601.47
701.93	8678.71
702.06	8627.21
702.19	8510.19
702.32	8545.30
702.46	8266.77
702.59	8318.26
702.72	8402.52
702.85	8549.98
702.99	8517.21
703.12	8245.71
703.25	8362.73
703.38	8411.89
703.51	8297.20
703.65	8159.11
703.78	8208.26
703.91	8257.41
704.04	8271.45
704.17	8189.53
704.31	8243.37
704.44	8226.98
704.57	8215.28
704.70	7999.95
704.83	8091.23
704.96	7838.45
705.10	7896.97
705.23	7770.58
>>>>>End Processed Spectral Data<<<<<
