SpectraSuite Data File
++++++++++++++++++++++++++++++++++++
Date: Mon Oct 07 14:55:01 GMT-05:00 2013
User: price-jones
Dark Spectrum Present: No
Reference Spectrum Present: No
Number of Sampled Component Spectra: 1
Spectrometers: USB2+H05261
Integration Time (usec): 10000 (USB2+H05261)
Spectra Averaged: 1 (USB2+H05261)
Boxcar Smoothing: 0 (USB2+H05261)
Correct for Electrical Dark: No (USB2+H05261)
Strobe/Lamp Enabled: No (USB2+H05261)
Correct for Detector Non-linearity: No (USB2+H05261)
Correct for Stray Light: No (USB2+H05261)
Number of Pixels in Processed Spectrum: 2048
>>>>>Begin Processed Spectral Data<<<<<
365.73	0.00
365.92	0.00
366.12	0.00
366.32	0.00
366.52	0.00
366.72	0.00
366.91	0.00
367.11	0.00
367.31	0.00
367.51	0.00
367.70	0.00
367.90	0.00
368.10	0.00
368.30	0.00
368.49	0.00
368.69	0.00
368.89	0.00
369.09	0.00
369.28	0.00
369.48	0.00
369.68	0.00
369.87	0.00
370.07	0.00
370.27	0.00
370.47	353.42
370.66	2399.05
370.86	2881.20
371.06	3038.02
371.25	3012.27
371.45	2722.04
371.65	2326.49
371.84	2307.77
372.04	2518.42
372.24	2705.66
372.44	2864.82
372.63	2918.65
372.83	2490.33
373.03	2195.42
373.22	2029.24
373.42	2389.69
373.62	2747.79
373.81	2729.06
374.01	2679.91
374.21	2450.54
374.40	2267.98
374.60	2455.22
374.79	2913.97
374.99	3391.44
375.19	3527.19
375.38	3398.46
375.58	3229.94
375.78	3304.84
375.97	3152.70
376.17	3293.13
376.37	3356.33
376.56	3543.57
376.76	3634.85
376.95	3925.08
377.15	4264.46
377.35	4304.25
377.54	4517.23
377.74	4720.86
377.93	4669.37
378.13	4425.95
378.33	4252.75
378.52	3911.04
378.72	3723.79
378.91	3679.32
379.11	3597.40
379.31	3421.86
379.50	3515.48
379.70	3768.26
379.89	4264.46
380.09	4374.46
380.28	4477.44
380.48	4472.76
380.68	4533.62
380.87	4344.03
381.07	3955.51
381.26	3431.23
381.46	3356.33
381.65	3428.88
381.85	3220.58
382.04	3009.93
382.24	2834.39
382.43	2743.11
382.63	2761.83
382.83	2708.00
383.02	2733.75
383.22	2836.73
383.41	2750.13
383.61	3063.76
383.80	3559.95
384.00	4168.49
384.19	4486.81
384.39	4442.34
384.58	4519.57
384.78	4440.00
384.97	4231.69
385.17	4063.17
385.36	3967.21
385.56	3871.25
385.75	4077.21
385.95	4365.10
386.14	4676.39
386.34	4557.02
386.53	4404.89
386.72	4245.73
386.92	4290.20
387.11	4674.05
387.31	4772.35
387.50	4648.30
387.70	4498.51
387.89	4421.27
388.09	4624.90
388.28	4461.06
388.48	4865.97
388.67	5081.30
388.86	5607.92
389.06	5811.55
389.25	6115.82
389.45	6174.33
389.64	6244.55
389.84	6050.28
390.03	6106.46
390.22	6157.95
390.42	6438.81
390.61	6764.15
390.81	7098.84
391.00	7466.31
391.19	7133.95
391.39	6693.93
391.58	6260.93
391.78	6108.80
391.97	5982.41
392.16	5598.56
392.36	4842.57
392.55	3763.58
392.75	3068.44
392.94	2546.50
393.13	2696.30
393.33	3370.37
393.52	4222.33
393.71	4931.51
393.91	5703.89
394.10	5970.71
394.29	6696.27
394.49	7033.31
394.68	7742.49
394.88	7606.74
395.07	7854.84
395.26	7782.28
395.46	7641.85
395.65	6815.64
395.84	5963.68
396.04	5011.09
396.23	3885.29
396.42	3541.23
396.62	3527.19
396.81	4173.18
397.00	5614.95
397.19	6778.19
397.39	8046.76
397.58	8599.13
397.77	9399.59
397.97	9722.59
398.16	9776.42
398.35	10120.48
398.55	10342.83
398.74	10565.18
398.93	11009.88
399.12	10881.15
399.32	10417.72
399.51	11073.07
399.70	11492.03
399.90	11257.98
400.09	11150.31
400.28	11126.91
400.47	11508.41
400.67	11859.49
400.86	12203.55
401.05	12079.50
401.24	11941.41
401.44	12446.97
401.63	12470.37
401.82	12524.21
402.01	12498.46
402.21	12746.56
402.40	12395.48
402.59	12063.12
402.78	11866.52
402.97	11662.89
403.17	12442.29
403.36	12973.59
403.55	12938.48
403.74	13165.51
403.93	12259.73
404.13	11407.77
404.32	11637.14
404.51	12266.75
404.70	12734.85
404.89	12898.69
405.09	12416.54
405.28	12697.41
405.47	12365.05
405.66	12409.52
405.85	11981.20
406.05	11683.95
406.24	12219.94
406.43	12521.87
406.62	12875.29
406.81	13046.15
407.00	12322.92
407.20	12231.64
407.39	12395.48
407.58	13345.73
407.77	13612.56
407.96	13940.23
408.15	14384.93
408.34	14319.40
408.54	14778.14
408.73	14853.04
408.92	14443.45
409.11	14108.75
409.30	13486.17
409.49	12393.14
409.68	11772.89
409.87	11833.75
410.07	12491.44
410.26	13518.93
410.45	14120.45
410.64	14558.13
410.83	15059.01
411.02	15482.64
411.21	15527.11
411.40	15496.69
411.59	15892.24
411.78	15276.68
411.98	15646.48
412.17	15772.87
412.36	15613.71
412.55	15562.22
412.74	15014.54
412.93	14679.84
413.12	15234.55
413.31	16809.73
413.50	16716.11
413.69	16659.93
413.88	16369.71
414.07	15826.70
414.26	16596.74
414.45	16870.58
414.64	16388.43
414.83	16428.22
415.02	16130.97
415.22	16582.70
415.41	16943.14
415.60	17228.68
415.79	17933.18
415.98	18129.79
416.17	18207.03
416.36	17720.20
416.55	17895.74
416.74	16627.17
416.93	16388.43
417.12	16751.21
417.31	16847.18
417.50	17256.77
417.69	17652.32
417.88	17261.45
418.07	17366.78
418.26	17275.49
418.45	17486.14
418.64	18045.53
418.83	19068.34
419.02	18298.31
419.21	17799.77
419.39	17268.47
419.58	16336.94
419.77	16453.97
419.96	17706.15
420.15	18422.36
420.34	19405.38
420.53	19466.24
420.72	19971.79
420.91	19810.29
421.10	19234.52
421.29	19126.86
421.48	18948.98
421.67	19674.54
421.86	18600.24
422.05	17195.92
422.24	15693.29
422.43	16538.23
422.61	18420.02
422.80	18998.13
422.99	18354.48
423.18	17851.27
423.37	17865.31
423.56	18338.10
423.75	18412.99
423.94	19002.81
424.13	17603.17
424.32	17671.04
424.50	17624.23
424.69	17980.00
424.88	18082.98
425.07	18202.35
425.26	17657.00
425.45	17202.94
425.64	17254.43
425.83	17678.07
426.01	18553.43
426.20	18593.22
426.39	18284.26
426.58	16809.73
426.77	15775.21
426.96	15976.50
427.15	16498.44
427.33	17551.68
427.52	18181.28
427.71	18394.27
427.90	17987.02
428.09	17631.26
428.28	17046.12
428.46	16285.45
428.65	16217.57
428.84	17041.44
429.03	16875.26
429.22	16170.76
429.40	15005.17
429.59	13582.13
429.78	12100.57
429.97	12383.77
430.16	12561.66
430.34	12435.27
430.53	13088.28
430.72	13507.23
430.91	15363.28
431.10	17790.41
431.28	20238.61
431.47	21811.45
431.66	21488.46
431.85	18834.29
432.03	17504.87
432.22	17713.17
432.41	19096.43
432.60	20121.59
432.79	21128.02
432.97	21582.08
433.16	20716.08
433.35	18523.00
433.54	16601.42
433.72	16063.10
433.91	17319.96
434.10	19304.74
434.28	20460.96
434.47	21411.22
434.66	20292.44
434.85	20133.29
435.03	20587.35
435.22	20671.61
435.41	22008.06
435.59	21823.16
435.78	22080.61
435.97	22742.99
436.16	22693.83
436.34	22476.16
436.53	22183.60
436.72	22043.17
436.90	20978.22
437.09	20968.86
437.28	20685.65
437.46	21640.59
437.65	20575.65
437.84	18864.72
438.02	18506.62
438.21	18389.59
438.40	19126.86
438.58	20400.11
438.77	21221.64
438.96	21816.13
439.14	22604.89
439.33	23192.37
439.52	23250.88
439.70	22398.93
439.89	21633.57
440.08	21282.49
440.26	21589.10
440.45	22209.34
440.63	24175.39
440.82	25263.74
441.01	24460.94
441.19	24400.08
441.38	25078.84
441.57	25989.31
441.75	25907.39
441.94	26483.16
442.12	26162.51
442.31	26864.67
442.50	26628.27
442.68	26043.14
442.87	25579.71
443.05	25434.60
443.24	25944.84
443.43	26520.61
443.61	26740.62
443.80	27028.51
443.98	25902.71
444.17	25685.04
444.35	27101.06
444.54	27913.23
444.73	27161.92
444.91	25979.95
445.10	24332.21
445.28	23985.81
445.47	23913.25
445.65	24065.39
445.84	24900.96
446.02	25465.03
446.21	26111.02
446.39	25773.98
446.58	26160.17
446.77	26834.24
446.95	27157.24
447.14	27866.42
447.32	27950.68
447.51	27744.71
447.69	26572.10
447.88	26661.04
448.06	27082.34
448.25	27019.14
448.43	27164.26
448.62	27110.43
448.80	26689.13
448.99	26705.51
449.17	27208.73
449.36	27337.46
449.54	28336.87
449.73	28437.51
449.91	29174.78
450.10	29666.29
450.28	30347.39
450.46	30267.81
450.65	30263.13
450.83	29642.88
451.02	28868.17
451.20	28992.22
451.39	29130.31
451.57	29022.64
451.76	29130.31
451.94	28540.49
452.13	27651.09
452.31	26558.06
452.49	25216.93
452.68	25977.61
452.86	26122.72
453.05	26401.24
453.23	28084.09
453.42	28219.84
453.60	28872.85
453.78	28531.13
453.97	28360.27
454.15	28194.09
454.34	26962.97
454.52	26881.05
454.70	27229.79
454.89	27990.47
455.07	27887.48
455.26	28149.62
455.44	29298.83
455.62	29912.05
455.81	29411.17
455.99	29614.80
456.17	29940.13
456.36	30108.65
456.54	30611.87
456.73	29500.11
456.91	30511.22
457.09	30852.94
457.28	31658.09
457.46	30106.31
457.64	29766.93
457.83	28907.96
458.01	28788.59
458.19	29771.61
458.38	30389.52
458.56	30581.44
458.74	29930.77
458.93	30075.88
459.11	29319.89
459.29	29102.22
459.48	30134.40
459.66	29401.81
459.84	29699.06
460.03	30366.11
460.21	30630.59
460.39	31489.57
460.57	30764.00
460.76	31138.49
460.94	31124.44
461.12	31674.47
461.31	30984.01
461.49	31459.14
461.67	31379.56
461.85	31847.67
462.04	31873.42
462.22	32112.15
462.40	32224.50
462.59	30972.31
462.77	31564.46
462.95	31679.15
463.13	31344.45
463.32	31019.12
463.50	30628.25
463.68	31035.50
463.86	31363.18
464.05	30284.19
464.23	29970.56
464.41	30490.16
464.59	30052.48
464.78	31145.51
464.96	31000.40
465.14	30225.68
465.32	32119.17
465.50	32601.32
465.69	33324.55
465.87	31744.69
466.05	30824.86
466.23	29385.43
466.41	28868.17
466.60	30008.01
466.78	30230.36
466.96	30312.28
467.14	30855.28
467.32	31035.50
467.51	31124.44
467.69	29710.76
467.87	30459.73
468.05	30962.95
468.23	30525.27
468.41	30349.73
468.60	31250.83
468.78	31662.77
468.96	31220.41
469.14	31653.40
469.32	31894.48
469.50	30438.67
469.69	30216.32
469.87	30274.83
470.05	29984.60
470.23	30192.91
470.41	30183.55
470.59	30808.47
470.77	30450.37
470.95	31508.29
471.14	32332.16
471.32	32203.43
471.50	33830.10
471.68	33799.68
471.86	34548.65
472.04	33535.20
472.22	34108.63
472.40	32840.06
472.58	32753.46
472.77	32252.58
472.95	32568.55
473.13	33338.59
473.31	32367.27
473.49	32381.31
473.67	33104.54
473.85	33813.72
474.03	35267.19
474.21	35576.14
474.39	35571.46
474.57	35108.04
474.75	35484.86
474.93	34981.65
475.12	34389.49
475.30	34326.30
475.48	34115.65
475.66	33633.50
475.84	33261.35
476.02	33963.51
476.20	33813.72
476.38	34202.25
476.56	35136.12
476.74	36121.49
476.92	35697.85
477.10	36374.27
477.28	37146.64
477.46	37251.97
477.64	37764.54
477.82	37956.47
478.00	38281.80
478.18	37003.87
478.36	36605.98
478.54	37352.61
478.72	37876.89
478.90	39531.65
479.08	41081.08
479.26	40404.67
479.44	40627.02
479.62	39328.02
479.80	40589.57
479.98	40289.98
480.16	41078.74
480.34	39761.02
480.52	41380.67
480.70	41523.44
480.88	40608.29
481.06	41804.31
481.24	41808.99
481.41	42810.74
481.59	43632.27
481.77	42396.46
481.95	42209.22
482.13	41509.40
482.31	42674.99
482.49	43054.15
482.67	42445.62
482.85	42600.09
483.03	42997.98
483.21	44069.95
483.39	43358.42
483.57	42536.90
483.74	42871.59
483.92	44135.48
484.10	43571.41
484.28	43959.94
484.46	43590.14
484.64	45567.89
484.82	43880.36
485.00	43442.68
485.18	42841.17
485.35	40655.11
485.53	36084.04
485.71	34291.19
485.89	34478.43
486.07	36921.95
486.25	39908.47
486.43	42433.91
486.61	41904.95
486.78	42131.98
486.96	43494.18
487.14	44737.00
487.32	45460.23
487.50	46099.19
487.68	47580.75
487.85	48364.83
488.03	47365.42
488.21	46981.57
488.39	46733.48
488.57	45661.51
488.75	45483.63
488.92	47250.74
489.10	49389.98
489.28	50475.99
489.46	52215.01
489.64	51136.02
489.81	51634.56
489.99	50457.27
490.17	50838.78
490.35	51000.27
490.53	50234.92
490.70	49998.52
490.88	49895.54
491.06	51573.70
491.24	51447.32
491.41	50005.55
491.59	48320.36
491.77	48055.88
491.95	50101.51
492.13	51578.39
492.30	52247.78
492.48	52687.80
492.66	53305.70
492.84	52992.07
493.01	52310.97
493.19	52294.59
493.37	51987.98
493.54	52156.50
493.72	53272.93
493.90	53301.02
494.08	53947.01
494.25	54092.12
494.43	54578.95
494.61	54899.61
494.79	55208.56
494.96	55449.63
495.14	54850.45
495.32	53240.17
495.49	53858.07
495.67	54475.97
495.85	55569.00
496.02	56060.51
496.20	55611.13
496.38	55143.02
496.55	55246.00
496.73	56163.50
496.91	55917.74
497.09	56074.55
497.26	56037.11
497.44	55793.69
497.62	54813.01
497.79	53825.30
497.97	53247.19
498.14	54286.39
498.32	55334.95
498.50	55365.37
498.67	55363.03
498.85	55653.26
499.03	56217.33
499.20	56842.25
499.38	55980.93
499.56	55515.17
499.73	55070.46
499.91	54876.20
500.08	54307.45
500.26	53932.96
500.44	54803.64
500.61	55213.24
500.79	54848.11
500.97	55145.36
501.14	53916.58
501.32	53727.00
501.49	54239.57
501.67	54501.71
501.84	54791.94
502.02	55224.94
502.20	56030.08
502.37	56168.18
502.55	56378.82
502.72	56636.28
502.90	57076.30
503.07	56659.69
503.25	55384.10
503.43	54534.48
503.60	54253.62
503.78	54213.83
503.95	54354.26
504.13	56065.19
504.30	56165.84
504.48	55922.42
504.65	55962.21
504.83	56271.16
505.01	56725.22
505.18	57226.10
505.36	57308.02
505.53	57705.91
505.71	58014.86
505.88	57783.15
506.06	57226.10
506.23	56790.76
506.41	56954.60
506.58	57350.15
506.76	56994.39
506.93	56577.77
507.11	56287.54
507.28	56912.47
507.46	55884.97
507.63	55894.33
507.81	55075.15
507.98	56079.24
508.16	57083.33
508.33	57460.15
508.50	57455.47
508.68	57827.62
508.85	58059.33
509.03	58419.77
509.20	57640.37
509.38	56537.98
509.55	56313.29
509.73	56720.54
509.90	56823.53
510.08	57179.29
510.25	56671.39
510.42	56643.30
510.60	57411.00
510.77	57584.20
510.95	57539.73
511.12	57975.07
511.30	58351.90
511.47	58616.38
511.64	58700.64
511.82	58471.26
511.99	57361.85
512.17	57471.85
512.34	56767.35
512.51	56978.00
512.69	57354.83
512.86	57277.59
513.04	57476.54
513.21	56945.23
513.38	56013.70
513.56	55955.19
513.73	55435.59
513.90	55931.78
514.08	56062.85
514.25	56074.55
514.43	56296.91
514.60	56938.21
514.77	57020.13
514.95	57392.28
515.12	57113.75
515.29	57623.99
515.47	57916.56
515.64	57876.77
515.81	57324.40
515.99	56521.60
516.16	54494.69
516.33	52016.07
516.51	51779.67
516.68	50494.72
516.85	49579.57
517.03	51732.86
517.20	54291.07
517.37	56371.80
517.54	57523.35
517.72	55749.22
517.89	52893.77
518.06	51442.63
518.24	53095.05
518.41	54944.08
518.58	55580.70
518.75	55592.40
518.93	56009.02
519.10	55430.91
519.27	56535.64
519.45	56788.42
519.62	57343.12
519.79	57474.20
519.96	57099.71
520.14	56547.34
520.31	55466.02
520.48	56062.85
520.65	56495.85
520.83	57549.09
521.00	57565.48
521.17	56825.87
521.34	56921.83
521.52	57724.63
521.69	57731.65
521.86	58031.24
522.03	58204.44
522.20	56339.04
522.38	55786.67
522.55	56467.76
522.72	56963.96
522.89	56519.26
523.07	57097.37
523.24	57373.55
523.41	58773.19
523.58	58976.82
523.75	59128.95
523.92	58646.80
524.10	58092.10
524.27	58131.89
524.44	58122.52
524.61	57865.06
524.78	58127.20
524.96	58040.60
525.13	58073.37
525.30	58588.29
525.47	58607.01
525.64	58288.70
525.81	57726.97
525.98	55573.68
526.16	54693.64
526.33	54766.20
526.50	54068.72
526.67	54454.90
526.84	54710.02
527.01	55681.34
527.18	56257.12
527.36	57001.41
527.53	58176.36
527.70	57375.89
527.87	55910.72
528.04	57322.06
528.21	57846.34
528.38	58459.56
528.55	59124.27
528.72	58812.98
528.89	58539.14
529.07	58192.74
529.24	56959.28
529.41	56912.47
529.58	57127.80
529.75	57911.88
529.92	57946.98
530.09	58021.88
530.26	58295.72
530.43	59557.27
530.60	58384.66
530.77	58773.19
530.94	58901.92
531.11	58277.00
531.28	58536.80
531.46	58560.20
531.63	58417.43
531.80	57343.12
531.97	56921.83
532.14	57205.03
532.31	55896.67
532.48	55082.17
532.65	55447.29
532.82	56058.17
532.99	57708.25
533.16	58026.56
533.33	57829.96
533.50	58213.80
533.67	58162.31
533.84	57155.88
534.01	57586.54
534.18	58003.16
534.35	57570.16
534.52	57024.81
534.69	57593.56
534.86	58129.54
535.03	58244.23
535.20	58085.07
535.37	58997.88
535.54	59253.00
535.71	58827.02
535.88	59016.61
536.05	57794.85
536.22	57212.06
536.38	56877.36
536.55	55915.40
536.72	55765.60
536.89	56505.21
537.06	56715.86
537.23	57408.66
537.40	57930.60
537.57	57387.60
537.74	57914.22
537.91	57446.11
538.08	57270.57
538.25	57291.63
538.42	57911.88
538.59	57216.74
538.75	56390.53
538.92	56025.40
539.09	56406.91
539.26	56458.40
539.43	56367.12
539.60	56615.22
539.77	57113.75
539.94	56383.51
540.11	55955.19
540.28	55664.96
540.44	54976.84
540.61	55346.65
540.78	55650.92
540.95	56790.76
541.12	56676.07
541.29	57207.37
541.46	57396.96
541.62	57368.87
541.79	56528.62
541.96	55774.97
542.13	55854.54
542.30	56088.60
542.47	56842.25
542.63	56519.26
542.80	56074.55
542.97	55873.27
543.14	55751.56
543.31	55601.77
543.48	57162.90
543.64	57392.28
543.81	58560.20
543.98	57832.30
544.15	56425.64
544.32	57109.07
544.48	56811.82
544.65	56601.18
544.82	57230.78
544.99	55627.51
545.16	55157.06
545.32	55662.62
545.49	56500.53
545.66	56594.15
545.83	56486.49
546.00	57003.75
546.16	56919.49
546.33	56537.98
546.50	56676.07
546.67	57265.89
546.83	56074.55
547.00	56963.96
547.17	55625.17
547.34	54600.02
547.50	54951.10
547.67	56243.07
547.84	56757.99
548.00	56535.64
548.17	56470.11
548.34	56753.31
548.51	57066.94
548.67	57432.07
548.84	57219.08
549.01	57195.67
549.18	56357.76
549.34	56437.34
549.51	56746.29
549.68	56346.06
549.84	56032.42
550.01	55945.83
550.18	55320.90
550.34	55594.74
550.51	56212.65
550.68	56444.36
550.84	56346.06
551.01	55606.45
551.18	55241.32
551.34	54911.31
551.51	56385.85
551.68	55777.31
551.84	55903.70
552.01	56027.74
552.18	55576.02
552.34	54857.48
552.51	55047.06
552.68	54738.11
552.84	54930.03
553.01	54937.05
553.18	56285.20
553.34	56353.08
553.51	56168.18
553.67	55931.78
553.84	55295.16
554.01	56079.24
554.17	55580.70
554.34	55945.83
554.51	55852.20
554.67	55201.53
554.84	55196.85
555.00	55051.74
555.17	55302.18
555.33	55021.31
555.50	54312.13
555.67	55126.64
555.83	55161.75
556.00	55098.55
556.16	54429.16
556.33	54202.13
556.50	54738.11
556.66	54681.94
556.83	54653.85
556.99	53951.69
557.16	54380.01
557.32	54508.74
557.49	54710.02
557.65	53970.41
557.82	55121.96
557.98	55206.22
558.15	54021.90
558.32	52879.72
558.48	52191.61
558.65	52514.60
558.81	53303.36
558.98	53965.73
559.14	54307.45
559.31	53846.36
559.47	53326.77
559.64	52830.57
559.80	52596.52
559.97	53530.39
560.13	54724.07
560.30	55269.41
560.46	55856.88
560.63	56350.74
560.79	56130.73
560.96	54824.71
561.12	53769.13
561.29	52846.96
561.45	53244.85
561.61	54983.86
561.78	53972.75
561.94	54843.43
562.11	54543.84
562.27	53588.91
562.44	54192.76
562.60	54595.34
562.77	54693.64
562.93	53544.44
563.10	54068.72
563.26	53396.98
563.42	54660.87
563.59	53483.58
563.75	53546.78
563.92	53551.46
564.08	52905.47
564.24	53675.51
564.41	53509.33
564.57	54124.89
564.74	53586.57
564.90	52783.76
565.07	53045.90
565.23	52009.04
565.39	51522.21
565.56	51742.22
565.72	52437.36
565.88	50660.90
566.05	53240.17
566.21	54087.44
566.38	52903.13
566.54	53020.16
566.70	53621.67
566.87	53429.75
567.03	52720.57
567.19	53975.09
567.36	54576.61
567.52	53333.79
567.68	52694.82
567.85	51674.35
568.01	51187.52
568.17	52215.01
568.34	52706.52
568.50	52516.94
568.66	52884.40
568.83	51866.27
568.99	51398.16
569.15	51737.54
569.32	52046.49
569.48	51807.76
569.64	50843.46
569.81	51564.34
569.97	50934.74
570.13	50145.98
570.30	50103.85
570.46	49368.92
570.62	48678.46
570.78	48947.62
570.95	50117.89
571.11	49830.01
571.27	49584.25
571.43	49881.50
571.60	49270.62
571.76	51241.35
571.92	51372.42
572.09	51931.81
572.25	51957.55
572.41	52748.65
572.57	52549.71
572.74	52296.93
572.90	53162.93
573.06	52086.28
573.22	52303.95
573.38	52090.96
573.55	53525.71
573.71	52034.79
573.87	52313.31
574.03	51952.87
574.20	51611.15
574.36	51484.76
574.52	50358.97
574.68	50263.00
574.84	49818.30
575.01	49979.80
575.17	50508.76
575.33	50691.32
575.49	50803.67
575.65	49989.16
575.82	50361.31
575.98	49619.36
576.14	50506.42
576.30	51367.74
576.46	49640.42
576.62	50213.85
576.79	50232.58
576.95	49766.81
577.11	50550.89
577.27	50595.36
577.43	50445.57
577.59	49638.08
577.75	48205.67
577.92	48245.46
578.08	49034.22
578.24	49455.52
578.40	49600.63
578.56	49081.03
578.72	49317.43
578.88	48952.30
579.04	49165.29
579.21	48252.48
579.37	49265.94
579.53	49757.45
579.69	49125.50
579.85	48947.62
580.01	49453.18
580.17	48554.41
580.33	49682.55
580.49	49968.10
580.65	47882.68
580.82	48875.07
580.98	49687.23
581.14	49982.14
581.30	49818.30
581.46	48942.94
581.62	49282.32
581.78	50071.08
581.94	50178.75
582.10	50253.64
582.26	50536.85
582.42	50230.24
582.58	48215.04
582.74	48390.58
582.90	48971.03
583.06	48954.64
583.22	49521.05
583.38	49368.92
583.54	49598.29
583.70	50167.04
583.86	49184.02
584.02	49338.49
584.18	48793.15
584.34	48371.85
584.50	47782.04
584.66	47983.32
584.82	48275.89
584.98	48547.39
585.14	47971.62
585.30	47943.53
585.46	47281.16
585.62	48479.52
585.78	49017.84
585.94	47622.88
586.10	47393.51
586.26	46941.78
586.42	47615.86
586.58	46920.72
586.74	48725.27
586.90	49125.50
587.06	48413.98
587.22	48863.36
587.38	48591.86
587.54	47889.70
587.70	48062.90
587.86	47695.44
588.02	48182.27
588.18	47250.74
588.34	44233.78
588.49	41720.05
588.65	40823.62
588.81	40011.46
588.97	39070.56
589.13	39161.84
589.29	41235.56
589.45	41663.88
589.61	42483.06
589.77	45188.72
589.93	46965.19
590.08	46169.41
590.24	46438.57
590.40	46267.71
590.56	45893.22
590.72	45373.63
590.88	44233.78
591.04	45474.27
591.20	44582.52
591.35	44800.19
591.51	43896.75
591.67	44027.82
591.83	44151.87
591.99	45013.18
592.15	45104.46
592.31	45703.64
592.46	45776.20
592.62	46270.05
592.78	46784.97
592.94	44240.81
593.10	44650.40
593.26	46827.10
593.41	45387.67
593.57	44729.98
593.73	44140.16
593.89	44715.93
594.05	44863.39
594.20	43676.74
594.36	42066.45
594.52	42541.58
594.68	42796.70
594.84	43723.55
594.99	45607.68
595.15	44065.27
595.31	43690.78
595.47	44535.71
595.62	46057.06
595.78	44715.93
595.94	45020.20
596.10	45088.08
596.25	44704.23
596.41	44079.31
596.57	45106.80
596.73	44453.79
596.88	43784.40
597.04	44957.01
597.20	44554.44
597.36	43826.53
597.51	44687.85
597.67	42827.12
597.83	42958.19
597.99	42885.64
598.14	41942.40
598.30	42756.91
598.46	42824.78
598.61	44044.20
598.77	42866.91
598.93	43255.44
599.09	42543.92
599.24	43606.52
599.40	42501.79
599.56	42614.13
599.71	43763.34
599.87	43966.96
600.03	43255.44
600.18	42373.06
600.34	41872.18
600.50	43309.27
600.65	42415.19
600.81	43606.52
600.97	42000.91
601.12	42415.19
601.28	43173.52
601.44	40940.65
601.59	42679.67
601.75	42136.66
601.91	41745.80
602.06	41846.44
602.22	42073.47
602.37	42370.72
602.53	42829.46
602.69	43756.32
602.84	42478.38
603.00	42359.02
603.16	43199.27
603.31	42904.36
603.47	42401.14
603.62	44992.12
603.78	43784.40
603.94	42541.58
604.09	44076.97
604.25	42848.19
604.40	42457.32
604.56	41605.36
604.71	41677.92
604.87	41017.89
605.03	41228.54
605.18	41565.57
605.34	40692.55
605.49	40442.12
605.65	41120.87
605.80	40858.73
605.96	41668.56
606.12	41399.40
606.27	41483.66
606.43	38572.03
606.58	39739.96
606.74	39955.29
606.89	40783.83
607.05	40825.96
607.20	41006.19
607.36	40238.49
607.51	40397.65
607.67	40238.49
607.82	39587.82
607.98	40371.90
608.13	39161.84
608.29	39807.83
608.44	40329.77
608.60	40292.32
608.75	40732.34
608.91	41301.09
609.06	38667.99
609.22	38160.09
609.37	38672.67
609.53	40011.46
609.68	38644.59
609.84	38277.12
609.99	38059.45
610.15	38749.91
610.30	39908.47
610.46	40301.68
610.61	39438.03
610.76	38789.70
610.92	37722.41
611.07	38298.19
611.23	40509.99
611.38	41336.20
611.54	41233.22
611.69	39658.04
611.84	37603.05
612.00	37027.28
612.15	37729.44
612.31	37085.79
612.46	38703.10
612.62	38410.53
612.77	37710.71
612.92	38836.51
613.08	37876.89
613.23	38916.09
613.39	38064.13
613.54	37544.53
613.69	36620.02
613.85	38096.90
614.00	38047.75
614.15	37085.79
614.31	37542.19
614.46	37471.98
614.62	37902.64
614.77	37055.36
614.92	37097.49
615.08	37902.64
615.23	36259.58
615.38	36816.63
615.54	37553.90
615.69	36505.34
615.84	35452.09
616.00	36886.84
616.15	36678.54
616.30	36378.95
616.46	35922.54
616.61	36430.44
616.76	37296.44
616.92	37111.53
617.07	37483.68
617.22	37146.64
617.37	37572.62
617.53	36854.08
617.68	36577.89
617.83	36470.23
617.99	37565.60
618.14	37266.01
618.29	36343.84
618.45	36694.92
618.60	37015.57
618.75	37165.37
618.90	36254.90
619.06	37090.47
619.21	38153.07
619.36	37172.39
619.51	37237.92
619.67	38443.30
619.82	38312.23
619.97	38066.47
620.12	37310.48
620.28	36481.93
620.43	36598.96
620.58	36833.01
620.73	37434.53
620.89	36081.70
621.04	34520.56
621.19	34359.06
621.34	34705.46
621.49	34352.04
621.65	35335.07
621.80	35435.71
621.95	35576.14
622.10	35400.60
622.25	35470.82
622.41	33493.07
622.56	34342.68
622.71	33727.12
622.86	34106.29
623.01	32975.81
623.16	33141.99
623.32	33275.40
623.47	32776.86
623.62	33237.95
623.77	33631.16
623.92	33013.26
624.07	33329.23
624.23	32980.49
624.38	33322.21
624.53	33369.02
624.68	33633.50
624.83	32762.82
624.98	33296.46
625.13	32676.22
625.29	32732.39
625.44	32943.04
625.59	32987.51
625.74	33560.94
625.89	32917.29
626.04	33158.37
626.19	33780.95
626.34	33425.19
626.49	32575.58
626.65	32788.56
626.80	32676.22
626.95	32945.38
627.10	31534.04
627.25	31449.78
627.40	31133.81
627.55	29778.64
627.70	30277.17
627.85	30565.06
628.00	30852.94
628.15	31026.14
628.30	31590.21
628.45	31608.93
628.60	31175.94
628.76	30398.88
628.91	29736.51
629.06	29780.98
629.21	32449.19
629.36	32034.91
629.51	30698.47
629.66	28285.37
629.81	29305.85
629.96	29989.28
630.11	30761.66
630.26	30731.23
630.41	31964.70
630.56	32507.70
630.71	31878.10
630.86	30745.28
631.01	29703.74
631.16	29741.19
631.31	29390.11
631.46	29844.17
631.61	28613.05
631.76	29106.90
631.91	30562.72
632.06	29830.13
632.21	30759.32
632.36	31819.58
632.51	31714.26
632.66	30644.63
632.81	30754.64
632.96	30946.56
633.10	31346.79
633.25	30338.02
633.40	28631.77
633.55	28636.45
633.70	28891.57
633.85	29041.37
634.00	29003.92
634.15	29429.90
634.30	29266.06
634.45	29598.41
634.60	29219.25
634.75	28580.28
634.90	29184.14
635.05	29439.26
635.19	29158.39
635.34	29600.76
635.49	28795.61
635.64	28910.30
635.79	30281.85
635.94	30253.76
636.09	31049.55
636.24	29408.83
636.39	28524.11
636.53	29209.89
636.68	28739.44
636.83	28144.94
636.98	28500.70
637.13	28519.43
637.28	28964.13
637.43	30157.80
637.57	30773.36
637.72	29181.80
637.87	29532.88
638.02	29469.69
638.17	30359.09
638.32	30082.91
638.46	30593.14
638.61	28325.16
638.76	28898.59
638.91	28978.17
639.06	29366.70
639.20	28332.18
639.35	27159.58
639.50	27325.75
639.65	28449.21
639.80	27957.70
639.94	28243.24
640.09	29092.86
640.24	28126.22
640.39	27791.52
640.54	26934.88
640.68	27611.30
640.83	27180.64
640.98	27618.32
641.13	27260.22
641.27	27192.34
641.42	26654.02
641.57	27377.25
641.72	28158.99
641.86	28060.68
642.01	27868.76
642.16	27140.85
642.31	27384.27
642.45	27910.89
642.60	28011.53
642.75	27351.50
642.90	27824.29
643.04	28201.11
643.19	26817.86
643.34	27285.97
643.48	26829.56
643.63	27000.42
643.78	25869.94
643.93	26703.17
644.07	26171.87
644.22	26881.05
644.37	26796.79
644.51	26298.26
644.66	26682.11
644.81	26532.31
644.95	27000.42
645.10	27428.74
645.25	26438.69
645.39	26834.24
645.54	26679.77
645.69	25837.17
645.83	25474.39
645.98	24915.00
646.13	24006.87
646.27	23772.82
646.42	23929.64
646.57	23707.29
646.71	24453.92
646.86	24608.39
647.00	24140.29
647.15	24119.22
647.30	24657.54
647.44	24877.55
647.59	24451.58
647.74	23821.97
647.88	24484.34
648.03	23913.25
648.17	24849.47
648.32	25315.23
648.47	26228.04
648.61	26033.78
648.76	26148.46
648.90	25195.87
649.05	24402.43
649.20	22829.59
649.34	23054.28
649.49	22991.08
649.63	23393.65
649.78	24114.54
649.92	24652.86
650.07	24133.26
650.21	23852.40
650.36	24711.38
650.51	24732.44
650.65	24074.75
650.80	23702.61
650.94	24016.24
651.09	23601.96
651.23	22478.50
651.38	22775.75
651.52	23283.65
651.67	23498.98
651.81	23728.35
651.96	23742.39
652.10	25656.95
652.25	25207.57
652.39	24814.36
652.54	24435.19
652.68	23969.43
652.83	23962.40
652.97	23498.98
653.12	23005.13
653.26	23630.05
653.41	23140.88
653.55	23590.26
653.70	22951.29
653.84	23246.20
653.99	23646.43
654.13	22993.42
654.27	23461.53
654.42	22932.57
654.56	22319.35
654.71	22490.21
654.85	22691.49
655.00	23431.10
655.14	22635.32
655.29	22171.89
655.43	20938.43
655.57	19623.05
655.72	18087.66
655.86	17451.03
656.01	16898.67
656.15	17701.47
656.30	18703.22
656.44	19466.24
656.58	19866.47
656.73	21095.25
656.87	21179.51
657.01	21446.33
657.16	21156.10
657.30	21385.47
657.45	21891.03
657.59	21006.31
657.73	21420.58
657.88	21245.04
658.02	21673.36
658.16	22164.87
658.31	21778.68
658.45	21647.61
658.60	21633.57
658.74	21907.41
658.88	22192.96
659.03	21486.12
659.17	21064.82
659.31	20622.46
659.46	21167.80
659.60	22087.64
659.74	22122.74
659.89	22054.87
660.03	22239.77
660.17	21525.91
660.32	21937.84
660.46	20919.71
660.60	22059.55
660.74	22242.11
660.89	21664.00
661.03	20758.21
661.17	21392.50
661.32	22277.22
661.46	22441.06
661.60	21921.46
661.74	21687.40
661.89	22260.84
662.03	21671.02
662.17	21191.21
662.31	22384.88
662.46	22373.18
662.60	21579.74
662.74	20489.05
662.88	20311.17
663.03	21621.87
663.17	21418.24
663.31	19983.49
663.45	20973.54
663.60	20549.90
663.74	19653.48
663.88	20339.26
664.02	20121.59
664.17	19166.65
664.31	18366.18
664.45	19033.24
664.59	19662.84
664.73	20608.42
664.88	19939.02
665.02	19321.12
665.16	19417.08
665.30	20266.70
665.44	20947.79
665.59	21715.49
665.73	21326.96
665.87	20329.89
666.01	20173.08
666.15	19208.78
666.29	18888.12
666.44	19185.37
666.58	18939.62
666.72	19969.45
666.86	20800.34
667.00	21170.15
667.14	20910.35
667.28	20545.22
667.43	20231.59
667.57	19096.43
667.71	19176.01
667.85	18892.80
667.99	18321.71
668.13	18120.43
668.27	18082.98
668.41	18153.20
668.56	19318.78
668.70	19440.49
668.84	20776.94
668.98	21006.31
669.12	19852.42
669.26	19782.21
669.40	19768.16
669.54	19206.44
669.68	19044.94
669.82	18104.04
669.96	18567.47
670.10	19506.02
670.25	19847.74
670.39	19538.79
670.53	18965.36
670.67	18183.62
670.81	18228.09
670.95	17865.31
671.09	18171.92
671.23	18169.58
671.37	18338.10
671.51	18150.85
671.65	18328.74
671.79	18466.83
671.93	19016.85
672.07	18466.83
672.21	17434.65
672.35	17603.17
672.49	17944.89
672.63	18052.55
672.77	17270.81
672.91	17114.00
673.05	17158.47
673.19	16578.01
673.33	17465.08
673.47	19133.88
673.61	18824.93
673.75	17668.70
673.89	17034.42
674.03	16500.78
674.17	16652.91
674.31	16861.22
674.45	16992.29
674.59	17411.25
674.73	17350.39
674.87	16922.07
675.01	16376.73
675.15	16463.33
675.29	16917.39
675.43	16308.85
675.56	15992.88
675.70	15850.11
675.84	16088.84
675.98	16147.36
676.12	15857.13
676.26	15887.56
676.40	15517.75
676.54	15316.47
676.68	15697.97
676.82	15587.97
676.96	16109.91
677.10	15936.71
677.23	16538.23
677.37	16437.58
677.51	15990.54
677.65	15508.39
677.79	14398.98
677.93	14508.98
678.07	14796.87
678.21	15255.61
678.34	15857.13
678.48	15363.28
678.62	14839.00
678.76	14934.96
678.90	14949.00
679.04	14565.15
679.18	14595.58
679.31	14300.67
679.45	14532.39
679.59	14710.27
679.73	14932.62
679.87	15590.31
680.00	15861.81
680.14	15110.50
680.28	15122.20
680.42	14396.64
680.56	14242.16
680.70	14485.58
680.83	15005.17
680.97	14214.07
681.11	14487.92
681.25	14237.48
681.39	14803.89
681.52	14230.46
681.66	14038.53
681.80	13886.40
681.94	13713.20
682.07	13956.61
682.21	13729.58
682.35	14230.46
682.49	13788.10
682.62	13858.31
682.76	14008.11
682.90	13125.72
683.04	12929.12
683.17	12475.06
683.31	12535.91
683.45	13142.11
683.59	13591.49
683.72	12875.29
683.86	12549.95
684.00	12135.68
684.13	12191.85
684.27	12107.59
684.41	12755.92
684.55	12975.93
684.68	13327.01
684.82	12641.23
684.96	12348.67
685.09	12255.04
685.23	12123.98
685.37	12156.74
685.50	11939.07
685.64	11901.62
685.78	11375.00
685.91	11225.21
686.05	11531.82
686.19	11833.75
686.32	10916.26
686.46	9750.67
686.60	8545.30
686.73	7929.74
686.87	7246.30
687.01	7119.91
687.14	7651.21
687.28	7857.18
687.42	8418.91
687.55	9027.45
687.69	9193.62
687.82	9781.10
687.96	9919.19
688.10	9991.75
688.23	10289.00
688.37	9750.67
688.50	9423.00
688.64	9371.50
688.78	9128.09
688.91	9048.51
689.05	9226.39
689.18	9238.09
689.32	9291.93
689.46	9153.84
689.59	8968.93
689.73	9385.55
689.86	9034.47
690.00	9317.67
690.13	9277.88
690.27	9078.94
690.41	9621.94
690.54	9554.07
690.68	9568.11
690.81	9823.23
690.95	9479.17
691.08	9572.79
691.22	9619.60
691.35	9493.21
691.49	9879.40
691.62	9774.08
691.76	10246.87
691.89	9411.29
692.03	8865.95
692.16	8552.32
692.30	8959.57
692.43	9027.45
692.57	9263.84
692.70	9121.07
692.84	9092.98
692.97	9057.87
693.11	9270.86
693.24	9235.75
693.38	8493.80
693.51	9167.88
693.65	9427.68
693.78	8917.44
693.92	8655.30
694.05	8814.46
694.19	8690.41
694.32	8156.77
694.45	8421.25
694.59	8638.92
694.72	8329.97
694.86	8362.73
694.99	8428.27
695.13	8283.16
695.26	8084.21
695.39	8407.20
695.53	7833.77
695.66	7627.81
695.80	7789.30
695.93	8009.31
696.07	8222.30
696.20	8423.59
696.33	8175.49
696.47	8830.84
696.60	8264.43
696.73	8383.80
696.87	8301.88
697.00	8475.08
697.14	8564.02
697.27	8266.77
697.40	7995.27
697.54	7634.83
697.67	7625.47
697.80	7602.06
697.94	7901.65
698.07	7499.08
698.21	7204.17
698.34	7136.29
698.47	7485.03
698.61	7192.47
698.74	7459.29
698.87	7112.89
699.01	7166.72
699.14	7342.26
699.27	7080.12
699.40	7632.49
699.54	7674.62
699.67	7648.87
699.80	7405.46
699.94	7529.50
700.07	7171.40
700.20	6651.80
700.34	6705.63
700.47	6752.45
700.60	6869.47
700.73	7054.37
700.87	6803.94
701.00	6237.53
701.13	6487.96
701.26	6661.16
701.40	6494.99
701.53	6572.22
701.66	6965.43
701.79	6729.04
701.93	6731.38
702.06	6600.31
702.19	6473.92
702.32	6209.44
702.46	6200.08
702.59	6359.24
702.72	6347.53
702.85	6338.17
702.99	6427.11
703.12	6455.20
703.25	6703.29
703.38	6246.89
703.51	6169.65
703.65	6003.47
703.78	6183.70
703.91	6101.78
704.04	6242.21
704.17	6228.17
704.31	6204.76
704.44	6104.12
704.57	6513.71
704.70	6675.21
704.83	6534.78
704.96	6647.12
705.10	6265.61
705.23	6422.43
>>>>>End Processed Spectral Data<<<<<
