SpectraSuite Data File
++++++++++++++++++++++++++++++++++++
Date: Mon Oct 07 14:53:19 GMT-05:00 2013
User: price-jones
Dark Spectrum Present: No
Reference Spectrum Present: No
Number of Sampled Component Spectra: 1
Spectrometers: USB2+H05261
Integration Time (usec): 100000 (USB2+H05261)
Spectra Averaged: 1 (USB2+H05261)
Boxcar Smoothing: 0 (USB2+H05261)
Correct for Electrical Dark: No (USB2+H05261)
Strobe/Lamp Enabled: No (USB2+H05261)
Correct for Detector Non-linearity: No (USB2+H05261)
Correct for Stray Light: No (USB2+H05261)
Number of Pixels in Processed Spectrum: 2048
>>>>>Begin Processed Spectral Data<<<<<
365.73	0.00
365.92	0.00
366.12	0.00
366.32	0.00
366.52	0.00
366.72	0.00
366.91	0.00
367.11	0.00
367.31	0.00
367.51	0.00
367.70	0.00
367.90	0.00
368.10	0.00
368.30	0.00
368.49	0.00
368.69	0.00
368.89	0.00
369.09	0.00
369.28	0.00
369.48	0.00
369.68	0.00
369.87	0.00
370.07	0.00
370.27	0.00
370.47	915.15
370.66	4182.54
370.86	5165.56
371.06	5551.75
371.25	5359.83
371.45	5036.83
371.65	4449.36
371.84	4208.28
372.04	4325.31
372.24	4781.71
372.44	5114.07
372.63	4861.29
372.83	4475.10
373.03	4182.54
373.22	3772.94
373.42	4154.45
373.62	4641.28
373.81	5048.54
374.01	4704.48
374.21	4496.17
374.40	4140.41
374.60	4259.78
374.79	4875.34
374.99	5736.65
375.19	6019.86
375.38	5937.94
375.58	5617.29
375.78	5523.66
375.97	5706.23
376.17	5832.62
376.37	5888.79
376.56	5865.38
376.76	6310.08
376.95	6700.95
377.15	7513.12
377.35	7569.29
377.54	7676.96
377.74	8156.77
377.93	7836.11
378.13	7852.50
378.33	7190.13
378.52	6733.72
378.72	6469.24
378.91	6548.82
379.11	6370.94
379.31	6150.93
379.50	6078.37
379.70	6668.19
379.89	7243.96
380.09	7454.61
380.28	8030.38
380.48	7772.92
380.68	7597.38
380.87	7548.23
381.07	7026.29
381.26	6366.26
381.46	6115.82
381.65	5696.86
381.85	5837.30
382.04	5427.70
382.24	5022.79
382.43	4819.16
382.63	4704.48
382.83	4650.64
383.02	4777.03
383.22	4585.11
383.41	4589.79
383.61	5132.79
383.80	5781.12
384.00	6462.22
384.19	7403.11
384.39	7838.45
384.58	7660.57
384.78	7522.48
384.97	7396.09
385.17	7096.50
385.36	6689.25
385.56	6452.86
385.75	6642.44
385.95	7279.07
386.14	7742.49
386.34	7913.35
386.53	7424.18
386.72	7089.48
386.92	7129.27
387.11	7555.25
387.31	7899.31
387.50	7597.38
387.70	7480.35
387.89	7391.41
388.09	7382.05
388.28	7541.21
388.48	7784.62
388.67	8182.51
388.86	9102.34
389.06	9579.81
389.25	10108.77
389.45	10274.95
389.64	10169.63
389.84	9982.38
390.03	9926.21
390.22	9804.50
390.42	10520.71
390.61	11035.63
390.81	11562.25
391.00	11786.94
391.19	11758.85
391.39	11110.52
391.58	10537.09
391.78	10153.24
391.97	9867.70
392.16	8917.44
392.36	8184.85
392.55	6572.22
392.75	5432.38
392.94	4189.56
393.13	4379.14
393.33	5142.16
393.52	6621.38
393.71	7974.21
393.91	9095.32
394.10	9820.89
394.29	10441.13
394.49	11473.31
394.68	12329.94
394.88	12304.20
395.07	12746.56
395.26	12727.83
395.46	12060.78
395.65	11431.18
395.84	9989.41
396.04	8538.27
396.23	6930.33
396.42	5753.04
396.62	5551.75
396.81	6619.04
397.00	8580.40
397.19	10600.29
397.39	12571.02
397.58	13991.72
397.77	14555.79
397.97	15349.23
398.16	15754.15
398.35	16130.97
398.55	16751.21
398.74	17462.74
398.93	17593.81
399.12	17165.49
399.32	16425.88
399.51	17160.81
399.70	18434.06
399.90	17809.14
400.09	18221.07
400.28	17654.66
400.47	17811.48
400.67	19042.60
400.86	19339.85
401.05	19073.03
401.24	19426.45
401.44	19740.08
401.63	19637.09
401.82	19936.68
402.01	20098.18
402.21	19782.21
402.40	20306.49
402.59	19173.67
402.78	18766.42
402.97	18078.30
403.17	18984.09
403.36	20098.18
403.55	20760.55
403.74	21146.74
403.93	20114.56
404.13	18525.34
404.32	18031.49
404.51	19007.49
404.70	20510.11
404.89	20706.72
405.09	19922.64
405.28	19578.58
405.47	19623.05
405.66	19779.87
405.85	19229.84
406.05	18553.43
406.24	19241.54
406.43	19737.74
406.62	20453.94
406.81	20517.14
407.00	19566.88
407.20	19442.83
407.39	19356.23
407.58	20463.30
407.77	21109.29
407.96	21731.87
408.15	21961.25
408.34	22129.77
408.54	23180.67
408.73	23215.77
408.92	22775.75
409.11	22408.29
409.30	21095.25
409.49	19894.55
409.68	18429.38
409.87	18080.64
410.07	19349.21
410.26	20697.36
410.45	21937.84
410.64	22267.86
410.83	23108.11
411.02	23491.96
411.21	24730.10
411.40	24203.48
411.59	24283.06
411.78	24056.03
411.98	24219.86
412.17	24407.11
412.36	23756.44
412.55	24376.68
412.74	23498.98
412.93	22934.91
413.12	23248.54
413.31	25495.46
413.50	25530.56
413.69	25954.20
413.88	24973.52
414.07	24280.72
414.26	24959.47
414.45	25392.47
414.64	25888.67
414.83	25759.94
415.02	25156.08
415.22	24865.85
415.41	25982.29
415.60	26455.08
415.79	27410.01
415.98	28088.77
416.17	28224.52
416.36	27445.12
416.55	27154.90
416.74	26022.08
416.93	25102.25
417.12	25708.44
417.31	25876.96
417.50	26239.75
417.69	26871.69
417.88	26855.31
418.07	26768.71
418.26	26375.50
418.45	26686.79
418.64	27676.83
418.83	28240.90
419.02	27950.68
419.21	27688.54
419.39	26464.44
419.58	25539.93
419.77	25706.10
419.96	26492.52
420.15	28500.70
420.34	28854.12
420.53	29848.85
420.72	30586.12
420.91	30092.27
421.10	29766.93
421.29	29895.66
421.48	28318.14
421.67	29752.89
421.86	29249.67
422.05	27117.45
422.24	23927.30
422.43	24219.86
422.61	26644.66
422.80	28582.62
422.99	28563.90
423.18	27735.35
423.37	27328.10
423.56	27000.42
423.75	28217.50
423.94	28573.26
424.13	26696.15
424.32	27351.50
424.50	27323.41
424.69	26735.94
424.88	26906.80
425.07	26871.69
425.26	26897.44
425.45	26499.55
425.64	25914.41
425.83	26335.71
426.01	27520.02
426.20	28226.86
426.39	28542.83
426.58	25965.90
426.77	23953.04
426.96	23049.60
427.15	24166.03
427.33	26164.85
427.52	27145.53
427.71	27414.69
427.90	27140.85
428.09	26572.10
428.28	26309.96
428.46	25401.83
428.65	25130.33
428.84	25633.55
429.03	25919.09
429.22	24194.12
429.40	23075.34
429.59	21207.59
429.78	18658.75
429.97	18871.74
430.16	19002.81
430.34	19171.33
430.53	19145.58
430.72	19646.46
430.91	21619.53
431.10	25612.48
431.28	30263.13
431.47	32130.87
431.66	32769.84
431.85	29439.26
432.03	27311.71
432.22	25907.39
432.41	27328.10
432.60	29919.07
432.79	31353.82
432.97	32156.62
433.16	31138.49
433.35	28631.77
433.54	25703.76
433.72	24336.89
433.91	25008.62
434.10	28329.84
434.28	30134.40
434.47	31356.16
434.66	31131.47
434.85	29771.61
435.03	29811.40
435.22	30396.54
435.41	32598.98
435.59	32435.14
435.78	32882.19
435.97	33780.95
436.16	34071.18
436.34	33567.96
436.53	32854.10
436.72	32903.25
436.90	31274.24
437.09	31058.91
437.28	30785.07
437.46	31882.78
437.65	31791.50
437.84	29378.40
438.02	26962.97
438.21	27047.23
438.40	28645.82
438.58	30682.08
438.77	31274.24
438.96	31725.96
439.14	33324.55
439.33	33977.56
439.52	34375.45
439.70	33844.15
439.89	32985.17
440.08	31997.46
440.26	31810.22
440.45	32844.74
440.63	35325.71
440.82	37303.46
441.01	36751.09
441.19	36292.35
441.38	36793.22
441.57	37855.82
441.75	38588.41
441.94	39056.52
442.12	38284.14
442.31	39365.47
442.50	39264.83
442.68	38806.08
442.87	38113.28
443.05	37191.11
443.24	38242.01
443.43	38934.81
443.61	39742.30
443.80	39899.11
443.98	37729.44
444.17	38094.56
444.35	40238.49
444.54	40751.07
444.73	40425.73
444.91	38988.64
445.10	37258.99
445.28	35814.88
445.47	35409.96
445.65	35770.41
445.84	36327.45
446.02	37453.25
446.21	38174.14
446.39	38167.12
446.58	38766.29
446.77	39297.59
446.95	39845.28
447.14	40648.08
447.32	41518.76
447.51	40725.32
447.69	39086.95
447.88	38127.33
448.06	38899.70
448.25	40320.41
448.43	40369.56
448.62	39552.71
448.80	39084.61
448.99	39739.96
449.17	40226.79
449.36	40002.10
449.54	41263.64
449.73	42043.04
449.91	42532.22
450.10	43861.64
450.28	44332.09
450.46	43786.74
450.65	43721.21
450.83	43480.13
451.02	42059.43
451.20	42555.62
451.39	42092.19
451.57	42031.34
451.76	42000.91
451.94	42054.75
452.13	41581.96
452.31	39086.95
452.49	37214.52
452.68	38129.67
452.86	38326.27
453.05	38895.02
453.23	39681.44
453.42	40968.74
453.60	41776.22
453.78	42272.42
453.97	41619.41
454.15	41645.15
454.34	40807.24
454.52	41008.53
454.70	40219.77
454.89	40786.18
455.07	40825.96
455.26	41581.96
455.44	42777.97
455.62	43716.53
455.81	43880.36
455.99	43318.64
456.17	42787.33
456.36	43154.80
456.54	44240.81
456.73	43913.13
456.91	44793.17
457.09	44886.79
457.28	45839.39
457.46	44252.51
457.64	43470.77
457.83	42932.45
458.01	41455.57
458.19	42880.95
458.38	43276.51
458.56	44493.58
458.74	43995.05
458.93	43405.23
459.11	43449.70
459.29	43124.37
459.48	43276.51
459.66	43143.09
459.84	43496.52
460.03	44423.37
460.21	44275.91
460.39	44856.37
460.57	44882.11
460.76	45895.56
460.94	45663.85
461.12	44821.26
461.31	45387.67
461.49	44935.95
461.67	44856.37
461.85	46136.64
462.04	45986.85
462.22	46398.78
462.40	46028.98
462.59	46141.32
462.77	45769.18
462.95	46314.52
463.13	45413.41
463.32	45315.11
463.50	44945.31
463.68	45230.85
463.86	45031.91
464.05	44456.14
464.23	43920.15
464.41	44065.27
464.59	42518.17
464.78	45146.59
464.96	44622.31
465.14	44062.93
465.32	45240.21
465.50	46155.36
465.69	46983.91
465.87	45214.47
466.05	44390.60
466.23	42967.55
466.41	41553.87
466.60	43145.44
466.78	43487.15
466.96	43931.86
467.14	44877.43
467.32	45113.83
467.51	45202.77
467.69	43201.61
467.87	43889.73
468.05	44938.29
468.23	44837.64
468.41	44858.71
468.60	45055.31
468.78	45153.62
468.96	44460.82
469.14	45556.19
469.32	45694.28
469.50	43758.66
469.69	44191.65
469.87	43929.51
470.05	43571.41
470.23	43536.30
470.41	43402.89
470.59	44308.68
470.77	44325.07
470.95	45109.14
471.14	46005.57
471.32	45586.61
471.50	48179.93
471.68	47959.92
471.86	48294.61
472.04	48540.37
472.22	48582.50
472.40	46579.00
472.58	46534.53
472.77	45570.23
472.95	46511.13
473.13	47833.53
473.31	46642.20
473.49	47012.00
473.67	47550.32
473.85	47969.28
474.03	48800.17
474.21	48956.99
474.39	49081.03
474.57	49446.16
474.75	49584.25
474.93	49343.17
475.12	48278.23
475.30	48341.42
475.48	48292.27
475.66	48694.85
475.84	48402.28
476.02	48430.36
476.20	47381.80
476.38	48772.08
476.56	49338.49
476.74	50227.90
476.92	50468.97
477.10	50953.46
477.28	51611.15
477.46	51632.22
477.64	52041.81
477.82	52296.93
478.00	52348.42
478.18	51798.40
478.36	51545.62
478.54	51931.81
478.72	52109.69
478.90	52732.27
479.08	53439.11
479.26	53806.58
479.44	53813.60
479.62	53787.85
479.80	53588.91
479.98	53626.35
480.16	53862.75
480.34	53485.92
480.52	53939.99
480.70	54368.30
480.88	54356.60
481.06	54904.29
481.24	54948.76
481.41	55529.21
481.59	56095.62
481.77	55611.13
481.95	55257.71
482.13	55309.20
482.31	55332.60
482.49	55618.15
482.67	55456.65
482.85	55884.97
483.03	56268.82
483.21	56671.39
483.39	56289.88
483.57	56069.87
483.74	55716.45
483.92	56170.52
484.10	56207.97
484.28	56851.61
484.46	57055.24
484.64	57291.63
484.82	56617.56
485.00	56477.13
485.18	55845.18
485.35	55044.72
485.53	52720.57
485.71	49378.28
485.89	48903.15
486.07	50953.46
486.25	53291.66
486.43	55269.41
486.61	55634.53
486.78	55611.13
486.96	55791.35
487.14	56940.55
487.32	57579.52
487.50	58309.77
487.68	58829.37
487.85	59330.24
488.03	59185.13
488.21	59035.33
488.39	58155.29
488.57	57930.60
488.75	57684.84
488.92	58707.66
489.10	60095.60
489.28	61158.20
489.46	61495.24
489.64	61652.05
489.81	61588.86
489.99	61422.68
490.17	61385.23
490.35	61523.32
490.53	61155.86
490.70	61099.68
490.88	60956.91
491.06	61652.05
491.24	61556.09
491.41	60734.56
491.59	59594.72
491.77	59114.91
491.95	59992.61
492.13	60790.73
492.30	61694.18
492.48	62389.32
492.66	62644.44
492.84	62864.45
493.01	62555.50
493.19	62276.97
493.37	61862.70
493.54	61635.67
493.72	62276.97
493.90	63243.62
494.08	63889.60
494.25	63791.30
494.43	64074.51
494.61	64418.56
494.79	64477.08
494.96	64331.96
495.14	63568.95
495.32	63072.76
495.49	62415.07
495.67	63522.14
495.85	64542.61
496.02	64807.09
496.20	64704.11
496.38	64250.05
496.55	64128.34
496.73	64420.90
496.91	64720.49
497.09	65148.81
497.26	65186.26
497.44	64907.74
497.62	64324.94
497.79	63662.57
497.97	62763.81
498.14	62808.28
498.32	63826.41
498.50	64406.86
498.67	64931.14
498.85	64940.50
499.03	65176.90
499.20	65204.98
499.38	65340.74
499.56	65113.70
499.73	64460.69
499.91	64537.93
500.08	64097.91
500.26	63252.98
500.44	63924.71
500.61	64521.55
500.79	64355.37
500.97	63992.59
501.14	63817.05
501.32	63557.25
501.49	63718.74
501.67	63877.90
501.84	64348.35
502.02	64458.35
502.20	64907.74
502.37	64830.50
502.55	64860.93
502.72	65455.42
502.90	65535.00
503.07	65535.00
503.25	65247.11
503.43	64324.94
503.60	63917.69
503.78	63449.58
503.95	63966.84
504.13	64977.95
504.30	65535.00
504.48	65535.00
504.65	65202.64
504.83	65242.43
505.01	65535.00
505.18	65535.00
505.36	65535.00
505.53	65535.00
505.71	65535.00
505.88	65535.00
506.06	65535.00
506.23	65535.00
506.41	65535.00
506.58	65535.00
506.76	65535.00
506.93	65535.00
507.11	65535.00
507.28	65535.00
507.46	65513.94
507.63	64856.24
507.81	64807.09
507.98	65181.58
508.16	65535.00
508.33	65535.00
508.50	65535.00
508.68	65535.00
508.85	65535.00
509.03	65535.00
509.20	65535.00
509.38	65535.00
509.55	65535.00
509.73	65535.00
509.90	65535.00
510.08	65535.00
510.25	65535.00
510.42	65535.00
510.60	65535.00
510.77	65535.00
510.95	65535.00
511.12	65535.00
511.30	65535.00
511.47	65535.00
511.64	65535.00
511.82	65535.00
511.99	65535.00
512.17	65535.00
512.34	65535.00
512.51	65535.00
512.69	65535.00
512.86	65535.00
513.04	65535.00
513.21	65535.00
513.38	65535.00
513.56	65535.00
513.73	65186.26
513.90	65408.61
514.08	65366.48
514.25	65535.00
514.43	65535.00
514.60	65535.00
514.77	65535.00
514.95	65535.00
515.12	65535.00
515.29	65535.00
515.47	65535.00
515.64	65535.00
515.81	65535.00
515.99	65535.00
516.16	65022.42
516.33	63035.31
516.51	61797.16
516.68	61113.73
516.85	60856.27
517.03	61406.30
517.20	63402.77
517.37	65535.00
517.54	65535.00
517.72	65535.00
517.89	63798.32
518.06	61951.64
518.24	62199.74
518.41	63875.56
518.58	64935.82
518.75	65226.05
518.93	65434.36
519.10	65307.97
519.27	65535.00
519.45	65535.00
519.62	65535.00
519.79	65535.00
519.96	65535.00
520.14	65535.00
520.31	65535.00
520.48	65434.36
520.65	65535.00
520.83	65535.00
521.00	65535.00
521.17	65535.00
521.34	65535.00
521.52	65535.00
521.69	65535.00
521.86	65535.00
522.03	65535.00
522.20	65535.00
522.38	65448.40
522.55	65197.96
522.72	65535.00
522.89	65535.00
523.07	65535.00
523.24	65535.00
523.41	65535.00
523.58	65535.00
523.75	65535.00
523.92	65535.00
524.10	65535.00
524.27	65535.00
524.44	65535.00
524.61	65535.00
524.78	65535.00
524.96	65535.00
525.13	65535.00
525.30	65535.00
525.47	65535.00
525.64	65535.00
525.81	65535.00
525.98	65535.00
526.16	64746.24
526.33	63948.12
526.50	63634.48
526.67	63362.98
526.84	63833.43
527.01	64554.32
527.18	65296.27
527.36	65535.00
527.53	65535.00
527.70	65535.00
527.87	65535.00
528.04	65535.00
528.21	65535.00
528.38	65535.00
528.55	65535.00
528.72	65535.00
528.89	65535.00
529.07	65535.00
529.24	65535.00
529.41	65535.00
529.58	65535.00
529.75	65535.00
529.92	65535.00
530.09	65535.00
530.26	65535.00
530.43	65535.00
530.60	65535.00
530.77	65535.00
530.94	65535.00
531.11	65535.00
531.28	65535.00
531.46	65535.00
531.63	65535.00
531.80	65535.00
531.97	65535.00
532.14	65535.00
532.31	65535.00
532.48	64718.15
532.65	64725.17
532.82	65506.91
532.99	65535.00
533.16	65535.00
533.33	65535.00
533.50	65535.00
533.67	65535.00
533.84	65535.00
534.01	65535.00
534.18	65535.00
534.35	65535.00
534.52	65535.00
534.69	65535.00
534.86	65535.00
535.03	65535.00
535.20	65535.00
535.37	65535.00
535.54	65535.00
535.71	65535.00
535.88	65535.00
536.05	65535.00
536.22	65535.00
536.38	65535.00
536.55	65535.00
536.72	65535.00
536.89	65478.83
537.06	65535.00
537.23	65535.00
537.40	65535.00
537.57	65535.00
537.74	65535.00
537.91	65535.00
538.08	65535.00
538.25	65535.00
538.42	65535.00
538.59	65535.00
538.75	65535.00
538.92	65535.00
539.09	65535.00
539.26	65535.00
539.43	65535.00
539.60	65535.00
539.77	65535.00
539.94	65535.00
540.11	64926.46
540.28	64617.51
540.44	64741.56
540.61	64844.54
540.78	65228.39
540.95	65434.36
541.12	65535.00
541.29	65535.00
541.46	65535.00
541.62	65535.00
541.79	65535.00
541.96	65535.00
542.13	65535.00
542.30	65535.00
542.47	65535.00
542.63	65535.00
542.80	65535.00
542.97	65535.00
543.14	65535.00
543.31	65535.00
543.48	65535.00
543.64	65535.00
543.81	65535.00
543.98	65535.00
544.15	65535.00
544.32	65535.00
544.48	65535.00
544.65	65535.00
544.82	65535.00
544.99	65535.00
545.16	65535.00
545.32	65535.00
545.49	65535.00
545.66	65535.00
545.83	65535.00
546.00	65535.00
546.16	65535.00
546.33	65535.00
546.50	65535.00
546.67	65535.00
546.83	65535.00
547.00	65535.00
547.17	65469.46
547.34	64992.00
547.50	64980.29
547.67	65460.10
547.84	65432.02
548.00	65535.00
548.17	65535.00
548.34	65535.00
548.51	65535.00
548.67	65535.00
548.84	65535.00
549.01	65535.00
549.18	65535.00
549.34	65535.00
549.51	65535.00
549.68	65535.00
549.84	65535.00
550.01	65535.00
550.18	65535.00
550.34	65535.00
550.51	65535.00
550.68	65535.00
550.84	65212.01
551.01	65324.35
551.18	65331.37
551.34	65535.00
551.51	65535.00
551.68	65535.00
551.84	65535.00
552.01	65535.00
552.18	65535.00
552.34	65130.09
552.51	64823.48
552.68	64762.62
552.84	65235.41
553.01	65415.63
553.18	65317.33
553.34	65434.36
553.51	65535.00
553.67	65535.00
553.84	65535.00
554.01	65535.00
554.17	65535.00
554.34	65535.00
554.51	65535.00
554.67	65535.00
554.84	65535.00
555.00	65460.10
555.17	65324.35
555.33	65345.42
555.50	65380.52
555.67	65359.46
555.83	65240.09
556.00	65008.38
556.16	65050.51
556.33	64666.66
556.50	64453.67
556.66	64755.60
556.83	64423.25
556.99	64441.97
557.16	64678.36
557.32	64708.79
557.49	64933.48
557.65	64910.08
557.82	64931.14
557.98	64741.56
558.15	64505.16
558.32	63767.90
558.48	63032.97
558.65	63168.72
558.81	63461.29
558.98	63784.28
559.14	63920.03
559.31	64123.66
559.47	64170.47
559.64	63746.83
559.80	63449.58
559.97	63828.75
560.13	63966.84
560.30	64470.06
560.46	65087.96
560.63	65406.27
560.79	65165.20
560.96	65010.72
561.12	64053.44
561.29	63311.49
561.45	63318.51
561.61	63730.45
561.78	64214.94
561.94	64147.06
562.11	63948.12
562.27	63826.41
562.44	64142.38
562.60	64296.86
562.77	64540.27
562.93	64338.99
563.10	64395.16
563.26	63941.10
563.42	63964.50
563.59	63753.85
563.75	63950.46
563.92	63758.53
564.08	63784.28
564.24	64034.72
564.41	64039.40
564.57	63882.58
564.74	63905.99
564.90	63744.49
565.07	63529.16
565.23	63262.34
565.39	62756.78
565.56	62805.94
565.72	62578.90
565.88	62789.55
566.05	62955.73
566.21	63281.06
566.38	63220.21
566.54	63313.83
566.70	63580.65
566.87	63873.22
567.03	63821.73
567.19	64053.44
567.36	63920.03
567.52	63468.31
567.68	63414.47
567.85	62855.09
568.01	62541.45
568.17	62384.64
568.34	62431.45
568.50	62328.47
568.66	62365.91
568.83	62574.22
568.99	62709.97
569.15	62787.21
569.32	62780.19
569.48	62728.70
569.64	62698.27
569.81	62152.93
569.97	62309.74
570.13	62223.14
570.30	61722.27
570.46	61460.13
570.62	61066.92
570.78	61050.53
570.95	61289.27
571.11	61907.17
571.27	61722.27
571.43	62136.54
571.60	62574.22
571.76	62543.80
571.92	62754.44
572.09	63068.08
572.25	62974.45
572.41	62775.51
572.57	62588.27
572.74	62695.93
572.90	62471.24
573.06	62513.37
573.22	62295.70
573.38	62396.34
573.55	62375.28
573.71	62621.03
573.87	62429.11
574.03	62134.20
574.20	62312.08
574.36	62033.56
574.52	61958.66
574.68	61787.80
574.84	61406.30
575.01	60858.61
575.17	61064.58
575.33	61427.36
575.49	61462.47
575.65	61595.88
575.82	61513.96
575.98	61151.18
576.14	61354.80
576.30	61677.80
576.46	61696.52
576.62	61696.52
576.79	61776.10
576.95	61350.12
577.11	61401.61
577.27	61176.92
577.43	61499.92
577.59	61251.82
577.75	60701.79
577.92	60200.92
578.08	60336.67
578.24	60090.91
578.40	60523.91
578.56	60624.56
578.72	60718.18
578.88	60879.67
579.04	60821.16
579.21	61155.86
579.37	61373.53
579.53	61057.56
579.69	61230.75
579.85	61265.86
580.01	61233.10
580.17	60680.73
580.33	60605.83
580.49	60769.67
580.65	60914.78
580.82	61216.71
580.98	60961.59
581.14	60992.02
581.30	61106.71
581.46	61001.38
581.62	61139.47
581.78	61099.68
581.94	61258.84
582.10	61439.06
582.26	61305.65
582.42	61268.20
582.58	61331.40
582.74	61214.37
582.90	61378.21
583.06	61188.63
583.22	61190.97
583.38	60985.00
583.54	60989.68
583.70	61008.40
583.86	60947.55
584.02	61087.98
584.18	61052.87
584.34	60846.91
584.50	60734.56
584.66	60786.05
584.82	60329.65
584.98	60310.92
585.14	59870.90
585.30	59632.17
585.46	59341.94
585.62	59522.16
585.78	59482.37
585.94	59664.94
586.10	59760.90
586.26	59962.18
586.42	60491.15
586.58	60381.14
586.74	60163.47
586.90	60193.90
587.06	60151.77
587.22	60081.55
587.38	59728.13
587.54	59791.33
587.70	59849.84
587.86	59496.42
588.02	59173.42
588.18	59178.10
588.34	58239.55
588.49	56987.36
588.65	55341.97
588.81	54986.21
588.97	55622.83
589.13	55227.28
589.29	55114.94
589.45	55845.18
589.61	56584.79
589.77	57556.11
589.93	58195.08
590.08	58592.97
590.24	58829.37
590.40	58946.39
590.56	59222.58
590.72	58756.81
590.88	58525.10
591.04	58136.57
591.20	58099.12
591.35	58391.68
591.51	58553.18
591.67	58468.92
591.83	58508.71
591.99	58398.71
592.15	58555.52
592.31	58599.99
592.46	58482.97
592.62	58136.57
592.78	58064.01
592.94	58340.19
593.10	58309.77
593.26	58363.60
593.41	58721.70
593.57	58396.37
593.73	57902.51
593.89	58078.05
594.05	57680.16
594.20	57364.19
594.36	57401.64
594.52	57088.01
594.68	57312.70
594.84	57237.80
594.99	57652.08
595.15	57822.93
595.31	57659.10
595.47	57841.66
595.62	57956.35
595.78	58049.97
595.94	58302.74
596.10	58033.58
596.25	57673.14
596.41	57717.61
596.57	57401.64
596.73	58078.05
596.88	57783.15
597.04	57741.02
597.20	57623.99
597.36	57439.09
597.51	57394.62
597.67	57511.64
597.83	57457.81
597.99	57195.67
598.14	56807.14
598.30	56914.81
598.46	56896.08
598.61	57130.14
598.77	57095.03
598.93	57286.95
599.09	57322.06
599.24	57502.28
599.40	56987.36
599.56	57631.01
599.71	57553.77
599.87	57237.80
600.03	56947.57
600.18	56917.15
600.34	56839.91
600.50	56650.33
600.65	56786.08
600.81	56882.04
600.97	56711.18
601.12	56814.16
601.28	56970.98
601.44	56650.33
601.59	56217.33
601.75	55987.95
601.91	56264.14
602.06	56023.06
602.22	56514.58
602.37	56301.59
602.53	56334.35
602.69	56921.83
602.84	56928.85
603.00	56949.92
603.16	57165.24
603.31	57195.67
603.47	57062.26
603.62	56760.33
603.78	56697.14
603.94	56395.21
604.09	56566.07
604.25	56545.00
604.40	56353.08
604.56	56636.28
604.71	56823.53
604.87	56495.85
605.03	56313.29
605.18	56367.12
605.34	56282.86
605.49	56095.62
605.65	56505.21
605.80	56282.86
605.96	56051.15
606.12	55634.53
606.27	55896.67
606.43	55716.45
606.58	56161.15
606.74	56053.49
606.89	56002.00
607.05	56268.82
607.20	56100.30
607.36	55697.73
607.51	55372.39
607.67	55426.23
607.82	55599.43
607.98	55318.56
608.13	55435.59
608.29	55185.15
608.44	55140.68
608.60	54951.10
608.75	54967.48
608.91	54883.22
609.06	54915.99
609.22	55241.32
609.37	55011.95
609.53	55267.07
609.68	54691.30
609.84	54035.95
609.99	53886.15
610.15	53979.78
610.30	54380.01
610.46	54520.44
610.61	54766.20
610.76	54967.48
610.92	55206.22
611.07	55126.64
611.23	55011.95
611.38	54864.50
611.54	54897.27
611.69	54293.41
611.84	53986.80
612.00	53970.41
612.15	53778.49
612.31	53869.77
612.46	54061.69
612.62	53993.82
612.77	54047.65
612.92	54417.46
613.08	53722.32
613.23	53059.94
613.39	52367.15
613.54	52474.81
613.69	52617.58
613.85	52296.93
614.00	52879.72
614.15	53312.72
614.31	53420.39
614.46	53506.99
614.62	53483.58
614.77	53324.43
614.92	53366.55
615.08	53104.41
615.23	53240.17
615.38	53130.16
615.54	52308.63
615.69	51456.68
615.84	50923.04
616.00	50897.29
616.15	50820.05
616.30	51409.87
616.46	51061.13
616.61	51615.83
616.76	51552.64
616.92	52102.67
617.07	52383.53
617.22	52030.11
617.37	52346.08
617.53	52596.52
617.68	52570.77
617.83	52259.48
617.99	52547.37
618.14	52556.73
618.29	52348.42
618.45	52219.69
618.60	51604.13
618.75	51419.23
618.90	51487.10
619.06	51934.15
619.21	52004.36
619.36	52060.54
619.51	52062.88
619.67	51697.75
619.82	51920.10
619.97	52002.02
620.12	51903.72
620.28	51842.87
620.43	52563.75
620.58	52240.76
620.73	51992.66
620.89	51697.75
621.04	51564.34
621.19	51246.03
621.34	50906.65
621.49	50691.32
621.65	50649.19
621.80	51014.32
621.95	50478.33
622.10	50768.56
622.25	50960.48
622.41	50747.50
622.56	50176.40
622.71	50052.36
622.86	49722.34
623.01	49965.76
623.16	50190.45
623.32	50124.91
623.47	50113.21
623.62	49844.05
623.77	49556.16
623.92	49771.49
624.07	48753.36
624.23	48575.48
624.38	48933.58
624.53	48643.35
624.68	48786.13
624.83	48774.42
624.98	48748.68
625.13	47936.51
625.29	48318.02
625.44	48114.39
625.59	47913.11
625.74	47999.71
625.89	48488.88
626.04	48006.73
626.19	48523.99
626.34	48842.30
626.49	48425.68
626.65	48437.39
626.80	48306.32
626.95	48378.87
627.10	48332.06
627.25	47721.18
627.40	45778.54
627.55	45614.70
627.70	45338.52
627.85	45628.74
628.00	45710.66
628.15	46941.78
628.30	46827.10
628.45	46871.57
628.60	46724.11
628.76	46581.34
628.91	46808.37
629.06	46876.25
629.21	46061.74
629.36	46213.88
629.51	45385.33
629.66	45656.83
629.81	44903.18
629.96	44959.35
630.11	45340.86
630.26	45762.15
630.41	46117.92
630.56	45991.53
630.71	46066.42
630.86	45886.20
631.01	45504.70
631.16	45759.81
631.31	44589.55
631.46	43538.65
631.61	44409.32
631.76	45102.12
631.91	44926.58
632.06	45340.86
632.21	45624.06
632.36	45818.33
632.51	45727.05
632.66	46176.43
632.81	45277.66
632.96	45528.10
633.10	44739.34
633.25	44942.97
633.40	45198.09
633.55	45209.79
633.70	44479.54
633.85	44662.10
634.00	44804.88
634.15	45048.29
634.30	44699.55
634.45	44739.34
634.60	44463.16
634.75	45083.40
634.90	44989.78
635.05	44706.57
635.19	44444.43
635.34	45134.89
635.49	44238.47
635.64	43997.39
635.79	43573.75
635.94	43498.86
636.09	43784.40
636.24	44107.40
636.39	44030.16
636.53	44126.12
636.68	44011.43
636.83	43938.88
636.98	45078.72
637.13	44809.56
637.28	44734.66
637.43	44498.26
637.57	44254.85
637.72	43917.81
637.87	44053.56
638.02	43817.17
638.17	43927.17
638.32	44507.63
638.46	43550.35
638.61	43882.70
638.76	43482.47
638.91	43105.65
639.06	43000.32
639.20	42852.87
639.35	42955.85
639.50	42597.75
639.65	42473.70
639.80	42192.84
639.94	42513.49
640.09	42794.36
640.24	42693.71
640.39	42117.94
640.54	42270.08
640.68	41724.73
640.83	41879.21
640.98	41357.27
641.13	41148.96
641.27	42239.65
641.42	41921.34
641.57	41565.57
641.72	41844.10
641.86	40832.99
642.01	41504.72
642.16	41879.21
642.31	42052.41
642.45	42246.67
642.60	41778.56
642.75	41696.64
642.90	41174.70
643.04	41268.33
643.19	40987.46
643.34	41486.00
643.48	41106.83
643.63	40718.30
643.78	41020.23
643.93	41076.40
644.07	41581.96
644.22	42031.34
644.37	41223.86
644.51	40982.78
644.66	40627.02
644.81	40996.82
644.95	40491.27
645.10	40481.91
645.25	39847.62
645.39	40102.74
645.54	39728.25
645.69	39274.19
645.83	39271.85
645.98	38696.08
646.13	38749.91
646.27	38511.17
646.42	39037.80
646.57	38960.56
646.71	38609.48
646.86	38892.68
647.00	38237.33
647.15	37691.99
647.30	37736.46
647.44	37001.53
647.59	38087.54
647.74	37944.76
647.88	37607.73
648.03	37675.60
648.17	38010.30
648.32	38057.11
648.47	38682.03
648.61	38073.49
648.76	38019.66
648.90	37188.77
649.05	35606.57
649.20	35325.71
649.34	35573.80
649.49	35618.27
649.63	36378.95
649.78	36601.30
649.92	37160.69
650.07	38127.33
650.21	37521.13
650.36	37993.92
650.51	37900.29
650.65	38462.02
650.80	38410.53
650.94	37371.33
651.09	37301.12
651.23	36589.59
651.38	35976.37
651.52	36013.82
651.67	36409.37
651.81	36673.85
651.96	37076.43
652.10	37085.79
652.25	36928.97
652.39	36781.52
652.54	37118.56
652.68	36847.05
652.83	36833.01
652.97	36439.80
653.12	36751.09
653.26	36512.36
653.41	37027.28
653.55	36931.31
653.70	36650.45
653.84	36657.47
653.99	36009.14
654.13	35896.80
654.27	35559.76
654.42	35194.64
654.56	35131.44
654.71	35072.93
654.85	34913.77
655.00	34763.98
655.14	34150.76
655.29	33752.87
655.43	32865.80
655.57	31812.56
655.72	29497.77
655.86	27402.99
656.01	25799.73
656.15	26324.01
656.30	27730.67
656.44	29408.83
656.58	30991.03
656.73	31793.84
656.87	32481.95
657.01	32755.80
657.16	33429.87
657.30	33797.34
657.45	34281.83
657.59	34298.21
657.73	34834.19
657.88	34291.19
658.02	34710.14
658.16	34270.12
658.31	34513.54
658.45	34796.74
658.60	34237.36
658.74	34089.90
658.88	33535.20
659.03	33174.75
659.17	33530.51
659.31	33207.52
659.46	33462.64
659.60	33961.17
659.74	34054.79
659.89	34106.29
660.03	33897.98
660.17	34494.82
660.32	34036.07
660.46	33921.38
660.60	33535.20
660.74	33656.90
660.89	33572.64
661.03	33387.74
661.17	34057.14
661.32	33443.91
661.46	33537.54
661.60	33261.35
661.74	33551.58
661.89	33598.39
662.03	33591.37
662.17	33301.14
662.31	33380.72
662.46	33118.58
662.60	33034.32
662.74	33074.11
662.88	32795.59
663.03	32552.17
663.17	32121.51
663.31	32411.74
663.45	32561.53
663.60	32350.88
663.74	31999.80
663.88	32018.53
664.02	31566.81
664.17	31842.99
664.31	32084.06
664.45	32533.45
664.59	32093.43
664.73	32409.40
664.88	32507.70
665.02	31927.25
665.16	32081.72
665.30	31718.94
665.44	31566.81
665.59	31173.60
665.73	31299.98
665.87	30513.56
666.01	30621.23
666.15	30761.66
666.29	30604.84
666.44	30845.92
666.58	30602.50
666.72	30473.78
666.86	31077.63
667.00	30588.46
667.14	30663.36
667.28	30611.87
667.43	30106.31
667.57	30270.15
667.71	30480.80
667.85	30536.97
667.99	30457.39
668.13	30061.84
668.27	30192.91
668.41	30132.06
668.56	29888.64
668.70	30061.84
668.84	29783.32
668.98	30103.97
669.12	29900.34
669.26	29394.79
669.40	29741.19
669.54	29174.78
669.68	29378.40
669.82	29266.06
669.96	29221.59
670.10	28898.59
670.25	28950.09
670.39	28606.03
670.53	28313.46
670.67	28603.69
670.81	28472.62
670.95	28212.82
671.09	28322.82
671.23	28395.38
671.37	28311.12
671.51	27864.08
671.65	28114.52
671.79	27845.35
671.93	27786.84
672.07	27981.10
672.21	28222.18
672.35	27627.68
672.49	27850.03
672.63	28156.64
672.77	27489.59
672.91	27459.16
673.05	27372.57
673.19	27501.29
673.33	27515.34
673.47	27578.53
673.61	27243.84
673.75	27314.05
673.89	27410.01
674.03	27175.96
674.17	27145.53
674.31	26920.84
674.45	26469.12
674.59	26331.03
674.73	26679.77
674.87	26581.46
675.01	26338.05
675.15	26260.81
675.29	25830.15
675.43	26204.64
675.56	26108.68
675.70	26377.84
675.84	25982.29
675.98	25256.72
676.12	26059.52
676.26	25972.92
676.40	25694.40
676.54	25235.66
676.68	25406.52
676.82	25252.04
676.96	25401.83
677.10	25015.65
677.23	25308.21
677.37	25144.38
677.51	24999.26
677.65	25324.60
677.79	24636.48
677.93	24297.10
678.07	24243.27
678.21	24095.82
678.34	24065.39
678.48	23889.85
678.62	23838.36
678.76	24191.78
678.90	24086.45
679.04	23791.55
679.18	24023.26
679.31	23796.23
679.45	23590.26
679.59	23557.49
679.73	23295.35
679.87	23627.71
680.00	23061.30
680.14	23187.69
680.28	22787.46
680.42	22558.08
680.56	22731.28
680.70	22712.56
680.83	22333.39
680.97	22328.71
681.11	22359.14
681.25	22483.19
681.39	22717.24
681.52	22253.81
681.66	22422.33
681.80	22424.67
681.94	21900.39
682.07	22441.06
682.21	22272.54
682.35	21853.58
682.49	21848.90
682.62	21429.94
682.76	21050.78
682.90	21268.45
683.04	21202.91
683.17	21212.28
683.31	20922.05
683.45	20912.69
683.59	20631.82
683.72	20336.91
683.86	20552.24
684.00	19946.05
684.13	20219.89
684.27	20084.14
684.41	20112.22
684.55	20011.58
684.68	20357.98
684.82	20081.80
684.96	19822.00
685.09	19606.67
685.23	19447.51
685.37	19281.33
685.50	19286.01
685.64	19372.61
685.78	19239.20
685.91	18995.79
686.05	19002.81
686.19	18476.19
686.32	17743.60
686.46	15669.89
686.60	13703.84
686.73	12503.14
686.87	12058.44
687.01	11999.93
687.14	12285.47
687.28	12348.67
687.42	13179.56
687.55	13287.22
687.69	14588.56
687.82	15157.31
687.96	15159.65
688.10	15484.98
688.23	15445.20
688.37	15199.44
688.50	15089.43
688.64	14864.74
688.78	14466.85
688.91	14532.39
689.05	14494.94
689.18	14457.49
689.32	13949.59
689.46	14384.93
689.59	14506.64
689.73	14649.41
689.86	14513.66
690.00	14693.88
690.13	14677.50
690.27	14682.18
690.41	15037.94
690.54	14750.06
690.68	14635.37
690.81	15030.92
690.95	14757.08
691.08	14813.25
691.22	14728.99
691.35	14853.04
691.49	14839.00
691.62	14956.02
691.76	15316.47
691.89	15152.63
692.03	14803.89
692.16	14501.96
692.30	14335.78
692.43	14677.50
692.57	14389.61
692.70	14305.35
692.84	13940.23
692.97	14038.53
693.11	14164.92
693.24	14190.67
693.38	14171.94
693.51	13834.91
693.65	13429.99
693.78	13558.72
693.92	13219.35
694.05	13165.51
694.19	13280.20
694.32	13247.43
694.45	13205.30
694.59	13071.89
694.72	13458.08
694.86	13167.85
694.99	13277.86
695.13	13331.69
695.26	13284.88
695.39	12793.37
695.53	12908.05
695.66	12943.16
695.80	12989.97
695.93	13275.52
696.07	12884.65
696.20	13270.84
696.33	13348.08
696.47	13635.96
696.60	13362.12
696.73	13774.05
696.87	13591.49
697.00	13481.49
697.14	13315.31
697.27	13085.94
697.40	12847.20
697.54	12479.74
697.67	12212.92
697.80	12109.93
697.94	12341.64
698.07	12039.72
698.21	12140.36
698.34	11744.81
698.47	11854.81
698.61	11815.02
698.74	11658.21
698.87	11688.64
699.01	11557.57
699.14	11442.88
699.27	11499.05
699.40	11744.81
699.54	11424.15
699.67	11393.73
699.80	11019.24
699.94	11410.11
700.07	11052.01
700.20	10946.69
700.34	10677.52
700.47	10970.09
700.60	10794.55
700.73	10899.87
700.87	10656.46
701.00	10665.82
701.13	10663.48
701.26	10572.20
701.40	10258.57
701.53	10136.86
701.66	10509.01
701.79	10590.92
701.93	10478.58
702.06	10115.80
702.19	10204.74
702.32	10499.64
702.46	9998.77
702.59	10143.88
702.72	10164.95
702.85	10186.01
702.99	10125.16
703.12	10143.88
703.25	9898.13
703.38	9947.28
703.51	9741.31
703.65	9879.40
703.78	9745.99
703.91	9678.12
704.04	9928.55
704.17	9743.65
704.31	9640.67
704.44	9731.95
704.57	10076.01
704.70	9713.22
704.83	9542.36
704.96	9643.01
705.10	9474.49
705.23	9287.25
>>>>>End Processed Spectral Data<<<<<
