SpectraSuite Data File
++++++++++++++++++++++++++++++++++++
Date: Mon Oct 07 14:53:23 GMT-05:00 2013
User: price-jones
Dark Spectrum Present: No
Reference Spectrum Present: No
Number of Sampled Component Spectra: 1
Spectrometers: USB2+H05261
Integration Time (usec): 100000 (USB2+H05261)
Spectra Averaged: 1 (USB2+H05261)
Boxcar Smoothing: 0 (USB2+H05261)
Correct for Electrical Dark: No (USB2+H05261)
Strobe/Lamp Enabled: No (USB2+H05261)
Correct for Detector Non-linearity: No (USB2+H05261)
Correct for Stray Light: No (USB2+H05261)
Number of Pixels in Processed Spectrum: 2048
>>>>>Begin Processed Spectral Data<<<<<
365.73	0.00
365.92	0.00
366.12	0.00
366.32	0.00
366.52	0.00
366.72	0.00
366.91	0.00
367.11	0.00
367.31	0.00
367.51	0.00
367.70	0.00
367.90	0.00
368.10	0.00
368.30	0.00
368.49	0.00
368.69	0.00
368.89	0.00
369.09	0.00
369.28	0.00
369.48	0.00
369.68	0.00
369.87	0.00
370.07	0.00
370.27	0.00
370.47	519.60
370.66	2745.45
370.86	3337.60
371.06	3726.13
371.25	3634.85
371.45	3243.98
371.65	3005.25
371.84	2789.92
372.04	2963.12
372.24	3337.60
372.44	3356.33
372.63	3466.33
372.83	3150.36
373.03	2747.79
373.22	2656.51
373.42	2775.88
373.62	3208.87
373.81	3410.16
374.01	3335.26
374.21	3075.46
374.40	2867.16
374.60	2960.78
374.79	3403.14
374.99	3854.86
375.19	4128.70
375.38	4182.54
375.58	3962.53
375.78	3925.08
375.97	4014.02
376.17	4187.22
376.37	4011.68
376.56	4372.12
376.76	4411.91
376.95	4713.84
377.15	5081.30
377.35	5249.82
377.54	5521.32
377.74	5600.90
377.93	5600.90
378.13	5305.99
378.33	5226.42
378.52	4795.76
378.72	4648.30
378.91	4559.36
379.11	4465.74
379.31	4301.90
379.50	4252.75
379.70	4678.73
379.89	4943.21
380.09	5268.55
380.28	5540.05
380.48	5518.98
380.68	5245.14
380.87	5313.02
381.07	4945.55
381.26	4496.17
381.46	4229.35
381.65	4149.77
381.85	4042.11
382.04	3971.89
382.24	3545.91
382.43	3398.46
382.63	3262.71
382.83	3396.12
383.02	3344.63
383.22	3288.45
383.41	3293.13
383.61	3515.48
383.80	4219.99
384.00	4500.85
384.19	5118.75
384.39	5533.03
384.58	5467.49
384.78	5355.15
384.97	5320.04
385.17	5146.84
385.36	4873.00
385.56	4557.02
385.75	4610.86
385.95	5170.24
386.14	5455.79
386.34	5696.86
386.53	5390.25
386.72	4971.30
386.92	5027.47
387.11	5242.80
387.31	5661.76
387.50	5654.73
387.70	5310.68
387.89	5298.97
388.09	5364.51
388.28	5329.40
388.48	5352.81
388.67	5879.43
388.86	6644.78
389.06	6963.09
389.25	7201.83
389.45	7368.01
389.64	7377.37
389.84	7304.81
390.03	7131.61
390.22	7112.89
390.42	7375.03
390.61	7779.94
390.81	8428.27
391.00	8627.21
391.19	8329.97
391.39	8131.02
391.58	7662.91
391.78	7155.02
391.97	7091.82
392.16	6541.80
392.36	5928.58
392.55	4870.65
392.75	3833.80
392.94	3023.97
393.13	3110.57
393.33	3559.95
393.52	4685.75
393.71	5776.44
393.91	6506.69
394.10	7040.33
394.29	7604.40
394.49	8194.22
394.68	8901.06
394.88	8931.48
395.07	9174.90
395.26	9109.36
395.46	8641.26
395.65	8304.22
395.84	7382.05
396.04	6289.02
396.23	5097.69
396.42	4278.50
396.62	4079.55
396.81	4826.18
397.00	6038.58
397.19	7501.42
397.39	8919.78
397.58	10148.56
397.77	10719.65
397.97	10946.69
398.16	11571.61
398.35	11653.53
398.55	11817.36
398.74	12407.18
398.93	12889.33
399.12	12444.63
399.32	12138.02
399.51	12564.00
399.70	13352.76
399.90	12877.63
400.09	13142.11
400.28	12856.56
400.47	12894.01
400.67	13418.29
400.86	14057.26
401.05	14373.23
401.24	14237.48
401.44	14047.90
401.63	14202.37
401.82	14499.62
402.01	14478.55
402.21	14523.02
402.40	14595.58
402.59	14237.48
402.78	13617.24
402.97	13242.75
403.17	13853.63
403.36	14319.40
403.55	15087.09
403.74	15396.04
403.93	14537.07
404.13	13708.52
404.32	13050.83
404.51	13771.71
404.70	14839.00
404.89	14794.53
405.09	14621.33
405.28	14122.79
405.47	14099.39
405.66	14310.04
405.85	13973.00
406.05	13455.74
406.24	13486.17
406.43	14185.99
406.62	14590.90
406.81	14867.08
407.00	14059.60
407.20	13802.14
407.39	13947.25
407.58	14757.08
407.77	15335.19
407.96	15693.29
408.15	16039.69
408.34	15871.17
408.54	16521.84
408.73	16781.64
408.92	16631.85
409.11	16084.16
409.30	15527.11
409.49	14429.40
409.68	13551.70
409.87	13165.51
410.07	13523.62
410.26	15040.28
410.45	15889.90
410.64	16355.66
410.83	16924.41
411.02	17291.88
411.21	18106.38
411.40	17614.87
411.59	17755.30
411.78	17731.90
411.98	17476.78
412.17	17558.70
412.36	17518.91
412.55	17610.19
412.74	17013.35
412.93	16671.64
413.12	16666.95
413.31	18284.26
413.50	18541.72
413.69	18869.40
413.88	18207.03
414.07	17490.82
414.26	17884.03
414.45	18794.50
414.64	18310.01
414.83	18824.93
415.02	18174.26
415.22	18223.41
415.41	18750.03
415.60	19461.55
415.79	19946.05
415.98	20570.97
416.17	20556.93
416.36	19817.32
416.55	19927.32
416.74	19108.13
416.93	18464.49
417.12	18349.80
417.31	18647.05
417.50	19129.20
417.69	19733.06
417.88	19672.20
418.07	19496.66
418.26	19124.52
418.45	19288.35
418.64	20152.01
418.83	20643.52
419.02	20446.92
419.21	19906.26
419.39	19513.05
419.58	18354.48
419.77	18263.20
419.96	19367.93
420.15	20725.44
420.34	21039.08
420.53	21755.28
420.72	22478.50
420.91	21916.78
421.10	21666.34
421.29	21448.67
421.48	20697.36
421.67	21589.10
421.86	21064.82
422.05	19763.48
422.24	17806.80
422.43	17509.55
422.61	19260.27
422.80	21053.12
422.99	21240.36
423.18	20208.19
423.37	20084.14
423.56	19737.74
423.75	20161.37
423.94	20559.27
424.13	19700.29
424.32	19604.33
424.50	19702.63
424.69	19679.22
424.88	20161.37
425.07	19538.79
425.26	19562.20
425.45	19459.21
425.64	18948.98
425.83	18916.21
426.01	20294.79
426.20	20456.28
426.39	20510.11
426.58	18684.50
426.77	17481.46
426.96	17177.19
427.15	17642.96
427.33	18820.25
427.52	19646.46
427.71	19686.25
427.90	19625.39
428.09	19349.21
428.28	19206.44
428.46	18160.22
428.65	18038.51
428.84	18579.17
429.03	18918.55
429.22	17657.00
429.40	16823.77
429.59	15585.63
429.78	13577.45
429.97	13734.26
430.16	13935.55
430.34	13617.24
430.53	13614.90
430.72	14160.24
430.91	15854.79
431.10	18258.52
431.28	21411.22
431.47	23307.05
431.66	23583.24
431.85	21799.75
432.03	19623.05
432.22	18796.84
432.41	19946.05
432.60	21553.99
432.79	22567.45
432.97	23197.05
433.16	22764.05
433.35	20999.29
433.54	18504.28
433.72	17790.41
433.91	18246.82
434.10	20325.21
434.28	21610.17
434.47	22733.62
434.66	22314.67
434.85	22092.32
435.03	22003.38
435.22	22197.64
435.41	23866.44
435.59	23679.20
435.78	23901.55
435.97	24718.40
436.16	24739.46
436.34	24402.43
436.53	24201.14
436.72	23985.81
436.90	22855.33
437.09	23140.88
437.28	22398.93
437.46	23157.26
437.65	23126.83
437.84	21312.92
438.02	19742.42
438.21	19653.48
438.40	20755.87
438.58	22642.34
438.77	23077.68
438.96	23161.94
439.14	24292.42
439.33	24493.71
439.52	25074.16
439.70	24690.31
439.89	24056.03
440.08	23026.19
440.26	23065.98
440.45	23721.33
440.63	25572.69
440.82	27267.24
441.01	26700.83
441.19	26536.99
441.38	26675.09
441.57	27669.81
441.75	28549.85
441.94	28360.27
442.12	28130.90
442.31	28311.12
442.50	28758.16
442.68	28414.10
442.87	28025.57
443.05	27395.97
443.24	28142.60
443.43	28245.58
443.61	28985.19
443.80	29591.39
443.98	27782.16
444.17	27527.04
444.35	29631.18
444.54	29542.24
444.73	29504.79
444.91	28308.78
445.10	27065.96
445.28	25993.99
445.47	25453.33
445.65	25844.20
445.84	26408.26
446.02	27564.49
446.21	27817.27
446.39	27880.46
446.58	28201.11
446.77	28545.17
446.95	28964.13
447.14	29858.21
447.32	30057.16
447.51	29434.58
447.69	28147.28
447.88	28161.33
448.06	28453.89
448.25	29399.47
448.43	29439.26
448.62	28898.59
448.80	28739.44
448.99	28760.50
449.17	29415.85
449.36	28624.75
449.54	30188.23
449.73	30859.96
449.91	31119.76
450.10	31899.16
450.28	32280.67
450.46	32116.83
450.65	32077.04
450.83	31700.22
451.02	30946.56
451.20	31009.76
451.39	31239.13
451.57	30843.58
451.76	30707.83
451.94	30417.60
452.13	30169.51
452.31	28608.37
452.49	27365.54
452.68	27887.48
452.86	27990.47
453.05	27920.25
453.23	29233.29
453.42	29312.87
453.60	30412.92
453.78	30588.46
453.97	30118.01
454.15	30162.48
454.34	29851.19
454.52	30150.78
454.70	29333.93
454.89	29617.14
455.07	30017.37
455.26	29898.00
455.44	31084.65
455.62	32041.93
455.81	31934.27
455.99	31442.76
456.17	31412.33
456.36	31335.09
456.54	32210.45
456.73	32147.26
456.91	32535.79
457.09	33067.09
457.28	33780.95
457.46	32163.64
457.64	31775.11
457.83	31248.49
458.01	30553.35
458.19	31112.74
458.38	31552.76
458.56	32725.37
458.74	32348.54
458.93	31613.62
459.11	31613.62
459.29	31157.21
459.48	31824.26
459.66	31229.77
459.84	31917.89
460.03	32212.79
460.21	32271.31
460.39	32931.34
460.57	32849.42
460.76	33116.24
460.94	33289.44
461.12	32849.42
461.31	33249.65
461.49	33116.24
461.67	33085.81
461.85	34305.23
462.04	33809.04
462.22	34440.98
462.40	33855.85
462.59	33673.29
462.77	33720.10
462.95	33546.90
463.13	33748.18
463.32	32802.61
463.50	32996.87
463.68	32910.27
463.86	33111.56
464.05	32720.69
464.23	31658.09
464.41	32048.96
464.59	31278.92
464.78	32931.34
464.96	32404.72
465.14	32397.70
465.32	33170.07
465.50	34408.22
465.69	34284.17
465.87	33490.73
466.05	32584.94
466.23	31302.32
466.41	30574.42
466.60	31208.70
466.78	31648.72
466.96	31730.64
467.14	32472.59
467.32	33015.60
467.51	33041.34
467.69	31981.08
467.87	32114.49
468.05	32774.52
468.23	32446.85
468.41	32690.26
468.60	33001.55
468.78	32954.74
468.96	32313.44
469.14	33689.67
469.32	33439.23
469.50	32079.38
469.69	32126.19
469.87	31704.90
470.05	31725.96
470.23	32067.68
470.41	31630.00
470.59	31910.86
470.77	32245.56
470.95	33593.71
471.14	33694.35
471.32	33706.05
471.50	35573.80
471.68	35236.77
471.86	35608.91
472.04	35812.54
472.22	36039.57
472.40	34574.39
472.58	33837.12
472.77	33813.72
472.95	34054.79
473.13	35260.17
473.31	34298.21
473.49	34539.29
473.67	35536.35
473.85	35683.81
474.03	36512.36
474.21	36219.79
474.39	36650.45
474.57	36767.48
474.75	36669.17
474.93	36926.63
475.12	35943.61
475.30	35627.63
475.48	35730.62
475.66	36385.97
475.84	36418.74
476.02	35702.53
476.20	35292.94
476.38	36322.77
476.56	37074.09
476.74	37118.56
476.92	37708.37
477.10	38099.24
477.28	39519.95
477.46	39208.65
477.64	39674.42
477.82	39807.83
478.00	40133.17
478.18	38995.67
478.36	39264.83
478.54	39225.04
478.72	39449.73
478.90	40215.08
479.08	41525.78
479.26	41794.95
479.44	42129.64
479.62	41170.02
479.80	41717.71
479.98	42120.28
480.16	42143.69
480.34	41338.54
480.52	42209.22
480.70	42073.47
480.88	42632.86
481.06	43187.56
481.24	43178.20
481.41	44612.95
481.59	45333.84
481.77	44800.19
481.95	43770.36
482.13	43849.94
482.31	43489.49
482.49	44837.64
482.67	44325.07
482.85	44706.57
483.03	45188.72
483.21	45722.37
483.39	45610.02
483.57	44945.31
483.74	44814.24
483.92	45102.12
484.10	44898.50
484.28	46014.93
484.46	46028.98
484.64	46309.84
484.82	46162.39
485.00	45514.06
485.18	44685.51
485.35	43723.55
485.53	40327.43
485.71	36912.59
485.89	36446.82
486.07	37855.82
486.25	41104.49
486.43	43845.26
486.61	44570.82
486.78	44465.50
486.96	44528.69
487.14	46239.62
487.32	47117.32
487.50	48479.52
487.68	49198.06
487.85	49485.95
488.03	49350.20
488.21	49027.20
488.39	48236.10
488.57	48023.11
488.75	47068.17
488.92	48397.60
489.10	51011.98
489.28	52310.97
489.46	53024.84
489.64	52718.23
489.81	52851.64
489.99	52105.01
490.17	52535.66
490.35	52978.03
490.53	52472.47
490.70	52114.37
490.88	51683.71
491.06	52884.40
491.24	52921.85
491.41	51714.14
491.59	50267.69
491.77	49038.90
491.95	50293.43
492.13	51484.76
492.30	52938.24
492.48	54026.59
492.66	54490.01
492.84	54405.75
493.01	54230.21
493.19	53460.18
493.37	53247.19
493.54	52933.56
493.72	53581.88
493.90	54735.77
494.08	55594.74
494.25	55501.12
494.43	55880.29
494.61	56030.08
494.79	56362.44
494.96	56245.41
495.14	55395.80
495.32	54464.27
495.49	53881.47
495.67	54906.63
495.85	56231.37
496.02	56451.38
496.20	56425.64
496.38	55849.86
496.55	55711.77
496.73	56413.93
496.91	56423.29
497.09	57113.75
497.26	57347.81
497.44	56739.27
497.62	56427.98
497.79	55627.51
497.97	54412.77
498.14	54323.83
498.32	55384.10
498.50	56317.97
498.67	56846.93
498.85	56821.19
499.03	57202.69
499.20	57258.87
499.38	57183.97
499.56	56905.44
499.73	56617.56
499.91	56165.84
500.08	55854.54
500.26	54995.57
500.44	55384.10
500.61	56088.60
500.79	56093.28
500.97	55674.32
501.14	55627.51
501.32	55257.71
501.49	55505.80
501.67	55557.30
501.84	56203.28
502.02	56484.15
502.20	56772.03
502.37	56863.32
502.55	56910.13
502.72	57492.92
502.90	57836.98
503.07	57457.81
503.25	57286.95
503.43	56296.91
503.60	55861.57
503.78	54925.35
503.95	55402.82
504.13	56992.04
504.30	57621.65
504.48	57411.00
504.65	57319.72
504.83	57172.27
505.01	57649.74
505.18	58017.20
505.36	58747.45
505.53	58646.80
505.71	58763.83
505.88	58988.52
506.06	58539.14
506.23	57893.15
506.41	57598.24
506.58	57942.30
506.76	58014.86
506.93	58038.26
507.11	57523.35
507.28	57914.22
507.46	57228.44
507.63	56776.72
507.81	56413.93
507.98	56896.08
508.16	57659.10
508.33	57970.39
508.50	58262.96
508.68	58681.91
508.85	59166.40
509.03	59128.95
509.20	59058.74
509.38	58171.67
509.55	57516.32
509.73	57567.82
509.90	58071.03
510.08	58361.26
510.25	58354.24
510.42	57993.79
510.60	57799.53
510.77	58335.51
510.95	58590.63
511.12	59042.35
511.30	59257.68
511.47	59365.35
511.64	59491.74
511.82	59203.85
511.99	58183.38
512.17	57888.47
512.34	57605.26
512.51	57673.14
512.69	57778.46
512.86	57876.77
513.04	58515.73
513.21	58267.64
513.38	58190.40
513.56	57506.96
513.73	57104.39
513.90	57223.76
514.08	57155.88
514.25	57551.43
514.43	57862.72
514.60	57717.61
514.77	58176.36
514.95	58188.06
515.12	58075.71
515.29	58281.68
515.47	58534.46
515.64	58805.96
515.81	58379.98
515.99	58049.97
516.16	56435.00
516.33	54012.54
516.51	53055.26
516.68	52097.98
516.85	51526.89
517.03	51910.74
517.20	55000.25
517.37	57052.90
517.54	58059.33
517.72	57572.50
517.89	55281.11
518.06	52889.09
518.24	53174.63
518.41	55262.39
518.58	56640.96
518.75	56935.87
518.93	57212.06
519.10	57022.47
519.27	57420.36
519.45	57752.72
519.62	58497.01
519.79	58855.11
519.96	58452.54
520.14	57874.43
520.31	57078.64
520.48	57202.69
520.65	57638.03
520.83	58539.14
521.00	58845.75
521.17	58543.82
521.34	58145.93
521.52	58607.01
521.69	58859.79
521.86	59367.69
522.03	58976.82
522.20	57570.16
522.38	57020.13
522.55	56940.55
522.72	57649.74
522.89	57551.43
523.07	57923.58
523.24	58115.50
523.41	58890.22
523.58	59217.89
523.75	59669.62
523.92	59540.89
524.10	59365.35
524.27	59627.49
524.44	59224.92
524.61	59021.29
524.78	59065.76
524.96	58789.58
525.13	58822.34
525.30	59166.40
525.47	59590.04
525.64	59543.23
525.81	58887.88
525.98	57364.19
526.16	55980.93
526.33	55458.99
526.50	54805.98
526.67	54717.04
526.84	55257.71
527.01	56224.35
527.18	56994.39
527.36	58176.36
527.53	58780.21
527.70	58993.20
527.87	58487.65
528.04	58042.95
528.21	58382.32
528.38	59032.99
528.55	59798.35
528.72	60093.25
528.89	60088.57
529.07	59765.58
529.24	59077.46
529.41	58630.42
529.58	57904.85
529.75	58269.98
529.92	58539.14
530.09	58993.20
530.26	59437.90
530.43	59718.77
530.60	59487.06
530.77	59875.58
530.94	59955.16
531.11	59477.69
531.28	59274.07
531.46	59072.78
531.63	59274.07
531.80	59070.44
531.97	58553.18
532.14	57944.64
532.31	56942.89
532.48	56287.54
532.65	56495.85
532.82	57343.12
532.99	58087.42
533.16	58501.69
533.33	59224.92
533.50	58976.82
533.67	58295.72
533.84	57801.87
534.01	58302.74
534.18	58410.41
534.35	58625.74
534.52	58487.65
534.69	58581.27
534.86	58897.24
535.03	59238.96
535.20	59533.87
535.37	59887.29
535.54	60198.58
535.71	59531.53
535.88	59283.43
536.05	58724.04
536.22	58478.28
536.38	57946.98
536.55	57642.71
536.72	57059.92
536.89	57146.52
537.06	57923.58
537.23	58798.94
537.40	58986.18
537.57	58899.58
537.74	58630.42
537.91	58738.08
538.08	58588.29
538.25	58646.80
538.42	58993.20
538.59	58504.03
538.75	57855.70
538.92	57815.91
539.09	57502.28
539.26	57532.71
539.43	57324.40
539.60	57530.37
539.77	57439.09
539.94	57441.43
540.11	56797.78
540.28	56170.52
540.44	56306.27
540.61	56722.88
540.78	56715.86
540.95	57165.24
541.12	57600.58
541.29	57703.57
541.46	57937.62
541.62	58298.06
541.79	57921.24
541.96	57439.09
542.13	57394.62
542.30	57670.80
542.47	57989.11
542.63	57572.50
542.80	57528.03
542.97	57448.45
543.14	57420.36
543.31	57401.64
543.48	58042.95
543.64	58803.62
543.81	59051.72
543.98	58651.48
544.15	58045.29
544.32	57368.87
544.48	57710.59
544.65	58202.10
544.82	58602.33
544.99	58075.71
545.16	57921.24
545.32	57572.50
545.49	58298.06
545.66	58609.35
545.83	58389.34
546.00	57895.49
546.16	57413.34
546.33	57668.46
546.50	57729.31
546.67	58216.14
546.83	57645.05
547.00	57677.82
547.17	57024.81
547.34	56521.60
547.50	56420.95
547.67	56912.47
547.84	56783.74
548.00	57509.30
548.17	57879.11
548.34	57698.89
548.51	57815.91
548.67	57612.29
548.84	57628.67
549.01	57844.00
549.18	57488.24
549.34	57525.69
549.51	57535.05
549.68	57455.47
549.84	57453.13
550.01	57291.63
550.18	57240.14
550.34	57230.78
550.51	57249.50
550.68	57104.39
550.84	56786.08
551.01	56945.23
551.18	57041.20
551.34	56898.42
551.51	57593.56
551.68	57787.83
551.84	57757.40
552.01	57511.64
552.18	57382.91
552.34	56598.83
552.51	56341.38
552.68	56296.91
552.84	56699.48
553.01	56893.74
553.18	56795.44
553.34	57057.58
553.51	57013.11
553.67	57368.87
553.84	57296.31
554.01	57284.61
554.17	57146.52
554.34	57228.44
554.51	57305.68
554.67	57675.48
554.84	57319.72
555.00	56926.51
555.17	56816.50
555.33	56830.55
555.50	56734.59
555.67	56732.25
555.83	56633.94
556.00	56388.19
556.16	56580.11
556.33	55812.41
556.50	55877.95
556.66	55739.86
556.83	55660.28
556.99	55873.27
557.16	55983.27
557.32	56231.37
557.49	56451.38
557.65	56430.32
557.82	56086.26
557.98	56231.37
558.15	55732.84
558.32	54937.05
558.48	54026.59
558.65	53986.80
558.81	54658.53
558.98	54997.91
559.14	55344.31
559.31	55091.53
559.47	55423.89
559.64	54707.68
559.80	54506.40
559.97	54777.90
560.13	55178.13
560.30	56151.79
560.46	56746.29
560.63	56573.09
560.79	56601.18
560.96	56449.04
561.12	55164.09
561.29	54174.04
561.45	54227.87
561.61	54866.84
561.78	55517.51
561.94	55264.73
562.11	54993.23
562.27	55063.44
562.44	55260.05
562.60	55838.16
562.77	55866.25
562.93	55847.52
563.10	55590.06
563.26	54995.57
563.42	55150.04
563.59	54911.31
563.75	54838.75
563.92	55000.25
564.08	55100.89
564.24	55154.72
564.41	55180.47
564.57	55002.59
564.74	54822.37
564.90	54862.16
565.07	54546.18
565.23	54181.06
565.39	53666.14
565.56	53654.44
565.72	53230.80
565.88	53570.18
566.05	53748.06
566.21	54188.08
566.38	54073.40
566.54	54321.49
566.70	54616.40
566.87	54798.96
567.03	54761.51
567.19	54906.63
567.36	54827.05
567.52	54658.53
567.68	54129.57
567.85	53563.16
568.01	53308.04
568.17	52898.45
568.34	53085.69
568.50	52907.81
568.66	53279.96
568.83	53572.52
568.99	53485.92
569.15	53612.31
569.32	53970.41
569.48	53294.00
569.64	53340.81
569.81	53043.56
569.97	52818.87
570.13	52481.83
570.30	52247.78
570.46	51880.31
570.62	50979.21
570.78	51016.66
570.95	51412.21
571.11	52245.44
571.27	52418.64
571.43	52795.46
571.60	53261.23
571.76	53153.57
571.92	53600.61
572.09	53731.68
572.25	53286.98
572.41	53385.28
572.57	53120.80
572.74	53443.79
572.90	53081.01
573.06	52746.31
573.22	53052.92
573.38	53017.82
573.55	53214.42
573.71	53455.50
573.87	52982.71
574.03	52729.93
574.20	52802.49
574.36	52435.02
574.52	52362.46
574.68	52224.37
574.84	51562.00
575.01	51278.80
575.17	51138.36
575.33	51585.41
575.49	51873.29
575.65	51875.63
575.82	51934.15
575.98	51477.74
576.14	51547.96
576.30	52023.09
576.46	52341.40
576.62	52215.01
576.79	51913.08
576.95	51643.92
577.11	51463.70
577.27	51531.57
577.43	51606.47
577.59	51435.61
577.75	50623.45
577.92	50153.00
578.08	49902.56
578.24	49869.79
578.40	50391.73
578.56	50667.92
578.72	50756.86
578.88	51175.81
579.04	51011.98
579.21	51178.15
579.37	51299.86
579.53	51512.85
579.69	51524.55
579.85	51758.61
580.01	51098.58
580.17	50862.18
580.33	50677.28
580.49	50756.86
580.65	51061.13
580.82	51515.19
580.98	51377.10
581.14	51112.62
581.30	51124.32
581.46	51222.62
581.62	51269.43
581.78	51290.50
581.94	51466.04
582.10	51341.99
582.26	51578.39
582.42	51730.52
582.58	51442.63
582.74	51349.01
582.90	51337.31
583.06	51309.22
583.22	51260.07
583.38	51070.49
583.54	51026.02
583.70	50918.35
583.86	50845.80
584.02	50908.99
584.18	51091.55
584.34	50770.90
584.50	50883.25
584.66	50380.03
584.82	50265.34
584.98	50040.65
585.14	49848.73
585.30	48687.82
585.46	48842.30
585.62	48732.29
585.78	49111.46
585.94	48769.74
586.10	49090.40
586.26	49448.50
586.42	50150.66
586.58	50134.28
586.74	50131.93
586.90	50054.70
587.06	49942.35
587.22	49984.48
587.38	49434.45
587.54	49352.54
587.70	49270.62
587.86	48652.72
588.02	48502.92
588.18	47992.68
588.34	46700.71
588.49	44671.46
588.65	42550.94
588.81	42127.30
588.97	42438.59
589.13	42834.14
589.29	42377.74
589.45	43276.51
589.61	44638.70
589.77	45792.58
589.93	46932.42
590.08	47433.30
590.24	48065.24
590.40	47725.86
590.56	48062.90
590.72	47657.99
590.88	47096.26
591.04	46932.42
591.20	46993.28
591.35	46370.69
591.51	47384.15
591.67	46712.41
591.83	46948.81
591.99	47166.48
592.15	47175.84
592.31	47260.10
592.46	47164.14
592.62	46637.51
592.78	46756.88
592.94	46738.16
593.10	46869.23
593.26	47157.11
593.41	47288.18
593.57	47044.77
593.73	46637.51
593.89	46148.34
594.05	46047.70
594.20	45886.20
594.36	45588.95
594.52	45067.02
594.68	45179.36
594.84	45500.01
594.99	45806.62
595.15	46099.19
595.31	45640.45
595.47	46459.63
595.62	46464.32
595.78	46541.55
595.94	46993.28
596.10	46658.58
596.25	46450.27
596.41	46007.91
596.57	45558.53
596.73	46099.19
596.88	46560.28
597.04	46211.54
597.20	45743.43
597.36	45574.91
597.51	45989.19
597.67	45773.86
597.83	45331.50
597.99	45418.10
598.14	44500.61
598.30	45509.38
598.46	44762.75
598.61	45301.07
598.77	45497.67
598.93	45605.34
599.09	45689.60
599.24	45876.84
599.40	45312.77
599.56	45153.62
599.71	45331.50
599.87	45411.07
600.03	44968.71
600.18	44889.13
600.34	44399.96
600.50	44034.84
600.65	44334.43
600.81	44825.94
600.97	44390.60
601.12	44652.74
601.28	44561.46
601.44	44067.61
601.59	44299.32
601.75	43585.46
601.91	43370.13
602.06	43679.08
602.22	44011.43
602.37	43913.13
602.53	43978.67
602.69	44526.35
602.84	44729.98
603.00	44987.44
603.16	44971.05
603.31	45146.59
603.47	45027.23
603.62	44669.12
603.78	44947.65
603.94	44610.61
604.09	44456.14
604.25	44456.14
604.40	43995.05
604.56	44369.54
604.71	44596.57
604.87	44547.42
605.03	43966.96
605.18	43793.76
605.34	43868.66
605.49	43732.91
605.65	43847.60
605.80	43515.24
605.96	43566.73
606.12	43276.51
606.27	43203.95
606.43	42983.94
606.58	43173.52
606.74	43566.73
606.89	43665.03
607.05	43702.48
607.20	43470.77
607.36	42342.63
607.51	42902.02
607.67	42595.41
607.82	42595.41
607.98	42478.38
608.13	42225.60
608.29	41607.70
608.44	42010.28
608.60	42220.92
608.75	41933.04
608.91	42043.04
609.06	41851.12
609.22	42295.82
609.37	41680.26
609.53	41930.70
609.68	41235.56
609.84	41202.79
609.99	40734.68
610.15	40828.30
610.30	41261.30
610.46	41511.74
610.61	41851.12
610.76	41991.55
610.92	42085.17
611.07	42567.32
611.23	42550.94
611.38	42213.90
611.54	41532.81
611.69	41303.43
611.84	40196.36
612.00	39908.47
612.15	40219.77
612.31	40917.25
612.46	40371.90
612.62	40641.06
612.77	40954.69
612.92	40898.52
613.08	40226.79
613.23	39454.41
613.39	38569.69
613.54	39035.45
613.69	38937.15
613.85	39182.91
614.00	39442.71
614.15	40074.65
614.31	39627.61
614.46	39735.27
614.62	39592.50
614.77	39435.69
614.92	40011.46
615.08	39416.96
615.23	39580.80
615.38	39225.04
615.54	38569.69
615.69	37830.08
615.84	37097.49
616.00	36912.59
616.15	36769.82
616.30	37270.69
616.46	36769.82
616.61	37242.60
616.76	37888.59
616.92	37713.05
617.07	38141.37
617.22	38181.16
617.37	38335.63
617.53	38642.24
617.68	38829.49
617.83	38794.38
617.99	38466.70
618.14	38555.64
618.29	38541.60
618.45	38005.62
618.60	37415.80
618.75	37532.83
618.90	37397.08
619.06	37366.65
619.21	37949.45
619.36	38272.44
619.51	38026.68
619.67	37436.87
619.82	37823.06
619.97	37825.40
620.12	37565.60
620.28	37539.85
620.43	37998.60
620.58	38099.24
620.73	37656.88
620.89	37446.23
621.04	37429.85
621.19	37132.60
621.34	36615.34
621.49	36357.88
621.65	36236.17
621.80	36538.10
621.95	36212.77
622.10	36769.82
622.25	36643.43
622.41	36486.61
622.56	36032.55
622.71	35793.81
622.86	35243.79
623.01	35971.69
623.16	35920.20
623.32	35833.60
623.47	35784.45
623.62	35728.28
623.77	35225.06
623.92	35105.70
624.07	34604.82
624.23	34321.62
624.38	34534.60
624.53	34499.50
624.68	35388.90
624.83	34375.45
624.98	34419.92
625.13	34195.23
625.29	34132.03
625.44	34415.24
625.59	34061.82
625.74	33804.36
625.89	34155.44
626.04	34485.45
626.19	34703.12
626.34	34499.50
626.49	34099.26
626.65	33729.46
626.80	34162.46
626.95	34003.30
627.10	33956.49
627.25	33207.52
627.40	32233.86
627.55	31824.26
627.70	31505.95
627.85	32165.98
628.00	32191.73
628.15	32636.43
628.30	32975.81
628.45	33106.88
628.60	33259.01
628.76	32510.04
628.91	32921.98
629.06	32535.79
629.21	32383.65
629.36	32074.70
629.51	31952.99
629.66	31810.22
629.81	31398.29
629.96	31880.44
630.11	31456.80
630.26	32233.86
630.41	32238.54
630.56	32208.11
630.71	32278.33
630.86	31950.65
631.01	32142.58
631.16	31632.34
631.31	31054.23
631.46	31002.74
631.61	31182.96
631.76	31424.03
631.91	31449.78
632.06	31622.98
632.21	32486.64
632.36	32095.77
632.51	32048.96
632.66	32011.51
632.81	31945.97
632.96	32051.30
633.10	31592.55
633.25	31735.32
633.40	30967.63
633.55	31026.14
633.70	31145.51
633.85	31030.82
634.00	31178.28
634.15	31494.25
634.30	31283.60
634.45	31009.76
634.60	31227.43
634.75	31674.47
634.90	31143.17
635.05	31175.94
635.19	30808.47
635.34	31178.28
635.49	30850.60
635.64	30927.84
635.79	30827.20
635.94	30263.13
636.09	30455.05
636.24	30801.45
636.39	30904.43
636.53	31075.29
636.68	30349.73
636.83	30955.93
636.98	31122.10
637.13	31089.34
637.28	31440.42
637.43	30787.41
637.57	30916.14
637.72	30525.27
637.87	30253.76
638.02	30300.58
638.17	30370.79
638.32	30408.24
638.46	30548.67
638.61	30529.95
638.76	30525.27
638.91	29970.56
639.06	29685.01
639.20	29502.45
639.35	29614.80
639.50	29048.39
639.65	29369.04
639.80	29319.89
639.94	29626.50
640.09	29462.66
640.24	29556.28
640.39	29392.45
640.54	29003.92
640.68	28821.36
640.83	28725.39
640.98	28252.61
641.13	28229.20
641.27	28781.57
641.42	28706.67
641.57	28247.93
641.72	28500.70
641.86	28760.50
642.01	28690.29
642.16	28931.36
642.31	29163.08
642.45	29153.71
642.60	28863.49
642.75	28573.26
642.90	28421.13
643.04	28723.05
643.19	28299.42
643.34	28098.13
643.48	28404.74
643.63	27908.55
643.78	28135.58
643.93	28432.83
644.07	28692.63
644.22	28868.17
644.37	28395.38
644.51	28261.97
644.66	28116.86
644.81	27910.89
644.95	27871.10
645.10	28023.23
645.25	27513.00
645.39	27393.63
645.54	27587.89
645.69	27227.45
645.83	26574.44
645.98	26359.11
646.13	26719.56
646.27	26771.05
646.42	26803.82
646.57	26843.60
646.71	26476.14
646.86	27056.59
647.00	26635.30
647.15	26181.23
647.30	26246.77
647.44	26094.63
647.59	26010.37
647.74	26111.02
647.88	26136.76
648.03	26001.01
648.17	25881.64
648.32	26038.46
648.47	26611.89
648.61	26160.17
648.76	25715.47
648.90	25432.26
649.05	24805.00
649.20	24276.04
649.34	23896.87
649.49	24299.44
649.63	24919.68
649.78	25603.12
649.92	25518.86
650.07	25876.96
650.21	25919.09
650.36	26199.96
650.51	26349.75
650.65	26373.16
650.80	26349.75
650.94	25942.50
651.09	25507.16
651.23	25071.82
651.38	24826.06
651.52	24217.52
651.67	24896.28
651.81	25188.85
651.96	25317.57
652.10	25652.27
652.25	25156.08
652.39	25713.13
652.54	25163.10
652.68	25273.10
652.83	24933.73
652.97	25275.45
653.12	25230.98
653.26	24938.41
653.41	25483.75
653.55	25310.55
653.70	25441.62
653.84	25003.94
653.99	24877.55
654.13	24222.20
654.27	23810.27
654.42	23861.76
654.56	23688.56
654.71	24247.95
654.85	24079.43
655.00	23428.76
655.14	23311.74
655.29	22904.48
655.43	22368.50
655.57	21745.92
655.72	19950.73
655.86	18743.01
656.01	17757.64
656.15	17603.17
656.30	19110.47
656.44	19864.13
656.58	20800.34
656.73	21689.74
656.87	22127.42
657.01	22480.85
657.16	22520.63
657.30	23372.59
657.45	23342.16
657.59	23510.68
657.73	23580.90
657.88	23477.91
658.02	23529.41
658.16	23672.18
658.31	23742.39
658.45	23510.68
658.60	23267.27
658.74	23166.62
658.88	23080.02
659.03	22707.88
659.17	22618.94
659.31	22607.23
659.46	22778.09
659.60	22953.63
659.74	23332.80
659.89	23585.58
660.03	23421.74
660.17	23403.02
660.32	23297.69
660.46	23101.09
660.60	22855.33
660.74	22874.06
660.89	23068.32
661.03	22857.67
661.17	22693.83
661.32	23152.58
661.46	22632.98
661.60	22946.61
661.74	23091.73
661.89	22705.54
662.03	22979.38
662.17	22759.37
662.31	22618.94
662.46	22679.79
662.60	22885.76
662.74	22305.31
662.88	22104.02
663.03	22008.06
663.17	22010.40
663.31	21858.26
663.45	21979.97
663.60	22127.42
663.74	21820.81
663.88	21766.98
664.02	21975.29
664.17	21888.69
664.31	21785.71
664.45	21923.80
664.59	21460.37
664.73	22118.06
664.88	21790.39
665.02	21261.43
665.16	21710.81
665.30	21617.19
665.44	21752.94
665.59	21062.48
665.73	21256.75
665.87	21209.93
666.01	20669.27
666.15	20666.93
666.29	20893.96
666.44	20975.88
666.58	20840.13
666.72	21298.88
666.86	20903.32
667.00	21355.05
667.14	20833.11
667.28	20631.82
667.43	20278.40
667.57	20709.06
667.71	20451.60
667.85	20421.17
667.99	20411.81
668.13	20507.77
668.27	20671.61
668.41	20498.41
668.56	20587.35
668.70	20486.71
668.84	20350.96
668.98	20365.00
669.12	20327.55
669.26	20458.62
669.40	19775.19
669.54	19744.76
669.68	19978.81
669.82	20175.42
669.96	19826.68
670.10	19573.90
670.25	19845.40
670.39	19679.22
670.53	19580.92
670.67	19601.99
670.81	19379.64
670.95	19407.72
671.09	18717.26
671.23	19051.96
671.37	19016.85
671.51	18899.83
671.65	18878.76
671.79	19058.98
671.93	18932.59
672.07	18977.06
672.21	18801.52
672.35	18939.62
672.49	19042.60
672.63	18965.36
672.77	18731.31
672.91	18640.03
673.05	18696.20
673.19	18750.03
673.33	18473.85
673.47	18530.02
673.61	18581.51
673.75	18333.42
673.89	18616.62
674.03	18377.89
674.17	18616.62
674.31	18576.83
674.45	18120.43
674.59	17954.25
674.73	18012.76
674.87	18038.51
675.01	18045.53
675.15	17809.14
675.29	17905.10
675.43	17481.46
675.56	17764.67
675.70	17703.81
675.84	17715.51
675.98	17165.49
676.12	17565.72
676.26	17582.10
676.40	17392.52
676.54	17294.22
676.68	17135.06
676.82	16835.47
676.96	16823.77
677.10	17078.89
677.23	17284.86
677.37	17067.19
677.51	17027.40
677.65	17036.76
677.79	16472.69
677.93	16685.68
678.07	16428.22
678.21	16379.07
678.34	16086.50
678.48	16262.04
678.62	16130.97
678.76	16161.40
678.90	16023.31
679.04	16128.63
679.18	16182.46
679.31	15793.94
679.45	16114.59
679.59	16009.26
679.73	15999.90
679.87	15712.02
680.00	15695.63
680.14	15630.10
680.28	15529.45
680.42	15438.17
680.56	15147.95
680.70	15302.42
680.83	15014.54
680.97	15075.39
681.11	15147.95
681.25	14899.85
681.39	15201.78
681.52	15136.24
681.66	15159.65
681.80	15243.91
681.94	14941.98
682.07	14951.34
682.21	14761.76
682.35	14834.32
682.49	14462.17
682.62	14523.02
682.76	14417.70
682.90	14295.99
683.04	14541.75
683.17	14342.80
683.31	14321.74
683.45	14045.55
683.59	13958.96
683.72	13905.12
683.86	13626.60
684.00	13752.99
684.13	13607.87
684.27	13579.79
684.41	13596.17
684.55	13486.17
684.68	13350.42
684.82	13579.79
684.96	13425.31
685.09	13427.65
685.23	13305.95
685.37	13132.75
685.50	13156.15
685.64	13022.74
685.78	12917.42
685.91	13067.21
686.05	12884.65
686.19	12739.54
686.32	11829.07
686.46	10616.67
686.60	9095.32
686.73	8617.85
686.87	8187.19
687.01	8051.44
687.14	8243.37
687.28	8409.54
687.42	8596.79
687.55	9188.94
687.69	9757.69
687.82	10148.56
687.96	10537.09
688.10	10335.81
688.23	10415.38
688.37	10132.18
688.50	9991.75
688.64	10076.01
688.78	9731.95
688.91	9736.63
689.05	9816.21
689.18	9657.05
689.32	9504.92
689.46	9596.20
689.59	9944.94
689.73	9811.53
689.86	9905.15
690.00	9818.55
690.13	9949.62
690.27	9844.29
690.41	9809.19
690.54	9949.62
690.68	9970.68
690.81	10171.97
690.95	10097.07
691.08	10038.56
691.22	9951.96
691.35	9970.68
691.49	9750.67
691.62	10111.11
691.76	10073.67
691.89	10251.55
692.03	9853.66
692.16	9914.51
692.30	9998.77
692.43	9781.10
692.57	9738.97
692.70	9558.75
692.84	9383.21
692.97	9458.10
693.11	9521.30
693.24	9547.05
693.38	9423.00
693.51	9259.16
693.65	9200.65
693.78	9343.42
693.92	8961.91
694.05	9085.96
694.19	9107.02
694.32	9109.36
694.45	9167.88
694.59	9029.79
694.72	8828.50
694.86	8924.46
694.99	8854.25
695.13	9004.04
695.26	8674.03
695.39	8554.66
695.53	8744.24
695.66	8643.60
695.80	8643.60
695.93	8805.10
696.07	9029.79
696.20	8802.75
696.33	8879.99
696.47	8924.46
696.60	9004.04
696.73	9212.35
696.87	9207.67
697.00	9266.18
697.14	8800.41
697.27	8957.23
697.40	8638.92
697.54	8332.31
697.67	8266.77
697.80	8390.82
697.94	8313.58
698.07	8383.80
698.21	8332.31
698.34	8161.45
698.47	8063.15
698.61	7815.05
698.74	7744.83
698.87	7712.07
699.01	7789.30
699.14	7698.02
699.27	7903.99
699.40	7864.20
699.54	7845.48
699.67	7492.05
699.80	7393.75
699.94	7674.62
700.07	7513.12
700.20	7452.27
700.34	7171.40
700.47	7166.72
700.60	7180.76
700.73	7208.85
700.87	7438.22
701.00	7358.64
701.13	7066.08
701.26	7070.76
701.40	6897.56
701.53	7126.93
701.66	7066.08
701.79	7176.08
701.93	6829.68
702.06	7103.53
702.19	7005.22
702.32	6888.20
702.46	6736.06
702.59	6757.13
702.72	6778.19
702.85	6906.92
702.99	6841.39
703.12	6960.75
703.25	6736.06
703.38	6810.96
703.51	6654.14
703.65	6832.02
703.78	6729.04
703.91	6586.27
704.04	6647.12
704.17	6649.46
704.31	6731.38
704.44	6544.14
704.57	6619.04
704.70	6825.00
704.83	6494.99
704.96	6532.44
705.10	6623.72
705.23	6455.20
>>>>>End Processed Spectral Data<<<<<
