SpectraSuite Data File
++++++++++++++++++++++++++++++++++++
Date: Mon Oct 07 14:54:57 GMT-05:00 2013
User: price-jones
Dark Spectrum Present: No
Reference Spectrum Present: No
Number of Sampled Component Spectra: 1
Spectrometers: USB2+H05261
Integration Time (usec): 10000 (USB2+H05261)
Spectra Averaged: 1 (USB2+H05261)
Boxcar Smoothing: 0 (USB2+H05261)
Correct for Electrical Dark: No (USB2+H05261)
Strobe/Lamp Enabled: No (USB2+H05261)
Correct for Detector Non-linearity: No (USB2+H05261)
Correct for Stray Light: No (USB2+H05261)
Number of Pixels in Processed Spectrum: 2048
>>>>>Begin Processed Spectral Data<<<<<
365.73	0.00
365.92	0.00
366.12	0.00
366.32	0.00
366.52	0.00
366.72	0.00
366.91	0.00
367.11	0.00
367.31	0.00
367.51	0.00
367.70	0.00
367.90	0.00
368.10	0.00
368.30	0.00
368.49	0.00
368.69	0.00
368.89	0.00
369.09	0.00
369.28	0.00
369.48	0.00
369.68	0.00
369.87	0.00
370.07	0.00
370.27	0.00
370.47	1172.61
370.66	4997.04
370.86	5696.86
371.06	6106.46
371.25	6139.23
371.45	5565.79
371.65	5074.28
371.84	4816.82
372.04	5041.51
372.24	5755.38
372.44	5916.87
372.63	5633.67
372.83	5315.36
373.03	4587.45
373.22	4229.35
373.42	4648.30
373.62	5294.29
373.81	5886.45
374.01	5542.39
374.21	5034.49
374.40	4854.27
374.60	5006.41
374.79	5736.65
374.99	6909.26
375.19	7246.30
375.38	7220.55
375.58	6478.60
375.78	6693.93
375.97	6806.28
376.17	6995.86
376.37	6984.16
376.56	7185.44
376.76	7662.91
376.95	8060.80
377.15	8477.42
377.35	8961.91
377.54	9280.22
377.74	9661.73
377.93	9418.32
378.13	8966.59
378.33	8648.28
378.52	8058.46
378.72	7648.87
378.91	7658.23
379.11	7529.50
379.31	7250.98
379.50	7398.43
379.70	7995.27
379.89	8725.52
380.09	9202.99
380.28	9537.68
380.48	9490.87
380.68	9247.46
380.87	9053.19
381.07	8341.67
381.26	7606.74
381.46	7342.26
381.65	6871.81
381.85	6764.15
382.04	6326.47
382.24	6069.01
382.43	5603.24
382.63	5746.02
382.83	5785.80
383.02	5736.65
383.22	5928.58
383.41	5909.85
383.61	6211.78
383.80	7199.49
384.00	8241.03
384.19	9212.35
384.39	9572.79
384.58	9533.00
384.78	9179.58
384.97	9357.46
385.17	8716.16
385.36	8280.82
385.56	8035.06
385.75	8800.41
385.95	9338.74
386.14	9827.91
386.34	9895.78
386.53	9186.60
386.72	8994.68
386.92	9064.89
387.11	9528.32
387.31	9848.97
387.50	9769.40
387.70	9385.55
387.89	9242.78
388.09	9191.28
388.28	9577.47
388.48	9628.96
388.67	10614.33
388.86	11686.29
389.06	12182.49
389.25	12800.39
389.45	13043.81
389.64	12767.62
389.84	12615.49
390.03	12479.74
390.22	12767.62
390.42	13287.22
390.61	14150.88
390.81	15023.90
391.00	15122.20
391.19	14864.74
391.39	14714.95
391.58	13343.39
391.78	12854.22
391.97	12472.71
392.16	11506.07
392.36	10029.20
392.55	8016.33
392.75	6520.73
392.94	5448.77
393.13	5673.46
393.33	6782.87
393.52	8865.95
393.71	10504.32
393.91	11852.47
394.10	12861.24
394.29	13893.42
394.49	15089.43
394.68	16002.24
394.88	16301.83
395.07	16531.20
395.26	16645.89
395.46	16238.64
395.65	14803.89
395.84	12704.43
396.04	10707.95
396.23	8669.34
396.42	7405.46
396.62	7386.73
396.81	8985.32
397.00	11506.07
397.19	14237.48
397.39	16599.08
397.58	18820.25
397.77	19391.34
397.97	20404.79
398.16	20823.75
398.35	21612.51
398.55	21956.57
398.74	23096.41
398.93	23028.53
399.12	22829.59
399.32	22010.40
399.51	22843.63
399.70	24510.09
399.90	24016.24
400.09	23852.40
400.28	23805.59
400.47	24252.63
400.67	25418.22
400.86	26082.93
401.05	25579.71
401.24	26190.59
401.44	26766.37
401.63	26801.47
401.82	26691.47
402.01	26405.92
402.21	26768.71
402.40	26862.33
402.59	26068.89
402.78	24709.04
402.97	23962.40
403.17	25343.32
403.36	27325.75
403.55	28257.29
403.74	28371.97
403.93	26712.53
404.13	24954.79
404.32	24723.08
404.51	26204.64
404.70	28018.55
404.89	27693.22
405.09	27524.70
405.28	26375.50
405.47	26504.23
405.66	26916.16
405.85	25596.10
406.05	25116.29
406.24	26017.40
406.43	27030.85
406.62	27805.56
406.81	27988.13
407.00	26965.31
407.20	26370.82
407.39	26511.25
407.58	28116.86
407.77	29422.87
407.96	29336.27
408.15	30066.52
408.34	30445.69
408.54	31676.81
408.73	31604.25
408.92	31281.26
409.11	29996.31
409.30	28985.19
409.49	26988.72
409.68	25579.71
409.87	24769.89
410.07	27187.66
410.26	29118.60
410.45	30700.81
410.64	31363.18
410.83	32102.79
411.02	33322.21
411.21	34618.86
411.40	33160.71
411.59	33867.55
411.78	33883.94
411.98	33298.80
412.17	34178.84
412.36	33607.75
412.55	33263.69
412.74	32217.47
412.93	32151.94
413.12	32711.33
413.31	35182.93
413.50	35634.66
413.69	36135.53
413.88	34368.43
414.07	34010.32
414.26	35122.08
414.45	35505.93
414.64	35056.54
414.83	36006.80
415.02	35299.96
415.22	35346.77
415.41	36170.64
415.60	37205.16
415.79	39393.56
415.98	39426.32
416.17	39386.54
416.36	37858.17
416.55	37825.40
416.74	36765.14
416.93	35594.87
417.12	35775.09
417.31	36327.45
417.50	37078.77
417.69	38352.02
417.88	37834.76
418.07	37919.02
418.26	37230.90
418.45	37736.46
418.64	38766.29
418.83	40198.70
419.02	39522.29
419.21	39332.70
419.39	37649.86
419.58	35597.21
419.77	36378.95
419.96	37916.68
420.15	40538.08
420.34	41289.39
420.53	42068.79
420.72	42007.94
420.91	42260.71
421.10	42082.83
421.29	41652.17
421.48	40570.85
421.67	42263.05
421.86	40741.71
422.05	37490.70
422.24	34298.21
422.43	35000.37
422.61	38888.00
422.80	41088.10
422.99	40575.53
423.18	39505.90
423.37	38890.34
423.56	39543.35
423.75	39746.98
423.94	41186.41
424.13	39166.52
424.32	38614.16
424.50	39012.05
424.69	38670.33
424.88	39068.22
425.07	38742.89
425.26	38733.53
425.45	38190.52
425.64	37717.73
425.83	38031.36
426.01	41137.26
426.20	41827.71
426.39	40460.84
426.58	37514.11
426.77	34649.29
426.96	34043.09
427.15	35512.95
427.33	38913.75
427.52	39112.69
427.71	40297.00
427.90	39133.76
428.09	38766.29
428.28	38059.45
428.46	36919.61
428.65	36374.27
428.84	38094.56
429.03	37717.73
429.22	35566.78
429.40	33340.93
429.59	30501.86
429.78	27005.10
429.97	27307.03
430.16	27580.87
430.34	27543.42
430.53	27782.16
430.72	29139.67
430.91	32938.36
431.10	38993.32
431.28	44872.75
431.47	46927.74
431.66	46389.42
431.85	43115.01
432.03	39461.43
432.22	38857.57
432.41	40781.49
432.60	43910.79
432.79	46080.47
432.97	46522.83
433.16	45591.30
433.35	40935.97
433.54	37467.30
433.72	35990.42
433.91	38265.42
434.10	42478.38
434.28	44538.05
434.47	45897.91
434.66	45205.11
434.85	44273.57
435.03	43761.00
435.22	45453.20
435.41	46986.25
435.59	47639.26
435.78	48779.10
435.97	49284.66
436.16	49528.08
436.34	49069.33
436.53	48226.74
436.72	48378.87
436.90	46351.97
437.09	45862.80
437.28	45429.80
437.46	47281.16
437.65	46326.22
437.84	42897.34
438.02	39896.77
438.21	40854.05
438.40	42747.54
438.58	46190.47
438.77	47014.34
438.96	47075.19
439.14	48877.41
439.33	49432.11
439.52	50033.63
439.70	49148.91
439.89	47784.38
440.08	47646.29
440.26	48067.58
440.45	49287.00
440.63	50862.18
440.82	52547.37
441.01	52133.09
441.19	51927.13
441.38	52748.65
441.57	54033.61
441.75	53998.50
441.94	53734.02
442.12	53776.15
442.31	54710.02
442.50	54614.06
442.68	54232.55
442.87	53792.53
443.05	52912.49
443.24	53621.67
443.43	54660.87
443.61	54848.11
443.80	55147.70
443.98	53787.85
444.17	53616.99
444.35	55337.29
444.54	55714.11
444.73	55838.16
444.91	54279.36
445.10	52530.98
445.28	51870.95
445.47	51243.69
445.65	51519.87
445.84	52037.13
446.02	53446.13
446.21	54199.79
446.39	54356.60
446.58	54803.64
446.77	54791.94
446.95	55480.06
447.14	56058.17
447.32	56346.06
447.51	55433.25
447.69	54656.19
447.88	54740.45
448.06	54988.55
448.25	55297.50
448.43	55419.20
448.62	54857.48
448.80	54628.10
448.99	55283.45
449.17	55636.87
449.36	55749.22
449.54	56671.39
449.73	57003.75
449.91	57270.57
450.10	58319.13
450.28	58597.65
450.46	58363.60
450.65	57874.43
450.83	57937.62
451.02	57207.37
451.20	57113.75
451.39	57256.53
451.57	57193.33
451.76	57247.16
451.94	57090.35
452.13	56392.87
452.31	54951.10
452.49	53750.40
452.68	54637.47
452.86	54454.90
453.05	55246.00
453.23	56053.49
453.42	56598.83
453.60	56966.30
453.78	57542.07
453.97	56900.76
454.15	56851.61
454.34	56390.53
454.52	56451.38
454.70	55828.80
454.89	56584.79
455.07	56479.47
455.26	57249.50
455.44	58094.44
455.62	58445.52
455.81	58452.54
455.99	58178.70
456.17	57804.21
456.36	58295.72
456.54	58569.57
456.73	58700.64
456.91	59400.46
457.09	59260.02
457.28	59608.76
457.46	58499.35
457.64	58012.52
457.83	57733.99
458.01	57214.40
458.19	58422.11
458.38	58080.39
458.56	59274.07
458.74	59222.58
458.93	58312.11
459.11	58583.61
459.29	58113.16
459.48	58382.32
459.66	58452.54
459.84	58798.94
460.03	58728.72
460.21	59117.25
460.39	59777.28
460.57	59037.67
460.76	60296.88
460.94	60144.75
461.12	59561.95
461.31	59693.02
461.49	59334.92
461.67	59419.18
461.85	60086.23
462.04	59564.29
462.22	59906.01
462.40	59957.50
462.59	60020.70
462.77	60434.97
462.95	59990.27
463.13	60144.75
463.32	59760.90
463.50	59674.30
463.68	59793.67
463.86	59852.18
464.05	59269.39
464.23	59096.19
464.41	58913.62
464.59	58894.90
464.78	60229.01
464.96	59898.99
465.14	59299.81
465.32	60409.23
465.50	60814.14
465.69	60566.04
465.87	60004.31
466.05	59227.26
466.23	57717.61
466.41	57382.91
466.60	59238.96
466.78	58993.20
466.96	59423.86
467.14	60025.38
467.32	59840.48
467.51	60149.43
467.69	59018.95
467.87	59192.15
468.05	59716.43
468.23	59870.90
468.41	60097.94
468.60	60149.43
468.78	60250.07
468.96	59763.24
469.14	60226.66
469.32	60395.18
469.50	59147.68
469.69	59451.95
469.87	58775.53
470.05	59210.87
470.23	59217.89
470.41	59386.41
470.59	59732.81
470.77	59854.52
470.95	60252.41
471.14	60856.27
471.32	60959.25
471.50	61930.58
471.68	61513.96
471.86	62131.86
472.04	62305.06
472.22	62220.80
472.40	60903.08
472.58	60797.76
472.77	60718.18
472.95	61296.29
473.13	61717.59
473.31	61013.08
473.49	61647.37
473.67	61675.46
473.85	62356.55
474.03	62522.73
474.21	62520.39
474.39	62857.43
474.57	63192.12
474.75	63084.46
474.93	63037.65
475.12	62178.67
475.30	62485.28
475.48	62284.00
475.66	62817.64
475.84	62621.03
476.02	62349.53
476.20	61921.21
476.38	62506.35
476.56	63047.01
476.74	63814.71
476.92	63723.43
477.10	63723.43
477.28	64439.63
477.46	64065.14
477.64	65073.91
477.82	65181.58
478.00	64835.18
478.18	64802.41
478.36	64514.53
478.54	64584.74
478.72	64299.20
478.90	65427.34
479.08	65535.00
479.26	65535.00
479.44	65535.00
479.62	65535.00
479.80	65535.00
479.98	65535.00
480.16	65535.00
480.34	65535.00
480.52	65535.00
480.70	65535.00
480.88	65535.00
481.06	65535.00
481.24	65535.00
481.41	65535.00
481.59	65535.00
481.77	65535.00
481.95	65535.00
482.13	65535.00
482.31	65535.00
482.49	65535.00
482.67	65535.00
482.85	65535.00
483.03	65535.00
483.21	65535.00
483.39	65535.00
483.57	65535.00
483.74	65535.00
483.92	65535.00
484.10	65535.00
484.28	65535.00
484.46	65535.00
484.64	65535.00
484.82	65535.00
485.00	65535.00
485.18	65535.00
485.35	65535.00
485.53	65535.00
485.71	62754.44
485.89	63135.95
486.07	64704.11
486.25	65535.00
486.43	65535.00
486.61	65535.00
486.78	65535.00
486.96	65535.00
487.14	65535.00
487.32	65535.00
487.50	65535.00
487.68	65535.00
487.85	65535.00
488.03	65535.00
488.21	65535.00
488.39	65535.00
488.57	65535.00
488.75	65535.00
488.92	65535.00
489.10	65535.00
489.28	65535.00
489.46	65535.00
489.64	65535.00
489.81	65535.00
489.99	65535.00
490.17	65535.00
490.35	65535.00
490.53	65535.00
490.70	65535.00
490.88	65535.00
491.06	65535.00
491.24	65535.00
491.41	65535.00
491.59	65535.00
491.77	65535.00
491.95	65535.00
492.13	65535.00
492.30	65535.00
492.48	65535.00
492.66	65535.00
492.84	65535.00
493.01	65535.00
493.19	65535.00
493.37	65535.00
493.54	65535.00
493.72	65535.00
493.90	65535.00
494.08	65535.00
494.25	65535.00
494.43	65535.00
494.61	65535.00
494.79	65535.00
494.96	65535.00
495.14	65535.00
495.32	65535.00
495.49	65535.00
495.67	65535.00
495.85	65535.00
496.02	65535.00
496.20	65535.00
496.38	65535.00
496.55	65535.00
496.73	65535.00
496.91	65535.00
497.09	65535.00
497.26	65535.00
497.44	65535.00
497.62	65535.00
497.79	65535.00
497.97	65535.00
498.14	65535.00
498.32	65535.00
498.50	65535.00
498.67	65535.00
498.85	65535.00
499.03	65535.00
499.20	65535.00
499.38	65535.00
499.56	65535.00
499.73	65535.00
499.91	65535.00
500.08	65535.00
500.26	65535.00
500.44	65535.00
500.61	65535.00
500.79	65535.00
500.97	65535.00
501.14	65535.00
501.32	65535.00
501.49	65535.00
501.67	65535.00
501.84	65535.00
502.02	65535.00
502.20	65535.00
502.37	65535.00
502.55	65535.00
502.72	65535.00
502.90	65535.00
503.07	65535.00
503.25	65535.00
503.43	65535.00
503.60	65535.00
503.78	65535.00
503.95	65535.00
504.13	65535.00
504.30	65535.00
504.48	65535.00
504.65	65535.00
504.83	65535.00
505.01	65535.00
505.18	65535.00
505.36	65535.00
505.53	65535.00
505.71	65535.00
505.88	65535.00
506.06	65535.00
506.23	65535.00
506.41	65535.00
506.58	65535.00
506.76	65535.00
506.93	65535.00
507.11	65535.00
507.28	65535.00
507.46	65535.00
507.63	65535.00
507.81	65535.00
507.98	65535.00
508.16	65535.00
508.33	65535.00
508.50	65535.00
508.68	65535.00
508.85	65535.00
509.03	65535.00
509.20	65535.00
509.38	65535.00
509.55	65535.00
509.73	65535.00
509.90	65535.00
510.08	65535.00
510.25	65535.00
510.42	65535.00
510.60	65535.00
510.77	65535.00
510.95	65535.00
511.12	65535.00
511.30	65535.00
511.47	65535.00
511.64	65535.00
511.82	65535.00
511.99	65535.00
512.17	65535.00
512.34	65535.00
512.51	65535.00
512.69	65535.00
512.86	65535.00
513.04	65535.00
513.21	65535.00
513.38	65535.00
513.56	65535.00
513.73	65535.00
513.90	65535.00
514.08	65535.00
514.25	65535.00
514.43	65535.00
514.60	65535.00
514.77	65535.00
514.95	65535.00
515.12	65535.00
515.29	65535.00
515.47	65535.00
515.64	65535.00
515.81	65535.00
515.99	65535.00
516.16	65535.00
516.33	65535.00
516.51	65535.00
516.68	65535.00
516.85	65535.00
517.03	65535.00
517.20	65535.00
517.37	65535.00
517.54	65535.00
517.72	65535.00
517.89	65535.00
518.06	65535.00
518.24	65535.00
518.41	65535.00
518.58	65535.00
518.75	65535.00
518.93	65535.00
519.10	65535.00
519.27	65535.00
519.45	65535.00
519.62	65535.00
519.79	65535.00
519.96	65535.00
520.14	65535.00
520.31	65535.00
520.48	65535.00
520.65	65535.00
520.83	65535.00
521.00	65535.00
521.17	65535.00
521.34	65535.00
521.52	65535.00
521.69	65535.00
521.86	65535.00
522.03	65535.00
522.20	65535.00
522.38	65535.00
522.55	65535.00
522.72	65535.00
522.89	65535.00
523.07	65535.00
523.24	65535.00
523.41	65535.00
523.58	65535.00
523.75	65535.00
523.92	65535.00
524.10	65535.00
524.27	65535.00
524.44	65535.00
524.61	65535.00
524.78	65535.00
524.96	65535.00
525.13	65535.00
525.30	65535.00
525.47	65535.00
525.64	65535.00
525.81	65535.00
525.98	65535.00
526.16	65535.00
526.33	65535.00
526.50	65535.00
526.67	65535.00
526.84	65535.00
527.01	65535.00
527.18	65535.00
527.36	65535.00
527.53	65535.00
527.70	65535.00
527.87	65535.00
528.04	65535.00
528.21	65535.00
528.38	65535.00
528.55	65535.00
528.72	65535.00
528.89	65535.00
529.07	65535.00
529.24	65535.00
529.41	65535.00
529.58	65535.00
529.75	65535.00
529.92	65535.00
530.09	65535.00
530.26	65535.00
530.43	65535.00
530.60	65535.00
530.77	65535.00
530.94	65535.00
531.11	65535.00
531.28	65535.00
531.46	65535.00
531.63	65535.00
531.80	65535.00
531.97	65535.00
532.14	65535.00
532.31	65535.00
532.48	65535.00
532.65	65535.00
532.82	65535.00
532.99	65535.00
533.16	65535.00
533.33	65535.00
533.50	65535.00
533.67	65535.00
533.84	65535.00
534.01	65535.00
534.18	65535.00
534.35	65535.00
534.52	65535.00
534.69	65535.00
534.86	65535.00
535.03	65535.00
535.20	65535.00
535.37	65535.00
535.54	65535.00
535.71	65535.00
535.88	65535.00
536.05	65535.00
536.22	65535.00
536.38	65535.00
536.55	65535.00
536.72	65535.00
536.89	65535.00
537.06	65535.00
537.23	65535.00
537.40	65535.00
537.57	65535.00
537.74	65535.00
537.91	65535.00
538.08	65535.00
538.25	65535.00
538.42	65535.00
538.59	65535.00
538.75	65535.00
538.92	65535.00
539.09	65535.00
539.26	65535.00
539.43	65535.00
539.60	65535.00
539.77	65535.00
539.94	65535.00
540.11	65535.00
540.28	65535.00
540.44	65535.00
540.61	65535.00
540.78	65535.00
540.95	65535.00
541.12	65535.00
541.29	65535.00
541.46	65535.00
541.62	65535.00
541.79	65535.00
541.96	65535.00
542.13	65535.00
542.30	65535.00
542.47	65535.00
542.63	65535.00
542.80	65535.00
542.97	65535.00
543.14	65535.00
543.31	65535.00
543.48	65535.00
543.64	65535.00
543.81	65535.00
543.98	65535.00
544.15	65535.00
544.32	65535.00
544.48	65535.00
544.65	65535.00
544.82	65535.00
544.99	65535.00
545.16	65535.00
545.32	65535.00
545.49	65535.00
545.66	65535.00
545.83	65535.00
546.00	65535.00
546.16	65535.00
546.33	65535.00
546.50	65535.00
546.67	65535.00
546.83	65535.00
547.00	65535.00
547.17	65535.00
547.34	65535.00
547.50	65535.00
547.67	65535.00
547.84	65535.00
548.00	65535.00
548.17	65535.00
548.34	65535.00
548.51	65535.00
548.67	65535.00
548.84	65535.00
549.01	65535.00
549.18	65535.00
549.34	65535.00
549.51	65535.00
549.68	65535.00
549.84	65535.00
550.01	65535.00
550.18	65535.00
550.34	65535.00
550.51	65535.00
550.68	65535.00
550.84	65535.00
551.01	65535.00
551.18	65535.00
551.34	65535.00
551.51	65535.00
551.68	65535.00
551.84	65535.00
552.01	65535.00
552.18	65535.00
552.34	65535.00
552.51	65535.00
552.68	65535.00
552.84	65535.00
553.01	65535.00
553.18	65535.00
553.34	65535.00
553.51	65535.00
553.67	65535.00
553.84	65535.00
554.01	65535.00
554.17	65535.00
554.34	65535.00
554.51	65535.00
554.67	65535.00
554.84	65535.00
555.00	65535.00
555.17	65535.00
555.33	65535.00
555.50	65535.00
555.67	65535.00
555.83	65535.00
556.00	65535.00
556.16	65535.00
556.33	65535.00
556.50	65535.00
556.66	65535.00
556.83	65535.00
556.99	65535.00
557.16	65535.00
557.32	65535.00
557.49	65535.00
557.65	65535.00
557.82	65535.00
557.98	65535.00
558.15	65535.00
558.32	65535.00
558.48	65535.00
558.65	65535.00
558.81	65535.00
558.98	65535.00
559.14	65535.00
559.31	65535.00
559.47	65535.00
559.64	65535.00
559.80	65535.00
559.97	65535.00
560.13	65535.00
560.30	65535.00
560.46	65535.00
560.63	65535.00
560.79	65535.00
560.96	65535.00
561.12	65535.00
561.29	65535.00
561.45	65535.00
561.61	65535.00
561.78	65535.00
561.94	65535.00
562.11	65535.00
562.27	65535.00
562.44	65535.00
562.60	65535.00
562.77	65535.00
562.93	65535.00
563.10	65535.00
563.26	65535.00
563.42	65535.00
563.59	65535.00
563.75	65535.00
563.92	65535.00
564.08	65535.00
564.24	65535.00
564.41	65535.00
564.57	65535.00
564.74	65535.00
564.90	65535.00
565.07	65535.00
565.23	65535.00
565.39	65535.00
565.56	65535.00
565.72	65535.00
565.88	65535.00
566.05	65535.00
566.21	65535.00
566.38	65535.00
566.54	65535.00
566.70	65535.00
566.87	65535.00
567.03	65535.00
567.19	65535.00
567.36	65535.00
567.52	65535.00
567.68	65535.00
567.85	65535.00
568.01	65535.00
568.17	65535.00
568.34	65535.00
568.50	65535.00
568.66	65535.00
568.83	65535.00
568.99	65535.00
569.15	65535.00
569.32	65535.00
569.48	65535.00
569.64	65535.00
569.81	65535.00
569.97	65535.00
570.13	65535.00
570.30	65535.00
570.46	65535.00
570.62	65535.00
570.78	65535.00
570.95	65535.00
571.11	65535.00
571.27	65535.00
571.43	65535.00
571.60	65535.00
571.76	65535.00
571.92	65535.00
572.09	65535.00
572.25	65535.00
572.41	65535.00
572.57	65535.00
572.74	65535.00
572.90	65535.00
573.06	65535.00
573.22	65535.00
573.38	65535.00
573.55	65535.00
573.71	65535.00
573.87	65535.00
574.03	65535.00
574.20	65535.00
574.36	65535.00
574.52	65535.00
574.68	65535.00
574.84	65535.00
575.01	65535.00
575.17	65535.00
575.33	65535.00
575.49	65535.00
575.65	65535.00
575.82	65535.00
575.98	65535.00
576.14	65535.00
576.30	65535.00
576.46	65535.00
576.62	65535.00
576.79	65535.00
576.95	65535.00
577.11	65535.00
577.27	65535.00
577.43	65535.00
577.59	65535.00
577.75	65535.00
577.92	65535.00
578.08	65535.00
578.24	65535.00
578.40	65535.00
578.56	65535.00
578.72	65535.00
578.88	65535.00
579.04	65535.00
579.21	65535.00
579.37	65535.00
579.53	65535.00
579.69	65535.00
579.85	65535.00
580.01	65535.00
580.17	65535.00
580.33	65535.00
580.49	65535.00
580.65	65535.00
580.82	65535.00
580.98	65535.00
581.14	65535.00
581.30	65535.00
581.46	65535.00
581.62	65535.00
581.78	65535.00
581.94	65535.00
582.10	65535.00
582.26	65535.00
582.42	65535.00
582.58	65535.00
582.74	65535.00
582.90	65535.00
583.06	65535.00
583.22	65535.00
583.38	65535.00
583.54	65535.00
583.70	65535.00
583.86	65535.00
584.02	65535.00
584.18	65535.00
584.34	65535.00
584.50	65535.00
584.66	65535.00
584.82	65535.00
584.98	65535.00
585.14	65535.00
585.30	65535.00
585.46	65535.00
585.62	65535.00
585.78	65535.00
585.94	65535.00
586.10	65535.00
586.26	65535.00
586.42	65535.00
586.58	65535.00
586.74	65535.00
586.90	65535.00
587.06	65535.00
587.22	65535.00
587.38	65535.00
587.54	65535.00
587.70	65535.00
587.86	65535.00
588.02	65535.00
588.18	65535.00
588.34	65535.00
588.49	65535.00
588.65	65535.00
588.81	65535.00
588.97	65535.00
589.13	65535.00
589.29	65535.00
589.45	65535.00
589.61	65535.00
589.77	65535.00
589.93	65535.00
590.08	65535.00
590.24	65535.00
590.40	65535.00
590.56	65535.00
590.72	65535.00
590.88	65535.00
591.04	65535.00
591.20	65535.00
591.35	65535.00
591.51	65535.00
591.67	65535.00
591.83	65535.00
591.99	65535.00
592.15	65535.00
592.31	65535.00
592.46	65535.00
592.62	65535.00
592.78	65535.00
592.94	65535.00
593.10	65535.00
593.26	65535.00
593.41	65535.00
593.57	65535.00
593.73	65535.00
593.89	65535.00
594.05	65535.00
594.20	65535.00
594.36	65535.00
594.52	65535.00
594.68	65535.00
594.84	65535.00
594.99	65535.00
595.15	65535.00
595.31	65535.00
595.47	65535.00
595.62	65535.00
595.78	65535.00
595.94	65535.00
596.10	65535.00
596.25	65535.00
596.41	65535.00
596.57	65535.00
596.73	65535.00
596.88	65535.00
597.04	65535.00
597.20	65535.00
597.36	65535.00
597.51	65535.00
597.67	65535.00
597.83	65535.00
597.99	65535.00
598.14	65535.00
598.30	65535.00
598.46	65535.00
598.61	65535.00
598.77	65535.00
598.93	65535.00
599.09	65535.00
599.24	65535.00
599.40	65535.00
599.56	65535.00
599.71	65535.00
599.87	65535.00
600.03	65535.00
600.18	65535.00
600.34	65535.00
600.50	65535.00
600.65	65535.00
600.81	65535.00
600.97	65535.00
601.12	65535.00
601.28	65535.00
601.44	65535.00
601.59	65535.00
601.75	65535.00
601.91	65535.00
602.06	65535.00
602.22	65535.00
602.37	65535.00
602.53	65535.00
602.69	65535.00
602.84	65535.00
603.00	65535.00
603.16	65535.00
603.31	65535.00
603.47	65535.00
603.62	65535.00
603.78	65535.00
603.94	65535.00
604.09	65535.00
604.25	65535.00
604.40	65535.00
604.56	65535.00
604.71	65535.00
604.87	65535.00
605.03	65535.00
605.18	65535.00
605.34	65535.00
605.49	65535.00
605.65	65535.00
605.80	65535.00
605.96	65535.00
606.12	65535.00
606.27	65535.00
606.43	65535.00
606.58	65535.00
606.74	65535.00
606.89	65535.00
607.05	65535.00
607.20	65535.00
607.36	65535.00
607.51	65535.00
607.67	65535.00
607.82	65535.00
607.98	65535.00
608.13	65535.00
608.29	65535.00
608.44	65535.00
608.60	65535.00
608.75	65535.00
608.91	65535.00
609.06	65535.00
609.22	65535.00
609.37	65535.00
609.53	65535.00
609.68	65535.00
609.84	65535.00
609.99	65535.00
610.15	65535.00
610.30	65535.00
610.46	65535.00
610.61	65535.00
610.76	65535.00
610.92	65535.00
611.07	65535.00
611.23	65535.00
611.38	65535.00
611.54	65535.00
611.69	65535.00
611.84	65535.00
612.00	65535.00
612.15	65535.00
612.31	65535.00
612.46	65535.00
612.62	65535.00
612.77	65535.00
612.92	65535.00
613.08	65535.00
613.23	65535.00
613.39	65535.00
613.54	65535.00
613.69	65535.00
613.85	65535.00
614.00	65535.00
614.15	65535.00
614.31	65535.00
614.46	65535.00
614.62	65535.00
614.77	65535.00
614.92	65535.00
615.08	65535.00
615.23	65535.00
615.38	65535.00
615.54	65535.00
615.69	65535.00
615.84	65535.00
616.00	65535.00
616.15	65535.00
616.30	65535.00
616.46	65535.00
616.61	65535.00
616.76	65535.00
616.92	65535.00
617.07	65535.00
617.22	65535.00
617.37	65535.00
617.53	65535.00
617.68	65535.00
617.83	65535.00
617.99	65535.00
618.14	65535.00
618.29	65535.00
618.45	65535.00
618.60	65535.00
618.75	65535.00
618.90	65535.00
619.06	65535.00
619.21	65535.00
619.36	65535.00
619.51	65535.00
619.67	65535.00
619.82	65535.00
619.97	65535.00
620.12	65535.00
620.28	65535.00
620.43	65535.00
620.58	65535.00
620.73	65535.00
620.89	65535.00
621.04	65535.00
621.19	65535.00
621.34	65535.00
621.49	65535.00
621.65	65535.00
621.80	65535.00
621.95	65535.00
622.10	65535.00
622.25	65535.00
622.41	65535.00
622.56	65535.00
622.71	65535.00
622.86	65535.00
623.01	65535.00
623.16	65535.00
623.32	65535.00
623.47	65535.00
623.62	65535.00
623.77	65535.00
623.92	65535.00
624.07	65535.00
624.23	65535.00
624.38	65535.00
624.53	65535.00
624.68	65535.00
624.83	65535.00
624.98	65535.00
625.13	65371.16
625.29	65535.00
625.44	65272.86
625.59	64734.54
625.74	65448.40
625.89	65535.00
626.04	65535.00
626.19	65373.50
626.34	65535.00
626.49	65535.00
626.65	65535.00
626.80	65535.00
626.95	65535.00
627.10	65535.00
627.25	65305.63
627.40	64746.24
627.55	63505.76
627.70	64250.05
627.85	64271.11
628.00	64292.18
628.15	64252.39
628.30	64484.10
628.45	64556.66
628.60	64837.52
628.76	65176.90
628.91	64542.61
629.06	64448.99
629.21	64488.78
629.36	64294.52
629.51	64493.46
629.66	64446.65
629.81	64500.48
629.96	64376.43
630.11	64348.35
630.26	64200.89
630.41	63905.99
630.56	64015.99
630.71	64046.42
630.86	63454.26
631.01	64041.74
631.16	64083.87
631.31	63683.64
631.46	64097.91
631.61	64374.09
631.76	63669.59
631.91	64346.01
632.06	64432.61
632.21	65134.77
632.36	65347.76
632.51	64898.37
632.66	64601.13
632.81	64896.03
632.96	64598.79
633.10	64870.29
633.25	64640.92
633.40	64245.36
633.55	64280.47
633.70	63578.31
633.85	63920.03
634.00	63966.84
634.15	63587.67
634.30	63250.64
634.45	64060.46
634.60	64493.46
634.75	64865.61
634.90	65249.45
635.05	65509.25
635.19	65087.96
635.34	64383.46
635.49	63578.31
635.64	63688.32
635.79	64172.81
635.94	64378.78
636.09	63913.01
636.24	63824.07
636.39	64062.80
636.53	64397.50
636.68	63824.07
636.83	63332.56
636.98	64364.73
637.13	64381.12
637.28	64275.79
637.43	64617.51
637.57	65080.94
637.72	64500.48
637.87	64643.26
638.02	64451.33
638.17	64460.69
638.32	63454.26
638.46	63037.65
638.61	63252.98
638.76	63398.09
638.91	64128.34
639.06	63505.76
639.20	63487.03
639.35	63423.84
639.50	62927.64
639.65	62466.56
639.80	61970.36
639.94	62679.55
640.09	61881.42
640.24	62164.63
640.39	62543.80
640.54	61808.87
640.68	62195.06
640.83	62450.17
640.98	62775.51
641.13	62382.30
641.27	62569.54
641.42	62426.77
641.57	61944.62
641.72	62712.31
641.86	62504.01
642.01	63264.68
642.16	63072.76
642.31	62115.48
642.45	62967.43
642.60	63274.04
642.75	63004.88
642.90	62464.22
643.04	62274.63
643.19	61748.01
643.34	61155.86
643.48	60999.04
643.63	61511.62
643.78	62099.09
643.93	62944.03
644.07	61970.36
644.22	61455.45
644.37	61523.32
644.51	61083.30
644.66	61036.49
644.81	61703.54
644.95	60851.59
645.10	61310.33
645.25	61946.96
645.39	61881.42
645.54	61083.30
645.69	60860.95
645.83	60566.04
645.98	60505.19
646.13	60954.57
646.27	61284.59
646.42	60746.26
646.57	61144.16
646.71	61240.12
646.86	60456.04
647.00	60196.24
647.15	58829.37
647.30	59173.42
647.44	59884.95
647.59	60491.15
647.74	60821.16
647.88	59964.52
648.03	60310.92
648.17	60867.97
648.32	60952.23
648.47	59952.82
648.61	60214.96
648.76	59421.52
648.90	59416.84
649.05	59250.66
649.20	59255.34
649.34	59355.99
649.49	59187.47
649.63	59580.68
649.78	59952.82
649.92	59866.22
650.07	60292.20
650.21	59283.43
650.36	59891.97
650.51	60191.56
650.65	59917.71
650.80	60172.83
650.94	60076.87
651.09	59667.28
651.23	59952.82
651.38	59370.03
651.52	58869.15
651.67	59126.61
651.81	59866.22
651.96	60140.07
652.10	59870.90
652.25	59456.63
652.39	59964.52
652.54	60205.60
652.68	60505.19
652.83	60296.88
652.97	60360.08
653.12	60491.15
653.26	60945.21
653.41	59465.99
653.55	59622.81
653.70	59456.63
653.84	59143.00
653.99	58492.33
654.13	58583.61
654.27	57588.88
654.42	57317.38
654.56	58885.54
654.71	58148.27
654.85	57836.98
655.00	56802.46
655.14	56528.62
655.29	55849.86
655.43	54934.71
655.57	54321.49
655.72	51629.88
655.86	48299.30
656.01	47386.49
656.15	49504.67
656.30	52041.81
656.44	53893.18
656.58	53811.26
656.73	56037.11
656.87	57158.22
657.01	57469.51
657.16	57783.15
657.30	58309.77
657.45	58585.95
657.59	58445.52
657.73	57773.78
657.88	58159.97
658.02	57036.51
658.16	56509.89
658.31	56942.89
658.45	57329.08
658.60	57034.17
658.74	57071.62
658.88	56811.82
659.03	57317.38
659.17	57036.51
659.31	56427.98
659.46	56786.08
659.60	57155.88
659.74	57656.76
659.89	57464.83
660.03	57766.76
660.17	57446.11
660.32	56376.48
660.46	56987.36
660.60	57317.38
660.74	58054.65
660.89	57869.75
661.03	57998.48
661.17	56987.36
661.32	56048.81
661.46	56657.35
661.60	56327.33
661.74	57902.51
661.89	57130.14
662.03	56772.03
662.17	57134.82
662.31	57073.96
662.46	56629.26
662.60	56743.95
662.74	55657.94
662.88	55477.72
663.03	54028.93
663.17	54731.09
663.31	54822.37
663.45	54590.66
663.60	54817.69
663.74	55526.87
663.88	55664.96
664.02	55772.63
664.17	56296.91
664.31	55849.86
664.45	55681.34
664.59	55552.62
664.73	56570.75
664.88	56622.24
665.02	55941.14
665.16	56594.15
665.30	56533.30
665.44	56023.06
665.59	55721.13
665.73	55482.40
665.87	55327.92
666.01	55540.91
666.15	55150.04
666.29	55304.52
666.44	55229.62
666.58	54796.62
666.72	55533.89
666.86	54920.67
667.00	55784.33
667.14	55798.37
667.28	54894.92
667.43	53829.98
667.57	53935.30
667.71	54188.08
667.85	54532.14
667.99	55047.06
668.13	55433.25
668.27	54892.58
668.41	54255.96
668.56	54129.57
668.70	53481.24
668.84	53750.40
668.98	53612.31
669.12	54944.08
669.26	54553.21
669.40	53284.64
669.54	53298.68
669.68	53680.19
669.82	53918.92
669.96	53874.45
670.10	53183.99
670.25	53338.47
670.39	52516.94
670.53	52381.19
670.67	52343.74
670.81	52123.73
670.95	51840.53
671.09	51807.76
671.23	52081.60
671.37	52418.64
671.51	52903.13
671.65	51590.09
671.79	50965.17
671.93	51674.35
672.07	51863.93
672.21	50199.81
672.35	50473.65
672.49	51058.79
672.63	52254.80
672.77	52231.40
672.91	52264.16
673.05	52584.82
673.19	52193.95
673.33	51643.92
673.47	51524.55
673.61	50319.18
673.75	49766.81
673.89	50611.74
674.03	49160.61
674.17	48844.64
674.31	49310.41
674.45	50270.03
674.59	50806.01
674.73	50143.64
674.87	50894.95
675.01	51220.28
675.15	50857.50
675.29	50251.30
675.43	51206.24
675.56	50274.71
675.70	50263.00
675.84	51051.76
675.98	50330.88
676.12	49532.76
676.26	49434.45
676.40	49673.19
676.54	49310.41
676.68	48776.76
676.82	47838.21
676.96	49902.56
677.10	49083.37
677.23	49965.76
677.37	49329.13
677.51	48151.84
677.65	47714.16
677.79	48470.15
677.93	47358.40
678.07	46492.40
678.21	46595.38
678.34	46003.23
678.48	45490.65
678.62	47129.03
678.76	47306.91
678.90	46337.93
679.04	47388.83
679.18	48098.01
679.31	45757.47
679.45	46183.45
679.59	47356.06
679.73	45933.01
679.87	45790.24
680.00	44582.52
680.14	46373.03
680.28	45759.81
680.42	45804.28
680.56	44322.72
680.70	44481.88
680.83	44521.67
680.97	44011.43
681.11	43957.60
681.25	45272.98
681.39	46171.75
681.52	45921.31
681.66	45413.41
681.80	44388.26
681.94	43978.67
682.07	44844.66
682.21	42838.83
682.35	41427.48
682.49	39974.01
682.62	40847.03
682.76	41422.80
682.90	42976.92
683.04	42054.75
683.17	42815.42
683.31	43304.59
683.45	42462.00
683.59	41024.91
683.72	41289.39
683.86	42026.66
684.00	40474.88
684.13	40308.71
684.27	40664.47
684.41	41956.44
684.55	43419.28
684.68	40910.22
684.82	39257.81
684.96	39194.61
685.09	38436.28
685.23	38951.20
685.37	38761.61
685.50	39402.92
685.64	40624.68
685.78	39772.72
685.91	39810.17
686.05	40418.71
686.19	37586.66
686.32	35391.24
686.46	29837.15
686.60	27080.00
686.73	25287.15
686.87	23969.43
687.01	24484.34
687.14	25771.64
687.28	25453.33
687.42	26824.88
687.55	28669.22
687.69	28912.64
687.82	29067.11
687.96	30857.62
688.10	31009.76
688.23	30925.50
688.37	30876.35
688.50	29347.98
688.64	29212.23
688.78	28821.36
688.91	28229.20
689.05	29514.16
689.18	29638.20
689.32	28671.56
689.46	28727.74
689.59	28819.02
689.73	29619.48
689.86	29647.57
690.00	30380.15
690.13	31449.78
690.27	31508.29
690.41	30693.79
690.54	30466.75
690.68	29207.55
690.81	29151.37
690.95	28601.35
691.08	29713.10
691.22	28875.19
691.35	30871.67
691.49	30747.62
691.62	30539.31
691.76	30281.85
691.89	29741.19
692.03	29809.06
692.16	29357.34
692.30	29362.02
692.43	30103.97
692.57	29570.33
692.70	29986.94
692.84	28704.33
692.97	27435.76
693.11	27103.40
693.24	27655.77
693.38	27826.63
693.51	28088.77
693.65	27281.28
693.78	27068.30
693.92	27257.88
694.05	26995.74
694.19	28290.06
694.32	28821.36
694.45	28673.90
694.59	28634.11
694.72	28865.83
694.86	26504.23
694.99	25319.92
695.13	25668.66
695.26	25146.72
695.39	26043.14
695.53	26602.53
695.66	26728.92
695.80	27213.41
695.93	26881.05
696.07	27213.41
696.20	28016.21
696.33	27145.53
696.47	28027.92
696.60	27529.38
696.73	27859.40
696.87	28280.69
697.00	26235.06
697.14	25642.91
697.27	25640.57
697.40	26157.83
697.54	25399.49
697.67	24617.75
697.80	24308.80
697.94	24025.60
698.07	23964.75
698.21	23997.51
698.34	24360.30
698.47	22714.90
698.61	23065.98
698.74	23817.29
698.87	24135.60
699.01	23660.48
699.14	23639.41
699.27	23475.57
699.40	22092.32
699.54	21373.77
699.67	21682.72
699.80	22813.20
699.94	22459.78
700.07	21137.38
700.20	20767.57
700.34	21713.15
700.47	21778.68
700.60	21298.88
700.73	21240.36
700.87	21249.72
701.00	21486.12
701.13	20950.14
701.26	20463.30
701.40	21270.79
701.53	21022.69
701.66	21090.57
701.79	20924.39
701.93	20657.57
702.06	20306.49
702.19	20060.73
702.32	19358.57
702.46	19534.11
702.59	19058.98
702.72	19529.43
702.85	20077.12
702.99	19807.95
703.12	20493.73
703.25	19742.42
703.38	19557.52
703.51	19541.13
703.65	19367.93
703.78	19183.03
703.91	19941.36
704.04	20032.65
704.17	19372.61
704.31	19613.69
704.44	19817.32
704.57	19768.16
704.70	20051.37
704.83	19730.72
704.96	19812.63
705.10	19363.25
705.23	19269.63
>>>>>End Processed Spectral Data<<<<<
