SpectraSuite Data File
++++++++++++++++++++++++++++++++++++
Date: Mon Oct 07 14:53:17 GMT-05:00 2013
User: price-jones
Dark Spectrum Present: No
Reference Spectrum Present: No
Number of Sampled Component Spectra: 1
Spectrometers: USB2+H05261
Integration Time (usec): 100000 (USB2+H05261)
Spectra Averaged: 1 (USB2+H05261)
Boxcar Smoothing: 0 (USB2+H05261)
Correct for Electrical Dark: No (USB2+H05261)
Strobe/Lamp Enabled: No (USB2+H05261)
Correct for Detector Non-linearity: No (USB2+H05261)
Correct for Stray Light: No (USB2+H05261)
Number of Pixels in Processed Spectrum: 2048
>>>>>Begin Processed Spectral Data<<<<<
365.73	0.00
365.92	0.00
366.12	0.00
366.32	0.00
366.52	0.00
366.72	0.00
366.91	0.00
367.11	0.00
367.31	0.00
367.51	0.00
367.70	0.00
367.90	0.00
368.10	0.00
368.30	0.00
368.49	0.00
368.69	0.00
368.89	0.00
369.09	0.00
369.28	0.00
369.48	0.00
369.68	0.00
369.87	0.00
370.07	0.00
370.27	0.00
370.47	1746.04
370.66	7384.39
370.86	8475.08
371.06	9139.79
371.25	8973.61
371.45	8112.30
371.65	7349.28
371.84	7033.31
372.04	7417.16
372.24	8229.32
372.44	8168.47
372.63	8170.81
372.83	7536.52
373.03	6843.73
373.22	6307.74
373.42	6705.63
373.62	7679.30
373.81	8241.03
374.01	7913.35
374.21	7136.29
374.40	6860.11
374.60	7372.69
374.79	8381.46
374.99	9486.19
375.19	9874.72
375.38	9881.74
375.58	9369.16
375.78	9064.89
375.97	9270.86
376.17	9451.08
376.37	9753.01
376.56	10090.05
376.76	10525.39
376.95	11321.17
377.15	12088.87
377.35	12538.25
377.54	12669.32
377.74	12814.43
377.93	12861.24
378.13	12491.44
378.33	11903.96
378.52	11042.65
378.72	10729.02
378.91	10586.24
379.11	10277.29
379.31	9848.97
379.50	9984.73
379.70	11002.86
379.89	11793.96
380.09	12404.84
380.28	13008.70
380.48	12636.55
380.68	12379.09
380.87	12074.82
381.07	11044.99
381.26	10253.89
381.46	9729.61
381.65	9310.65
381.85	9179.58
382.04	8596.79
382.24	8243.37
382.43	7705.04
382.63	7541.21
382.83	7529.50
383.02	7478.01
383.22	7590.36
383.41	7789.30
383.61	8327.63
383.80	9603.22
384.00	10637.73
384.19	12070.14
384.39	12580.38
384.58	12489.10
384.78	12016.31
384.97	11854.81
385.17	11379.68
385.36	10469.22
385.56	10377.94
385.75	10761.78
385.95	11784.60
386.14	12779.32
386.34	12147.38
386.53	11810.34
386.72	11225.21
386.92	11676.93
387.11	12093.55
387.31	12510.16
387.50	12369.73
387.70	12049.08
387.89	11908.65
388.09	11925.03
388.28	11903.96
388.48	12245.68
388.67	13277.86
388.86	14464.51
389.06	15281.36
389.25	16217.57
389.45	16414.18
389.64	16086.50
389.84	15927.35
390.03	15693.29
390.22	15758.83
390.42	16350.98
390.61	17589.13
390.81	18796.84
391.00	18815.57
391.19	18640.03
391.39	17900.42
391.58	16554.61
391.78	15847.77
391.97	15342.21
392.16	13973.00
392.36	12582.72
392.55	10267.93
392.75	8119.32
392.94	6878.83
393.13	6911.60
393.33	8388.48
393.52	10532.41
393.71	12697.41
393.91	14059.60
394.10	15733.08
394.29	17233.36
394.49	18097.02
394.68	19508.37
394.88	19337.51
395.07	20009.24
395.26	20102.86
395.46	18733.65
395.65	17886.37
395.84	15445.20
396.04	13121.04
396.23	10738.38
396.42	9067.24
396.62	9022.77
396.81	10719.65
397.00	13736.60
397.19	16961.86
397.39	19859.45
397.58	22272.54
397.77	23103.43
397.97	24407.11
398.16	24563.92
398.35	25340.98
398.55	26057.18
398.74	26881.05
398.93	27318.73
399.12	27101.06
399.32	26244.43
399.51	26834.24
399.70	28465.60
399.90	27683.86
400.09	27875.78
400.28	27494.27
400.47	27847.69
400.67	29172.44
400.86	29895.66
401.05	29682.67
401.24	29949.50
401.44	30228.02
401.63	30551.01
401.82	30253.76
402.01	30829.54
402.21	30876.35
402.40	31260.20
402.59	29961.20
402.78	28610.71
402.97	28276.01
403.17	29465.00
403.36	30979.33
403.55	31938.95
403.74	32940.70
403.93	30478.46
404.13	28994.56
404.32	28175.37
404.51	29809.06
404.70	31768.09
404.89	31599.57
405.09	30984.01
405.28	30078.22
405.47	30115.67
405.66	29881.62
405.85	29441.60
406.05	28767.52
406.24	29144.35
406.43	30221.00
406.62	31208.70
406.81	31236.79
407.00	30031.41
407.20	29427.56
407.39	29720.12
407.58	31213.38
407.77	32201.09
407.96	33179.43
408.15	33448.60
408.34	33455.62
408.54	35246.13
408.73	35089.31
408.92	34696.10
409.11	33574.98
409.30	32055.98
409.49	30167.16
409.68	28699.65
409.87	27971.74
410.07	29509.47
410.26	32285.35
410.45	33748.18
410.64	34785.04
410.83	36191.70
411.02	36973.44
411.21	37539.85
411.40	36378.95
411.59	36999.19
411.78	37102.17
411.98	36950.04
412.17	36964.08
412.36	36402.35
412.55	36863.44
412.74	35459.12
412.93	34883.34
413.12	35082.29
413.31	38696.08
413.50	38611.82
413.69	39463.77
413.88	37722.41
414.07	36847.05
414.26	37649.86
414.45	39026.09
414.64	38822.47
414.83	39208.65
415.02	38487.77
415.22	38513.52
415.41	39133.76
415.60	40411.69
415.79	41633.45
415.98	42136.66
416.17	42181.13
416.36	41336.20
416.55	41083.42
416.74	39423.98
416.93	38394.15
417.12	38817.78
417.31	39014.39
417.50	39590.16
417.69	40589.57
417.88	40612.98
418.07	40371.90
418.26	39391.22
418.45	40074.65
418.64	41474.29
418.83	42604.77
419.02	41682.60
419.21	41684.94
419.39	40435.10
419.58	38712.46
419.77	38621.18
419.96	40465.52
420.15	41808.99
420.34	42719.46
420.53	44271.23
420.72	45123.19
420.91	44844.66
421.10	44449.11
421.29	44137.82
421.48	42717.12
421.67	44088.67
421.86	42787.33
422.05	39969.33
422.24	36657.47
422.43	36643.43
422.61	40189.34
422.80	42782.65
422.99	43005.00
423.18	41308.11
423.37	40266.58
423.56	40947.67
423.75	41593.66
423.94	42398.80
424.13	39793.79
424.32	40538.08
424.50	40610.64
424.69	40121.46
424.88	40563.82
425.07	40023.16
425.26	39910.82
425.45	39519.95
425.64	38859.91
425.83	39557.39
426.01	41177.04
426.20	42351.99
426.39	41530.47
426.58	38607.14
426.77	36449.16
426.96	34686.74
427.15	36629.38
427.33	39643.99
427.52	40905.54
427.71	40222.11
427.90	40044.23
428.09	39501.22
428.28	39077.58
428.46	37434.53
428.65	37745.82
428.84	38658.63
429.03	38455.00
429.22	36514.70
429.40	34396.51
429.59	30927.84
429.78	28276.01
429.97	28531.13
430.16	28238.56
430.34	28449.21
430.53	28816.68
430.72	29724.80
430.91	32797.93
431.10	38490.11
431.28	43985.69
431.47	47035.41
431.66	46873.91
431.85	43040.11
432.03	39976.35
432.22	39143.12
432.41	40673.83
432.60	44547.42
432.79	46164.73
432.97	46665.60
433.16	44987.44
433.35	41860.48
433.54	37715.39
433.72	36353.20
433.91	37706.03
434.10	41511.74
434.28	43892.07
434.47	45963.44
434.66	45352.56
434.85	44311.02
435.03	44563.80
435.22	45340.86
435.41	47777.36
435.59	47292.86
435.78	47835.87
435.97	49214.44
436.16	48718.25
436.34	48493.56
436.53	47138.39
436.72	47356.06
436.90	45425.12
437.09	45649.81
437.28	45013.18
437.46	46284.09
437.65	46061.74
437.84	42637.54
438.02	39981.03
438.21	40266.58
438.40	41897.93
438.58	45464.91
438.77	46632.83
438.96	46937.10
439.14	48481.86
439.33	49090.40
439.52	49598.29
439.70	48769.74
439.89	47721.18
440.08	46532.19
440.26	46801.35
440.45	47681.39
440.63	50181.09
440.82	51812.44
441.01	51271.78
441.19	51168.79
441.38	51847.55
441.57	52858.66
441.75	52992.07
441.94	53235.48
442.12	53169.95
442.31	53609.97
442.50	53422.73
442.68	52811.85
442.87	52528.64
443.05	52446.72
443.24	53322.08
443.43	53675.51
443.61	54010.20
443.80	54279.36
443.98	52570.77
444.17	52472.47
444.35	54010.20
444.54	54618.74
444.73	54604.70
444.91	53176.97
445.10	51875.63
445.28	50539.19
445.47	49689.57
445.65	50429.18
445.84	51842.87
446.02	52378.85
446.21	52928.87
446.39	53036.54
446.58	53420.39
446.77	53745.72
446.95	54042.97
447.14	54995.57
447.32	55316.22
447.51	54445.54
447.69	53535.07
447.88	53462.52
448.06	53921.26
448.25	54134.25
448.43	54424.48
448.62	53874.45
448.80	53670.82
448.99	53968.07
449.17	54148.29
449.36	54064.03
449.54	55269.41
449.73	55231.96
449.91	55955.19
450.10	56713.52
450.28	56802.46
450.46	56795.44
450.65	56596.49
450.83	56535.64
451.02	55732.84
451.20	55910.72
451.39	55749.22
451.57	55978.59
451.76	55913.06
451.94	55267.07
452.13	54906.63
452.31	53647.42
452.49	51978.62
452.68	52392.89
452.86	52460.77
453.05	53193.36
453.23	54141.27
453.42	54855.14
453.60	55320.90
453.78	55753.90
453.97	55423.89
454.15	55433.25
454.34	54754.49
454.52	55068.12
454.70	54190.42
454.89	54457.24
455.07	54588.31
455.26	55145.36
455.44	55924.76
455.62	56479.47
455.81	56694.80
455.99	56308.61
456.17	56020.72
456.36	55812.41
456.54	56928.85
456.73	56940.55
456.91	57549.09
457.09	57333.76
457.28	57965.71
457.46	56636.28
457.64	56594.15
457.83	55749.22
458.01	55159.41
458.19	56191.58
458.38	56369.46
458.56	56968.64
458.74	56797.78
458.93	56776.72
459.11	56577.77
459.29	56271.16
459.48	56645.65
459.66	56161.15
459.84	56647.99
460.03	56921.83
460.21	56706.50
460.39	57467.17
460.57	57315.04
460.76	57790.17
460.94	58038.26
461.12	57415.68
461.31	57436.75
461.49	57516.32
461.67	57598.24
461.85	58176.36
462.04	58031.24
462.22	58171.67
462.40	57968.05
462.59	58000.82
462.77	58159.97
462.95	58035.92
463.13	57628.67
463.32	57329.08
463.50	57340.78
463.68	57481.22
463.86	57654.42
464.05	57200.35
464.23	56488.83
464.41	56425.64
464.59	56079.24
464.78	57387.60
464.96	57251.84
465.14	56889.06
465.32	57715.27
465.50	58391.68
465.69	58461.90
465.87	57982.09
466.05	57209.71
466.23	55856.88
466.41	55524.53
466.60	56303.93
466.78	56142.43
466.96	57076.30
467.14	57144.18
467.32	57443.77
467.51	57600.58
467.69	56018.38
467.87	56680.75
468.05	57265.89
468.23	57013.11
468.41	56938.21
468.60	57071.62
468.78	57111.41
468.96	57165.24
469.14	57600.58
469.32	57858.04
469.50	56470.11
469.69	56652.67
469.87	56545.00
470.05	56203.28
470.23	56140.09
470.41	56156.47
470.59	56781.40
470.77	56933.53
470.95	57301.00
471.14	57478.88
471.32	57607.61
471.50	59030.65
471.68	59121.93
471.86	59426.20
472.04	59686.00
472.22	59615.79
472.40	58209.12
472.58	58241.89
472.77	57736.34
472.95	58307.43
473.13	59318.54
473.31	58546.16
473.49	58717.02
473.67	58897.24
473.85	59023.63
474.03	59700.04
474.21	59756.22
474.39	59739.83
474.57	59917.71
474.75	60013.68
474.93	59934.10
475.12	59330.24
475.30	59140.66
475.48	59608.76
475.66	59943.46
475.84	59664.94
476.02	59487.06
476.20	58918.31
476.38	59676.64
476.56	60416.25
476.74	60549.66
476.92	60622.22
477.10	61024.79
477.28	61563.11
477.46	61815.89
477.64	61925.89
477.82	61851.00
478.00	61820.57
478.18	61579.49
478.36	61572.47
478.54	61731.63
478.72	61911.85
478.90	62681.89
479.08	62988.50
479.26	63238.93
479.44	63138.29
479.62	62997.86
479.80	62920.62
479.98	62918.28
480.16	63245.96
480.34	63112.55
480.52	63217.87
480.70	63367.66
480.88	63468.31
481.06	63826.41
481.24	63950.46
481.41	64465.38
481.59	65197.96
481.77	64725.17
481.95	64338.99
482.13	64353.03
482.31	64317.92
482.49	64652.62
482.67	64746.24
482.85	64933.48
483.03	65289.24
483.21	65511.59
483.39	65535.00
483.57	64842.20
483.74	64816.46
483.92	65137.11
484.10	65057.53
484.28	65464.78
484.46	65535.00
484.64	65535.00
484.82	65535.00
485.00	65396.91
485.18	64811.77
485.35	63901.31
485.53	61930.58
485.71	59875.58
485.89	59800.69
486.07	61172.24
486.25	63304.47
486.43	64362.39
486.61	64444.31
486.78	64486.44
486.96	64673.68
487.14	65326.69
487.32	65535.00
487.50	65535.00
487.68	65535.00
487.85	65535.00
488.03	65535.00
488.21	65535.00
488.39	65535.00
488.57	65535.00
488.75	65535.00
488.92	65535.00
489.10	65535.00
489.28	65535.00
489.46	65535.00
489.64	65535.00
489.81	65535.00
489.99	65535.00
490.17	65535.00
490.35	65535.00
490.53	65535.00
490.70	65535.00
490.88	65535.00
491.06	65535.00
491.24	65535.00
491.41	65535.00
491.59	65535.00
491.77	65535.00
491.95	65535.00
492.13	65535.00
492.30	65535.00
492.48	65535.00
492.66	65535.00
492.84	65535.00
493.01	65535.00
493.19	65535.00
493.37	65535.00
493.54	65535.00
493.72	65535.00
493.90	65535.00
494.08	65535.00
494.25	65535.00
494.43	65535.00
494.61	65535.00
494.79	65535.00
494.96	65535.00
495.14	65535.00
495.32	65535.00
495.49	65535.00
495.67	65535.00
495.85	65535.00
496.02	65535.00
496.20	65535.00
496.38	65535.00
496.55	65535.00
496.73	65535.00
496.91	65535.00
497.09	65535.00
497.26	65535.00
497.44	65535.00
497.62	65535.00
497.79	65535.00
497.97	65535.00
498.14	65535.00
498.32	65535.00
498.50	65535.00
498.67	65535.00
498.85	65535.00
499.03	65535.00
499.20	65535.00
499.38	65535.00
499.56	65535.00
499.73	65535.00
499.91	65535.00
500.08	65535.00
500.26	65535.00
500.44	65535.00
500.61	65535.00
500.79	65535.00
500.97	65535.00
501.14	65535.00
501.32	65535.00
501.49	65535.00
501.67	65535.00
501.84	65535.00
502.02	65535.00
502.20	65535.00
502.37	65535.00
502.55	65535.00
502.72	65535.00
502.90	65535.00
503.07	65535.00
503.25	65535.00
503.43	65535.00
503.60	65535.00
503.78	65535.00
503.95	65535.00
504.13	65535.00
504.30	65535.00
504.48	65535.00
504.65	65535.00
504.83	65535.00
505.01	65535.00
505.18	65535.00
505.36	65535.00
505.53	65535.00
505.71	65535.00
505.88	65535.00
506.06	65535.00
506.23	65535.00
506.41	65535.00
506.58	65535.00
506.76	65535.00
506.93	65535.00
507.11	65535.00
507.28	65535.00
507.46	65535.00
507.63	65535.00
507.81	65535.00
507.98	65535.00
508.16	65535.00
508.33	65535.00
508.50	65535.00
508.68	65535.00
508.85	65535.00
509.03	65535.00
509.20	65535.00
509.38	65535.00
509.55	65535.00
509.73	65535.00
509.90	65535.00
510.08	65535.00
510.25	65535.00
510.42	65535.00
510.60	65535.00
510.77	65535.00
510.95	65535.00
511.12	65535.00
511.30	65535.00
511.47	65535.00
511.64	65535.00
511.82	65535.00
511.99	65535.00
512.17	65535.00
512.34	65535.00
512.51	65535.00
512.69	65535.00
512.86	65535.00
513.04	65535.00
513.21	65535.00
513.38	65535.00
513.56	65535.00
513.73	65535.00
513.90	65535.00
514.08	65535.00
514.25	65535.00
514.43	65535.00
514.60	65535.00
514.77	65535.00
514.95	65535.00
515.12	65535.00
515.29	65535.00
515.47	65535.00
515.64	65535.00
515.81	65535.00
515.99	65535.00
516.16	65535.00
516.33	65535.00
516.51	65535.00
516.68	65535.00
516.85	65535.00
517.03	65535.00
517.20	65535.00
517.37	65535.00
517.54	65535.00
517.72	65535.00
517.89	65535.00
518.06	65535.00
518.24	65535.00
518.41	65535.00
518.58	65535.00
518.75	65535.00
518.93	65535.00
519.10	65535.00
519.27	65535.00
519.45	65535.00
519.62	65535.00
519.79	65535.00
519.96	65535.00
520.14	65535.00
520.31	65535.00
520.48	65535.00
520.65	65535.00
520.83	65535.00
521.00	65535.00
521.17	65535.00
521.34	65535.00
521.52	65535.00
521.69	65535.00
521.86	65535.00
522.03	65535.00
522.20	65535.00
522.38	65535.00
522.55	65535.00
522.72	65535.00
522.89	65535.00
523.07	65535.00
523.24	65535.00
523.41	65535.00
523.58	65535.00
523.75	65535.00
523.92	65535.00
524.10	65535.00
524.27	65535.00
524.44	65535.00
524.61	65535.00
524.78	65535.00
524.96	65535.00
525.13	65535.00
525.30	65535.00
525.47	65535.00
525.64	65535.00
525.81	65535.00
525.98	65535.00
526.16	65535.00
526.33	65535.00
526.50	65535.00
526.67	65535.00
526.84	65535.00
527.01	65535.00
527.18	65535.00
527.36	65535.00
527.53	65535.00
527.70	65535.00
527.87	65535.00
528.04	65535.00
528.21	65535.00
528.38	65535.00
528.55	65535.00
528.72	65535.00
528.89	65535.00
529.07	65535.00
529.24	65535.00
529.41	65535.00
529.58	65535.00
529.75	65535.00
529.92	65535.00
530.09	65535.00
530.26	65535.00
530.43	65535.00
530.60	65535.00
530.77	65535.00
530.94	65535.00
531.11	65535.00
531.28	65535.00
531.46	65535.00
531.63	65535.00
531.80	65535.00
531.97	65535.00
532.14	65535.00
532.31	65535.00
532.48	65535.00
532.65	65535.00
532.82	65535.00
532.99	65535.00
533.16	65535.00
533.33	65535.00
533.50	65535.00
533.67	65535.00
533.84	65535.00
534.01	65535.00
534.18	65535.00
534.35	65535.00
534.52	65535.00
534.69	65535.00
534.86	65535.00
535.03	65535.00
535.20	65535.00
535.37	65535.00
535.54	65535.00
535.71	65535.00
535.88	65535.00
536.05	65535.00
536.22	65535.00
536.38	65535.00
536.55	65535.00
536.72	65535.00
536.89	65535.00
537.06	65535.00
537.23	65535.00
537.40	65535.00
537.57	65535.00
537.74	65535.00
537.91	65535.00
538.08	65535.00
538.25	65535.00
538.42	65535.00
538.59	65535.00
538.75	65535.00
538.92	65535.00
539.09	65535.00
539.26	65535.00
539.43	65535.00
539.60	65535.00
539.77	65535.00
539.94	65535.00
540.11	65535.00
540.28	65535.00
540.44	65535.00
540.61	65535.00
540.78	65535.00
540.95	65535.00
541.12	65535.00
541.29	65535.00
541.46	65535.00
541.62	65535.00
541.79	65535.00
541.96	65535.00
542.13	65535.00
542.30	65535.00
542.47	65535.00
542.63	65535.00
542.80	65535.00
542.97	65535.00
543.14	65535.00
543.31	65535.00
543.48	65535.00
543.64	65535.00
543.81	65535.00
543.98	65535.00
544.15	65535.00
544.32	65535.00
544.48	65535.00
544.65	65535.00
544.82	65535.00
544.99	65535.00
545.16	65535.00
545.32	65535.00
545.49	65535.00
545.66	65535.00
545.83	65535.00
546.00	65535.00
546.16	65535.00
546.33	65535.00
546.50	65535.00
546.67	65535.00
546.83	65535.00
547.00	65535.00
547.17	65535.00
547.34	65535.00
547.50	65535.00
547.67	65535.00
547.84	65535.00
548.00	65535.00
548.17	65535.00
548.34	65535.00
548.51	65535.00
548.67	65535.00
548.84	65535.00
549.01	65535.00
549.18	65535.00
549.34	65535.00
549.51	65535.00
549.68	65535.00
549.84	65535.00
550.01	65535.00
550.18	65535.00
550.34	65535.00
550.51	65535.00
550.68	65535.00
550.84	65535.00
551.01	65535.00
551.18	65535.00
551.34	65535.00
551.51	65535.00
551.68	65535.00
551.84	65535.00
552.01	65535.00
552.18	65535.00
552.34	65535.00
552.51	65535.00
552.68	65535.00
552.84	65535.00
553.01	65535.00
553.18	65535.00
553.34	65535.00
553.51	65535.00
553.67	65535.00
553.84	65535.00
554.01	65535.00
554.17	65535.00
554.34	65535.00
554.51	65535.00
554.67	65535.00
554.84	65535.00
555.00	65535.00
555.17	65535.00
555.33	65535.00
555.50	65535.00
555.67	65535.00
555.83	65535.00
556.00	65535.00
556.16	65535.00
556.33	65535.00
556.50	65535.00
556.66	65535.00
556.83	65535.00
556.99	65535.00
557.16	65535.00
557.32	65535.00
557.49	65535.00
557.65	65535.00
557.82	65535.00
557.98	65535.00
558.15	65535.00
558.32	65535.00
558.48	65535.00
558.65	65535.00
558.81	65535.00
558.98	65535.00
559.14	65535.00
559.31	65535.00
559.47	65535.00
559.64	65535.00
559.80	65535.00
559.97	65535.00
560.13	65535.00
560.30	65535.00
560.46	65535.00
560.63	65535.00
560.79	65535.00
560.96	65535.00
561.12	65535.00
561.29	65535.00
561.45	65535.00
561.61	65535.00
561.78	65535.00
561.94	65535.00
562.11	65535.00
562.27	65535.00
562.44	65535.00
562.60	65535.00
562.77	65535.00
562.93	65535.00
563.10	65535.00
563.26	65535.00
563.42	65535.00
563.59	65535.00
563.75	65535.00
563.92	65535.00
564.08	65535.00
564.24	65535.00
564.41	65535.00
564.57	65535.00
564.74	65535.00
564.90	65535.00
565.07	65535.00
565.23	65535.00
565.39	65535.00
565.56	65535.00
565.72	65535.00
565.88	65535.00
566.05	65535.00
566.21	65535.00
566.38	65535.00
566.54	65535.00
566.70	65535.00
566.87	65535.00
567.03	65535.00
567.19	65535.00
567.36	65535.00
567.52	65535.00
567.68	65535.00
567.85	65535.00
568.01	65535.00
568.17	65535.00
568.34	65535.00
568.50	65535.00
568.66	65535.00
568.83	65535.00
568.99	65535.00
569.15	65535.00
569.32	65535.00
569.48	65535.00
569.64	65535.00
569.81	65535.00
569.97	65535.00
570.13	65535.00
570.30	65535.00
570.46	65535.00
570.62	65535.00
570.78	65535.00
570.95	65535.00
571.11	65535.00
571.27	65535.00
571.43	65535.00
571.60	65535.00
571.76	65535.00
571.92	65535.00
572.09	65535.00
572.25	65535.00
572.41	65535.00
572.57	65535.00
572.74	65535.00
572.90	65535.00
573.06	65535.00
573.22	65535.00
573.38	65535.00
573.55	65535.00
573.71	65535.00
573.87	65535.00
574.03	65535.00
574.20	65535.00
574.36	65535.00
574.52	65535.00
574.68	65535.00
574.84	65535.00
575.01	65535.00
575.17	65535.00
575.33	65535.00
575.49	65535.00
575.65	65535.00
575.82	65535.00
575.98	65535.00
576.14	65535.00
576.30	65535.00
576.46	65535.00
576.62	65535.00
576.79	65535.00
576.95	65535.00
577.11	65535.00
577.27	65535.00
577.43	65535.00
577.59	65535.00
577.75	65535.00
577.92	65535.00
578.08	65535.00
578.24	65535.00
578.40	65535.00
578.56	65535.00
578.72	65535.00
578.88	65535.00
579.04	65535.00
579.21	65535.00
579.37	65535.00
579.53	65535.00
579.69	65535.00
579.85	65535.00
580.01	65535.00
580.17	65535.00
580.33	65535.00
580.49	65535.00
580.65	65535.00
580.82	65535.00
580.98	65535.00
581.14	65535.00
581.30	65535.00
581.46	65535.00
581.62	65535.00
581.78	65535.00
581.94	65535.00
582.10	65535.00
582.26	65535.00
582.42	65535.00
582.58	65535.00
582.74	65535.00
582.90	65535.00
583.06	65535.00
583.22	65535.00
583.38	65535.00
583.54	65535.00
583.70	65535.00
583.86	65535.00
584.02	65535.00
584.18	65535.00
584.34	65535.00
584.50	65535.00
584.66	65535.00
584.82	65535.00
584.98	65535.00
585.14	65535.00
585.30	65535.00
585.46	65535.00
585.62	65535.00
585.78	65535.00
585.94	65535.00
586.10	65535.00
586.26	65535.00
586.42	65535.00
586.58	65535.00
586.74	65535.00
586.90	65535.00
587.06	65535.00
587.22	65535.00
587.38	65535.00
587.54	65535.00
587.70	65535.00
587.86	65535.00
588.02	65535.00
588.18	65535.00
588.34	65535.00
588.49	65535.00
588.65	64189.19
588.81	63964.50
588.97	63964.50
589.13	63655.55
589.29	63646.19
589.45	64280.47
589.61	65087.96
589.77	65535.00
589.93	65535.00
590.08	65535.00
590.24	65535.00
590.40	65535.00
590.56	65535.00
590.72	65535.00
590.88	65535.00
591.04	65535.00
591.20	65535.00
591.35	65535.00
591.51	65535.00
591.67	65535.00
591.83	65535.00
591.99	65535.00
592.15	65535.00
592.31	65535.00
592.46	65535.00
592.62	65535.00
592.78	65535.00
592.94	65535.00
593.10	65535.00
593.26	65535.00
593.41	65535.00
593.57	65535.00
593.73	65535.00
593.89	65535.00
594.05	65535.00
594.20	65504.57
594.36	65338.40
594.52	65172.22
594.68	65050.51
594.84	65284.56
594.99	65535.00
595.15	65535.00
595.31	65535.00
595.47	65535.00
595.62	65535.00
595.78	65535.00
595.94	65535.00
596.10	65535.00
596.25	65535.00
596.41	65535.00
596.57	65535.00
596.73	65535.00
596.88	65535.00
597.04	65535.00
597.20	65535.00
597.36	65513.94
597.51	65535.00
597.67	65490.53
597.83	65535.00
597.99	65535.00
598.14	65022.42
598.30	65029.44
598.46	65036.47
598.61	65303.29
598.77	65209.67
598.93	65471.81
599.09	65392.23
599.24	65535.00
599.40	65490.53
599.56	65520.96
599.71	65535.00
599.87	65535.00
600.03	65387.55
600.18	65368.82
600.34	64856.24
600.50	64814.12
600.65	64926.46
600.81	65160.51
600.97	64905.40
601.12	64989.66
601.28	64790.71
601.44	64867.95
601.59	64573.04
601.75	64343.67
601.91	64505.16
602.06	64699.43
602.22	64608.15
602.37	64563.68
602.53	64582.40
602.69	64825.82
602.84	64975.61
603.00	65165.20
603.16	65490.53
603.31	65127.75
603.47	65151.15
603.62	65092.64
603.78	64992.00
603.94	64825.82
604.09	64952.21
604.25	64874.97
604.40	64631.55
604.56	64877.31
604.71	64952.21
604.87	64666.66
605.03	64535.59
605.18	64512.19
605.34	64486.44
605.49	64519.21
605.65	64690.07
605.80	64669.00
605.96	64107.27
606.12	64158.76
606.27	64292.18
606.43	64109.61
606.58	64083.87
606.74	64109.61
606.89	64589.42
607.05	64755.60
607.20	64479.42
607.36	64100.25
607.51	64067.48
607.67	63702.36
607.82	63971.52
607.98	63700.02
608.13	63629.80
608.29	63613.42
608.44	63873.22
608.60	63695.34
608.75	63632.14
608.91	63929.39
609.06	63817.05
609.22	63711.72
609.37	63465.97
609.53	63545.54
609.68	63292.77
609.84	62450.17
609.99	62349.53
610.15	62408.04
610.30	62602.31
610.46	62988.50
610.61	63119.57
610.76	63238.93
610.92	63472.99
611.07	63540.86
611.23	63264.68
611.38	63355.96
611.54	63526.82
611.69	63187.44
611.84	62646.78
612.00	62543.80
612.15	62513.37
612.31	62639.76
612.46	62581.24
612.62	62525.07
612.77	62672.52
612.92	62796.57
613.08	62272.29
613.23	61769.08
613.39	61413.32
613.54	61530.34
613.69	61488.21
613.85	61593.54
614.00	61303.31
614.15	61574.81
614.31	61930.58
614.46	62206.76
614.62	62157.61
614.77	61883.76
614.92	61897.81
615.08	61982.07
615.23	61799.50
615.38	61703.54
615.54	61310.33
615.69	60823.50
615.84	60217.30
616.00	60102.62
616.15	60659.66
616.30	60982.66
616.46	60856.27
616.61	60907.76
616.76	61200.33
616.92	61371.19
617.07	61350.12
617.22	61303.31
617.37	61441.40
617.53	61715.25
617.68	61712.91
617.83	61853.34
617.99	61605.24
618.14	61623.96
618.29	61630.99
618.45	61130.11
618.60	61066.92
618.75	60952.23
618.90	60877.33
619.06	60935.85
619.21	61095.00
619.36	61504.60
619.51	61298.63
619.67	61109.05
619.82	61209.69
619.97	61663.75
620.12	61436.72
620.28	61523.32
620.43	61492.89
620.58	61340.76
620.73	61092.66
620.89	60966.27
621.04	60992.02
621.19	60601.15
621.34	60654.98
621.49	60107.30
621.65	60240.71
621.80	60673.71
621.95	60210.28
622.10	60346.03
622.25	60287.52
622.41	60245.39
622.56	59934.10
622.71	59866.22
622.86	59063.42
623.01	59271.73
623.16	59896.65
623.32	59730.47
623.47	59531.53
623.62	59545.57
623.77	59274.07
623.92	59208.53
624.07	58775.53
624.23	58637.44
624.38	58763.83
624.53	58817.66
624.68	58897.24
624.83	59119.59
624.98	58780.21
625.13	58597.65
625.29	58705.32
625.44	58497.01
625.59	58291.04
625.74	58447.86
625.89	58251.25
626.04	58422.11
626.19	58354.24
626.34	58665.53
626.49	58707.66
626.65	58394.03
626.80	58794.26
626.95	58658.51
627.10	58258.27
627.25	57705.91
627.40	57034.17
627.55	56432.66
627.70	56095.62
627.85	56556.70
628.00	57069.28
628.15	57656.76
628.30	58010.18
628.45	57942.30
628.60	57593.56
628.76	57616.97
628.91	57497.60
629.06	57567.82
629.21	57682.50
629.36	56900.76
629.51	56830.55
629.66	56526.28
629.81	56238.39
629.96	56481.81
630.11	56863.32
630.26	57216.74
630.41	57141.84
630.56	56732.25
630.71	56933.53
630.86	56954.60
631.01	56985.02
631.16	56465.42
631.31	55929.44
631.46	55735.18
631.61	55990.30
631.76	56044.13
631.91	56339.04
632.06	56566.07
632.21	56982.68
632.36	56860.97
632.51	56619.90
632.66	56748.63
632.81	56830.55
632.96	56652.67
633.10	56236.05
633.25	56186.90
633.40	56481.81
633.55	56395.21
633.70	56116.68
633.85	55945.83
634.00	56032.42
634.15	56069.87
634.30	56315.63
634.45	56341.38
634.60	56282.86
634.75	56619.90
634.90	56114.34
635.05	56123.71
635.19	56016.04
635.34	55889.65
635.49	55667.30
635.64	55318.56
635.79	55119.62
635.94	55613.47
636.09	55615.81
636.24	55620.49
636.39	55983.27
636.53	55950.51
636.68	55852.20
636.83	55971.57
636.98	56427.98
637.13	55943.48
637.28	56224.35
637.43	56378.82
637.57	56030.08
637.72	55742.20
637.87	55903.70
638.02	55430.91
638.17	55552.62
638.32	55025.99
638.46	55192.17
638.61	55529.21
638.76	55192.17
638.91	54873.86
639.06	54787.26
639.20	54974.50
639.35	54637.47
639.50	54557.89
639.65	54461.93
639.80	54307.45
639.94	54335.54
640.09	54433.84
640.24	54569.59
640.39	54202.13
640.54	53682.53
640.68	54040.63
640.83	54014.88
640.98	53645.08
641.13	53396.98
641.27	53778.49
641.42	53602.95
641.57	53717.64
641.72	53544.44
641.86	53364.21
642.01	53715.29
642.16	54305.11
642.31	53925.94
642.45	54241.92
642.60	53944.67
642.75	53811.26
642.90	53827.64
643.04	53572.52
643.19	53382.94
643.34	53661.46
643.48	53684.87
643.63	53546.78
643.78	53532.73
643.93	53965.73
644.07	54223.19
644.22	53918.92
644.37	53502.31
644.51	53446.13
644.66	53544.44
644.81	53017.82
644.95	52994.41
645.10	52954.62
645.25	52814.19
645.39	52699.50
645.54	52177.56
645.69	52236.08
645.83	51782.01
645.98	51533.92
646.13	51344.33
646.27	51536.26
646.42	51779.67
646.57	51728.18
646.71	51430.93
646.86	51632.22
647.00	51239.01
647.15	50827.07
647.30	50869.20
647.44	50586.00
647.59	50798.99
647.74	50600.04
647.88	50178.75
648.03	50314.50
648.17	50574.30
648.32	50621.11
648.47	50955.80
648.61	50761.54
648.76	50925.38
648.90	50026.61
649.05	48804.85
649.20	48058.22
649.34	47955.24
649.49	48100.35
649.63	48856.34
649.78	49865.11
649.92	49907.24
650.07	50604.72
650.21	51161.77
650.36	51114.96
650.51	50979.21
650.65	51292.84
650.80	50789.62
650.94	50202.15
651.09	49989.16
651.23	49254.23
651.38	48594.20
651.52	48580.16
651.67	49303.38
651.81	49373.60
651.96	49844.05
652.10	49947.03
652.25	50087.46
652.39	49708.30
652.54	50277.05
652.68	49893.20
652.83	49406.37
652.97	49291.68
653.12	49413.39
653.26	49764.47
653.41	49745.75
653.55	49806.60
653.70	49574.89
653.84	49387.64
653.99	50131.93
654.13	49240.19
654.27	48751.02
654.42	47962.26
654.56	47686.07
654.71	48222.06
654.85	47833.53
655.00	47590.11
655.14	47344.36
655.29	46131.96
655.43	45394.69
655.57	43856.96
655.72	41202.79
655.86	37984.55
656.01	36666.83
656.15	37254.31
656.30	39592.50
656.44	41441.53
656.58	43217.99
656.73	44477.20
656.87	45368.94
657.01	45261.28
657.16	46295.80
657.30	46986.25
657.45	47484.79
657.59	47484.79
657.73	47503.51
657.88	47199.24
658.02	47416.91
658.16	46951.15
658.31	47344.36
658.45	47508.19
658.60	46927.74
658.74	46719.43
658.88	46576.66
659.03	45825.35
659.17	46174.09
659.31	46492.40
659.46	46258.35
659.60	47189.88
659.74	47114.98
659.89	47800.76
660.03	48264.19
660.17	47779.70
660.32	47454.36
660.46	47304.57
660.60	46417.50
660.74	46450.27
660.89	46562.62
661.03	45813.65
661.17	46244.30
661.32	46017.27
661.46	46586.02
661.60	46719.43
661.74	46192.81
661.89	46782.63
662.03	46511.13
662.17	45666.19
662.31	45378.31
662.46	45933.01
662.60	45940.04
662.74	45565.55
662.88	45607.68
663.03	45184.04
663.17	44528.69
663.31	45095.10
663.45	45359.58
663.60	45134.89
663.74	44409.32
663.88	44299.32
664.02	44201.02
664.17	44694.87
664.31	43917.81
664.45	44369.54
664.59	45017.86
664.73	44931.26
664.88	45397.03
665.02	44392.94
665.16	44458.48
665.30	44198.68
665.44	44060.58
665.59	43634.61
665.73	43388.85
665.87	42899.68
666.01	42693.71
666.15	42520.51
666.29	42883.30
666.44	43007.34
666.58	43107.99
666.72	43154.80
666.86	42885.64
667.00	42974.58
667.14	43239.06
667.28	42721.80
667.43	42279.44
667.57	42789.67
667.71	42745.20
667.85	42286.46
667.99	42162.41
668.13	42005.59
668.27	41979.85
668.41	42216.24
668.56	41928.36
668.70	42099.22
668.84	41696.64
668.98	41698.98
669.12	41687.28
669.26	40900.86
669.40	40533.40
669.54	41060.02
669.68	41366.63
669.82	41155.98
669.96	40343.81
670.10	40573.19
670.25	40402.33
670.39	39814.85
670.53	39599.52
670.67	39988.05
670.81	39643.99
670.95	39728.25
671.09	39573.78
671.23	39243.76
671.37	38408.19
671.51	38775.66
671.65	38663.31
671.79	38979.28
671.93	39793.79
672.07	40224.45
672.21	39636.97
672.35	39658.04
672.49	39377.17
672.63	38918.43
672.77	38756.93
672.91	39337.38
673.05	39093.97
673.19	39473.13
673.33	38721.82
673.47	38225.63
673.61	38227.97
673.75	37989.24
673.89	38508.83
674.03	38550.96
674.17	38773.31
674.31	38223.29
674.45	37661.56
674.59	37993.92
674.73	37734.12
674.87	37394.74
675.01	36971.10
675.15	37003.87
675.29	37198.13
675.43	37251.97
675.56	37137.28
675.70	36620.02
675.84	36531.08
675.98	35590.19
676.12	36587.25
676.26	36554.49
676.40	36041.91
676.54	35625.29
676.68	35260.17
676.82	35269.53
676.96	35749.34
677.10	35669.76
677.23	34859.94
677.37	35061.22
677.51	34845.90
677.65	34490.13
677.79	34597.80
677.93	34789.72
678.07	34686.74
678.21	34005.64
678.34	33703.71
678.48	33392.42
678.62	33811.38
678.76	33975.22
678.90	34396.51
679.04	34572.05
679.18	34682.06
679.31	33797.34
679.45	33572.64
679.59	33530.51
679.73	33312.84
679.87	32800.27
680.00	33326.89
680.14	33291.78
680.28	32636.43
680.42	31637.02
680.56	32208.11
680.70	31697.88
680.83	32407.06
680.97	31339.77
681.11	31257.85
681.25	31016.78
681.39	30890.39
681.52	31199.34
681.66	31101.04
681.80	31175.94
681.94	31161.89
682.07	31365.52
682.21	31014.44
682.35	30984.01
682.49	30368.45
682.62	29888.64
682.76	29504.79
682.90	29713.10
683.04	30064.18
683.17	30665.70
683.31	29970.56
683.45	29591.39
683.59	29369.04
683.72	29074.13
683.86	28851.78
684.00	28435.17
684.13	28692.63
684.27	28811.99
684.41	28343.89
684.55	28580.28
684.68	28582.62
684.82	28664.54
684.96	28484.32
685.09	28119.20
685.23	27882.80
685.37	27297.67
685.50	27543.42
685.64	27990.47
685.78	27969.40
685.91	26815.52
686.05	27089.36
686.19	26773.39
686.32	25001.60
686.46	22230.41
686.60	19332.82
686.73	18087.66
686.87	16982.93
687.01	16915.05
687.14	17198.26
687.28	17659.34
687.42	18572.15
687.55	19124.52
687.69	20498.41
687.82	21142.06
687.96	21912.10
688.10	21778.68
688.23	21675.70
688.37	21252.06
688.50	20648.21
688.64	20725.44
688.78	20383.73
688.91	20343.94
689.05	20655.23
689.18	20081.80
689.32	20276.06
689.46	20414.15
689.59	20671.61
689.73	20807.36
689.86	20821.41
690.00	20781.62
690.13	20950.14
690.27	21050.78
690.41	20608.42
690.54	20395.43
690.68	20851.83
690.81	20830.77
690.95	20861.19
691.08	21022.69
691.22	20856.51
691.35	21135.04
691.49	21060.14
691.62	20943.11
691.76	20718.42
691.89	21039.08
692.03	20837.79
692.16	20109.88
692.30	20276.06
692.43	20376.70
692.57	20306.49
692.70	20329.89
692.84	19866.47
692.97	19569.22
693.11	19927.32
693.24	19754.12
693.38	20191.80
693.51	19765.82
693.65	19407.72
693.78	18972.38
693.92	19016.85
694.05	18925.57
694.19	18909.19
694.32	19019.19
694.45	18864.72
694.59	18743.01
694.72	18747.69
694.86	19126.86
694.99	18780.46
695.13	18558.11
695.26	18544.06
695.39	18359.16
695.53	18291.29
695.66	18733.65
695.80	18544.06
695.93	18607.26
696.07	18682.16
696.20	18417.68
696.33	18396.61
696.47	18956.00
696.60	19190.05
696.73	18937.27
696.87	19028.56
697.00	19023.87
697.14	18937.27
697.27	18485.55
697.40	18443.42
697.54	17820.84
697.67	17762.33
697.80	17628.92
697.94	17380.82
698.07	17034.42
698.21	17212.30
698.34	16947.82
698.47	16624.83
698.61	16149.70
698.74	16212.89
698.87	16294.81
699.01	15990.54
699.14	16236.30
699.27	16184.80
699.40	16514.82
699.54	16276.09
699.67	15798.62
699.80	15882.88
699.94	15946.07
700.07	15742.44
700.20	15197.10
700.34	14855.38
700.47	14963.04
700.60	15206.46
700.73	15124.54
700.87	15267.31
701.00	15192.42
701.13	15365.62
701.26	14831.97
701.40	14883.47
701.53	14876.44
701.66	14541.75
701.79	14288.97
701.93	14359.19
702.06	14466.85
702.19	14263.22
702.32	14855.38
702.46	14487.92
702.59	14295.99
702.72	14295.99
702.85	14401.32
702.99	14871.76
703.12	14310.04
703.25	14380.25
703.38	14338.12
703.51	13804.48
703.65	13944.91
703.78	13694.47
703.91	13619.58
704.04	13809.16
704.17	13902.78
704.31	13680.43
704.44	13884.06
704.57	13989.38
704.70	13528.30
704.83	13540.00
704.96	13315.31
705.10	13247.43
705.23	12709.11
>>>>>End Processed Spectral Data<<<<<
