SpectraSuite Data File
++++++++++++++++++++++++++++++++++++
Date: Mon Oct 07 14:54:56 GMT-05:00 2013
User: price-jones
Dark Spectrum Present: No
Reference Spectrum Present: No
Number of Sampled Component Spectra: 1
Spectrometers: USB2+H05261
Integration Time (usec): 10000 (USB2+H05261)
Spectra Averaged: 1 (USB2+H05261)
Boxcar Smoothing: 0 (USB2+H05261)
Correct for Electrical Dark: No (USB2+H05261)
Strobe/Lamp Enabled: No (USB2+H05261)
Correct for Detector Non-linearity: No (USB2+H05261)
Correct for Stray Light: No (USB2+H05261)
Number of Pixels in Processed Spectrum: 2048
>>>>>Begin Processed Spectral Data<<<<<
365.73	0.00
365.92	0.00
366.12	0.00
366.32	0.00
366.52	0.00
366.72	0.00
366.91	0.00
367.11	0.00
367.31	0.00
367.51	0.00
367.70	0.00
367.90	0.00
368.10	0.00
368.30	0.00
368.49	0.00
368.69	0.00
368.89	0.00
369.09	0.00
369.28	0.00
369.48	0.00
369.68	0.00
369.87	0.00
370.07	0.00
370.27	0.00
370.47	0.00
370.66	88.94
370.86	203.63
371.06	173.20
371.25	222.35
371.45	145.11
371.65	152.13
371.84	138.09
372.04	117.03
372.24	163.84
372.44	161.50
372.63	198.95
372.83	145.11
373.03	72.56
373.22	168.52
373.42	180.22
373.62	124.05
373.81	224.69
374.01	154.48
374.21	138.09
374.40	107.66
374.60	191.92
374.79	182.56
374.99	255.12
375.19	374.49
375.38	341.72
375.58	320.65
375.78	313.63
375.97	294.91
376.17	285.55
376.37	229.37
376.56	271.50
376.76	304.27
376.95	411.93
377.15	400.23
377.35	409.59
377.54	468.11
377.74	409.59
377.93	500.87
378.13	496.19
378.33	442.36
378.52	362.78
378.72	360.44
378.91	327.68
379.11	327.68
379.31	241.08
379.50	271.50
379.70	299.59
379.89	416.62
380.09	386.19
380.28	358.10
380.48	463.43
380.68	514.92
380.87	510.24
381.07	365.12
381.26	334.70
381.46	266.82
381.65	278.52
381.85	166.18
382.04	276.18
382.24	257.46
382.43	234.05
382.63	177.88
382.83	194.26
383.02	173.20
383.22	156.82
383.41	170.86
383.61	145.11
383.80	250.44
384.00	332.36
384.19	358.10
384.39	386.19
384.58	447.04
384.78	440.02
384.97	344.06
385.17	327.68
385.36	241.08
385.56	236.39
385.75	315.97
385.95	358.10
386.14	355.76
386.34	451.72
386.53	404.91
386.72	360.44
386.92	308.95
387.11	318.31
387.31	381.51
387.50	421.30
387.70	330.02
387.89	416.62
388.09	369.80
388.28	428.32
388.48	386.19
388.67	390.87
388.86	505.56
389.06	601.52
389.25	631.94
389.45	643.65
389.64	634.29
389.84	533.64
390.03	594.50
390.22	622.58
390.42	615.56
390.61	688.12
390.81	725.57
391.00	772.38
391.19	774.72
391.39	674.07
391.58	760.67
391.78	627.26
391.97	514.92
392.16	517.26
392.36	524.28
392.55	301.93
392.75	194.26
392.94	184.90
393.13	84.26
393.33	166.18
393.52	358.10
393.71	475.13
393.91	486.83
394.10	697.48
394.29	683.44
394.49	692.80
394.68	807.48
394.88	788.76
395.07	915.15
395.26	868.34
395.46	709.18
395.65	753.65
395.84	678.76
396.04	433.00
396.23	341.72
396.42	252.78
396.62	262.14
396.81	372.15
397.00	454.06
397.19	697.48
397.39	837.91
397.58	894.08
397.77	964.30
397.97	1102.39
398.16	1111.75
398.35	1078.99
398.55	1132.82
398.74	1179.63
398.93	1212.40
399.12	1317.72
399.32	1156.22
399.51	1172.61
399.70	1280.27
399.90	1273.25
400.09	1247.51
400.28	1299.00
400.47	1273.25
400.67	1266.23
400.86	1366.87
401.05	1376.24
401.24	1343.47
401.44	1453.47
401.63	1329.42
401.82	1453.47
402.01	1399.64
402.21	1441.77
402.40	1387.94
402.59	1355.17
402.78	1249.85
402.97	1277.93
403.17	1282.61
403.36	1364.53
403.55	1345.81
403.74	1448.79
403.93	1425.39
404.13	1345.81
404.32	1259.21
404.51	1301.34
404.70	1493.26
404.89	1373.89
405.09	1268.57
405.28	1291.98
405.47	1364.53
405.66	1263.89
405.85	1366.87
406.05	1338.79
406.24	1299.00
406.43	1373.89
406.62	1509.65
406.81	1425.39
407.00	1291.98
407.20	1334.11
407.39	1280.27
407.58	1474.54
407.77	1455.81
407.96	1537.73
408.15	1556.46
408.34	1488.58
408.54	1575.18
408.73	1619.65
408.92	1659.44
409.11	1685.19
409.30	1460.49
409.49	1352.83
409.68	1268.57
409.87	1181.97
410.07	1343.47
410.26	1514.33
410.45	1472.20
410.64	1476.88
410.83	1703.91
411.02	1778.81
411.21	1748.38
411.40	1774.13
411.59	1673.48
411.78	1673.48
411.98	1675.82
412.17	1631.35
412.36	1720.29
412.55	1664.12
412.74	1699.23
412.93	1617.31
413.12	1675.82
413.31	1842.00
413.50	1778.81
413.69	1937.96
413.88	1741.36
414.07	1750.72
414.26	1804.55
414.45	1874.77
414.64	1987.11
414.83	1811.57
415.02	1785.83
415.22	1774.13
415.41	1795.19
415.60	1834.98
415.79	1982.43
415.98	2043.29
416.17	2033.93
416.36	1966.05
416.55	1893.49
416.74	1935.62
416.93	1760.08
417.12	1790.51
417.31	1741.36
417.50	1813.92
417.69	1919.24
417.88	1893.49
418.07	1907.54
418.26	1804.55
418.45	1839.66
418.64	1856.04
418.83	1921.58
419.02	1994.14
419.21	1970.73
419.39	1858.39
419.58	1771.79
419.77	1977.75
419.96	1942.64
420.15	1928.60
420.34	2036.27
420.53	2003.50
420.72	2162.66
420.91	2176.70
421.10	2059.67
421.29	2066.69
421.48	2054.99
421.67	2099.46
421.86	2022.22
422.05	2031.58
422.24	1708.59
422.43	1687.53
422.61	1839.66
422.80	2033.93
422.99	1975.41
423.18	1989.46
423.37	1785.83
423.56	1900.52
423.75	1961.37
423.94	1937.96
424.13	1930.94
424.32	1834.98
424.50	1884.13
424.69	1881.79
424.88	1886.47
425.07	1886.47
425.26	1916.90
425.45	1820.94
425.64	1820.94
425.83	1886.47
426.01	1977.75
426.20	1916.90
426.39	1863.07
426.58	1909.88
426.77	1685.19
426.96	1577.52
427.15	1610.29
427.33	1774.13
427.52	1879.45
427.71	1884.13
427.90	1792.85
428.09	1888.81
428.28	1830.30
428.46	1685.19
428.65	1701.57
428.84	1809.23
429.03	1717.95
429.22	1710.93
429.40	1509.65
429.59	1444.11
429.78	1275.59
429.97	1156.22
430.16	1231.12
430.34	1254.53
430.53	1277.93
430.72	1322.40
430.91	1409.00
431.10	1717.95
431.28	1994.14
431.47	2319.47
431.66	2232.87
431.85	2078.40
432.03	1944.99
432.22	1741.36
432.41	1781.15
432.60	2045.63
432.79	2092.44
432.97	2223.51
433.16	2122.87
433.35	1914.56
433.54	1851.36
433.72	1717.95
433.91	1626.67
434.10	1842.00
434.28	1980.09
434.47	2073.71
434.66	2148.61
434.85	1952.01
435.03	2022.22
435.22	2050.31
435.41	2148.61
435.59	2200.10
435.78	2314.79
435.97	2246.91
436.16	2352.24
436.34	2331.17
436.53	2284.36
436.72	2282.02
436.90	2167.34
437.09	2094.78
437.28	2015.20
437.46	2214.15
437.65	2174.36
437.84	1963.71
438.02	1816.26
438.21	1764.76
438.40	1839.66
438.58	2104.14
438.77	2310.11
438.96	2174.36
439.14	2237.55
439.33	2312.45
439.52	2335.85
439.70	2256.28
439.89	2324.15
440.08	2054.99
440.26	2209.47
440.45	2282.02
440.63	2394.37
440.82	2509.05
441.01	2626.08
441.19	2464.58
441.38	2499.69
441.57	2684.59
441.75	2684.59
441.94	2595.65
442.12	2504.37
442.31	2719.70
442.50	2731.41
442.68	2724.38
442.87	2595.65
443.05	2696.30
443.24	2597.99
443.43	2733.75
443.61	2677.57
443.80	2862.48
443.98	2684.59
444.17	2621.40
444.35	2792.26
444.54	2869.50
444.73	2766.51
444.91	2640.12
445.10	2520.76
445.28	2476.29
445.47	2401.39
445.65	2385.01
445.84	2408.41
446.02	2616.72
446.21	2630.76
446.39	2616.72
446.58	2635.44
446.77	2757.15
446.95	2736.09
447.14	2768.85
447.32	2822.69
447.51	2712.68
447.69	2736.09
447.88	2626.08
448.06	2684.59
448.25	2782.90
448.43	2785.24
448.62	2647.15
448.80	2654.17
448.99	2703.32
449.17	2759.49
449.36	2724.38
449.54	2801.62
449.73	2892.90
449.91	2979.50
450.10	2970.14
450.28	3056.74
450.46	3009.93
450.65	2995.89
450.83	3016.95
451.02	2862.48
451.20	2846.09
451.39	2897.58
451.57	2750.13
451.76	2869.50
451.94	2766.51
452.13	2864.82
452.31	2679.91
452.49	2553.52
452.68	2605.02
452.86	2527.78
453.05	2668.21
453.23	2663.53
453.42	2761.83
453.60	2773.53
453.78	2818.00
453.97	2726.72
454.15	2747.79
454.34	2719.70
454.52	2726.72
454.70	2703.32
454.89	2792.26
455.07	2867.16
455.26	2862.48
455.44	2946.73
455.62	3038.02
455.81	3023.97
455.99	3005.25
456.17	2864.82
456.36	2965.46
456.54	2935.03
456.73	2923.33
456.91	3087.17
457.09	3129.30
457.28	3131.64
457.46	3002.91
457.64	2993.55
457.83	2867.16
458.01	2846.09
458.19	2937.37
458.38	2892.90
458.56	2904.60
458.74	2986.52
458.93	2979.50
459.11	2885.88
459.29	2822.69
459.48	2787.58
459.66	2855.45
459.84	2970.14
460.03	2970.14
460.21	2942.05
460.39	2986.52
460.57	3073.12
460.76	3105.89
460.94	3091.85
461.12	2986.52
461.31	3124.62
461.49	3056.74
461.67	2916.31
461.85	3124.62
462.04	3119.93
462.22	3171.43
462.40	3194.83
462.59	3019.29
462.77	3089.51
462.95	2984.18
463.13	3054.40
463.32	2913.97
463.50	3082.49
463.68	2998.23
463.86	3059.08
464.05	2902.26
464.23	2928.01
464.41	2949.08
464.59	2857.79
464.78	3002.91
464.96	2885.88
465.14	2916.31
465.32	3159.72
465.50	3028.65
465.69	3243.98
465.87	3117.59
466.05	2963.12
466.23	2935.03
466.41	2799.28
466.60	2813.32
466.78	2761.83
466.96	2843.75
467.14	2895.24
467.32	2958.44
467.51	2986.52
467.69	2860.13
467.87	3000.57
468.05	3119.93
468.23	2998.23
468.41	2958.44
468.60	3038.02
468.78	3056.74
468.96	2956.10
469.14	2998.23
469.32	2986.52
469.50	2792.26
469.69	2862.48
469.87	2813.32
470.05	2988.86
470.23	2904.60
470.41	2949.08
470.59	2939.71
470.77	2890.56
470.95	3035.67
471.14	3052.06
471.32	2930.35
471.50	3246.32
471.68	3323.56
471.86	3302.50
472.04	3220.58
472.22	3143.34
472.40	3005.25
472.58	3042.70
472.77	2906.95
472.95	3054.40
473.13	3255.69
473.31	3002.91
473.49	3089.51
473.67	3201.85
473.85	3096.53
474.03	3243.98
474.21	3248.66
474.39	3316.54
474.57	3304.84
474.75	3405.48
474.93	3311.86
475.12	3253.34
475.30	3274.41
475.48	3344.63
475.66	3197.17
475.84	3332.92
476.02	3239.30
476.20	3199.51
476.38	3225.26
476.56	3349.31
476.74	3396.12
476.92	3440.59
477.10	3492.08
477.28	3604.42
477.46	3585.70
477.64	3515.48
477.82	3604.42
478.00	3520.17
478.18	3473.36
478.36	3623.15
478.54	3651.24
478.72	3595.06
478.90	3662.94
479.08	3669.96
479.26	3892.31
479.44	3880.61
479.62	3763.58
479.80	3784.65
479.98	3962.53
480.16	3684.00
480.34	3733.15
480.52	3840.82
480.70	3810.39
480.88	3798.69
481.06	3978.91
481.24	3880.61
481.41	4072.53
481.59	4046.79
481.77	4021.04
481.95	4016.36
482.13	3911.04
482.31	3974.23
482.49	4084.23
482.67	3999.98
482.85	4030.40
483.03	4084.23
483.21	4154.45
483.39	4112.32
483.57	4203.60
483.74	4117.00
483.92	4086.58
484.10	4100.62
484.28	4231.69
484.46	4210.62
484.64	4234.03
484.82	4189.56
485.00	4205.94
485.18	4072.53
485.35	4067.85
485.53	3527.19
485.71	3335.26
485.89	3213.56
486.07	3384.41
486.25	3698.05
486.43	3871.25
486.61	4018.70
486.78	4021.04
486.96	3927.42
487.14	4276.16
487.32	4332.33
487.50	4451.70
487.68	4524.26
487.85	4571.07
488.03	4587.45
488.21	4442.34
488.39	4486.81
488.57	4264.46
488.75	4231.69
488.92	4627.24
489.10	4732.56
489.28	4861.29
489.46	5149.18
489.64	5076.62
489.81	5053.22
489.99	5083.64
490.17	5123.43
490.35	5167.90
490.53	5036.83
490.70	4798.10
490.88	4901.08
491.06	4999.38
491.24	5322.38
491.41	4997.04
491.59	4636.60
491.77	4505.53
491.95	4589.79
492.13	4793.42
492.30	5172.58
492.48	5193.65
492.66	5446.43
492.84	5359.83
493.01	5308.34
493.19	5219.39
493.37	5116.41
493.54	4992.36
493.72	5217.05
493.90	5397.28
494.08	5514.30
494.25	5598.56
494.43	5568.13
494.61	5746.02
494.79	5825.59
494.96	5554.09
495.14	5715.59
495.32	5378.55
495.49	5261.52
495.67	5383.23
495.85	5720.27
496.02	5860.70
496.20	5757.72
496.38	5703.89
496.55	5638.35
496.73	5877.09
496.91	5598.56
497.09	5844.32
497.26	6059.65
497.44	5717.93
497.62	5687.50
497.79	5666.44
497.97	5172.58
498.14	5331.74
498.32	5509.62
498.50	5933.26
498.67	5785.80
498.85	5975.39
499.03	5750.70
499.20	5937.94
499.38	5703.89
499.56	5975.39
499.73	5671.12
499.91	5565.79
500.08	5500.26
500.26	5448.77
500.44	5523.66
500.61	5781.12
500.79	5607.92
500.97	5664.10
501.14	5469.83
501.32	5369.19
501.49	5544.73
501.67	5537.71
501.84	5696.86
502.02	5659.42
502.20	5762.40
502.37	5863.04
502.55	5804.53
502.72	5851.34
502.90	5921.56
503.07	5951.98
503.25	5926.24
503.43	5584.52
503.60	5336.42
503.78	5364.51
503.95	5439.40
504.13	5872.40
504.30	5966.03
504.48	5942.62
504.65	5797.51
504.83	5755.38
505.01	6005.81
505.18	5809.21
505.36	6338.17
505.53	6148.59
505.71	6157.95
505.88	6200.08
506.06	6214.12
506.23	6092.41
506.41	6022.20
506.58	5982.41
506.76	5987.09
506.93	5767.08
507.11	5865.38
507.28	6022.20
507.46	5839.64
507.63	5727.29
507.81	5830.27
507.98	5846.66
508.16	5858.36
508.33	6146.25
508.50	6181.35
508.68	6223.48
508.85	6422.43
509.03	6164.97
509.20	6214.12
509.38	5879.43
509.55	5916.87
509.73	5839.64
509.90	6179.01
510.08	5788.14
510.25	6061.99
510.42	5900.49
510.60	5909.85
510.77	5935.60
510.95	6057.31
511.12	6326.47
511.30	6333.49
511.47	6513.71
511.64	6225.82
511.82	6293.70
511.99	6015.18
512.17	5867.72
512.34	5898.15
512.51	5951.98
512.69	5867.72
512.86	5909.85
513.04	6085.39
513.21	5919.21
513.38	5923.90
513.56	5738.99
513.73	5582.18
513.90	5654.73
514.08	5804.53
514.25	5921.56
514.43	5900.49
514.60	5813.89
514.77	5987.09
514.95	5977.73
515.12	5790.49
515.29	5849.00
515.47	6188.38
515.64	6230.51
515.81	6108.80
515.99	5841.98
516.16	5521.32
516.33	5217.05
516.51	4755.97
516.68	4734.90
516.85	4734.90
517.03	4777.03
517.20	5233.44
517.37	5657.07
517.54	5790.49
517.72	5816.23
517.89	5411.32
518.06	4929.17
518.24	4940.87
518.41	5366.85
518.58	5717.93
518.75	5832.62
518.93	5764.74
519.10	5614.95
519.27	5610.26
519.45	5729.63
519.62	6017.52
519.79	6047.94
519.96	6005.81
520.14	5818.57
520.31	5612.60
520.48	5661.76
520.65	5778.78
520.83	6183.70
521.00	6080.71
521.17	6043.26
521.34	5900.49
521.52	6076.03
521.69	6204.76
521.86	6253.91
522.03	6253.91
522.20	5863.04
522.38	5551.75
522.55	5724.95
522.72	5860.70
522.89	5884.11
523.07	5680.48
523.24	5888.79
523.41	5975.39
523.58	6083.05
523.75	5984.75
523.92	6448.18
524.10	6167.31
524.27	6146.25
524.44	6282.00
524.61	6118.16
524.78	6080.71
524.96	6071.35
525.13	6054.97
525.30	6083.05
525.47	6218.80
525.64	6113.48
525.81	6026.88
525.98	5699.20
526.16	5483.88
526.33	5078.96
526.50	5153.86
526.67	5247.48
526.84	5135.14
527.01	5563.45
527.18	5643.03
527.36	5909.85
527.53	6036.24
527.70	6038.58
527.87	5809.21
528.04	5891.13
528.21	5928.58
528.38	6073.69
528.55	6258.59
528.72	6265.61
528.89	6338.17
529.07	6171.99
529.24	6146.25
529.41	5724.95
529.58	5757.72
529.75	6047.94
529.92	5949.64
530.09	6019.86
530.26	6190.72
530.43	6202.42
530.60	6324.13
530.77	6307.74
530.94	6207.10
531.11	6146.25
531.28	6113.48
531.46	5851.34
531.63	6111.14
531.80	5977.73
531.97	5933.26
532.14	5884.11
532.31	5434.72
532.48	5439.40
532.65	5418.34
532.82	5612.60
532.99	5858.36
533.16	6005.81
533.33	6132.20
533.50	6076.03
533.67	5809.21
533.84	5844.32
534.01	5713.25
534.18	5851.34
534.35	5916.87
534.52	5982.41
534.69	5874.74
534.86	5968.37
535.03	6003.47
535.20	6080.71
535.37	6232.85
535.54	6338.17
535.71	6134.54
535.88	6080.71
536.05	6005.81
536.22	5760.06
536.38	5935.60
536.55	5600.90
536.72	5451.11
536.89	5497.92
537.06	5722.61
537.23	5944.96
537.40	6043.26
537.57	5984.75
537.74	5891.13
537.91	5926.24
538.08	5884.11
538.25	6008.16
538.42	5806.87
538.59	5902.83
538.75	5816.23
538.92	5753.04
539.09	5724.95
539.26	5570.48
539.43	5544.73
539.60	5530.69
539.77	5591.54
539.94	5701.54
540.11	5483.88
540.28	5282.59
540.44	5401.96
540.61	5408.98
540.78	5481.53
540.95	5542.39
541.12	5568.13
541.29	5727.29
541.46	5858.36
541.62	5879.43
541.79	5703.89
541.96	5614.95
542.13	5542.39
542.30	5633.67
542.47	5722.61
542.63	5694.52
542.80	5462.81
542.97	5556.43
543.14	5682.82
543.31	5612.60
543.48	5682.82
543.64	5968.37
543.81	6015.18
543.98	5816.23
544.15	5760.06
544.32	5526.00
544.48	5750.70
544.65	5708.57
544.82	5774.10
544.99	5575.16
545.16	5614.95
545.32	5668.78
545.49	5753.04
545.66	5914.53
545.83	5746.02
546.00	5624.31
546.16	5558.77
546.33	5682.82
546.50	5399.62
546.67	5685.16
546.83	5633.67
547.00	5722.61
547.17	5399.62
547.34	5221.74
547.50	5334.08
547.67	5474.51
547.84	5390.25
548.00	5460.47
548.17	5673.46
548.34	5661.76
548.51	5584.52
548.67	5631.33
548.84	5647.71
549.01	5526.00
549.18	5556.43
549.34	5511.96
549.51	5432.38
549.68	5516.64
549.84	5570.48
550.01	5593.88
550.18	5430.04
550.34	5434.72
550.51	5434.72
550.68	5540.05
550.84	5439.40
551.01	5455.79
551.18	5352.81
551.34	5518.98
551.51	5483.88
551.68	5689.84
551.84	5675.80
552.01	5479.19
552.18	5486.22
552.34	5486.22
552.51	5259.18
552.68	5102.37
552.84	5378.55
553.01	5516.64
553.18	5411.32
553.34	5413.66
553.51	5462.81
553.67	5305.99
553.84	5528.35
554.01	5537.71
554.17	5331.74
554.34	5408.98
554.51	5392.59
554.67	5591.54
554.84	5427.70
555.00	5336.42
555.17	5350.46
555.33	5303.65
555.50	5453.45
555.67	5394.93
555.83	5406.64
556.00	5259.18
556.16	5329.40
556.33	5158.54
556.50	5167.90
556.66	5142.16
556.83	5114.07
556.99	5036.83
557.16	5228.76
557.32	5303.65
557.49	5165.56
557.65	5277.91
557.82	5266.21
557.98	5179.61
558.15	5083.64
558.32	5004.07
558.48	4898.74
558.65	4884.70
558.81	4889.38
558.98	5069.60
559.14	5163.22
559.31	5100.03
559.47	4870.65
559.64	5041.51
559.80	4833.21
559.97	4910.44
560.13	5135.14
560.30	5217.05
560.46	5240.46
560.63	5378.55
560.79	5380.89
560.96	5338.76
561.12	4959.60
561.29	4802.78
561.45	4660.01
561.61	4917.47
561.78	4889.38
561.94	4943.21
562.11	5116.41
562.27	5057.90
562.44	5057.90
562.60	5188.97
562.77	5177.26
562.93	4994.70
563.10	4990.02
563.26	4961.94
563.42	4964.28
563.59	4858.95
563.75	4959.60
563.92	5018.11
564.08	5088.32
564.24	5046.20
564.41	5011.09
564.57	5064.92
564.74	5053.22
564.90	4926.83
565.07	4947.89
565.23	4875.34
565.39	4709.16
565.56	4784.06
565.72	4784.06
565.88	4858.95
566.05	4643.62
566.21	4809.80
566.38	4830.87
566.54	4723.20
566.70	5036.83
566.87	4950.23
567.03	5060.24
567.19	4968.96
567.36	5095.35
567.52	4884.70
567.68	4781.71
567.85	4657.67
568.01	4730.22
568.17	4723.20
568.34	4542.98
568.50	4477.44
568.66	4699.80
568.83	4720.86
568.99	4692.77
569.15	4683.41
569.32	4559.36
569.48	4596.81
569.64	4582.77
569.81	4613.20
569.97	4627.24
570.13	4622.56
570.30	4643.62
570.46	4456.38
570.62	4285.52
570.78	4447.02
570.95	4397.87
571.11	4566.39
571.27	4440.00
571.43	4533.62
571.60	4615.54
571.76	4667.03
571.92	4652.98
572.09	4688.09
572.25	4741.93
572.41	4709.16
572.57	4648.30
572.74	4620.22
572.90	4617.88
573.06	4634.26
573.22	4650.64
573.38	4592.13
573.55	4620.22
573.71	4592.13
573.87	4652.98
574.03	4538.30
574.20	4578.09
574.36	4594.47
574.52	4465.74
574.68	4535.96
574.84	4376.80
575.01	4554.68
575.17	4372.12
575.33	4414.25
575.49	4327.65
575.65	4442.34
575.82	4372.12
575.98	4149.77
576.14	4461.06
576.30	4496.17
576.46	4376.80
576.62	4500.85
576.79	4442.34
576.95	4472.76
577.11	4538.30
577.27	4346.37
577.43	4358.08
577.59	4489.15
577.75	4329.99
577.92	4100.62
578.08	4205.94
578.24	4028.06
578.40	4236.37
578.56	4243.39
578.72	4418.93
578.88	4227.01
579.04	4486.81
579.21	4210.62
579.37	4348.72
579.53	4451.70
579.69	4283.18
579.85	4140.41
580.01	4276.16
580.17	4290.20
580.33	4322.97
580.49	4184.88
580.65	4353.40
580.82	4425.95
580.98	4215.30
581.14	4278.50
581.30	4222.33
581.46	4351.06
581.62	4234.03
581.78	4285.52
581.94	4388.50
582.10	4383.82
582.26	4259.78
582.42	4379.14
582.58	4374.46
582.74	4428.29
582.90	4320.63
583.06	4269.14
583.22	4215.30
583.38	4379.14
583.54	4461.06
583.70	4334.67
583.86	4290.20
584.02	4278.50
584.18	4255.09
584.34	4320.63
584.50	4175.52
584.66	4161.47
584.82	4154.45
584.98	4215.30
585.14	4166.15
585.30	4025.72
585.46	4025.72
585.62	4035.08
585.78	4042.11
585.94	3990.61
586.10	4007.00
586.26	4182.54
586.42	4189.56
586.58	4287.86
586.74	4184.88
586.90	4088.92
587.06	4105.30
587.22	4004.66
587.38	4021.04
587.54	4152.11
587.70	4093.60
587.86	4072.53
588.02	4039.76
588.18	3929.76
588.34	3791.67
588.49	3534.21
588.65	3300.16
588.81	3248.66
588.97	3377.39
589.13	3382.07
589.29	3295.47
589.45	3515.48
589.61	3538.89
589.77	3627.83
589.93	3709.75
590.08	3824.44
590.24	3960.19
590.40	3915.72
590.56	3796.35
590.72	3822.09
590.88	3705.07
591.04	3836.14
591.20	3786.99
591.35	3723.79
591.51	3770.60
591.67	3794.01
591.83	3798.69
591.99	3730.81
592.15	3784.65
592.31	3866.56
592.46	3761.24
592.62	3826.78
592.78	3808.05
592.94	3655.92
593.10	3702.73
593.26	3782.31
593.41	3859.54
593.57	3714.43
593.73	3653.58
593.89	3644.21
594.05	3632.51
594.20	3784.65
594.36	3616.13
594.52	3574.00
594.68	3543.57
594.84	3735.50
594.99	3695.71
595.15	3599.74
595.31	3784.65
595.47	3744.86
595.62	3782.31
595.78	3684.00
595.94	3868.91
596.10	3803.37
596.25	3733.15
596.41	3679.32
596.57	3726.13
596.73	3808.05
596.88	3658.26
597.04	3562.30
597.20	3616.13
597.36	3707.41
597.51	3508.46
597.67	3618.47
597.83	3681.66
597.99	3639.53
598.14	3489.74
598.30	3541.23
598.46	3543.57
598.61	3681.66
598.77	3552.93
598.93	3646.55
599.09	3625.49
599.24	3712.09
599.40	3644.21
599.56	3515.48
599.71	3548.25
599.87	3487.40
600.03	3471.01
600.18	3592.72
600.34	3646.55
600.50	3545.91
600.65	3510.80
600.81	3494.42
600.97	3400.80
601.12	3527.19
601.28	3435.91
601.44	3534.21
601.59	3323.56
601.75	3513.14
601.91	3328.24
602.06	3330.58
602.22	3157.38
602.37	3459.31
602.53	3463.99
602.69	3538.89
602.84	3534.21
603.00	3548.25
603.16	3606.77
603.31	3646.55
603.47	3595.06
603.62	3583.36
603.78	3637.19
603.94	3461.65
604.09	3445.27
604.25	3513.14
604.40	3517.83
604.56	3410.16
604.71	3492.08
604.87	3513.14
605.03	3471.01
605.18	3403.14
605.34	3386.76
605.49	3351.65
605.65	3501.44
605.80	3492.08
605.96	3454.63
606.12	3335.26
606.27	3424.20
606.43	3510.80
606.58	3368.03
606.74	3361.01
606.89	3459.31
607.05	3456.97
607.20	3487.40
607.36	3295.47
607.51	3346.97
607.67	3356.33
607.82	3314.20
607.98	3288.45
608.13	3393.78
608.29	3356.33
608.44	3178.45
608.60	3157.38
608.75	3276.75
608.91	3349.31
609.06	3117.59
609.22	3288.45
609.37	3293.13
609.53	3307.18
609.68	3325.90
609.84	3089.51
609.99	3103.55
610.15	3122.27
610.30	3251.00
610.46	3262.71
610.61	3173.77
610.76	3332.92
610.92	3325.90
611.07	3419.52
611.23	3311.86
611.38	3265.05
611.54	3251.00
611.69	3138.66
611.84	3077.80
612.00	3204.19
612.15	3201.85
612.31	3131.64
612.46	3258.03
612.62	3141.00
612.77	3187.81
612.92	3023.97
613.08	3105.89
613.23	3119.93
613.39	2913.97
613.54	2970.14
613.69	3138.66
613.85	3141.00
614.00	3122.27
614.15	3225.26
614.31	3133.98
614.46	3108.23
614.62	3059.08
614.77	3052.06
614.92	3035.67
615.08	3133.98
615.23	3141.00
615.38	3063.76
615.54	2911.63
615.69	2953.76
615.84	2799.28
616.00	2911.63
616.15	2818.00
616.30	2944.39
616.46	2909.29
616.61	2930.35
616.76	2850.77
616.92	2979.50
617.07	2939.71
617.22	2892.90
617.37	2979.50
617.53	3019.29
617.68	3023.97
617.83	2888.22
617.99	2993.55
618.14	2911.63
618.29	2958.44
618.45	2930.35
618.60	3047.38
618.75	2799.28
618.90	2843.75
619.06	2822.69
619.21	2834.39
619.36	2850.77
619.51	2909.29
619.67	2920.99
619.82	2860.13
619.97	2876.52
620.12	2862.48
620.28	2874.18
620.43	2796.94
620.58	2881.20
620.73	2911.63
620.89	2825.03
621.04	2899.92
621.19	2834.39
621.34	2651.83
621.49	2834.39
621.65	2808.64
621.80	2703.32
621.95	2799.28
622.10	2897.58
622.25	2815.66
622.41	2745.45
622.56	2743.11
622.71	2682.25
622.86	2684.59
623.01	2684.59
623.16	2595.65
623.32	2801.62
623.47	2675.23
623.62	2731.41
623.77	2771.19
623.92	2551.18
624.07	2729.06
624.23	2661.19
624.38	2656.51
624.53	2511.39
624.68	2705.66
624.83	2696.30
624.98	2628.42
625.13	2520.76
625.29	2588.63
625.44	2544.16
625.59	2523.10
625.74	2551.18
625.89	2651.83
626.04	2597.99
626.19	2630.76
626.34	2619.06
626.49	2654.17
626.65	2518.42
626.80	2487.99
626.95	2520.76
627.10	2506.71
627.25	2462.24
627.40	2462.24
627.55	2321.81
627.70	2342.88
627.85	2359.26
628.00	2406.07
628.15	2511.39
628.30	2539.48
628.45	2429.48
628.60	2483.31
628.76	2459.90
628.91	2537.14
629.06	2434.16
629.21	2345.22
629.36	2370.96
629.51	2406.07
629.66	2394.37
629.81	2356.92
629.96	2328.83
630.11	2328.83
630.26	2338.20
630.41	2495.01
630.56	2368.62
630.71	2370.96
630.86	2431.82
631.01	2298.41
631.16	2354.58
631.31	2324.15
631.46	2314.79
631.61	2352.24
631.76	2335.85
631.91	2417.77
632.06	2251.60
632.21	2293.72
632.36	2485.65
632.51	2544.16
632.66	2239.89
632.81	2317.13
632.96	2380.32
633.10	2298.41
633.25	2200.10
633.40	2305.43
633.55	2347.56
633.70	2333.51
633.85	2373.30
634.00	2359.26
634.15	2246.91
634.30	2356.92
634.45	2265.64
634.60	2345.22
634.75	2258.62
634.90	2415.43
635.05	2319.47
635.19	2286.70
635.34	2256.28
635.49	2448.20
635.64	2167.34
635.79	2317.13
635.94	2317.13
636.09	2167.34
636.24	2331.17
636.39	2230.53
636.53	2312.45
636.68	2256.28
636.83	2197.76
636.98	2277.34
637.13	2193.08
637.28	2260.96
637.43	2258.62
637.57	2258.62
637.72	2286.70
637.87	2209.47
638.02	2403.73
638.17	2246.91
638.32	2225.85
638.46	2162.66
638.61	2296.07
638.76	2221.17
638.91	2169.68
639.06	2143.93
639.20	2293.72
639.35	2253.94
639.50	2165.00
639.65	2167.34
639.80	2167.34
639.94	2062.01
640.09	2214.15
640.24	2232.87
640.39	2200.10
640.54	2036.27
640.68	2054.99
640.83	2111.16
640.98	2106.48
641.13	2080.74
641.27	2155.63
641.42	2017.54
641.57	2176.70
641.72	2162.66
641.86	2005.84
642.01	2085.42
642.16	2150.95
642.31	2125.21
642.45	2218.83
642.60	2176.70
642.75	2165.00
642.90	2181.38
643.04	2174.36
643.19	2125.21
643.34	2085.42
643.48	2076.06
643.63	2043.29
643.78	2078.40
643.93	2038.61
644.07	2057.33
644.22	2057.33
644.37	2024.56
644.51	2052.65
644.66	1923.92
644.81	2165.00
644.95	1940.30
645.10	1860.73
645.25	1919.24
645.39	1898.17
645.54	1980.09
645.69	2015.20
645.83	1956.69
645.98	1947.33
646.13	1881.79
646.27	2036.27
646.42	1919.24
646.57	1877.11
646.71	1952.01
646.86	1881.79
647.00	1947.33
647.15	1865.41
647.30	1877.11
647.44	1870.09
647.59	1853.70
647.74	1830.30
647.88	1912.22
648.03	1891.15
648.17	1902.86
648.32	1877.11
648.47	2024.56
648.61	1921.58
648.76	1888.81
648.90	1771.79
649.05	1834.98
649.20	1727.32
649.34	1776.47
649.49	1743.70
649.63	1937.96
649.78	1767.10
649.92	1851.36
650.07	1851.36
650.21	1839.66
650.36	1919.24
650.51	1926.26
650.65	1928.60
650.80	1888.81
650.94	1806.89
651.09	1942.64
651.23	1872.43
651.38	1886.47
651.52	1764.76
651.67	1675.82
651.81	1797.53
651.96	1921.58
652.10	1966.05
652.25	1811.57
652.39	1832.64
652.54	1746.04
652.68	1853.70
652.83	1809.23
652.97	1778.81
653.12	1853.70
653.26	1802.21
653.41	1778.81
653.55	1809.23
653.70	1860.73
653.84	1722.63
653.99	1853.70
654.13	1767.10
654.27	1685.19
654.42	1689.87
654.56	1689.87
654.71	1631.35
654.85	1661.78
655.00	1713.27
655.14	1603.27
655.29	1563.48
655.43	1537.73
655.57	1383.26
655.72	1437.09
655.86	1247.51
656.01	1273.25
656.15	1320.06
656.30	1317.72
656.44	1369.21
656.58	1500.28
656.73	1446.45
656.87	1544.75
657.01	1629.01
657.16	1699.23
657.30	1619.65
657.45	1692.21
657.59	1673.48
657.73	1706.25
657.88	1647.74
658.02	1680.50
658.16	1645.40
658.31	1682.85
658.45	1764.76
658.60	1666.46
658.74	1528.37
658.88	1584.54
659.03	1624.33
659.17	1657.10
659.31	1680.50
659.46	1589.22
659.60	1631.35
659.74	1732.00
659.89	1708.59
660.03	1706.25
660.17	1694.55
660.32	1675.82
660.46	1619.65
660.60	1659.44
660.74	1617.31
660.89	1617.31
661.03	1619.65
661.17	1596.25
661.32	1572.84
661.46	1675.82
661.60	1678.16
661.74	1598.59
661.89	1724.97
662.03	1619.65
662.17	1654.76
662.31	1493.26
662.46	1631.35
662.60	1596.25
662.74	1643.06
662.88	1554.12
663.03	1497.94
663.17	1425.39
663.31	1523.69
663.45	1558.80
663.60	1582.20
663.74	1565.82
663.88	1444.11
664.02	1509.65
664.17	1490.92
664.31	1521.35
664.45	1495.60
664.59	1596.25
664.73	1551.78
664.88	1460.49
665.02	1561.14
665.16	1460.49
665.30	1488.58
665.44	1607.95
665.59	1446.45
665.73	1514.33
665.87	1441.77
666.01	1458.15
666.15	1399.64
666.29	1488.58
666.44	1502.62
666.58	1425.39
666.72	1481.56
666.86	1404.32
667.00	1476.88
667.14	1519.01
667.28	1406.66
667.43	1423.05
667.57	1423.05
667.71	1476.88
667.85	1364.53
667.99	1453.47
668.13	1483.90
668.27	1533.05
668.41	1455.81
668.56	1514.33
668.70	1406.66
668.84	1432.41
668.98	1432.41
669.12	1385.60
669.26	1392.62
669.40	1394.96
669.54	1345.81
669.68	1425.39
669.82	1385.60
669.96	1411.34
670.10	1411.34
670.25	1343.47
670.39	1345.81
670.53	1275.59
670.67	1348.15
670.81	1313.04
670.95	1324.74
671.09	1373.89
671.23	1301.34
671.37	1284.95
671.51	1287.29
671.65	1350.49
671.79	1437.09
671.93	1273.25
672.07	1259.21
672.21	1387.94
672.35	1376.24
672.49	1270.91
672.63	1301.34
672.77	1287.29
672.91	1203.04
673.05	1320.06
673.19	1252.19
673.33	1406.66
673.47	1280.27
673.61	1130.48
673.75	1242.82
673.89	1242.82
674.03	1217.08
674.17	1275.59
674.31	1273.25
674.45	1284.95
674.59	1233.46
674.73	1193.67
674.87	1256.87
675.01	1275.59
675.15	1238.14
675.29	1235.80
675.43	1181.97
675.56	1191.33
675.70	1238.14
675.84	1212.40
675.98	1135.16
676.12	1163.25
676.26	1163.25
676.40	1228.78
676.54	1139.84
676.68	1128.14
676.82	1160.91
676.96	1165.59
677.10	1043.88
677.23	1177.29
677.37	1081.33
677.51	1074.31
677.65	1111.75
677.79	1064.94
677.93	1196.01
678.07	1144.52
678.21	1060.26
678.34	1032.18
678.48	1062.60
678.62	1074.31
678.76	1188.99
678.90	1142.18
679.04	1027.50
679.18	1114.10
679.31	1043.88
679.45	1053.24
679.59	1114.10
679.73	1081.33
679.87	1142.18
680.00	1027.50
680.14	1053.24
680.28	1013.45
680.42	1013.45
680.56	1018.13
680.70	1018.13
680.83	1057.92
680.97	1064.94
681.11	1046.22
681.25	1125.80
681.39	980.68
681.52	973.66
681.66	1015.79
681.80	1018.13
681.94	1001.75
682.07	933.87
682.21	973.66
682.35	966.64
682.49	922.17
682.62	880.04
682.76	861.32
682.90	931.53
683.04	959.62
683.17	910.47
683.31	861.32
683.45	950.26
683.59	950.26
683.72	957.28
683.86	908.13
684.00	924.51
684.13	851.96
684.27	919.83
684.41	868.34
684.55	882.38
684.68	844.93
684.82	861.32
684.96	936.21
685.09	898.77
685.23	924.51
685.37	947.92
685.50	861.32
685.64	842.59
685.78	887.06
685.91	964.30
686.05	868.34
686.19	781.74
686.32	737.27
686.46	664.71
686.60	613.22
686.73	449.38
686.87	503.22
687.01	493.85
687.14	503.22
687.28	463.43
687.42	442.36
687.55	512.58
687.69	566.41
687.82	599.18
687.96	676.41
688.10	608.54
688.23	667.05
688.37	606.20
688.50	603.86
688.64	601.52
688.78	615.56
688.91	613.22
689.05	482.15
689.18	636.63
689.32	484.49
689.46	547.69
689.59	582.79
689.73	575.77
689.86	430.66
690.00	589.82
690.13	575.77
690.27	521.94
690.41	564.07
690.54	599.18
690.68	575.77
690.81	573.43
690.95	545.34
691.08	592.16
691.22	615.56
691.35	554.71
691.49	603.86
691.62	615.56
691.76	599.18
691.89	636.63
692.03	608.54
692.16	622.58
692.30	578.11
692.43	634.29
692.57	603.86
692.70	636.63
692.84	601.52
692.97	543.00
693.11	514.92
693.24	477.47
693.38	517.26
693.51	533.64
693.65	540.66
693.78	540.66
693.92	526.62
694.05	493.85
694.19	606.20
694.32	580.45
694.45	512.58
694.59	521.94
694.72	566.41
694.86	463.43
694.99	505.56
695.13	334.70
695.26	507.90
695.39	531.30
695.53	552.37
695.66	521.94
695.80	533.64
695.93	528.96
696.07	456.40
696.20	571.09
696.33	491.51
696.47	447.04
696.60	517.26
696.73	582.79
696.87	465.77
697.00	517.26
697.14	498.53
697.27	479.81
697.40	524.28
697.54	503.22
697.67	454.06
697.80	507.90
697.94	468.11
698.07	414.27
698.21	433.00
698.34	475.13
698.47	430.66
698.61	454.06
698.74	386.19
698.87	330.02
699.01	414.27
699.14	437.68
699.27	470.45
699.40	521.94
699.54	433.00
699.67	397.89
699.80	386.19
699.94	390.87
700.07	341.72
700.20	283.20
700.34	411.93
700.47	346.40
700.60	304.27
700.73	346.40
700.87	311.29
701.00	339.38
701.13	285.55
701.26	381.51
701.40	292.57
701.53	320.65
701.66	409.59
701.79	346.40
701.93	341.72
702.06	308.95
702.19	355.76
702.32	301.93
702.46	353.42
702.59	330.02
702.72	306.61
702.85	315.97
702.99	351.08
703.12	341.72
703.25	351.08
703.38	327.68
703.51	301.93
703.65	264.48
703.78	367.46
703.91	266.82
704.04	304.27
704.17	332.36
704.31	271.50
704.44	322.99
704.57	372.15
704.70	311.29
704.83	294.91
704.96	351.08
705.10	255.12
705.23	301.93
>>>>>End Processed Spectral Data<<<<<
