SpectraSuite Data File
++++++++++++++++++++++++++++++++++++
Date: Mon Oct 07 14:53:35 GMT-05:00 2013
User: price-jones
Dark Spectrum Present: No
Reference Spectrum Present: No
Number of Sampled Component Spectra: 1
Spectrometers: USB2+H05261
Integration Time (usec): 100000 (USB2+H05261)
Spectra Averaged: 1 (USB2+H05261)
Boxcar Smoothing: 0 (USB2+H05261)
Correct for Electrical Dark: No (USB2+H05261)
Strobe/Lamp Enabled: No (USB2+H05261)
Correct for Detector Non-linearity: No (USB2+H05261)
Correct for Stray Light: No (USB2+H05261)
Number of Pixels in Processed Spectrum: 2048
>>>>>Begin Processed Spectral Data<<<<<
365.73	0.00
365.92	0.00
366.12	0.00
366.32	0.00
366.52	0.00
366.72	0.00
366.91	0.00
367.11	0.00
367.31	0.00
367.51	0.00
367.70	0.00
367.90	0.00
368.10	0.00
368.30	0.00
368.49	0.00
368.69	0.00
368.89	0.00
369.09	0.00
369.28	0.00
369.48	0.00
369.68	0.00
369.87	0.00
370.07	0.00
370.27	0.00
370.47	695.14
370.66	3370.37
370.86	4037.42
371.06	4397.87
371.25	4533.62
371.45	4032.74
371.65	3644.21
371.84	3410.16
372.04	3463.99
372.24	4049.13
372.44	4135.73
372.63	4227.01
372.83	3918.06
373.03	3517.83
373.22	3136.32
373.42	3220.58
373.62	3763.58
373.81	4044.45
374.01	4205.94
374.21	3751.88
374.40	3358.67
374.60	3637.19
374.79	4081.89
374.99	4720.86
375.19	5156.20
375.38	5146.84
375.58	4809.80
375.78	4699.80
375.97	4688.09
376.17	5001.72
376.37	4814.48
376.56	5095.35
376.76	5451.11
376.95	5518.98
377.15	6244.55
377.35	6394.34
377.54	6628.40
377.74	6773.51
377.93	6789.89
378.13	6677.55
378.33	6312.42
378.52	5781.12
378.72	5568.13
378.91	5392.59
379.11	5427.70
379.31	5142.16
379.50	5069.60
379.70	5575.16
379.89	6113.48
380.09	6408.39
380.28	6553.50
380.48	6729.04
380.68	6328.81
380.87	6319.45
381.07	5844.32
381.26	5518.98
381.46	5041.51
381.65	5001.72
381.85	4873.00
382.04	4636.60
382.24	4299.56
382.43	4152.11
382.63	3971.89
382.83	4014.02
383.02	4126.36
383.22	4070.19
383.41	4063.17
383.61	4250.41
383.80	4896.40
384.00	5504.94
384.19	6134.54
384.39	6649.46
384.58	6750.10
384.78	6506.69
384.97	6354.55
385.17	6094.76
385.36	5771.76
385.56	5568.13
385.75	5598.56
385.95	6267.95
386.14	6878.83
386.34	6628.40
386.53	6480.94
386.72	6069.01
386.92	6155.61
387.11	6413.07
387.31	6902.24
387.50	6743.08
387.70	6382.64
387.89	6392.00
388.09	6462.22
388.28	6490.31
388.48	6534.78
388.67	7026.29
388.86	7805.69
389.06	8145.06
389.25	8872.97
389.45	8854.25
389.64	9043.83
389.84	8912.76
390.03	8620.19
390.22	8779.35
390.42	8882.33
390.61	9418.32
390.81	10029.20
391.00	10452.83
391.19	10101.75
391.39	9738.97
391.58	9352.78
391.78	8879.99
391.97	8346.35
392.16	7918.03
392.36	7152.68
392.55	5797.51
392.75	4592.13
392.94	3709.75
393.13	3597.40
393.33	4212.96
393.52	5689.84
393.71	7026.29
393.91	7716.75
394.10	8297.20
394.29	9198.31
394.49	9914.51
394.68	10644.76
394.88	10871.79
395.07	11157.33
395.26	11037.97
395.46	10682.20
395.65	10129.84
395.84	9078.94
396.04	7494.40
396.23	6108.80
396.42	4978.32
396.62	4821.50
396.81	5741.33
397.00	7222.89
397.19	9107.02
397.39	10867.11
397.58	12145.04
397.77	13032.10
397.97	13493.19
398.16	13598.51
398.35	14022.15
398.55	14441.11
398.74	15351.57
398.93	15625.42
399.12	15250.93
399.32	14661.12
399.51	15019.22
399.70	15789.25
399.90	15852.45
400.09	15800.96
400.28	15620.74
400.47	15735.42
400.67	16582.70
400.86	17165.49
401.05	16868.24
401.24	17029.74
401.44	17312.94
401.63	17132.72
401.82	17397.20
402.01	17177.19
402.21	17673.39
402.40	17668.70
402.59	17301.24
402.78	16362.69
402.97	16135.65
403.17	16479.71
403.36	17521.25
403.55	18164.90
403.74	18593.22
403.93	17617.21
404.13	16329.92
404.32	15868.83
404.51	16819.09
404.70	18302.99
404.89	18022.12
405.09	17692.11
405.28	17654.66
405.47	17287.20
405.66	17483.80
405.85	16879.94
406.05	16718.45
406.24	16477.37
406.43	17287.20
406.62	17820.84
406.81	18010.42
407.00	17064.85
407.20	17067.19
407.39	17011.01
407.58	17935.53
407.77	18663.43
407.96	18878.76
408.15	19634.75
408.34	19421.77
408.54	20498.41
408.73	20444.58
408.92	20201.16
409.11	19646.46
409.30	18462.15
409.49	17516.57
409.68	16397.79
409.87	16077.14
410.07	16573.33
410.26	18174.26
410.45	19576.24
410.64	19826.68
410.83	20152.01
411.02	21074.18
411.21	21802.09
411.40	21743.58
411.59	21455.69
411.78	21413.56
411.98	21158.44
412.17	21383.13
412.36	21202.91
412.55	21614.85
412.74	20505.43
412.93	20435.22
413.12	20475.01
413.31	22094.66
413.50	22614.26
413.69	23040.23
413.88	22207.00
414.07	21345.69
414.26	21558.67
414.45	22686.81
414.64	22644.68
414.83	22836.61
415.02	22373.18
415.22	22171.89
415.41	22963.00
415.60	23503.66
415.79	24379.02
415.98	24893.94
416.17	24945.43
416.36	24367.32
416.55	23861.76
416.74	23398.34
416.93	22459.78
417.12	22640.00
417.31	22782.77
417.50	23243.86
417.69	23875.80
417.88	24039.64
418.07	23641.75
418.26	23168.96
418.45	23316.42
418.64	24552.22
418.83	24959.47
419.02	24865.85
419.21	24994.58
419.39	23690.90
419.58	22258.49
419.77	22654.05
419.96	23311.74
420.15	24992.24
420.34	25436.94
420.53	26298.26
420.72	26890.41
420.91	26639.98
421.10	26150.81
421.29	25860.58
421.48	25069.48
421.67	26103.99
421.86	25916.75
422.05	23983.47
422.24	21671.02
422.43	21191.21
422.61	23618.35
422.80	25453.33
422.99	25582.06
423.18	24652.86
423.37	24287.74
423.56	24325.19
423.75	24730.10
423.94	25228.63
424.13	23618.35
424.32	23903.89
424.50	24336.89
424.69	23714.31
424.88	24116.88
425.07	23573.88
425.26	23655.79
425.45	23360.89
425.64	23063.64
425.83	22817.88
426.01	24479.66
426.20	24900.96
426.39	25055.43
426.58	23143.22
426.77	21570.38
426.96	20641.18
427.15	21128.02
427.33	23264.92
427.52	24002.19
427.71	23967.09
427.90	23857.08
428.09	23728.35
428.28	23459.19
428.46	22225.73
428.65	21853.58
428.84	22672.77
429.03	23262.58
429.22	21701.45
429.40	20802.68
429.59	18988.77
429.78	16531.20
429.97	16638.87
430.16	16830.79
430.34	17053.14
430.53	16847.18
430.72	17153.79
430.91	19147.92
431.10	22522.98
431.28	26562.74
431.47	28842.42
431.66	29032.00
431.85	26607.21
432.03	23964.75
432.22	23054.28
432.41	23964.75
432.60	26675.09
432.79	27683.86
432.97	28217.50
433.16	27793.86
433.35	25467.37
433.54	22902.14
433.72	21425.26
433.91	22097.00
434.10	24755.85
434.28	26611.89
434.47	27835.99
434.66	27653.43
434.85	26628.27
435.03	26792.11
435.22	27335.12
435.41	28933.70
435.59	28517.09
435.78	28954.77
435.97	29928.43
436.16	30480.80
436.34	29710.76
436.53	29282.44
436.72	29282.44
436.90	27931.95
437.09	27833.65
437.28	27009.78
437.46	28056.00
437.65	28027.92
437.84	26630.62
438.02	24233.91
438.21	23735.37
438.40	25539.93
438.58	27604.28
438.77	27531.72
438.96	28292.40
439.14	29509.47
439.33	30195.25
439.52	30504.20
439.70	30122.69
439.89	29469.69
440.08	28622.41
440.26	28552.20
440.45	29364.36
440.63	31089.34
440.82	32704.31
441.01	32484.30
441.19	32411.74
441.38	32807.29
441.57	33736.48
441.75	34590.78
441.94	34707.80
442.12	33998.62
442.31	34979.31
442.50	34754.61
442.68	34192.89
442.87	33551.58
443.05	33612.43
443.24	33755.21
443.43	34256.08
443.61	35157.19
443.80	35871.05
443.98	34246.72
444.17	33574.98
444.35	35896.80
444.54	36268.94
444.73	35627.63
444.91	34632.91
445.10	32662.18
445.28	31620.64
445.47	31351.48
445.65	31740.00
445.84	32175.34
446.02	33514.13
446.21	34024.37
446.39	33944.79
446.58	34579.07
446.77	35136.12
446.95	34719.51
447.14	36421.08
447.32	36748.75
447.51	35805.52
447.69	34717.17
447.88	34178.84
448.06	34686.74
448.25	35751.68
448.43	36072.34
448.62	35424.01
448.80	34759.30
448.99	35180.59
449.17	35517.63
449.36	35536.35
449.54	36744.07
449.73	37111.53
449.91	38024.34
450.10	38932.47
450.28	39440.37
450.46	39000.35
450.65	39283.55
450.83	38789.70
451.02	37968.17
451.20	37764.54
451.39	37439.21
451.57	37516.45
451.76	37219.20
451.94	37160.69
452.13	36177.66
452.31	35220.38
452.49	33528.17
452.68	33666.27
452.86	34139.05
453.05	34220.97
453.23	35704.87
453.42	36402.35
453.60	37357.29
453.78	37516.45
453.97	36957.06
454.15	37057.70
454.34	35929.56
454.52	36605.98
454.70	35522.31
454.89	36107.44
455.07	36292.35
455.26	36865.78
455.44	38319.25
455.62	39012.05
455.81	39381.85
455.99	38513.52
456.17	38305.21
456.36	38225.63
456.54	39136.10
456.73	39440.37
456.91	39632.29
457.09	40046.57
457.28	40652.76
457.46	39246.10
457.64	39522.29
457.83	38520.54
458.01	37427.51
458.19	37886.25
458.38	38307.55
458.56	39859.32
458.74	39519.95
458.93	38724.16
459.11	38721.82
459.29	38747.57
459.48	38520.54
459.66	38490.11
459.84	38883.32
460.03	39412.28
460.21	38717.14
460.39	39842.94
460.57	40203.38
460.76	40526.38
460.94	40858.73
461.12	39866.34
461.31	40545.10
461.49	40205.72
461.67	40006.78
461.85	41570.25
462.04	41425.14
462.22	41689.62
462.40	41448.55
462.59	41434.50
462.77	41319.82
462.95	40959.38
463.13	40612.98
463.32	40882.14
463.50	40240.83
463.68	40886.82
463.86	39873.37
464.05	39494.20
464.23	38965.24
464.41	39035.45
464.59	38082.86
464.78	40233.81
464.96	40140.19
465.14	39419.30
465.32	40430.41
465.50	40875.12
465.69	41727.07
465.87	41165.34
466.05	39833.58
466.23	38398.83
466.41	37228.56
466.60	38675.01
466.78	38778.00
466.96	39215.68
467.14	39285.89
467.32	39763.36
467.51	40240.83
467.69	38445.64
467.87	39363.13
468.05	40168.27
468.23	39913.16
468.41	39861.66
468.60	39817.19
468.78	40645.74
468.96	39704.85
469.14	40573.19
469.32	40322.75
469.50	39199.29
469.69	39807.83
469.87	39021.41
470.05	38990.98
470.23	38670.33
470.41	39014.39
470.59	39379.51
470.77	39571.44
470.95	40311.05
471.14	40664.47
471.32	40697.24
471.50	43044.79
471.68	43468.43
471.86	43594.82
472.04	43452.05
472.22	43952.92
472.40	41907.29
472.58	41675.58
472.77	40877.46
472.95	42244.33
473.13	42705.41
473.31	41825.37
473.49	41890.91
473.67	42780.31
473.85	42897.34
474.03	44135.48
474.21	43981.01
474.39	44446.77
474.57	44442.09
474.75	45177.02
474.93	44406.98
475.12	43086.92
475.30	43526.94
475.48	43784.40
475.66	44421.03
475.84	43831.21
476.02	43665.03
476.20	42796.70
476.38	43835.89
476.56	44811.90
476.74	45249.58
476.92	45521.08
477.10	46113.23
477.28	47402.87
477.46	47599.47
477.64	47767.99
477.82	47672.03
478.00	48158.86
478.18	47171.16
478.36	47028.38
478.54	47285.84
478.72	47264.78
478.90	48327.38
479.08	49312.75
479.26	49825.32
479.44	50101.51
479.62	49598.29
479.80	49759.79
479.98	49797.24
480.16	49982.14
480.34	49595.95
480.52	49881.50
480.70	50113.21
480.88	50160.02
481.06	50836.44
481.24	51313.90
481.41	51868.61
481.59	52271.18
481.77	52165.86
481.95	51714.14
482.13	51405.19
482.31	51547.96
482.49	52193.95
482.67	52058.20
482.85	52229.05
483.03	52706.52
483.21	52942.92
483.39	53125.48
483.57	52615.24
483.74	52231.40
483.92	52439.70
484.10	52435.02
484.28	53282.30
484.46	53586.57
484.64	53839.34
484.82	53001.43
485.00	52966.32
485.18	52074.58
485.35	51468.38
485.53	48451.43
485.71	44612.95
485.89	43700.14
486.07	46124.94
486.25	48987.41
486.43	51257.73
486.61	51987.98
486.78	51882.66
486.96	51978.62
487.14	53268.25
487.32	54021.90
487.50	54876.20
487.68	55531.55
487.85	55962.21
488.03	55861.57
488.21	55805.39
488.39	55164.09
488.57	54691.30
488.75	54384.69
488.92	55103.23
489.10	56956.94
489.28	58071.03
489.46	58738.08
489.64	58309.77
489.81	58590.63
489.99	58199.76
490.17	58131.89
490.35	58506.37
490.53	58258.27
490.70	57860.38
490.88	57694.21
491.06	58646.80
491.24	58583.61
491.41	57741.02
491.59	56371.80
491.77	55891.99
491.95	56725.22
492.13	57553.77
492.30	58656.17
492.48	59451.95
492.66	59880.27
492.84	59718.77
493.01	59737.49
493.19	59173.42
493.37	58880.86
493.54	58534.46
493.72	59271.73
493.90	59973.89
494.08	60566.04
494.25	61102.03
494.43	61148.84
494.61	61469.49
494.79	61523.32
494.96	61212.03
495.14	60879.67
495.32	60163.47
495.49	59330.24
495.67	60196.24
495.85	61331.40
496.02	61925.89
496.20	61886.10
496.38	61307.99
496.55	61113.73
496.73	61546.73
496.91	61630.99
497.09	62267.61
497.26	62361.23
497.44	61886.10
497.62	61382.89
497.79	60884.36
497.97	59814.73
498.14	59728.13
498.32	60800.10
498.50	61586.52
498.67	62216.12
498.85	62033.56
499.03	62178.67
499.20	62342.51
499.38	62365.91
499.56	62122.50
499.73	61677.80
499.91	61616.94
500.08	61144.16
500.26	60266.45
500.44	60741.58
500.61	61427.36
500.79	61298.63
500.97	60919.46
501.14	60741.58
501.32	60650.30
501.49	60788.39
501.67	60917.12
501.84	61345.44
502.02	61748.01
502.20	62007.81
502.37	62059.30
502.55	62138.88
502.72	62487.62
502.90	62894.88
503.07	62609.33
503.25	62382.30
503.43	61609.92
503.60	60956.91
503.78	60327.31
503.95	60741.58
504.13	62115.48
504.30	62878.49
504.48	62562.52
504.65	62286.34
504.83	62232.50
505.01	62803.59
505.18	63157.02
505.36	63767.90
505.53	63817.05
505.71	63962.16
505.88	64041.74
506.06	63358.30
506.23	63220.21
506.41	62904.24
506.58	63047.01
506.76	62925.30
506.93	62855.09
507.11	62876.15
507.28	63049.35
507.46	62375.28
507.63	61930.58
507.81	61616.94
507.98	61963.34
508.16	62583.58
508.33	63189.78
508.50	63355.96
508.68	63800.66
508.85	64065.14
509.03	63999.61
509.20	64051.10
509.38	63278.72
509.55	62740.40
509.73	62691.25
509.90	63173.40
510.08	63304.47
510.25	63454.26
510.42	63311.49
510.60	63138.29
510.77	63290.43
510.95	63788.96
511.12	64046.42
511.30	64170.47
511.47	64439.63
511.64	64465.38
511.82	64259.41
511.99	63365.32
512.17	63250.64
512.34	62717.00
512.51	62951.05
512.69	62944.03
512.86	63058.71
513.04	63463.63
513.21	63449.58
513.38	63089.14
513.56	62665.50
513.73	62054.62
513.90	62506.35
514.08	62511.03
514.25	62766.15
514.43	62904.24
514.60	63110.20
514.77	63072.76
514.95	63185.10
515.12	63128.93
515.29	63393.41
515.47	63910.67
515.64	63999.61
515.81	63693.00
515.99	63173.40
516.16	61874.40
516.33	60013.68
516.51	58583.61
516.68	58003.16
516.85	57766.76
517.03	57820.59
517.20	60037.08
517.37	62335.49
517.54	63142.97
517.72	62855.09
517.89	60903.08
518.06	58714.68
518.24	58876.18
518.41	60858.61
518.58	61911.85
518.75	62185.69
518.93	62394.00
519.10	61923.55
519.27	62532.09
519.45	62894.88
519.62	63510.44
519.79	63777.26
519.96	63653.21
520.14	63276.38
520.31	62293.36
520.48	62433.79
520.65	62672.52
520.83	63625.12
521.00	63814.71
521.17	63526.82
521.34	63252.98
521.52	63414.47
521.69	63943.44
521.86	64413.88
522.03	64081.53
522.20	63128.93
522.38	62106.12
522.55	62117.82
522.72	62808.28
522.89	62817.64
523.07	62822.32
523.24	63215.53
523.41	64083.87
523.58	64301.54
523.75	64425.59
523.92	64427.93
524.10	64495.80
524.27	64629.21
524.44	64170.47
524.61	64149.40
524.78	64062.80
524.96	63887.26
525.13	64011.31
525.30	64219.62
525.47	64568.36
525.64	64481.76
525.81	63835.77
525.98	62611.67
526.16	61364.17
526.33	60666.69
526.50	60516.89
526.67	60090.91
526.84	60669.03
527.01	61146.50
527.18	62230.16
527.36	63039.99
527.53	63863.86
527.70	64133.02
527.87	63674.27
528.04	63077.44
528.21	63496.39
528.38	64240.68
528.55	64713.47
528.72	64910.08
528.89	65087.96
529.07	64917.10
529.24	64289.84
529.41	63594.70
529.58	63208.51
529.75	63480.01
529.92	63697.68
530.09	64095.57
530.26	64411.54
530.43	64771.99
530.60	64643.26
530.77	64942.84
530.94	64919.44
531.11	64486.44
531.28	64193.87
531.46	63962.16
531.63	64245.36
531.80	64126.00
531.97	63779.60
532.14	63103.18
532.31	62241.87
532.48	61630.99
532.65	61626.31
532.82	62253.57
532.99	63472.99
533.16	63716.40
533.33	64170.47
533.50	63955.14
533.67	63517.46
533.84	63135.95
534.01	63550.23
534.18	63372.34
534.35	63856.84
534.52	63538.52
534.69	63739.81
534.86	63870.88
535.03	64126.00
535.20	64727.52
535.37	64968.59
535.54	65022.42
535.71	64835.18
535.88	64472.40
536.05	63770.24
536.22	63721.08
536.38	63295.11
536.55	62808.28
536.72	62384.64
536.89	62199.74
537.06	63065.73
537.23	63866.20
537.40	64032.38
537.57	63950.46
537.74	63749.17
537.91	63894.28
538.08	63590.01
538.25	63819.39
538.42	63774.92
538.59	63807.68
538.75	63187.44
538.92	62880.83
539.09	62951.05
539.26	62543.80
539.43	62618.69
539.60	62553.16
539.77	62794.23
539.94	62614.01
540.11	62110.80
540.28	61544.39
540.44	61563.11
540.61	61771.42
540.78	62103.77
540.95	62590.61
541.12	62941.69
541.29	63121.91
541.46	62997.86
541.62	63194.46
541.79	63187.44
541.96	62686.57
542.13	62492.30
542.30	62932.32
542.47	62962.75
542.63	62742.74
542.80	62609.33
542.97	62829.34
543.14	62738.06
543.31	62693.59
543.48	63295.11
543.64	63826.41
543.81	64095.57
543.98	64023.01
544.15	63351.28
544.32	62684.23
544.48	62637.42
544.65	63316.17
544.82	63554.91
544.99	63119.57
545.16	62958.07
545.32	62777.85
545.49	63292.77
545.66	63753.85
545.83	63421.50
546.00	63262.34
546.16	62752.10
546.33	62918.28
546.50	62944.03
546.67	63245.96
546.83	62855.09
547.00	62752.10
547.17	62293.36
547.34	61865.04
547.50	61708.22
547.67	62216.12
547.84	62316.76
548.00	62562.52
548.17	63016.58
548.34	62838.70
548.51	62801.25
548.67	62920.62
548.84	62932.32
549.01	63007.22
549.18	63037.65
549.34	62726.36
549.51	62642.10
549.68	62794.23
549.84	62541.45
550.01	62347.19
550.18	62281.66
550.34	62504.01
550.51	62536.77
550.68	62581.24
550.84	62082.71
551.01	62103.77
551.18	62230.16
551.34	62269.95
551.51	62782.53
551.68	62887.85
551.84	62925.30
552.01	62700.61
552.18	62714.65
552.34	61958.66
552.51	61820.57
552.68	61549.07
552.84	62010.15
553.01	62190.37
553.18	62122.50
553.34	62173.99
553.51	62457.20
553.67	62574.22
553.84	62709.97
554.01	62621.03
554.17	62377.62
554.34	62396.34
554.51	62606.99
554.67	62979.14
554.84	62705.29
555.00	62356.55
555.17	62122.50
555.33	62143.56
555.50	62005.47
555.67	62281.66
555.83	62000.79
556.00	61743.33
556.16	61773.76
556.33	61443.74
556.50	61319.70
556.66	61483.53
556.83	61092.66
556.99	61268.20
557.16	61455.45
557.32	61492.89
557.49	61776.10
557.65	61820.57
557.82	61612.26
557.98	61537.36
558.15	61197.99
558.32	60200.92
558.48	59573.66
558.65	59805.37
558.81	60289.86
558.98	60460.72
559.14	60690.09
559.31	60959.25
559.47	60722.86
559.64	60470.08
559.80	60285.18
559.97	60252.41
560.13	60626.90
560.30	61436.72
560.46	61843.98
560.63	61946.96
560.79	62078.03
560.96	61630.99
561.12	60762.65
561.29	59950.48
561.45	60044.10
561.61	60420.93
561.78	60896.06
561.94	60711.16
562.11	60544.98
562.27	60481.78
562.44	60643.28
562.60	61041.17
562.77	61307.99
562.93	61099.68
563.10	61233.10
563.26	60552.00
563.42	60669.03
563.59	60357.74
563.75	60594.13
563.92	60528.59
564.08	60526.25
564.24	60781.37
564.41	60654.98
564.57	60552.00
564.74	60472.42
564.90	60346.03
565.07	60477.10
565.23	59973.89
565.39	59447.27
565.56	59215.55
565.72	58930.01
565.88	59267.05
566.05	59580.68
566.21	59891.97
566.38	59917.71
566.54	59725.79
566.70	60315.61
566.87	60385.82
567.03	60566.04
567.19	60591.79
567.36	60378.80
567.52	60463.06
567.68	60081.55
567.85	59484.72
568.01	59147.68
568.17	58937.03
568.34	59042.35
568.50	58812.98
568.66	58878.52
568.83	59311.52
568.99	59402.80
569.15	59377.05
569.32	59435.56
569.48	59367.69
569.64	59103.21
569.81	58822.34
569.97	58857.45
570.13	58717.02
570.30	58370.62
570.46	58078.05
570.62	57609.95
570.78	57420.36
570.95	57661.44
571.11	58265.30
571.27	58585.95
571.43	58614.04
571.60	58974.48
571.76	58904.26
571.92	59323.22
572.09	59437.90
572.25	59419.18
572.41	59386.41
572.57	59168.74
572.74	59206.19
572.90	59065.76
573.06	58805.96
573.22	59044.69
573.38	59042.35
573.55	58841.07
573.71	59035.33
573.87	59063.42
574.03	58705.32
574.20	58894.90
574.36	58529.78
574.52	58354.24
574.68	58349.56
574.84	58113.16
575.01	57612.29
575.17	57434.41
575.33	57820.59
575.49	58010.18
575.65	58174.02
575.82	57895.49
575.98	57586.54
576.14	57928.26
576.30	58227.85
576.46	58265.30
576.62	58391.68
576.79	58291.04
576.95	57858.04
577.11	57921.24
577.27	57961.03
577.43	58176.36
577.59	57518.67
577.75	57282.27
577.92	56856.29
578.08	56591.81
578.24	56427.98
578.40	56914.81
578.56	57193.33
578.72	57099.71
578.88	57453.13
579.04	57492.92
579.21	57509.30
579.37	57607.61
579.53	57724.63
579.69	57373.55
579.85	57623.99
580.01	57867.40
580.17	57174.61
580.33	57240.14
580.49	57158.22
580.65	57427.38
580.82	57584.20
580.98	57401.64
581.14	57525.69
581.30	57696.55
581.46	57282.27
581.62	57542.07
581.78	57523.35
581.94	57862.72
582.10	57535.05
582.26	57710.59
582.42	57792.51
582.58	57811.23
582.74	57626.33
582.90	57649.74
583.06	57560.79
583.22	57464.83
583.38	57378.23
583.54	57279.93
583.70	57153.54
583.86	57425.04
584.02	57286.95
584.18	57411.00
584.34	57329.08
584.50	57010.77
584.66	57153.54
584.82	56952.26
584.98	56664.37
585.14	56392.87
585.30	55732.84
585.46	55606.45
585.62	55339.63
585.78	55805.39
585.94	55966.89
586.10	56243.07
586.26	56233.71
586.42	56631.60
586.58	56975.66
586.74	56739.27
586.90	56655.01
587.06	56310.95
587.22	56736.93
587.38	56191.58
587.54	55938.80
587.70	56039.45
587.86	55477.72
588.02	55475.38
588.18	55466.02
588.34	54588.31
588.49	52868.02
588.65	50885.59
588.81	50548.55
588.97	50960.48
589.13	50639.83
589.29	50387.05
589.45	51386.46
589.61	52467.79
589.77	53787.85
589.93	54349.58
590.08	54742.79
590.24	54735.77
590.40	54958.12
590.56	54981.52
590.72	54836.41
590.88	54248.94
591.04	54246.60
591.20	54382.35
591.35	54351.92
591.51	54342.56
591.67	54127.23
591.83	54291.07
591.99	54178.72
592.15	54445.54
592.31	54721.72
592.46	54424.48
592.62	54307.45
592.78	54003.18
592.94	54260.64
593.10	54260.64
593.26	54382.35
593.41	54625.76
593.57	54475.97
593.73	54213.83
593.89	53886.15
594.05	53631.04
594.20	53418.05
594.36	53193.36
594.52	52931.22
594.68	52884.40
594.84	52968.66
594.99	53626.35
595.15	53797.21
595.31	53717.64
595.47	53813.60
595.62	54031.27
595.78	54279.36
595.94	54234.89
596.10	54232.55
596.25	54113.19
596.41	53640.40
596.57	53701.25
596.73	53867.43
596.88	54092.12
597.04	53642.74
597.20	53357.19
597.36	53263.57
597.51	53521.03
597.67	53492.94
597.83	53448.47
597.99	53277.61
598.14	52839.93
598.30	52891.43
598.46	52591.84
598.61	52729.93
598.77	53006.11
598.93	53277.61
599.09	53504.65
599.24	53591.25
599.40	53322.08
599.56	53312.72
599.71	52938.24
599.87	53312.72
600.03	52891.43
600.18	52938.24
600.34	52449.06
600.50	52446.72
600.65	52369.49
600.81	52409.28
600.97	52453.75
601.12	52411.62
601.28	52528.64
601.44	52460.77
601.59	51964.57
601.75	51999.68
601.91	51789.03
602.06	51536.26
602.22	52046.49
602.37	52182.24
602.53	52062.88
602.69	52348.42
602.84	52629.29
603.00	52898.45
603.16	53034.20
603.31	53230.80
603.47	52952.28
603.62	52741.63
603.78	52790.78
603.94	52619.92
604.09	52425.66
604.25	52376.51
604.40	52446.72
604.56	52360.12
604.71	52610.56
604.87	52303.95
605.03	52287.57
605.18	51920.10
605.34	51964.57
605.49	51611.15
605.65	51976.28
605.80	51966.91
605.96	51686.05
606.12	51416.89
606.27	51437.95
606.43	51405.19
606.58	51749.24
606.74	51817.12
606.89	51964.57
607.05	51648.60
607.20	51849.89
607.36	51393.48
607.51	51175.81
607.67	50906.65
607.82	51058.79
607.98	50841.12
608.13	50637.49
608.29	50412.80
608.44	50459.61
608.60	50417.48
608.75	50560.25
608.91	50553.23
609.06	50492.38
609.22	51091.55
609.37	50691.32
609.53	50878.57
609.68	50227.90
609.84	49272.96
609.99	49284.66
610.15	49045.93
610.30	49514.03
610.46	49598.29
610.61	50185.77
610.76	50747.50
610.92	50609.40
611.07	50628.13
611.23	50492.38
611.38	50415.14
611.54	50054.70
611.69	49626.38
611.84	48994.43
612.00	48769.74
612.15	48664.42
612.31	49188.70
612.46	49001.46
612.62	49102.10
612.77	49373.60
612.92	49602.97
613.08	49090.40
613.23	47931.83
613.39	47580.75
613.54	47325.63
613.69	47707.14
613.85	47789.06
614.00	47688.42
614.15	48439.73
614.31	48531.01
614.46	48521.65
614.62	48355.47
614.77	48388.24
614.92	48659.74
615.08	48289.93
615.23	47789.06
615.38	48203.33
615.54	46997.96
615.69	45921.31
615.84	45263.62
616.00	45434.48
616.15	45144.25
616.30	46012.59
616.46	46017.27
616.61	45930.67
616.76	46124.94
616.92	46415.16
617.07	46892.63
617.22	46824.76
617.37	47021.36
617.53	47271.80
617.68	47353.72
617.83	47084.56
617.99	47192.22
618.14	47290.52
618.29	46740.50
618.45	46880.93
618.60	46263.03
618.75	45794.92
618.90	45886.20
619.06	46492.40
619.21	46824.76
619.36	46932.42
619.51	46607.09
619.67	46513.47
619.82	46258.35
619.97	46731.14
620.12	46361.33
620.28	46447.93
620.43	46494.74
620.58	46913.70
620.73	46602.41
620.89	45581.93
621.04	45773.86
621.19	45382.99
621.34	45539.80
621.49	45165.32
621.65	45244.90
621.80	45055.31
621.95	45343.20
622.10	45422.78
622.25	45249.58
622.41	44671.46
622.56	44458.48
622.71	43887.39
622.86	43952.92
623.01	44364.85
623.16	44371.88
623.32	44315.70
623.47	44275.91
623.62	44399.96
623.77	44009.09
623.92	43643.97
624.07	42990.96
624.23	42845.85
624.38	42440.93
624.53	42733.50
624.68	43175.86
624.83	42925.42
624.98	42572.00
625.13	42036.02
625.29	42403.49
625.44	41986.87
625.59	42670.31
625.74	42635.20
625.89	42665.63
626.04	42667.97
626.19	42485.40
626.34	42754.57
626.49	42532.22
626.65	42909.04
626.80	42911.38
626.95	42412.85
627.10	41706.01
627.25	41394.71
627.40	40187.00
627.55	39185.25
627.70	39419.30
627.85	39365.47
628.00	40128.48
628.15	40638.72
628.30	40627.02
628.45	40865.75
628.60	40999.16
628.76	40554.46
628.91	40591.91
629.06	40673.83
629.21	40390.62
629.36	40172.96
629.51	39800.81
629.66	39594.84
629.81	38993.32
629.96	39634.63
630.11	39882.73
630.26	40149.55
630.41	40573.19
630.56	40201.04
630.71	40390.62
630.86	39969.33
631.01	39716.55
631.16	39648.68
631.31	39208.65
631.46	38117.96
631.61	38883.32
631.76	38955.88
631.91	38841.19
632.06	39878.05
632.21	39849.96
632.36	40477.22
632.51	39683.78
632.66	40381.26
632.81	39447.39
632.96	39861.66
633.10	39196.95
633.25	39042.48
633.40	38831.83
633.55	38565.01
633.70	39089.29
633.85	39122.05
634.00	39416.96
634.15	38960.56
634.30	39070.56
634.45	39255.46
634.60	38742.89
634.75	39105.67
634.90	38913.75
635.05	39014.39
635.19	38462.02
635.34	38948.85
635.49	38513.52
635.64	38183.50
635.79	38162.43
635.94	37724.75
636.09	38220.95
636.24	38024.34
636.39	38204.56
636.53	38361.38
636.68	38326.27
636.83	38778.00
636.98	38721.82
637.13	38639.90
637.28	38689.06
637.43	38780.34
637.57	38342.66
637.72	38398.83
637.87	38120.31
638.02	37816.04
638.17	38197.54
638.32	37933.06
638.46	38321.59
638.61	38117.96
638.76	37614.75
638.91	37237.92
639.06	36957.06
639.20	37067.06
639.35	37116.22
639.50	36603.64
639.65	36130.85
639.80	36732.37
639.94	36776.84
640.09	37170.05
640.24	36650.45
640.39	36570.87
640.54	36044.25
640.68	36327.45
640.83	36378.95
640.98	35562.10
641.13	35548.06
641.27	36151.91
641.42	35688.49
641.57	36074.68
641.72	35702.53
641.86	35522.31
642.01	35683.81
642.16	36517.04
642.31	36357.88
642.45	36666.83
642.60	36062.97
642.75	35721.26
642.90	35508.27
643.04	35456.78
643.19	35407.62
643.34	35227.40
643.48	35131.44
643.63	34869.30
643.78	35496.56
643.93	35571.46
644.07	35831.26
644.22	35915.52
644.37	35388.90
644.51	35639.34
644.66	35428.69
644.81	34878.66
644.95	34932.50
645.10	34822.49
645.25	34043.09
645.39	34656.31
645.54	34431.62
645.69	33935.43
645.83	33647.54
645.98	33392.42
646.13	33153.69
646.27	33757.55
646.42	33544.56
646.57	33743.50
646.71	33441.57
646.86	33291.78
647.00	33144.33
647.15	33060.07
647.30	32381.31
647.44	33041.34
647.59	32690.26
647.74	32549.83
647.88	32247.90
648.03	32517.06
648.17	32720.69
648.32	32690.26
648.47	33200.50
648.61	32786.22
648.76	32886.87
648.90	31814.90
649.05	31545.74
649.20	30714.85
649.34	30485.48
649.49	30497.18
649.63	31197.00
649.78	31482.55
649.92	32154.28
650.07	32243.22
650.21	32617.71
650.36	32868.14
650.51	32615.37
650.65	32868.14
650.80	33024.96
650.94	32467.91
651.09	32175.34
651.23	31236.79
651.38	30789.75
651.52	30775.70
651.67	30941.88
651.81	31594.89
651.96	31702.56
652.10	31714.26
652.25	31674.47
652.39	31555.10
652.54	32208.11
652.68	31821.92
652.83	31606.59
652.97	31644.04
653.12	31676.81
653.26	31983.42
653.41	31433.39
653.55	31569.15
653.70	31908.52
653.84	31461.48
653.99	31367.86
654.13	30352.07
654.27	30047.80
654.42	29993.97
654.56	29991.62
654.71	30190.57
654.85	30064.18
655.00	30019.71
655.14	29223.93
655.29	28547.51
655.43	28411.76
655.57	27559.81
655.72	25701.42
655.86	23335.14
656.01	22302.96
656.15	22661.07
656.30	23861.76
656.44	25481.41
656.58	26277.19
656.73	26981.70
656.87	27988.13
657.01	28023.23
657.16	28760.50
657.30	29024.98
657.45	29455.64
657.59	29378.40
657.73	29500.11
657.88	29947.15
658.02	29614.80
658.16	30010.35
658.31	29696.72
658.45	29703.74
658.60	29469.69
658.74	29359.68
658.88	28868.17
659.03	28655.18
659.17	28622.41
659.31	28734.76
659.46	28842.42
659.60	28973.49
659.74	29310.53
659.89	29427.56
660.03	29120.95
660.17	29563.31
660.32	29099.88
660.46	29039.03
660.60	28645.82
660.74	28893.91
660.89	28898.59
661.03	28418.78
661.17	29074.13
661.32	28840.08
661.46	28709.01
661.60	28517.09
661.74	29170.10
661.89	28814.34
662.03	28643.48
662.17	28465.60
662.31	28114.52
662.46	28526.45
662.60	27999.83
662.74	28067.70
662.88	28180.05
663.03	27580.87
663.17	27838.33
663.31	27199.37
663.45	27578.53
663.60	27410.01
663.74	27733.01
663.88	27552.79
664.02	27461.51
664.17	27623.00
664.31	27421.72
664.45	27470.87
664.59	27285.97
664.73	27718.96
664.88	27796.20
665.02	27491.93
665.16	27548.11
665.30	27615.98
665.44	27215.75
665.59	26883.39
665.73	26768.71
665.87	26302.94
666.01	26394.22
666.15	26359.11
666.29	26443.37
666.44	26211.66
666.58	25975.27
666.72	26480.82
666.86	26785.09
667.00	26544.02
667.14	26913.82
667.28	26405.92
667.43	26082.93
667.57	25949.52
667.71	25886.32
667.85	25888.67
667.99	25621.84
668.13	25841.85
668.27	25839.51
668.41	26284.22
668.56	25944.84
668.70	25937.82
668.84	25497.80
668.98	25706.10
669.12	25216.93
669.26	25448.64
669.40	24954.79
669.54	25439.28
669.68	25149.06
669.82	24980.54
669.96	24917.34
670.10	24945.43
670.25	24657.54
670.39	24290.08
670.53	24425.83
670.67	24140.29
670.81	24362.64
670.95	24355.61
671.09	23981.13
671.23	24161.35
671.37	23768.14
671.51	24196.46
671.65	24166.03
671.79	23667.50
671.93	23941.34
672.07	24430.51
672.21	23791.55
672.35	23814.95
672.49	23824.31
672.63	23754.10
672.77	23953.04
672.91	23702.61
673.05	23372.59
673.19	23850.06
673.33	23679.20
673.47	23349.18
673.61	23534.09
673.75	23129.17
673.89	23346.84
674.03	23145.56
674.17	23002.78
674.31	23253.22
674.45	22843.63
674.59	22728.94
674.73	22806.18
674.87	22450.42
675.01	22520.63
675.15	22436.38
675.29	22328.71
675.43	22553.40
675.56	22427.01
675.70	22143.81
675.84	21947.20
675.98	21551.65
676.12	22176.58
676.26	22047.85
676.40	21638.25
676.54	21748.26
676.68	21724.85
676.82	21294.19
676.96	21664.00
677.10	21722.51
677.23	21465.05
677.37	21619.53
677.51	21228.66
677.65	21315.26
677.79	21184.19
677.93	21013.33
678.07	21099.93
678.21	20444.58
678.34	20601.40
678.48	20407.13
678.62	20226.91
678.76	20774.60
678.90	20666.93
679.04	20320.53
679.18	20425.86
679.31	19932.00
679.45	20163.72
679.59	19901.58
679.73	20077.12
679.87	19927.32
680.00	19866.47
680.14	20243.29
680.28	19648.80
680.42	19269.63
680.56	19896.89
680.70	19679.22
680.83	19264.95
680.97	19016.85
681.11	19372.61
681.25	19295.38
681.39	19269.63
681.52	19218.14
681.66	19232.18
681.80	19094.09
681.94	18689.18
682.07	19094.09
682.21	18848.33
682.35	18771.10
682.49	18766.42
682.62	18356.82
682.76	17989.36
682.90	17785.73
683.04	18326.39
683.17	18090.00
683.31	18106.38
683.45	18036.17
683.59	18181.28
683.72	17584.44
683.86	17240.39
684.00	16877.60
684.13	17123.36
684.27	17334.01
684.41	17411.25
684.55	17561.04
684.68	17348.05
684.82	17472.10
684.96	17191.23
685.09	17102.29
685.23	16812.07
685.37	16938.46
685.50	16938.46
685.64	16549.93
685.78	16500.78
685.91	16615.46
686.05	16306.51
686.19	16152.04
686.32	15269.66
686.46	13488.51
686.60	11836.09
686.73	11002.86
686.87	10565.18
687.01	10394.32
687.14	10445.81
687.28	10740.72
687.42	11337.56
687.55	11896.94
687.69	12432.93
687.82	13221.69
687.96	13483.83
688.10	13277.86
688.23	13453.40
688.37	12992.31
688.50	12966.57
688.64	12896.35
688.78	12629.53
688.91	12470.37
689.05	12484.42
689.18	12648.26
689.32	12355.69
689.46	12430.59
689.59	12568.68
689.73	12711.45
689.86	12793.37
690.00	12491.44
690.13	12634.21
690.27	12716.13
690.41	12917.42
690.54	12734.85
690.68	12833.16
690.81	13104.66
690.95	12959.55
691.08	13193.60
691.22	12706.77
691.35	12835.50
691.49	12959.55
691.62	12968.91
691.76	12896.35
691.89	12968.91
692.03	12755.92
692.16	12458.67
692.30	12643.57
692.43	12348.67
692.57	12528.89
692.70	12439.95
692.84	12276.11
692.97	12023.33
693.11	12023.33
693.24	12004.61
693.38	12102.91
693.51	12020.99
693.65	11777.58
693.78	11445.22
693.92	11625.44
694.05	11417.13
694.19	11672.25
694.32	11817.36
694.45	11793.96
694.59	11590.33
694.72	11599.70
694.86	11400.75
694.99	11403.09
695.13	11286.06
695.26	11044.99
695.39	11246.27
695.53	11265.00
695.66	11094.14
695.80	11026.26
695.93	10998.18
696.07	11080.10
696.20	11290.74
696.33	11623.10
696.47	11667.57
696.60	11609.06
696.73	11513.10
696.87	11379.68
697.00	11566.93
697.14	11447.56
697.27	11136.27
697.40	11056.69
697.54	10815.62
697.67	10700.93
697.80	10623.69
697.94	10483.26
698.07	10473.90
698.21	10607.31
698.34	10281.97
698.47	10214.10
698.61	9853.66
698.74	9881.74
698.87	10141.54
699.01	9916.85
699.14	9994.09
699.27	10136.86
699.40	10370.91
699.54	9879.40
699.67	9839.61
699.80	9692.16
699.94	9760.03
700.07	9678.12
700.20	9376.19
700.34	9165.54
700.47	9270.86
700.60	9350.44
700.73	9160.86
700.87	9273.20
701.00	9188.94
701.13	9177.24
701.26	9053.19
701.40	9041.49
701.53	8842.54
701.66	9125.75
701.79	9097.66
701.93	9039.15
702.06	8971.27
702.19	8947.87
702.32	8851.91
702.46	8650.62
702.59	8746.58
702.72	8788.71
702.85	8716.16
702.99	8659.98
703.12	8945.53
703.25	8821.48
703.38	8847.22
703.51	8697.43
703.65	8489.12
703.78	8402.52
703.91	8557.00
704.04	8496.14
704.17	8533.59
704.31	8369.76
704.44	8446.99
704.57	8622.53
704.70	8344.01
704.83	8503.17
704.96	8250.39
705.10	8234.00
705.23	8210.60
>>>>>End Processed Spectral Data<<<<<
